3.992094e+002;0.000000e+000
4.011380e+002;0.000000e+000
4.030665e+002;0.000000e+000
4.049951e+002;0.000000e+000
4.069236e+002;0.000000e+000
4.088522e+002;0.000000e+000
4.107807e+002;0.000000e+000
4.127093e+002;0.000000e+000
4.146378e+002;0.000000e+000
4.165664e+002;0.000000e+000
4.184949e+002;0.000000e+000
4.204235e+002;0.000000e+000
4.223520e+002;0.000000e+000
4.242806e+002;0.000000e+000
4.262091e+002;0.000000e+000
4.281377e+002;0.000000e+000
4.300662e+002;0.000000e+000
4.319948e+002;0.000000e+000
4.339233e+002;0.000000e+000
4.358519e+002;0.000000e+000
4.377804e+002;0.000000e+000
4.397090e+002;0.000000e+000
4.416375e+002;0.000000e+000
4.435660e+002;0.000000e+000
4.454946e+002;0.000000e+000
4.474232e+002;0.000000e+000
4.493517e+002;0.000000e+000
4.512802e+002;0.000000e+000
4.532088e+002;0.000000e+000
4.551373e+002;0.000000e+000
4.570659e+002;0.000000e+000
4.589944e+002;0.000000e+000
4.609230e+002;0.000000e+000
4.628515e+002;0.000000e+000
4.647801e+002;0.000000e+000
4.667086e+002;0.000000e+000
4.686372e+002;0.000000e+000
4.705657e+002;0.000000e+000
4.724943e+002;0.000000e+000
4.744228e+002;0.000000e+000
4.763513e+002;0.000000e+000
4.782799e+002;0.000000e+000
4.802085e+002;0.000000e+000
4.821370e+002;0.000000e+000
4.840656e+002;0.000000e+000
4.859941e+002;0.000000e+000
4.879226e+002;0.000000e+000
4.898512e+002;0.000000e+000
4.917798e+002;0.000000e+000
4.937083e+002;0.000000e+000
4.956368e+002;0.000000e+000
4.975654e+002;0.000000e+000
4.994939e+002;0.000000e+000
5.014225e+002;0.000000e+000
5.033510e+002;0.000000e+000
5.052796e+002;0.000000e+000
5.072081e+002;0.000000e+000
5.091367e+002;0.000000e+000
5.110652e+002;0.000000e+000
5.129938e+002;0.000000e+000
5.149223e+002;0.000000e+000
5.168509e+002;0.000000e+000
5.187794e+002;0.000000e+000
5.207079e+002;0.000000e+000
5.226365e+002;0.000000e+000
5.245651e+002;0.000000e+000
5.264936e+002;0.000000e+000
5.284222e+002;0.000000e+000
5.303507e+002;0.000000e+000
5.322792e+002;0.000000e+000
5.342078e+002;0.000000e+000
5.361364e+002;0.000000e+000
5.380649e+002;0.000000e+000
5.399935e+002;0.000000e+000
5.419220e+002;0.000000e+000
5.438505e+002;0.000000e+000
5.457791e+002;0.000000e+000
5.477076e+002;0.000000e+000
5.496362e+002;0.000000e+000
5.515648e+002;0.000000e+000
5.534933e+002;0.000000e+000
5.554218e+002;0.000000e+000
5.573504e+002;0.000000e+000
5.592789e+002;0.000000e+000
5.612075e+002;0.000000e+000
5.631360e+002;0.000000e+000
5.650646e+002;0.000000e+000
5.669931e+002;0.000000e+000
5.689217e+002;0.000000e+000
5.708502e+002;0.000000e+000
5.727787e+002;0.000000e+000
5.747073e+002;0.000000e+000
5.766359e+002;0.000000e+000
5.785644e+002;0.000000e+000
5.804930e+002;0.000000e+000
5.824215e+002;0.000000e+000
5.843500e+002;0.000000e+000
5.862786e+002;0.000000e+000
5.882072e+002;0.000000e+000
5.901357e+002;0.000000e+000
5.920643e+002;0.000000e+000
5.939928e+002;0.000000e+000
5.959213e+002;0.000000e+000
5.978499e+002;0.000000e+000
5.997784e+002;1.713443e-001
6.017070e+002;1.688273e-001
6.036355e+002;1.724879e-001
6.055641e+002;1.767245e-001
6.074926e+002;1.788182e-001
6.094211e+002;1.783979e-001
6.113497e+002;1.796852e-001
6.132783e+002;1.822577e-001
6.152068e+002;1.825080e-001
6.171354e+002;1.809593e-001
6.190639e+002;1.785524e-001
6.209924e+002;1.782805e-001
6.229210e+002;1.784373e-001
6.248495e+002;1.760303e-001
6.267781e+002;1.727822e-001
6.287067e+002;1.706709e-001
6.306352e+002;1.723773e-001
6.325637e+002;1.726098e-001
6.344923e+002;1.693953e-001
6.364208e+002;1.688116e-001
6.383494e+002;1.682505e-001
6.402780e+002;1.654671e-001
6.422065e+002;1.642116e-001
6.441350e+002;1.667620e-001
6.460636e+002;1.684681e-001
6.479921e+002;1.676551e-001
6.499207e+002;1.657717e-001
6.518492e+002;1.622354e-001
6.537778e+002;1.599381e-001
6.557063e+002;1.592278e-001
6.576349e+002;1.594553e-001
6.595634e+002;1.597192e-001
6.614919e+002;1.594847e-001
6.634205e+002;1.579526e-001
6.653491e+002;1.566655e-001
6.672776e+002;1.567394e-001
6.692062e+002;1.573401e-001
6.711347e+002;1.552502e-001
6.730632e+002;1.522515e-001
6.749918e+002;1.499642e-001
6.769203e+002;1.483423e-001
6.788489e+002;1.488784e-001
6.807775e+002;1.494672e-001
6.827060e+002;1.481262e-001
6.846345e+002;1.470303e-001
6.865631e+002;1.467311e-001
6.884916e+002;1.453886e-001
6.904202e+002;1.442278e-001
6.923488e+002;1.438282e-001
6.942773e+002;1.427268e-001
6.962058e+002;1.417069e-001
6.981344e+002;1.418669e-001
7.000629e+002;1.409806e-001
7.019915e+002;1.397575e-001
7.039200e+002;1.390870e-001
7.058486e+002;1.368580e-001
7.077771e+002;1.349236e-001
7.097057e+002;1.332885e-001
7.116342e+002;1.311163e-001
7.135627e+002;1.302171e-001
7.154913e+002;1.298066e-001
7.174199e+002;1.289133e-001
7.193484e+002;1.277111e-001
7.212770e+002;1.265186e-001
7.232055e+002;1.251964e-001
7.251340e+002;1.243335e-001
7.270626e+002;1.237252e-001
7.289911e+002;1.231536e-001
7.309197e+002;1.228708e-001
7.328483e+002;1.218334e-001
7.347768e+002;1.209462e-001
7.367053e+002;1.210932e-001
7.386339e+002;1.209721e-001
7.405624e+002;1.208457e-001
7.424910e+002;1.206570e-001
7.444196e+002;1.202205e-001
7.463481e+002;1.188090e-001
7.482766e+002;1.168777e-001
7.502052e+002;1.158937e-001
7.521337e+002;1.159208e-001
7.540623e+002;1.151448e-001
7.559908e+002;1.136633e-001
7.579194e+002;1.121364e-001
7.598479e+002;1.112772e-001
7.617765e+002;1.109251e-001
7.637050e+002;1.098769e-001
7.656335e+002;1.082249e-001
7.675621e+002;1.066799e-001
7.694907e+002;1.052287e-001
7.714192e+002;1.041728e-001
7.733478e+002;1.034318e-001
7.752763e+002;1.023530e-001
7.772048e+002;1.012743e-001
7.791334e+002;1.003992e-001
7.810620e+002;9.890383e-002
7.829905e+002;9.761904e-002
7.849191e+002;9.700255e-002
7.868476e+002;9.684019e-002
7.887761e+002;9.670293e-002
7.907047e+002;9.626314e-002
7.926332e+002;9.610180e-002
7.945618e+002;9.461390e-002
7.964903e+002;9.316483e-002
7.984189e+002;9.329876e-002
8.003474e+002;9.355608e-002
8.022759e+002;9.307577e-002
8.042045e+002;9.238757e-002
8.061331e+002;9.150046e-002
8.080616e+002;9.106083e-002
8.099902e+002;9.086142e-002
8.119187e+002;9.047276e-002
8.138472e+002;8.990940e-002
8.157758e+002;8.946568e-002
8.177043e+002;8.960754e-002
8.196329e+002;8.952610e-002
8.215615e+002;8.962242e-002
8.234900e+002;9.069281e-002
8.254185e+002;9.102610e-002
8.273471e+002;9.063892e-002
8.292756e+002;9.013516e-002
8.312042e+002;8.950049e-002
8.331328e+002;8.858690e-002
8.350613e+002;8.787080e-002
8.369898e+002;8.704136e-002
8.389184e+002;8.598816e-002
8.408469e+002;8.550554e-002
8.427755e+002;8.555960e-002
8.447040e+002;8.507749e-002
8.466326e+002;8.439165e-002
8.485611e+002;8.401227e-002
8.504897e+002;8.329936e-002
8.524182e+002;8.260202e-002
8.543467e+002;8.213864e-002
8.562753e+002;8.141377e-002
8.582039e+002;8.076625e-002
8.601324e+002;8.080855e-002
8.620610e+002;8.111780e-002
8.639895e+002;8.109655e-002
8.659180e+002;8.071788e-002
8.678466e+002;8.063082e-002
8.697751e+002;8.113765e-002
8.717037e+002;8.130927e-002
8.736323e+002;8.108026e-002
8.755608e+002;8.133528e-002
8.774893e+002;8.122781e-002
8.794179e+002;8.105849e-002
8.813464e+002;8.120520e-002
8.832750e+002;8.113577e-002
8.852036e+002;8.110766e-002
8.871321e+002;8.128653e-002
8.890606e+002;8.111868e-002
8.909892e+002;8.056987e-002
8.929177e+002;8.006188e-002
8.948463e+002;7.984655e-002
8.967748e+002;8.007287e-002
8.987034e+002;8.028489e-002
9.006319e+002;8.010865e-002
9.025605e+002;7.991859e-002
9.044890e+002;8.000045e-002
9.064175e+002;8.024929e-002
9.083461e+002;8.050518e-002
9.102747e+002;8.036322e-002
9.122032e+002;8.065839e-002
9.141318e+002;8.130052e-002
9.160603e+002;8.142104e-002
9.179888e+002;8.172449e-002
9.199174e+002;8.221622e-002
9.218459e+002;8.263159e-002
9.237745e+002;8.308069e-002
9.257031e+002;8.332039e-002
9.276316e+002;8.341595e-002
9.295601e+002;8.358738e-002
9.314887e+002;8.383950e-002
9.334172e+002;8.403555e-002
9.353458e+002;8.379637e-002
9.372744e+002;8.357276e-002
9.392029e+002;8.357657e-002
9.411314e+002;8.326793e-002
9.430600e+002;8.297805e-002
9.449885e+002;8.299024e-002
9.469171e+002;8.277028e-002
9.488456e+002;8.270790e-002
9.507742e+002;8.291031e-002
9.527027e+002;8.326521e-002
9.546313e+002;8.356594e-002
9.565598e+002;8.372337e-002
9.584883e+002;8.402549e-002
9.604169e+002;8.428153e-002
9.623455e+002;8.459544e-002
9.642740e+002;8.502002e-002
9.662026e+002;8.573087e-002
9.681311e+002;8.638791e-002
9.700596e+002;8.686063e-002
9.719882e+002;8.733580e-002
9.739167e+002;8.744776e-002
9.758453e+002;8.752618e-002
9.777739e+002;8.798797e-002
9.797024e+002;8.862693e-002
9.816309e+002;8.894233e-002
9.835595e+002;8.937950e-002
9.854880e+002;9.024352e-002
9.874166e+002;9.139486e-002
9.893452e+002;9.276413e-002
9.912737e+002;9.402663e-002
9.932022e+002;9.491241e-002
9.951307e+002;9.604355e-002
9.970593e+002;9.722805e-002
9.989879e+002;9.819864e-002
1.000916e+003;9.953535e-002
1.002845e+003;1.014227e-001
1.004773e+003;1.031035e-001
1.006702e+003;1.043710e-001
1.008631e+003;1.055027e-001
1.010559e+003;1.066345e-001
1.012488e+003;1.079606e-001
1.014416e+003;1.092574e-001
1.016345e+003;1.106077e-001
1.018273e+003;1.118703e-001
1.020202e+003;1.127401e-001
1.022130e+003;1.143297e-001
1.024059e+003;1.166226e-001
1.025988e+003;1.188218e-001
1.027916e+003;1.213808e-001
1.029845e+003;1.237715e-001
1.031773e+003;1.254965e-001
1.033702e+003;1.275960e-001
1.035630e+003;1.294044e-001
1.037559e+003;1.306131e-001
1.039487e+003;1.316702e-001
1.041416e+003;1.324380e-001
1.043344e+003;1.327947e-001
1.045273e+003;1.324184e-001
1.047202e+003;1.315077e-001
1.049130e+003;1.302599e-001
1.051059e+003;1.292396e-001
1.052987e+003;1.281355e-001
1.054916e+003;1.269581e-001
1.056844e+003;1.268453e-001
1.058773e+003;1.271390e-001
1.060701e+003;1.275860e-001
1.062630e+003;1.278695e-001
1.064558e+003;1.278329e-001
1.066487e+003;1.279930e-001
1.068416e+003;1.285810e-001
1.070344e+003;1.288071e-001
1.072273e+003;1.287753e-001
1.074201e+003;1.289313e-001
1.076130e+003;1.286595e-001
1.078058e+003;1.284717e-001
1.079987e+003;1.284687e-001
1.081915e+003;1.283419e-001
1.083844e+003;1.279801e-001
1.085773e+003;1.274666e-001
1.087701e+003;1.270198e-001
1.089630e+003;1.267840e-001
1.091558e+003;1.267680e-001
1.093487e+003;1.267615e-001
1.095415e+003;1.266565e-001
1.097344e+003;1.267025e-001
1.099272e+003;1.262935e-001
1.101201e+003;1.256973e-001
1.103129e+003;1.257009e-001
1.105058e+003;1.253294e-001
1.106987e+003;1.244375e-001
1.108915e+003;1.233301e-001
1.110844e+003;1.225828e-001
1.112772e+003;1.223772e-001
1.114701e+003;1.223642e-001
1.116629e+003;1.222008e-001
1.118558e+003;1.220644e-001
1.120486e+003;1.216924e-001
1.122415e+003;1.212135e-001
1.124344e+003;1.212403e-001
1.126272e+003;1.215589e-001
1.128201e+003;1.217429e-001
1.130129e+003;1.216127e-001
1.132058e+003;1.213962e-001
1.133986e+003;1.215552e-001
1.135915e+003;1.226287e-001
1.137843e+003;1.236468e-001
1.139772e+003;1.243493e-001
1.141700e+003;1.256413e-001
1.143629e+003;1.265621e-001
1.145557e+003;1.274103e-001
1.147486e+003;1.288421e-001
1.149415e+003;1.303072e-001
1.151343e+003;1.312896e-001
1.153272e+003;1.319215e-001
1.155200e+003;1.327496e-001
1.157129e+003;1.336891e-001
1.159057e+003;1.346244e-001
1.160986e+003;1.355950e-001
1.162914e+003;1.362933e-001
1.164843e+003;1.369647e-001
1.166771e+003;1.380309e-001
1.168700e+003;1.393263e-001
1.170629e+003;1.401250e-001
1.172557e+003;1.406942e-001
1.174486e+003;1.414048e-001
1.176414e+003;1.421825e-001
1.178343e+003;1.428008e-001
1.180271e+003;1.432428e-001
1.182200e+003;1.437155e-001
1.184128e+003;1.445499e-001
1.186057e+003;1.449808e-001
1.187986e+003;1.454039e-001
1.189914e+003;1.463526e-001
1.191843e+003;1.475221e-001
1.193771e+003;1.486259e-001
1.195700e+003;1.494855e-001
1.197628e+003;1.503596e-001
1.199557e+003;1.510797e-001
1.201485e+003;1.520066e-001
1.203414e+003;1.533363e-001
1.205343e+003;1.541194e-001
1.207271e+003;1.547432e-001
1.209200e+003;1.556587e-001
1.211128e+003;1.565868e-001
1.213057e+003;1.576675e-001
1.214985e+003;1.585259e-001
1.216914e+003;1.592969e-001
1.218842e+003;1.600598e-001
1.220771e+003;1.606143e-001
1.222699e+003;1.608292e-001
1.224628e+003;1.612010e-001
1.226557e+003;1.615161e-001
1.228485e+003;1.615232e-001
1.230414e+003;1.615275e-001
1.232342e+003;1.613732e-001
1.234271e+003;1.609255e-001
1.236199e+003;1.600816e-001
1.238128e+003;1.594494e-001
1.240056e+003;1.587858e-001
1.241985e+003;1.582151e-001
1.243913e+003;1.576898e-001
1.245842e+003;1.570350e-001
1.247771e+003;1.559941e-001
1.249699e+003;1.549054e-001
1.251628e+003;1.542725e-001
1.253556e+003;1.536747e-001
1.255485e+003;1.528342e-001
1.257413e+003;1.517288e-001
1.259342e+003;1.506582e-001
1.261270e+003;1.496620e-001
1.263199e+003;1.483668e-001
1.265127e+003;1.468053e-001
1.267056e+003;1.453955e-001
1.268985e+003;1.440757e-001
1.270913e+003;1.430920e-001
1.272842e+003;1.425188e-001
1.274770e+003;1.419553e-001
1.276699e+003;1.412727e-001
1.278627e+003;1.405142e-001
1.280556e+003;1.395587e-001
1.282484e+003;1.388872e-001
1.284413e+003;1.384598e-001
1.286342e+003;1.377129e-001
1.288270e+003;1.369799e-001
1.290199e+003;1.363765e-001
1.292127e+003;1.356149e-001
1.294056e+003;1.350390e-001
1.295984e+003;1.347593e-001
1.297913e+003;1.341521e-001
1.299841e+003;1.335064e-001
1.301770e+003;1.330295e-001
1.303698e+003;1.327078e-001
1.305627e+003;1.323675e-001
1.307556e+003;1.319412e-001
1.309484e+003;1.315203e-001
1.311413e+003;1.312264e-001
1.313341e+003;1.312060e-001
1.315270e+003;1.313365e-001
1.317198e+003;1.312000e-001
1.319127e+003;1.309256e-001
1.321055e+003;1.309634e-001
1.322984e+003;1.309815e-001
1.324912e+003;1.309491e-001
1.326841e+003;1.310169e-001
1.328770e+003;1.307287e-001
1.330698e+003;1.302217e-001
1.332627e+003;1.297332e-001
1.334555e+003;1.292657e-001
1.336484e+003;1.287364e-001
1.338412e+003;1.280230e-001
1.340341e+003;1.274857e-001
1.342269e+003;1.270800e-001
1.344198e+003;1.264528e-001
1.346126e+003;1.259059e-001
1.348055e+003;1.253876e-001
1.349984e+003;1.247646e-001
1.351912e+003;1.243371e-001
1.353841e+003;1.240600e-001
1.355769e+003;1.238038e-001
1.357698e+003;1.238729e-001
1.359626e+003;1.240492e-001
1.361555e+003;1.244110e-001
1.363483e+003;1.252572e-001
1.365412e+003;1.263498e-001
1.367341e+003;1.272193e-001
1.369269e+003;1.279214e-001
1.371198e+003;1.283917e-001
1.373126e+003;1.284920e-001
1.375055e+003;1.286260e-001
1.376983e+003;1.291655e-001
1.378912e+003;1.296686e-001
1.380840e+003;1.303059e-001
1.382769e+003;1.312939e-001
1.384698e+003;1.322095e-001
1.386626e+003;1.328119e-001
1.388555e+003;1.328635e-001
1.390483e+003;1.327483e-001
1.392412e+003;1.323382e-001
1.394340e+003;1.318612e-001
1.396269e+003;1.316295e-001
1.398197e+003;1.317868e-001
1.400126e+003;1.321259e-001
1.402054e+003;1.323329e-001
1.403983e+003;1.326447e-001
1.405911e+003;1.332068e-001
1.407840e+003;1.338437e-001
1.409769e+003;1.342532e-001
1.411697e+003;1.345052e-001
1.413626e+003;1.349159e-001
1.415554e+003;1.351845e-001
1.417483e+003;1.351124e-001
1.419411e+003;1.352847e-001
1.421340e+003;1.360136e-001
1.423268e+003;1.367007e-001
1.425197e+003;1.376107e-001
1.427125e+003;1.387510e-001
1.429054e+003;1.396482e-001
1.430983e+003;1.408243e-001
1.432911e+003;1.425627e-001
1.434840e+003;1.444377e-001
1.436768e+003;1.460510e-001
1.438697e+003;1.478538e-001
1.440625e+003;1.492949e-001
1.442554e+003;1.501181e-001
1.444482e+003;1.507863e-001
1.446411e+003;1.510985e-001
1.448340e+003;1.513745e-001
1.450268e+003;1.517340e-001
1.452197e+003;1.517828e-001
1.454125e+003;1.514061e-001
1.456054e+003;1.504660e-001
1.457982e+003;1.499173e-001
1.459911e+003;1.495173e-001
1.461839e+003;1.487025e-001
1.463768e+003;1.479435e-001
1.465697e+003;1.473202e-001
1.467625e+003;1.466574e-001
1.469554e+003;1.459543e-001
1.471482e+003;1.450898e-001
1.473411e+003;1.446205e-001
1.475339e+003;1.448378e-001
1.477268e+003;1.455243e-001
1.479196e+003;1.471922e-001
1.481125e+003;1.493010e-001
1.483053e+003;1.517792e-001
1.484982e+003;1.550086e-001
1.486911e+003;1.589022e-001
1.488839e+003;1.632407e-001
1.490768e+003;1.681856e-001
1.492696e+003;1.732580e-001
1.494625e+003;1.779272e-001
1.496553e+003;1.824987e-001
1.498482e+003;1.866726e-001
1.500410e+003;1.902523e-001
1.502339e+003;1.934934e-001
1.504267e+003;1.956950e-001
1.506196e+003;1.974309e-001
1.508125e+003;1.998578e-001
1.510053e+003;2.021772e-001
1.511982e+003;2.035853e-001
1.513910e+003;2.044518e-001
1.515839e+003;2.041827e-001
1.517767e+003;2.025400e-001
1.519696e+003;1.999369e-001
1.521624e+003;1.974821e-001
1.523553e+003;1.958298e-001
1.525481e+003;1.941047e-001
1.527410e+003;1.923893e-001
1.529339e+003;1.906194e-001
1.531267e+003;1.884268e-001
1.533196e+003;1.860936e-001
1.535124e+003;1.837530e-001
1.537053e+003;1.806149e-001
1.538981e+003;1.770043e-001
1.540910e+003;1.738632e-001
1.542838e+003;1.711576e-001
1.544767e+003;1.684018e-001
1.546695e+003;1.653175e-001
1.548624e+003;1.616967e-001
1.550553e+003;1.577237e-001
1.552481e+003;1.538038e-001
1.554410e+003;1.502920e-001
1.556338e+003;1.470196e-001
1.558267e+003;1.429688e-001
1.560195e+003;1.397209e-001
1.562124e+003;1.375924e-001
1.564052e+003;1.351664e-001
1.565981e+003;1.327191e-001
1.567910e+003;1.306218e-001
1.569838e+003;1.288347e-001
1.571767e+003;1.277102e-001
1.573695e+003;1.268177e-001
1.575624e+003;1.260477e-001
1.577552e+003;1.260806e-001
1.579481e+003;1.266262e-001
1.581409e+003;1.273777e-001
1.583338e+003;1.284467e-001
1.585266e+003;1.298999e-001
1.587195e+003;1.317398e-001
1.589124e+003;1.339880e-001
1.591052e+003;1.367250e-001
1.592981e+003;1.394885e-001
1.594909e+003;1.424671e-001
1.596838e+003;1.459276e-001
1.598766e+003;1.498229e-001
1.600695e+003;1.541217e-001
1.602623e+003;1.586724e-001
1.604552e+003;1.634310e-001
1.606480e+003;1.685970e-001
1.608409e+003;1.740264e-001
1.610338e+003;1.794412e-001
1.612266e+003;1.849657e-001
1.614195e+003;1.899323e-001
1.616123e+003;1.942632e-001
1.618052e+003;1.992726e-001
1.619980e+003;2.045608e-001
1.621909e+003;2.091490e-001
1.623837e+003;2.133542e-001
1.625766e+003;2.171414e-001
1.627694e+003;2.202708e-001
1.629623e+003;2.230971e-001
1.631552e+003;2.249558e-001
1.633480e+003;2.257579e-001
1.635409e+003;2.262957e-001
1.637337e+003;2.269684e-001
1.639266e+003;2.274606e-001
1.641194e+003;2.271659e-001
1.643123e+003;2.260042e-001
1.645051e+003;2.239285e-001
1.646980e+003;2.215641e-001
1.648909e+003;2.193476e-001
1.650837e+003;2.159548e-001
1.652766e+003;2.118199e-001
1.654694e+003;2.086195e-001
1.656623e+003;2.053093e-001
1.658551e+003;2.010616e-001
1.660480e+003;1.961590e-001
1.662408e+003;1.911948e-001
1.664337e+003;1.865890e-001
1.666266e+003;1.818394e-001
1.668194e+003;1.768591e-001
1.670123e+003;1.716709e-001
1.672051e+003;1.666016e-001
1.673980e+003;1.617627e-001
1.675908e+003;1.569402e-001
1.677837e+003;1.522836e-001
1.679765e+003;1.475260e-001
1.681694e+003;1.424927e-001
1.683622e+003;1.370077e-001
1.685551e+003;1.321657e-001
1.687479e+003;1.278719e-001
1.689408e+003;1.232178e-001
1.691337e+003;1.184848e-001
1.693265e+003;1.134972e-001
1.695194e+003;1.077411e-001
1.697122e+003;1.024386e-001
1.699051e+003;9.725325e-002
1.700979e+003;9.201379e-002
1.702908e+003;8.776916e-002
1.704836e+003;8.337230e-002
1.706765e+003;7.925209e-002
1.708693e+003;7.549305e-002
1.710622e+003;7.197740e-002
1.712551e+003;6.870196e-002
1.714479e+003;6.554825e-002
1.716408e+003;6.273054e-002
1.718336e+003;6.084690e-002
1.720265e+003;5.927372e-002
1.722193e+003;5.756108e-002
1.724122e+003;5.605771e-002
1.726050e+003;5.473840e-002
1.727979e+003;5.345358e-002
1.729908e+003;5.200233e-002
1.731836e+003;5.010431e-002
1.733765e+003;4.827882e-002
1.735693e+003;4.735971e-002
1.737622e+003;4.625659e-002
1.739550e+003;4.480288e-002
1.741479e+003;4.361053e-002
1.743407e+003;4.225820e-002
1.745336e+003;4.100645e-002
1.747265e+003;3.996794e-002
1.749193e+003;3.871936e-002
1.751122e+003;3.745222e-002
1.753050e+003;3.653877e-002
1.754979e+003;3.558913e-002
1.756907e+003;3.468565e-002
1.758836e+003;3.385909e-002
1.760764e+003;3.291520e-002
1.762693e+003;3.221578e-002
1.764621e+003;3.185422e-002
1.766550e+003;3.116184e-002
1.768479e+003;3.053593e-002
1.770407e+003;2.979671e-002
1.772336e+003;2.926611e-002
1.774264e+003;2.933342e-002
1.776193e+003;2.913368e-002
1.778121e+003;2.863192e-002
1.780050e+003;2.804774e-002
1.781978e+003;2.775434e-002
1.783907e+003;2.776179e-002
1.785835e+003;2.763751e-002
1.787764e+003;2.729739e-002
1.789693e+003;2.684888e-002
1.791621e+003;2.656119e-002
1.793550e+003;2.648835e-002
1.795478e+003;2.646190e-002
1.797407e+003;2.612896e-002
1.799335e+003;2.570841e-002
1.801264e+003;2.545116e-002
1.803192e+003;2.548011e-002
1.805121e+003;2.536185e-002
1.807049e+003;2.507949e-002
1.808978e+003;2.498914e-002
1.810907e+003;2.510407e-002
1.812835e+003;2.493886e-002
1.814764e+003;2.451157e-002
1.816692e+003;2.417532e-002
1.818621e+003;2.400122e-002
1.820549e+003;2.397128e-002
1.822478e+003;2.403340e-002
1.824406e+003;2.401466e-002
1.826335e+003;2.387657e-002
1.828264e+003;2.359465e-002
1.830192e+003;2.341494e-002
1.832121e+003;2.320423e-002
1.834049e+003;2.309642e-002
1.835978e+003;2.319389e-002
1.837906e+003;2.319081e-002
1.839835e+003;2.305728e-002
1.841763e+003;2.284434e-002
1.843692e+003;2.246174e-002
1.845620e+003;2.239587e-002
1.847549e+003;2.246076e-002
1.849478e+003;2.242102e-002
1.851406e+003;2.228874e-002
1.853335e+003;2.229690e-002
1.855263e+003;2.234190e-002
1.857192e+003;2.229889e-002
1.859120e+003;2.217951e-002
1.861049e+003;2.209046e-002
1.862977e+003;2.209604e-002
1.864906e+003;2.193267e-002
1.866834e+003;2.168137e-002
1.868763e+003;2.148960e-002
1.870692e+003;2.157167e-002
1.872620e+003;2.170185e-002
1.874549e+003;2.159266e-002
1.876477e+003;2.159123e-002
1.878406e+003;2.157759e-002
1.880334e+003;2.140838e-002
1.882263e+003;2.129155e-002
1.884191e+003;2.122140e-002
1.886120e+003;2.135353e-002
1.888048e+003;2.155387e-002
1.889977e+003;2.154962e-002
1.891906e+003;2.138475e-002
1.893834e+003;2.124485e-002
1.895763e+003;2.132743e-002
1.897691e+003;2.129607e-002
1.899620e+003;2.128114e-002
1.901548e+003;2.116678e-002
1.903477e+003;2.100333e-002
1.905405e+003;2.103143e-002
1.907334e+003;2.105519e-002
1.909262e+003;2.077349e-002
1.911191e+003;2.066055e-002
1.913120e+003;2.073964e-002
1.915048e+003;2.082820e-002
1.916977e+003;2.075445e-002
1.918905e+003;2.057681e-002
1.920834e+003;2.051567e-002
1.922762e+003;2.067118e-002
1.924691e+003;2.080975e-002
1.926619e+003;2.064581e-002
1.928548e+003;2.047565e-002
1.930477e+003;2.059804e-002
1.932405e+003;2.065759e-002
1.934334e+003;2.050737e-002
1.936262e+003;2.041675e-002
1.938191e+003;2.035688e-002
1.940119e+003;2.025418e-002
1.942048e+003;2.018781e-002
1.943976e+003;2.023897e-002
1.945905e+003;2.025591e-002
1.947833e+003;2.035171e-002
1.949762e+003;2.040484e-002
1.951691e+003;2.035261e-002
1.953619e+003;2.032678e-002
1.955548e+003;2.041227e-002
1.957476e+003;2.045492e-002
1.959405e+003;2.060512e-002
1.961333e+003;2.060585e-002
1.963262e+003;2.045565e-002
1.965190e+003;2.043293e-002
1.967119e+003;2.038209e-002
1.969047e+003;2.029588e-002
1.970976e+003;2.022891e-002
1.972905e+003;2.038011e-002
1.974833e+003;2.032980e-002
1.976762e+003;2.036306e-002
1.978690e+003;2.056736e-002
1.980619e+003;2.059335e-002
1.982547e+003;2.042592e-002
1.984476e+003;2.037695e-002
1.986404e+003;2.053415e-002
1.988333e+003;2.048177e-002
1.990261e+003;2.034414e-002
1.992190e+003;2.027806e-002
1.994119e+003;2.039404e-002
1.996047e+003;2.044182e-002
1.997976e+003;2.036126e-002
1.999904e+003;2.031855e-002
2.001833e+003;2.039987e-002
2.003761e+003;2.047051e-002
2.005690e+003;2.051181e-002
2.007618e+003;2.051101e-002
2.009547e+003;2.053436e-002
2.011476e+003;2.055763e-002
2.013404e+003;2.036428e-002
2.015333e+003;2.029473e-002
2.017261e+003;2.056733e-002
2.019190e+003;2.081444e-002
2.021118e+003;2.079045e-002
2.023047e+003;2.071663e-002
2.024975e+003;2.065043e-002
2.026904e+003;2.071973e-002
2.028833e+003;2.091028e-002
2.030761e+003;2.085702e-002
2.032690e+003;2.078030e-002
2.034618e+003;2.079994e-002
2.036547e+003;2.066742e-002
2.038475e+003;2.060530e-002
2.040404e+003;2.083877e-002
2.042332e+003;2.109954e-002
2.044261e+003;2.100980e-002
2.046189e+003;2.080575e-002
2.048118e+003;2.072059e-002
2.050047e+003;2.071559e-002
2.051975e+003;2.083550e-002
2.053904e+003;2.119343e-002
2.055832e+003;2.131295e-002
2.057761e+003;2.120856e-002
2.059689e+003;2.124638e-002
2.061618e+003;2.106361e-002
2.063546e+003;2.092231e-002
2.065475e+003;2.107588e-002
2.067404e+003;2.124715e-002
2.069332e+003;2.124854e-002
2.071260e+003;2.114423e-002
2.073189e+003;2.109087e-002
2.075118e+003;2.108527e-002
2.077046e+003;2.122328e-002
2.078975e+003;2.135722e-002
2.080903e+003;2.132075e-002
2.082832e+003;2.114977e-002
2.084760e+003;2.104528e-002
2.086689e+003;2.117269e-002
2.088617e+003;2.136836e-002
2.090546e+003;2.151383e-002
2.092475e+003;2.151603e-002
2.094403e+003;2.136007e-002
2.096332e+003;2.124123e-002
2.098260e+003;2.128647e-002
2.100189e+003;2.142314e-002
2.102117e+003;2.144817e-002
2.104046e+003;2.138190e-002
2.105974e+003;2.139648e-002
2.107903e+003;2.137198e-002
2.109832e+003;2.120668e-002
2.111760e+003;2.107825e-002
2.113688e+003;2.108016e-002
2.115617e+003;2.122070e-002
2.117546e+003;2.129830e-002
2.119474e+003;2.125912e-002
2.121403e+003;2.120518e-002
2.123331e+003;2.136390e-002
2.125260e+003;2.144977e-002
2.127188e+003;2.139328e-002
2.129117e+003;2.144267e-002
2.131045e+003;2.157069e-002
2.132974e+003;2.147748e-002
2.134903e+003;2.146895e-002
2.136831e+003;2.138882e-002
2.138760e+003;2.122495e-002
2.140688e+003;2.136355e-002
2.142617e+003;2.142593e-002
2.144545e+003;2.122603e-002
2.146474e+003;2.113745e-002
2.148402e+003;2.106423e-002
2.150331e+003;2.117554e-002
2.152260e+003;2.147745e-002
2.154188e+003;2.139136e-002
2.156117e+003;2.126315e-002
2.158045e+003;2.132941e-002
2.159974e+003;2.130119e-002
2.161902e+003;2.118904e-002
2.163831e+003;2.114204e-002
2.165759e+003;2.116876e-002
2.167688e+003;2.110343e-002
2.169616e+003;2.103585e-002
2.171545e+003;2.107658e-002
2.173474e+003;2.107063e-002
2.175402e+003;2.113248e-002
2.177331e+003;2.123793e-002
2.179259e+003;2.127787e-002
2.181188e+003;2.129976e-002
2.183116e+003;2.137647e-002
2.185045e+003;2.125052e-002
2.186973e+003;2.115015e-002
2.188902e+003;2.124621e-002
2.190831e+003;2.151526e-002
2.192759e+003;2.153584e-002
2.194688e+003;2.140567e-002
2.196616e+003;2.137326e-002
2.198545e+003;2.121816e-002
2.200473e+003;2.139359e-002
2.202402e+003;2.152079e-002
2.204330e+003;2.146547e-002
2.206259e+003;2.153712e-002
2.208188e+003;2.149075e-002
2.210116e+003;2.135377e-002
2.212044e+003;2.142206e-002
2.213973e+003;2.165570e-002
2.215902e+003;2.158260e-002
2.217830e+003;2.137737e-002
2.219759e+003;2.138638e-002
2.221687e+003;2.149844e-002
2.223616e+003;2.152024e-002
2.225544e+003;2.163024e-002
2.227473e+003;2.182890e-002
2.229401e+003;2.190570e-002
2.231330e+003;2.184959e-002
2.233259e+003;2.180636e-002
2.235187e+003;2.195909e-002
2.237116e+003;2.195863e-002
2.239044e+003;2.175873e-002
2.240973e+003;2.174466e-002
2.242901e+003;2.174076e-002
2.244830e+003;2.172115e-002
2.246758e+003;2.178266e-002
2.248687e+003;2.170575e-002
2.250615e+003;2.164507e-002
2.252544e+003;2.156369e-002
2.254473e+003;2.153737e-002
2.256401e+003;2.180851e-002
2.258330e+003;2.190211e-002
2.260258e+003;2.160670e-002
2.262187e+003;2.143539e-002
2.264115e+003;2.163289e-002
2.266044e+003;2.196299e-002
2.267972e+003;2.199872e-002
2.269901e+003;2.171254e-002
2.271830e+003;2.157644e-002
2.273758e+003;2.195675e-002
2.275687e+003;2.224773e-002
2.277615e+003;2.197693e-002
2.279544e+003;2.180371e-002
2.281472e+003;2.206177e-002
2.283401e+003;2.208429e-002
2.285329e+003;2.172313e-002
2.287258e+003;2.166023e-002
2.289187e+003;2.181304e-002
2.291115e+003;2.191646e-002
2.293043e+003;2.216940e-002
2.294972e+003;2.214604e-002
2.296901e+003;2.190963e-002
2.298829e+003;2.172414e-002
2.300758e+003;2.190117e-002
2.302686e+003;2.208572e-002
2.304615e+003;2.198847e-002
2.306543e+003;2.193493e-002
2.308472e+003;2.204947e-002
2.310400e+003;2.207976e-002
2.312329e+003;2.194536e-002
2.314258e+003;2.201628e-002
2.316186e+003;2.195379e-002
2.318115e+003;2.182019e-002
2.320043e+003;2.196428e-002
2.321972e+003;2.203294e-002
2.323900e+003;2.188315e-002
2.325829e+003;2.188887e-002
2.327757e+003;2.196961e-002
2.329686e+003;2.185357e-002
2.331615e+003;2.171463e-002
2.333543e+003;2.168551e-002
2.335472e+003;2.179939e-002
2.337400e+003;2.172428e-002
2.339329e+003;2.155774e-002
2.341257e+003;2.160161e-002
2.343186e+003;2.179451e-002
2.345114e+003;2.206826e-002
2.347043e+003;2.238111e-002
2.348971e+003;2.259634e-002
2.350900e+003;2.226551e-002
2.352829e+003;2.196236e-002
2.354757e+003;2.204044e-002
2.356686e+003;2.208806e-002
2.358614e+003;2.220598e-002
2.360543e+003;2.236245e-002
2.362471e+003;2.251687e-002
2.364400e+003;2.245298e-002
2.366328e+003;2.238575e-002
2.368257e+003;2.252724e-002
2.370186e+003;2.283173e-002
2.372114e+003;2.294018e-002
2.374042e+003;2.322727e-002
2.375971e+003;2.352109e-002
2.377900e+003;2.363695e-002
2.379828e+003;2.374854e-002
2.381757e+003;2.386191e-002
2.383685e+003;2.391571e-002
2.385614e+003;2.393084e-002
2.387542e+003;2.416099e-002
2.389471e+003;2.433873e-002
2.391399e+003;2.455175e-002
2.393328e+003;2.462124e-002
2.395257e+003;2.441787e-002
2.397185e+003;2.433782e-002
2.399114e+003;2.439106e-002
2.401042e+003;2.468630e-002
2.402971e+003;2.494535e-002
2.404899e+003;2.489120e-002
2.406828e+003;2.498872e-002
2.408756e+003;2.529456e-002
2.410685e+003;2.532891e-002
2.412614e+003;2.539565e-002
2.414542e+003;2.549775e-002
2.416471e+003;2.546440e-002
2.418399e+003;2.550133e-002
2.420328e+003;2.559259e-002
2.422256e+003;2.560060e-002
2.424185e+003;2.570954e-002
2.426113e+003;2.599491e-002
2.428042e+003;2.640225e-002
2.429970e+003;2.652374e-002
2.431899e+003;2.632483e-002
2.433828e+003;2.625217e-002
2.435756e+003;2.626900e-002
2.437685e+003;2.648772e-002
2.439613e+003;2.678291e-002
2.441542e+003;2.690190e-002
2.443470e+003;2.685861e-002
2.445399e+003;2.689523e-002
2.447327e+003;2.691551e-002
2.449256e+003;2.698302e-002
2.451185e+003;2.724870e-002
2.453113e+003;2.752397e-002
2.455042e+003;2.742107e-002
2.456970e+003;2.736496e-002
2.458899e+003;2.738627e-002
2.460827e+003;2.751595e-002
2.462756e+003;2.762865e-002
2.464684e+003;2.792910e-002
2.466613e+003;2.808994e-002
2.468542e+003;2.802243e-002
2.470470e+003;2.808630e-002
2.472398e+003;2.822050e-002
2.474327e+003;2.826247e-002
2.476256e+003;2.830152e-002
2.478184e+003;2.843384e-002
2.480113e+003;2.856153e-002
2.482041e+003;2.881217e-002
2.483970e+003;2.897688e-002
2.485898e+003;2.914576e-002
2.487827e+003;2.917326e-002
2.489755e+003;2.903912e-002
2.491684e+003;2.911132e-002
2.493613e+003;2.928642e-002
2.495541e+003;2.951358e-002
2.497470e+003;2.981420e-002
2.499398e+003;2.984245e-002
2.501327e+003;2.970825e-002
2.503255e+003;2.970470e-002
2.505184e+003;2.988189e-002
2.507112e+003;3.010236e-002
2.509041e+003;3.018373e-002
2.510969e+003;3.024653e-002
2.512898e+003;3.036910e-002
2.514827e+003;3.053092e-002
2.516755e+003;3.055175e-002
2.518684e+003;3.046637e-002
2.520612e+003;3.061119e-002
2.522541e+003;3.090824e-002
2.524469e+003;3.117402e-002
2.526398e+003;3.128158e-002
2.528326e+003;3.129785e-002
2.530255e+003;3.146568e-002
2.532184e+003;3.151359e-002
2.534112e+003;3.126908e-002
2.536041e+003;3.096937e-002
2.537969e+003;3.107250e-002
2.539898e+003;3.147744e-002
2.541826e+003;3.176727e-002
2.543755e+003;3.162730e-002
2.545683e+003;3.154534e-002
2.547612e+003;3.169391e-002
2.549541e+003;3.189205e-002
2.551469e+003;3.228491e-002
2.553397e+003;3.249403e-002
2.555326e+003;3.248722e-002
2.557255e+003;3.250878e-002
2.559183e+003;3.258703e-002
2.561112e+003;3.265958e-002
2.563040e+003;3.269365e-002
2.564969e+003;3.300099e-002
2.566897e+003;3.310111e-002
2.568826e+003;3.297268e-002
2.570754e+003;3.311770e-002
2.572683e+003;3.319527e-002
2.574612e+003;3.323755e-002
2.576540e+003;3.332719e-002
2.578469e+003;3.339528e-002
2.580397e+003;3.379294e-002
2.582326e+003;3.418766e-002
2.584254e+003;3.428474e-002
2.586183e+003;3.431587e-002
2.588111e+003;3.432243e-002
2.590040e+003;3.433548e-002
2.591969e+003;3.420142e-002
2.593897e+003;3.443780e-002
2.595826e+003;3.451676e-002
2.597754e+003;3.450653e-002
2.599683e+003;3.490430e-002
2.601611e+003;3.522615e-002
2.603540e+003;3.503172e-002
2.605468e+003;3.496506e-002
2.607397e+003;3.511287e-002
2.609325e+003;3.520801e-002
2.611254e+003;3.541448e-002
2.613183e+003;3.544874e-002
2.615111e+003;3.554834e-002
2.617040e+003;3.564289e-002
2.618968e+003;3.591339e-002
2.620897e+003;3.606612e-002
2.622825e+003;3.584807e-002
2.624754e+003;3.588510e-002
2.626682e+003;3.593336e-002
2.628611e+003;3.603163e-002
2.630540e+003;3.647545e-002
2.632468e+003;3.662986e-002
2.634396e+003;3.655153e-002
2.636325e+003;3.666973e-002
2.638254e+003;3.686039e-002
2.640182e+003;3.685956e-002
2.642111e+003;3.676064e-002
2.644039e+003;3.690955e-002
2.645968e+003;3.684957e-002
2.647896e+003;3.672890e-002
2.649825e+003;3.670922e-002
2.651753e+003;3.691291e-002
2.653682e+003;3.717438e-002
2.655611e+003;3.719001e-002
2.657539e+003;3.712757e-002
2.659468e+003;3.705138e-002
2.661396e+003;3.737269e-002
2.663325e+003;3.771983e-002
2.665253e+003;3.797111e-002
2.667182e+003;3.798337e-002
2.669110e+003;3.795130e-002
2.671039e+003;3.806062e-002
2.672968e+003;3.820825e-002
2.674896e+003;3.842615e-002
2.676825e+003;3.853473e-002
2.678753e+003;3.841598e-002
2.680682e+003;3.824885e-002
2.682610e+003;3.845942e-002
2.684539e+003;3.905112e-002
2.686467e+003;3.939506e-002
2.688396e+003;3.921536e-002
2.690324e+003;3.901885e-002
2.692253e+003;3.914900e-002
2.694182e+003;3.922527e-002
2.696110e+003;3.939150e-002
2.698039e+003;3.977839e-002
2.699967e+003;3.975689e-002
2.701896e+003;3.984066e-002
2.703824e+003;4.014111e-002
2.705753e+003;4.019083e-002
2.707681e+003;4.025237e-002
2.709610e+003;4.043500e-002
2.711539e+003;4.058752e-002
2.713467e+003;4.088008e-002
2.715396e+003;4.110067e-002
2.717324e+003;4.115028e-002
2.719253e+003;4.120249e-002
2.721181e+003;4.145273e-002
2.723110e+003;4.165979e-002
2.725038e+003;4.187593e-002
2.726967e+003;4.238294e-002
2.728896e+003;4.278449e-002
2.730824e+003;4.295469e-002
2.732752e+003;4.305518e-002
2.734681e+003;4.325781e-002
2.736610e+003;4.339221e-002
2.738538e+003;4.322513e-002
2.740467e+003;4.308643e-002
2.742395e+003;4.338946e-002
2.744324e+003;4.372638e-002
2.746252e+003;4.368615e-002
2.748181e+003;4.376581e-002
2.750109e+003;4.409580e-002
2.752038e+003;4.453113e-002
2.753967e+003;4.482081e-002
2.755895e+003;4.493989e-002
2.757824e+003;4.515847e-002
2.759752e+003;4.510414e-002
2.761681e+003;4.485200e-002
2.763609e+003;4.500126e-002
2.765538e+003;4.548356e-002
2.767466e+003;4.584387e-002
2.769395e+003;4.586828e-002
2.771323e+003;4.568530e-002
2.773252e+003;4.549684e-002
2.775181e+003;4.596945e-002
2.777109e+003;4.658442e-002
2.779038e+003;4.662773e-002
2.780966e+003;4.642735e-002
2.782895e+003;4.641670e-002
2.784823e+003;4.680937e-002
2.786752e+003;4.704611e-002
2.788680e+003;4.701476e-002
2.790609e+003;4.707107e-002
2.792538e+003;4.738421e-002
2.794466e+003;4.773323e-002
2.796395e+003;4.813772e-002
2.798323e+003;4.843052e-002
2.800252e+003;4.855956e-002
2.802180e+003;4.872871e-002
2.804109e+003;4.893371e-002
2.806037e+003;4.926765e-002
2.807966e+003;4.965864e-002
2.809895e+003;4.972287e-002
2.811823e+003;4.967903e-002
2.813751e+003;4.968657e-002
2.815680e+003;4.987549e-002
2.817609e+003;5.036476e-002
2.819537e+003;5.072698e-002
2.821466e+003;5.054280e-002
2.823394e+003;5.081931e-002
2.825323e+003;5.173708e-002
2.827251e+003;5.199672e-002
2.829180e+003;5.191669e-002
2.831108e+003;5.223414e-002
2.833037e+003;5.287328e-002
2.834966e+003;5.334878e-002
2.836894e+003;5.377384e-002
2.838823e+003;5.405643e-002
2.840751e+003;5.440706e-002
2.842680e+003;5.511776e-002
2.844608e+003;5.597014e-002
2.846537e+003;5.681159e-002
2.848465e+003;5.736452e-002
2.850394e+003;5.774599e-002
2.852323e+003;5.855764e-002
2.854251e+003;5.943524e-002
2.856180e+003;5.992072e-002
2.858108e+003;6.066641e-002
2.860037e+003;6.133874e-002
2.861965e+003;6.176684e-002
2.863894e+003;6.233571e-002
2.865822e+003;6.289837e-002
2.867751e+003;6.382029e-002
2.869679e+003;6.484552e-002
2.871608e+003;6.542454e-002
2.873536e+003;6.571192e-002
2.875465e+003;6.598504e-002
2.877394e+003;6.624848e-002
2.879322e+003;6.630587e-002
2.881251e+003;6.608657e-002
2.883179e+003;6.583471e-002
2.885108e+003;6.577472e-002
2.887036e+003;6.584373e-002
2.888965e+003;6.593208e-002
2.890893e+003;6.591569e-002
2.892822e+003;6.620140e-002
2.894750e+003;6.641238e-002
2.896679e+003;6.644806e-002
2.898608e+003;6.668837e-002
2.900536e+003;6.704618e-002
2.902465e+003;6.747361e-002
2.904393e+003;6.792500e-002
2.906322e+003;6.864095e-002
2.908250e+003;6.944171e-002
2.910179e+003;6.982674e-002
2.912107e+003;7.020133e-002
2.914036e+003;7.033058e-002
2.915965e+003;7.079833e-002
2.917893e+003;7.192860e-002
2.919822e+003;7.296970e-002
2.921750e+003;7.349646e-002
2.923679e+003;7.429176e-002
2.925607e+003;7.499151e-002
2.927536e+003;7.564905e-002
2.929464e+003;7.638501e-002
2.931393e+003;7.673153e-002
2.933322e+003;7.669824e-002
2.935250e+003;7.676585e-002
2.937178e+003;7.702187e-002
2.939107e+003;7.685158e-002
2.941036e+003;7.640512e-002
2.942964e+003;7.627018e-002
2.944893e+003;7.629158e-002
2.946821e+003;7.627112e-002
2.948750e+003;7.629372e-002
2.950678e+003;7.614590e-002
2.952607e+003;7.579231e-002
2.954535e+003;7.579085e-002
2.956464e+003;7.623463e-002
2.958393e+003;7.641495e-002
2.960321e+003;7.611669e-002
2.962250e+003;7.580758e-002
2.964178e+003;7.589325e-002
2.966107e+003;7.606785e-002
2.968035e+003;7.581760e-002
2.969964e+003;7.499222e-002
2.971892e+003;7.434617e-002
2.973821e+003;7.437755e-002
2.975750e+003;7.396752e-002
2.977678e+003;7.307620e-002
2.979607e+003;7.252990e-002
2.981535e+003;7.198632e-002
2.983464e+003;7.125363e-002
2.985392e+003;7.023467e-002
2.987321e+003;6.926302e-002
2.989249e+003;6.872401e-002
2.991178e+003;6.828969e-002
2.993106e+003;6.783226e-002
2.995035e+003;6.729375e-002
2.996964e+003;6.668161e-002
2.998892e+003;6.664614e-002
3.000821e+003;6.676676e-002
3.002749e+003;6.651710e-002
3.004678e+003;6.608275e-002
3.006606e+003;6.607329e-002
3.008535e+003;6.605968e-002
3.010463e+003;6.599190e-002
3.012392e+003;6.609548e-002
3.014321e+003;6.601667e-002
3.016249e+003;6.569358e-002
3.018177e+003;6.604540e-002
3.020106e+003;6.667295e-002
3.022035e+003;6.696851e-002
3.023963e+003;6.712317e-002
3.025892e+003;6.743842e-002
3.027820e+003;6.745286e-002
3.029749e+003;6.723882e-002
3.031677e+003;6.741419e-002
3.033606e+003;6.777567e-002
3.035534e+003;6.786758e-002
3.037463e+003;6.810869e-002
3.039392e+003;6.872133e-002
3.041320e+003;6.904668e-002
3.043249e+003;6.910297e-002
3.045177e+003;6.932294e-002
3.047106e+003;6.979942e-002
3.049034e+003;7.000309e-002
3.050963e+003;6.999356e-002
3.052891e+003;7.033439e-002
3.054820e+003;7.032041e-002
3.056749e+003;7.048815e-002
3.058677e+003;7.081834e-002
3.060606e+003;7.079416e-002
3.062534e+003;7.077169e-002
3.064463e+003;7.071726e-002
3.066391e+003;7.075746e-002
3.068320e+003;7.101457e-002
3.070248e+003;7.073145e-002
3.072177e+003;7.047140e-002
3.074105e+003;7.043071e-002
3.076034e+003;6.997651e-002
3.077963e+003;6.958815e-002
3.079891e+003;6.983581e-002
3.081820e+003;7.011826e-002
3.083748e+003;6.985418e-002
3.085677e+003;6.964972e-002
3.087605e+003;6.970520e-002
3.089534e+003;6.992622e-002
3.091462e+003;6.996062e-002
3.093391e+003;6.974161e-002
3.095320e+003;6.929939e-002
3.097248e+003;6.893276e-002
3.099177e+003;6.894989e-002
3.101105e+003;6.899312e-002
3.103034e+003;6.878281e-002
3.104962e+003;6.899521e-002
3.106891e+003;6.919381e-002
3.108819e+003;6.917962e-002
3.110748e+003;6.906878e-002
3.112677e+003;6.890725e-002
3.114605e+003;6.890648e-002
3.116533e+003;6.904835e-002
3.118462e+003;6.926570e-002
3.120391e+003;6.961619e-002
3.122319e+003;6.988621e-002
3.124248e+003;6.996144e-002
3.126176e+003;6.992326e-002
3.128105e+003;6.985266e-002
3.130033e+003;7.031757e-002
3.131962e+003;7.083277e-002
3.133890e+003;7.119410e-002
3.135819e+003;7.162570e-002
3.137748e+003;7.180771e-002
3.139676e+003;7.178852e-002
3.141605e+003;7.208476e-002
3.143533e+003;7.253076e-002
3.145462e+003;7.288065e-002
3.147390e+003;7.321557e-002
3.149319e+003;7.370089e-002
3.151247e+003;7.410595e-002
3.153176e+003;7.432360e-002
3.155104e+003;7.498234e-002
3.157033e+003;7.564558e-002
3.158962e+003;7.614954e-002
3.160890e+003;7.666357e-002
3.162819e+003;7.671844e-002
3.164747e+003;7.699271e-002
3.166676e+003;7.810882e-002
3.168604e+003;7.909564e-002
3.170533e+003;7.905588e-002
3.172461e+003;7.847736e-002
3.174390e+003;7.864301e-002
3.176319e+003;7.983197e-002
3.178247e+003;8.054355e-002
3.180176e+003;8.078799e-002
3.182104e+003;8.116453e-002
3.184033e+003;8.145773e-002
3.185961e+003;8.172825e-002
3.187890e+003;8.227573e-002
3.189818e+003;8.286888e-002
3.191747e+003;8.341506e-002
3.193676e+003;8.382511e-002
3.195604e+003;8.404761e-002
3.197532e+003;8.395261e-002
3.199461e+003;8.409904e-002
3.201390e+003;8.460543e-002
3.203318e+003;8.495873e-002
3.205247e+003;8.542614e-002
3.207175e+003;8.582606e-002
3.209104e+003;8.599082e-002
3.211032e+003;8.610304e-002
3.212961e+003;8.652469e-002
3.214889e+003;8.673009e-002
3.216818e+003;8.681501e-002
3.218747e+003;8.707327e-002
3.220675e+003;8.717058e-002
3.222604e+003;8.751784e-002
3.224532e+003;8.772857e-002
3.226461e+003;8.780307e-002
3.228389e+003;8.830388e-002
3.230318e+003;8.891957e-002
3.232246e+003;8.893554e-002
3.234175e+003;8.882983e-002
3.236104e+003;8.892647e-002
3.238032e+003;8.916523e-002
3.239961e+003;8.956776e-002
3.241889e+003;9.012239e-002
3.243818e+003;9.087780e-002
3.245746e+003;9.136476e-002
3.247675e+003;9.155069e-002
3.249603e+003;9.178071e-002
3.251532e+003;9.219910e-002
3.253460e+003;9.243565e-002
3.255389e+003;9.279072e-002
3.257318e+003;9.322828e-002
3.259246e+003;9.361596e-002
3.261175e+003;9.406082e-002
3.263103e+003;9.427974e-002
3.265032e+003;9.427422e-002
3.266960e+003;9.434063e-002
3.268889e+003;9.456706e-002
3.270817e+003;9.497540e-002
3.272746e+003;9.544981e-002
3.274675e+003;9.573369e-002
3.276603e+003;9.606608e-002
3.278531e+003;9.644597e-002
3.280460e+003;9.631918e-002
3.282389e+003;9.622373e-002
3.284317e+003;9.632356e-002
3.286246e+003;9.616228e-002
3.288174e+003;9.611072e-002
3.290103e+003;9.612371e-002
3.292031e+003;9.620889e-002
3.293960e+003;9.622274e-002
3.295888e+003;9.582523e-002
3.297817e+003;9.573217e-002
3.299746e+003;9.555987e-002
3.301674e+003;9.509892e-002
3.303603e+003;9.488548e-002
3.305531e+003;9.475565e-002
3.307460e+003;9.438576e-002
3.309388e+003;9.405095e-002
3.311317e+003;9.334965e-002
3.313245e+003;9.252256e-002
3.315174e+003;9.227794e-002
3.317103e+003;9.233703e-002
3.319031e+003;9.217264e-002
3.320960e+003;9.196960e-002
3.322888e+003;9.155925e-002
3.324817e+003;9.131332e-002
3.326745e+003;9.086481e-002
3.328674e+003;9.024873e-002
3.330602e+003;9.008403e-002
3.332531e+003;8.984542e-002
3.334459e+003;8.941691e-002
3.336388e+003;8.874027e-002
3.338317e+003;8.816686e-002
3.340245e+003;8.786683e-002
3.342174e+003;8.695481e-002
3.344102e+003;8.616194e-002
3.346031e+003;8.590666e-002
3.347959e+003;8.572785e-002
3.349888e+003;8.515102e-002
3.351816e+003;8.437600e-002
3.353745e+003;8.405155e-002
3.355674e+003;8.352356e-002
3.357602e+003;8.275998e-002
3.359531e+003;8.256871e-002
3.361459e+003;8.230019e-002
3.363388e+003;8.170225e-002
3.365316e+003;8.070520e-002
3.367245e+003;7.978773e-002
3.369173e+003;7.904781e-002
3.371102e+003;7.810790e-002
3.373031e+003;7.746818e-002
3.374959e+003;7.735457e-002
3.376887e+003;7.691249e-002
3.378816e+003;7.618243e-002
3.380745e+003;7.529377e-002
3.382673e+003;7.441325e-002
3.384602e+003;7.430371e-002
3.386530e+003;7.410859e-002
3.388459e+003;7.404371e-002
3.390387e+003;7.363917e-002
3.392316e+003;7.300787e-002
3.394244e+003;7.246655e-002
3.396173e+003;7.168607e-002
3.398102e+003;7.122271e-002
3.400030e+003;7.095206e-002
3.401959e+003;7.056474e-002
3.403887e+003;6.997035e-002
3.405816e+003;6.932629e-002
3.407744e+003;6.890372e-002
3.409673e+003;6.843621e-002
3.411601e+003;6.788572e-002
3.413530e+003;6.720033e-002
3.415458e+003;6.678303e-002
3.417387e+003;6.671989e-002
3.419316e+003;6.597886e-002
3.421244e+003;6.484061e-002
3.423173e+003;6.428266e-002
3.425101e+003;6.396450e-002
3.427030e+003;6.313013e-002
3.428958e+003;6.224527e-002
3.430887e+003;6.192753e-002
3.432815e+003;6.180627e-002
3.434744e+003;6.097537e-002
3.436673e+003;5.997820e-002
3.438601e+003;5.935170e-002
3.440530e+003;5.867861e-002
3.442458e+003;5.820580e-002
3.444387e+003;5.777374e-002
3.446315e+003;5.710845e-002
3.448244e+003;5.684498e-002
3.450172e+003;5.626088e-002
3.452101e+003;5.594225e-002
3.454030e+003;5.572424e-002
3.455958e+003;5.511787e-002
3.457886e+003;5.474907e-002
3.459815e+003;5.441570e-002
3.461744e+003;5.449431e-002
3.463672e+003;5.464493e-002
3.465601e+003;5.413896e-002
3.467529e+003;5.351737e-002
3.469458e+003;5.298541e-002
3.471386e+003;5.205977e-002
3.473315e+003;5.158848e-002
3.475243e+003;5.201902e-002
3.477172e+003;5.221332e-002
3.479101e+003;5.179337e-002
3.481029e+003;5.118217e-002
3.482958e+003;5.068840e-002
3.484886e+003;4.968888e-002
3.486815e+003;4.900615e-002
3.488743e+003;4.912418e-002
3.490672e+003;4.930677e-002
3.492600e+003;4.873053e-002
3.494529e+003;4.824724e-002
3.496458e+003;4.822454e-002
3.498386e+003;4.805377e-002
3.500315e+003;4.728452e-002
3.502243e+003;4.643030e-002
3.504172e+003;4.604548e-002
3.506100e+003;4.608472e-002
3.508029e+003;4.597560e-002
3.509957e+003;4.545188e-002
3.511886e+003;4.497946e-002
3.513814e+003;4.491402e-002
3.515743e+003;4.445485e-002
3.517672e+003;4.369040e-002
3.519600e+003;4.343458e-002
3.521529e+003;4.281228e-002
3.523457e+003;4.201596e-002
3.525386e+003;4.176444e-002
3.527314e+003;4.186462e-002
3.529243e+003;4.176787e-002
3.531171e+003;4.128064e-002
3.533100e+003;4.079792e-002
3.535029e+003;4.054972e-002
3.536957e+003;4.023598e-002
3.538885e+003;3.993426e-002
3.540814e+003;3.960263e-002
3.542743e+003;3.936742e-002
3.544671e+003;3.873356e-002
3.546600e+003;3.811459e-002
3.548528e+003;3.807122e-002
3.550457e+003;3.769189e-002
3.552385e+003;3.721780e-002
3.554314e+003;3.701938e-002
3.556242e+003;3.688063e-002
3.558171e+003;3.642446e-002
3.560100e+003;3.590158e-002
3.562028e+003;3.549724e-002
3.563957e+003;3.506114e-002
3.565885e+003;3.447055e-002
3.567814e+003;3.425100e-002
3.569742e+003;3.391673e-002
3.571671e+003;3.339199e-002
3.573599e+003;3.296042e-002
3.575528e+003;3.241124e-002
3.577457e+003;3.222916e-002
3.579385e+003;3.187665e-002
3.581314e+003;3.119677e-002
3.583242e+003;3.062584e-002
3.585171e+003;3.033247e-002
3.587099e+003;2.980555e-002
3.589028e+003;2.896133e-002
3.590956e+003;2.892538e-002
3.592885e+003;2.903919e-002
3.594813e+003;2.840624e-002
3.596742e+003;2.777440e-002
3.598671e+003;2.742725e-002
3.600599e+003;2.698457e-002
3.602528e+003;2.665574e-002
3.604456e+003;2.649279e-002
3.606385e+003;2.583776e-002
3.608313e+003;2.456893e-002
3.610242e+003;2.422766e-002
3.612170e+003;2.421631e-002
3.614099e+003;2.400311e-002
3.616028e+003;2.344596e-002
3.617956e+003;2.307098e-002
3.619885e+003;2.270135e-002
3.621813e+003;2.216002e-002
3.623742e+003;2.147042e-002
3.625670e+003;2.039428e-002
3.627599e+003;1.933501e-002
3.629527e+003;1.911591e-002
3.631456e+003;1.960780e-002
3.633385e+003;1.887963e-002
3.635313e+003;1.784458e-002
3.637241e+003;1.763148e-002
3.639170e+003;1.730913e-002
3.641099e+003;1.667831e-002
3.643027e+003;1.601811e-002
3.644956e+003;1.518546e-002
3.646884e+003;1.454431e-002
3.648813e+003;1.392946e-002
3.650741e+003;1.366610e-002
3.652670e+003;1.345323e-002
3.654598e+003;1.259078e-002
3.656527e+003;1.173992e-002
3.658456e+003;1.119563e-002
3.660384e+003;1.037715e-002
3.662313e+003;1.008364e-002
3.664241e+003;9.983885e-003
3.666170e+003;9.553205e-003
3.668098e+003;8.781971e-003
3.670027e+003;7.725923e-003
3.671955e+003;7.360457e-003
3.673884e+003;6.580926e-003
3.675813e+003;5.989971e-003
3.677741e+003;6.684650e-003
3.679669e+003;6.943716e-003
3.681598e+003;6.788163e-003
3.683527e+003;6.043154e-003
3.685455e+003;5.327461e-003
3.687384e+003;4.797269e-003
3.689312e+003;4.372939e-003
3.691241e+003;4.053992e-003
3.693169e+003;4.185818e-003
3.695098e+003;4.622758e-003
3.697026e+003;4.711378e-003
3.698955e+003;4.194717e-003
3.700884e+003;3.529126e-003
3.702812e+003;3.830638e-003
3.704741e+003;4.084294e-003
3.706669e+003;3.599916e-003
3.708598e+003;3.445924e-003
3.710526e+003;3.264377e-003
3.712455e+003;3.024479e-003
3.714383e+003;3.099691e-003
3.716312e+003;3.051973e-003
3.718240e+003;2.880930e-003
3.720169e+003;2.921825e-003
3.722098e+003;3.202754e-003
3.724026e+003;3.409188e-003
3.725955e+003;2.978069e-003
3.727883e+003;2.531782e-003
3.729812e+003;2.262444e-003
3.731740e+003;2.167462e-003
3.733669e+003;2.228471e-003
3.735597e+003;2.186277e-003
3.737526e+003;2.237597e-003
3.739455e+003;2.559511e-003
3.741383e+003;2.484759e-003
3.743312e+003;1.684850e-003
3.745240e+003;2.316171e-003
3.747169e+003;2.280030e-003
3.749097e+003;1.300136e-003
3.751026e+003;1.054179e-003
3.752954e+003;1.758966e-003
3.754883e+003;2.767439e-003
3.756812e+003;2.686283e-003
3.758740e+003;2.468597e-003
3.760668e+003;2.372804e-003
3.762597e+003;2.417582e-003
3.764526e+003;2.432709e-003
3.766454e+003;2.586776e-003
3.768383e+003;2.643944e-003
3.770311e+003;2.501588e-003
3.772240e+003;2.310075e-003
3.774168e+003;2.020502e-003
3.776097e+003;2.093909e-003
3.778025e+003;2.275467e-003
3.779954e+003;1.996068e-003
3.781883e+003;2.136261e-003
3.783811e+003;2.496522e-003
3.785740e+003;2.494856e-003
3.787668e+003;2.647811e-003
3.789597e+003;2.672547e-003
3.791525e+003;2.645444e-003
3.793454e+003;3.101560e-003
3.795382e+003;3.087478e-003
3.797311e+003;2.838138e-003
3.799240e+003;2.388596e-003
3.801168e+003;1.838684e-003
3.803097e+003;2.397158e-003
3.805025e+003;2.393893e-003
3.806954e+003;2.231935e-003
3.808882e+003;2.468663e-003
3.810811e+003;2.549812e-003
3.812739e+003;2.446038e-003
3.814668e+003;1.373156e-003
3.816596e+003;1.701847e-003
3.818525e+003;2.238563e-003
3.820454e+003;1.577058e-003
3.822382e+003;1.945709e-003
3.824311e+003;2.594442e-003
3.826239e+003;2.312740e-003
3.828168e+003;2.121744e-003
3.830096e+003;2.019769e-003
3.832025e+003;2.056255e-003
3.833953e+003;2.245724e-003
3.835882e+003;2.627909e-003
3.837811e+003;2.534248e-003
3.839739e+003;2.201929e-003
3.841667e+003;2.621276e-003
3.843596e+003;3.104530e-003
3.845525e+003;3.313053e-003
3.847453e+003;3.615552e-003
3.849382e+003;2.695852e-003
3.851310e+003;1.521493e-003
3.853239e+003;1.396823e-003
3.855167e+003;2.198865e-003
3.857096e+003;3.277363e-003
3.859024e+003;3.330215e-003
3.860953e+003;2.527216e-003
3.862882e+003;2.714589e-003
3.864810e+003;3.294090e-003
3.866739e+003;3.342736e-003
3.868667e+003;2.834003e-003
3.870596e+003;2.592242e-003
3.872524e+003;2.475595e-003
3.874453e+003;2.501088e-003
3.876381e+003;3.269585e-003
3.878310e+003;3.815897e-003
3.880239e+003;3.858785e-003
3.882167e+003;3.797446e-003
3.884096e+003;3.615351e-003
3.886024e+003;3.580004e-003
3.887953e+003;3.586652e-003
3.889881e+003;2.962623e-003
3.891810e+003;2.508819e-003
3.893738e+003;2.834036e-003
3.895667e+003;3.740627e-003
3.897595e+003;3.387114e-003
3.899524e+003;2.858583e-003
3.901453e+003;3.204290e-003
3.903381e+003;3.053708e-003
3.905310e+003;3.059614e-003
3.907238e+003;3.406783e-003
3.909167e+003;3.727326e-003
3.911095e+003;3.360834e-003
3.913024e+003;2.997887e-003
3.914952e+003;3.093050e-003
3.916881e+003;2.956585e-003
3.918810e+003;3.287646e-003
3.920738e+003;3.695478e-003
3.922667e+003;2.924961e-003
3.924595e+003;2.461299e-003
3.926524e+003;2.845309e-003
3.928452e+003;2.877328e-003
3.930381e+003;3.105131e-003
3.932309e+003;3.602188e-003
3.934238e+003;3.838461e-003
3.936167e+003;3.636668e-003
3.938095e+003;3.604092e-003
3.940023e+003;3.139572e-003
3.941952e+003;2.710922e-003
3.943881e+003;3.479223e-003
3.945809e+003;3.587922e-003
3.947738e+003;2.971797e-003
3.949666e+003;3.111805e-003
3.951595e+003;3.839096e-003
3.953523e+003;4.254540e-003
3.955452e+003;4.461742e-003
3.957380e+003;4.380134e-003
3.959309e+003;3.909869e-003
3.961238e+003;3.656182e-003
3.963166e+003;3.678102e-003
3.965095e+003;3.233264e-003
3.967023e+003;2.835137e-003
3.968952e+003;3.428257e-003
3.970880e+003;3.791329e-003
3.972809e+003;3.582844e-003
3.974737e+003;2.827366e-003
3.976666e+003;2.052227e-003
3.978594e+003;2.280396e-003
3.980523e+003;3.465328e-003
3.982452e+003;3.643952e-003
3.984380e+003;3.330015e-003
3.986309e+003;3.591831e-003
3.988237e+003;3.990452e-003
3.990166e+003;3.513393e-003
3.992094e+003;2.879796e-003
3.994023e+003;2.577843e-003
3.995951e+003;2.576343e-003
3.997880e+003;2.946344e-003
3.999809e+003;3.050171e-003
4.001737e+003;0.000000e+000
