3.992094e+002;0.000000e+000
4.011380e+002;0.000000e+000
4.030665e+002;0.000000e+000
4.049951e+002;0.000000e+000
4.069236e+002;0.000000e+000
4.088522e+002;0.000000e+000
4.107807e+002;0.000000e+000
4.127093e+002;0.000000e+000
4.146378e+002;0.000000e+000
4.165664e+002;0.000000e+000
4.184949e+002;0.000000e+000
4.204235e+002;0.000000e+000
4.223520e+002;0.000000e+000
4.242806e+002;0.000000e+000
4.262091e+002;0.000000e+000
4.281377e+002;0.000000e+000
4.300662e+002;0.000000e+000
4.319948e+002;0.000000e+000
4.339233e+002;0.000000e+000
4.358519e+002;0.000000e+000
4.377804e+002;0.000000e+000
4.397090e+002;0.000000e+000
4.416375e+002;0.000000e+000
4.435660e+002;0.000000e+000
4.454946e+002;0.000000e+000
4.474232e+002;0.000000e+000
4.493517e+002;0.000000e+000
4.512802e+002;0.000000e+000
4.532088e+002;0.000000e+000
4.551373e+002;0.000000e+000
4.570659e+002;0.000000e+000
4.589944e+002;0.000000e+000
4.609230e+002;0.000000e+000
4.628515e+002;0.000000e+000
4.647801e+002;0.000000e+000
4.667086e+002;0.000000e+000
4.686372e+002;0.000000e+000
4.705657e+002;0.000000e+000
4.724943e+002;0.000000e+000
4.744228e+002;0.000000e+000
4.763513e+002;0.000000e+000
4.782799e+002;0.000000e+000
4.802085e+002;0.000000e+000
4.821370e+002;0.000000e+000
4.840656e+002;0.000000e+000
4.859941e+002;0.000000e+000
4.879226e+002;0.000000e+000
4.898512e+002;0.000000e+000
4.917798e+002;0.000000e+000
4.937083e+002;0.000000e+000
4.956368e+002;0.000000e+000
4.975654e+002;0.000000e+000
4.994939e+002;0.000000e+000
5.014225e+002;0.000000e+000
5.033510e+002;0.000000e+000
5.052796e+002;0.000000e+000
5.072081e+002;0.000000e+000
5.091367e+002;0.000000e+000
5.110652e+002;0.000000e+000
5.129938e+002;0.000000e+000
5.149223e+002;0.000000e+000
5.168509e+002;0.000000e+000
5.187794e+002;0.000000e+000
5.207079e+002;0.000000e+000
5.226365e+002;0.000000e+000
5.245651e+002;0.000000e+000
5.264936e+002;0.000000e+000
5.284222e+002;0.000000e+000
5.303507e+002;0.000000e+000
5.322792e+002;0.000000e+000
5.342078e+002;0.000000e+000
5.361364e+002;0.000000e+000
5.380649e+002;0.000000e+000
5.399935e+002;0.000000e+000
5.419220e+002;0.000000e+000
5.438505e+002;0.000000e+000
5.457791e+002;0.000000e+000
5.477076e+002;0.000000e+000
5.496362e+002;0.000000e+000
5.515648e+002;0.000000e+000
5.534933e+002;0.000000e+000
5.554218e+002;0.000000e+000
5.573504e+002;0.000000e+000
5.592789e+002;0.000000e+000
5.612075e+002;0.000000e+000
5.631360e+002;0.000000e+000
5.650646e+002;0.000000e+000
5.669931e+002;0.000000e+000
5.689217e+002;0.000000e+000
5.708502e+002;0.000000e+000
5.727787e+002;0.000000e+000
5.747073e+002;0.000000e+000
5.766359e+002;0.000000e+000
5.785644e+002;0.000000e+000
5.804930e+002;0.000000e+000
5.824215e+002;0.000000e+000
5.843500e+002;0.000000e+000
5.862786e+002;0.000000e+000
5.882072e+002;0.000000e+000
5.901357e+002;0.000000e+000
5.920643e+002;0.000000e+000
5.939928e+002;0.000000e+000
5.959213e+002;0.000000e+000
5.978499e+002;0.000000e+000
5.997784e+002;2.381620e-001
6.017070e+002;2.332194e-001
6.036355e+002;2.379684e-001
6.055641e+002;2.444456e-001
6.074926e+002;2.472572e-001
6.094211e+002;2.438732e-001
6.113497e+002;2.401935e-001
6.132783e+002;2.375945e-001
6.152068e+002;2.376765e-001
6.171354e+002;2.392011e-001
6.190639e+002;2.410692e-001
6.209924e+002;2.403396e-001
6.229210e+002;2.387646e-001
6.248495e+002;2.373208e-001
6.267781e+002;2.382226e-001
6.287067e+002;2.375565e-001
6.306352e+002;2.348680e-001
6.325637e+002;2.343182e-001
6.344923e+002;2.311670e-001
6.364208e+002;2.291186e-001
6.383494e+002;2.250674e-001
6.402780e+002;2.186932e-001
6.422065e+002;2.196661e-001
6.441350e+002;2.231294e-001
6.460636e+002;2.244771e-001
6.479921e+002;2.240650e-001
6.499207e+002;2.189897e-001
6.518492e+002;2.127911e-001
6.537778e+002;2.115436e-001
6.557063e+002;2.130169e-001
6.576349e+002;2.121162e-001
6.595634e+002;2.115974e-001
6.614919e+002;2.143037e-001
6.634205e+002;2.155721e-001
6.653491e+002;2.145780e-001
6.672776e+002;2.118627e-001
6.692062e+002;2.094709e-001
6.711347e+002;2.061271e-001
6.730632e+002;2.045617e-001
6.749918e+002;2.044156e-001
6.769203e+002;2.033398e-001
6.788489e+002;2.004405e-001
6.807775e+002;1.982728e-001
6.827060e+002;1.975150e-001
6.846345e+002;1.977554e-001
6.865631e+002;1.982355e-001
6.884916e+002;1.966152e-001
6.904202e+002;1.949299e-001
6.923488e+002;1.936411e-001
6.942773e+002;1.921561e-001
6.962058e+002;1.923685e-001
6.981344e+002;1.922322e-001
7.000629e+002;1.909167e-001
7.019915e+002;1.900417e-001
7.039200e+002;1.888302e-001
7.058486e+002;1.857891e-001
7.077771e+002;1.828863e-001
7.097057e+002;1.809348e-001
7.116342e+002;1.796376e-001
7.135627e+002;1.779877e-001
7.154913e+002;1.750658e-001
7.174199e+002;1.726201e-001
7.193484e+002;1.717253e-001
7.212770e+002;1.708123e-001
7.232055e+002;1.695056e-001
7.251340e+002;1.689005e-001
7.270626e+002;1.677945e-001
7.289911e+002;1.668396e-001
7.309197e+002;1.667282e-001
7.328483e+002;1.658982e-001
7.347768e+002;1.650374e-001
7.367053e+002;1.652744e-001
7.386339e+002;1.659350e-001
7.405624e+002;1.662634e-001
7.424910e+002;1.660877e-001
7.444196e+002;1.652793e-001
7.463481e+002;1.643086e-001
7.482766e+002;1.623544e-001
7.502052e+002;1.599161e-001
7.521337e+002;1.587919e-001
7.540623e+002;1.579277e-001
7.559908e+002;1.562038e-001
7.579194e+002;1.539675e-001
7.598479e+002;1.523985e-001
7.617765e+002;1.511356e-001
7.637050e+002;1.491253e-001
7.656335e+002;1.476502e-001
7.675621e+002;1.461204e-001
7.694907e+002;1.446974e-001
7.714192e+002;1.436403e-001
7.733478e+002;1.421539e-001
7.752763e+002;1.407748e-001
7.772048e+002;1.395240e-001
7.791334e+002;1.387203e-001
7.810620e+002;1.382238e-001
7.829905e+002;1.373777e-001
7.849191e+002;1.358508e-001
7.868476e+002;1.344938e-001
7.887761e+002;1.336524e-001
7.907047e+002;1.335060e-001
7.926332e+002;1.335791e-001
7.945618e+002;1.323526e-001
7.964903e+002;1.305967e-001
7.984189e+002;1.295591e-001
8.003474e+002;1.294666e-001
8.022759e+002;1.292879e-001
8.042045e+002;1.288445e-001
8.061331e+002;1.284793e-001
8.080616e+002;1.279698e-001
8.099902e+002;1.277438e-001
8.119187e+002;1.278177e-001
8.138472e+002;1.280395e-001
8.157758e+002;1.284534e-001
8.177043e+002;1.287298e-001
8.196329e+002;1.292238e-001
8.215615e+002;1.296502e-001
8.234900e+002;1.298313e-001
8.254185e+002;1.300770e-001
8.273471e+002;1.298998e-001
8.292756e+002;1.290596e-001
8.312042e+002;1.276813e-001
8.331328e+002;1.261299e-001
8.350613e+002;1.251141e-001
8.369898e+002;1.236787e-001
8.389184e+002;1.220957e-001
8.408469e+002;1.208775e-001
8.427755e+002;1.196731e-001
8.447040e+002;1.185914e-001
8.466326e+002;1.175333e-001
8.485611e+002;1.163229e-001
8.504897e+002;1.153192e-001
8.524182e+002;1.151859e-001
8.543467e+002;1.148240e-001
8.562753e+002;1.143188e-001
8.582039e+002;1.133808e-001
8.601324e+002;1.128256e-001
8.620610e+002;1.132479e-001
8.639895e+002;1.136392e-001
8.659180e+002;1.135463e-001
8.678466e+002;1.135876e-001
8.697751e+002;1.138149e-001
8.717037e+002;1.140203e-001
8.736323e+002;1.141515e-001
8.755608e+002;1.140373e-001
8.774893e+002;1.138588e-001
8.794179e+002;1.142813e-001
8.813464e+002;1.150138e-001
8.832750e+002;1.154108e-001
8.852036e+002;1.155444e-001
8.871321e+002;1.157566e-001
8.890606e+002;1.156100e-001
8.909892e+002;1.149935e-001
8.929177e+002;1.144893e-001
8.948463e+002;1.141083e-001
8.967748e+002;1.135933e-001
8.987034e+002;1.134463e-001
9.006319e+002;1.136430e-001
9.025605e+002;1.137801e-001
9.044890e+002;1.138230e-001
9.064175e+002;1.137004e-001
9.083461e+002;1.138582e-001
9.102747e+002;1.137820e-001
9.122032e+002;1.137551e-001
9.141318e+002;1.140978e-001
9.160603e+002;1.146518e-001
9.179888e+002;1.154369e-001
9.199174e+002;1.157603e-001
9.218459e+002;1.156731e-001
9.237745e+002;1.158897e-001
9.257031e+002;1.159273e-001
9.276316e+002;1.159789e-001
9.295601e+002;1.163442e-001
9.314887e+002;1.169235e-001
9.334172e+002;1.171545e-001
9.353458e+002;1.167683e-001
9.372744e+002;1.163601e-001
9.392029e+002;1.160115e-001
9.411314e+002;1.155910e-001
9.430600e+002;1.155625e-001
9.449885e+002;1.158100e-001
9.469171e+002;1.158540e-001
9.488456e+002;1.156985e-001
9.507742e+002;1.160142e-001
9.527027e+002;1.165429e-001
9.546313e+002;1.168077e-001
9.565598e+002;1.171289e-001
9.584883e+002;1.176670e-001
9.604169e+002;1.180686e-001
9.623455e+002;1.183411e-001
9.642740e+002;1.186947e-001
9.662026e+002;1.195568e-001
9.681311e+002;1.204473e-001
9.700596e+002;1.210498e-001
9.719882e+002;1.214996e-001
9.739167e+002;1.216793e-001
9.758453e+002;1.221517e-001
9.777739e+002;1.227563e-001
9.797024e+002;1.232974e-001
9.816309e+002;1.239507e-001
9.835595e+002;1.249355e-001
9.854880e+002;1.262591e-001
9.874166e+002;1.279443e-001
9.893452e+002;1.297744e-001
9.912737e+002;1.312087e-001
9.932022e+002;1.318858e-001
9.951307e+002;1.324475e-001
9.970593e+002;1.330439e-001
9.989879e+002;1.338519e-001
1.000916e+003;1.352455e-001
1.002845e+003;1.368241e-001
1.004773e+003;1.386702e-001
1.006702e+003;1.403981e-001
1.008631e+003;1.419266e-001
1.010559e+003;1.435608e-001
1.012488e+003;1.455445e-001
1.014416e+003;1.475063e-001
1.016345e+003;1.493048e-001
1.018273e+003;1.512257e-001
1.020202e+003;1.530126e-001
1.022130e+003;1.551152e-001
1.024059e+003;1.576597e-001
1.025988e+003;1.603253e-001
1.027916e+003;1.635280e-001
1.029845e+003;1.667188e-001
1.031773e+003;1.698943e-001
1.033702e+003;1.735194e-001
1.035630e+003;1.769690e-001
1.037559e+003;1.797597e-001
1.039487e+003;1.821165e-001
1.041416e+003;1.843562e-001
1.043344e+003;1.858280e-001
1.045273e+003;1.857001e-001
1.047202e+003;1.835766e-001
1.049130e+003;1.801289e-001
1.051059e+003;1.767625e-001
1.052987e+003;1.740132e-001
1.054916e+003;1.722551e-001
1.056844e+003;1.719006e-001
1.058773e+003;1.719502e-001
1.060701e+003;1.724665e-001
1.062630e+003;1.727697e-001
1.064558e+003;1.729207e-001
1.066487e+003;1.738479e-001
1.068416e+003;1.745513e-001
1.070344e+003;1.748625e-001
1.072273e+003;1.754825e-001
1.074201e+003;1.755964e-001
1.076130e+003;1.749092e-001
1.078058e+003;1.748279e-001
1.079987e+003;1.746653e-001
1.081915e+003;1.739120e-001
1.083844e+003;1.734040e-001
1.085773e+003;1.732698e-001
1.087701e+003;1.729529e-001
1.089630e+003;1.724125e-001
1.091558e+003;1.717772e-001
1.093487e+003;1.717088e-001
1.095415e+003;1.720293e-001
1.097344e+003;1.719037e-001
1.099272e+003;1.712253e-001
1.101201e+003;1.704048e-001
1.103129e+003;1.697029e-001
1.105058e+003;1.690080e-001
1.106987e+003;1.681279e-001
1.108915e+003;1.668814e-001
1.110844e+003;1.655566e-001
1.112772e+003;1.645178e-001
1.114701e+003;1.640282e-001
1.116629e+003;1.641463e-001
1.118558e+003;1.642564e-001
1.120486e+003;1.641383e-001
1.122415e+003;1.640223e-001
1.124344e+003;1.642559e-001
1.126272e+003;1.645179e-001
1.128201e+003;1.645590e-001
1.130129e+003;1.644735e-001
1.132058e+003;1.644266e-001
1.133986e+003;1.647382e-001
1.135915e+003;1.657268e-001
1.137843e+003;1.675746e-001
1.139772e+003;1.694911e-001
1.141700e+003;1.710665e-001
1.143629e+003;1.722831e-001
1.145557e+003;1.738607e-001
1.147486e+003;1.757217e-001
1.149415e+003;1.772972e-001
1.151343e+003;1.780829e-001
1.153272e+003;1.781539e-001
1.155200e+003;1.782645e-001
1.157129e+003;1.783725e-001
1.159057e+003;1.786465e-001
1.160986e+003;1.793330e-001
1.162914e+003;1.802783e-001
1.164843e+003;1.817786e-001
1.166771e+003;1.835113e-001
1.168700e+003;1.849740e-001
1.170629e+003;1.865572e-001
1.172557e+003;1.876505e-001
1.174486e+003;1.881260e-001
1.176414e+003;1.887569e-001
1.178343e+003;1.896467e-001
1.180271e+003;1.904137e-001
1.182200e+003;1.914354e-001
1.184128e+003;1.927976e-001
1.186057e+003;1.939584e-001
1.187986e+003;1.950957e-001
1.189914e+003;1.963886e-001
1.191843e+003;1.976768e-001
1.193771e+003;1.987372e-001
1.195700e+003;1.995026e-001
1.197628e+003;2.002937e-001
1.199557e+003;2.010500e-001
1.201485e+003;2.018301e-001
1.203414e+003;2.027666e-001
1.205343e+003;2.036183e-001
1.207271e+003;2.047344e-001
1.209200e+003;2.058512e-001
1.211128e+003;2.068296e-001
1.213057e+003;2.081845e-001
1.214985e+003;2.096220e-001
1.216914e+003;2.107890e-001
1.218842e+003;2.117610e-001
1.220771e+003;2.128362e-001
1.222699e+003;2.136232e-001
1.224628e+003;2.140136e-001
1.226557e+003;2.143406e-001
1.228485e+003;2.145264e-001
1.230414e+003;2.142411e-001
1.232342e+003;2.138316e-001
1.234271e+003;2.135645e-001
1.236199e+003;2.127458e-001
1.238128e+003;2.116244e-001
1.240056e+003;2.104095e-001
1.241985e+003;2.091589e-001
1.243913e+003;2.075703e-001
1.245842e+003;2.061407e-001
1.247771e+003;2.050131e-001
1.249699e+003;2.039031e-001
1.251628e+003;2.028130e-001
1.253556e+003;2.016271e-001
1.255485e+003;2.002453e-001
1.257413e+003;1.989263e-001
1.259342e+003;1.976250e-001
1.261270e+003;1.958192e-001
1.263199e+003;1.940197e-001
1.265127e+003;1.922117e-001
1.267056e+003;1.907807e-001
1.268985e+003;1.896988e-001
1.270913e+003;1.888448e-001
1.272842e+003;1.884045e-001
1.274770e+003;1.881684e-001
1.276699e+003;1.880268e-001
1.278627e+003;1.880250e-001
1.280556e+003;1.874420e-001
1.282484e+003;1.863718e-001
1.284413e+003;1.853032e-001
1.286342e+003;1.838256e-001
1.288270e+003;1.824296e-001
1.290199e+003;1.816136e-001
1.292127e+003;1.807861e-001
1.294056e+003;1.799113e-001
1.295984e+003;1.789612e-001
1.297913e+003;1.775925e-001
1.299841e+003;1.761351e-001
1.301770e+003;1.748836e-001
1.303698e+003;1.740658e-001
1.305627e+003;1.735619e-001
1.307556e+003;1.732471e-001
1.309484e+003;1.731770e-001
1.311413e+003;1.736324e-001
1.313341e+003;1.744797e-001
1.315270e+003;1.752630e-001
1.317198e+003;1.759533e-001
1.319127e+003;1.766309e-001
1.321055e+003;1.771491e-001
1.322984e+003;1.775849e-001
1.324912e+003;1.776393e-001
1.326841e+003;1.775178e-001
1.328770e+003;1.770088e-001
1.330698e+003;1.759145e-001
1.332627e+003;1.745468e-001
1.334555e+003;1.727546e-001
1.336484e+003;1.707481e-001
1.338412e+003;1.690340e-001
1.340341e+003;1.675587e-001
1.342269e+003;1.660223e-001
1.344198e+003;1.646702e-001
1.346126e+003;1.635182e-001
1.348055e+003;1.624079e-001
1.349984e+003;1.612374e-001
1.351912e+003;1.601658e-001
1.353841e+003;1.593159e-001
1.355769e+003;1.588603e-001
1.357698e+003;1.588862e-001
1.359626e+003;1.593147e-001
1.361555e+003;1.599646e-001
1.363483e+003;1.610265e-001
1.365412e+003;1.624767e-001
1.367341e+003;1.637286e-001
1.369269e+003;1.646080e-001
1.371198e+003;1.650745e-001
1.373126e+003;1.650720e-001
1.375055e+003;1.652182e-001
1.376983e+003;1.661132e-001
1.378912e+003;1.670846e-001
1.380840e+003;1.681604e-001
1.382769e+003;1.695069e-001
1.384698e+003;1.706884e-001
1.386626e+003;1.711806e-001
1.388555e+003;1.712406e-001
1.390483e+003;1.711951e-001
1.392412e+003;1.705817e-001
1.394340e+003;1.699297e-001
1.396269e+003;1.696928e-001
1.398197e+003;1.698219e-001
1.400126e+003;1.704369e-001
1.402054e+003;1.710806e-001
1.403983e+003;1.714031e-001
1.405911e+003;1.717810e-001
1.407840e+003;1.721574e-001
1.409769e+003;1.723443e-001
1.411697e+003;1.724321e-001
1.413626e+003;1.728763e-001
1.415554e+003;1.733498e-001
1.417483e+003;1.734040e-001
1.419411e+003;1.735479e-001
1.421340e+003;1.744297e-001
1.423268e+003;1.753131e-001
1.425197e+003;1.764869e-001
1.427125e+003;1.782078e-001
1.429054e+003;1.799539e-001
1.430983e+003;1.822365e-001
1.432911e+003;1.850671e-001
1.434840e+003;1.877067e-001
1.436768e+003;1.900484e-001
1.438697e+003;1.923753e-001
1.440625e+003;1.940651e-001
1.442554e+003;1.950788e-001
1.444482e+003;1.955578e-001
1.446411e+003;1.959939e-001
1.448340e+003;1.965062e-001
1.450268e+003;1.969063e-001
1.452197e+003;1.973390e-001
1.454125e+003;1.976352e-001
1.456054e+003;1.969806e-001
1.457982e+003;1.962681e-001
1.459911e+003;1.958657e-001
1.461839e+003;1.946825e-001
1.463768e+003;1.927860e-001
1.465697e+003;1.910781e-001
1.467625e+003;1.896825e-001
1.469554e+003;1.880737e-001
1.471482e+003;1.866092e-001
1.473411e+003;1.862459e-001
1.475339e+003;1.866476e-001
1.477268e+003;1.880984e-001
1.479196e+003;1.908836e-001
1.481125e+003;1.943914e-001
1.483053e+003;1.990423e-001
1.484982e+003;2.049932e-001
1.486911e+003;2.116795e-001
1.488839e+003;2.191555e-001
1.490768e+003;2.275513e-001
1.492696e+003;2.362855e-001
1.494625e+003;2.446532e-001
1.496553e+003;2.529058e-001
1.498482e+003;2.603535e-001
1.500410e+003;2.662844e-001
1.502339e+003;2.710872e-001
1.504267e+003;2.748812e-001
1.506196e+003;2.781245e-001
1.508125e+003;2.820166e-001
1.510053e+003;2.858984e-001
1.511982e+003;2.884610e-001
1.513910e+003;2.895536e-001
1.515839e+003;2.885359e-001
1.517767e+003;2.852851e-001
1.519696e+003;2.805772e-001
1.521624e+003;2.761937e-001
1.523553e+003;2.729480e-001
1.525481e+003;2.698931e-001
1.527410e+003;2.669794e-001
1.529339e+003;2.636747e-001
1.531267e+003;2.601393e-001
1.533196e+003;2.562289e-001
1.535124e+003;2.522402e-001
1.537053e+003;2.474467e-001
1.538981e+003;2.420233e-001
1.540910e+003;2.374447e-001
1.542838e+003;2.334659e-001
1.544767e+003;2.289416e-001
1.546695e+003;2.238475e-001
1.548624e+003;2.182713e-001
1.550553e+003;2.122973e-001
1.552481e+003;2.062893e-001
1.554410e+003;2.003914e-001
1.556338e+003;1.946851e-001
1.558267e+003;1.883717e-001
1.560195e+003;1.830821e-001
1.562124e+003;1.793786e-001
1.564052e+003;1.754541e-001
1.565981e+003;1.717491e-001
1.567910e+003;1.685635e-001
1.569838e+003;1.658239e-001
1.571767e+003;1.639101e-001
1.573695e+003;1.624519e-001
1.575624e+003;1.615030e-001
1.577552e+003;1.619117e-001
1.579481e+003;1.628265e-001
1.581409e+003;1.637301e-001
1.583338e+003;1.652773e-001
1.585266e+003;1.674402e-001
1.587195e+003;1.699287e-001
1.589124e+003;1.728669e-001
1.591052e+003;1.764767e-001
1.592981e+003;1.804717e-001
1.594909e+003;1.845592e-001
1.596838e+003;1.888898e-001
1.598766e+003;1.940420e-001
1.600695e+003;1.999039e-001
1.602623e+003;2.064423e-001
1.604552e+003;2.141274e-001
1.606480e+003;2.225314e-001
1.608409e+003;2.312011e-001
1.610338e+003;2.399793e-001
1.612266e+003;2.490698e-001
1.614195e+003;2.575915e-001
1.616123e+003;2.652031e-001
1.618052e+003;2.735819e-001
1.619980e+003;2.821126e-001
1.621909e+003;2.897814e-001
1.623837e+003;2.970783e-001
1.625766e+003;3.044813e-001
1.627694e+003;3.109635e-001
1.629623e+003;3.163104e-001
1.631552e+003;3.204540e-001
1.633480e+003;3.229822e-001
1.635409e+003;3.245434e-001
1.637337e+003;3.258606e-001
1.639266e+003;3.266942e-001
1.641194e+003;3.267791e-001
1.643123e+003;3.253261e-001
1.645051e+003;3.221349e-001
1.646980e+003;3.185076e-001
1.648909e+003;3.148431e-001
1.650837e+003;3.095371e-001
1.652766e+003;3.029527e-001
1.654694e+003;2.971925e-001
1.656623e+003;2.912875e-001
1.658551e+003;2.841996e-001
1.660480e+003;2.763007e-001
1.662408e+003;2.681359e-001
1.664337e+003;2.606683e-001
1.666266e+003;2.532938e-001
1.668194e+003;2.453243e-001
1.670123e+003;2.371727e-001
1.672051e+003;2.294019e-001
1.673980e+003;2.215551e-001
1.675908e+003;2.137875e-001
1.677837e+003;2.066146e-001
1.679765e+003;1.994440e-001
1.681694e+003;1.918232e-001
1.683622e+003;1.838478e-001
1.685551e+003;1.766671e-001
1.687479e+003;1.702345e-001
1.689408e+003;1.635407e-001
1.691337e+003;1.568177e-001
1.693265e+003;1.496496e-001
1.695194e+003;1.414145e-001
1.697122e+003;1.338662e-001
1.699051e+003;1.266085e-001
1.700979e+003;1.197452e-001
1.702908e+003;1.140505e-001
1.704836e+003;1.079921e-001
1.706765e+003;1.025800e-001
1.708693e+003;9.782058e-002
1.710622e+003;9.353261e-002
1.712551e+003;8.973476e-002
1.714479e+003;8.638253e-002
1.716408e+003;8.332505e-002
1.718336e+003;8.113514e-002
1.720265e+003;7.973888e-002
1.722193e+003;7.806281e-002
1.724122e+003;7.631659e-002
1.726050e+003;7.491831e-002
1.727979e+003;7.344380e-002
1.729908e+003;7.198073e-002
1.731836e+003;7.002996e-002
1.733765e+003;6.789277e-002
1.735693e+003;6.699723e-002
1.737622e+003;6.594227e-002
1.739550e+003;6.442153e-002
1.741479e+003;6.309423e-002
1.743407e+003;6.162660e-002
1.745336e+003;6.046449e-002
1.747265e+003;5.916773e-002
1.749193e+003;5.777763e-002
1.751122e+003;5.666589e-002
1.753050e+003;5.588633e-002
1.754979e+003;5.491143e-002
1.756907e+003;5.408544e-002
1.758836e+003;5.346228e-002
1.760764e+003;5.272106e-002
1.762693e+003;5.203908e-002
1.764621e+003;5.152370e-002
1.766550e+003;5.089258e-002
1.768479e+003;5.036245e-002
1.770407e+003;4.944089e-002
1.772336e+003;4.863979e-002
1.774264e+003;4.862852e-002
1.776193e+003;4.860396e-002
1.778121e+003;4.844464e-002
1.780050e+003;4.798616e-002
1.781978e+003;4.767280e-002
1.783907e+003;4.771297e-002
1.785835e+003;4.747742e-002
1.787764e+003;4.723199e-002
1.789693e+003;4.680062e-002
1.791621e+003;4.636957e-002
1.793550e+003;4.630503e-002
1.795478e+003;4.628180e-002
1.797407e+003;4.591535e-002
1.799335e+003;4.558563e-002
1.801264e+003;4.538747e-002
1.803192e+003;4.541984e-002
1.805121e+003;4.532170e-002
1.807049e+003;4.515362e-002
1.808978e+003;4.494018e-002
1.810907e+003;4.484902e-002
1.812835e+003;4.475579e-002
1.814764e+003;4.463753e-002
1.816692e+003;4.451358e-002
1.818621e+003;4.444578e-002
1.820549e+003;4.435499e-002
1.822478e+003;4.421376e-002
1.824406e+003;4.397779e-002
1.826335e+003;4.374972e-002
1.828264e+003;4.356408e-002
1.830192e+003;4.351829e-002
1.832121e+003;4.341974e-002
1.834049e+003;4.334629e-002
1.835978e+003;4.345494e-002
1.837906e+003;4.355221e-002
1.839835e+003;4.339990e-002
1.841763e+003;4.319735e-002
1.843692e+003;4.295005e-002
1.845620e+003;4.294438e-002
1.847549e+003;4.310476e-002
1.849478e+003;4.304640e-002
1.851406e+003;4.285809e-002
1.853335e+003;4.269992e-002
1.855263e+003;4.264001e-002
1.857192e+003;4.265539e-002
1.859120e+003;4.268164e-002
1.861049e+003;4.279831e-002
1.862977e+003;4.271703e-002
1.864906e+003;4.258273e-002
1.866834e+003;4.243880e-002
1.868763e+003;4.229012e-002
1.870692e+003;4.226200e-002
1.872620e+003;4.234783e-002
1.874549e+003;4.235711e-002
1.876477e+003;4.219725e-002
1.878406e+003;4.219550e-002
1.880334e+003;4.234809e-002
1.882263e+003;4.244260e-002
1.884191e+003;4.237965e-002
1.886120e+003;4.232705e-002
1.888048e+003;4.233505e-002
1.889977e+003;4.244680e-002
1.891906e+003;4.259121e-002
1.893834e+003;4.257151e-002
1.895763e+003;4.247753e-002
1.897691e+003;4.242977e-002
1.899620e+003;4.258186e-002
1.901548e+003;4.264238e-002
1.903477e+003;4.250373e-002
1.905405e+003;4.232895e-002
1.907334e+003;4.240314e-002
1.909262e+003;4.232837e-002
1.911191e+003;4.216629e-002
1.913120e+003;4.220912e-002
1.915048e+003;4.222216e-002
1.916977e+003;4.218882e-002
1.918905e+003;4.225156e-002
1.920834e+003;4.229034e-002
1.922762e+003;4.230287e-002
1.924691e+003;4.233059e-002
1.926619e+003;4.222606e-002
1.928548e+003;4.214019e-002
1.930477e+003;4.234659e-002
1.932405e+003;4.235528e-002
1.934334e+003;4.230060e-002
1.936262e+003;4.235905e-002
1.938191e+003;4.217400e-002
1.940119e+003;4.208323e-002
1.942048e+003;4.222391e-002
1.943976e+003;4.235956e-002
1.945905e+003;4.221438e-002
1.947833e+003;4.214705e-002
1.949762e+003;4.226565e-002
1.951691e+003;4.239952e-002
1.953619e+003;4.228508e-002
1.955548e+003;4.239167e-002
1.957476e+003;4.248681e-002
1.959405e+003;4.242878e-002
1.961333e+003;4.236723e-002
1.963262e+003;4.224436e-002
1.965190e+003;4.219510e-002
1.967119e+003;4.224433e-002
1.969047e+003;4.217944e-002
1.970976e+003;4.203315e-002
1.972905e+003;4.214428e-002
1.974833e+003;4.222508e-002
1.976762e+003;4.221427e-002
1.978690e+003;4.220474e-002
1.980619e+003;4.216019e-002
1.982547e+003;4.207827e-002
1.984476e+003;4.216575e-002
1.986404e+003;4.231273e-002
1.988333e+003;4.231408e-002
1.990261e+003;4.238341e-002
1.992190e+003;4.233034e-002
1.994119e+003;4.234677e-002
1.996047e+003;4.238075e-002
1.997976e+003;4.237515e-002
1.999904e+003;4.242071e-002
2.001833e+003;4.244727e-002
2.003761e+003;4.254845e-002
2.005690e+003;4.264538e-002
2.007618e+003;4.256347e-002
2.009547e+003;4.253490e-002
2.011476e+003;4.268946e-002
2.013404e+003;4.261080e-002
2.015333e+003;4.252751e-002
2.017261e+003;4.254451e-002
2.019190e+003;4.252506e-002
2.021118e+003;4.266223e-002
2.023047e+003;4.274642e-002
2.024975e+003;4.273162e-002
2.026904e+003;4.294024e-002
2.028833e+003;4.299826e-002
2.030761e+003;4.289269e-002
2.032690e+003;4.289712e-002
2.034618e+003;4.301487e-002
2.036547e+003;4.302869e-002
2.038475e+003;4.304106e-002
2.040404e+003;4.305566e-002
2.042332e+003;4.316931e-002
2.044261e+003;4.309397e-002
2.046189e+003;4.283535e-002
2.048118e+003;4.269838e-002
2.050047e+003;4.286501e-002
2.051975e+003;4.301911e-002
2.053904e+003;4.310783e-002
2.055832e+003;4.321964e-002
2.057761e+003;4.318044e-002
2.059689e+003;4.314227e-002
2.061618e+003;4.310352e-002
2.063546e+003;4.299475e-002
2.065475e+003;4.294419e-002
2.067404e+003;4.306118e-002
2.069332e+003;4.320401e-002
2.071260e+003;4.311508e-002
2.073189e+003;4.307498e-002
2.075118e+003;4.314264e-002
2.077046e+003;4.324738e-002
2.078975e+003;4.335365e-002
2.080903e+003;4.328285e-002
2.082832e+003;4.310081e-002
2.084760e+003;4.307666e-002
2.086689e+003;4.307242e-002
2.088617e+003;4.325822e-002
2.090546e+003;4.359445e-002
2.092475e+003;4.353595e-002
2.094403e+003;4.328362e-002
2.096332e+003;4.319369e-002
2.098260e+003;4.314062e-002
2.100189e+003;4.309221e-002
2.102117e+003;4.302288e-002
2.104046e+003;4.309924e-002
2.105974e+003;4.323446e-002
2.107903e+003;4.316339e-002
2.109832e+003;4.295612e-002
2.111760e+003;4.288677e-002
2.113688e+003;4.296577e-002
2.115617e+003;4.307790e-002
2.117546e+003;4.322930e-002
2.119474e+003;4.325342e-002
2.121403e+003;4.327037e-002
2.123331e+003;4.340828e-002
2.125260e+003;4.334619e-002
2.127188e+003;4.326554e-002
2.129117e+003;4.321572e-002
2.131045e+003;4.330976e-002
2.132974e+003;4.328025e-002
2.134903e+003;4.328399e-002
2.136831e+003;4.325309e-002
2.138760e+003;4.319105e-002
2.140688e+003;4.305244e-002
2.142617e+003;4.290469e-002
2.144545e+003;4.284749e-002
2.146474e+003;4.277641e-002
2.148402e+003;4.268296e-002
2.150331e+003;4.278697e-002
2.152260e+003;4.294986e-002
2.154188e+003;4.296691e-002
2.156117e+003;4.289244e-002
2.158045e+003;4.288626e-002
2.159974e+003;4.301070e-002
2.161902e+003;4.309313e-002
2.163831e+003;4.306261e-002
2.165759e+003;4.298187e-002
2.167688e+003;4.292407e-002
2.169616e+003;4.295249e-002
2.171545e+003;4.296061e-002
2.173474e+003;4.280332e-002
2.175402e+003;4.269594e-002
2.177331e+003;4.271352e-002
2.179259e+003;4.276862e-002
2.181188e+003;4.286080e-002
2.183116e+003;4.295575e-002
2.185045e+003;4.297261e-002
2.186973e+003;4.313166e-002
2.188902e+003;4.320277e-002
2.190831e+003;4.314436e-002
2.192759e+003;4.307121e-002
2.194688e+003;4.305910e-002
2.196616e+003;4.312349e-002
2.198545e+003;4.305866e-002
2.200473e+003;4.295450e-002
2.202402e+003;4.281443e-002
2.204330e+003;4.279637e-002
2.206259e+003;4.288527e-002
2.208188e+003;4.296102e-002
2.210116e+003;4.303019e-002
2.212044e+003;4.317868e-002
2.213973e+003;4.335083e-002
2.215902e+003;4.334505e-002
2.217830e+003;4.320419e-002
2.219759e+003;4.322879e-002
2.221687e+003;4.330628e-002
2.223616e+003;4.313996e-002
2.225544e+003;4.311654e-002
2.227473e+003;4.319676e-002
2.229401e+003;4.324896e-002
2.231330e+003;4.330309e-002
2.233259e+003;4.333740e-002
2.235187e+003;4.342084e-002
2.237116e+003;4.329911e-002
2.239044e+003;4.305818e-002
2.240973e+003;4.307468e-002
2.242901e+003;4.311691e-002
2.244830e+003;4.320174e-002
2.246758e+003;4.338646e-002
2.248687e+003;4.339246e-002
2.250615e+003;4.330668e-002
2.252544e+003;4.320646e-002
2.254473e+003;4.313276e-002
2.256401e+003;4.323695e-002
2.258330e+003;4.330723e-002
2.260258e+003;4.320174e-002
2.262187e+003;4.330306e-002
2.264115e+003;4.345318e-002
2.266044e+003;4.341586e-002
2.267972e+003;4.339170e-002
2.269901e+003;4.333465e-002
2.271830e+003;4.317429e-002
2.273758e+003;4.321166e-002
2.275687e+003;4.350427e-002
2.277615e+003;4.353295e-002
2.279544e+003;4.344278e-002
2.281472e+003;4.348002e-002
2.283401e+003;4.341345e-002
2.285329e+003;4.320408e-002
2.287258e+003;4.334882e-002
2.289187e+003;4.360203e-002
2.291115e+003;4.368032e-002
2.293043e+003;4.368769e-002
2.294972e+003;4.375002e-002
2.296901e+003;4.387830e-002
2.298829e+003;4.367424e-002
2.300758e+003;4.362676e-002
2.302686e+003;4.379587e-002
2.304615e+003;4.376929e-002
2.306543e+003;4.366083e-002
2.308472e+003;4.363068e-002
2.310400e+003;4.375735e-002
2.312329e+003;4.357364e-002
2.314258e+003;4.359877e-002
2.316186e+003;4.380825e-002
2.318115e+003;4.371129e-002
2.320043e+003;4.373818e-002
2.321972e+003;4.385113e-002
2.323900e+003;4.376024e-002
2.325829e+003;4.378472e-002
2.327757e+003;4.370689e-002
2.329686e+003;4.356862e-002
2.331615e+003;4.361826e-002
2.333543e+003;4.369216e-002
2.335472e+003;4.370201e-002
2.337400e+003;4.367937e-002
2.339329e+003;4.360815e-002
2.341257e+003;4.371297e-002
2.343186e+003;4.401002e-002
2.345114e+003;4.419300e-002
2.347043e+003;4.433484e-002
2.348971e+003;4.455896e-002
2.350900e+003;4.458323e-002
2.352829e+003;4.429271e-002
2.354757e+003;4.420609e-002
2.356686e+003;4.421226e-002
2.358614e+003;4.432049e-002
2.360543e+003;4.446417e-002
2.362471e+003;4.459314e-002
2.364400e+003;4.454677e-002
2.366328e+003;4.462626e-002
2.368257e+003;4.482308e-002
2.370186e+003;4.498123e-002
2.372114e+003;4.504272e-002
2.374042e+003;4.520789e-002
2.375971e+003;4.549964e-002
2.377900e+003;4.580465e-002
2.379828e+003;4.621137e-002
2.381757e+003;4.636305e-002
2.383685e+003;4.624133e-002
2.385614e+003;4.637584e-002
2.387542e+003;4.652076e-002
2.389471e+003;4.674653e-002
2.391399e+003;4.707694e-002
2.393328e+003;4.715490e-002
2.395257e+003;4.713909e-002
2.397185e+003;4.713928e-002
2.399114e+003;4.724137e-002
2.401042e+003;4.732032e-002
2.402971e+003;4.729804e-002
2.404899e+003;4.720055e-002
2.406828e+003;4.745650e-002
2.408756e+003;4.787165e-002
2.410685e+003;4.794535e-002
2.412614e+003;4.798945e-002
2.414542e+003;4.812166e-002
2.416471e+003;4.831589e-002
2.418399e+003;4.851147e-002
2.420328e+003;4.852388e-002
2.422256e+003;4.836233e-002
2.424185e+003;4.831426e-002
2.426113e+003;4.892740e-002
2.428042e+003;4.943603e-002
2.429970e+003;4.938420e-002
2.431899e+003;4.935818e-002
2.433828e+003;4.944639e-002
2.435756e+003;4.949485e-002
2.437685e+003;4.968947e-002
2.439613e+003;5.015722e-002
2.441542e+003;5.028756e-002
2.443470e+003;5.010546e-002
2.445399e+003;5.010973e-002
2.447327e+003;5.013309e-002
2.449256e+003;5.023808e-002
2.451185e+003;5.055129e-002
2.453113e+003;5.092682e-002
2.455042e+003;5.097883e-002
2.456970e+003;5.105515e-002
2.458899e+003;5.117260e-002
2.460827e+003;5.131431e-002
2.462756e+003;5.136130e-002
2.464684e+003;5.152307e-002
2.466613e+003;5.171349e-002
2.468542e+003;5.171909e-002
2.470470e+003;5.172260e-002
2.472398e+003;5.187808e-002
2.474327e+003;5.205055e-002
2.476256e+003;5.225237e-002
2.478184e+003;5.262874e-002
2.480113e+003;5.270370e-002
2.482041e+003;5.247848e-002
2.483970e+003;5.271238e-002
2.485898e+003;5.324419e-002
2.487827e+003;5.344110e-002
2.489755e+003;5.341881e-002
2.491684e+003;5.336201e-002
2.493613e+003;5.339978e-002
2.495541e+003;5.353187e-002
2.497470e+003;5.360294e-002
2.499398e+003;5.371726e-002
2.501327e+003;5.384540e-002
2.503255e+003;5.370443e-002
2.505184e+003;5.367946e-002
2.507112e+003;5.388557e-002
2.509041e+003;5.402127e-002
2.510969e+003;5.421786e-002
2.512898e+003;5.442524e-002
2.514827e+003;5.449326e-002
2.516755e+003;5.445570e-002
2.518684e+003;5.432798e-002
2.520612e+003;5.446141e-002
2.522541e+003;5.484087e-002
2.524469e+003;5.504768e-002
2.526398e+003;5.510278e-002
2.528326e+003;5.511674e-002
2.530255e+003;5.527443e-002
2.532184e+003;5.542257e-002
2.534112e+003;5.541763e-002
2.536041e+003;5.527838e-002
2.537969e+003;5.534142e-002
2.539898e+003;5.558887e-002
2.541826e+003;5.568502e-002
2.543755e+003;5.556447e-002
2.545683e+003;5.561411e-002
2.547612e+003;5.584254e-002
2.549541e+003;5.591742e-002
2.551469e+003;5.581967e-002
2.553397e+003;5.582159e-002
2.555326e+003;5.595341e-002
2.557255e+003;5.616509e-002
2.559183e+003;5.643158e-002
2.561112e+003;5.644230e-002
2.563040e+003;5.625877e-002
2.564969e+003;5.645656e-002
2.566897e+003;5.665267e-002
2.568826e+003;5.677308e-002
2.570754e+003;5.691474e-002
2.572683e+003;5.699506e-002
2.574612e+003;5.736845e-002
2.576540e+003;5.758446e-002
2.578469e+003;5.752499e-002
2.580397e+003;5.780908e-002
2.582326e+003;5.808560e-002
2.584254e+003;5.800857e-002
2.586183e+003;5.782676e-002
2.588111e+003;5.799604e-002
2.590040e+003;5.834172e-002
2.591969e+003;5.827529e-002
2.593897e+003;5.833160e-002
2.595826e+003;5.829329e-002
2.597754e+003;5.843481e-002
2.599683e+003;5.888802e-002
2.601611e+003;5.914753e-002
2.603540e+003;5.903930e-002
2.605468e+003;5.878133e-002
2.607397e+003;5.894582e-002
2.609325e+003;5.928754e-002
2.611254e+003;5.938114e-002
2.613183e+003;5.908151e-002
2.615111e+003;5.898149e-002
2.617040e+003;5.912266e-002
2.618968e+003;5.930877e-002
2.620897e+003;5.952157e-002
2.622825e+003;5.962323e-002
2.624754e+003;5.980466e-002
2.626682e+003;5.969249e-002
2.628611e+003;5.963311e-002
2.630540e+003;5.992978e-002
2.632468e+003;5.998254e-002
2.634396e+003;5.996968e-002
2.636325e+003;6.016540e-002
2.638254e+003;6.035615e-002
2.640182e+003;6.025618e-002
2.642111e+003;6.015239e-002
2.644039e+003;6.039171e-002
2.645968e+003;6.048242e-002
2.647896e+003;6.055791e-002
2.649825e+003;6.061083e-002
2.651753e+003;6.059510e-002
2.653682e+003;6.059395e-002
2.655611e+003;6.059765e-002
2.657539e+003;6.072723e-002
2.659468e+003;6.071793e-002
2.661396e+003;6.094868e-002
2.663325e+003;6.114908e-002
2.665253e+003;6.121305e-002
2.667182e+003;6.134381e-002
2.669110e+003;6.128516e-002
2.671039e+003;6.109771e-002
2.672968e+003;6.098003e-002
2.674896e+003;6.112193e-002
2.676825e+003;6.143323e-002
2.678753e+003;6.147045e-002
2.680682e+003;6.130928e-002
2.682610e+003;6.138564e-002
2.684539e+003;6.174519e-002
2.686467e+003;6.204008e-002
2.688396e+003;6.211707e-002
2.690324e+003;6.208714e-002
2.692253e+003;6.211520e-002
2.694182e+003;6.217174e-002
2.696110e+003;6.198302e-002
2.698039e+003;6.210136e-002
2.699967e+003;6.241206e-002
2.701896e+003;6.269348e-002
2.703824e+003;6.311775e-002
2.705753e+003;6.327131e-002
2.707681e+003;6.322804e-002
2.709610e+003;6.322532e-002
2.711539e+003;6.330118e-002
2.713467e+003;6.362805e-002
2.715396e+003;6.417651e-002
2.717324e+003;6.441442e-002
2.719253e+003;6.425135e-002
2.721181e+003;6.410527e-002
2.723110e+003;6.420018e-002
2.725038e+003;6.458674e-002
2.726967e+003;6.499647e-002
2.728896e+003;6.534608e-002
2.730824e+003;6.557692e-002
2.732752e+003;6.565434e-002
2.734681e+003;6.573501e-002
2.736610e+003;6.585889e-002
2.738538e+003;6.587581e-002
2.740467e+003;6.596100e-002
2.742395e+003;6.604911e-002
2.744324e+003;6.592499e-002
2.746252e+003;6.584243e-002
2.748181e+003;6.603005e-002
2.750109e+003;6.651192e-002
2.752038e+003;6.692850e-002
2.753967e+003;6.702325e-002
2.755895e+003;6.720385e-002
2.757824e+003;6.744988e-002
2.759752e+003;6.751838e-002
2.761681e+003;6.746358e-002
2.763609e+003;6.766790e-002
2.765538e+003;6.785662e-002
2.767466e+003;6.803729e-002
2.769395e+003;6.827853e-002
2.771323e+003;6.835391e-002
2.773252e+003;6.823902e-002
2.775181e+003;6.827178e-002
2.777109e+003;6.855780e-002
2.779038e+003;6.882463e-002
2.780966e+003;6.877210e-002
2.782895e+003;6.871326e-002
2.784823e+003;6.901312e-002
2.786752e+003;6.932439e-002
2.788680e+003;6.958161e-002
2.790609e+003;6.986636e-002
2.792538e+003;7.037717e-002
2.794466e+003;7.062088e-002
2.796395e+003;7.050362e-002
2.798323e+003;7.039435e-002
2.800252e+003;7.075403e-002
2.802180e+003;7.130162e-002
2.804109e+003;7.165415e-002
2.806037e+003;7.208101e-002
2.807966e+003;7.228184e-002
2.809895e+003;7.199946e-002
2.811823e+003;7.205992e-002
2.813751e+003;7.244799e-002
2.815680e+003;7.273642e-002
2.817609e+003;7.293756e-002
2.819537e+003;7.294527e-002
2.821466e+003;7.298891e-002
2.823394e+003;7.335740e-002
2.825323e+003;7.395349e-002
2.827251e+003;7.424890e-002
2.829180e+003;7.423840e-002
2.831108e+003;7.460541e-002
2.833037e+003;7.531808e-002
2.834966e+003;7.582925e-002
2.836894e+003;7.616963e-002
2.838823e+003;7.658598e-002
2.840751e+003;7.717968e-002
2.842680e+003;7.773449e-002
2.844608e+003;7.870917e-002
2.846537e+003;7.988306e-002
2.848465e+003;8.059695e-002
2.850394e+003;8.125689e-002
2.852323e+003;8.194800e-002
2.854251e+003;8.241755e-002
2.856180e+003;8.276179e-002
2.858108e+003;8.357915e-002
2.860037e+003;8.417428e-002
2.861965e+003;8.474708e-002
2.863894e+003;8.557889e-002
2.865822e+003;8.646505e-002
2.867751e+003;8.760620e-002
2.869679e+003;8.824261e-002
2.871608e+003;8.841970e-002
2.873536e+003;8.878121e-002
2.875465e+003;8.900728e-002
2.877394e+003;8.887094e-002
2.879322e+003;8.862307e-002
2.881251e+003;8.828561e-002
2.883179e+003;8.813053e-002
2.885108e+003;8.812091e-002
2.887036e+003;8.811377e-002
2.888965e+003;8.819868e-002
2.890893e+003;8.848311e-002
2.892822e+003;8.877849e-002
2.894750e+003;8.880889e-002
2.896679e+003;8.877402e-002
2.898608e+003;8.918370e-002
2.900536e+003;8.994208e-002
2.902465e+003;9.063394e-002
2.904393e+003;9.103795e-002
2.906322e+003;9.154353e-002
2.908250e+003;9.214076e-002
2.910179e+003;9.296072e-002
2.912107e+003;9.368914e-002
2.914036e+003;9.423808e-002
2.915965e+003;9.535236e-002
2.917893e+003;9.666609e-002
2.919822e+003;9.750024e-002
2.921750e+003;9.829465e-002
2.923679e+003;9.915492e-002
2.925607e+003;9.978823e-002
2.927536e+003;1.004003e-001
2.929464e+003;1.007212e-001
2.931393e+003;1.009528e-001
2.933322e+003;1.012686e-001
2.935250e+003;1.008751e-001
2.937178e+003;1.000596e-001
2.939107e+003;9.957077e-002
2.941036e+003;9.921021e-002
2.942964e+003;9.901889e-002
2.944893e+003;9.898605e-002
2.946821e+003;9.904507e-002
2.948750e+003;9.872557e-002
2.950678e+003;9.852153e-002
2.952607e+003;9.883189e-002
2.954535e+003;9.915892e-002
2.956464e+003;9.949469e-002
2.958393e+003;9.989890e-002
2.960321e+003;9.961811e-002
2.962250e+003;9.871006e-002
2.964178e+003;9.830018e-002
2.966107e+003;9.835731e-002
2.968035e+003;9.789438e-002
2.969964e+003;9.720269e-002
2.971892e+003;9.629776e-002
2.973821e+003;9.553729e-002
2.975750e+003;9.476583e-002
2.977678e+003;9.373198e-002
2.979607e+003;9.266216e-002
2.981535e+003;9.125158e-002
2.983464e+003;8.989819e-002
2.985392e+003;8.902273e-002
2.987321e+003;8.815306e-002
2.989249e+003;8.752825e-002
2.991178e+003;8.673859e-002
2.993106e+003;8.610275e-002
2.995035e+003;8.589337e-002
2.996964e+003;8.566617e-002
2.998892e+003;8.530148e-002
3.000821e+003;8.487900e-002
3.002749e+003;8.482828e-002
3.004678e+003;8.485060e-002
3.006606e+003;8.460627e-002
3.008535e+003;8.453916e-002
3.010463e+003;8.484798e-002
3.012392e+003;8.526031e-002
3.014321e+003;8.521137e-002
3.016249e+003;8.493665e-002
3.018177e+003;8.516537e-002
3.020106e+003;8.579583e-002
3.022035e+003;8.620708e-002
3.023963e+003;8.651620e-002
3.025892e+003;8.697055e-002
3.027820e+003;8.707942e-002
3.029749e+003;8.709910e-002
3.031677e+003;8.716361e-002
3.033606e+003;8.739699e-002
3.035534e+003;8.799636e-002
3.037463e+003;8.853994e-002
3.039392e+003;8.888415e-002
3.041320e+003;8.899878e-002
3.043249e+003;8.914872e-002
3.045177e+003;8.931465e-002
3.047106e+003;8.972746e-002
3.049034e+003;9.045859e-002
3.050963e+003;9.086412e-002
3.052891e+003;9.081866e-002
3.054820e+003;9.056100e-002
3.056749e+003;9.100534e-002
3.058677e+003;9.143952e-002
3.060606e+003;9.139801e-002
3.062534e+003;9.155016e-002
3.064463e+003;9.154730e-002
3.066391e+003;9.129042e-002
3.068320e+003;9.097850e-002
3.070248e+003;9.061541e-002
3.072177e+003;9.055226e-002
3.074105e+003;9.054822e-002
3.076034e+003;9.019608e-002
3.077963e+003;9.003005e-002
3.079891e+003;9.052430e-002
3.081820e+003;9.065080e-002
3.083748e+003;9.025849e-002
3.085677e+003;9.005516e-002
3.087605e+003;9.006748e-002
3.089534e+003;9.015314e-002
3.091462e+003;9.010907e-002
3.093391e+003;8.978002e-002
3.095320e+003;8.942346e-002
3.097248e+003;8.887223e-002
3.099177e+003;8.855197e-002
3.101105e+003;8.903778e-002
3.103034e+003;8.906987e-002
3.104962e+003;8.860759e-002
3.106891e+003;8.819263e-002
3.108819e+003;8.829369e-002
3.110748e+003;8.887557e-002
3.112677e+003;8.905023e-002
3.114605e+003;8.901773e-002
3.116533e+003;8.898626e-002
3.118462e+003;8.927066e-002
3.120391e+003;8.975166e-002
3.122319e+003;8.995713e-002
3.124248e+003;8.982924e-002
3.126176e+003;8.959553e-002
3.128105e+003;8.973142e-002
3.130033e+003;9.044648e-002
3.131962e+003;9.096310e-002
3.133890e+003;9.104285e-002
3.135819e+003;9.134415e-002
3.137748e+003;9.192710e-002
3.139676e+003;9.219681e-002
3.141605e+003;9.217284e-002
3.143533e+003;9.258714e-002
3.145462e+003;9.316187e-002
3.147390e+003;9.373547e-002
3.149319e+003;9.426290e-002
3.151247e+003;9.481261e-002
3.153176e+003;9.513786e-002
3.155104e+003;9.580710e-002
3.157033e+003;9.653129e-002
3.158962e+003;9.691995e-002
3.160890e+003;9.766903e-002
3.162819e+003;9.808110e-002
3.164747e+003;9.842876e-002
3.166676e+003;9.947240e-002
3.168604e+003;1.001779e-001
3.170533e+003;1.004882e-001
3.172461e+003;1.006387e-001
3.174390e+003;1.009532e-001
3.176319e+003;1.017847e-001
3.178247e+003;1.024493e-001
3.180176e+003;1.033374e-001
3.182104e+003;1.039109e-001
3.184033e+003;1.038580e-001
3.185961e+003;1.042004e-001
3.187890e+003;1.050200e-001
3.189818e+003;1.056910e-001
3.191747e+003;1.062803e-001
3.193676e+003;1.067545e-001
3.195604e+003;1.071868e-001
3.197532e+003;1.072828e-001
3.199461e+003;1.074302e-001
3.201390e+003;1.078330e-001
3.203318e+003;1.084525e-001
3.205247e+003;1.089048e-001
3.207175e+003;1.091734e-001
3.209104e+003;1.095220e-001
3.211032e+003;1.100965e-001
3.212961e+003;1.105375e-001
3.214889e+003;1.106209e-001
3.216818e+003;1.107672e-001
3.218747e+003;1.112322e-001
3.220675e+003;1.114821e-001
3.222604e+003;1.117812e-001
3.224532e+003;1.122995e-001
3.226461e+003;1.125387e-001
3.228389e+003;1.126905e-001
3.230318e+003;1.130659e-001
3.232246e+003;1.132000e-001
3.234175e+003;1.132199e-001
3.236104e+003;1.136659e-001
3.238032e+003;1.145219e-001
3.239961e+003;1.151455e-001
3.241889e+003;1.155745e-001
3.243818e+003;1.164174e-001
3.245746e+003;1.169825e-001
3.247675e+003;1.172414e-001
3.249603e+003;1.179154e-001
3.251532e+003;1.187957e-001
3.253460e+003;1.192914e-001
3.255389e+003;1.197060e-001
3.257318e+003;1.201352e-001
3.259246e+003;1.208037e-001
3.261175e+003;1.214193e-001
3.263103e+003;1.221756e-001
3.265032e+003;1.225738e-001
3.266960e+003;1.229029e-001
3.268889e+003;1.234933e-001
3.270817e+003;1.241080e-001
3.272746e+003;1.244186e-001
3.274675e+003;1.242905e-001
3.276603e+003;1.239750e-001
3.278531e+003;1.246017e-001
3.280460e+003;1.254066e-001
3.282389e+003;1.255333e-001
3.284317e+003;1.253118e-001
3.286246e+003;1.250130e-001
3.288174e+003;1.251418e-001
3.290103e+003;1.252357e-001
3.292031e+003;1.248207e-001
3.293960e+003;1.242464e-001
3.295888e+003;1.239916e-001
3.297817e+003;1.242388e-001
3.299746e+003;1.241836e-001
3.301674e+003;1.235366e-001
3.303603e+003;1.231229e-001
3.305531e+003;1.229946e-001
3.307460e+003;1.225913e-001
3.309388e+003;1.219773e-001
3.311317e+003;1.210561e-001
3.313245e+003;1.205613e-001
3.315174e+003;1.206241e-001
3.317103e+003;1.202860e-001
3.319031e+003;1.193561e-001
3.320960e+003;1.183919e-001
3.322888e+003;1.178321e-001
3.324817e+003;1.175245e-001
3.326745e+003;1.169049e-001
3.328674e+003;1.165507e-001
3.330602e+003;1.167864e-001
3.332531e+003;1.160431e-001
3.334459e+003;1.148788e-001
3.336388e+003;1.137957e-001
3.338317e+003;1.132254e-001
3.340245e+003;1.130398e-001
3.342174e+003;1.124027e-001
3.344102e+003;1.113700e-001
3.346031e+003;1.105500e-001
3.347959e+003;1.101285e-001
3.349888e+003;1.095967e-001
3.351816e+003;1.086896e-001
3.353745e+003;1.078709e-001
3.355674e+003;1.069551e-001
3.357602e+003;1.060352e-001
3.359531e+003;1.054738e-001
3.361459e+003;1.047142e-001
3.363388e+003;1.036621e-001
3.365316e+003;1.028581e-001
3.367245e+003;1.022988e-001
3.369173e+003;1.015385e-001
3.371102e+003;1.006884e-001
3.373031e+003;1.002238e-001
3.374959e+003;9.960020e-002
3.376887e+003;9.845669e-002
3.378816e+003;9.732235e-002
3.380745e+003;9.672815e-002
3.382673e+003;9.608866e-002
3.384602e+003;9.558184e-002
3.386530e+003;9.516797e-002
3.388459e+003;9.459495e-002
3.390387e+003;9.377042e-002
3.392316e+003;9.287249e-002
3.394244e+003;9.230355e-002
3.396173e+003;9.205376e-002
3.398102e+003;9.122632e-002
3.400030e+003;9.044713e-002
3.401959e+003;8.993854e-002
3.403887e+003;8.908985e-002
3.405816e+003;8.835489e-002
3.407744e+003;8.819170e-002
3.409673e+003;8.771044e-002
3.411601e+003;8.694044e-002
3.413530e+003;8.587367e-002
3.415458e+003;8.491312e-002
3.417387e+003;8.462270e-002
3.419316e+003;8.382161e-002
3.421244e+003;8.236435e-002
3.423173e+003;8.172689e-002
3.425101e+003;8.154959e-002
3.427030e+003;8.093899e-002
3.428958e+003;7.985925e-002
3.430887e+003;7.885655e-002
3.432815e+003;7.817137e-002
3.434744e+003;7.746034e-002
3.436673e+003;7.648220e-002
3.438601e+003;7.581981e-002
3.440530e+003;7.536416e-002
3.442458e+003;7.489426e-002
3.444387e+003;7.430422e-002
3.446315e+003;7.376482e-002
3.448244e+003;7.366300e-002
3.450172e+003;7.305488e-002
3.452101e+003;7.224032e-002
3.454030e+003;7.165634e-002
3.455958e+003;7.138288e-002
3.457886e+003;7.155014e-002
3.459815e+003;7.134011e-002
3.461744e+003;7.120928e-002
3.463672e+003;7.056311e-002
3.465601e+003;6.968018e-002
3.467529e+003;6.909605e-002
3.469458e+003;6.858107e-002
3.471386e+003;6.779469e-002
3.473315e+003;6.723998e-002
3.475243e+003;6.750166e-002
3.477172e+003;6.745015e-002
3.479101e+003;6.699295e-002
3.481029e+003;6.638752e-002
3.482958e+003;6.574349e-002
3.484886e+003;6.509642e-002
3.486815e+003;6.505162e-002
3.488743e+003;6.488396e-002
3.490672e+003;6.415001e-002
3.492600e+003;6.332977e-002
3.494529e+003;6.302028e-002
3.496458e+003;6.314546e-002
3.498386e+003;6.279130e-002
3.500315e+003;6.192834e-002
3.502243e+003;6.104176e-002
3.504172e+003;6.009592e-002
3.506100e+003;5.977393e-002
3.508029e+003;5.985770e-002
3.509957e+003;5.975009e-002
3.511886e+003;5.930236e-002
3.513814e+003;5.911093e-002
3.515743e+003;5.884928e-002
3.517672e+003;5.859870e-002
3.519600e+003;5.803020e-002
3.521529e+003;5.705169e-002
3.523457e+003;5.653385e-002
3.525386e+003;5.627035e-002
3.527314e+003;5.637861e-002
3.529243e+003;5.625157e-002
3.531171e+003;5.569358e-002
3.533100e+003;5.551913e-002
3.535029e+003;5.537457e-002
3.536957e+003;5.479918e-002
3.538885e+003;5.419688e-002
3.540814e+003;5.394379e-002
3.542743e+003;5.406915e-002
3.544671e+003;5.387593e-002
3.546600e+003;5.342983e-002
3.548528e+003;5.294420e-002
3.550457e+003;5.244076e-002
3.552385e+003;5.227046e-002
3.554314e+003;5.193032e-002
3.556242e+003;5.160202e-002
3.558171e+003;5.115902e-002
3.560100e+003;5.058665e-002
3.562028e+003;5.017995e-002
3.563957e+003;4.980391e-002
3.565885e+003;4.901849e-002
3.567814e+003;4.847638e-002
3.569742e+003;4.836159e-002
3.571671e+003;4.820381e-002
3.573599e+003;4.772384e-002
3.575528e+003;4.719021e-002
3.577457e+003;4.695760e-002
3.579385e+003;4.658792e-002
3.581314e+003;4.594595e-002
3.583242e+003;4.536021e-002
3.585171e+003;4.527441e-002
3.587099e+003;4.526606e-002
3.589028e+003;4.443007e-002
3.590956e+003;4.399932e-002
3.592885e+003;4.413053e-002
3.594813e+003;4.348116e-002
3.596742e+003;4.288691e-002
3.598671e+003;4.268479e-002
3.600599e+003;4.229085e-002
3.602528e+003;4.182554e-002
3.604456e+003;4.149786e-002
3.606385e+003;4.117578e-002
3.608313e+003;4.032024e-002
3.610242e+003;4.009627e-002
3.612170e+003;4.010662e-002
3.614099e+003;3.972508e-002
3.616028e+003;3.910118e-002
3.617956e+003;3.861976e-002
3.619885e+003;3.822786e-002
3.621813e+003;3.788148e-002
3.623742e+003;3.726397e-002
3.625670e+003;3.594114e-002
3.627599e+003;3.485174e-002
3.629527e+003;3.474789e-002
3.631456e+003;3.493066e-002
3.633385e+003;3.458693e-002
3.635313e+003;3.422451e-002
3.637241e+003;3.376604e-002
3.639170e+003;3.311301e-002
3.641099e+003;3.219201e-002
3.643027e+003;3.130383e-002
3.644956e+003;3.046626e-002
3.646884e+003;2.974731e-002
3.648813e+003;2.924368e-002
3.650741e+003;2.910041e-002
3.652670e+003;2.895630e-002
3.654598e+003;2.779471e-002
3.656527e+003;2.690704e-002
3.658456e+003;2.673156e-002
3.660384e+003;2.589090e-002
3.662313e+003;2.529607e-002
3.664241e+003;2.453597e-002
3.666170e+003;2.366004e-002
3.668098e+003;2.312633e-002
3.670027e+003;2.202158e-002
3.671955e+003;2.166259e-002
3.673884e+003;2.116465e-002
3.675813e+003;2.019541e-002
3.677741e+003;2.003063e-002
3.679669e+003;2.032435e-002
3.681598e+003;2.026692e-002
3.683527e+003;1.927511e-002
3.685455e+003;1.841380e-002
3.687384e+003;1.723759e-002
3.689312e+003;1.628019e-002
3.691241e+003;1.631545e-002
3.693169e+003;1.643870e-002
3.695098e+003;1.625123e-002
3.697026e+003;1.609131e-002
3.698955e+003;1.572314e-002
3.700884e+003;1.530152e-002
3.702812e+003;1.586921e-002
3.704741e+003;1.602849e-002
3.706669e+003;1.561187e-002
3.708598e+003;1.537985e-002
3.710526e+003;1.478898e-002
3.712455e+003;1.422240e-002
3.714383e+003;1.413086e-002
3.716312e+003;1.423770e-002
3.718240e+003;1.455363e-002
3.720169e+003;1.465499e-002
3.722098e+003;1.438913e-002
3.724026e+003;1.418563e-002
3.725955e+003;1.397227e-002
3.727883e+003;1.409543e-002
3.729812e+003;1.420987e-002
3.731740e+003;1.390548e-002
3.733669e+003;1.373620e-002
3.735597e+003;1.381777e-002
3.737526e+003;1.370173e-002
3.739455e+003;1.356626e-002
3.741383e+003;1.347394e-002
3.743312e+003;1.251804e-002
3.745240e+003;1.265740e-002
3.747169e+003;1.306850e-002
3.749097e+003;1.266426e-002
3.751026e+003;1.246235e-002
3.752954e+003;1.290814e-002
3.754883e+003;1.382235e-002
3.756812e+003;1.391697e-002
3.758740e+003;1.358154e-002
3.760668e+003;1.314445e-002
3.762597e+003;1.280791e-002
3.764526e+003;1.282053e-002
3.766454e+003;1.349680e-002
3.768383e+003;1.358770e-002
3.770311e+003;1.341433e-002
3.772240e+003;1.349246e-002
3.774168e+003;1.318697e-002
3.776097e+003;1.274618e-002
3.778025e+003;1.300875e-002
3.779954e+003;1.345767e-002
3.781883e+003;1.323438e-002
3.783811e+003;1.266829e-002
3.785740e+003;1.291030e-002
3.787668e+003;1.365040e-002
3.789597e+003;1.335481e-002
3.791525e+003;1.310043e-002
3.793454e+003;1.379458e-002
3.795382e+003;1.371315e-002
3.797311e+003;1.335067e-002
3.799240e+003;1.341010e-002
3.801168e+003;1.295593e-002
3.803097e+003;1.271864e-002
3.805025e+003;1.267777e-002
3.806954e+003;1.266887e-002
3.808882e+003;1.347712e-002
3.810811e+003;1.369366e-002
3.812739e+003;1.310313e-002
3.814668e+003;1.263035e-002
3.816596e+003;1.303080e-002
3.818525e+003;1.334613e-002
3.820454e+003;1.309913e-002
3.822382e+003;1.354992e-002
3.824311e+003;1.367109e-002
3.826239e+003;1.319107e-002
3.828168e+003;1.315019e-002
3.830096e+003;1.346044e-002
3.832025e+003;1.376722e-002
3.833953e+003;1.386922e-002
3.835882e+003;1.374912e-002
3.837811e+003;1.358517e-002
3.839739e+003;1.354821e-002
3.841667e+003;1.363888e-002
3.843596e+003;1.408787e-002
3.845525e+003;1.427564e-002
3.847453e+003;1.434803e-002
3.849382e+003;1.352958e-002
3.851310e+003;1.198424e-002
3.853239e+003;1.173866e-002
3.855167e+003;1.309582e-002
3.857096e+003;1.423798e-002
3.859024e+003;1.436547e-002
3.860953e+003;1.425900e-002
3.862882e+003;1.432218e-002
3.864810e+003;1.413171e-002
3.866739e+003;1.394766e-002
3.868667e+003;1.341837e-002
3.870596e+003;1.353115e-002
3.872524e+003;1.380888e-002
3.874453e+003;1.381206e-002
3.876381e+003;1.481288e-002
3.878310e+003;1.556870e-002
3.880239e+003;1.550424e-002
3.882167e+003;1.553535e-002
3.884096e+003;1.535939e-002
3.886024e+003;1.500007e-002
3.887953e+003;1.512301e-002
3.889881e+003;1.453044e-002
3.891810e+003;1.443380e-002
3.893738e+003;1.503235e-002
3.895667e+003;1.531535e-002
3.897595e+003;1.493885e-002
3.899524e+003;1.435372e-002
3.901453e+003;1.437738e-002
3.903381e+003;1.474058e-002
3.905310e+003;1.516947e-002
3.907238e+003;1.576594e-002
3.909167e+003;1.599154e-002
3.911095e+003;1.536217e-002
3.913024e+003;1.508747e-002
3.914952e+003;1.538377e-002
3.916881e+003;1.500374e-002
3.918810e+003;1.492757e-002
3.920738e+003;1.524356e-002
3.922667e+003;1.497507e-002
3.924595e+003;1.461466e-002
3.926524e+003;1.487284e-002
3.928452e+003;1.511111e-002
3.930381e+003;1.484507e-002
3.932309e+003;1.494729e-002
3.934238e+003;1.593623e-002
3.936167e+003;1.644266e-002
3.938095e+003;1.588295e-002
3.940023e+003;1.442492e-002
3.941952e+003;1.404262e-002
3.943881e+003;1.506339e-002
3.945809e+003;1.521240e-002
3.947738e+003;1.534498e-002
3.949666e+003;1.598734e-002
3.951595e+003;1.593609e-002
3.953523e+003;1.562328e-002
3.955452e+003;1.582780e-002
3.957380e+003;1.629770e-002
3.959309e+003;1.603616e-002
3.961238e+003;1.512823e-002
3.963166e+003;1.487925e-002
3.965095e+003;1.516134e-002
3.967023e+003;1.551228e-002
3.968952e+003;1.578697e-002
3.970880e+003;1.579443e-002
3.972809e+003;1.540790e-002
3.974737e+003;1.502758e-002
3.976666e+003;1.462933e-002
3.978594e+003;1.418063e-002
3.980523e+003;1.408647e-002
3.982452e+003;1.402370e-002
3.984380e+003;1.490672e-002
3.986309e+003;1.599250e-002
3.988237e+003;1.535709e-002
3.990166e+003;1.482364e-002
3.992094e+003;1.493385e-002
3.994023e+003;1.440105e-002
3.995951e+003;1.435057e-002
3.997880e+003;1.452239e-002
3.999809e+003;1.453660e-002
4.001737e+003;0.000000e+000
