3.992094e+002;0.000000e+000
4.011380e+002;0.000000e+000
4.030665e+002;0.000000e+000
4.049951e+002;0.000000e+000
4.069236e+002;0.000000e+000
4.088522e+002;0.000000e+000
4.107807e+002;0.000000e+000
4.127093e+002;0.000000e+000
4.146378e+002;0.000000e+000
4.165664e+002;0.000000e+000
4.184949e+002;0.000000e+000
4.204235e+002;0.000000e+000
4.223520e+002;0.000000e+000
4.242806e+002;0.000000e+000
4.262091e+002;0.000000e+000
4.281377e+002;0.000000e+000
4.300662e+002;0.000000e+000
4.319948e+002;0.000000e+000
4.339233e+002;0.000000e+000
4.358519e+002;0.000000e+000
4.377804e+002;0.000000e+000
4.397090e+002;0.000000e+000
4.416375e+002;0.000000e+000
4.435660e+002;0.000000e+000
4.454946e+002;0.000000e+000
4.474232e+002;0.000000e+000
4.493517e+002;0.000000e+000
4.512802e+002;0.000000e+000
4.532088e+002;0.000000e+000
4.551373e+002;0.000000e+000
4.570659e+002;0.000000e+000
4.589944e+002;0.000000e+000
4.609230e+002;0.000000e+000
4.628515e+002;0.000000e+000
4.647801e+002;0.000000e+000
4.667086e+002;0.000000e+000
4.686372e+002;0.000000e+000
4.705657e+002;0.000000e+000
4.724943e+002;0.000000e+000
4.744228e+002;0.000000e+000
4.763513e+002;0.000000e+000
4.782799e+002;0.000000e+000
4.802085e+002;0.000000e+000
4.821370e+002;0.000000e+000
4.840656e+002;0.000000e+000
4.859941e+002;0.000000e+000
4.879226e+002;0.000000e+000
4.898512e+002;0.000000e+000
4.917798e+002;0.000000e+000
4.937083e+002;0.000000e+000
4.956368e+002;0.000000e+000
4.975654e+002;0.000000e+000
4.994939e+002;0.000000e+000
5.014225e+002;0.000000e+000
5.033510e+002;0.000000e+000
5.052796e+002;0.000000e+000
5.072081e+002;0.000000e+000
5.091367e+002;0.000000e+000
5.110652e+002;0.000000e+000
5.129938e+002;0.000000e+000
5.149223e+002;0.000000e+000
5.168509e+002;0.000000e+000
5.187794e+002;0.000000e+000
5.207079e+002;0.000000e+000
5.226365e+002;0.000000e+000
5.245651e+002;0.000000e+000
5.264936e+002;0.000000e+000
5.284222e+002;0.000000e+000
5.303507e+002;0.000000e+000
5.322792e+002;0.000000e+000
5.342078e+002;0.000000e+000
5.361364e+002;0.000000e+000
5.380649e+002;0.000000e+000
5.399935e+002;0.000000e+000
5.419220e+002;0.000000e+000
5.438505e+002;0.000000e+000
5.457791e+002;0.000000e+000
5.477076e+002;0.000000e+000
5.496362e+002;0.000000e+000
5.515648e+002;0.000000e+000
5.534933e+002;0.000000e+000
5.554218e+002;0.000000e+000
5.573504e+002;0.000000e+000
5.592789e+002;0.000000e+000
5.612075e+002;0.000000e+000
5.631360e+002;0.000000e+000
5.650646e+002;0.000000e+000
5.669931e+002;0.000000e+000
5.689217e+002;0.000000e+000
5.708502e+002;0.000000e+000
5.727787e+002;0.000000e+000
5.747073e+002;0.000000e+000
5.766359e+002;0.000000e+000
5.785644e+002;0.000000e+000
5.804930e+002;0.000000e+000
5.824215e+002;0.000000e+000
5.843500e+002;0.000000e+000
5.862786e+002;0.000000e+000
5.882072e+002;0.000000e+000
5.901357e+002;0.000000e+000
5.920643e+002;0.000000e+000
5.939928e+002;0.000000e+000
5.959213e+002;0.000000e+000
5.978499e+002;0.000000e+000
5.997784e+002;2.355737e-001
6.017070e+002;2.341489e-001
6.036355e+002;2.341965e-001
6.055641e+002;2.339986e-001
6.074926e+002;2.284226e-001
6.094211e+002;2.227489e-001
6.113497e+002;2.269421e-001
6.132783e+002;2.294864e-001
6.152068e+002;2.279615e-001
6.171354e+002;2.274062e-001
6.190639e+002;2.258602e-001
6.209924e+002;2.228665e-001
6.229210e+002;2.221945e-001
6.248495e+002;2.252397e-001
6.267781e+002;2.257124e-001
6.287067e+002;2.232661e-001
6.306352e+002;2.221640e-001
6.325637e+002;2.214736e-001
6.344923e+002;2.156625e-001
6.364208e+002;2.131168e-001
6.383494e+002;2.152782e-001
6.402780e+002;2.112127e-001
6.422065e+002;2.071865e-001
6.441350e+002;2.108108e-001
6.460636e+002;2.153996e-001
6.479921e+002;2.168249e-001
6.499207e+002;2.146411e-001
6.518492e+002;2.088514e-001
6.537778e+002;2.044432e-001
6.557063e+002;2.035687e-001
6.576349e+002;2.035728e-001
6.595634e+002;2.044670e-001
6.614919e+002;2.066850e-001
6.634205e+002;2.074584e-001
6.653491e+002;2.062738e-001
6.672776e+002;2.023636e-001
6.692062e+002;1.994345e-001
6.711347e+002;1.981926e-001
6.730632e+002;1.954189e-001
6.749918e+002;1.931698e-001
6.769203e+002;1.923440e-001
6.788489e+002;1.913279e-001
6.807775e+002;1.909077e-001
6.827060e+002;1.909550e-001
6.846345e+002;1.899030e-001
6.865631e+002;1.888649e-001
6.884916e+002;1.881734e-001
6.904202e+002;1.869729e-001
6.923488e+002;1.859825e-001
6.942773e+002;1.848140e-001
6.962058e+002;1.851154e-001
6.981344e+002;1.852182e-001
7.000629e+002;1.835599e-001
7.019915e+002;1.823134e-001
7.039200e+002;1.816657e-001
7.058486e+002;1.796976e-001
7.077771e+002;1.770628e-001
7.097057e+002;1.752384e-001
7.116342e+002;1.729213e-001
7.135627e+002;1.711558e-001
7.154913e+002;1.705834e-001
7.174199e+002;1.699960e-001
7.193484e+002;1.694884e-001
7.212770e+002;1.679696e-001
7.232055e+002;1.654027e-001
7.251340e+002;1.643350e-001
7.270626e+002;1.634121e-001
7.289911e+002;1.633350e-001
7.309197e+002;1.638448e-001
7.328483e+002;1.624606e-001
7.347768e+002;1.614021e-001
7.367053e+002;1.613966e-001
7.386339e+002;1.616429e-001
7.405624e+002;1.617989e-001
7.424910e+002;1.620810e-001
7.444196e+002;1.623404e-001
7.463481e+002;1.611659e-001
7.482766e+002;1.585470e-001
7.502052e+002;1.562104e-001
7.521337e+002;1.552263e-001
7.540623e+002;1.546096e-001
7.559908e+002;1.528801e-001
7.579194e+002;1.508373e-001
7.598479e+002;1.498373e-001
7.617765e+002;1.487638e-001
7.637050e+002;1.470359e-001
7.656335e+002;1.455248e-001
7.675621e+002;1.443903e-001
7.694907e+002;1.426740e-001
7.714192e+002;1.412978e-001
7.733478e+002;1.399836e-001
7.752763e+002;1.388050e-001
7.772048e+002;1.382332e-001
7.791334e+002;1.370012e-001
7.810620e+002;1.354620e-001
7.829905e+002;1.345630e-001
7.849191e+002;1.333630e-001
7.868476e+002;1.326143e-001
7.887761e+002;1.325278e-001
7.907047e+002;1.322398e-001
7.926332e+002;1.319086e-001
7.945618e+002;1.308389e-001
7.964903e+002;1.292368e-001
7.984189e+002;1.281827e-001
8.003474e+002;1.278673e-001
8.022759e+002;1.280561e-001
8.042045e+002;1.271112e-001
8.061331e+002;1.258276e-001
8.080616e+002;1.255568e-001
8.099902e+002;1.261851e-001
8.119187e+002;1.262701e-001
8.138472e+002;1.260710e-001
8.157758e+002;1.263112e-001
8.177043e+002;1.263252e-001
8.196329e+002;1.265849e-001
8.215615e+002;1.273541e-001
8.234900e+002;1.280064e-001
8.254185e+002;1.279123e-001
8.273471e+002;1.278166e-001
8.292756e+002;1.276222e-001
8.312042e+002;1.267486e-001
8.331328e+002;1.247877e-001
8.350613e+002;1.227549e-001
8.369898e+002;1.215185e-001
8.389184e+002;1.202260e-001
8.408469e+002;1.192634e-001
8.427755e+002;1.185211e-001
8.447040e+002;1.177366e-001
8.466326e+002;1.170283e-001
8.485611e+002;1.159935e-001
8.504897e+002;1.151499e-001
8.524182e+002;1.149790e-001
8.543467e+002;1.143875e-001
8.562753e+002;1.138570e-001
8.582039e+002;1.133267e-001
8.601324e+002;1.125406e-001
8.620610e+002;1.125224e-001
8.639895e+002;1.126673e-001
8.659180e+002;1.126861e-001
8.678466e+002;1.130539e-001
8.697751e+002;1.134217e-001
8.717037e+002;1.137497e-001
8.736323e+002;1.137736e-001
8.755608e+002;1.138189e-001
8.774893e+002;1.140307e-001
8.794179e+002;1.145331e-001
8.813464e+002;1.153275e-001
8.832750e+002;1.158098e-001
8.852036e+002;1.159449e-001
8.871321e+002;1.162737e-001
8.890606e+002;1.162309e-001
8.909892e+002;1.154396e-001
8.929177e+002;1.146739e-001
8.948463e+002;1.142836e-001
8.967748e+002;1.141467e-001
8.987034e+002;1.143189e-001
9.006319e+002;1.145052e-001
9.025605e+002;1.144834e-001
9.044890e+002;1.145109e-001
9.064175e+002;1.149043e-001
9.083461e+002;1.155321e-001
9.102747e+002;1.154590e-001
9.122032e+002;1.154153e-001
9.141318e+002;1.157607e-001
9.160603e+002;1.163499e-001
9.179888e+002;1.170876e-001
9.199174e+002;1.174167e-001
9.218459e+002;1.175376e-001
9.237745e+002;1.180493e-001
9.257031e+002;1.183635e-001
9.276316e+002;1.184131e-001
9.295601e+002;1.185004e-001
9.314887e+002;1.187083e-001
9.334172e+002;1.190045e-001
9.353458e+002;1.189681e-001
9.372744e+002;1.186331e-001
9.392029e+002;1.183088e-001
9.411314e+002;1.178202e-001
9.430600e+002;1.176024e-001
9.449885e+002;1.175004e-001
9.469171e+002;1.173010e-001
9.488456e+002;1.172474e-001
9.507742e+002;1.174689e-001
9.527027e+002;1.177902e-001
9.546313e+002;1.180219e-001
9.565598e+002;1.184532e-001
9.584883e+002;1.188186e-001
9.604169e+002;1.189216e-001
9.623455e+002;1.192749e-001
9.642740e+002;1.198675e-001
9.662026e+002;1.205471e-001
9.681311e+002;1.216109e-001
9.700596e+002;1.226040e-001
9.719882e+002;1.231441e-001
9.739167e+002;1.233574e-001
9.758453e+002;1.237656e-001
9.777739e+002;1.245895e-001
9.797024e+002;1.256717e-001
9.816309e+002;1.265965e-001
9.835595e+002;1.278674e-001
9.854880e+002;1.298726e-001
9.874166e+002;1.321018e-001
9.893452e+002;1.342234e-001
9.912737e+002;1.362100e-001
9.932022e+002;1.377160e-001
9.951307e+002;1.391995e-001
9.970593e+002;1.401604e-001
9.989879e+002;1.408547e-001
1.000916e+003;1.422740e-001
1.002845e+003;1.444859e-001
1.004773e+003;1.466013e-001
1.006702e+003;1.480370e-001
1.008631e+003;1.493204e-001
1.010559e+003;1.508396e-001
1.012488e+003;1.524392e-001
1.014416e+003;1.536627e-001
1.016345e+003;1.545566e-001
1.018273e+003;1.555452e-001
1.020202e+003;1.566762e-001
1.022130e+003;1.579416e-001
1.024059e+003;1.601578e-001
1.025988e+003;1.627925e-001
1.027916e+003;1.657964e-001
1.029845e+003;1.696805e-001
1.031773e+003;1.735561e-001
1.033702e+003;1.771580e-001
1.035630e+003;1.803375e-001
1.037559e+003;1.832676e-001
1.039487e+003;1.859044e-001
1.041416e+003;1.880254e-001
1.043344e+003;1.893580e-001
1.045273e+003;1.891545e-001
1.047202e+003;1.872735e-001
1.049130e+003;1.838863e-001
1.051059e+003;1.802355e-001
1.052987e+003;1.767685e-001
1.054916e+003;1.737770e-001
1.056844e+003;1.724194e-001
1.058773e+003;1.721221e-001
1.060701e+003;1.724887e-001
1.062630e+003;1.729498e-001
1.064558e+003;1.729399e-001
1.066487e+003;1.730398e-001
1.068416e+003;1.730631e-001
1.070344e+003;1.733458e-001
1.072273e+003;1.738293e-001
1.074201e+003;1.740078e-001
1.076130e+003;1.735990e-001
1.078058e+003;1.733225e-001
1.079987e+003;1.729071e-001
1.081915e+003;1.727712e-001
1.083844e+003;1.730094e-001
1.085773e+003;1.729467e-001
1.087701e+003;1.726838e-001
1.089630e+003;1.722910e-001
1.091558e+003;1.720511e-001
1.093487e+003;1.719267e-001
1.095415e+003;1.719085e-001
1.097344e+003;1.716459e-001
1.099272e+003;1.709690e-001
1.101201e+003;1.704726e-001
1.103129e+003;1.699384e-001
1.105058e+003;1.690616e-001
1.106987e+003;1.680033e-001
1.108915e+003;1.669778e-001
1.110844e+003;1.664160e-001
1.112772e+003;1.659502e-001
1.114701e+003;1.657344e-001
1.116629e+003;1.657468e-001
1.118558e+003;1.654975e-001
1.120486e+003;1.656552e-001
1.122415e+003;1.657474e-001
1.124344e+003;1.657716e-001
1.126272e+003;1.660999e-001
1.128201e+003;1.665531e-001
1.130129e+003;1.669438e-001
1.132058e+003;1.670601e-001
1.133986e+003;1.676742e-001
1.135915e+003;1.694880e-001
1.137843e+003;1.717311e-001
1.139772e+003;1.736432e-001
1.141700e+003;1.753700e-001
1.143629e+003;1.768452e-001
1.145557e+003;1.785201e-001
1.147486e+003;1.804709e-001
1.149415e+003;1.823313e-001
1.151343e+003;1.835974e-001
1.153272e+003;1.843464e-001
1.155200e+003;1.849574e-001
1.157129e+003;1.852801e-001
1.159057e+003;1.854957e-001
1.160986e+003;1.866468e-001
1.162914e+003;1.880905e-001
1.164843e+003;1.893424e-001
1.166771e+003;1.909207e-001
1.168700e+003;1.929583e-001
1.170629e+003;1.949375e-001
1.172557e+003;1.962463e-001
1.174486e+003;1.971528e-001
1.176414e+003;1.979509e-001
1.178343e+003;1.991090e-001
1.180271e+003;2.001555e-001
1.182200e+003;2.011029e-001
1.184128e+003;2.023863e-001
1.186057e+003;2.039797e-001
1.187986e+003;2.056690e-001
1.189914e+003;2.071308e-001
1.191843e+003;2.085718e-001
1.193771e+003;2.100290e-001
1.195700e+003;2.112846e-001
1.197628e+003;2.123423e-001
1.199557e+003;2.133508e-001
1.201485e+003;2.146331e-001
1.203414e+003;2.156964e-001
1.205343e+003;2.164145e-001
1.207271e+003;2.175630e-001
1.209200e+003;2.188171e-001
1.211128e+003;2.197112e-001
1.213057e+003;2.205667e-001
1.214985e+003;2.218206e-001
1.216914e+003;2.229622e-001
1.218842e+003;2.234557e-001
1.220771e+003;2.238665e-001
1.222699e+003;2.241333e-001
1.224628e+003;2.239860e-001
1.226557e+003;2.237239e-001
1.228485e+003;2.236025e-001
1.230414e+003;2.234217e-001
1.232342e+003;2.227304e-001
1.234271e+003;2.219996e-001
1.236199e+003;2.210019e-001
1.238128e+003;2.199426e-001
1.240056e+003;2.186091e-001
1.241985e+003;2.173021e-001
1.243913e+003;2.161908e-001
1.245842e+003;2.150559e-001
1.247771e+003;2.138930e-001
1.249699e+003;2.124558e-001
1.251628e+003;2.110869e-001
1.253556e+003;2.098563e-001
1.255485e+003;2.086707e-001
1.257413e+003;2.073282e-001
1.259342e+003;2.057039e-001
1.261270e+003;2.036725e-001
1.263199e+003;2.014502e-001
1.265127e+003;1.991108e-001
1.267056e+003;1.973794e-001
1.268985e+003;1.959611e-001
1.270913e+003;1.945317e-001
1.272842e+003;1.934413e-001
1.274770e+003;1.927118e-001
1.276699e+003;1.919619e-001
1.278627e+003;1.912426e-001
1.280556e+003;1.903220e-001
1.282484e+003;1.891759e-001
1.284413e+003;1.880190e-001
1.286342e+003;1.865475e-001
1.288270e+003;1.850447e-001
1.290199e+003;1.836193e-001
1.292127e+003;1.824932e-001
1.294056e+003;1.816104e-001
1.295984e+003;1.805352e-001
1.297913e+003;1.789835e-001
1.299841e+003;1.773337e-001
1.301770e+003;1.759137e-001
1.303698e+003;1.749037e-001
1.305627e+003;1.742101e-001
1.307556e+003;1.736268e-001
1.309484e+003;1.733429e-001
1.311413e+003;1.734859e-001
1.313341e+003;1.738883e-001
1.315270e+003;1.747452e-001
1.317198e+003;1.755161e-001
1.319127e+003;1.760749e-001
1.321055e+003;1.766674e-001
1.322984e+003;1.770374e-001
1.324912e+003;1.772159e-001
1.326841e+003;1.772494e-001
1.328770e+003;1.766189e-001
1.330698e+003;1.753597e-001
1.332627e+003;1.740738e-001
1.334555e+003;1.726834e-001
1.336484e+003;1.709101e-001
1.338412e+003;1.690777e-001
1.340341e+003;1.673990e-001
1.342269e+003;1.660790e-001
1.344198e+003;1.647409e-001
1.346126e+003;1.634982e-001
1.348055e+003;1.624944e-001
1.349984e+003;1.613054e-001
1.351912e+003;1.600926e-001
1.353841e+003;1.592832e-001
1.355769e+003;1.587123e-001
1.357698e+003;1.585574e-001
1.359626e+003;1.587366e-001
1.361555e+003;1.592718e-001
1.363483e+003;1.604859e-001
1.365412e+003;1.619098e-001
1.367341e+003;1.631599e-001
1.369269e+003;1.640264e-001
1.371198e+003;1.642833e-001
1.373126e+003;1.642732e-001
1.375055e+003;1.644914e-001
1.376983e+003;1.652187e-001
1.378912e+003;1.660691e-001
1.380840e+003;1.669452e-001
1.382769e+003;1.681073e-001
1.384698e+003;1.691498e-001
1.386626e+003;1.698498e-001
1.388555e+003;1.700943e-001
1.390483e+003;1.697060e-001
1.392412e+003;1.688942e-001
1.394340e+003;1.683573e-001
1.396269e+003;1.683152e-001
1.398197e+003;1.683457e-001
1.400126e+003;1.687680e-001
1.402054e+003;1.694098e-001
1.403983e+003;1.699006e-001
1.405911e+003;1.702516e-001
1.407840e+003;1.706596e-001
1.409769e+003;1.712206e-001
1.411697e+003;1.716066e-001
1.413626e+003;1.720321e-001
1.415554e+003;1.725235e-001
1.417483e+003;1.726192e-001
1.419411e+003;1.727962e-001
1.421340e+003;1.738193e-001
1.423268e+003;1.749164e-001
1.425197e+003;1.759774e-001
1.427125e+003;1.775150e-001
1.429054e+003;1.793268e-001
1.430983e+003;1.815114e-001
1.432911e+003;1.841706e-001
1.434840e+003;1.867711e-001
1.436768e+003;1.889283e-001
1.438697e+003;1.913251e-001
1.440625e+003;1.930358e-001
1.442554e+003;1.938637e-001
1.444482e+003;1.944201e-001
1.446411e+003;1.949140e-001
1.448340e+003;1.953776e-001
1.450268e+003;1.959863e-001
1.452197e+003;1.965931e-001
1.454125e+003;1.969587e-001
1.456054e+003;1.962435e-001
1.457982e+003;1.956010e-001
1.459911e+003;1.951966e-001
1.461839e+003;1.939962e-001
1.463768e+003;1.921828e-001
1.465697e+003;1.905425e-001
1.467625e+003;1.893659e-001
1.469554e+003;1.881806e-001
1.471482e+003;1.869668e-001
1.473411e+003;1.864204e-001
1.475339e+003;1.869863e-001
1.477268e+003;1.883624e-001
1.479196e+003;1.906458e-001
1.481125e+003;1.938189e-001
1.483053e+003;1.980474e-001
1.484982e+003;2.030343e-001
1.486911e+003;2.090408e-001
1.488839e+003;2.158286e-001
1.490768e+003;2.232003e-001
1.492696e+003;2.306623e-001
1.494625e+003;2.378019e-001
1.496553e+003;2.447750e-001
1.498482e+003;2.511654e-001
1.500410e+003;2.564046e-001
1.502339e+003;2.605612e-001
1.504267e+003;2.637231e-001
1.506196e+003;2.663331e-001
1.508125e+003;2.694627e-001
1.510053e+003;2.724340e-001
1.511982e+003;2.744699e-001
1.513910e+003;2.755703e-001
1.515839e+003;2.746068e-001
1.517767e+003;2.716618e-001
1.519696e+003;2.673311e-001
1.521624e+003;2.631770e-001
1.523553e+003;2.602631e-001
1.525481e+003;2.572522e-001
1.527410e+003;2.542289e-001
1.529339e+003;2.510287e-001
1.531267e+003;2.475888e-001
1.533196e+003;2.441685e-001
1.535124e+003;2.409278e-001
1.537053e+003;2.364836e-001
1.538981e+003;2.308662e-001
1.540910e+003;2.262097e-001
1.542838e+003;2.227226e-001
1.544767e+003;2.189114e-001
1.546695e+003;2.143432e-001
1.548624e+003;2.093049e-001
1.550553e+003;2.037115e-001
1.552481e+003;1.981019e-001
1.554410e+003;1.927725e-001
1.556338e+003;1.874510e-001
1.558267e+003;1.815265e-001
1.560195e+003;1.767818e-001
1.562124e+003;1.734023e-001
1.564052e+003;1.700494e-001
1.565981e+003;1.668257e-001
1.567910e+003;1.637616e-001
1.569838e+003;1.611627e-001
1.571767e+003;1.596101e-001
1.573695e+003;1.582952e-001
1.575624e+003;1.574075e-001
1.577552e+003;1.580924e-001
1.579481e+003;1.593408e-001
1.581409e+003;1.605923e-001
1.583338e+003;1.623760e-001
1.585266e+003;1.648127e-001
1.587195e+003;1.676450e-001
1.589124e+003;1.709122e-001
1.591052e+003;1.745660e-001
1.592981e+003;1.782889e-001
1.594909e+003;1.822601e-001
1.596838e+003;1.866614e-001
1.598766e+003;1.916245e-001
1.600695e+003;1.973429e-001
1.602623e+003;2.038465e-001
1.604552e+003;2.110185e-001
1.606480e+003;2.186260e-001
1.608409e+003;2.266770e-001
1.610338e+003;2.348618e-001
1.612266e+003;2.429118e-001
1.614195e+003;2.503409e-001
1.616123e+003;2.569507e-001
1.618052e+003;2.640569e-001
1.619980e+003;2.711565e-001
1.621909e+003;2.776621e-001
1.623837e+003;2.842195e-001
1.625766e+003;2.901318e-001
1.627694e+003;2.952413e-001
1.629623e+003;2.999261e-001
1.631552e+003;3.037167e-001
1.633480e+003;3.061382e-001
1.635409e+003;3.071353e-001
1.637337e+003;3.082954e-001
1.639266e+003;3.091694e-001
1.641194e+003;3.087971e-001
1.643123e+003;3.072445e-001
1.645051e+003;3.045861e-001
1.646980e+003;3.012663e-001
1.648909e+003;2.975482e-001
1.650837e+003;2.922574e-001
1.652766e+003;2.856696e-001
1.654694e+003;2.804095e-001
1.656623e+003;2.751824e-001
1.658551e+003;2.686638e-001
1.660480e+003;2.615366e-001
1.662408e+003;2.542281e-001
1.664337e+003;2.474137e-001
1.666266e+003;2.403683e-001
1.668194e+003;2.326196e-001
1.670123e+003;2.249137e-001
1.672051e+003;2.176246e-001
1.673980e+003;2.103494e-001
1.675908e+003;2.034278e-001
1.677837e+003;1.967302e-001
1.679765e+003;1.898402e-001
1.681694e+003;1.827183e-001
1.683622e+003;1.749696e-001
1.685551e+003;1.680659e-001
1.687479e+003;1.622259e-001
1.689408e+003;1.559647e-001
1.691337e+003;1.493969e-001
1.693265e+003;1.424238e-001
1.695194e+003;1.347800e-001
1.697122e+003;1.280720e-001
1.699051e+003;1.213792e-001
1.700979e+003;1.146786e-001
1.702908e+003;1.092832e-001
1.704836e+003;1.036902e-001
1.706765e+003;9.848919e-002
1.708693e+003;9.384412e-002
1.710622e+003;8.960339e-002
1.712551e+003;8.576656e-002
1.714479e+003;8.233363e-002
1.716408e+003;7.908458e-002
1.718336e+003;7.690074e-002
1.720265e+003;7.548419e-002
1.722193e+003;7.365488e-002
1.724122e+003;7.184978e-002
1.726050e+003;7.055204e-002
1.727979e+003;6.915005e-002
1.729908e+003;6.749628e-002
1.731836e+003;6.525092e-002
1.733765e+003;6.312802e-002
1.735693e+003;6.221475e-002
1.737622e+003;6.102159e-002
1.739550e+003;5.939428e-002
1.741479e+003;5.799127e-002
1.743407e+003;5.635896e-002
1.745336e+003;5.494238e-002
1.747265e+003;5.352404e-002
1.749193e+003;5.185553e-002
1.751122e+003;5.046393e-002
1.753050e+003;4.963133e-002
1.754979e+003;4.867333e-002
1.756907e+003;4.760507e-002
1.758836e+003;4.668587e-002
1.760764e+003;4.567875e-002
1.762693e+003;4.482448e-002
1.764621e+003;4.428200e-002
1.766550e+003;4.339064e-002
1.768479e+003;4.267894e-002
1.770407e+003;4.191297e-002
1.772336e+003;4.121454e-002
1.774264e+003;4.117232e-002
1.776193e+003;4.118223e-002
1.778121e+003;4.094823e-002
1.780050e+003;4.052608e-002
1.781978e+003;4.026698e-002
1.783907e+003;4.019912e-002
1.785835e+003;4.001437e-002
1.787764e+003;3.979091e-002
1.789693e+003;3.961410e-002
1.791621e+003;3.933799e-002
1.793550e+003;3.910745e-002
1.795478e+003;3.904194e-002
1.797407e+003;3.866133e-002
1.799335e+003;3.820163e-002
1.801264e+003;3.802171e-002
1.803192e+003;3.808399e-002
1.805121e+003;3.802981e-002
1.807049e+003;3.776389e-002
1.808978e+003;3.765782e-002
1.810907e+003;3.773598e-002
1.812835e+003;3.764528e-002
1.814764e+003;3.754798e-002
1.816692e+003;3.735218e-002
1.818621e+003;3.709494e-002
1.820549e+003;3.694354e-002
1.822478e+003;3.690025e-002
1.824406e+003;3.675007e-002
1.826335e+003;3.665164e-002
1.828264e+003;3.638677e-002
1.830192e+003;3.625529e-002
1.832121e+003;3.621606e-002
1.834049e+003;3.595053e-002
1.835978e+003;3.585372e-002
1.837906e+003;3.592134e-002
1.839835e+003;3.579733e-002
1.841763e+003;3.558563e-002
1.843692e+003;3.537232e-002
1.845620e+003;3.546129e-002
1.847549e+003;3.547999e-002
1.849478e+003;3.530033e-002
1.851406e+003;3.526489e-002
1.853335e+003;3.527603e-002
1.855263e+003;3.520074e-002
1.857192e+003;3.505392e-002
1.859120e+003;3.497810e-002
1.861049e+003;3.499631e-002
1.862977e+003;3.503520e-002
1.864906e+003;3.510421e-002
1.866834e+003;3.496047e-002
1.868763e+003;3.485192e-002
1.870692e+003;3.506868e-002
1.872620e+003;3.521070e-002
1.874549e+003;3.503646e-002
1.876477e+003;3.505830e-002
1.878406e+003;3.516273e-002
1.880334e+003;3.511344e-002
1.882263e+003;3.502123e-002
1.884191e+003;3.483425e-002
1.886120e+003;3.504224e-002
1.888048e+003;3.521832e-002
1.889977e+003;3.508779e-002
1.891906e+003;3.509526e-002
1.893834e+003;3.517265e-002
1.895763e+003;3.527251e-002
1.897691e+003;3.540406e-002
1.899620e+003;3.555845e-002
1.901548e+003;3.538670e-002
1.903477e+003;3.513758e-002
1.905405e+003;3.518515e-002
1.907334e+003;3.525069e-002
1.909262e+003;3.513090e-002
1.911191e+003;3.517675e-002
1.913120e+003;3.538803e-002
1.915048e+003;3.538742e-002
1.916977e+003;3.522015e-002
1.918905e+003;3.510665e-002
1.920834e+003;3.523564e-002
1.922762e+003;3.537577e-002
1.924691e+003;3.542491e-002
1.926619e+003;3.548124e-002
1.928548e+003;3.549649e-002
1.930477e+003;3.550642e-002
1.932405e+003;3.542013e-002
1.934334e+003;3.538310e-002
1.936262e+003;3.559290e-002
1.938191e+003;3.540007e-002
1.940119e+003;3.516327e-002
1.942048e+003;3.523725e-002
1.943976e+003;3.528764e-002
1.945905e+003;3.536401e-002
1.947833e+003;3.559215e-002
1.949762e+003;3.578474e-002
1.951691e+003;3.579755e-002
1.953619e+003;3.580107e-002
1.955548e+003;3.600978e-002
1.957476e+003;3.593728e-002
1.959405e+003;3.572527e-002
1.961333e+003;3.574390e-002
1.963262e+003;3.574581e-002
1.965190e+003;3.576056e-002
1.967119e+003;3.579528e-002
1.969047e+003;3.578474e-002
1.970976e+003;3.593804e-002
1.972905e+003;3.604052e-002
1.974833e+003;3.580644e-002
1.976762e+003;3.584789e-002
1.978690e+003;3.598530e-002
1.980619e+003;3.598649e-002
1.982547e+003;3.580924e-002
1.984476e+003;3.574347e-002
1.986404e+003;3.594859e-002
1.988333e+003;3.596291e-002
1.990261e+003;3.592163e-002
1.992190e+003;3.594603e-002
1.994119e+003;3.602583e-002
1.996047e+003;3.609503e-002
1.997976e+003;3.607105e-002
1.999904e+003;3.602162e-002
2.001833e+003;3.617576e-002
2.003761e+003;3.625438e-002
2.005690e+003;3.622914e-002
2.007618e+003;3.632520e-002
2.009547e+003;3.639949e-002
2.011476e+003;3.638061e-002
2.013404e+003;3.616237e-002
2.015333e+003;3.604567e-002
2.017261e+003;3.608333e-002
2.019190e+003;3.621923e-002
2.021118e+003;3.631555e-002
2.023047e+003;3.629167e-002
2.024975e+003;3.625626e-002
2.026904e+003;3.645401e-002
2.028833e+003;3.661112e-002
2.030761e+003;3.649430e-002
2.032690e+003;3.639827e-002
2.034618e+003;3.639737e-002
2.036547e+003;3.622391e-002
2.038475e+003;3.615326e-002
2.040404e+003;3.637795e-002
2.042332e+003;3.665056e-002
2.044261e+003;3.657312e-002
2.046189e+003;3.638227e-002
2.048118e+003;3.642486e-002
2.050047e+003;3.639661e-002
2.051975e+003;3.626094e-002
2.053904e+003;3.633140e-002
2.055832e+003;3.645397e-002
2.057761e+003;3.660045e-002
2.059689e+003;3.666977e-002
2.061618e+003;3.653600e-002
2.063546e+003;3.635355e-002
2.065475e+003;3.619100e-002
2.067404e+003;3.630932e-002
2.069332e+003;3.657474e-002
2.071260e+003;3.649131e-002
2.073189e+003;3.639128e-002
2.075118e+003;3.639964e-002
2.077046e+003;3.644208e-002
2.078975e+003;3.641495e-002
2.080903e+003;3.648187e-002
2.082832e+003;3.649217e-002
2.084760e+003;3.642666e-002
2.086689e+003;3.662849e-002
2.088617e+003;3.673204e-002
2.090546e+003;3.661004e-002
2.092475e+003;3.662748e-002
2.094403e+003;3.650453e-002
2.096332e+003;3.650190e-002
2.098260e+003;3.655669e-002
2.100189e+003;3.649866e-002
2.102117e+003;3.630125e-002
2.104046e+003;3.623713e-002
2.105974e+003;3.637351e-002
2.107903e+003;3.638389e-002
2.109832e+003;3.627517e-002
2.111760e+003;3.616071e-002
2.113688e+003;3.618224e-002
2.115617e+003;3.624520e-002
2.117546e+003;3.618286e-002
2.119474e+003;3.614443e-002
2.121403e+003;3.620194e-002
2.123331e+003;3.619795e-002
2.125260e+003;3.617692e-002
2.127188e+003;3.624653e-002
2.129117e+003;3.635024e-002
2.131045e+003;3.636426e-002
2.132974e+003;3.621894e-002
2.134903e+003;3.620785e-002
2.136831e+003;3.619932e-002
2.138760e+003;3.623375e-002
2.140688e+003;3.637964e-002
2.142617e+003;3.618851e-002
2.144545e+003;3.600755e-002
2.146474e+003;3.612949e-002
2.148402e+003;3.594128e-002
2.150331e+003;3.580877e-002
2.152260e+003;3.614551e-002
2.154188e+003;3.626195e-002
2.156117e+003;3.606713e-002
2.158045e+003;3.598523e-002
2.159974e+003;3.602735e-002
2.161902e+003;3.607109e-002
2.163831e+003;3.608898e-002
2.165759e+003;3.613367e-002
2.167688e+003;3.613338e-002
2.169616e+003;3.608045e-002
2.171545e+003;3.599023e-002
2.173474e+003;3.590360e-002
2.175402e+003;3.597227e-002
2.177331e+003;3.611905e-002
2.179259e+003;3.603213e-002
2.181188e+003;3.596766e-002
2.183116e+003;3.619669e-002
2.185045e+003;3.623573e-002
2.186973e+003;3.618351e-002
2.188902e+003;3.625867e-002
2.190831e+003;3.630420e-002
2.192759e+003;3.617648e-002
2.194688e+003;3.615931e-002
2.196616e+003;3.624509e-002
2.198545e+003;3.628371e-002
2.200473e+003;3.637809e-002
2.202402e+003;3.621783e-002
2.204330e+003;3.594016e-002
2.206259e+003;3.600528e-002
2.208188e+003;3.613338e-002
2.210116e+003;3.601791e-002
2.212044e+003;3.600474e-002
2.213973e+003;3.623875e-002
2.215902e+003;3.627506e-002
2.217830e+003;3.612934e-002
2.219759e+003;3.627167e-002
2.221687e+003;3.644940e-002
2.223616e+003;3.632837e-002
2.225544e+003;3.626959e-002
2.227473e+003;3.639056e-002
2.229401e+003;3.641960e-002
2.231330e+003;3.627337e-002
2.233259e+003;3.613799e-002
2.235187e+003;3.615887e-002
2.237116e+003;3.622939e-002
2.239044e+003;3.622575e-002
2.240973e+003;3.616615e-002
2.242901e+003;3.616550e-002
2.244830e+003;3.624110e-002
2.246758e+003;3.618714e-002
2.248687e+003;3.616705e-002
2.250615e+003;3.623263e-002
2.252544e+003;3.617072e-002
2.254473e+003;3.614245e-002
2.256401e+003;3.622532e-002
2.258330e+003;3.618379e-002
2.260258e+003;3.613392e-002
2.262187e+003;3.645307e-002
2.264115e+003;3.669692e-002
2.266044e+003;3.658945e-002
2.267972e+003;3.632412e-002
2.269901e+003;3.622636e-002
2.271830e+003;3.627643e-002
2.273758e+003;3.644072e-002
2.275687e+003;3.666700e-002
2.277615e+003;3.674679e-002
2.279544e+003;3.667392e-002
2.281472e+003;3.658624e-002
2.283401e+003;3.644839e-002
2.285329e+003;3.629152e-002
2.287258e+003;3.654263e-002
2.289187e+003;3.673788e-002
2.291115e+003;3.664922e-002
2.293043e+003;3.665131e-002
2.294972e+003;3.669624e-002
2.296901e+003;3.665661e-002
2.298829e+003;3.648651e-002
2.300758e+003;3.665254e-002
2.302686e+003;3.686317e-002
2.304615e+003;3.674275e-002
2.306543e+003;3.663599e-002
2.308472e+003;3.673514e-002
2.310400e+003;3.682508e-002
2.312329e+003;3.659536e-002
2.314258e+003;3.659656e-002
2.316186e+003;3.663765e-002
2.318115e+003;3.650039e-002
2.320043e+003;3.644482e-002
2.321972e+003;3.653957e-002
2.323900e+003;3.658278e-002
2.325829e+003;3.658242e-002
2.327757e+003;3.659363e-002
2.329686e+003;3.636116e-002
2.331615e+003;3.649567e-002
2.333543e+003;3.678985e-002
2.335472e+003;3.680322e-002
2.337400e+003;3.664277e-002
2.339329e+003;3.634794e-002
2.341257e+003;3.627236e-002
2.343186e+003;3.651149e-002
2.345114e+003;3.688474e-002
2.347043e+003;3.719138e-002
2.348971e+003;3.736713e-002
2.350900e+003;3.722112e-002
2.352829e+003;3.687583e-002
2.354757e+003;3.675378e-002
2.356686e+003;3.679944e-002
2.358614e+003;3.709970e-002
2.360543e+003;3.712071e-002
2.362471e+003;3.698138e-002
2.364400e+003;3.700216e-002
2.366328e+003;3.715193e-002
2.368257e+003;3.725751e-002
2.370186e+003;3.764831e-002
2.372114e+003;3.779891e-002
2.374042e+003;3.785176e-002
2.375971e+003;3.805400e-002
2.377900e+003;3.830946e-002
2.379828e+003;3.859687e-002
2.381757e+003;3.866825e-002
2.383685e+003;3.861758e-002
2.385614e+003;3.872588e-002
2.387542e+003;3.896365e-002
2.389471e+003;3.933941e-002
2.391399e+003;3.978002e-002
2.393328e+003;3.964031e-002
2.395257e+003;3.934137e-002
2.397185e+003;3.938048e-002
2.399114e+003;3.949542e-002
2.401042e+003;3.973797e-002
2.402971e+003;3.995017e-002
2.404899e+003;3.987030e-002
2.406828e+003;4.003442e-002
2.408756e+003;4.053302e-002
2.410685e+003;4.054583e-002
2.412614e+003;4.047359e-002
2.414542e+003;4.054205e-002
2.416471e+003;4.068576e-002
2.418399e+003;4.095846e-002
2.420328e+003;4.112409e-002
2.422256e+003;4.098322e-002
2.424185e+003;4.086701e-002
2.426113e+003;4.115891e-002
2.428042e+003;4.161490e-002
2.429970e+003;4.174620e-002
2.431899e+003;4.162464e-002
2.433828e+003;4.167186e-002
2.435756e+003;4.196096e-002
2.437685e+003;4.226387e-002
2.439613e+003;4.238940e-002
2.441542e+003;4.238097e-002
2.443470e+003;4.231419e-002
2.445399e+003;4.244987e-002
2.447327e+003;4.268153e-002
2.449256e+003;4.275136e-002
2.451185e+003;4.301937e-002
2.453113e+003;4.331521e-002
2.455042e+003;4.326784e-002
2.456970e+003;4.327271e-002
2.458899e+003;4.330866e-002
2.460827e+003;4.337888e-002
2.462756e+003;4.352342e-002
2.464684e+003;4.379271e-002
2.466613e+003;4.402297e-002
2.468542e+003;4.415441e-002
2.470470e+003;4.413754e-002
2.472398e+003;4.417334e-002
2.474327e+003;4.420264e-002
2.476256e+003;4.433521e-002
2.478184e+003;4.461671e-002
2.480113e+003;4.483212e-002
2.482041e+003;4.494812e-002
2.483970e+003;4.502055e-002
2.485898e+003;4.518197e-002
2.487827e+003;4.533649e-002
2.489755e+003;4.531302e-002
2.491684e+003;4.530184e-002
2.493613e+003;4.544839e-002
2.495541e+003;4.562391e-002
2.497470e+003;4.575510e-002
2.499398e+003;4.601211e-002
2.501327e+003;4.619840e-002
2.503255e+003;4.608192e-002
2.505184e+003;4.608384e-002
2.507112e+003;4.619641e-002
2.509041e+003;4.636405e-002
2.510969e+003;4.649273e-002
2.512898e+003;4.663588e-002
2.514827e+003;4.674645e-002
2.516755e+003;4.683657e-002
2.518684e+003;4.690308e-002
2.520612e+003;4.689540e-002
2.522541e+003;4.696765e-002
2.524469e+003;4.723140e-002
2.526398e+003;4.753852e-002
2.528326e+003;4.763365e-002
2.530255e+003;4.760041e-002
2.532184e+003;4.762622e-002
2.534112e+003;4.745805e-002
2.536041e+003;4.733285e-002
2.537969e+003;4.766674e-002
2.539898e+003;4.800437e-002
2.541826e+003;4.814013e-002
2.543755e+003;4.788456e-002
2.545683e+003;4.780351e-002
2.547612e+003;4.781653e-002
2.549541e+003;4.765979e-002
2.551469e+003;4.780776e-002
2.553397e+003;4.812347e-002
2.555326e+003;4.838130e-002
2.557255e+003;4.855730e-002
2.559183e+003;4.860673e-002
2.561112e+003;4.848028e-002
2.563040e+003;4.834133e-002
2.564969e+003;4.863108e-002
2.566897e+003;4.897766e-002
2.568826e+003;4.919621e-002
2.570754e+003;4.919754e-002
2.572683e+003;4.905500e-002
2.574612e+003;4.914307e-002
2.576540e+003;4.946425e-002
2.578469e+003;4.968936e-002
2.580397e+003;4.986538e-002
2.582326e+003;5.003563e-002
2.584254e+003;5.016916e-002
2.586183e+003;5.032487e-002
2.588111e+003;5.043003e-002
2.590040e+003;5.036703e-002
2.591969e+003;5.028354e-002
2.593897e+003;5.043472e-002
2.595826e+003;5.046642e-002
2.597754e+003;5.070624e-002
2.599683e+003;5.102191e-002
2.601611e+003;5.116558e-002
2.603540e+003;5.113159e-002
2.605468e+003;5.106055e-002
2.607397e+003;5.101646e-002
2.609325e+003;5.102869e-002
2.611254e+003;5.118713e-002
2.613183e+003;5.115895e-002
2.615111e+003;5.122303e-002
2.617040e+003;5.140594e-002
2.618968e+003;5.158280e-002
2.620897e+003;5.184840e-002
2.622825e+003;5.198951e-002
2.624754e+003;5.201282e-002
2.626682e+003;5.182988e-002
2.628611e+003;5.170371e-002
2.630540e+003;5.194097e-002
2.632468e+003;5.203927e-002
2.634396e+003;5.217491e-002
2.636325e+003;5.269114e-002
2.638254e+003;5.295026e-002
2.640182e+003;5.277520e-002
2.642111e+003;5.256348e-002
2.644039e+003;5.267572e-002
2.645968e+003;5.290748e-002
2.647896e+003;5.301873e-002
2.649825e+003;5.284053e-002
2.651753e+003;5.283971e-002
2.653682e+003;5.303599e-002
2.655611e+003;5.295079e-002
2.657539e+003;5.286912e-002
2.659468e+003;5.293690e-002
2.661396e+003;5.335845e-002
2.663325e+003;5.370893e-002
2.665253e+003;5.369993e-002
2.667182e+003;5.360276e-002
2.669110e+003;5.379120e-002
2.671039e+003;5.391922e-002
2.672968e+003;5.384142e-002
2.674896e+003;5.387792e-002
2.676825e+003;5.406596e-002
2.678753e+003;5.415138e-002
2.680682e+003;5.397065e-002
2.682610e+003;5.377373e-002
2.684539e+003;5.401107e-002
2.686467e+003;5.434424e-002
2.688396e+003;5.449537e-002
2.690324e+003;5.457835e-002
2.692253e+003;5.477117e-002
2.694182e+003;5.478688e-002
2.696110e+003;5.488433e-002
2.698039e+003;5.505964e-002
2.699967e+003;5.495626e-002
2.701896e+003;5.506250e-002
2.703824e+003;5.544587e-002
2.705753e+003;5.566992e-002
2.707681e+003;5.569331e-002
2.709610e+003;5.576583e-002
2.711539e+003;5.589492e-002
2.713467e+003;5.596336e-002
2.715396e+003;5.616460e-002
2.717324e+003;5.657072e-002
2.719253e+003;5.672248e-002
2.721181e+003;5.669617e-002
2.723110e+003;5.684619e-002
2.725038e+003;5.716163e-002
2.726967e+003;5.752597e-002
2.728896e+003;5.775258e-002
2.730824e+003;5.781525e-002
2.732752e+003;5.787173e-002
2.734681e+003;5.800588e-002
2.736610e+003;5.807068e-002
2.738538e+003;5.815966e-002
2.740467e+003;5.834581e-002
2.742395e+003;5.856754e-002
2.744324e+003;5.881805e-002
2.746252e+003;5.874017e-002
2.748181e+003;5.878861e-002
2.750109e+003;5.923536e-002
2.752038e+003;5.958526e-002
2.753967e+003;5.987512e-002
2.755895e+003;6.012145e-002
2.757824e+003;6.020571e-002
2.759752e+003;6.010391e-002
2.761681e+003;5.999475e-002
2.763609e+003;6.016571e-002
2.765538e+003;6.056081e-002
2.767466e+003;6.091536e-002
2.769395e+003;6.091193e-002
2.771323e+003;6.081557e-002
2.773252e+003;6.077974e-002
2.775181e+003;6.107883e-002
2.777109e+003;6.146778e-002
2.779038e+003;6.181604e-002
2.780966e+003;6.202346e-002
2.782895e+003;6.202770e-002
2.784823e+003;6.210212e-002
2.786752e+003;6.228837e-002
2.788680e+003;6.246356e-002
2.790609e+003;6.243177e-002
2.792538e+003;6.265777e-002
2.794466e+003;6.304262e-002
2.796395e+003;6.338038e-002
2.798323e+003;6.358493e-002
2.800252e+003;6.372987e-002
2.802180e+003;6.387218e-002
2.804109e+003;6.427854e-002
2.806037e+003;6.489504e-002
2.807966e+003;6.511910e-002
2.809895e+003;6.526967e-002
2.811823e+003;6.546533e-002
2.813751e+003;6.549808e-002
2.815680e+003;6.555194e-002
2.817609e+003;6.584366e-002
2.819537e+003;6.607098e-002
2.821466e+003;6.624423e-002
2.823394e+003;6.646026e-002
2.825323e+003;6.690145e-002
2.827251e+003;6.720760e-002
2.829180e+003;6.750991e-002
2.831108e+003;6.811822e-002
2.833037e+003;6.884893e-002
2.834966e+003;6.921234e-002
2.836894e+003;6.958788e-002
2.838823e+003;7.022684e-002
2.840751e+003;7.096306e-002
2.842680e+003;7.147978e-002
2.844608e+003;7.208938e-002
2.846537e+003;7.296178e-002
2.848465e+003;7.344301e-002
2.850394e+003;7.366261e-002
2.852323e+003;7.441774e-002
2.854251e+003;7.525291e-002
2.856180e+003;7.577176e-002
2.858108e+003;7.656116e-002
2.860037e+003;7.719286e-002
2.861965e+003;7.766831e-002
2.863894e+003;7.860552e-002
2.865822e+003;7.970998e-002
2.867751e+003;8.079765e-002
2.869679e+003;8.162744e-002
2.871608e+003;8.199286e-002
2.873536e+003;8.227044e-002
2.875465e+003;8.262269e-002
2.877394e+003;8.260707e-002
2.879322e+003;8.267396e-002
2.881251e+003;8.254832e-002
2.883179e+003;8.212386e-002
2.885108e+003;8.199850e-002
2.887036e+003;8.196484e-002
2.888965e+003;8.200970e-002
2.890893e+003;8.206882e-002
2.892822e+003;8.231281e-002
2.894750e+003;8.248726e-002
2.896679e+003;8.255569e-002
2.898608e+003;8.293292e-002
2.900536e+003;8.326657e-002
2.902465e+003;8.343992e-002
2.904393e+003;8.392917e-002
2.906322e+003;8.483944e-002
2.908250e+003;8.562481e-002
2.910179e+003;8.628763e-002
2.912107e+003;8.691453e-002
2.914036e+003;8.745116e-002
2.915965e+003;8.860194e-002
2.917893e+003;8.989151e-002
2.919822e+003;9.045741e-002
2.921750e+003;9.092522e-002
2.923679e+003;9.148512e-002
2.925607e+003;9.188829e-002
2.927536e+003;9.266777e-002
2.929464e+003;9.355669e-002
2.931393e+003;9.381500e-002
2.933322e+003;9.373769e-002
2.935250e+003;9.369519e-002
2.937178e+003;9.379172e-002
2.939107e+003;9.366875e-002
2.941036e+003;9.337044e-002
2.942964e+003;9.323476e-002
2.944893e+003;9.306748e-002
2.946821e+003;9.289284e-002
2.948750e+003;9.276503e-002
2.950678e+003;9.273025e-002
2.952607e+003;9.274521e-002
2.954535e+003;9.259600e-002
2.956464e+003;9.274521e-002
2.958393e+003;9.295530e-002
2.960321e+003;9.264739e-002
2.962250e+003;9.232056e-002
2.964178e+003;9.196760e-002
2.966107e+003;9.163657e-002
2.968035e+003;9.103501e-002
2.969964e+003;9.046599e-002
2.971892e+003;8.995619e-002
2.973821e+003;8.960921e-002
2.975750e+003;8.885272e-002
2.977678e+003;8.763640e-002
2.979607e+003;8.660250e-002
2.981535e+003;8.576252e-002
2.983464e+003;8.455913e-002
2.985392e+003;8.356019e-002
2.987321e+003;8.284963e-002
2.989249e+003;8.252135e-002
2.991178e+003;8.211938e-002
2.993106e+003;8.127519e-002
2.995035e+003;8.054462e-002
2.996964e+003;7.995930e-002
2.998892e+003;7.960656e-002
3.000821e+003;7.965010e-002
3.002749e+003;7.973143e-002
3.004678e+003;7.943068e-002
3.006606e+003;7.906574e-002
3.008535e+003;7.915336e-002
3.010463e+003;7.917408e-002
3.012392e+003;7.916879e-002
3.014321e+003;7.922358e-002
3.016249e+003;7.914083e-002
3.018177e+003;7.961050e-002
3.020106e+003;8.025890e-002
3.022035e+003;8.061686e-002
3.023963e+003;8.099701e-002
3.025892e+003;8.120028e-002
3.027820e+003;8.122937e-002
3.029749e+003;8.128406e-002
3.031677e+003;8.163048e-002
3.033606e+003;8.193844e-002
3.035534e+003;8.208527e-002
3.037463e+003;8.231793e-002
3.039392e+003;8.273517e-002
3.041320e+003;8.310300e-002
3.043249e+003;8.328251e-002
3.045177e+003;8.358075e-002
3.047106e+003;8.383492e-002
3.049034e+003;8.402461e-002
3.050963e+003;8.429243e-002
3.052891e+003;8.471547e-002
3.054820e+003;8.478913e-002
3.056749e+003;8.486067e-002
3.058677e+003;8.506435e-002
3.060606e+003;8.519931e-002
3.062534e+003;8.529846e-002
3.064463e+003;8.524568e-002
3.066391e+003;8.511143e-002
3.068320e+003;8.507519e-002
3.070248e+003;8.494604e-002
3.072177e+003;8.503933e-002
3.074105e+003;8.489902e-002
3.076034e+003;8.455180e-002
3.077963e+003;8.442030e-002
3.079891e+003;8.462688e-002
3.081820e+003;8.476657e-002
3.083748e+003;8.447801e-002
3.085677e+003;8.406317e-002
3.087605e+003;8.357943e-002
3.089534e+003;8.347212e-002
3.091462e+003;8.348159e-002
3.093391e+003;8.334544e-002
3.095320e+003;8.294103e-002
3.097248e+003;8.264814e-002
3.099177e+003;8.272314e-002
3.101105e+003;8.262882e-002
3.103034e+003;8.259068e-002
3.104962e+003;8.257946e-002
3.106891e+003;8.244575e-002
3.108819e+003;8.252720e-002
3.110748e+003;8.275184e-002
3.112677e+003;8.297507e-002
3.114605e+003;8.322194e-002
3.116533e+003;8.331486e-002
3.118462e+003;8.293445e-002
3.120391e+003;8.293027e-002
3.122319e+003;8.328853e-002
3.124248e+003;8.352822e-002
3.126176e+003;8.343703e-002
3.128105e+003;8.371717e-002
3.130033e+003;8.437982e-002
3.131962e+003;8.468696e-002
3.133890e+003;8.488738e-002
3.135819e+003;8.527539e-002
3.137748e+003;8.526604e-002
3.139676e+003;8.525454e-002
3.141605e+003;8.582998e-002
3.143533e+003;8.653246e-002
3.145462e+003;8.692858e-002
3.147390e+003;8.744986e-002
3.149319e+003;8.779512e-002
3.151247e+003;8.793964e-002
3.153176e+003;8.808877e-002
3.155104e+003;8.898040e-002
3.157033e+003;8.980279e-002
3.158962e+003;9.026673e-002
3.160890e+003;9.103733e-002
3.162819e+003;9.140950e-002
3.164747e+003;9.188472e-002
3.166676e+003;9.278037e-002
3.168604e+003;9.320688e-002
3.170533e+003;9.346218e-002
3.172461e+003;9.387279e-002
3.174390e+003;9.440836e-002
3.176319e+003;9.525494e-002
3.178247e+003;9.606178e-002
3.180176e+003;9.679882e-002
3.182104e+003;9.710675e-002
3.184033e+003;9.683008e-002
3.185961e+003;9.668852e-002
3.187890e+003;9.764932e-002
3.189818e+003;9.905735e-002
3.191747e+003;9.963217e-002
3.193676e+003;9.939504e-002
3.195604e+003;9.952652e-002
3.197532e+003;1.001180e-001
3.199461e+003;1.005141e-001
3.201390e+003;1.008349e-001
3.203318e+003;1.014296e-001
3.205247e+003;1.019527e-001
3.207175e+003;1.023971e-001
3.209104e+003;1.025018e-001
3.211032e+003;1.026511e-001
3.212961e+003;1.032777e-001
3.214889e+003;1.036575e-001
3.216818e+003;1.035800e-001
3.218747e+003;1.035140e-001
3.220675e+003;1.035103e-001
3.222604e+003;1.039444e-001
3.224532e+003;1.045809e-001
3.226461e+003;1.048689e-001
3.228389e+003;1.049396e-001
3.230318e+003;1.052463e-001
3.232246e+003;1.054821e-001
3.234175e+003;1.055105e-001
3.236104e+003;1.060711e-001
3.238032e+003;1.068671e-001
3.239961e+003;1.075204e-001
3.241889e+003;1.078438e-001
3.243818e+003;1.081592e-001
3.245746e+003;1.084376e-001
3.247675e+003;1.089076e-001
3.249603e+003;1.099575e-001
3.251532e+003;1.108330e-001
3.253460e+003;1.114472e-001
3.255389e+003;1.121448e-001
3.257318e+003;1.123613e-001
3.259246e+003;1.126108e-001
3.261175e+003;1.131676e-001
3.263103e+003;1.133441e-001
3.265032e+003;1.133168e-001
3.266960e+003;1.136525e-001
3.268889e+003;1.140307e-001
3.270817e+003;1.147208e-001
3.272746e+003;1.153189e-001
3.274675e+003;1.154660e-001
3.276603e+003;1.153168e-001
3.278531e+003;1.152574e-001
3.280460e+003;1.158225e-001
3.282389e+003;1.162701e-001
3.284317e+003;1.165242e-001
3.286246e+003;1.167762e-001
3.288174e+003;1.164338e-001
3.290103e+003;1.159491e-001
3.292031e+003;1.156691e-001
3.293960e+003;1.152680e-001
3.295888e+003;1.150971e-001
3.297817e+003;1.150020e-001
3.299746e+003;1.148419e-001
3.301674e+003;1.145431e-001
3.303603e+003;1.143429e-001
3.305531e+003;1.138630e-001
3.307460e+003;1.129290e-001
3.309388e+003;1.122998e-001
3.311317e+003;1.120051e-001
3.313245e+003;1.117963e-001
3.315174e+003;1.116546e-001
3.317103e+003;1.111953e-001
3.319031e+003;1.108884e-001
3.320960e+003;1.105242e-001
3.322888e+003;1.094567e-001
3.324817e+003;1.088123e-001
3.326745e+003;1.082217e-001
3.328674e+003;1.076027e-001
3.330602e+003;1.074741e-001
3.332531e+003;1.070623e-001
3.334459e+003;1.061632e-001
3.336388e+003;1.051913e-001
3.338317e+003;1.045385e-001
3.340245e+003;1.040805e-001
3.342174e+003;1.034909e-001
3.344102e+003;1.028216e-001
3.346031e+003;1.019527e-001
3.347959e+003;1.010490e-001
3.349888e+003;1.003154e-001
3.351816e+003;9.950957e-002
3.353745e+003;9.878226e-002
3.355674e+003;9.793635e-002
3.357602e+003;9.748510e-002
3.359531e+003;9.748954e-002
3.361459e+003;9.685075e-002
3.363388e+003;9.576810e-002
3.365316e+003;9.493686e-002
3.367245e+003;9.417387e-002
3.369173e+003;9.323961e-002
3.371102e+003;9.250002e-002
3.373031e+003;9.161865e-002
3.374959e+003;9.053389e-002
3.376887e+003;8.944719e-002
3.378816e+003;8.853019e-002
3.380745e+003;8.794565e-002
3.382673e+003;8.718415e-002
3.384602e+003;8.646048e-002
3.386530e+003;8.598828e-002
3.388459e+003;8.554883e-002
3.390387e+003;8.475240e-002
3.392316e+003;8.406530e-002
3.394244e+003;8.352910e-002
3.396173e+003;8.311175e-002
3.398102e+003;8.239872e-002
3.400030e+003;8.153632e-002
3.401959e+003;8.138435e-002
3.403887e+003;8.081996e-002
3.405816e+003;7.996687e-002
3.407744e+003;7.959916e-002
3.409673e+003;7.859810e-002
3.411601e+003;7.775731e-002
3.413530e+003;7.733054e-002
3.415458e+003;7.686254e-002
3.417387e+003;7.638647e-002
3.419316e+003;7.500576e-002
3.421244e+003;7.344270e-002
3.423173e+003;7.274313e-002
3.425101e+003;7.249904e-002
3.427030e+003;7.174067e-002
3.428958e+003;7.097789e-002
3.430887e+003;7.041859e-002
3.432815e+003;7.000317e-002
3.434744e+003;6.940656e-002
3.436673e+003;6.811198e-002
3.438601e+003;6.724794e-002
3.440530e+003;6.684076e-002
3.442458e+003;6.598901e-002
3.444387e+003;6.503958e-002
3.446315e+003;6.459600e-002
3.448244e+003;6.463261e-002
3.450172e+003;6.429726e-002
3.452101e+003;6.375789e-002
3.454030e+003;6.307863e-002
3.455958e+003;6.231999e-002
3.457886e+003;6.205311e-002
3.459815e+003;6.176176e-002
3.461744e+003;6.157960e-002
3.463672e+003;6.153993e-002
3.465601e+003;6.056866e-002
3.467529e+003;5.961590e-002
3.469458e+003;5.925553e-002
3.471386e+003;5.893435e-002
3.473315e+003;5.878687e-002
3.475243e+003;5.899850e-002
3.477172e+003;5.858501e-002
3.479101e+003;5.755109e-002
3.481029e+003;5.692305e-002
3.482958e+003;5.657820e-002
3.484886e+003;5.580493e-002
3.486815e+003;5.542189e-002
3.488743e+003;5.534747e-002
3.490672e+003;5.510275e-002
3.492600e+003;5.443384e-002
3.494529e+003;5.401639e-002
3.496458e+003;5.397170e-002
3.498386e+003;5.374980e-002
3.500315e+003;5.311009e-002
3.502243e+003;5.221755e-002
3.504172e+003;5.146345e-002
3.506100e+003;5.120898e-002
3.508029e+003;5.085309e-002
3.509957e+003;5.013342e-002
3.511886e+003;5.015388e-002
3.513814e+003;5.047457e-002
3.515743e+003;4.998443e-002
3.517672e+003;4.949262e-002
3.519600e+003;4.915409e-002
3.521529e+003;4.831289e-002
3.523457e+003;4.726280e-002
3.525386e+003;4.660293e-002
3.527314e+003;4.685259e-002
3.529243e+003;4.708584e-002
3.531171e+003;4.666790e-002
3.533100e+003;4.628213e-002
3.535029e+003;4.603719e-002
3.536957e+003;4.553121e-002
3.538885e+003;4.484344e-002
3.540814e+003;4.413097e-002
3.542743e+003;4.360397e-002
3.544671e+003;4.342835e-002
3.546600e+003;4.344164e-002
3.548528e+003;4.351987e-002
3.550457e+003;4.312646e-002
3.552385e+003;4.264377e-002
3.554314e+003;4.212398e-002
3.556242e+003;4.193395e-002
3.558171e+003;4.171527e-002
3.560100e+003;4.095384e-002
3.562028e+003;4.037198e-002
3.563957e+003;3.988051e-002
3.565885e+003;3.904495e-002
3.567814e+003;3.852745e-002
3.569742e+003;3.808692e-002
3.571671e+003;3.787110e-002
3.573599e+003;3.783405e-002
3.575528e+003;3.780176e-002
3.577457e+003;3.766522e-002
3.579385e+003;3.708104e-002
3.581314e+003;3.658062e-002
3.583242e+003;3.592249e-002
3.585171e+003;3.492273e-002
3.587099e+003;3.427678e-002
3.589028e+003;3.424397e-002
3.590956e+003;3.445842e-002
3.592885e+003;3.393239e-002
3.594813e+003;3.294487e-002
3.596742e+003;3.286785e-002
3.598671e+003;3.249628e-002
3.600599e+003;3.181162e-002
3.602528e+003;3.156148e-002
3.604456e+003;3.137093e-002
3.606385e+003;3.058716e-002
3.608313e+003;2.971190e-002
3.610242e+003;2.971343e-002
3.612170e+003;2.970158e-002
3.614099e+003;2.935398e-002
3.616028e+003;2.857052e-002
3.617956e+003;2.806085e-002
3.619885e+003;2.742411e-002
3.621813e+003;2.703788e-002
3.623742e+003;2.657999e-002
3.625670e+003;2.553317e-002
3.627599e+003;2.453636e-002
3.629527e+003;2.411721e-002
3.631456e+003;2.413850e-002
3.633385e+003;2.355026e-002
3.635313e+003;2.315789e-002
3.637241e+003;2.300274e-002
3.639170e+003;2.267949e-002
3.641099e+003;2.220811e-002
3.643027e+003;2.118675e-002
3.644956e+003;1.994039e-002
3.646884e+003;1.925825e-002
3.648813e+003;1.879305e-002
3.650741e+003;1.893092e-002
3.652670e+003;1.876579e-002
3.654598e+003;1.747788e-002
3.656527e+003;1.648062e-002
3.658456e+003;1.618835e-002
3.660384e+003;1.561644e-002
3.662313e+003;1.499366e-002
3.664241e+003;1.420672e-002
3.666170e+003;1.360913e-002
3.668098e+003;1.300093e-002
3.670027e+003;1.186433e-002
3.671955e+003;1.177611e-002
3.673884e+003;1.118186e-002
3.675813e+003;1.035068e-002
3.677741e+003;1.065269e-002
3.679669e+003;1.069731e-002
3.681598e+003;1.080709e-002
3.683527e+003;1.019279e-002
3.685455e+003;9.071827e-003
3.687384e+003;7.852559e-003
3.689312e+003;7.442896e-003
3.691241e+003;7.439660e-003
3.693169e+003;7.662281e-003
3.695098e+003;7.838625e-003
3.697026e+003;7.685079e-003
3.698955e+003;7.364164e-003
3.700884e+003;7.132769e-003
3.702812e+003;7.862546e-003
3.704741e+003;8.029959e-003
3.706669e+003;7.178647e-003
3.708598e+003;7.118926e-003
3.710526e+003;6.924391e-003
3.712455e+003;6.396651e-003
3.714383e+003;6.457384e-003
3.716312e+003;6.306880e-003
3.718240e+003;6.150615e-003
3.720169e+003;6.174913e-003
3.722098e+003;6.198742e-003
3.724026e+003;6.445176e-003
3.725955e+003;6.453281e-003
3.727883e+003;6.442049e-003
3.729812e+003;6.263615e-003
3.731740e+003;5.667184e-003
3.733669e+003;5.395089e-003
3.735597e+003;5.538196e-003
3.737526e+003;5.260079e-003
3.739455e+003;5.165613e-003
3.741383e+003;5.190426e-003
3.743312e+003;4.361392e-003
3.745240e+003;5.039255e-003
3.747169e+003;5.330849e-003
3.749097e+003;4.432953e-003
3.751026e+003;4.020515e-003
3.752954e+003;4.363099e-003
3.754883e+003;5.113208e-003
3.756812e+003;5.303982e-003
3.758740e+003;5.359798e-003
3.760668e+003;5.234490e-003
3.762597e+003;5.224228e-003
3.764526e+003;5.248542e-003
3.766454e+003;5.379758e-003
3.768383e+003;5.459574e-003
3.770311e+003;5.456822e-003
3.772240e+003;5.277385e-003
3.774168e+003;5.247871e-003
3.776097e+003;5.197837e-003
3.778025e+003;4.834961e-003
3.779954e+003;4.703005e-003
3.781883e+003;5.043143e-003
3.783811e+003;5.128832e-003
3.785740e+003;5.574140e-003
3.787668e+003;5.926819e-003
3.789597e+003;5.455749e-003
3.791525e+003;5.361308e-003
3.793454e+003;5.861358e-003
3.795382e+003;5.958931e-003
3.797311e+003;5.939180e-003
3.799240e+003;5.450481e-003
3.801168e+003;4.791239e-003
3.803097e+003;5.201325e-003
3.805025e+003;4.822731e-003
3.806954e+003;4.258957e-003
3.808882e+003;4.964577e-003
3.810811e+003;5.261991e-003
3.812739e+003;4.348640e-003
3.814668e+003;3.631890e-003
3.816596e+003;4.673999e-003
3.818525e+003;5.377142e-003
3.820454e+003;5.033322e-003
3.822382e+003;5.494571e-003
3.824311e+003;5.963164e-003
3.826239e+003;5.428807e-003
3.828168e+003;4.981838e-003
3.830096e+003;5.113644e-003
3.832025e+003;5.600118e-003
3.833953e+003;5.723752e-003
3.835882e+003;5.180199e-003
3.837811e+003;5.015322e-003
3.839739e+003;5.146367e-003
3.841667e+003;5.425049e-003
3.843596e+003;5.594177e-003
3.845525e+003;5.672823e-003
3.847453e+003;6.233430e-003
3.849382e+003;5.835667e-003
3.851310e+003;4.667669e-003
3.853239e+003;4.110150e-003
3.855167e+003;4.697813e-003
3.857096e+003;5.812831e-003
3.859024e+003;6.488190e-003
3.860953e+003;6.346048e-003
3.862882e+003;6.130888e-003
3.864810e+003;5.649896e-003
3.866739e+003;5.551989e-003
3.868667e+003;4.935420e-003
3.870596e+003;4.814356e-003
3.872524e+003;5.431659e-003
3.874453e+003;5.764545e-003
3.876381e+003;6.823706e-003
3.878310e+003;7.335182e-003
3.880239e+003;6.557244e-003
3.882167e+003;6.216119e-003
3.884096e+003;6.530166e-003
3.886024e+003;6.630951e-003
3.887953e+003;6.606863e-003
3.889881e+003;6.128065e-003
3.891810e+003;6.021786e-003
3.893738e+003;6.454121e-003
3.895667e+003;6.891130e-003
3.897595e+003;6.651171e-003
3.899524e+003;6.417903e-003
3.901453e+003;6.530334e-003
3.903381e+003;5.892223e-003
3.905310e+003;6.101283e-003
3.907238e+003;6.825894e-003
3.909167e+003;7.026379e-003
3.911095e+003;6.695013e-003
3.913024e+003;6.344737e-003
3.914952e+003;6.327657e-003
3.916881e+003;6.264254e-003
3.918810e+003;6.637848e-003
3.920738e+003;7.037525e-003
3.922667e+003;6.755855e-003
3.924595e+003;6.298980e-003
3.926524e+003;6.682530e-003
3.928452e+003;6.797688e-003
3.930381e+003;6.747745e-003
3.932309e+003;6.957654e-003
3.934238e+003;7.160760e-003
3.936167e+003;7.037828e-003
3.938095e+003;6.764639e-003
3.940023e+003;5.805880e-003
3.941952e+003;5.275641e-003
3.943881e+003;6.256589e-003
3.945809e+003;6.821450e-003
3.947738e+003;6.847671e-003
3.949666e+003;7.102186e-003
3.951595e+003;7.346977e-003
3.953523e+003;7.166420e-003
3.955452e+003;6.935972e-003
3.957380e+003;7.213986e-003
3.959309e+003;7.043216e-003
3.961238e+003;6.457417e-003
3.963166e+003;6.387270e-003
3.965095e+003;6.319285e-003
3.967023e+003;6.314949e-003
3.968952e+003;6.846695e-003
3.970880e+003;6.974220e-003
3.972809e+003;6.481834e-003
3.974737e+003;6.163419e-003
3.976666e+003;5.988123e-003
3.978594e+003;5.851618e-003
3.980523e+003;5.953691e-003
3.982452e+003;6.784293e-003
3.984380e+003;7.178479e-003
3.986309e+003;7.082114e-003
3.988237e+003;7.119499e-003
3.990166e+003;6.834779e-003
3.992094e+003;6.438988e-003
3.994023e+003;5.918825e-003
3.995951e+003;5.958226e-003
3.997880e+003;6.081458e-003
3.999809e+003;6.267515e-003
4.001737e+003;0.000000e+000
