3.992094e+002;0.000000e+000
4.011380e+002;0.000000e+000
4.030665e+002;0.000000e+000
4.049951e+002;0.000000e+000
4.069236e+002;0.000000e+000
4.088522e+002;0.000000e+000
4.107807e+002;0.000000e+000
4.127093e+002;0.000000e+000
4.146378e+002;0.000000e+000
4.165664e+002;0.000000e+000
4.184949e+002;0.000000e+000
4.204235e+002;0.000000e+000
4.223520e+002;0.000000e+000
4.242806e+002;0.000000e+000
4.262091e+002;0.000000e+000
4.281377e+002;0.000000e+000
4.300662e+002;0.000000e+000
4.319948e+002;0.000000e+000
4.339233e+002;0.000000e+000
4.358519e+002;0.000000e+000
4.377804e+002;0.000000e+000
4.397090e+002;0.000000e+000
4.416375e+002;0.000000e+000
4.435660e+002;0.000000e+000
4.454946e+002;0.000000e+000
4.474232e+002;0.000000e+000
4.493517e+002;0.000000e+000
4.512802e+002;0.000000e+000
4.532088e+002;0.000000e+000
4.551373e+002;0.000000e+000
4.570659e+002;0.000000e+000
4.589944e+002;0.000000e+000
4.609230e+002;0.000000e+000
4.628515e+002;0.000000e+000
4.647801e+002;0.000000e+000
4.667086e+002;0.000000e+000
4.686372e+002;0.000000e+000
4.705657e+002;0.000000e+000
4.724943e+002;0.000000e+000
4.744228e+002;0.000000e+000
4.763513e+002;0.000000e+000
4.782799e+002;0.000000e+000
4.802085e+002;0.000000e+000
4.821370e+002;0.000000e+000
4.840656e+002;0.000000e+000
4.859941e+002;0.000000e+000
4.879226e+002;0.000000e+000
4.898512e+002;0.000000e+000
4.917798e+002;0.000000e+000
4.937083e+002;0.000000e+000
4.956368e+002;0.000000e+000
4.975654e+002;0.000000e+000
4.994939e+002;0.000000e+000
5.014225e+002;0.000000e+000
5.033510e+002;0.000000e+000
5.052796e+002;0.000000e+000
5.072081e+002;0.000000e+000
5.091367e+002;0.000000e+000
5.110652e+002;0.000000e+000
5.129938e+002;0.000000e+000
5.149223e+002;0.000000e+000
5.168509e+002;0.000000e+000
5.187794e+002;0.000000e+000
5.207079e+002;0.000000e+000
5.226365e+002;0.000000e+000
5.245651e+002;0.000000e+000
5.264936e+002;0.000000e+000
5.284222e+002;0.000000e+000
5.303507e+002;0.000000e+000
5.322792e+002;0.000000e+000
5.342078e+002;0.000000e+000
5.361364e+002;0.000000e+000
5.380649e+002;0.000000e+000
5.399935e+002;0.000000e+000
5.419220e+002;0.000000e+000
5.438505e+002;0.000000e+000
5.457791e+002;0.000000e+000
5.477076e+002;0.000000e+000
5.496362e+002;0.000000e+000
5.515648e+002;0.000000e+000
5.534933e+002;0.000000e+000
5.554218e+002;0.000000e+000
5.573504e+002;0.000000e+000
5.592789e+002;0.000000e+000
5.612075e+002;0.000000e+000
5.631360e+002;0.000000e+000
5.650646e+002;0.000000e+000
5.669931e+002;0.000000e+000
5.689217e+002;0.000000e+000
5.708502e+002;0.000000e+000
5.727787e+002;0.000000e+000
5.747073e+002;0.000000e+000
5.766359e+002;0.000000e+000
5.785644e+002;0.000000e+000
5.804930e+002;0.000000e+000
5.824215e+002;0.000000e+000
5.843500e+002;0.000000e+000
5.862786e+002;0.000000e+000
5.882072e+002;0.000000e+000
5.901357e+002;0.000000e+000
5.920643e+002;0.000000e+000
5.939928e+002;0.000000e+000
5.959213e+002;0.000000e+000
5.978499e+002;0.000000e+000
5.997784e+002;6.040367e-002
6.017070e+002;7.024102e-002
6.036355e+002;7.640203e-002
6.055641e+002;8.432300e-002
6.074926e+002;8.523717e-002
6.094211e+002;8.348729e-002
6.113497e+002;8.583745e-002
6.132783e+002;8.962257e-002
6.152068e+002;9.122988e-002
6.171354e+002;9.480540e-002
6.190639e+002;9.730151e-002
6.209924e+002;9.770189e-002
6.229210e+002;9.637122e-002
6.248495e+002;9.666319e-002
6.267781e+002;9.589639e-002
6.287067e+002;9.598044e-002
6.306352e+002;9.504373e-002
6.325637e+002;9.856340e-002
6.344923e+002;9.764294e-002
6.364208e+002;9.112283e-002
6.383494e+002;9.287355e-002
6.402780e+002;9.829698e-002
6.422065e+002;1.015040e-001
6.441350e+002;1.041382e-001
6.460636e+002;1.057702e-001
6.479921e+002;1.061493e-001
6.499207e+002;1.057081e-001
6.518492e+002;1.034483e-001
6.537778e+002;1.020767e-001
6.557063e+002;1.047047e-001
6.576349e+002;1.075295e-001
6.595634e+002;1.083380e-001
6.614919e+002;1.094087e-001
6.634205e+002;1.127867e-001
6.653491e+002;1.146059e-001
6.672776e+002;1.154646e-001
6.692062e+002;1.139728e-001
6.711347e+002;1.134268e-001
6.730632e+002;1.146122e-001
6.749918e+002;1.141020e-001
6.769203e+002;1.130515e-001
6.788489e+002;1.142661e-001
6.807775e+002;1.156962e-001
6.827060e+002;1.158764e-001
6.846345e+002;1.158690e-001
6.865631e+002;1.161222e-001
6.884916e+002;1.164374e-001
6.904202e+002;1.167272e-001
6.923488e+002;1.173525e-001
6.942773e+002;1.180631e-001
6.962058e+002;1.183322e-001
6.981344e+002;1.184789e-001
7.000629e+002;1.182870e-001
7.019915e+002;1.183236e-001
7.039200e+002;1.184155e-001
7.058486e+002;1.174912e-001
7.077771e+002;1.155934e-001
7.097057e+002;1.147466e-001
7.116342e+002;1.148668e-001
7.135627e+002;1.149124e-001
7.154913e+002;1.137655e-001
7.174199e+002;1.129496e-001
7.193484e+002;1.134513e-001
7.212770e+002;1.134631e-001
7.232055e+002;1.123068e-001
7.251340e+002;1.119577e-001
7.270626e+002;1.110404e-001
7.289911e+002;1.105549e-001
7.309197e+002;1.111222e-001
7.328483e+002;1.119754e-001
7.347768e+002;1.122852e-001
7.367053e+002;1.131756e-001
7.386339e+002;1.135540e-001
7.405624e+002;1.133213e-001
7.424910e+002;1.134252e-001
7.444196e+002;1.134631e-001
7.463481e+002;1.126359e-001
7.482766e+002;1.123370e-001
7.502052e+002;1.114351e-001
7.521337e+002;1.099764e-001
7.540623e+002;1.083844e-001
7.559908e+002;1.069468e-001
7.579194e+002;1.063808e-001
7.598479e+002;1.058546e-001
7.617765e+002;1.046932e-001
7.637050e+002;1.030238e-001
7.656335e+002;1.013829e-001
7.675621e+002;1.010191e-001
7.694907e+002;1.006704e-001
7.714192e+002;1.000805e-001
7.733478e+002;9.977810e-002
7.752763e+002;9.862427e-002
7.772048e+002;9.761547e-002
7.791334e+002;9.739346e-002
7.810620e+002;9.679083e-002
7.829905e+002;9.640691e-002
7.849191e+002;9.593233e-002
7.868476e+002;9.574307e-002
7.887761e+002;9.520526e-002
7.907047e+002;9.393736e-002
7.926332e+002;9.287487e-002
7.945618e+002;9.189291e-002
7.964903e+002;9.104739e-002
7.984189e+002;9.042840e-002
8.003474e+002;8.970229e-002
8.022759e+002;8.931579e-002
8.042045e+002;8.941959e-002
8.061331e+002;8.881893e-002
8.080616e+002;8.765359e-002
8.099902e+002;8.709303e-002
8.119187e+002;8.669987e-002
8.138472e+002;8.673539e-002
8.157758e+002;8.669570e-002
8.177043e+002;8.680361e-002
8.196329e+002;8.711850e-002
8.215615e+002;8.699197e-002
8.234900e+002;8.662095e-002
8.254185e+002;8.617774e-002
8.273471e+002;8.627234e-002
8.292756e+002;8.607338e-002
8.312042e+002;8.507898e-002
8.331328e+002;8.387527e-002
8.350613e+002;8.290649e-002
8.369898e+002;8.249270e-002
8.389184e+002;8.208627e-002
8.408469e+002;8.150090e-002
8.427755e+002;8.001777e-002
8.447040e+002;7.829555e-002
8.466326e+002;7.807942e-002
8.485611e+002;7.823595e-002
8.504897e+002;7.775905e-002
8.524182e+002;7.781719e-002
8.543467e+002;7.738775e-002
8.562753e+002;7.652152e-002
8.582039e+002;7.600103e-002
8.601324e+002;7.584684e-002
8.620610e+002;7.560070e-002
8.639895e+002;7.505319e-002
8.659180e+002;7.485886e-002
8.678466e+002;7.551679e-002
8.697751e+002;7.600481e-002
8.717037e+002;7.635424e-002
8.736323e+002;7.652484e-002
8.755608e+002;7.642483e-002
8.774893e+002;7.660831e-002
8.794179e+002;7.723688e-002
8.813464e+002;7.731502e-002
8.832750e+002;7.717588e-002
8.852036e+002;7.736043e-002
8.871321e+002;7.766252e-002
8.890606e+002;7.743951e-002
8.909892e+002;7.678234e-002
8.929177e+002;7.621358e-002
8.948463e+002;7.630888e-002
8.967748e+002;7.685068e-002
8.987034e+002;7.700244e-002
9.006319e+002;7.725639e-002
9.025605e+002;7.756764e-002
9.044890e+002;7.761443e-002
9.064175e+002;7.748152e-002
9.083461e+002;7.729815e-002
9.102747e+002;7.734811e-002
9.122032e+002;7.807828e-002
9.141318e+002;7.871624e-002
9.160603e+002;7.860528e-002
9.179888e+002;7.879469e-002
9.199174e+002;7.939273e-002
9.218459e+002;8.003056e-002
9.237745e+002;8.043284e-002
9.257031e+002;8.070543e-002
9.276316e+002;8.080567e-002
9.295601e+002;8.112036e-002
9.314887e+002;8.148248e-002
9.334172e+002;8.167338e-002
9.353458e+002;8.144215e-002
9.372744e+002;8.140677e-002
9.392029e+002;8.146749e-002
9.411314e+002;8.131271e-002
9.430600e+002;8.116705e-002
9.449885e+002;8.117715e-002
9.469171e+002;8.099944e-002
9.488456e+002;8.087561e-002
9.507742e+002;8.110498e-002
9.527027e+002;8.143359e-002
9.546313e+002;8.160277e-002
9.565598e+002;8.189418e-002
9.584883e+002;8.233107e-002
9.604169e+002;8.286551e-002
9.623455e+002;8.344007e-002
9.642740e+002;8.383399e-002
9.662026e+002;8.419492e-002
9.681311e+002;8.472014e-002
9.700596e+002;8.505742e-002
9.719882e+002;8.527987e-002
9.739167e+002;8.547866e-002
9.758453e+002;8.622300e-002
9.777739e+002;8.720111e-002
9.797024e+002;8.810387e-002
9.816309e+002;8.876698e-002
9.835595e+002;8.925760e-002
9.854880e+002;9.021456e-002
9.874166e+002;9.163088e-002
9.893452e+002;9.349579e-002
9.912737e+002;9.531188e-002
9.932022e+002;9.647439e-002
9.951307e+002;9.712792e-002
9.970593e+002;9.780024e-002
9.989879e+002;9.911941e-002
1.000916e+003;1.003257e-001
1.002845e+003;1.015128e-001
1.004773e+003;1.025781e-001
1.006702e+003;1.035658e-001
1.008631e+003;1.052538e-001
1.010559e+003;1.067288e-001
1.012488e+003;1.075795e-001
1.014416e+003;1.079895e-001
1.016345e+003;1.081122e-001
1.018273e+003;1.083760e-001
1.020202e+003;1.092403e-001
1.022130e+003;1.105090e-001
1.024059e+003;1.118759e-001
1.025988e+003;1.133972e-001
1.027916e+003;1.156345e-001
1.029845e+003;1.182840e-001
1.031773e+003;1.210134e-001
1.033702e+003;1.231459e-001
1.035630e+003;1.249042e-001
1.037559e+003;1.268682e-001
1.039487e+003;1.285973e-001
1.041416e+003;1.298017e-001
1.043344e+003;1.301443e-001
1.045273e+003;1.298014e-001
1.047202e+003;1.285843e-001
1.049130e+003;1.267302e-001
1.051059e+003;1.248686e-001
1.052987e+003;1.232611e-001
1.054916e+003;1.224204e-001
1.056844e+003;1.220390e-001
1.058773e+003;1.221608e-001
1.060701e+003;1.222963e-001
1.062630e+003;1.222103e-001
1.064558e+003;1.224042e-001
1.066487e+003;1.229759e-001
1.068416e+003;1.237223e-001
1.070344e+003;1.242198e-001
1.072273e+003;1.243217e-001
1.074201e+003;1.239913e-001
1.076130e+003;1.238993e-001
1.078058e+003;1.241724e-001
1.079987e+003;1.241275e-001
1.081915e+003;1.239440e-001
1.083844e+003;1.240456e-001
1.085773e+003;1.242453e-001
1.087701e+003;1.244917e-001
1.089630e+003;1.242513e-001
1.091558e+003;1.238678e-001
1.093487e+003;1.236433e-001
1.095415e+003;1.233277e-001
1.097344e+003;1.233983e-001
1.099272e+003;1.237279e-001
1.101201e+003;1.235556e-001
1.103129e+003;1.233246e-001
1.105058e+003;1.230981e-001
1.106987e+003;1.223821e-001
1.108915e+003;1.213990e-001
1.110844e+003;1.208448e-001
1.112772e+003;1.206045e-001
1.114701e+003;1.204883e-001
1.116629e+003;1.204238e-001
1.118558e+003;1.203942e-001
1.120486e+003;1.206379e-001
1.122415e+003;1.206979e-001
1.124344e+003;1.208952e-001
1.126272e+003;1.214884e-001
1.128201e+003;1.214365e-001
1.130129e+003;1.212258e-001
1.132058e+003;1.219283e-001
1.133986e+003;1.227865e-001
1.135915e+003;1.236114e-001
1.137843e+003;1.246499e-001
1.139772e+003;1.259331e-001
1.141700e+003;1.270882e-001
1.143629e+003;1.283722e-001
1.145557e+003;1.300554e-001
1.147486e+003;1.314491e-001
1.149415e+003;1.325833e-001
1.151343e+003;1.336650e-001
1.153272e+003;1.343633e-001
1.155200e+003;1.349883e-001
1.157129e+003;1.356385e-001
1.159057e+003;1.358489e-001
1.160986e+003;1.361659e-001
1.162914e+003;1.371415e-001
1.164843e+003;1.385617e-001
1.166771e+003;1.400761e-001
1.168700e+003;1.418061e-001
1.170629e+003;1.428363e-001
1.172557e+003;1.435424e-001
1.174486e+003;1.443815e-001
1.176414e+003;1.449996e-001
1.178343e+003;1.455207e-001
1.180271e+003;1.461262e-001
1.182200e+003;1.474106e-001
1.184128e+003;1.484308e-001
1.186057e+003;1.492462e-001
1.187986e+003;1.505803e-001
1.189914e+003;1.514978e-001
1.191843e+003;1.523233e-001
1.193771e+003;1.535120e-001
1.195700e+003;1.547675e-001
1.197628e+003;1.558119e-001
1.199557e+003;1.566732e-001
1.201485e+003;1.575178e-001
1.203414e+003;1.587024e-001
1.205343e+003;1.600292e-001
1.207271e+003;1.611138e-001
1.209200e+003;1.619661e-001
1.211128e+003;1.626529e-001
1.213057e+003;1.634583e-001
1.214985e+003;1.643832e-001
1.216914e+003;1.649585e-001
1.218842e+003;1.653223e-001
1.220771e+003;1.657550e-001
1.222699e+003;1.661378e-001
1.224628e+003;1.664186e-001
1.226557e+003;1.665338e-001
1.228485e+003;1.663384e-001
1.230414e+003;1.659553e-001
1.232342e+003;1.657388e-001
1.234271e+003;1.654415e-001
1.236199e+003;1.650907e-001
1.238128e+003;1.643820e-001
1.240056e+003;1.631417e-001
1.241985e+003;1.621687e-001
1.243913e+003;1.613385e-001
1.245842e+003;1.600067e-001
1.247771e+003;1.591903e-001
1.249699e+003;1.590881e-001
1.251628e+003;1.585377e-001
1.253556e+003;1.576274e-001
1.255485e+003;1.565716e-001
1.257413e+003;1.553904e-001
1.259342e+003;1.540580e-001
1.261270e+003;1.519745e-001
1.263199e+003;1.498450e-001
1.265127e+003;1.481661e-001
1.267056e+003;1.468336e-001
1.268985e+003;1.458698e-001
1.270913e+003;1.447749e-001
1.272842e+003;1.437469e-001
1.274770e+003;1.429933e-001
1.276699e+003;1.422614e-001
1.278627e+003;1.416420e-001
1.280556e+003;1.410164e-001
1.282484e+003;1.401546e-001
1.284413e+003;1.392124e-001
1.286342e+003;1.383778e-001
1.288270e+003;1.373389e-001
1.290199e+003;1.363667e-001
1.292127e+003;1.356309e-001
1.294056e+003;1.348727e-001
1.295984e+003;1.341634e-001
1.297913e+003;1.335355e-001
1.299841e+003;1.326645e-001
1.301770e+003;1.317840e-001
1.303698e+003;1.311227e-001
1.305627e+003;1.306272e-001
1.307556e+003;1.302301e-001
1.309484e+003;1.301351e-001
1.311413e+003;1.302072e-001
1.313341e+003;1.305082e-001
1.315270e+003;1.307525e-001
1.317198e+003;1.307623e-001
1.319127e+003;1.312944e-001
1.321055e+003;1.318725e-001
1.322984e+003;1.319625e-001
1.324912e+003;1.317402e-001
1.326841e+003;1.315049e-001
1.328770e+003;1.312217e-001
1.330698e+003;1.306933e-001
1.332627e+003;1.299569e-001
1.334555e+003;1.294837e-001
1.336484e+003;1.289622e-001
1.338412e+003;1.280895e-001
1.340341e+003;1.271722e-001
1.342269e+003;1.262544e-001
1.344198e+003;1.255679e-001
1.346126e+003;1.249754e-001
1.348055e+003;1.242127e-001
1.349984e+003;1.236962e-001
1.351912e+003;1.233928e-001
1.353841e+003;1.231579e-001
1.355769e+003;1.229601e-001
1.357698e+003;1.231839e-001
1.359626e+003;1.236027e-001
1.361555e+003;1.240776e-001
1.363483e+003;1.250635e-001
1.365412e+003;1.260953e-001
1.367341e+003;1.268614e-001
1.369269e+003;1.275443e-001
1.371198e+003;1.281294e-001
1.373126e+003;1.280024e-001
1.375055e+003;1.278504e-001
1.376983e+003;1.285724e-001
1.378912e+003;1.294129e-001
1.380840e+003;1.302322e-001
1.382769e+003;1.312842e-001
1.384698e+003;1.320089e-001
1.386626e+003;1.324651e-001
1.388555e+003;1.328231e-001
1.390483e+003;1.326357e-001
1.392412e+003;1.319046e-001
1.394340e+003;1.311552e-001
1.396269e+003;1.309247e-001
1.398197e+003;1.311035e-001
1.400126e+003;1.312805e-001
1.402054e+003;1.315014e-001
1.403983e+003;1.316810e-001
1.405911e+003;1.320165e-001
1.407840e+003;1.321859e-001
1.409769e+003;1.322190e-001
1.411697e+003;1.322735e-001
1.413626e+003;1.325502e-001
1.415554e+003;1.328986e-001
1.417483e+003;1.329234e-001
1.419411e+003;1.328622e-001
1.421340e+003;1.332056e-001
1.423268e+003;1.336235e-001
1.425197e+003;1.344448e-001
1.427125e+003;1.356680e-001
1.429054e+003;1.369984e-001
1.430983e+003;1.386595e-001
1.432911e+003;1.405116e-001
1.434840e+003;1.424440e-001
1.436768e+003;1.442390e-001
1.438697e+003;1.456719e-001
1.440625e+003;1.467939e-001
1.442554e+003;1.477297e-001
1.444482e+003;1.486788e-001
1.446411e+003;1.493883e-001
1.448340e+003;1.495945e-001
1.450268e+003;1.497885e-001
1.452197e+003;1.499471e-001
1.454125e+003;1.499217e-001
1.456054e+003;1.494358e-001
1.457982e+003;1.490806e-001
1.459911e+003;1.489023e-001
1.461839e+003;1.482433e-001
1.463768e+003;1.470628e-001
1.465697e+003;1.461325e-001
1.467625e+003;1.459079e-001
1.469554e+003;1.456962e-001
1.471482e+003;1.451066e-001
1.473411e+003;1.446069e-001
1.475339e+003;1.447131e-001
1.477268e+003;1.456110e-001
1.479196e+003;1.474595e-001
1.481125e+003;1.500157e-001
1.483053e+003;1.531688e-001
1.484982e+003;1.570126e-001
1.486911e+003;1.614881e-001
1.488839e+003;1.661874e-001
1.490768e+003;1.711599e-001
1.492696e+003;1.764669e-001
1.494625e+003;1.812911e-001
1.496553e+003;1.856095e-001
1.498482e+003;1.896304e-001
1.500410e+003;1.931176e-001
1.502339e+003;1.961806e-001
1.504267e+003;1.985090e-001
1.506196e+003;2.002492e-001
1.508125e+003;2.022664e-001
1.510053e+003;2.043635e-001
1.511982e+003;2.056899e-001
1.513910e+003;2.061583e-001
1.515839e+003;2.051484e-001
1.517767e+003;2.029382e-001
1.519696e+003;2.002082e-001
1.521624e+003;1.972099e-001
1.523553e+003;1.946692e-001
1.525481e+003;1.924754e-001
1.527410e+003;1.905830e-001
1.529339e+003;1.887840e-001
1.531267e+003;1.866581e-001
1.533196e+003;1.842231e-001
1.535124e+003;1.817811e-001
1.537053e+003;1.790117e-001
1.538981e+003;1.756016e-001
1.540910e+003;1.723516e-001
1.542838e+003;1.694540e-001
1.544767e+003;1.665532e-001
1.546695e+003;1.632673e-001
1.548624e+003;1.595748e-001
1.550553e+003;1.558903e-001
1.552481e+003;1.520692e-001
1.554410e+003;1.483010e-001
1.556338e+003;1.447784e-001
1.558267e+003;1.408528e-001
1.560195e+003;1.377661e-001
1.562124e+003;1.355530e-001
1.564052e+003;1.329563e-001
1.565981e+003;1.304855e-001
1.567910e+003;1.284210e-001
1.569838e+003;1.266020e-001
1.571767e+003;1.253719e-001
1.573695e+003;1.245666e-001
1.575624e+003;1.240755e-001
1.577552e+003;1.242389e-001
1.579481e+003;1.248510e-001
1.581409e+003;1.257106e-001
1.583338e+003;1.268391e-001
1.585266e+003;1.282983e-001
1.587195e+003;1.302962e-001
1.589124e+003;1.325924e-001
1.591052e+003;1.350093e-001
1.592981e+003;1.380076e-001
1.594909e+003;1.410747e-001
1.596838e+003;1.439497e-001
1.598766e+003;1.472332e-001
1.600695e+003;1.510993e-001
1.602623e+003;1.554860e-001
1.604552e+003;1.606444e-001
1.606480e+003;1.660262e-001
1.608409e+003;1.712357e-001
1.610338e+003;1.763344e-001
1.612266e+003;1.811461e-001
1.614195e+003;1.856149e-001
1.616123e+003;1.898876e-001
1.618052e+003;1.943692e-001
1.619980e+003;1.989381e-001
1.621909e+003;2.030819e-001
1.623837e+003;2.072687e-001
1.625766e+003;2.113926e-001
1.627694e+003;2.150110e-001
1.629623e+003;2.179174e-001
1.631552e+003;2.203410e-001
1.633480e+003;2.222726e-001
1.635409e+003;2.234131e-001
1.637337e+003;2.245718e-001
1.639266e+003;2.252717e-001
1.641194e+003;2.250484e-001
1.643123e+003;2.241568e-001
1.645051e+003;2.226031e-001
1.646980e+003;2.210976e-001
1.648909e+003;2.193080e-001
1.650837e+003;2.163611e-001
1.652766e+003;2.124425e-001
1.654694e+003;2.088468e-001
1.656623e+003;2.052487e-001
1.658551e+003;2.010883e-001
1.660480e+003;1.966453e-001
1.662408e+003;1.919851e-001
1.664337e+003;1.872342e-001
1.666266e+003;1.824543e-001
1.668194e+003;1.772123e-001
1.670123e+003;1.720247e-001
1.672051e+003;1.672714e-001
1.673980e+003;1.622307e-001
1.675908e+003;1.571510e-001
1.677837e+003;1.528015e-001
1.679765e+003;1.480700e-001
1.681694e+003;1.430092e-001
1.683622e+003;1.377926e-001
1.685551e+003;1.328240e-001
1.687479e+003;1.282424e-001
1.689408e+003;1.236222e-001
1.691337e+003;1.186946e-001
1.693265e+003;1.137635e-001
1.695194e+003;1.086512e-001
1.697122e+003;1.037196e-001
1.699051e+003;9.857134e-002
1.700979e+003;9.368379e-002
1.702908e+003;8.937652e-002
1.704836e+003;8.489185e-002
1.706765e+003;8.071728e-002
1.708693e+003;7.718300e-002
1.710622e+003;7.418837e-002
1.712551e+003;7.137968e-002
1.714479e+003;6.871512e-002
1.716408e+003;6.599047e-002
1.718336e+003;6.387034e-002
1.720265e+003;6.267595e-002
1.722193e+003;6.127048e-002
1.724122e+003;5.960750e-002
1.726050e+003;5.812696e-002
1.727979e+003;5.664792e-002
1.729908e+003;5.519157e-002
1.731836e+003;5.362735e-002
1.733765e+003;5.188738e-002
1.735693e+003;5.081171e-002
1.737622e+003;4.984111e-002
1.739550e+003;4.835500e-002
1.741479e+003;4.675649e-002
1.743407e+003;4.531486e-002
1.745336e+003;4.377453e-002
1.747265e+003;4.230396e-002
1.749193e+003;4.101530e-002
1.751122e+003;3.975333e-002
1.753050e+003;3.851677e-002
1.754979e+003;3.738086e-002
1.756907e+003;3.627193e-002
1.758836e+003;3.547528e-002
1.760764e+003;3.455396e-002
1.762693e+003;3.359485e-002
1.764621e+003;3.282614e-002
1.766550e+003;3.210199e-002
1.768479e+003;3.139576e-002
1.770407e+003;3.080362e-002
1.772336e+003;3.018618e-002
1.774264e+003;2.976506e-002
1.776193e+003;2.941922e-002
1.778121e+003;2.917921e-002
1.780050e+003;2.893548e-002
1.781978e+003;2.878112e-002
1.783907e+003;2.847707e-002
1.785835e+003;2.812310e-002
1.787764e+003;2.795589e-002
1.789693e+003;2.784265e-002
1.791621e+003;2.746862e-002
1.793550e+003;2.714485e-002
1.795478e+003;2.696659e-002
1.797407e+003;2.677695e-002
1.799335e+003;2.654614e-002
1.801264e+003;2.641936e-002
1.803192e+003;2.623250e-002
1.805121e+003;2.616038e-002
1.807049e+003;2.603449e-002
1.808978e+003;2.584817e-002
1.810907e+003;2.567182e-002
1.812835e+003;2.552044e-002
1.814764e+003;2.537018e-002
1.816692e+003;2.520936e-002
1.818621e+003;2.493082e-002
1.820549e+003;2.471657e-002
1.822478e+003;2.464586e-002
1.824406e+003;2.464702e-002
1.826335e+003;2.462910e-002
1.828264e+003;2.462366e-002
1.830192e+003;2.449050e-002
1.832121e+003;2.433470e-002
1.834049e+003;2.406828e-002
1.835978e+003;2.401424e-002
1.837906e+003;2.412586e-002
1.839835e+003;2.407567e-002
1.841763e+003;2.371809e-002
1.843692e+003;2.362505e-002
1.845620e+003;2.373626e-002
1.847549e+003;2.371942e-002
1.849478e+003;2.356460e-002
1.851406e+003;2.346726e-002
1.853335e+003;2.337071e-002
1.855263e+003;2.328973e-002
1.857192e+003;2.321377e-002
1.859120e+003;2.321772e-002
1.861049e+003;2.315118e-002
1.862977e+003;2.316229e-002
1.864906e+003;2.318794e-002
1.866834e+003;2.323555e-002
1.868763e+003;2.310540e-002
1.870692e+003;2.312717e-002
1.872620e+003;2.322195e-002
1.874549e+003;2.338581e-002
1.876477e+003;2.320797e-002
1.878406e+003;2.301231e-002
1.880334e+003;2.291999e-002
1.882263e+003;2.292219e-002
1.884191e+003;2.305585e-002
1.886120e+003;2.313709e-002
1.888048e+003;2.312996e-002
1.889977e+003;2.312797e-002
1.891906e+003;2.303548e-002
1.893834e+003;2.297818e-002
1.895763e+003;2.274645e-002
1.897691e+003;2.292292e-002
1.899620e+003;2.314705e-002
1.901548e+003;2.303649e-002
1.903477e+003;2.304037e-002
1.905405e+003;2.309928e-002
1.907334e+003;2.294255e-002
1.909262e+003;2.281566e-002
1.911191e+003;2.280257e-002
1.913120e+003;2.292732e-002
1.915048e+003;2.298468e-002
1.916977e+003;2.293281e-002
1.918905e+003;2.294789e-002
1.920834e+003;2.301888e-002
1.922762e+003;2.283973e-002
1.924691e+003;2.281081e-002
1.926619e+003;2.309533e-002
1.928548e+003;2.343736e-002
1.930477e+003;2.333742e-002
1.932405e+003;2.309383e-002
1.934334e+003;2.298140e-002
1.936262e+003;2.298195e-002
1.938191e+003;2.273881e-002
1.940119e+003;2.272153e-002
1.942048e+003;2.270309e-002
1.943976e+003;2.270959e-002
1.945905e+003;2.300973e-002
1.947833e+003;2.341078e-002
1.949762e+003;2.332323e-002
1.951691e+003;2.311910e-002
1.953619e+003;2.299523e-002
1.955548e+003;2.314370e-002
1.957476e+003;2.336833e-002
1.959405e+003;2.328365e-002
1.961333e+003;2.327061e-002
1.963262e+003;2.334707e-002
1.965190e+003;2.316306e-002
1.967119e+003;2.304383e-002
1.969047e+003;2.315268e-002
1.970976e+003;2.311902e-002
1.972905e+003;2.295216e-002
1.974833e+003;2.310658e-002
1.976762e+003;2.326785e-002
1.978690e+003;2.314317e-002
1.980619e+003;2.317138e-002
1.982547e+003;2.336700e-002
1.984476e+003;2.345778e-002
1.986404e+003;2.347201e-002
1.988333e+003;2.328799e-002
1.990261e+003;2.328501e-002
1.992190e+003;2.329026e-002
1.994119e+003;2.314698e-002
1.996047e+003;2.308709e-002
1.997976e+003;2.333924e-002
1.999904e+003;2.351357e-002
2.001833e+003;2.338399e-002
2.003761e+003;2.327128e-002
2.005690e+003;2.321335e-002
2.007618e+003;2.309603e-002
2.009547e+003;2.296068e-002
2.011476e+003;2.291234e-002
2.013404e+003;2.310529e-002
2.015333e+003;2.334766e-002
2.017261e+003;2.357552e-002
2.019190e+003;2.375641e-002
2.021118e+003;2.370816e-002
2.023047e+003;2.340043e-002
2.024975e+003;2.326138e-002
2.026904e+003;2.339365e-002
2.028833e+003;2.344956e-002
2.030761e+003;2.334067e-002
2.032690e+003;2.336099e-002
2.034618e+003;2.332309e-002
2.036547e+003;2.333431e-002
2.038475e+003;2.340546e-002
2.040404e+003;2.324827e-002
2.042332e+003;2.313587e-002
2.044261e+003;2.316446e-002
2.046189e+003;2.323331e-002
2.048118e+003;2.328376e-002
2.050047e+003;2.352091e-002
2.051975e+003;2.378616e-002
2.053904e+003;2.376334e-002
2.055832e+003;2.364325e-002
2.057761e+003;2.350636e-002
2.059689e+003;2.328522e-002
2.061618e+003;2.326309e-002
2.063546e+003;2.332172e-002
2.065475e+003;2.321115e-002
2.067404e+003;2.331144e-002
2.069332e+003;2.350367e-002
2.071260e+003;2.341914e-002
2.073189e+003;2.318186e-002
2.075118e+003;2.318008e-002
2.077046e+003;2.342235e-002
2.078975e+003;2.353903e-002
2.080903e+003;2.356901e-002
2.082832e+003;2.363716e-002
2.084760e+003;2.366882e-002
2.086689e+003;2.360245e-002
2.088617e+003;2.333945e-002
2.090546e+003;2.325118e-002
2.092475e+003;2.343946e-002
2.094403e+003;2.347121e-002
2.096332e+003;2.323293e-002
2.098260e+003;2.310152e-002
2.100189e+003;2.305232e-002
2.102117e+003;2.317316e-002
2.104046e+003;2.335424e-002
2.105974e+003;2.351035e-002
2.107903e+003;2.353315e-002
2.109832e+003;2.361025e-002
2.111760e+003;2.371221e-002
2.113688e+003;2.374364e-002
2.115617e+003;2.353043e-002
2.117546e+003;2.309565e-002
2.119474e+003;2.288055e-002
2.121403e+003;2.294943e-002
2.123331e+003;2.319263e-002
2.125260e+003;2.335092e-002
2.127188e+003;2.322597e-002
2.129117e+003;2.304261e-002
2.131045e+003;2.303918e-002
2.132974e+003;2.337340e-002
2.134903e+003;2.349884e-002
2.136831e+003;2.339875e-002
2.138760e+003;2.342110e-002
2.140688e+003;2.316701e-002
2.142617e+003;2.292425e-002
2.144545e+003;2.302189e-002
2.146474e+003;2.297745e-002
2.148402e+003;2.284088e-002
2.150331e+003;2.281968e-002
2.152260e+003;2.285792e-002
2.154188e+003;2.292247e-002
2.156117e+003;2.299373e-002
2.158045e+003;2.299436e-002
2.159974e+003;2.312063e-002
2.161902e+003;2.313346e-002
2.163831e+003;2.301256e-002
2.165759e+003;2.300075e-002
2.167688e+003;2.299334e-002
2.169616e+003;2.288310e-002
2.171545e+003;2.292107e-002
2.173474e+003;2.303684e-002
2.175402e+003;2.310204e-002
2.177331e+003;2.295963e-002
2.179259e+003;2.286256e-002
2.181188e+003;2.268595e-002
2.183116e+003;2.264270e-002
2.185045e+003;2.272526e-002
2.186973e+003;2.268089e-002
2.188902e+003;2.288363e-002
2.190831e+003;2.308848e-002
2.192759e+003;2.298066e-002
2.194688e+003;2.292156e-002
2.196616e+003;2.278577e-002
2.198545e+003;2.273116e-002
2.200473e+003;2.285844e-002
2.202402e+003;2.288887e-002
2.204330e+003;2.289927e-002
2.206259e+003;2.288104e-002
2.208188e+003;2.279300e-002
2.210116e+003;2.273214e-002
2.212044e+003;2.276472e-002
2.213973e+003;2.275874e-002
2.215902e+003;2.254842e-002
2.217830e+003;2.254158e-002
2.219759e+003;2.268689e-002
2.221687e+003;2.268201e-002
2.223616e+003;2.267216e-002
2.225544e+003;2.269831e-002
2.227473e+003;2.265561e-002
2.229401e+003;2.259477e-002
2.231330e+003;2.246237e-002
2.233259e+003;2.229146e-002
2.235187e+003;2.237912e-002
2.237116e+003;2.250874e-002
2.239044e+003;2.240885e-002
2.240973e+003;2.229792e-002
2.242901e+003;2.240072e-002
2.244830e+003;2.250881e-002
2.246758e+003;2.257373e-002
2.248687e+003;2.237842e-002
2.250615e+003;2.226576e-002
2.252544e+003;2.242957e-002
2.254473e+003;2.271646e-002
2.256401e+003;2.273403e-002
2.258330e+003;2.263006e-002
2.260258e+003;2.267202e-002
2.262187e+003;2.260409e-002
2.264115e+003;2.249252e-002
2.266044e+003;2.249831e-002
2.267972e+003;2.265094e-002
2.269901e+003;2.274921e-002
2.271830e+003;2.262765e-002
2.273758e+003;2.255917e-002
2.275687e+003;2.262291e-002
2.277615e+003;2.254382e-002
2.279544e+003;2.272893e-002
2.281472e+003;2.284653e-002
2.283401e+003;2.279317e-002
2.285329e+003;2.268923e-002
2.287258e+003;2.241366e-002
2.289187e+003;2.226094e-002
2.291115e+003;2.252194e-002
2.293043e+003;2.283613e-002
2.294972e+003;2.275490e-002
2.296901e+003;2.263558e-002
2.298829e+003;2.262339e-002
2.300758e+003;2.244129e-002
2.302686e+003;2.217976e-002
2.304615e+003;2.213652e-002
2.306543e+003;2.224692e-002
2.308472e+003;2.219224e-002
2.310400e+003;2.196330e-002
2.312329e+003;2.174083e-002
2.314258e+003;2.146307e-002
2.316186e+003;2.126047e-002
2.318115e+003;2.112406e-002
2.320043e+003;2.092878e-002
2.321972e+003;2.053794e-002
2.323900e+003;2.003119e-002
2.325829e+003;1.985107e-002
2.327757e+003;1.987282e-002
2.329686e+003;1.960683e-002
2.331615e+003;1.922465e-002
2.333543e+003;1.910757e-002
2.335472e+003;1.924796e-002
2.337400e+003;1.938774e-002
2.339329e+003;1.947706e-002
2.341257e+003;1.982398e-002
2.343186e+003;2.035126e-002
2.345114e+003;2.091129e-002
2.347043e+003;2.172898e-002
2.348971e+003;2.212934e-002
2.350900e+003;2.137518e-002
2.352829e+003;2.041501e-002
2.354757e+003;1.956856e-002
2.356686e+003;1.891261e-002
2.358614e+003;1.848651e-002
2.360543e+003;1.817247e-002
2.362471e+003;1.829314e-002
2.364400e+003;1.868522e-002
2.366328e+003;1.937883e-002
2.368257e+003;2.004774e-002
2.370186e+003;2.067490e-002
2.372114e+003;2.128901e-002
2.374042e+003;2.191200e-002
2.375971e+003;2.253970e-002
2.377900e+003;2.293085e-002
2.379828e+003;2.313409e-002
2.381757e+003;2.357562e-002
2.383685e+003;2.395993e-002
2.385614e+003;2.415455e-002
2.387542e+003;2.453422e-002
2.389471e+003;2.475318e-002
2.391399e+003;2.474098e-002
2.393328e+003;2.490899e-002
2.395257e+003;2.510859e-002
2.397185e+003;2.489446e-002
2.399114e+003;2.464323e-002
2.401042e+003;2.486654e-002
2.402971e+003;2.507482e-002
2.404899e+003;2.525280e-002
2.406828e+003;2.532476e-002
2.408756e+003;2.536491e-002
2.410685e+003;2.542800e-002
2.412614e+003;2.576354e-002
2.414542e+003;2.625115e-002
2.416471e+003;2.617534e-002
2.418399e+003;2.592611e-002
2.420328e+003;2.608557e-002
2.422256e+003;2.622940e-002
2.424185e+003;2.634359e-002
2.426113e+003;2.651240e-002
2.428042e+003;2.674485e-002
2.429970e+003;2.674234e-002
2.431899e+003;2.678787e-002
2.433828e+003;2.713021e-002
2.435756e+003;2.715973e-002
2.437685e+003;2.723695e-002
2.439613e+003;2.736288e-002
2.441542e+003;2.731524e-002
2.443470e+003;2.747868e-002
2.445399e+003;2.770426e-002
2.447327e+003;2.784883e-002
2.449256e+003;2.781866e-002
2.451185e+003;2.765128e-002
2.453113e+003;2.757240e-002
2.455042e+003;2.776154e-002
2.456970e+003;2.803141e-002
2.458899e+003;2.823143e-002
2.460827e+003;2.841891e-002
2.462756e+003;2.858432e-002
2.464684e+003;2.869410e-002
2.466613e+003;2.868147e-002
2.468542e+003;2.858248e-002
2.470470e+003;2.866788e-002
2.472398e+003;2.905846e-002
2.474327e+003;2.914512e-002
2.476256e+003;2.898892e-002
2.478184e+003;2.936987e-002
2.480113e+003;2.952181e-002
2.482041e+003;2.935983e-002
2.483970e+003;2.964538e-002
2.485898e+003;2.986105e-002
2.487827e+003;2.984647e-002
2.489755e+003;2.997447e-002
2.491684e+003;3.002364e-002
2.493613e+003;3.004434e-002
2.495541e+003;3.004221e-002
2.497470e+003;3.013617e-002
2.499398e+003;3.046367e-002
2.501327e+003;3.069063e-002
2.503255e+003;3.069137e-002
2.505184e+003;3.085335e-002
2.507112e+003;3.098485e-002
2.509041e+003;3.102047e-002
2.510969e+003;3.089063e-002
2.512898e+003;3.080155e-002
2.514827e+003;3.095905e-002
2.516755e+003;3.109691e-002
2.518684e+003;3.122632e-002
2.520612e+003;3.144085e-002
2.522541e+003;3.143561e-002
2.524469e+003;3.122454e-002
2.526398e+003;3.133852e-002
2.528326e+003;3.144284e-002
2.530255e+003;3.163835e-002
2.532184e+003;3.206486e-002
2.534112e+003;3.220814e-002
2.536041e+003;3.215123e-002
2.537969e+003;3.213831e-002
2.539898e+003;3.203357e-002
2.541826e+003;3.219062e-002
2.543755e+003;3.244237e-002
2.545683e+003;3.257849e-002
2.547612e+003;3.247561e-002
2.549541e+003;3.243087e-002
2.551469e+003;3.254385e-002
2.553397e+003;3.261710e-002
2.555326e+003;3.265754e-002
2.557255e+003;3.281153e-002
2.559183e+003;3.304154e-002
2.561112e+003;3.305841e-002
2.563040e+003;3.334068e-002
2.564969e+003;3.344961e-002
2.566897e+003;3.333707e-002
2.568826e+003;3.358128e-002
2.570754e+003;3.375866e-002
2.572683e+003;3.377736e-002
2.574612e+003;3.385726e-002
2.576540e+003;3.382460e-002
2.578469e+003;3.394930e-002
2.580397e+003;3.427564e-002
2.582326e+003;3.445853e-002
2.584254e+003;3.435610e-002
2.586183e+003;3.429238e-002
2.588111e+003;3.442862e-002
2.590040e+003;3.467872e-002
2.591969e+003;3.469085e-002
2.593897e+003;3.480091e-002
2.595826e+003;3.513291e-002
2.597754e+003;3.520833e-002
2.599683e+003;3.511427e-002
2.601611e+003;3.515106e-002
2.603540e+003;3.499117e-002
2.605468e+003;3.487763e-002
2.607397e+003;3.519033e-002
2.609325e+003;3.547614e-002
2.611254e+003;3.558258e-002
2.613183e+003;3.569185e-002
2.615111e+003;3.571552e-002
2.617040e+003;3.567706e-002
2.618968e+003;3.610951e-002
2.620897e+003;3.640003e-002
2.622825e+003;3.613064e-002
2.624754e+003;3.609831e-002
2.626682e+003;3.628673e-002
2.628611e+003;3.630326e-002
2.630540e+003;3.618131e-002
2.632468e+003;3.622482e-002
2.634396e+003;3.634192e-002
2.636325e+003;3.635820e-002
2.638254e+003;3.652043e-002
2.640182e+003;3.662644e-002
2.642111e+003;3.682064e-002
2.644039e+003;3.708613e-002
2.645968e+003;3.714557e-002
2.647896e+003;3.686007e-002
2.649825e+003;3.676392e-002
2.651753e+003;3.690021e-002
2.653682e+003;3.697716e-002
2.655611e+003;3.704041e-002
2.657539e+003;3.708516e-002
2.659468e+003;3.699138e-002
2.661396e+003;3.727802e-002
2.663325e+003;3.770414e-002
2.665253e+003;3.781044e-002
2.667182e+003;3.756861e-002
2.669110e+003;3.748967e-002
2.671039e+003;3.755903e-002
2.672968e+003;3.752941e-002
2.674896e+003;3.764734e-002
2.676825e+003;3.780715e-002
2.678753e+003;3.795596e-002
2.680682e+003;3.826785e-002
2.682610e+003;3.837993e-002
2.684539e+003;3.847101e-002
2.686467e+003;3.856808e-002
2.688396e+003;3.862758e-002
2.690324e+003;3.843604e-002
2.692253e+003;3.844096e-002
2.694182e+003;3.899011e-002
2.696110e+003;3.937706e-002
2.698039e+003;3.959327e-002
2.699967e+003;3.958626e-002
2.701896e+003;3.966238e-002
2.703824e+003;3.987971e-002
2.705753e+003;3.979697e-002
2.707681e+003;3.976873e-002
2.709610e+003;4.001793e-002
2.711539e+003;4.039304e-002
2.713467e+003;4.038519e-002
2.715396e+003;4.022275e-002
2.717324e+003;4.036770e-002
2.719253e+003;4.082780e-002
2.721181e+003;4.105230e-002
2.723110e+003;4.112289e-002
2.725038e+003;4.145955e-002
2.726967e+003;4.166450e-002
2.728896e+003;4.170612e-002
2.730824e+003;4.187728e-002
2.732752e+003;4.214117e-002
2.734681e+003;4.216490e-002
2.736610e+003;4.235302e-002
2.738538e+003;4.286014e-002
2.740467e+003;4.299961e-002
2.742395e+003;4.297847e-002
2.744324e+003;4.294031e-002
2.746252e+003;4.308745e-002
2.748181e+003;4.341755e-002
2.750109e+003;4.378879e-002
2.752038e+003;4.389963e-002
2.753967e+003;4.397886e-002
2.755895e+003;4.401292e-002
2.757824e+003;4.401868e-002
2.759752e+003;4.425250e-002
2.761681e+003;4.454681e-002
2.763609e+003;4.472178e-002
2.765538e+003;4.477305e-002
2.767466e+003;4.469445e-002
2.769395e+003;4.490167e-002
2.771323e+003;4.513373e-002
2.773252e+003;4.510134e-002
2.775181e+003;4.528691e-002
2.777109e+003;4.565994e-002
2.779038e+003;4.596238e-002
2.780966e+003;4.596953e-002
2.782895e+003;4.583566e-002
2.784823e+003;4.617518e-002
2.786752e+003;4.648816e-002
2.788680e+003;4.671431e-002
2.790609e+003;4.681439e-002
2.792538e+003;4.686351e-002
2.794466e+003;4.689910e-002
2.796395e+003;4.715638e-002
2.798323e+003;4.749701e-002
2.800252e+003;4.784612e-002
2.802180e+003;4.815072e-002
2.804109e+003;4.835433e-002
2.806037e+003;4.835370e-002
2.807966e+003;4.855908e-002
2.809895e+003;4.903556e-002
2.811823e+003;4.938829e-002
2.813751e+003;4.949325e-002
2.815680e+003;4.973480e-002
2.817609e+003;4.994956e-002
2.819537e+003;5.001276e-002
2.821466e+003;5.001105e-002
2.823394e+003;5.042809e-002
2.825323e+003;5.097459e-002
2.827251e+003;5.117342e-002
2.829180e+003;5.150513e-002
2.831108e+003;5.148983e-002
2.833037e+003;5.134559e-002
2.834966e+003;5.190183e-002
2.836894e+003;5.263989e-002
2.838823e+003;5.321356e-002
2.840751e+003;5.391453e-002
2.842680e+003;5.466166e-002
2.844608e+003;5.532971e-002
2.846537e+003;5.600844e-002
2.848465e+003;5.622965e-002
2.850394e+003;5.675480e-002
2.852323e+003;5.755983e-002
2.854251e+003;5.797362e-002
2.856180e+003;5.863864e-002
2.858108e+003;5.937700e-002
2.860037e+003;6.004493e-002
2.861965e+003;6.093496e-002
2.863894e+003;6.187461e-002
2.865822e+003;6.288504e-002
2.867751e+003;6.363170e-002
2.869679e+003;6.414559e-002
2.871608e+003;6.499493e-002
2.873536e+003;6.578528e-002
2.875465e+003;6.594998e-002
2.877394e+003;6.591577e-002
2.879322e+003;6.608167e-002
2.881251e+003;6.607545e-002
2.883179e+003;6.571185e-002
2.885108e+003;6.531215e-002
2.887036e+003;6.534762e-002
2.888965e+003;6.561711e-002
2.890893e+003;6.580410e-002
2.892822e+003;6.586105e-002
2.894750e+003;6.578363e-002
2.896679e+003;6.580453e-002
2.898608e+003;6.635964e-002
2.900536e+003;6.668087e-002
2.902465e+003;6.714772e-002
2.904393e+003;6.797064e-002
2.906322e+003;6.852870e-002
2.908250e+003;6.871450e-002
2.910179e+003;6.935319e-002
2.912107e+003;7.056427e-002
2.914036e+003;7.143814e-002
2.915965e+003;7.161597e-002
2.917893e+003;7.206133e-002
2.919822e+003;7.319682e-002
2.921750e+003;7.437995e-002
2.923679e+003;7.486111e-002
2.925607e+003;7.504235e-002
2.927536e+003;7.556126e-002
2.929464e+003;7.634590e-002
2.931393e+003;7.678321e-002
2.933322e+003;7.692689e-002
2.935250e+003;7.675327e-002
2.937178e+003;7.677799e-002
2.939107e+003;7.656404e-002
2.941036e+003;7.594375e-002
2.942964e+003;7.600643e-002
2.944893e+003;7.611661e-002
2.946821e+003;7.587367e-002
2.948750e+003;7.554746e-002
2.950678e+003;7.533401e-002
2.952607e+003;7.552049e-002
2.954535e+003;7.598019e-002
2.956464e+003;7.639417e-002
2.958393e+003;7.635597e-002
2.960321e+003;7.605289e-002
2.962250e+003;7.604349e-002
2.964178e+003;7.582454e-002
2.966107e+003;7.539896e-002
2.968035e+003;7.515193e-002
2.969964e+003;7.470752e-002
2.971892e+003;7.395330e-002
2.973821e+003;7.340197e-002
2.975750e+003;7.317125e-002
2.977678e+003;7.230536e-002
2.979607e+003;7.111146e-002
2.981535e+003;7.075263e-002
2.983464e+003;7.010604e-002
2.985392e+003;6.903507e-002
2.987321e+003;6.820691e-002
2.989249e+003;6.758795e-002
2.991178e+003;6.719019e-002
2.993106e+003;6.666572e-002
2.995035e+003;6.588025e-002
2.996964e+003;6.508260e-002
2.998892e+003;6.492448e-002
3.000821e+003;6.521550e-002
3.002749e+003;6.523506e-002
3.004678e+003;6.510019e-002
3.006606e+003;6.499994e-002
3.008535e+003;6.499270e-002
3.010463e+003;6.498335e-002
3.012392e+003;6.488231e-002
3.014321e+003;6.504912e-002
3.016249e+003;6.539311e-002
3.018177e+003;6.560323e-002
3.020106e+003;6.542516e-002
3.022035e+003;6.530518e-002
3.023963e+003;6.558590e-002
3.025892e+003;6.600691e-002
3.027820e+003;6.638172e-002
3.029749e+003;6.649037e-002
3.031677e+003;6.652108e-002
3.033606e+003;6.684729e-002
3.035534e+003;6.745576e-002
3.037463e+003;6.807558e-002
3.039392e+003;6.809466e-002
3.041320e+003;6.789277e-002
3.043249e+003;6.786356e-002
3.045177e+003;6.809369e-002
3.047106e+003;6.838129e-002
3.049034e+003;6.866552e-002
3.050963e+003;6.889731e-002
3.052891e+003;6.903926e-002
3.054820e+003;6.926706e-002
3.056749e+003;6.935183e-002
3.058677e+003;6.958336e-002
3.060606e+003;6.983962e-002
3.062534e+003;6.980277e-002
3.064463e+003;6.990644e-002
3.066391e+003;7.003976e-002
3.068320e+003;7.011390e-002
3.070248e+003;6.992408e-002
3.072177e+003;6.981187e-002
3.074105e+003;6.964847e-002
3.076034e+003;6.925346e-002
3.077963e+003;6.898955e-002
3.079891e+003;6.896748e-002
3.081820e+003;6.919043e-002
3.083748e+003;6.951251e-002
3.085677e+003;6.939925e-002
3.087605e+003;6.903923e-002
3.089534e+003;6.894791e-002
3.091462e+003;6.851372e-002
3.093391e+003;6.820420e-002
3.095320e+003;6.829489e-002
3.097248e+003;6.842896e-002
3.099177e+003;6.841093e-002
3.101105e+003;6.815543e-002
3.103034e+003;6.794360e-002
3.104962e+003;6.800358e-002
3.106891e+003;6.782428e-002
3.108819e+003;6.739620e-002
3.110748e+003;6.775166e-002
3.112677e+003;6.837714e-002
3.114605e+003;6.832374e-002
3.116533e+003;6.839060e-002
3.118462e+003;6.828993e-002
3.120391e+003;6.822734e-002
3.122319e+003;6.856074e-002
3.124248e+003;6.885293e-002
3.126176e+003;6.907457e-002
3.128105e+003;6.914477e-002
3.130033e+003;6.916991e-002
3.131962e+003;6.922431e-002
3.133890e+003;6.928051e-002
3.135819e+003;6.987219e-002
3.137748e+003;7.042264e-002
3.139676e+003;7.075040e-002
3.141605e+003;7.116541e-002
3.143533e+003;7.163754e-002
3.145462e+003;7.158221e-002
3.147390e+003;7.183269e-002
3.149319e+003;7.284860e-002
3.151247e+003;7.347495e-002
3.153176e+003;7.361790e-002
3.155104e+003;7.426970e-002
3.157033e+003;7.463755e-002
3.158962e+003;7.444637e-002
3.160890e+003;7.476117e-002
3.162819e+003;7.538371e-002
3.164747e+003;7.601713e-002
3.166676e+003;7.647189e-002
3.168604e+003;7.733909e-002
3.170533e+003;7.785565e-002
3.172461e+003;7.793529e-002
3.174390e+003;7.822587e-002
3.176319e+003;7.868085e-002
3.178247e+003;7.901630e-002
3.180176e+003;7.939695e-002
3.182104e+003;7.999200e-002
3.184033e+003;8.063286e-002
3.185961e+003;8.109344e-002
3.187890e+003;8.120935e-002
3.189818e+003;8.134795e-002
3.191747e+003;8.177153e-002
3.193676e+003;8.223524e-002
3.195604e+003;8.247692e-002
3.197532e+003;8.285693e-002
3.199461e+003;8.301888e-002
3.201390e+003;8.309297e-002
3.203318e+003;8.360967e-002
3.205247e+003;8.371244e-002
3.207175e+003;8.399490e-002
3.209104e+003;8.418575e-002
3.211032e+003;8.449428e-002
3.212961e+003;8.495482e-002
3.214889e+003;8.499258e-002
3.216818e+003;8.493178e-002
3.218747e+003;8.476460e-002
3.220675e+003;8.501039e-002
3.222604e+003;8.552901e-002
3.224532e+003;8.574827e-002
3.226461e+003;8.612610e-002
3.228389e+003;8.647422e-002
3.230318e+003;8.678536e-002
3.232246e+003;8.693093e-002
3.234175e+003;8.720411e-002
3.236104e+003;8.745983e-002
3.238032e+003;8.755030e-002
3.239961e+003;8.789786e-002
3.241889e+003;8.851098e-002
3.243818e+003;8.855944e-002
3.245746e+003;8.876560e-002
3.247675e+003;8.933810e-002
3.249603e+003;8.970290e-002
3.251532e+003;8.967121e-002
3.253460e+003;9.007086e-002
3.255389e+003;9.086008e-002
3.257318e+003;9.128809e-002
3.259246e+003;9.097543e-002
3.261175e+003;9.129202e-002
3.263103e+003;9.236224e-002
3.265032e+003;9.325867e-002
3.266960e+003;9.384330e-002
3.268889e+003;9.349210e-002
3.270817e+003;9.293285e-002
3.272746e+003;9.354807e-002
3.274675e+003;9.427591e-002
3.276603e+003;9.459376e-002
3.278531e+003;9.468382e-002
3.280460e+003;9.456908e-002
3.282389e+003;9.455334e-002
3.284317e+003;9.482642e-002
3.286246e+003;9.458967e-002
3.288174e+003;9.386414e-002
3.290103e+003;9.395377e-002
3.292031e+003;9.478792e-002
3.293960e+003;9.489925e-002
3.295888e+003;9.425269e-002
3.297817e+003;9.408987e-002
3.299746e+003;9.397278e-002
3.301674e+003;9.361173e-002
3.303603e+003;9.310353e-002
3.305531e+003;9.285115e-002
3.307460e+003;9.321284e-002
3.309388e+003;9.317268e-002
3.311317e+003;9.230228e-002
3.313245e+003;9.160216e-002
3.315174e+003;9.153629e-002
3.317103e+003;9.104363e-002
3.319031e+003;9.038364e-002
3.320960e+003;9.011351e-002
3.322888e+003;8.992778e-002
3.324817e+003;8.997037e-002
3.326745e+003;8.975598e-002
3.328674e+003;8.898442e-002
3.330602e+003;8.770533e-002
3.332531e+003;8.699209e-002
3.334459e+003;8.704869e-002
3.336388e+003;8.687507e-002
3.338317e+003;8.610239e-002
3.340245e+003;8.530802e-002
3.342174e+003;8.508503e-002
3.344102e+003;8.486675e-002
3.346031e+003;8.423104e-002
3.347959e+003;8.332790e-002
3.349888e+003;8.277622e-002
3.351816e+003;8.214412e-002
3.353745e+003;8.153464e-002
3.355674e+003;8.112858e-002
3.357602e+003;8.052927e-002
3.359531e+003;7.960318e-002
3.361459e+003;7.911655e-002
3.363388e+003;7.869217e-002
3.365316e+003;7.774074e-002
3.367245e+003;7.697040e-002
3.369173e+003;7.672864e-002
3.371102e+003;7.592086e-002
3.373031e+003;7.524011e-002
3.374959e+003;7.474089e-002
3.376887e+003;7.389674e-002
3.378816e+003;7.338812e-002
3.380745e+003;7.300188e-002
3.382673e+003;7.240172e-002
3.384602e+003;7.143521e-002
3.386530e+003;7.068817e-002
3.388459e+003;7.073991e-002
3.390387e+003;7.050047e-002
3.392316e+003;7.004654e-002
3.394244e+003;6.953900e-002
3.396173e+003;6.912270e-002
3.398102e+003;6.836648e-002
3.400030e+003;6.733414e-002
3.401959e+003;6.654356e-002
3.403887e+003;6.630240e-002
3.405816e+003;6.590192e-002
3.407744e+003;6.559857e-002
3.409673e+003;6.502210e-002
3.411601e+003;6.445224e-002
3.413530e+003;6.344924e-002
3.415458e+003;6.268743e-002
3.417387e+003;6.221785e-002
3.419316e+003;6.160533e-002
3.421244e+003;6.084130e-002
3.423173e+003;6.022683e-002
3.425101e+003;5.983519e-002
3.427030e+003;5.921687e-002
3.428958e+003;5.873122e-002
3.430887e+003;5.859286e-002
3.432815e+003;5.803307e-002
3.434744e+003;5.709285e-002
3.436673e+003;5.655812e-002
3.438601e+003;5.669431e-002
3.440530e+003;5.648321e-002
3.442458e+003;5.569753e-002
3.444387e+003;5.473569e-002
3.446315e+003;5.394878e-002
3.448244e+003;5.343544e-002
3.450172e+003;5.316221e-002
3.452101e+003;5.262268e-002
3.454030e+003;5.227233e-002
3.455958e+003;5.221665e-002
3.457886e+003;5.170058e-002
3.459815e+003;5.072832e-002
3.461744e+003;5.019464e-002
3.463672e+003;4.967795e-002
3.465601e+003;4.914600e-002
3.467529e+003;4.867055e-002
3.469458e+003;4.846342e-002
3.471386e+003;4.822506e-002
3.473315e+003;4.776489e-002
3.475243e+003;4.742453e-002
3.477172e+003;4.698463e-002
3.479101e+003;4.684783e-002
3.481029e+003;4.641186e-002
3.482958e+003;4.567275e-002
3.484886e+003;4.533667e-002
3.486815e+003;4.466834e-002
3.488743e+003;4.382720e-002
3.490672e+003;4.373140e-002
3.492600e+003;4.397849e-002
3.494529e+003;4.354672e-002
3.496458e+003;4.273147e-002
3.498386e+003;4.233161e-002
3.500315e+003;4.212514e-002
3.502243e+003;4.178739e-002
3.504172e+003;4.131409e-002
3.506100e+003;4.052342e-002
3.508029e+003;3.988545e-002
3.509957e+003;3.968544e-002
3.511886e+003;3.974262e-002
3.513814e+003;3.969781e-002
3.515743e+003;3.960648e-002
3.517672e+003;3.876011e-002
3.519600e+003;3.810750e-002
3.521529e+003;3.783951e-002
3.523457e+003;3.735240e-002
3.525386e+003;3.710125e-002
3.527314e+003;3.716857e-002
3.529243e+003;3.732373e-002
3.531171e+003;3.715709e-002
3.533100e+003;3.664439e-002
3.535029e+003;3.573764e-002
3.536957e+003;3.472833e-002
3.538885e+003;3.417787e-002
3.540814e+003;3.444168e-002
3.542743e+003;3.472473e-002
3.544671e+003;3.459906e-002
3.546600e+003;3.425635e-002
3.548528e+003;3.379899e-002
3.550457e+003;3.375325e-002
3.552385e+003;3.314051e-002
3.554314e+003;3.249593e-002
3.556242e+003;3.180598e-002
3.558171e+003;3.147152e-002
3.560100e+003;3.140416e-002
3.562028e+003;3.096994e-002
3.563957e+003;3.062200e-002
3.565885e+003;3.045223e-002
3.567814e+003;3.048716e-002
3.569742e+003;3.000017e-002
3.571671e+003;2.917840e-002
3.573599e+003;2.866430e-002
3.575528e+003;2.847098e-002
3.577457e+003;2.799967e-002
3.579385e+003;2.726528e-002
3.581314e+003;2.721074e-002
3.583242e+003;2.723039e-002
3.585171e+003;2.668036e-002
3.587099e+003;2.547371e-002
3.589028e+003;2.477613e-002
3.590956e+003;2.498592e-002
3.592885e+003;2.507974e-002
3.594813e+003;2.448265e-002
3.596742e+003;2.408635e-002
3.598671e+003;2.414194e-002
3.600599e+003;2.393935e-002
3.602528e+003;2.340505e-002
3.604456e+003;2.290074e-002
3.606385e+003;2.197487e-002
3.608313e+003;2.092051e-002
3.610242e+003;2.034000e-002
3.612170e+003;2.036737e-002
3.614099e+003;1.994615e-002
3.616028e+003;1.937093e-002
3.617956e+003;1.854916e-002
3.619885e+003;1.796177e-002
3.621813e+003;1.752752e-002
3.623742e+003;1.697827e-002
3.625670e+003;1.677814e-002
3.627599e+003;1.627995e-002
3.629527e+003;1.556001e-002
3.631456e+003;1.540670e-002
3.633385e+003;1.506812e-002
3.635313e+003;1.465856e-002
3.637241e+003;1.397134e-002
3.639170e+003;1.343973e-002
3.641099e+003;1.293992e-002
3.643027e+003;1.204845e-002
3.644956e+003;1.141944e-002
3.646884e+003;1.137460e-002
3.648813e+003;1.127587e-002
3.650741e+003;1.033185e-002
3.652670e+003;9.638535e-003
3.654598e+003;9.199804e-003
3.656527e+003;8.960361e-003
3.658456e+003;8.979945e-003
3.660384e+003;8.330290e-003
3.662313e+003;7.329454e-003
3.664241e+003;7.096730e-003
3.666170e+003;6.982840e-003
3.668098e+003;6.201801e-003
3.670027e+003;5.563501e-003
3.671955e+003;5.279028e-003
3.673884e+003;4.991759e-003
3.675813e+003;4.772646e-003
3.677741e+003;5.128128e-003
3.679669e+003;4.955361e-003
3.681598e+003;4.399079e-003
3.683527e+003;4.205055e-003
3.685455e+003;3.919765e-003
3.687384e+003;2.910817e-003
3.689312e+003;2.495389e-003
3.691241e+003;3.106799e-003
3.693169e+003;3.340900e-003
3.695098e+003;3.031252e-003
3.697026e+003;2.557345e-003
3.698955e+003;2.498788e-003
3.700884e+003;2.356213e-003
3.702812e+003;1.923543e-003
3.704741e+003;1.657309e-003
3.706669e+003;1.871128e-003
3.708598e+003;1.909565e-003
3.710526e+003;1.424912e-003
3.712455e+003;1.098921e-003
3.714383e+003;1.030464e-003
3.716312e+003;1.248627e-003
3.718240e+003;1.604095e-003
3.720169e+003;1.529773e-003
3.722098e+003;1.530804e-003
3.724026e+003;1.789906e-003
3.725955e+003;1.752944e-003
3.727883e+003;1.601135e-003
3.729812e+003;1.361024e-003
3.731740e+003;9.326969e-004
3.733669e+003;1.189416e-003
3.735597e+003;1.143236e-003
3.737526e+003;9.026139e-004
3.739455e+003;7.330794e-004
3.741383e+003;5.801668e-004
3.743312e+003;-1.087986e-004
3.745240e+003;-6.099668e-004
3.747169e+003;-3.693537e-004
3.749097e+003;-3.026071e-004
3.751026e+003;2.914122e-004
3.752954e+003;1.243676e-003
3.754883e+003;1.770610e-003
3.756812e+003;1.293689e-003
3.758740e+003;7.718139e-004
3.760668e+003;5.992447e-004
3.762597e+003;1.347729e-003
3.764526e+003;1.632331e-003
3.766454e+003;7.652749e-004
3.768383e+003;5.427101e-004
3.770311e+003;1.054710e-003
3.772240e+003;1.097559e-003
3.774168e+003;1.073178e-003
3.776097e+003;1.002865e-003
3.778025e+003;4.575901e-004
3.779954e+003;4.369263e-004
3.781883e+003;8.968035e-004
3.783811e+003;1.032590e-003
3.785740e+003;7.299264e-004
3.787668e+003;9.532514e-004
3.789597e+003;1.260955e-003
3.791525e+003;1.103206e-003
3.793454e+003;8.435167e-004
3.795382e+003;7.142943e-004
3.797311e+003;8.472017e-004
3.799240e+003;1.573334e-003
3.801168e+003;1.798723e-003
3.803097e+003;1.640379e-003
3.805025e+003;1.010637e-003
3.806954e+003;7.375601e-004
3.808882e+003;1.102376e-003
3.810811e+003;9.570370e-004
3.812739e+003;8.182866e-004
3.814668e+003;3.970941e-004
3.816596e+003;-7.653895e-006
3.818525e+003;4.039924e-004
3.820454e+003;6.318617e-004
3.822382e+003;1.913912e-004
3.824311e+003;3.725201e-004
3.826239e+003;7.500399e-004
3.828168e+003;6.416838e-004
3.830096e+003;5.620518e-004
3.832025e+003;6.581428e-004
3.833953e+003;9.474070e-004
3.835882e+003;8.977663e-004
3.837811e+003;5.579378e-004
3.839739e+003;4.580213e-004
3.841667e+003;6.236326e-004
3.843596e+003;9.507277e-004
3.845525e+003;1.237894e-003
3.847453e+003;1.351385e-003
3.849382e+003;1.085368e-003
3.851310e+003;1.299049e-004
3.853239e+003;-5.678773e-004
3.855167e+003;-1.066785e-004
3.857096e+003;3.790863e-004
3.859024e+003;8.035807e-004
3.860953e+003;1.413377e-003
3.862882e+003;1.811699e-003
3.864810e+003;1.242247e-003
3.866739e+003;7.009195e-004
3.868667e+003;7.722122e-004
3.870596e+003;7.747349e-004
3.872524e+003;9.396368e-004
3.874453e+003;1.056836e-003
3.876381e+003;1.591724e-003
3.878310e+003;1.003795e-003
3.880239e+003;5.100335e-004
3.882167e+003;9.252921e-004
3.884096e+003;9.763308e-004
3.886024e+003;8.400640e-004
3.887953e+003;5.310988e-004
3.889881e+003;3.118370e-004
3.891810e+003;1.073875e-003
3.893738e+003;1.749850e-003
3.895667e+003;1.517636e-003
3.897595e+003;6.558200e-004
3.899524e+003;3.138596e-004
3.901453e+003;8.107511e-004
3.903381e+003;1.206494e-003
3.905310e+003;1.209086e-003
3.907238e+003;1.459120e-003
3.909167e+003;1.933361e-003
3.911095e+003;1.636521e-003
3.913024e+003;1.392169e-003
3.914952e+003;1.551553e-003
3.916881e+003;1.950401e-003
3.918810e+003;2.164998e-003
3.920738e+003;1.490339e-003
3.922667e+003;8.818294e-004
3.924595e+003;1.242513e-003
3.926524e+003;1.654914e-003
3.928452e+003;1.780624e-003
3.930381e+003;1.951067e-003
3.932309e+003;1.889065e-003
3.934238e+003;1.867701e-003
3.936167e+003;1.861112e-003
3.938095e+003;2.039976e-003
3.940023e+003;2.077495e-003
3.941952e+003;1.855455e-003
3.943881e+003;1.711993e-003
3.945809e+003;1.268598e-003
3.947738e+003;1.518035e-003
3.949666e+003;1.991242e-003
3.951595e+003;2.034283e-003
3.953523e+003;1.945109e-003
3.955452e+003;1.543539e-003
3.957380e+003;1.450909e-003
3.959309e+003;1.213106e-003
3.961238e+003;7.554501e-004
3.963166e+003;1.357700e-003
3.965095e+003;2.332094e-003
3.967023e+003;2.595776e-003
3.968952e+003;2.737729e-003
3.970880e+003;2.323633e-003
3.972809e+003;1.421588e-003
3.974737e+003;1.195231e-003
3.976666e+003;1.794897e-003
3.978594e+003;1.577856e-003
3.980523e+003;9.810796e-004
3.982452e+003;1.039830e-003
3.984380e+003;1.022792e-003
3.986309e+003;1.024652e-003
3.988237e+003;1.837054e-003
3.990166e+003;2.017372e-003
3.992094e+003;1.455796e-003
3.994023e+003;1.071949e-003
3.995951e+003;4.906277e-004
3.997880e+003;-9.965576e-005
3.999809e+003;2.023967e-004
4.001737e+003;0.000000e+000
