3.992094e+002;0.000000e+000
4.011380e+002;0.000000e+000
4.030665e+002;0.000000e+000
4.049951e+002;0.000000e+000
4.069236e+002;0.000000e+000
4.088522e+002;0.000000e+000
4.107807e+002;0.000000e+000
4.127093e+002;0.000000e+000
4.146378e+002;0.000000e+000
4.165664e+002;0.000000e+000
4.184949e+002;0.000000e+000
4.204235e+002;0.000000e+000
4.223520e+002;0.000000e+000
4.242806e+002;0.000000e+000
4.262091e+002;0.000000e+000
4.281377e+002;0.000000e+000
4.300662e+002;0.000000e+000
4.319948e+002;0.000000e+000
4.339233e+002;0.000000e+000
4.358519e+002;0.000000e+000
4.377804e+002;0.000000e+000
4.397090e+002;0.000000e+000
4.416375e+002;0.000000e+000
4.435660e+002;0.000000e+000
4.454946e+002;0.000000e+000
4.474232e+002;0.000000e+000
4.493517e+002;0.000000e+000
4.512802e+002;0.000000e+000
4.532088e+002;0.000000e+000
4.551373e+002;0.000000e+000
4.570659e+002;0.000000e+000
4.589944e+002;0.000000e+000
4.609230e+002;0.000000e+000
4.628515e+002;0.000000e+000
4.647801e+002;0.000000e+000
4.667086e+002;0.000000e+000
4.686372e+002;0.000000e+000
4.705657e+002;0.000000e+000
4.724943e+002;0.000000e+000
4.744228e+002;0.000000e+000
4.763513e+002;0.000000e+000
4.782799e+002;0.000000e+000
4.802085e+002;0.000000e+000
4.821370e+002;0.000000e+000
4.840656e+002;0.000000e+000
4.859941e+002;0.000000e+000
4.879226e+002;0.000000e+000
4.898512e+002;0.000000e+000
4.917798e+002;0.000000e+000
4.937083e+002;0.000000e+000
4.956368e+002;0.000000e+000
4.975654e+002;0.000000e+000
4.994939e+002;0.000000e+000
5.014225e+002;0.000000e+000
5.033510e+002;0.000000e+000
5.052796e+002;0.000000e+000
5.072081e+002;0.000000e+000
5.091367e+002;0.000000e+000
5.110652e+002;0.000000e+000
5.129938e+002;0.000000e+000
5.149223e+002;0.000000e+000
5.168509e+002;0.000000e+000
5.187794e+002;0.000000e+000
5.207079e+002;0.000000e+000
5.226365e+002;0.000000e+000
5.245651e+002;0.000000e+000
5.264936e+002;0.000000e+000
5.284222e+002;0.000000e+000
5.303507e+002;0.000000e+000
5.322792e+002;0.000000e+000
5.342078e+002;0.000000e+000
5.361364e+002;0.000000e+000
5.380649e+002;0.000000e+000
5.399935e+002;0.000000e+000
5.419220e+002;0.000000e+000
5.438505e+002;0.000000e+000
5.457791e+002;0.000000e+000
5.477076e+002;0.000000e+000
5.496362e+002;0.000000e+000
5.515648e+002;0.000000e+000
5.534933e+002;0.000000e+000
5.554218e+002;0.000000e+000
5.573504e+002;0.000000e+000
5.592789e+002;0.000000e+000
5.612075e+002;0.000000e+000
5.631360e+002;0.000000e+000
5.650646e+002;0.000000e+000
5.669931e+002;0.000000e+000
5.689217e+002;0.000000e+000
5.708502e+002;0.000000e+000
5.727787e+002;0.000000e+000
5.747073e+002;0.000000e+000
5.766359e+002;0.000000e+000
5.785644e+002;0.000000e+000
5.804930e+002;0.000000e+000
5.824215e+002;0.000000e+000
5.843500e+002;0.000000e+000
5.862786e+002;0.000000e+000
5.882072e+002;0.000000e+000
5.901357e+002;0.000000e+000
5.920643e+002;0.000000e+000
5.939928e+002;0.000000e+000
5.959213e+002;0.000000e+000
5.978499e+002;0.000000e+000
5.997784e+002;1.085021e-001
6.017070e+002;1.206174e-001
6.036355e+002;1.319287e-001
6.055641e+002;1.393343e-001
6.074926e+002;1.437133e-001
6.094211e+002;1.430922e-001
6.113497e+002;1.443769e-001
6.132783e+002;1.466764e-001
6.152068e+002;1.444786e-001
6.171354e+002;1.479618e-001
6.190639e+002;1.514084e-001
6.209924e+002;1.484537e-001
6.229210e+002;1.474088e-001
6.248495e+002;1.483953e-001
6.267781e+002;1.481703e-001
6.287067e+002;1.456619e-001
6.306352e+002;1.457618e-001
6.325637e+002;1.482571e-001
6.344923e+002;1.455625e-001
6.364208e+002;1.452790e-001
6.383494e+002;1.470277e-001
6.402780e+002;1.479530e-001
6.422065e+002;1.500214e-001
6.441350e+002;1.557974e-001
6.460636e+002;1.597161e-001
6.479921e+002;1.572175e-001
6.499207e+002;1.536876e-001
6.518492e+002;1.518771e-001
6.537778e+002;1.514867e-001
6.557063e+002;1.537926e-001
6.576349e+002;1.555502e-001
6.595634e+002;1.588525e-001
6.614919e+002;1.603738e-001
6.634205e+002;1.632377e-001
6.653491e+002;1.651563e-001
6.672776e+002;1.617381e-001
6.692062e+002;1.586834e-001
6.711347e+002;1.590163e-001
6.730632e+002;1.605845e-001
6.749918e+002;1.613440e-001
6.769203e+002;1.607048e-001
6.788489e+002;1.619250e-001
6.807775e+002;1.617759e-001
6.827060e+002;1.602045e-001
6.846345e+002;1.601766e-001
6.865631e+002;1.607076e-001
6.884916e+002;1.609092e-001
6.904202e+002;1.624708e-001
6.923488e+002;1.636684e-001
6.942773e+002;1.638273e-001
6.962058e+002;1.637191e-001
6.981344e+002;1.636012e-001
7.000629e+002;1.633962e-001
7.019915e+002;1.626947e-001
7.039200e+002;1.612132e-001
7.058486e+002;1.601306e-001
7.077771e+002;1.587015e-001
7.097057e+002;1.579484e-001
7.116342e+002;1.571183e-001
7.135627e+002;1.554859e-001
7.154913e+002;1.535421e-001
7.174199e+002;1.530622e-001
7.193484e+002;1.530387e-001
7.212770e+002;1.521927e-001
7.232055e+002;1.519021e-001
7.251340e+002;1.513803e-001
7.270626e+002;1.500959e-001
7.289911e+002;1.495460e-001
7.309197e+002;1.493483e-001
7.328483e+002;1.492928e-001
7.347768e+002;1.495605e-001
7.367053e+002;1.506691e-001
7.386339e+002;1.509811e-001
7.405624e+002;1.519238e-001
7.424910e+002;1.533507e-001
7.444196e+002;1.528321e-001
7.463481e+002;1.512517e-001
7.482766e+002;1.504979e-001
7.502052e+002;1.488331e-001
7.521337e+002;1.467922e-001
7.540623e+002;1.454250e-001
7.559908e+002;1.438961e-001
7.579194e+002;1.424278e-001
7.598479e+002;1.422869e-001
7.617765e+002;1.412329e-001
7.637050e+002;1.393021e-001
7.656335e+002;1.378236e-001
7.675621e+002;1.367643e-001
7.694907e+002;1.358652e-001
7.714192e+002;1.352033e-001
7.733478e+002;1.344062e-001
7.752763e+002;1.331698e-001
7.772048e+002;1.316731e-001
7.791334e+002;1.311702e-001
7.810620e+002;1.311736e-001
7.829905e+002;1.307305e-001
7.849191e+002;1.299500e-001
7.868476e+002;1.294984e-001
7.887761e+002;1.288420e-001
7.907047e+002;1.282474e-001
7.926332e+002;1.272879e-001
7.945618e+002;1.255561e-001
7.964903e+002;1.241046e-001
7.984189e+002;1.234247e-001
8.003474e+002;1.229887e-001
8.022759e+002;1.224773e-001
8.042045e+002;1.226896e-001
8.061331e+002;1.229894e-001
8.080616e+002;1.224450e-001
8.099902e+002;1.216389e-001
8.119187e+002;1.211685e-001
8.138472e+002;1.219202e-001
8.157758e+002;1.224321e-001
8.177043e+002;1.223047e-001
8.196329e+002;1.226788e-001
8.215615e+002;1.231855e-001
8.234900e+002;1.234683e-001
8.254185e+002;1.238520e-001
8.273471e+002;1.240639e-001
8.292756e+002;1.233836e-001
8.312042e+002;1.219713e-001
8.331328e+002;1.201509e-001
8.350613e+002;1.185984e-001
8.369898e+002;1.175054e-001
8.389184e+002;1.160902e-001
8.408469e+002;1.150821e-001
8.427755e+002;1.137257e-001
8.447040e+002;1.125546e-001
8.466326e+002;1.122501e-001
8.485611e+002;1.116981e-001
8.504897e+002;1.111130e-001
8.524182e+002;1.112804e-001
8.543467e+002;1.111451e-001
8.562753e+002;1.106863e-001
8.582039e+002;1.101315e-001
8.601324e+002;1.096523e-001
8.620610e+002;1.092509e-001
8.639895e+002;1.091407e-001
8.659180e+002;1.090359e-001
8.678466e+002;1.092362e-001
8.697751e+002;1.094934e-001
8.717037e+002;1.099458e-001
8.736323e+002;1.103012e-001
8.755608e+002;1.101116e-001
8.774893e+002;1.101334e-001
8.794179e+002;1.108571e-001
8.813464e+002;1.114128e-001
8.832750e+002;1.114627e-001
8.852036e+002;1.115293e-001
8.871321e+002;1.115961e-001
8.890606e+002;1.113238e-001
8.909892e+002;1.111302e-001
8.929177e+002;1.110078e-001
8.948463e+002;1.107166e-001
8.967748e+002;1.108359e-001
8.987034e+002;1.111769e-001
9.006319e+002;1.112140e-001
9.025605e+002;1.111839e-001
9.044890e+002;1.112226e-001
9.064175e+002;1.113531e-001
9.083461e+002;1.115651e-001
9.102747e+002;1.118346e-001
9.122032e+002;1.122300e-001
9.141318e+002;1.127211e-001
9.160603e+002;1.131808e-001
9.179888e+002;1.137648e-001
9.199174e+002;1.143555e-001
9.218459e+002;1.146361e-001
9.237745e+002;1.148939e-001
9.257031e+002;1.152929e-001
9.276316e+002;1.156521e-001
9.295601e+002;1.160101e-001
9.314887e+002;1.163091e-001
9.334172e+002;1.164271e-001
9.353458e+002;1.161056e-001
9.372744e+002;1.159932e-001
9.392029e+002;1.158796e-001
9.411314e+002;1.158801e-001
9.430600e+002;1.156654e-001
9.449885e+002;1.155265e-001
9.469171e+002;1.155864e-001
9.488456e+002;1.157561e-001
9.507742e+002;1.159160e-001
9.527027e+002;1.163787e-001
9.546313e+002;1.172918e-001
9.565598e+002;1.178519e-001
9.584883e+002;1.184284e-001
9.604169e+002;1.189787e-001
9.623455e+002;1.195058e-001
9.642740e+002;1.205660e-001
9.662026e+002;1.213506e-001
9.681311e+002;1.216653e-001
9.700596e+002;1.221525e-001
9.719882e+002;1.228056e-001
9.739167e+002;1.233335e-001
9.758453e+002;1.238825e-001
9.777739e+002;1.245594e-001
9.797024e+002;1.251826e-001
9.816309e+002;1.256750e-001
9.835595e+002;1.262723e-001
9.854880e+002;1.275778e-001
9.874166e+002;1.293816e-001
9.893452e+002;1.314714e-001
9.912737e+002;1.333055e-001
9.932022e+002;1.341786e-001
9.951307e+002;1.346611e-001
9.970593e+002;1.354526e-001
9.989879e+002;1.364901e-001
1.000916e+003;1.375427e-001
1.002845e+003;1.387960e-001
1.004773e+003;1.403868e-001
1.006702e+003;1.424186e-001
1.008631e+003;1.443343e-001
1.010559e+003;1.461554e-001
1.012488e+003;1.480000e-001
1.014416e+003;1.495502e-001
1.016345e+003;1.507737e-001
1.018273e+003;1.522102e-001
1.020202e+003;1.540741e-001
1.022130e+003;1.563711e-001
1.024059e+003;1.586758e-001
1.025988e+003;1.614626e-001
1.027916e+003;1.649325e-001
1.029845e+003;1.688116e-001
1.031773e+003;1.722854e-001
1.033702e+003;1.752150e-001
1.035630e+003;1.779635e-001
1.037559e+003;1.803061e-001
1.039487e+003;1.823429e-001
1.041416e+003;1.843564e-001
1.043344e+003;1.857284e-001
1.045273e+003;1.852467e-001
1.047202e+003;1.830512e-001
1.049130e+003;1.804029e-001
1.051059e+003;1.777326e-001
1.052987e+003;1.754912e-001
1.054916e+003;1.742199e-001
1.056844e+003;1.736170e-001
1.058773e+003;1.732400e-001
1.060701e+003;1.735695e-001
1.062630e+003;1.746841e-001
1.064558e+003;1.754066e-001
1.066487e+003;1.754038e-001
1.068416e+003;1.754650e-001
1.070344e+003;1.758270e-001
1.072273e+003;1.764130e-001
1.074201e+003;1.763719e-001
1.076130e+003;1.759569e-001
1.078058e+003;1.760275e-001
1.079987e+003;1.759877e-001
1.081915e+003;1.755539e-001
1.083844e+003;1.751555e-001
1.085773e+003;1.748222e-001
1.087701e+003;1.745034e-001
1.089630e+003;1.745237e-001
1.091558e+003;1.739898e-001
1.093487e+003;1.733692e-001
1.095415e+003;1.728377e-001
1.097344e+003;1.723353e-001
1.099272e+003;1.719928e-001
1.101201e+003;1.713085e-001
1.103129e+003;1.706979e-001
1.105058e+003;1.700033e-001
1.106987e+003;1.690612e-001
1.108915e+003;1.679654e-001
1.110844e+003;1.669728e-001
1.112772e+003;1.661784e-001
1.114701e+003;1.658524e-001
1.116629e+003;1.652475e-001
1.118558e+003;1.646889e-001
1.120486e+003;1.648523e-001
1.122415e+003;1.646801e-001
1.124344e+003;1.642946e-001
1.126272e+003;1.642356e-001
1.128201e+003;1.635145e-001
1.130129e+003;1.627187e-001
1.132058e+003;1.622275e-001
1.133986e+003;1.623833e-001
1.135915e+003;1.630519e-001
1.137843e+003;1.640252e-001
1.139772e+003;1.652535e-001
1.141700e+003;1.661983e-001
1.143629e+003;1.670970e-001
1.145557e+003;1.683473e-001
1.147486e+003;1.699770e-001
1.149415e+003;1.719628e-001
1.151343e+003;1.731377e-001
1.153272e+003;1.730382e-001
1.155200e+003;1.724745e-001
1.157129e+003;1.725676e-001
1.159057e+003;1.728610e-001
1.160986e+003;1.729363e-001
1.162914e+003;1.738618e-001
1.164843e+003;1.756012e-001
1.166771e+003;1.771785e-001
1.168700e+003;1.787856e-001
1.170629e+003;1.801803e-001
1.172557e+003;1.812917e-001
1.174486e+003;1.820592e-001
1.176414e+003;1.824047e-001
1.178343e+003;1.826510e-001
1.180271e+003;1.831884e-001
1.182200e+003;1.841707e-001
1.184128e+003;1.851887e-001
1.186057e+003;1.862113e-001
1.187986e+003;1.874229e-001
1.189914e+003;1.885376e-001
1.191843e+003;1.895769e-001
1.193771e+003;1.907507e-001
1.195700e+003;1.920830e-001
1.197628e+003;1.931512e-001
1.199557e+003;1.944192e-001
1.201485e+003;1.955816e-001
1.203414e+003;1.964362e-001
1.205343e+003;1.974243e-001
1.207271e+003;1.984631e-001
1.209200e+003;1.997411e-001
1.211128e+003;2.011618e-001
1.213057e+003;2.022793e-001
1.214985e+003;2.034755e-001
1.216914e+003;2.051282e-001
1.218842e+003;2.064220e-001
1.220771e+003;2.073018e-001
1.222699e+003;2.080074e-001
1.224628e+003;2.086911e-001
1.226557e+003;2.092569e-001
1.228485e+003;2.098598e-001
1.230414e+003;2.102716e-001
1.232342e+003;2.102610e-001
1.234271e+003;2.097141e-001
1.236199e+003;2.092281e-001
1.238128e+003;2.086777e-001
1.240056e+003;2.076600e-001
1.241985e+003;2.064571e-001
1.243913e+003;2.052054e-001
1.245842e+003;2.034899e-001
1.247771e+003;2.020852e-001
1.249699e+003;2.016638e-001
1.251628e+003;2.010738e-001
1.253556e+003;2.001971e-001
1.255485e+003;1.990361e-001
1.257413e+003;1.976001e-001
1.259342e+003;1.961270e-001
1.261270e+003;1.942018e-001
1.263199e+003;1.919381e-001
1.265127e+003;1.901166e-001
1.267056e+003;1.888199e-001
1.268985e+003;1.878878e-001
1.270913e+003;1.872458e-001
1.272842e+003;1.870659e-001
1.274770e+003;1.868713e-001
1.276699e+003;1.865693e-001
1.278627e+003;1.862519e-001
1.280556e+003;1.857056e-001
1.282484e+003;1.848567e-001
1.284413e+003;1.839677e-001
1.286342e+003;1.832496e-001
1.288270e+003;1.820157e-001
1.290199e+003;1.806849e-001
1.292127e+003;1.795795e-001
1.294056e+003;1.785606e-001
1.295984e+003;1.776768e-001
1.297913e+003;1.766363e-001
1.299841e+003;1.755685e-001
1.301770e+003;1.746273e-001
1.303698e+003;1.737780e-001
1.305627e+003;1.732335e-001
1.307556e+003;1.731093e-001
1.309484e+003;1.733239e-001
1.311413e+003;1.737100e-001
1.313341e+003;1.741190e-001
1.315270e+003;1.744325e-001
1.317198e+003;1.748655e-001
1.319127e+003;1.754493e-001
1.321055e+003;1.760587e-001
1.322984e+003;1.765219e-001
1.324912e+003;1.765600e-001
1.326841e+003;1.760614e-001
1.328770e+003;1.752472e-001
1.330698e+003;1.743561e-001
1.332627e+003;1.732567e-001
1.334555e+003;1.721015e-001
1.336484e+003;1.707940e-001
1.338412e+003;1.693659e-001
1.340341e+003;1.681461e-001
1.342269e+003;1.669611e-001
1.344198e+003;1.657350e-001
1.346126e+003;1.645361e-001
1.348055e+003;1.632610e-001
1.349984e+003;1.622928e-001
1.351912e+003;1.615724e-001
1.353841e+003;1.610145e-001
1.355769e+003;1.608030e-001
1.357698e+003;1.610538e-001
1.359626e+003;1.615343e-001
1.361555e+003;1.621494e-001
1.363483e+003;1.632099e-001
1.365412e+003;1.643629e-001
1.367341e+003;1.652768e-001
1.369269e+003;1.661218e-001
1.371198e+003;1.667832e-001
1.373126e+003;1.669961e-001
1.375055e+003;1.671994e-001
1.376983e+003;1.678990e-001
1.378912e+003;1.688544e-001
1.380840e+003;1.699008e-001
1.382769e+003;1.712278e-001
1.384698e+003;1.721803e-001
1.386626e+003;1.726610e-001
1.388555e+003;1.729179e-001
1.390483e+003;1.727666e-001
1.392412e+003;1.723648e-001
1.394340e+003;1.719516e-001
1.396269e+003;1.718557e-001
1.398197e+003;1.723479e-001
1.400126e+003;1.730351e-001
1.402054e+003;1.734010e-001
1.403983e+003;1.736889e-001
1.405911e+003;1.742205e-001
1.407840e+003;1.746845e-001
1.409769e+003;1.751621e-001
1.411697e+003;1.754437e-001
1.413626e+003;1.757101e-001
1.415554e+003;1.760145e-001
1.417483e+003;1.760218e-001
1.419411e+003;1.759025e-001
1.421340e+003;1.762800e-001
1.423268e+003;1.769228e-001
1.425197e+003;1.778817e-001
1.427125e+003;1.790928e-001
1.429054e+003;1.806431e-001
1.430983e+003;1.830437e-001
1.432911e+003;1.859733e-001
1.434840e+003;1.885209e-001
1.436768e+003;1.904527e-001
1.438697e+003;1.921364e-001
1.440625e+003;1.935858e-001
1.442554e+003;1.948279e-001
1.444482e+003;1.956996e-001
1.446411e+003;1.961813e-001
1.448340e+003;1.967075e-001
1.450268e+003;1.971792e-001
1.452197e+003;1.974273e-001
1.454125e+003;1.972890e-001
1.456054e+003;1.967230e-001
1.457982e+003;1.959339e-001
1.459911e+003;1.950219e-001
1.461839e+003;1.936963e-001
1.463768e+003;1.918320e-001
1.465697e+003;1.901922e-001
1.467625e+003;1.889943e-001
1.469554e+003;1.875236e-001
1.471482e+003;1.860548e-001
1.473411e+003;1.853551e-001
1.475339e+003;1.855204e-001
1.477268e+003;1.865510e-001
1.479196e+003;1.887396e-001
1.481125e+003;1.920725e-001
1.483053e+003;1.967140e-001
1.484982e+003;2.023791e-001
1.486911e+003;2.089210e-001
1.488839e+003;2.162290e-001
1.490768e+003;2.240831e-001
1.492696e+003;2.323651e-001
1.494625e+003;2.405284e-001
1.496553e+003;2.482619e-001
1.498482e+003;2.551284e-001
1.500410e+003;2.613096e-001
1.502339e+003;2.667989e-001
1.504267e+003;2.712438e-001
1.506196e+003;2.748887e-001
1.508125e+003;2.787731e-001
1.510053e+003;2.829296e-001
1.511982e+003;2.857894e-001
1.513910e+003;2.868427e-001
1.515839e+003;2.860674e-001
1.517767e+003;2.833976e-001
1.519696e+003;2.792816e-001
1.521624e+003;2.752003e-001
1.523553e+003;2.721322e-001
1.525481e+003;2.692725e-001
1.527410e+003;2.667816e-001
1.529339e+003;2.642941e-001
1.531267e+003;2.610874e-001
1.533196e+003;2.574823e-001
1.535124e+003;2.539721e-001
1.537053e+003;2.500529e-001
1.538981e+003;2.451402e-001
1.540910e+003;2.402639e-001
1.542838e+003;2.356951e-001
1.544767e+003;2.309638e-001
1.546695e+003;2.257458e-001
1.548624e+003;2.195485e-001
1.550553e+003;2.134227e-001
1.552481e+003;2.075041e-001
1.554410e+003;2.015941e-001
1.556338e+003;1.961706e-001
1.558267e+003;1.905944e-001
1.560195e+003;1.853279e-001
1.562124e+003;1.810077e-001
1.564052e+003;1.771230e-001
1.565981e+003;1.736059e-001
1.567910e+003;1.703233e-001
1.569838e+003;1.679083e-001
1.571767e+003;1.665445e-001
1.573695e+003;1.655620e-001
1.575624e+003;1.649235e-001
1.577552e+003;1.652771e-001
1.579481e+003;1.661884e-001
1.581409e+003;1.673752e-001
1.583338e+003;1.688605e-001
1.585266e+003;1.707166e-001
1.587195e+003;1.732712e-001
1.589124e+003;1.765168e-001
1.591052e+003;1.799568e-001
1.592981e+003;1.835079e-001
1.594909e+003;1.873755e-001
1.596838e+003;1.914139e-001
1.598766e+003;1.959329e-001
1.600695e+003;2.010786e-001
1.602623e+003;2.068000e-001
1.604552e+003;2.136824e-001
1.606480e+003;2.214117e-001
1.608409e+003;2.294800e-001
1.610338e+003;2.375430e-001
1.612266e+003;2.454826e-001
1.614195e+003;2.532281e-001
1.616123e+003;2.604904e-001
1.618052e+003;2.679502e-001
1.619980e+003;2.755401e-001
1.621909e+003;2.830598e-001
1.623837e+003;2.903307e-001
1.625766e+003;2.968821e-001
1.627694e+003;3.027682e-001
1.629623e+003;3.075950e-001
1.631552e+003;3.112785e-001
1.633480e+003;3.143232e-001
1.635409e+003;3.166657e-001
1.637337e+003;3.182631e-001
1.639266e+003;3.189490e-001
1.641194e+003;3.188437e-001
1.643123e+003;3.180417e-001
1.645051e+003;3.160281e-001
1.646980e+003;3.129224e-001
1.648909e+003;3.091898e-001
1.650837e+003;3.043098e-001
1.652766e+003;2.977844e-001
1.654694e+003;2.912451e-001
1.656623e+003;2.848927e-001
1.658551e+003;2.776992e-001
1.660480e+003;2.698688e-001
1.662408e+003;2.619217e-001
1.664337e+003;2.541411e-001
1.666266e+003;2.466093e-001
1.668194e+003;2.388970e-001
1.670123e+003;2.310364e-001
1.672051e+003;2.235568e-001
1.673980e+003;2.159456e-001
1.675908e+003;2.082618e-001
1.677837e+003;2.013393e-001
1.679765e+003;1.942842e-001
1.681694e+003;1.868841e-001
1.683622e+003;1.793726e-001
1.685551e+003;1.721934e-001
1.687479e+003;1.654810e-001
1.689408e+003;1.586573e-001
1.691337e+003;1.517178e-001
1.693265e+003;1.449503e-001
1.695194e+003;1.378631e-001
1.697122e+003;1.308887e-001
1.699051e+003;1.238834e-001
1.700979e+003;1.169837e-001
1.702908e+003;1.109392e-001
1.704836e+003;1.051116e-001
1.706765e+003;9.983823e-002
1.708693e+003;9.529281e-002
1.710622e+003;9.155028e-002
1.712551e+003;8.829405e-002
1.714479e+003;8.526620e-002
1.716408e+003;8.247416e-002
1.718336e+003;8.000383e-002
1.720265e+003;7.827583e-002
1.722193e+003;7.660179e-002
1.724122e+003;7.495756e-002
1.726050e+003;7.352256e-002
1.727979e+003;7.209470e-002
1.729908e+003;7.081678e-002
1.731836e+003;6.959079e-002
1.733765e+003;6.804602e-002
1.735693e+003;6.692989e-002
1.737622e+003;6.599603e-002
1.739550e+003;6.465391e-002
1.741479e+003;6.326584e-002
1.743407e+003;6.212796e-002
1.745336e+003;6.099432e-002
1.747265e+003;5.976446e-002
1.749193e+003;5.853754e-002
1.751122e+003;5.725688e-002
1.753050e+003;5.619326e-002
1.754979e+003;5.529113e-002
1.756907e+003;5.440338e-002
1.758836e+003;5.372524e-002
1.760764e+003;5.301270e-002
1.762693e+003;5.240173e-002
1.764621e+003;5.177691e-002
1.766550e+003;5.121312e-002
1.768479e+003;5.074340e-002
1.770407e+003;5.015454e-002
1.772336e+003;4.944364e-002
1.774264e+003;4.920908e-002
1.776193e+003;4.919769e-002
1.778121e+003;4.912107e-002
1.780050e+003;4.892803e-002
1.781978e+003;4.877575e-002
1.783907e+003;4.852151e-002
1.785835e+003;4.841167e-002
1.787764e+003;4.838474e-002
1.789693e+003;4.823846e-002
1.791621e+003;4.779729e-002
1.793550e+003;4.759978e-002
1.795478e+003;4.753017e-002
1.797407e+003;4.727861e-002
1.799335e+003;4.700232e-002
1.801264e+003;4.683177e-002
1.803192e+003;4.673737e-002
1.805121e+003;4.665916e-002
1.807049e+003;4.657310e-002
1.808978e+003;4.658069e-002
1.810907e+003;4.640453e-002
1.812835e+003;4.622574e-002
1.814764e+003;4.613424e-002
1.816692e+003;4.604898e-002
1.818621e+003;4.600342e-002
1.820549e+003;4.588997e-002
1.822478e+003;4.569583e-002
1.824406e+003;4.559781e-002
1.826335e+003;4.553062e-002
1.828264e+003;4.542904e-002
1.830192e+003;4.525308e-002
1.832121e+003;4.511399e-002
1.834049e+003;4.500045e-002
1.835978e+003;4.498094e-002
1.837906e+003;4.495550e-002
1.839835e+003;4.494826e-002
1.841763e+003;4.477661e-002
1.843692e+003;4.461223e-002
1.845620e+003;4.454860e-002
1.847549e+003;4.453311e-002
1.849478e+003;4.444633e-002
1.851406e+003;4.459251e-002
1.853335e+003;4.463265e-002
1.855263e+003;4.454321e-002
1.857192e+003;4.440805e-002
1.859120e+003;4.440603e-002
1.861049e+003;4.443657e-002
1.862977e+003;4.450712e-002
1.864906e+003;4.449677e-002
1.866834e+003;4.453730e-002
1.868763e+003;4.449787e-002
1.870692e+003;4.459986e-002
1.872620e+003;4.465046e-002
1.874549e+003;4.475520e-002
1.876477e+003;4.474885e-002
1.878406e+003;4.466691e-002
1.880334e+003;4.467264e-002
1.882263e+003;4.473405e-002
1.884191e+003;4.474881e-002
1.886120e+003;4.477478e-002
1.888048e+003;4.479961e-002
1.889977e+003;4.487367e-002
1.891906e+003;4.481996e-002
1.893834e+003;4.473449e-002
1.895763e+003;4.462237e-002
1.897691e+003;4.481534e-002
1.899620e+003;4.502797e-002
1.901548e+003;4.500052e-002
1.903477e+003;4.502493e-002
1.905405e+003;4.488613e-002
1.907334e+003;4.461337e-002
1.909262e+003;4.473213e-002
1.911191e+003;4.486078e-002
1.913120e+003;4.482349e-002
1.915048e+003;4.490814e-002
1.916977e+003;4.499512e-002
1.918905e+003;4.486614e-002
1.920834e+003;4.478073e-002
1.922762e+003;4.479451e-002
1.924691e+003;4.489087e-002
1.926619e+003;4.489359e-002
1.928548e+003;4.491060e-002
1.930477e+003;4.478583e-002
1.932405e+003;4.482635e-002
1.934334e+003;4.483819e-002
1.936262e+003;4.478995e-002
1.938191e+003;4.468689e-002
1.940119e+003;4.483756e-002
1.942048e+003;4.508348e-002
1.943976e+003;4.504066e-002
1.945905e+003;4.491876e-002
1.947833e+003;4.503492e-002
1.949762e+003;4.509076e-002
1.951691e+003;4.508539e-002
1.953619e+003;4.506455e-002
1.955548e+003;4.514851e-002
1.957476e+003;4.529441e-002
1.959405e+003;4.527055e-002
1.961333e+003;4.509756e-002
1.963262e+003;4.502574e-002
1.965190e+003;4.506741e-002
1.967119e+003;4.510528e-002
1.969047e+003;4.511550e-002
1.970976e+003;4.511638e-002
1.972905e+003;4.503981e-002
1.974833e+003;4.516266e-002
1.976762e+003;4.528353e-002
1.978690e+003;4.536816e-002
1.980619e+003;4.545530e-002
1.982547e+003;4.565413e-002
1.984476e+003;4.566233e-002
1.986404e+003;4.550100e-002
1.988333e+003;4.539299e-002
1.990261e+003;4.552760e-002
1.992190e+003;4.551064e-002
1.994119e+003;4.546351e-002
1.996047e+003;4.562468e-002
1.997976e+003;4.581589e-002
1.999904e+003;4.589218e-002
2.001833e+003;4.568453e-002
2.003761e+003;4.538526e-002
2.005690e+003;4.543470e-002
2.007618e+003;4.548709e-002
2.009547e+003;4.549931e-002
2.011476e+003;4.563300e-002
2.013404e+003;4.588607e-002
2.015333e+003;4.598238e-002
2.017261e+003;4.600514e-002
2.019190e+003;4.616243e-002
2.021118e+003;4.621376e-002
2.023047e+003;4.599226e-002
2.024975e+003;4.603064e-002
2.026904e+003;4.626938e-002
2.028833e+003;4.616755e-002
2.030761e+003;4.603701e-002
2.032690e+003;4.626209e-002
2.034618e+003;4.628873e-002
2.036547e+003;4.631336e-002
2.038475e+003;4.635457e-002
2.040404e+003;4.635586e-002
2.042332e+003;4.640877e-002
2.044261e+003;4.648583e-002
2.046189e+003;4.655078e-002
2.048118e+003;4.661898e-002
2.050047e+003;4.672162e-002
2.051975e+003;4.671014e-002
2.053904e+003;4.658708e-002
2.055832e+003;4.649789e-002
2.057761e+003;4.657608e-002
2.059689e+003;4.677516e-002
2.061618e+003;4.692926e-002
2.063546e+003;4.675132e-002
2.065475e+003;4.655226e-002
2.067404e+003;4.670107e-002
2.069332e+003;4.685196e-002
2.071260e+003;4.685174e-002
2.073189e+003;4.669373e-002
2.075118e+003;4.668288e-002
2.077046e+003;4.685189e-002
2.078975e+003;4.691298e-002
2.080903e+003;4.679358e-002
2.082832e+003;4.675804e-002
2.084760e+003;4.675630e-002
2.086689e+003;4.671501e-002
2.088617e+003;4.655122e-002
2.090546e+003;4.641179e-002
2.092475e+003;4.668926e-002
2.094403e+003;4.677335e-002
2.096332e+003;4.664348e-002
2.098260e+003;4.661883e-002
2.100189e+003;4.634278e-002
2.102117e+003;4.629319e-002
2.104046e+003;4.666897e-002
2.105974e+003;4.705187e-002
2.107903e+003;4.698319e-002
2.109832e+003;4.687311e-002
2.111760e+003;4.673509e-002
2.113688e+003;4.662920e-002
2.115617e+003;4.641688e-002
2.117546e+003;4.618262e-002
2.119474e+003;4.617441e-002
2.121403e+003;4.648336e-002
2.123331e+003;4.671981e-002
2.125260e+003;4.663580e-002
2.127188e+003;4.651139e-002
2.129117e+003;4.620275e-002
2.131045e+003;4.617396e-002
2.132974e+003;4.664536e-002
2.134903e+003;4.701195e-002
2.136831e+003;4.704917e-002
2.138760e+003;4.680579e-002
2.140688e+003;4.663418e-002
2.142617e+003;4.646223e-002
2.144545e+003;4.630104e-002
2.146474e+003;4.638908e-002
2.148402e+003;4.637894e-002
2.150331e+003;4.632158e-002
2.152260e+003;4.640998e-002
2.154188e+003;4.635796e-002
2.156117e+003;4.632055e-002
2.158045e+003;4.646426e-002
2.159974e+003;4.663562e-002
2.161902e+003;4.657439e-002
2.163831e+003;4.652836e-002
2.165759e+003;4.665001e-002
2.167688e+003;4.669517e-002
2.169616e+003;4.652843e-002
2.171545e+003;4.650402e-002
2.173474e+003;4.657649e-002
2.175402e+003;4.655724e-002
2.177331e+003;4.649605e-002
2.179259e+003;4.651958e-002
2.181188e+003;4.649310e-002
2.183116e+003;4.662205e-002
2.185045e+003;4.661120e-002
2.186973e+003;4.659098e-002
2.188902e+003;4.678051e-002
2.190831e+003;4.685709e-002
2.192759e+003;4.675439e-002
2.194688e+003;4.675184e-002
2.196616e+003;4.665359e-002
2.198545e+003;4.673837e-002
2.200473e+003;4.688016e-002
2.202402e+003;4.695399e-002
2.204330e+003;4.687994e-002
2.206259e+003;4.665886e-002
2.208188e+003;4.672258e-002
2.210116e+003;4.685702e-002
2.212044e+003;4.679538e-002
2.213973e+003;4.688747e-002
2.215902e+003;4.683225e-002
2.217830e+003;4.670059e-002
2.219759e+003;4.651652e-002
2.221687e+003;4.652006e-002
2.223616e+003;4.669900e-002
2.225544e+003;4.682849e-002
2.227473e+003;4.692988e-002
2.229401e+003;4.690367e-002
2.231330e+003;4.675940e-002
2.233259e+003;4.649432e-002
2.235187e+003;4.653975e-002
2.237116e+003;4.676501e-002
2.239044e+003;4.680989e-002
2.240973e+003;4.683959e-002
2.242901e+003;4.672597e-002
2.244830e+003;4.667251e-002
2.246758e+003;4.681255e-002
2.248687e+003;4.671284e-002
2.250615e+003;4.664145e-002
2.252544e+003;4.674010e-002
2.254473e+003;4.698164e-002
2.256401e+003;4.711863e-002
2.258330e+003;4.712890e-002
2.260258e+003;4.715239e-002
2.262187e+003;4.696396e-002
2.264115e+003;4.661090e-002
2.266044e+003;4.673682e-002
2.267972e+003;4.710113e-002
2.269901e+003;4.707365e-002
2.271830e+003;4.690050e-002
2.273758e+003;4.693346e-002
2.275687e+003;4.714699e-002
2.277615e+003;4.707303e-002
2.279544e+003;4.712894e-002
2.281472e+003;4.722637e-002
2.283401e+003;4.723768e-002
2.285329e+003;4.733289e-002
2.287258e+003;4.721681e-002
2.289187e+003;4.716365e-002
2.291115e+003;4.742276e-002
2.293043e+003;4.756980e-002
2.294972e+003;4.742963e-002
2.296901e+003;4.733304e-002
2.298829e+003;4.733751e-002
2.300758e+003;4.727469e-002
2.302686e+003;4.729324e-002
2.304615e+003;4.728840e-002
2.306543e+003;4.710224e-002
2.308472e+003;4.696037e-002
2.310400e+003;4.686152e-002
2.312329e+003;4.668406e-002
2.314258e+003;4.635575e-002
2.316186e+003;4.632718e-002
2.318115e+003;4.643620e-002
2.320043e+003;4.627978e-002
2.321972e+003;4.597229e-002
2.323900e+003;4.542594e-002
2.325829e+003;4.484825e-002
2.327757e+003;4.465975e-002
2.329686e+003;4.470246e-002
2.331615e+003;4.464704e-002
2.333543e+003;4.445077e-002
2.335472e+003;4.439110e-002
2.337400e+003;4.446403e-002
2.339329e+003;4.467040e-002
2.341257e+003;4.509653e-002
2.343186e+003;4.549997e-002
2.345114e+003;4.615955e-002
2.347043e+003;4.703300e-002
2.348971e+003;4.729741e-002
2.350900e+003;4.672800e-002
2.352829e+003;4.607474e-002
2.354757e+003;4.521881e-002
2.356686e+003;4.439546e-002
2.358614e+003;4.408454e-002
2.360543e+003;4.395627e-002
2.362471e+003;4.400262e-002
2.364400e+003;4.429448e-002
2.366328e+003;4.491321e-002
2.368257e+003;4.553941e-002
2.370186e+003;4.617802e-002
2.372114e+003;4.701845e-002
2.374042e+003;4.761819e-002
2.375971e+003;4.822324e-002
2.377900e+003;4.890367e-002
2.379828e+003;4.922704e-002
2.381757e+003;4.962287e-002
2.383685e+003;5.007259e-002
2.385614e+003;5.034381e-002
2.387542e+003;5.068881e-002
2.389471e+003;5.088777e-002
2.391399e+003;5.072657e-002
2.393328e+003;5.063349e-002
2.395257e+003;5.062541e-002
2.397185e+003;5.073510e-002
2.399114e+003;5.095115e-002
2.401042e+003;5.103432e-002
2.402971e+003;5.113036e-002
2.404899e+003;5.139986e-002
2.406828e+003;5.142425e-002
2.408756e+003;5.145756e-002
2.410685e+003;5.155168e-002
2.412614e+003;5.183294e-002
2.414542e+003;5.232903e-002
2.416471e+003;5.244906e-002
2.418399e+003;5.246379e-002
2.420328e+003;5.258581e-002
2.422256e+003;5.273487e-002
2.424185e+003;5.291183e-002
2.426113e+003;5.302873e-002
2.428042e+003;5.323723e-002
2.429970e+003;5.318427e-002
2.431899e+003;5.327334e-002
2.433828e+003;5.371928e-002
2.435756e+003;5.378389e-002
2.437685e+003;5.371721e-002
2.439613e+003;5.368175e-002
2.441542e+003;5.371118e-002
2.443470e+003;5.398795e-002
2.445399e+003;5.436181e-002
2.447327e+003;5.445326e-002
2.449256e+003;5.438821e-002
2.451185e+003;5.457325e-002
2.453113e+003;5.482451e-002
2.455042e+003;5.500970e-002
2.456970e+003;5.511215e-002
2.458899e+003;5.523695e-002
2.460827e+003;5.540284e-002
2.462756e+003;5.548118e-002
2.464684e+003;5.558206e-002
2.466613e+003;5.580528e-002
2.468542e+003;5.583836e-002
2.470470e+003;5.587057e-002
2.472398e+003;5.619009e-002
2.474327e+003;5.631286e-002
2.476256e+003;5.612893e-002
2.478184e+003;5.634447e-002
2.480113e+003;5.659624e-002
2.482041e+003;5.661187e-002
2.483970e+003;5.694069e-002
2.485898e+003;5.707002e-002
2.487827e+003;5.699064e-002
2.489755e+003;5.707176e-002
2.491684e+003;5.723624e-002
2.493613e+003;5.734138e-002
2.495541e+003;5.719969e-002
2.497470e+003;5.733212e-002
2.499398e+003;5.774996e-002
2.501327e+003;5.785054e-002
2.503255e+003;5.768991e-002
2.505184e+003;5.776370e-002
2.507112e+003;5.792731e-002
2.509041e+003;5.801209e-002
2.510969e+003;5.802399e-002
2.512898e+003;5.820652e-002
2.514827e+003;5.851017e-002
2.516755e+003;5.864421e-002
2.518684e+003;5.867478e-002
2.520612e+003;5.861649e-002
2.522541e+003;5.850418e-002
2.524469e+003;5.859503e-002
2.526398e+003;5.891747e-002
2.528326e+003;5.913382e-002
2.530255e+003;5.933065e-002
2.532184e+003;5.956485e-002
2.534112e+003;5.955991e-002
2.536041e+003;5.949178e-002
2.537969e+003;5.946863e-002
2.539898e+003;5.957139e-002
2.541826e+003;5.991483e-002
2.543755e+003;6.024324e-002
2.545683e+003;6.028785e-002
2.547612e+003;6.019847e-002
2.549541e+003;6.018927e-002
2.551469e+003;6.004561e-002
2.553397e+003;6.007198e-002
2.555326e+003;6.025572e-002
2.557255e+003;6.043185e-002
2.559183e+003;6.073988e-002
2.561112e+003;6.076271e-002
2.563040e+003;6.078081e-002
2.564969e+003;6.090824e-002
2.566897e+003;6.086889e-002
2.568826e+003;6.100550e-002
2.570754e+003;6.141289e-002
2.572683e+003;6.134855e-002
2.574612e+003;6.143232e-002
2.576540e+003;6.170936e-002
2.578469e+003;6.180573e-002
2.580397e+003;6.202777e-002
2.582326e+003;6.214035e-002
2.584254e+003;6.182494e-002
2.586183e+003;6.186453e-002
2.588111e+003;6.227697e-002
2.590040e+003;6.271216e-002
2.591969e+003;6.285536e-002
2.593897e+003;6.291664e-002
2.595826e+003;6.299128e-002
2.597754e+003;6.304377e-002
2.599683e+003;6.316109e-002
2.601611e+003;6.336427e-002
2.603540e+003;6.333357e-002
2.605468e+003;6.319665e-002
2.607397e+003;6.329884e-002
2.609325e+003;6.346358e-002
2.611254e+003;6.353918e-002
2.613183e+003;6.364547e-002
2.615111e+003;6.391636e-002
2.617040e+003;6.371806e-002
2.618968e+003;6.345611e-002
2.620897e+003;6.377950e-002
2.622825e+003;6.387034e-002
2.624754e+003;6.383526e-002
2.626682e+003;6.396466e-002
2.628611e+003;6.429468e-002
2.630540e+003;6.450924e-002
2.632468e+003;6.438536e-002
2.634396e+003;6.427740e-002
2.636325e+003;6.432277e-002
2.638254e+003;6.434851e-002
2.640182e+003;6.425934e-002
2.642111e+003;6.431112e-002
2.644039e+003;6.463219e-002
2.645968e+003;6.484214e-002
2.647896e+003;6.474171e-002
2.649825e+003;6.489608e-002
2.651753e+003;6.519401e-002
2.653682e+003;6.492009e-002
2.655611e+003;6.477221e-002
2.657539e+003;6.490100e-002
2.659468e+003;6.501614e-002
2.661396e+003;6.536749e-002
2.663325e+003;6.560536e-002
2.665253e+003;6.584651e-002
2.667182e+003;6.576030e-002
2.669110e+003;6.565973e-002
2.671039e+003;6.561881e-002
2.672968e+003;6.542238e-002
2.674896e+003;6.556478e-002
2.676825e+003;6.599800e-002
2.678753e+003;6.605589e-002
2.680682e+003;6.598499e-002
2.682610e+003;6.593729e-002
2.684539e+003;6.592876e-002
2.686467e+003;6.615003e-002
2.688396e+003;6.635498e-002
2.690324e+003;6.611057e-002
2.692253e+003;6.620356e-002
2.694182e+003;6.674080e-002
2.696110e+003;6.681452e-002
2.698039e+003;6.680386e-002
2.699967e+003;6.715268e-002
2.701896e+003;6.729832e-002
2.703824e+003;6.725901e-002
2.705753e+003;6.727719e-002
2.707681e+003;6.745367e-002
2.709610e+003;6.788266e-002
2.711539e+003;6.811206e-002
2.713467e+003;6.798576e-002
2.715396e+003;6.788188e-002
2.717324e+003;6.812485e-002
2.719253e+003;6.856350e-002
2.721181e+003;6.858376e-002
2.723110e+003;6.857436e-002
2.725038e+003;6.860890e-002
2.726967e+003;6.883461e-002
2.728896e+003;6.903340e-002
2.730824e+003;6.921934e-002
2.732752e+003;6.944190e-002
2.734681e+003;6.948988e-002
2.736610e+003;6.968781e-002
2.738538e+003;7.004382e-002
2.740467e+003;7.002299e-002
2.742395e+003;6.981686e-002
2.744324e+003;6.989395e-002
2.746252e+003;7.042701e-002
2.748181e+003;7.088730e-002
2.750109e+003;7.106448e-002
2.752038e+003;7.098807e-002
2.753967e+003;7.100548e-002
2.755895e+003;7.109706e-002
2.757824e+003;7.111919e-002
2.759752e+003;7.133785e-002
2.761681e+003;7.171199e-002
2.763609e+003;7.186545e-002
2.765538e+003;7.211825e-002
2.767466e+003;7.227014e-002
2.769395e+003;7.220452e-002
2.771323e+003;7.205046e-002
2.773252e+003;7.209568e-002
2.775181e+003;7.248911e-002
2.777109e+003;7.280769e-002
2.779038e+003;7.310627e-002
2.780966e+003;7.296621e-002
2.782895e+003;7.268197e-002
2.784823e+003;7.313392e-002
2.786752e+003;7.357021e-002
2.788680e+003;7.368852e-002
2.790609e+003;7.402363e-002
2.792538e+003;7.397385e-002
2.794466e+003;7.382443e-002
2.796395e+003;7.404441e-002
2.798323e+003;7.428071e-002
2.800252e+003;7.446489e-002
2.802180e+003;7.483020e-002
2.804109e+003;7.527339e-002
2.806037e+003;7.563663e-002
2.807966e+003;7.592371e-002
2.809895e+003;7.593933e-002
2.811823e+003;7.612696e-002
2.813751e+003;7.649923e-002
2.815680e+003;7.678159e-002
2.817609e+003;7.686009e-002
2.819537e+003;7.678772e-002
2.821466e+003;7.690489e-002
2.823394e+003;7.720715e-002
2.825323e+003;7.752208e-002
2.827251e+003;7.807843e-002
2.829180e+003;7.882119e-002
2.831108e+003;7.905450e-002
2.833037e+003;7.897023e-002
2.834966e+003;7.938183e-002
2.836894e+003;8.013427e-002
2.838823e+003;8.070132e-002
2.840751e+003;8.138407e-002
2.842680e+003;8.231822e-002
2.844608e+003;8.322872e-002
2.846537e+003;8.423474e-002
2.848465e+003;8.510897e-002
2.850394e+003;8.591429e-002
2.852323e+003;8.655252e-002
2.854251e+003;8.673733e-002
2.856180e+003;8.692995e-002
2.858108e+003;8.728152e-002
2.860037e+003;8.783855e-002
2.861965e+003;8.869699e-002
2.863894e+003;8.956063e-002
2.865822e+003;9.038638e-002
2.867751e+003;9.108576e-002
2.869679e+003;9.169226e-002
2.871608e+003;9.255656e-002
2.873536e+003;9.305299e-002
2.875465e+003;9.312931e-002
2.877394e+003;9.286132e-002
2.879322e+003;9.246279e-002
2.881251e+003;9.229708e-002
2.883179e+003;9.185558e-002
2.885108e+003;9.152206e-002
2.887036e+003;9.161837e-002
2.888965e+003;9.200175e-002
2.890893e+003;9.250420e-002
2.892822e+003;9.257817e-002
2.894750e+003;9.250428e-002
2.896679e+003;9.284963e-002
2.898608e+003;9.364869e-002
2.900536e+003;9.409452e-002
2.902465e+003;9.433527e-002
2.904393e+003;9.503838e-002
2.906322e+003;9.598242e-002
2.908250e+003;9.655330e-002
2.910179e+003;9.720016e-002
2.912107e+003;9.844039e-002
2.914036e+003;9.997001e-002
2.915965e+003;1.013971e-001
2.917893e+003;1.025434e-001
2.919822e+003;1.032828e-001
2.921750e+003;1.039996e-001
2.923679e+003;1.044843e-001
2.925607e+003;1.047497e-001
2.927536e+003;1.051845e-001
2.929464e+003;1.054678e-001
2.931393e+003;1.054789e-001
2.933322e+003;1.051942e-001
2.935250e+003;1.048008e-001
2.937178e+003;1.042877e-001
2.939107e+003;1.038720e-001
2.941036e+003;1.031017e-001
2.942964e+003;1.025718e-001
2.944893e+003;1.023786e-001
2.946821e+003;1.020609e-001
2.948750e+003;1.018671e-001
2.950678e+003;1.018572e-001
2.952607e+003;1.019400e-001
2.954535e+003;1.022848e-001
2.956464e+003;1.026621e-001
2.958393e+003;1.027822e-001
2.960321e+003;1.027026e-001
2.962250e+003;1.025283e-001
2.964178e+003;1.020224e-001
2.966107e+003;1.012304e-001
2.968035e+003;1.004414e-001
2.969964e+003;9.958795e-002
2.971892e+003;9.826519e-002
2.973821e+003;9.722747e-002
2.975750e+003;9.683567e-002
2.977678e+003;9.598746e-002
2.979607e+003;9.513592e-002
2.981535e+003;9.468131e-002
2.983464e+003;9.366558e-002
2.985392e+003;9.246168e-002
2.987321e+003;9.145976e-002
2.989249e+003;9.049655e-002
2.991178e+003;9.029850e-002
2.993106e+003;8.991131e-002
2.995035e+003;8.902615e-002
2.996964e+003;8.852418e-002
2.998892e+003;8.847222e-002
3.000821e+003;8.847531e-002
3.002749e+003;8.827603e-002
3.004678e+003;8.800039e-002
3.006606e+003;8.819515e-002
3.008535e+003;8.862457e-002
3.010463e+003;8.881942e-002
3.012392e+003;8.871634e-002
3.014321e+003;8.871349e-002
3.016249e+003;8.889619e-002
3.018177e+003;8.922794e-002
3.020106e+003;8.932723e-002
3.022035e+003;8.939049e-002
3.023963e+003;8.978515e-002
3.025892e+003;9.011538e-002
3.027820e+003;9.055075e-002
3.029749e+003;9.105642e-002
3.031677e+003;9.133241e-002
3.033606e+003;9.161047e-002
3.035534e+003;9.199147e-002
3.037463e+003;9.266134e-002
3.039392e+003;9.304991e-002
3.041320e+003;9.315453e-002
3.043249e+003;9.303563e-002
3.045177e+003;9.325547e-002
3.047106e+003;9.380016e-002
3.049034e+003;9.417588e-002
3.050963e+003;9.425063e-002
3.052891e+003;9.428208e-002
3.054820e+003;9.450544e-002
3.056749e+003;9.468258e-002
3.058677e+003;9.473673e-002
3.060606e+003;9.468605e-002
3.062534e+003;9.497590e-002
3.064463e+003;9.542244e-002
3.066391e+003;9.533685e-002
3.068320e+003;9.506312e-002
3.070248e+003;9.499842e-002
3.072177e+003;9.491570e-002
3.074105e+003;9.478313e-002
3.076034e+003;9.456236e-002
3.077963e+003;9.405457e-002
3.079891e+003;9.367496e-002
3.081820e+003;9.369354e-002
3.083748e+003;9.365564e-002
3.085677e+003;9.349604e-002
3.087605e+003;9.357466e-002
3.089534e+003;9.353681e-002
3.091462e+003;9.314553e-002
3.093391e+003;9.283051e-002
3.095320e+003;9.289066e-002
3.097248e+003;9.313572e-002
3.099177e+003;9.339093e-002
3.101105e+003;9.337134e-002
3.103034e+003;9.289916e-002
3.104962e+003;9.233318e-002
3.106891e+003;9.215535e-002
3.108819e+003;9.229384e-002
3.110748e+003;9.255946e-002
3.112677e+003;9.240986e-002
3.114605e+003;9.214834e-002
3.116533e+003;9.265789e-002
3.118462e+003;9.316951e-002
3.120391e+003;9.310755e-002
3.122319e+003;9.294779e-002
3.124248e+003;9.321789e-002
3.126176e+003;9.363562e-002
3.128105e+003;9.373741e-002
3.130033e+003;9.428456e-002
3.131962e+003;9.480716e-002
3.133890e+003;9.493401e-002
3.135819e+003;9.510201e-002
3.137748e+003;9.527565e-002
3.139676e+003;9.560042e-002
3.141605e+003;9.587374e-002
3.143533e+003;9.618589e-002
3.145462e+003;9.685365e-002
3.147390e+003;9.738442e-002
3.149319e+003;9.791597e-002
3.151247e+003;9.861392e-002
3.153176e+003;9.924556e-002
3.155104e+003;9.997898e-002
3.157033e+003;1.005009e-001
3.158962e+003;1.006059e-001
3.160890e+003;1.006090e-001
3.162819e+003;1.008847e-001
3.164747e+003;1.015355e-001
3.166676e+003;1.020642e-001
3.168604e+003;1.027665e-001
3.170533e+003;1.031985e-001
3.172461e+003;1.036001e-001
3.174390e+003;1.045187e-001
3.176319e+003;1.055106e-001
3.178247e+003;1.060089e-001
3.180176e+003;1.064011e-001
3.182104e+003;1.072738e-001
3.184033e+003;1.080710e-001
3.185961e+003;1.081716e-001
3.187890e+003;1.083629e-001
3.189818e+003;1.089912e-001
3.191747e+003;1.093503e-001
3.193676e+003;1.099044e-001
3.195604e+003;1.106103e-001
3.197532e+003;1.109530e-001
3.199461e+003;1.113150e-001
3.201390e+003;1.119798e-001
3.203318e+003;1.126209e-001
3.205247e+003;1.128550e-001
3.207175e+003;1.129637e-001
3.209104e+003;1.133069e-001
3.211032e+003;1.138739e-001
3.212961e+003;1.141737e-001
3.214889e+003;1.143008e-001
3.216818e+003;1.140914e-001
3.218747e+003;1.142756e-001
3.220675e+003;1.147459e-001
3.222604e+003;1.146602e-001
3.224532e+003;1.151535e-001
3.226461e+003;1.160116e-001
3.228389e+003;1.162321e-001
3.230318e+003;1.163619e-001
3.232246e+003;1.168973e-001
3.234175e+003;1.177270e-001
3.236104e+003;1.180312e-001
3.238032e+003;1.179135e-001
3.239961e+003;1.183193e-001
3.241889e+003;1.190121e-001
3.243818e+003;1.192819e-001
3.245746e+003;1.201122e-001
3.247675e+003;1.208688e-001
3.249603e+003;1.211164e-001
3.251532e+003;1.214644e-001
3.253460e+003;1.221834e-001
3.255389e+003;1.228687e-001
3.257318e+003;1.234000e-001
3.259246e+003;1.234883e-001
3.261175e+003;1.242007e-001
3.263103e+003;1.254796e-001
3.265032e+003;1.259922e-001
3.266960e+003;1.263052e-001
3.268889e+003;1.266814e-001
3.270817e+003;1.270385e-001
3.272746e+003;1.274627e-001
3.274675e+003;1.275073e-001
3.276603e+003;1.277463e-001
3.278531e+003;1.280166e-001
3.280460e+003;1.279377e-001
3.282389e+003;1.281097e-001
3.284317e+003;1.286593e-001
3.286246e+003;1.283571e-001
3.288174e+003;1.275153e-001
3.290103e+003;1.271276e-001
3.292031e+003;1.274959e-001
3.293960e+003;1.276846e-001
3.295888e+003;1.267129e-001
3.297817e+003;1.263284e-001
3.299746e+003;1.263007e-001
3.301674e+003;1.256393e-001
3.303603e+003;1.250414e-001
3.305531e+003;1.250685e-001
3.307460e+003;1.252363e-001
3.309388e+003;1.246359e-001
3.311317e+003;1.237766e-001
3.313245e+003;1.230145e-001
3.315174e+003;1.225728e-001
3.317103e+003;1.227899e-001
3.319031e+003;1.223863e-001
3.320960e+003;1.216514e-001
3.322888e+003;1.208876e-001
3.324817e+003;1.198850e-001
3.326745e+003;1.195300e-001
3.328674e+003;1.191528e-001
3.330602e+003;1.180125e-001
3.332531e+003;1.173563e-001
3.334459e+003;1.170045e-001
3.336388e+003;1.163678e-001
3.338317e+003;1.153723e-001
3.340245e+003;1.142868e-001
3.342174e+003;1.135984e-001
3.344102e+003;1.132541e-001
3.346031e+003;1.127889e-001
3.347959e+003;1.119088e-001
3.349888e+003;1.113425e-001
3.351816e+003;1.110276e-001
3.353745e+003;1.100567e-001
3.355674e+003;1.087858e-001
3.357602e+003;1.082305e-001
3.359531e+003;1.075528e-001
3.361459e+003;1.066161e-001
3.363388e+003;1.057203e-001
3.365316e+003;1.047896e-001
3.367245e+003;1.035257e-001
3.369173e+003;1.025748e-001
3.371102e+003;1.019397e-001
3.373031e+003;1.014571e-001
3.374959e+003;1.009853e-001
3.376887e+003;1.004984e-001
3.378816e+003;9.998474e-002
3.380745e+003;9.876388e-002
3.382673e+003;9.779908e-002
3.384602e+003;9.718524e-002
3.386530e+003;9.653303e-002
3.388459e+003;9.605690e-002
3.390387e+003;9.554067e-002
3.392316e+003;9.532092e-002
3.394244e+003;9.506387e-002
3.396173e+003;9.451672e-002
3.398102e+003;9.342270e-002
3.400030e+003;9.241417e-002
3.401959e+003;9.156734e-002
3.403887e+003;9.072645e-002
3.405816e+003;9.000290e-002
3.407744e+003;8.963235e-002
3.409673e+003;8.875629e-002
3.411601e+003;8.788772e-002
3.413530e+003;8.726900e-002
3.415458e+003;8.649000e-002
3.417387e+003;8.605262e-002
3.419316e+003;8.554301e-002
3.421244e+003;8.474487e-002
3.423173e+003;8.434699e-002
3.425101e+003;8.385063e-002
3.427030e+003;8.300629e-002
3.428958e+003;8.221006e-002
3.430887e+003;8.140953e-002
3.432815e+003;8.057047e-002
3.434744e+003;8.001936e-002
3.436673e+003;7.933036e-002
3.438601e+003;7.899587e-002
3.440530e+003;7.862728e-002
3.442458e+003;7.843973e-002
3.444387e+003;7.782469e-002
3.446315e+003;7.696190e-002
3.448244e+003;7.620332e-002
3.450172e+003;7.573618e-002
3.452101e+003;7.518341e-002
3.454030e+003;7.473208e-002
3.455958e+003;7.419714e-002
3.457886e+003;7.361621e-002
3.459815e+003;7.303496e-002
3.461744e+003;7.271872e-002
3.463672e+003;7.212204e-002
3.465601e+003;7.146576e-002
3.467529e+003;7.104824e-002
3.469458e+003;7.060283e-002
3.471386e+003;7.000220e-002
3.473315e+003;6.936582e-002
3.475243e+003;6.894310e-002
3.477172e+003;6.875102e-002
3.479101e+003;6.873437e-002
3.481029e+003;6.829023e-002
3.482958e+003;6.782316e-002
3.484886e+003;6.778710e-002
3.486815e+003;6.707402e-002
3.488743e+003;6.613707e-002
3.490672e+003;6.578679e-002
3.492600e+003;6.519428e-002
3.494529e+003;6.452473e-002
3.496458e+003;6.402632e-002
3.498386e+003;6.343954e-002
3.500315e+003;6.312653e-002
3.502243e+003;6.300354e-002
3.504172e+003;6.306821e-002
3.506100e+003;6.292027e-002
3.508029e+003;6.226657e-002
3.509957e+003;6.153034e-002
3.511886e+003;6.114058e-002
3.513814e+003;6.110862e-002
3.515743e+003;6.120554e-002
3.517672e+003;6.040706e-002
3.519600e+003;5.965068e-002
3.521529e+003;5.939493e-002
3.523457e+003;5.936868e-002
3.525386e+003;5.909738e-002
3.527314e+003;5.865331e-002
3.529243e+003;5.816189e-002
3.531171e+003;5.795658e-002
3.533100e+003;5.760001e-002
3.535029e+003;5.668627e-002
3.536957e+003;5.601308e-002
3.538885e+003;5.602122e-002
3.540814e+003;5.621593e-002
3.542743e+003;5.580042e-002
3.544671e+003;5.544369e-002
3.546600e+003;5.536855e-002
3.548528e+003;5.471134e-002
3.550457e+003;5.412878e-002
3.552385e+003;5.391202e-002
3.554314e+003;5.391078e-002
3.556242e+003;5.386730e-002
3.558171e+003;5.370728e-002
3.560100e+003;5.352014e-002
3.562028e+003;5.284899e-002
3.563957e+003;5.213172e-002
3.565885e+003;5.186442e-002
3.567814e+003;5.161732e-002
3.569742e+003;5.160168e-002
3.571671e+003;5.125036e-002
3.573599e+003;5.061807e-002
3.575528e+003;5.006779e-002
3.577457e+003;4.976185e-002
3.579385e+003;4.936397e-002
3.581314e+003;4.894880e-002
3.583242e+003;4.867604e-002
3.585171e+003;4.847238e-002
3.587099e+003;4.783861e-002
3.589028e+003;4.747746e-002
3.590956e+003;4.775498e-002
3.592885e+003;4.752192e-002
3.594813e+003;4.698304e-002
3.596742e+003;4.672022e-002
3.598671e+003;4.676926e-002
3.600599e+003;4.639553e-002
3.602528e+003;4.558107e-002
3.604456e+003;4.503415e-002
3.606385e+003;4.438886e-002
3.608313e+003;4.358005e-002
3.610242e+003;4.311274e-002
3.612170e+003;4.305057e-002
3.614099e+003;4.255700e-002
3.616028e+003;4.237983e-002
3.617956e+003;4.186750e-002
3.619885e+003;4.098777e-002
3.621813e+003;4.069911e-002
3.623742e+003;4.058617e-002
3.625670e+003;4.020036e-002
3.627599e+003;3.947111e-002
3.629527e+003;3.883573e-002
3.631456e+003;3.888841e-002
3.633385e+003;3.865615e-002
3.635313e+003;3.748884e-002
3.637241e+003;3.685411e-002
3.639170e+003;3.710606e-002
3.641099e+003;3.695663e-002
3.643027e+003;3.592382e-002
3.644956e+003;3.505025e-002
3.646884e+003;3.478479e-002
3.648813e+003;3.409185e-002
3.650741e+003;3.311620e-002
3.652670e+003;3.237985e-002
3.654598e+003;3.174371e-002
3.656527e+003;3.137869e-002
3.658456e+003;3.073949e-002
3.660384e+003;2.998118e-002
3.662313e+003;2.948308e-002
3.664241e+003;2.923754e-002
3.666170e+003;2.865273e-002
3.668098e+003;2.737223e-002
3.670027e+003;2.650775e-002
3.671955e+003;2.658827e-002
3.673884e+003;2.603786e-002
3.675813e+003;2.507995e-002
3.677741e+003;2.477072e-002
3.679669e+003;2.463134e-002
3.681598e+003;2.446835e-002
3.683527e+003;2.408197e-002
3.685455e+003;2.365521e-002
3.687384e+003;2.273710e-002
3.689312e+003;2.195041e-002
3.691241e+003;2.214168e-002
3.693169e+003;2.238589e-002
3.695098e+003;2.205097e-002
3.697026e+003;2.135436e-002
3.698955e+003;2.162798e-002
3.700884e+003;2.202054e-002
3.702812e+003;2.097075e-002
3.704741e+003;1.985301e-002
3.706669e+003;2.003712e-002
3.708598e+003;2.053523e-002
3.710526e+003;2.025206e-002
3.712455e+003;1.979610e-002
3.714383e+003;1.978747e-002
3.716312e+003;1.979073e-002
3.718240e+003;2.000641e-002
3.720169e+003;2.013633e-002
3.722098e+003;1.964832e-002
3.724026e+003;1.952936e-002
3.725955e+003;1.981240e-002
3.727883e+003;1.997543e-002
3.729812e+003;1.974433e-002
3.731740e+003;1.898367e-002
3.733669e+003;1.886887e-002
3.735597e+003;1.895217e-002
3.737526e+003;1.918701e-002
3.739455e+003;1.954867e-002
3.741383e+003;1.927231e-002
3.743312e+003;1.827472e-002
3.745240e+003;1.777530e-002
3.747169e+003;1.792589e-002
3.749097e+003;1.820816e-002
3.751026e+003;1.859941e-002
3.752954e+003;1.894736e-002
3.754883e+003;1.966326e-002
3.756812e+003;1.953886e-002
3.758740e+003;1.888073e-002
3.760668e+003;1.846410e-002
3.762597e+003;1.894680e-002
3.764526e+003;1.898121e-002
3.766454e+003;1.843479e-002
3.768383e+003;1.845715e-002
3.770311e+003;1.884347e-002
3.772240e+003;1.914077e-002
3.774168e+003;1.927300e-002
3.776097e+003;1.931734e-002
3.778025e+003;1.886219e-002
3.779954e+003;1.889575e-002
3.781883e+003;1.917312e-002
3.783811e+003;1.915625e-002
3.785740e+003;1.898820e-002
3.787668e+003;1.884651e-002
3.789597e+003;1.895760e-002
3.791525e+003;1.911709e-002
3.793454e+003;1.883592e-002
3.795382e+003;1.846403e-002
3.797311e+003;1.832822e-002
3.799240e+003;1.860197e-002
3.801168e+003;1.888271e-002
3.803097e+003;1.925011e-002
3.805025e+003;1.880668e-002
3.806954e+003;1.841940e-002
3.808882e+003;1.895847e-002
3.810811e+003;1.904539e-002
3.812739e+003;1.868231e-002
3.814668e+003;1.832307e-002
3.816596e+003;1.834550e-002
3.818525e+003;1.882257e-002
3.820454e+003;1.870386e-002
3.822382e+003;1.847188e-002
3.824311e+003;1.909133e-002
3.826239e+003;1.928384e-002
3.828168e+003;1.930664e-002
3.830096e+003;1.907610e-002
3.832025e+003;1.899962e-002
3.833953e+003;1.945769e-002
3.835882e+003;1.966441e-002
3.837811e+003;1.946528e-002
3.839739e+003;1.913108e-002
3.841667e+003;1.916948e-002
3.843596e+003;1.931755e-002
3.845525e+003;1.951664e-002
3.847453e+003;1.958007e-002
3.849382e+003;1.913756e-002
3.851310e+003;1.812483e-002
3.853239e+003;1.778900e-002
3.855167e+003;1.847333e-002
3.857096e+003;1.890268e-002
3.859024e+003;1.940101e-002
3.860953e+003;2.020822e-002
3.862882e+003;2.054971e-002
3.864810e+003;2.008678e-002
3.866739e+003;1.972990e-002
3.868667e+003;1.979329e-002
3.870596e+003;1.991271e-002
3.872524e+003;2.001127e-002
3.874453e+003;1.999448e-002
3.876381e+003;2.014741e-002
3.878310e+003;2.006557e-002
3.880239e+003;2.008001e-002
3.882167e+003;1.994650e-002
3.884096e+003;1.917274e-002
3.886024e+003;1.921575e-002
3.887953e+003;2.000485e-002
3.889881e+003;2.003705e-002
3.891810e+003;2.008081e-002
3.893738e+003;2.027491e-002
3.895667e+003;2.035747e-002
3.897595e+003;2.007581e-002
3.899524e+003;2.011405e-002
3.901453e+003;1.983196e-002
3.903381e+003;1.964309e-002
3.905310e+003;1.986786e-002
3.907238e+003;2.038921e-002
3.909167e+003;2.112778e-002
3.911095e+003;2.100813e-002
3.913024e+003;2.039702e-002
3.914952e+003;2.037101e-002
3.916881e+003;2.076466e-002
3.918810e+003;2.097913e-002
3.920738e+003;2.103954e-002
3.922667e+003;2.130933e-002
3.924595e+003;2.113206e-002
3.926524e+003;2.073418e-002
3.928452e+003;2.101053e-002
3.930381e+003;2.130247e-002
3.932309e+003;2.123389e-002
3.934238e+003;2.114827e-002
3.936167e+003;2.085848e-002
3.938095e+003;2.091133e-002
3.940023e+003;2.100386e-002
3.941952e+003;2.119109e-002
3.943881e+003;2.146979e-002
3.945809e+003;2.129931e-002
3.947738e+003;2.092197e-002
3.949666e+003;2.084423e-002
3.951595e+003;2.118629e-002
3.953523e+003;2.145875e-002
3.955452e+003;2.137006e-002
3.957380e+003;2.121131e-002
3.959309e+003;2.049507e-002
3.961238e+003;2.011975e-002
3.963166e+003;2.059286e-002
3.965095e+003;2.078562e-002
3.967023e+003;2.111689e-002
3.968952e+003;2.179838e-002
3.970880e+003;2.155662e-002
3.972809e+003;2.092051e-002
3.974737e+003;2.062945e-002
3.976666e+003;2.106677e-002
3.978594e+003;2.121973e-002
3.980523e+003;2.067695e-002
3.982452e+003;2.070669e-002
3.984380e+003;2.108089e-002
3.986309e+003;2.071754e-002
3.988237e+003;2.097138e-002
3.990166e+003;2.120254e-002
3.992094e+003;2.099551e-002
3.994023e+003;2.064713e-002
3.995951e+003;2.009452e-002
3.997880e+003;2.002289e-002
3.999809e+003;1.982794e-002
4.001737e+003;0.000000e+000
