3.992094e+002;0.000000e+000
4.011380e+002;0.000000e+000
4.030665e+002;0.000000e+000
4.049951e+002;0.000000e+000
4.069236e+002;0.000000e+000
4.088522e+002;0.000000e+000
4.107807e+002;0.000000e+000
4.127093e+002;0.000000e+000
4.146378e+002;0.000000e+000
4.165664e+002;0.000000e+000
4.184949e+002;0.000000e+000
4.204235e+002;0.000000e+000
4.223520e+002;0.000000e+000
4.242806e+002;0.000000e+000
4.262091e+002;0.000000e+000
4.281377e+002;0.000000e+000
4.300662e+002;0.000000e+000
4.319948e+002;0.000000e+000
4.339233e+002;0.000000e+000
4.358519e+002;0.000000e+000
4.377804e+002;0.000000e+000
4.397090e+002;0.000000e+000
4.416375e+002;0.000000e+000
4.435660e+002;0.000000e+000
4.454946e+002;0.000000e+000
4.474232e+002;0.000000e+000
4.493517e+002;0.000000e+000
4.512802e+002;0.000000e+000
4.532088e+002;0.000000e+000
4.551373e+002;0.000000e+000
4.570659e+002;0.000000e+000
4.589944e+002;0.000000e+000
4.609230e+002;0.000000e+000
4.628515e+002;0.000000e+000
4.647801e+002;0.000000e+000
4.667086e+002;0.000000e+000
4.686372e+002;0.000000e+000
4.705657e+002;0.000000e+000
4.724943e+002;0.000000e+000
4.744228e+002;0.000000e+000
4.763513e+002;0.000000e+000
4.782799e+002;0.000000e+000
4.802085e+002;0.000000e+000
4.821370e+002;0.000000e+000
4.840656e+002;0.000000e+000
4.859941e+002;0.000000e+000
4.879226e+002;0.000000e+000
4.898512e+002;0.000000e+000
4.917798e+002;0.000000e+000
4.937083e+002;0.000000e+000
4.956368e+002;0.000000e+000
4.975654e+002;0.000000e+000
4.994939e+002;0.000000e+000
5.014225e+002;0.000000e+000
5.033510e+002;0.000000e+000
5.052796e+002;0.000000e+000
5.072081e+002;0.000000e+000
5.091367e+002;0.000000e+000
5.110652e+002;0.000000e+000
5.129938e+002;0.000000e+000
5.149223e+002;0.000000e+000
5.168509e+002;0.000000e+000
5.187794e+002;0.000000e+000
5.207079e+002;0.000000e+000
5.226365e+002;0.000000e+000
5.245651e+002;0.000000e+000
5.264936e+002;0.000000e+000
5.284222e+002;0.000000e+000
5.303507e+002;0.000000e+000
5.322792e+002;0.000000e+000
5.342078e+002;0.000000e+000
5.361364e+002;0.000000e+000
5.380649e+002;0.000000e+000
5.399935e+002;0.000000e+000
5.419220e+002;0.000000e+000
5.438505e+002;0.000000e+000
5.457791e+002;0.000000e+000
5.477076e+002;0.000000e+000
5.496362e+002;0.000000e+000
5.515648e+002;0.000000e+000
5.534933e+002;0.000000e+000
5.554218e+002;0.000000e+000
5.573504e+002;0.000000e+000
5.592789e+002;0.000000e+000
5.612075e+002;0.000000e+000
5.631360e+002;0.000000e+000
5.650646e+002;0.000000e+000
5.669931e+002;0.000000e+000
5.689217e+002;0.000000e+000
5.708502e+002;0.000000e+000
5.727787e+002;0.000000e+000
5.747073e+002;0.000000e+000
5.766359e+002;0.000000e+000
5.785644e+002;0.000000e+000
5.804930e+002;0.000000e+000
5.824215e+002;0.000000e+000
5.843500e+002;0.000000e+000
5.862786e+002;0.000000e+000
5.882072e+002;0.000000e+000
5.901357e+002;0.000000e+000
5.920643e+002;0.000000e+000
5.939928e+002;0.000000e+000
5.959213e+002;0.000000e+000
5.978499e+002;0.000000e+000
5.997784e+002;1.533892e-001
6.017070e+002;1.506645e-001
6.036355e+002;1.506336e-001
6.055641e+002;1.470395e-001
6.074926e+002;1.486556e-001
6.094211e+002;1.503192e-001
6.113497e+002;1.473600e-001
6.132783e+002;1.457135e-001
6.152068e+002;1.437162e-001
6.171354e+002;1.435337e-001
6.190639e+002;1.459135e-001
6.209924e+002;1.495430e-001
6.229210e+002;1.506598e-001
6.248495e+002;1.495728e-001
6.267781e+002;1.486687e-001
6.287067e+002;1.475425e-001
6.306352e+002;1.495565e-001
6.325637e+002;1.528725e-001
6.344923e+002;1.511083e-001
6.364208e+002;1.477262e-001
6.383494e+002;1.470409e-001
6.402780e+002;1.459076e-001
6.422065e+002;1.431150e-001
6.441350e+002;1.428065e-001
6.460636e+002;1.461636e-001
6.479921e+002;1.463602e-001
6.499207e+002;1.458710e-001
6.518492e+002;1.447481e-001
6.537778e+002;1.436949e-001
6.557063e+002;1.440698e-001
6.576349e+002;1.451797e-001
6.595634e+002;1.426598e-001
6.614919e+002;1.420503e-001
6.634205e+002;1.427819e-001
6.653491e+002;1.410241e-001
6.672776e+002;1.401117e-001
6.692062e+002;1.394106e-001
6.711347e+002;1.377343e-001
6.730632e+002;1.361166e-001
6.749918e+002;1.348920e-001
6.769203e+002;1.351722e-001
6.788489e+002;1.361869e-001
6.807775e+002;1.357928e-001
6.827060e+002;1.337289e-001
6.846345e+002;1.329319e-001
6.865631e+002;1.328681e-001
6.884916e+002;1.336095e-001
6.904202e+002;1.345706e-001
6.923488e+002;1.335576e-001
6.942773e+002;1.319570e-001
6.962058e+002;1.311070e-001
6.981344e+002;1.308403e-001
7.000629e+002;1.301312e-001
7.019915e+002;1.288760e-001
7.039200e+002;1.280535e-001
7.058486e+002;1.275102e-001
7.077771e+002;1.263796e-001
7.097057e+002;1.246742e-001
7.116342e+002;1.229426e-001
7.135627e+002;1.213964e-001
7.154913e+002;1.212428e-001
7.174199e+002;1.218655e-001
7.193484e+002;1.217013e-001
7.212770e+002;1.206328e-001
7.232055e+002;1.192617e-001
7.251340e+002;1.187860e-001
7.270626e+002;1.183771e-001
7.289911e+002;1.181335e-001
7.309197e+002;1.179591e-001
7.328483e+002;1.170962e-001
7.347768e+002;1.161889e-001
7.367053e+002;1.152724e-001
7.386339e+002;1.150047e-001
7.405624e+002;1.146590e-001
7.424910e+002;1.149247e-001
7.444196e+002;1.156121e-001
7.463481e+002;1.152514e-001
7.482766e+002;1.142344e-001
7.502052e+002;1.127491e-001
7.521337e+002;1.119825e-001
7.540623e+002;1.115774e-001
7.559908e+002;1.101407e-001
7.579194e+002;1.090731e-001
7.598479e+002;1.090467e-001
7.617765e+002;1.085158e-001
7.637050e+002;1.072346e-001
7.656335e+002;1.066122e-001
7.675621e+002;1.065154e-001
7.694907e+002;1.063182e-001
7.714192e+002;1.057905e-001
7.733478e+002;1.049588e-001
7.752763e+002;1.039776e-001
7.772048e+002;1.033080e-001
7.791334e+002;1.032204e-001
7.810620e+002;1.029415e-001
7.829905e+002;1.021625e-001
7.849191e+002;1.017057e-001
7.868476e+002;1.010662e-001
7.887761e+002;1.001690e-001
7.907047e+002;9.942295e-002
7.926332e+002;9.900199e-002
7.945618e+002;9.823013e-002
7.964903e+002;9.753819e-002
7.984189e+002;9.729934e-002
8.003474e+002;9.701763e-002
8.022759e+002;9.699621e-002
8.042045e+002;9.707037e-002
8.061331e+002;9.674769e-002
8.080616e+002;9.570978e-002
8.099902e+002;9.529331e-002
8.119187e+002;9.518695e-002
8.138472e+002;9.504114e-002
8.157758e+002;9.523270e-002
8.177043e+002;9.549423e-002
8.196329e+002;9.545422e-002
8.215615e+002;9.563891e-002
8.234900e+002;9.548040e-002
8.254185e+002;9.452064e-002
8.273471e+002;9.448439e-002
8.292756e+002;9.490354e-002
8.312042e+002;9.532954e-002
8.331328e+002;9.506151e-002
8.350613e+002;9.422293e-002
8.369898e+002;9.372076e-002
8.389184e+002;9.330019e-002
8.408469e+002;9.258296e-002
8.427755e+002;9.234777e-002
8.447040e+002;9.257021e-002
8.466326e+002;9.287905e-002
8.485611e+002;9.325431e-002
8.504897e+002;9.293844e-002
8.524182e+002;9.170347e-002
8.543467e+002;9.110497e-002
8.562753e+002;9.080233e-002
8.582039e+002;9.021884e-002
8.601324e+002;8.980793e-002
8.620610e+002;8.946425e-002
8.639895e+002;8.949959e-002
8.659180e+002;8.959301e-002
8.678466e+002;8.962693e-002
8.697751e+002;8.943120e-002
8.717037e+002;8.928315e-002
8.736323e+002;8.917882e-002
8.755608e+002;8.907687e-002
8.774893e+002;8.919908e-002
8.794179e+002;8.945297e-002
8.813464e+002;8.968937e-002
8.832750e+002;8.982158e-002
8.852036e+002;8.972526e-002
8.871321e+002;8.933525e-002
8.890606e+002;8.881950e-002
8.909892e+002;8.847458e-002
8.929177e+002;8.853588e-002
8.948463e+002;8.864229e-002
8.967748e+002;8.864367e-002
8.987034e+002;8.857468e-002
9.006319e+002;8.892883e-002
9.025605e+002;8.911865e-002
9.044890e+002;8.881064e-002
9.064175e+002;8.882735e-002
9.083461e+002;8.924083e-002
9.102747e+002;8.940767e-002
9.122032e+002;8.948684e-002
9.141318e+002;8.959410e-002
9.160603e+002;8.952488e-002
9.179888e+002;8.985377e-002
9.199174e+002;9.025836e-002
9.218459e+002;8.983800e-002
9.237745e+002;8.964681e-002
9.257031e+002;8.993829e-002
9.276316e+002;9.013610e-002
9.295601e+002;9.015168e-002
9.314887e+002;9.023711e-002
9.334172e+002;9.031433e-002
9.353458e+002;9.018058e-002
9.372744e+002;8.972119e-002
9.392029e+002;8.947891e-002
9.411314e+002;8.940258e-002
9.430600e+002;8.912975e-002
9.449885e+002;8.879613e-002
9.469171e+002;8.880320e-002
9.488456e+002;8.889366e-002
9.507742e+002;8.900191e-002
9.527027e+002;8.910665e-002
9.546313e+002;8.924018e-002
9.565598e+002;8.913952e-002
9.584883e+002;8.931690e-002
9.604169e+002;8.978894e-002
9.623455e+002;9.026533e-002
9.642740e+002;9.043884e-002
9.662026e+002;9.041905e-002
9.681311e+002;9.066901e-002
9.700596e+002;9.119137e-002
9.719882e+002;9.152059e-002
9.739167e+002;9.170131e-002
9.758453e+002;9.212999e-002
9.777739e+002;9.253605e-002
9.797024e+002;9.282830e-002
9.816309e+002;9.315379e-002
9.835595e+002;9.345881e-002
9.854880e+002;9.375098e-002
9.874166e+002;9.431271e-002
9.893452e+002;9.474275e-002
9.912737e+002;9.489650e-002
9.932022e+002;9.520943e-002
9.951307e+002;9.567083e-002
9.970593e+002;9.609341e-002
9.989879e+002;9.678681e-002
1.000916e+003;9.773999e-002
1.002845e+003;9.852985e-002
1.004773e+003;9.965338e-002
1.006702e+003;1.006958e-001
1.008631e+003;1.014101e-001
1.010559e+003;1.022869e-001
1.012488e+003;1.032060e-001
1.014416e+003;1.041030e-001
1.016345e+003;1.050821e-001
1.018273e+003;1.055748e-001
1.020202e+003;1.057346e-001
1.022130e+003;1.061044e-001
1.024059e+003;1.061774e-001
1.025988e+003;1.061456e-001
1.027916e+003;1.069914e-001
1.029845e+003;1.080326e-001
1.031773e+003;1.093859e-001
1.033702e+003;1.112628e-001
1.035630e+003;1.130792e-001
1.037559e+003;1.147686e-001
1.039487e+003;1.159227e-001
1.041416e+003;1.165682e-001
1.043344e+003;1.163643e-001
1.045273e+003;1.149780e-001
1.047202e+003;1.134454e-001
1.049130e+003;1.124020e-001
1.051059e+003;1.116405e-001
1.052987e+003;1.112592e-001
1.054916e+003;1.111361e-001
1.056844e+003;1.108746e-001
1.058773e+003;1.104242e-001
1.060701e+003;1.101222e-001
1.062630e+003;1.105494e-001
1.064558e+003;1.111646e-001
1.066487e+003;1.111637e-001
1.068416e+003;1.110682e-001
1.070344e+003;1.115172e-001
1.072273e+003;1.118183e-001
1.074201e+003;1.116159e-001
1.076130e+003;1.116526e-001
1.078058e+003;1.123192e-001
1.079987e+003;1.127561e-001
1.081915e+003;1.124560e-001
1.083844e+003;1.114960e-001
1.085773e+003;1.106280e-001
1.087701e+003;1.101203e-001
1.089630e+003;1.095231e-001
1.091558e+003;1.089718e-001
1.093487e+003;1.087245e-001
1.095415e+003;1.087745e-001
1.097344e+003;1.090157e-001
1.099272e+003;1.093879e-001
1.101201e+003;1.096852e-001
1.103129e+003;1.095220e-001
1.105058e+003;1.093042e-001
1.106987e+003;1.097369e-001
1.108915e+003;1.103200e-001
1.110844e+003;1.107904e-001
1.112772e+003;1.110454e-001
1.114701e+003;1.111284e-001
1.116629e+003;1.119065e-001
1.118558e+003;1.132614e-001
1.120486e+003;1.144408e-001
1.122415e+003;1.150556e-001
1.124344e+003;1.154949e-001
1.126272e+003;1.162573e-001
1.128201e+003;1.168910e-001
1.130129e+003;1.170243e-001
1.132058e+003;1.165452e-001
1.133986e+003;1.162334e-001
1.135915e+003;1.155624e-001
1.137843e+003;1.148019e-001
1.139772e+003;1.144499e-001
1.141700e+003;1.144029e-001
1.143629e+003;1.142825e-001
1.145557e+003;1.143057e-001
1.147486e+003;1.145870e-001
1.149415e+003;1.151636e-001
1.151343e+003;1.157188e-001
1.153272e+003;1.162846e-001
1.155200e+003;1.167497e-001
1.157129e+003;1.175410e-001
1.159057e+003;1.186914e-001
1.160986e+003;1.192713e-001
1.162914e+003;1.197702e-001
1.164843e+003;1.207397e-001
1.166771e+003;1.214641e-001
1.168700e+003;1.223752e-001
1.170629e+003;1.233241e-001
1.172557e+003;1.239702e-001
1.174486e+003;1.244665e-001
1.176414e+003;1.248676e-001
1.178343e+003;1.255164e-001
1.180271e+003;1.257683e-001
1.182200e+003;1.260989e-001
1.184128e+003;1.268720e-001
1.186057e+003;1.273650e-001
1.187986e+003;1.277337e-001
1.189914e+003;1.281463e-001
1.191843e+003;1.282656e-001
1.193771e+003;1.287152e-001
1.195700e+003;1.294243e-001
1.197628e+003;1.300657e-001
1.199557e+003;1.306577e-001
1.201485e+003;1.312414e-001
1.203414e+003;1.318440e-001
1.205343e+003;1.325568e-001
1.207271e+003;1.333308e-001
1.209200e+003;1.340022e-001
1.211128e+003;1.347753e-001
1.213057e+003;1.357182e-001
1.214985e+003;1.366549e-001
1.216914e+003;1.376912e-001
1.218842e+003;1.386610e-001
1.220771e+003;1.392442e-001
1.222699e+003;1.397561e-001
1.224628e+003;1.401884e-001
1.226557e+003;1.407750e-001
1.228485e+003;1.412137e-001
1.230414e+003;1.414638e-001
1.232342e+003;1.414157e-001
1.234271e+003;1.408357e-001
1.236199e+003;1.401356e-001
1.238128e+003;1.396538e-001
1.240056e+003;1.391877e-001
1.241985e+003;1.387634e-001
1.243913e+003;1.380867e-001
1.245842e+003;1.372110e-001
1.247771e+003;1.362713e-001
1.249699e+003;1.353660e-001
1.251628e+003;1.344977e-001
1.253556e+003;1.336838e-001
1.255485e+003;1.332137e-001
1.257413e+003;1.326062e-001
1.259342e+003;1.317466e-001
1.261270e+003;1.307986e-001
1.263199e+003;1.299191e-001
1.265127e+003;1.292633e-001
1.267056e+003;1.286499e-001
1.268985e+003;1.279797e-001
1.270913e+003;1.272989e-001
1.272842e+003;1.265780e-001
1.274770e+003;1.262855e-001
1.276699e+003;1.260641e-001
1.278627e+003;1.258834e-001
1.280556e+003;1.258116e-001
1.282484e+003;1.255255e-001
1.284413e+003;1.250933e-001
1.286342e+003;1.246035e-001
1.288270e+003;1.242862e-001
1.290199e+003;1.240227e-001
1.292127e+003;1.235870e-001
1.294056e+003;1.230327e-001
1.295984e+003;1.225790e-001
1.297913e+003;1.223758e-001
1.299841e+003;1.221563e-001
1.301770e+003;1.217399e-001
1.303698e+003;1.212454e-001
1.305627e+003;1.204733e-001
1.307556e+003;1.199983e-001
1.309484e+003;1.196684e-001
1.311413e+003;1.191596e-001
1.313341e+003;1.185536e-001
1.315270e+003;1.179737e-001
1.317198e+003;1.175262e-001
1.319127e+003;1.168764e-001
1.321055e+003;1.163325e-001
1.322984e+003;1.160798e-001
1.324912e+003;1.156660e-001
1.326841e+003;1.153302e-001
1.328770e+003;1.151501e-001
1.330698e+003;1.149221e-001
1.332627e+003;1.146390e-001
1.334555e+003;1.146410e-001
1.336484e+003;1.147185e-001
1.338412e+003;1.143011e-001
1.340341e+003;1.139130e-001
1.342269e+003;1.136731e-001
1.344198e+003;1.131990e-001
1.346126e+003;1.126659e-001
1.348055e+003;1.121486e-001
1.349984e+003;1.115646e-001
1.351912e+003;1.111051e-001
1.353841e+003;1.110420e-001
1.355769e+003;1.110440e-001
1.357698e+003;1.108143e-001
1.359626e+003;1.106842e-001
1.361555e+003;1.108831e-001
1.363483e+003;1.116842e-001
1.365412e+003;1.129406e-001
1.367341e+003;1.138012e-001
1.369269e+003;1.143907e-001
1.371198e+003;1.147868e-001
1.373126e+003;1.151133e-001
1.375055e+003;1.154791e-001
1.376983e+003;1.159636e-001
1.378912e+003;1.166469e-001
1.380840e+003;1.173182e-001
1.382769e+003;1.180807e-001
1.384698e+003;1.188260e-001
1.386626e+003;1.193579e-001
1.388555e+003;1.199192e-001
1.390483e+003;1.200852e-001
1.392412e+003;1.197244e-001
1.394340e+003;1.190788e-001
1.396269e+003;1.187499e-001
1.398197e+003;1.187467e-001
1.400126e+003;1.188934e-001
1.402054e+003;1.188448e-001
1.403983e+003;1.184931e-001
1.405911e+003;1.183886e-001
1.407840e+003;1.185063e-001
1.409769e+003;1.186166e-001
1.411697e+003;1.185418e-001
1.413626e+003;1.183123e-001
1.415554e+003;1.181718e-001
1.417483e+003;1.173381e-001
1.419411e+003;1.168552e-001
1.421340e+003;1.176975e-001
1.423268e+003;1.186457e-001
1.425197e+003;1.193779e-001
1.427125e+003;1.198781e-001
1.429054e+003;1.205559e-001
1.430983e+003;1.216118e-001
1.432911e+003;1.226988e-001
1.434840e+003;1.233096e-001
1.436768e+003;1.239528e-001
1.438697e+003;1.254410e-001
1.440625e+003;1.266742e-001
1.442554e+003;1.271852e-001
1.444482e+003;1.274243e-001
1.446411e+003;1.276140e-001
1.448340e+003;1.276837e-001
1.450268e+003;1.278607e-001
1.452197e+003;1.276752e-001
1.454125e+003;1.267112e-001
1.456054e+003;1.248208e-001
1.457982e+003;1.244664e-001
1.459911e+003;1.252313e-001
1.461839e+003;1.251859e-001
1.463768e+003;1.245018e-001
1.465697e+003;1.245155e-001
1.467625e+003;1.251956e-001
1.469554e+003;1.250386e-001
1.471482e+003;1.243904e-001
1.473411e+003;1.244389e-001
1.475339e+003;1.253794e-001
1.477268e+003;1.266308e-001
1.479196e+003;1.280648e-001
1.481125e+003;1.297118e-001
1.483053e+003;1.320517e-001
1.484982e+003;1.348439e-001
1.486911e+003;1.378223e-001
1.488839e+003;1.411296e-001
1.490768e+003;1.449079e-001
1.492696e+003;1.487902e-001
1.494625e+003;1.517777e-001
1.496553e+003;1.543996e-001
1.498482e+003;1.575288e-001
1.500410e+003;1.606134e-001
1.502339e+003;1.631558e-001
1.504267e+003;1.641787e-001
1.506196e+003;1.646986e-001
1.508125e+003;1.672670e-001
1.510053e+003;1.701092e-001
1.511982e+003;1.715075e-001
1.513910e+003;1.720150e-001
1.515839e+003;1.716859e-001
1.517767e+003;1.706579e-001
1.519696e+003;1.687103e-001
1.521624e+003;1.670331e-001
1.523553e+003;1.666772e-001
1.525481e+003;1.659477e-001
1.527410e+003;1.652667e-001
1.529339e+003;1.648812e-001
1.531267e+003;1.640552e-001
1.533196e+003;1.628441e-001
1.535124e+003;1.619428e-001
1.537053e+003;1.598464e-001
1.538981e+003;1.564314e-001
1.540910e+003;1.540786e-001
1.542838e+003;1.525716e-001
1.544767e+003;1.504263e-001
1.546695e+003;1.477394e-001
1.548624e+003;1.445704e-001
1.550553e+003;1.414079e-001
1.552481e+003;1.382324e-001
1.554410e+003;1.346867e-001
1.556338e+003;1.311453e-001
1.558267e+003;1.271531e-001
1.560195e+003;1.254588e-001
1.562124e+003;1.255460e-001
1.564052e+003;1.243527e-001
1.565981e+003;1.225427e-001
1.567910e+003;1.207073e-001
1.569838e+003;1.195304e-001
1.571767e+003;1.194556e-001
1.573695e+003;1.186419e-001
1.575624e+003;1.171094e-001
1.577552e+003;1.170972e-001
1.579481e+003;1.176671e-001
1.581409e+003;1.174673e-001
1.583338e+003;1.175010e-001
1.585266e+003;1.178287e-001
1.587195e+003;1.184824e-001
1.589124e+003;1.195736e-001
1.591052e+003;1.211681e-001
1.592981e+003;1.226839e-001
1.594909e+003;1.242629e-001
1.596838e+003;1.261969e-001
1.598766e+003;1.283870e-001
1.600695e+003;1.309611e-001
1.602623e+003;1.340097e-001
1.604552e+003;1.373472e-001
1.606480e+003;1.410914e-001
1.608409e+003;1.452446e-001
1.610338e+003;1.494948e-001
1.612266e+003;1.534852e-001
1.614195e+003;1.568384e-001
1.616123e+003;1.596879e-001
1.618052e+003;1.639841e-001
1.619980e+003;1.685852e-001
1.621909e+003;1.719476e-001
1.623837e+003;1.750914e-001
1.625766e+003;1.780353e-001
1.627694e+003;1.804908e-001
1.629623e+003;1.824941e-001
1.631552e+003;1.837461e-001
1.633480e+003;1.838021e-001
1.635409e+003;1.834137e-001
1.637337e+003;1.844360e-001
1.639266e+003;1.854996e-001
1.641194e+003;1.855109e-001
1.643123e+003;1.846311e-001
1.645051e+003;1.827076e-001
1.646980e+003;1.808571e-001
1.648909e+003;1.792782e-001
1.650837e+003;1.757758e-001
1.652766e+003;1.709460e-001
1.654694e+003;1.690988e-001
1.656623e+003;1.676546e-001
1.658551e+003;1.641731e-001
1.660480e+003;1.600950e-001
1.662408e+003;1.560006e-001
1.664337e+003;1.522582e-001
1.666266e+003;1.482734e-001
1.668194e+003;1.438219e-001
1.670123e+003;1.398844e-001
1.672051e+003;1.364053e-001
1.673980e+003;1.321883e-001
1.675908e+003;1.282383e-001
1.677837e+003;1.252090e-001
1.679765e+003;1.216072e-001
1.681694e+003;1.172254e-001
1.683622e+003;1.121592e-001
1.685551e+003;1.088630e-001
1.687479e+003;1.064399e-001
1.689408e+003;1.029370e-001
1.691337e+003;9.917636e-002
1.693265e+003;9.450243e-002
1.695194e+003;8.886215e-002
1.697122e+003;8.478579e-002
1.699051e+003;8.037402e-002
1.700979e+003;7.619890e-002
1.702908e+003;7.357895e-002
1.704836e+003;7.022887e-002
1.706765e+003;6.723467e-002
1.708693e+003;6.477829e-002
1.710622e+003;6.246670e-002
1.712551e+003;6.001906e-002
1.714479e+003;5.777937e-002
1.716408e+003;5.545441e-002
1.718336e+003;5.431269e-002
1.720265e+003;5.454601e-002
1.722193e+003;5.434829e-002
1.724122e+003;5.389994e-002
1.726050e+003;5.337374e-002
1.727979e+003;5.242483e-002
1.729908e+003;5.133829e-002
1.731836e+003;4.987627e-002
1.733765e+003;4.850651e-002
1.735693e+003;4.899995e-002
1.737622e+003;4.914188e-002
1.739550e+003;4.830060e-002
1.741479e+003;4.825997e-002
1.743407e+003;4.819566e-002
1.745336e+003;4.807809e-002
1.747265e+003;4.792570e-002
1.749193e+003;4.770635e-002
1.751122e+003;4.773190e-002
1.753050e+003;4.845390e-002
1.754979e+003;4.894454e-002
1.756907e+003;4.913962e-002
1.758836e+003;4.935732e-002
1.760764e+003;4.920730e-002
1.762693e+003;4.929392e-002
1.764621e+003;4.985872e-002
1.766550e+003;4.994826e-002
1.768479e+003;4.982115e-002
1.770407e+003;4.934270e-002
1.772336e+003;4.872211e-002
1.774264e+003;4.926913e-002
1.776193e+003;4.987441e-002
1.778121e+003;4.982104e-002
1.780050e+003;4.980573e-002
1.781978e+003;5.002024e-002
1.783907e+003;4.993752e-002
1.785835e+003;4.980592e-002
1.787764e+003;4.991722e-002
1.789693e+003;4.965355e-002
1.791621e+003;4.933643e-002
1.793550e+003;4.963241e-002
1.795478e+003;5.014882e-002
1.797407e+003;5.017143e-002
1.799335e+003;5.008315e-002
1.801264e+003;5.007537e-002
1.803192e+003;5.020896e-002
1.805121e+003;5.025099e-002
1.807049e+003;5.019371e-002
1.808978e+003;5.010445e-002
1.810907e+003;5.004834e-002
1.812835e+003;5.018739e-002
1.814764e+003;5.041455e-002
1.816692e+003;5.054857e-002
1.818621e+003;5.053855e-002
1.820549e+003;5.047778e-002
1.822478e+003;5.039590e-002
1.824406e+003;5.023831e-002
1.826335e+003;5.035118e-002
1.828264e+003;5.029199e-002
1.830192e+003;5.011111e-002
1.832121e+003;5.031836e-002
1.834049e+003;5.043412e-002
1.835978e+003;5.053483e-002
1.837906e+003;5.057407e-002
1.839835e+003;5.049296e-002
1.841763e+003;5.029548e-002
1.843692e+003;4.990091e-002
1.845620e+003;5.017712e-002
1.847549e+003;5.043464e-002
1.849478e+003;5.042932e-002
1.851406e+003;5.055006e-002
1.853335e+003;5.057965e-002
1.855263e+003;5.058125e-002
1.857192e+003;5.058941e-002
1.859120e+003;5.052754e-002
1.861049e+003;5.061457e-002
1.862977e+003;5.081272e-002
1.864906e+003;5.087172e-002
1.866834e+003;5.071328e-002
1.868763e+003;5.063360e-002
1.870692e+003;5.077357e-002
1.872620e+003;5.095283e-002
1.874549e+003;5.103346e-002
1.876477e+003;5.114788e-002
1.878406e+003;5.122352e-002
1.880334e+003;5.123034e-002
1.882263e+003;5.113260e-002
1.884191e+003;5.116812e-002
1.886120e+003;5.115746e-002
1.888048e+003;5.090756e-002
1.889977e+003;5.080672e-002
1.891906e+003;5.119026e-002
1.893834e+003;5.129779e-002
1.895763e+003;5.110360e-002
1.897691e+003;5.100201e-002
1.899620e+003;5.086252e-002
1.901548e+003;5.092209e-002
1.903477e+003;5.128381e-002
1.905405e+003;5.143458e-002
1.907334e+003;5.125752e-002
1.909262e+003;5.121591e-002
1.911191e+003;5.130044e-002
1.913120e+003;5.145603e-002
1.915048e+003;5.126031e-002
1.916977e+003;5.084121e-002
1.918905e+003;5.089780e-002
1.920834e+003;5.100368e-002
1.922762e+003;5.095141e-002
1.924691e+003;5.110927e-002
1.926619e+003;5.126733e-002
1.928548e+003;5.118713e-002
1.930477e+003;5.119981e-002
1.932405e+003;5.126837e-002
1.934334e+003;5.136354e-002
1.936262e+003;5.144835e-002
1.938191e+003;5.145906e-002
1.940119e+003;5.145275e-002
1.942048e+003;5.136148e-002
1.943976e+003;5.132561e-002
1.945905e+003;5.137841e-002
1.947833e+003;5.149833e-002
1.949762e+003;5.167789e-002
1.951691e+003;5.186001e-002
1.953619e+003;5.188518e-002
1.955548e+003;5.175996e-002
1.957476e+003;5.158363e-002
1.959405e+003;5.157538e-002
1.961333e+003;5.176829e-002
1.963262e+003;5.202537e-002
1.965190e+003;5.198866e-002
1.967119e+003;5.185337e-002
1.969047e+003;5.174948e-002
1.970976e+003;5.171420e-002
1.972905e+003;5.174279e-002
1.974833e+003;5.186143e-002
1.976762e+003;5.205014e-002
1.978690e+003;5.203392e-002
1.980619e+003;5.179733e-002
1.982547e+003;5.167106e-002
1.984476e+003;5.182865e-002
1.986404e+003;5.207879e-002
1.988333e+003;5.218324e-002
1.990261e+003;5.220966e-002
1.992190e+003;5.217667e-002
1.994119e+003;5.217032e-002
1.996047e+003;5.228029e-002
1.997976e+003;5.247078e-002
1.999904e+003;5.240693e-002
2.001833e+003;5.214144e-002
2.003761e+003;5.214065e-002
2.005690e+003;5.232555e-002
2.007618e+003;5.240087e-002
2.009547e+003;5.244562e-002
2.011476e+003;5.248880e-002
2.013404e+003;5.241597e-002
2.015333e+003;5.234256e-002
2.017261e+003;5.243384e-002
2.019190e+003;5.255959e-002
2.021118e+003;5.276038e-002
2.023047e+003;5.279192e-002
2.024975e+003;5.270288e-002
2.026904e+003;5.270191e-002
2.028833e+003;5.267673e-002
2.030761e+003;5.268003e-002
2.032690e+003;5.279735e-002
2.034618e+003;5.290385e-002
2.036547e+003;5.293949e-002
2.038475e+003;5.295996e-002
2.040404e+003;5.309556e-002
2.042332e+003;5.321210e-002
2.044261e+003;5.318393e-002
2.046189e+003;5.304123e-002
2.048118e+003;5.280442e-002
2.050047e+003;5.285292e-002
2.051975e+003;5.310686e-002
2.053904e+003;5.316273e-002
2.055832e+003;5.305590e-002
2.057761e+003;5.305647e-002
2.059689e+003;5.296149e-002
2.061618e+003;5.312473e-002
2.063546e+003;5.343870e-002
2.065475e+003;5.351879e-002
2.067404e+003;5.346464e-002
2.069332e+003;5.333844e-002
2.071260e+003;5.340258e-002
2.073189e+003;5.353528e-002
2.075118e+003;5.349990e-002
2.077046e+003;5.349350e-002
2.078975e+003;5.352411e-002
2.080903e+003;5.360868e-002
2.082832e+003;5.354420e-002
2.084760e+003;5.343406e-002
2.086689e+003;5.338332e-002
2.088617e+003;5.335594e-002
2.090546e+003;5.352078e-002
2.092475e+003;5.377223e-002
2.094403e+003;5.392879e-002
2.096332e+003;5.398228e-002
2.098260e+003;5.384536e-002
2.100189e+003;5.367312e-002
2.102117e+003;5.364200e-002
2.104046e+003;5.371733e-002
2.105974e+003;5.380283e-002
2.107903e+003;5.370364e-002
2.109832e+003;5.364039e-002
2.111760e+003;5.358772e-002
2.113688e+003;5.355695e-002
2.115617e+003;5.350822e-002
2.117546e+003;5.347768e-002
2.119474e+003;5.356598e-002
2.121403e+003;5.363934e-002
2.123331e+003;5.363938e-002
2.125260e+003;5.375336e-002
2.127188e+003;5.366157e-002
2.129117e+003;5.343110e-002
2.131045e+003;5.350807e-002
2.132974e+003;5.365801e-002
2.134903e+003;5.382781e-002
2.136831e+003;5.368666e-002
2.138760e+003;5.342477e-002
2.140688e+003;5.349953e-002
2.142617e+003;5.342859e-002
2.144545e+003;5.333443e-002
2.146474e+003;5.332848e-002
2.148402e+003;5.332664e-002
2.150331e+003;5.333743e-002
2.152260e+003;5.334972e-002
2.154188e+003;5.328787e-002
2.156117e+003;5.329371e-002
2.158045e+003;5.344703e-002
2.159974e+003;5.354503e-002
2.161902e+003;5.343031e-002
2.163831e+003;5.336380e-002
2.165759e+003;5.346175e-002
2.167688e+003;5.345055e-002
2.169616e+003;5.329794e-002
2.171545e+003;5.327187e-002
2.173474e+003;5.332035e-002
2.175402e+003;5.322786e-002
2.177331e+003;5.323239e-002
2.179259e+003;5.315480e-002
2.181188e+003;5.295651e-002
2.183116e+003;5.311020e-002
2.185045e+003;5.341349e-002
2.186973e+003;5.348919e-002
2.188902e+003;5.332919e-002
2.190831e+003;5.317359e-002
2.192759e+003;5.308084e-002
2.194688e+003;5.306954e-002
2.196616e+003;5.329412e-002
2.198545e+003;5.327431e-002
2.200473e+003;5.320786e-002
2.202402e+003;5.325565e-002
2.204330e+003;5.318854e-002
2.206259e+003;5.309691e-002
2.208188e+003;5.324445e-002
2.210116e+003;5.318502e-002
2.212044e+003;5.308223e-002
2.213973e+003;5.307897e-002
2.215902e+003;5.297987e-002
2.217830e+003;5.286070e-002
2.219759e+003;5.268732e-002
2.221687e+003;5.257171e-002
2.223616e+003;5.253080e-002
2.225544e+003;5.252818e-002
2.227473e+003;5.264105e-002
2.229401e+003;5.264419e-002
2.231330e+003;5.241026e-002
2.233259e+003;5.206504e-002
2.235187e+003;5.206179e-002
2.237116e+003;5.232294e-002
2.239044e+003;5.238969e-002
2.240973e+003;5.218761e-002
2.242901e+003;5.214345e-002
2.244830e+003;5.221672e-002
2.246758e+003;5.230765e-002
2.248687e+003;5.230667e-002
2.250615e+003;5.233149e-002
2.252544e+003;5.218190e-002
2.254473e+003;5.196098e-002
2.256401e+003;5.177378e-002
2.258330e+003;5.172838e-002
2.260258e+003;5.176146e-002
2.262187e+003;5.184732e-002
2.264115e+003;5.195721e-002
2.266044e+003;5.201372e-002
2.267972e+003;5.189971e-002
2.269901e+003;5.179031e-002
2.271830e+003;5.185721e-002
2.273758e+003;5.186591e-002
2.275687e+003;5.171573e-002
2.277615e+003;5.169233e-002
2.279544e+003;5.181846e-002
2.281472e+003;5.196341e-002
2.283401e+003;5.193854e-002
2.285329e+003;5.186513e-002
2.287258e+003;5.187540e-002
2.289187e+003;5.190773e-002
2.291115e+003;5.184571e-002
2.293043e+003;5.177426e-002
2.294972e+003;5.171200e-002
2.296901e+003;5.164684e-002
2.298829e+003;5.161620e-002
2.300758e+003;5.150386e-002
2.302686e+003;5.146827e-002
2.304615e+003;5.160803e-002
2.306543e+003;5.166243e-002
2.308472e+003;5.158105e-002
2.310400e+003;5.143865e-002
2.312329e+003;5.141195e-002
2.314258e+003;5.147241e-002
2.316186e+003;5.128288e-002
2.318115e+003;5.102329e-002
2.320043e+003;5.098002e-002
2.321972e+003;5.116193e-002
2.323900e+003;5.140851e-002
2.325829e+003;5.122986e-002
2.327757e+003;5.087231e-002
2.329686e+003;5.105947e-002
2.331615e+003;5.135839e-002
2.333543e+003;5.128310e-002
2.335472e+003;5.121439e-002
2.337400e+003;5.124857e-002
2.339329e+003;5.119347e-002
2.341257e+003;5.119392e-002
2.343186e+003;5.133941e-002
2.345114e+003;5.138569e-002
2.347043e+003;5.132464e-002
2.348971e+003;5.129153e-002
2.350900e+003;5.125510e-002
2.352829e+003;5.141981e-002
2.354757e+003;5.146760e-002
2.356686e+003;5.132516e-002
2.358614e+003;5.123083e-002
2.360543e+003;5.127299e-002
2.362471e+003;5.130763e-002
2.364400e+003;5.125200e-002
2.366328e+003;5.127434e-002
2.368257e+003;5.136712e-002
2.370186e+003;5.120592e-002
2.372114e+003;5.112030e-002
2.374042e+003;5.119645e-002
2.375971e+003;5.122277e-002
2.377900e+003;5.117882e-002
2.379828e+003;5.109301e-002
2.381757e+003;5.093766e-002
2.383685e+003;5.116954e-002
2.385614e+003;5.153881e-002
2.387542e+003;5.149058e-002
2.389471e+003;5.152307e-002
2.391399e+003;5.156847e-002
2.393328e+003;5.149692e-002
2.395257e+003;5.148528e-002
2.397185e+003;5.139479e-002
2.399114e+003;5.129566e-002
2.401042e+003;5.132184e-002
2.402971e+003;5.159277e-002
2.404899e+003;5.175511e-002
2.406828e+003;5.154844e-002
2.408756e+003;5.140463e-002
2.410685e+003;5.149002e-002
2.412614e+003;5.161620e-002
2.414542e+003;5.161937e-002
2.416471e+003;5.148002e-002
2.418399e+003;5.152337e-002
2.420328e+003;5.178445e-002
2.422256e+003;5.198571e-002
2.424185e+003;5.227663e-002
2.426113e+003;5.225316e-002
2.428042e+003;5.195157e-002
2.429970e+003;5.189403e-002
2.431899e+003;5.211450e-002
2.433828e+003;5.212993e-002
2.435756e+003;5.204901e-002
2.437685e+003;5.203938e-002
2.439613e+003;5.202578e-002
2.441542e+003;5.203127e-002
2.443470e+003;5.203538e-002
2.445399e+003;5.214775e-002
2.447327e+003;5.221542e-002
2.449256e+003;5.245650e-002
2.451185e+003;5.266379e-002
2.453113e+003;5.251517e-002
2.455042e+003;5.238543e-002
2.456970e+003;5.260630e-002
2.458899e+003;5.271609e-002
2.460827e+003;5.250410e-002
2.462756e+003;5.221444e-002
2.464684e+003;5.230253e-002
2.466613e+003;5.237743e-002
2.468542e+003;5.262642e-002
2.470470e+003;5.289704e-002
2.472398e+003;5.272873e-002
2.474327e+003;5.277318e-002
2.476256e+003;5.284693e-002
2.478184e+003;5.275941e-002
2.480113e+003;5.257919e-002
2.482041e+003;5.259934e-002
2.483970e+003;5.279136e-002
2.485898e+003;5.295333e-002
2.487827e+003;5.319007e-002
2.489755e+003;5.319404e-002
2.491684e+003;5.306208e-002
2.493613e+003;5.292994e-002
2.495541e+003;5.275376e-002
2.497470e+003;5.272413e-002
2.499398e+003;5.271276e-002
2.501327e+003;5.294214e-002
2.503255e+003;5.338153e-002
2.505184e+003;5.326543e-002
2.507112e+003;5.296924e-002
2.509041e+003;5.308691e-002
2.510969e+003;5.312379e-002
2.512898e+003;5.298365e-002
2.514827e+003;5.301588e-002
2.516755e+003;5.330053e-002
2.518684e+003;5.339326e-002
2.520612e+003;5.328146e-002
2.522541e+003;5.318520e-002
2.524469e+003;5.320221e-002
2.526398e+003;5.336006e-002
2.528326e+003;5.348454e-002
2.530255e+003;5.343736e-002
2.532184e+003;5.320861e-002
2.534112e+003;5.299529e-002
2.536041e+003;5.313626e-002
2.537969e+003;5.332080e-002
2.539898e+003;5.338902e-002
2.541826e+003;5.342956e-002
2.543755e+003;5.331979e-002
2.545683e+003;5.317086e-002
2.547612e+003;5.328956e-002
2.549541e+003;5.350421e-002
2.551469e+003;5.342319e-002
2.553397e+003;5.338494e-002
2.555326e+003;5.345291e-002
2.557255e+003;5.346419e-002
2.559183e+003;5.347420e-002
2.561112e+003;5.348375e-002
2.563040e+003;5.338025e-002
2.564969e+003;5.361610e-002
2.566897e+003;5.390013e-002
2.568826e+003;5.385170e-002
2.570754e+003;5.382492e-002
2.572683e+003;5.396398e-002
2.574612e+003;5.393741e-002
2.576540e+003;5.390943e-002
2.578469e+003;5.384202e-002
2.580397e+003;5.393985e-002
2.582326e+003;5.399838e-002
2.584254e+003;5.407200e-002
2.586183e+003;5.404904e-002
2.588111e+003;5.393779e-002
2.590040e+003;5.395332e-002
2.591969e+003;5.401174e-002
2.593897e+003;5.392188e-002
2.595826e+003;5.393970e-002
2.597754e+003;5.403913e-002
2.599683e+003;5.408818e-002
2.601611e+003;5.442562e-002
2.603540e+003;5.462645e-002
2.605468e+003;5.459654e-002
2.607397e+003;5.447211e-002
2.609325e+003;5.433185e-002
2.611254e+003;5.437800e-002
2.613183e+003;5.435535e-002
2.615111e+003;5.414706e-002
2.617040e+003;5.414875e-002
2.618968e+003;5.427669e-002
2.620897e+003;5.428900e-002
2.622825e+003;5.432039e-002
2.624754e+003;5.436399e-002
2.626682e+003;5.437003e-002
2.628611e+003;5.450427e-002
2.630540e+003;5.465925e-002
2.632468e+003;5.469672e-002
2.634396e+003;5.479756e-002
2.636325e+003;5.469138e-002
2.638254e+003;5.475520e-002
2.640182e+003;5.498036e-002
2.642111e+003;5.493945e-002
2.644039e+003;5.491046e-002
2.645968e+003;5.494814e-002
2.647896e+003;5.493719e-002
2.649825e+003;5.472863e-002
2.651753e+003;5.479136e-002
2.653682e+003;5.528526e-002
2.655611e+003;5.533618e-002
2.657539e+003;5.489196e-002
2.659468e+003;5.466474e-002
2.661396e+003;5.473347e-002
2.663325e+003;5.499743e-002
2.665253e+003;5.517377e-002
2.667182e+003;5.533377e-002
2.669110e+003;5.558127e-002
2.671039e+003;5.570205e-002
2.672968e+003;5.556643e-002
2.674896e+003;5.545720e-002
2.676825e+003;5.551021e-002
2.678753e+003;5.568224e-002
2.680682e+003;5.578542e-002
2.682610e+003;5.580652e-002
2.684539e+003;5.554613e-002
2.686467e+003;5.539776e-002
2.688396e+003;5.541843e-002
2.690324e+003;5.546360e-002
2.692253e+003;5.573727e-002
2.694182e+003;5.604342e-002
2.696110e+003;5.630667e-002
2.698039e+003;5.631776e-002
2.699967e+003;5.610548e-002
2.701896e+003;5.585852e-002
2.703824e+003;5.574074e-002
2.705753e+003;5.597617e-002
2.707681e+003;5.610220e-002
2.709610e+003;5.627269e-002
2.711539e+003;5.644826e-002
2.713467e+003;5.662096e-002
2.715396e+003;5.662817e-002
2.717324e+003;5.640932e-002
2.719253e+003;5.645400e-002
2.721181e+003;5.691659e-002
2.723110e+003;5.729136e-002
2.725038e+003;5.735302e-002
2.726967e+003;5.719126e-002
2.728896e+003;5.719557e-002
2.730824e+003;5.734346e-002
2.732752e+003;5.725030e-002
2.734681e+003;5.703609e-002
2.736610e+003;5.728444e-002
2.738538e+003;5.762384e-002
2.740467e+003;5.763504e-002
2.742395e+003;5.782218e-002
2.744324e+003;5.791380e-002
2.746252e+003;5.758904e-002
2.748181e+003;5.744598e-002
2.750109e+003;5.783910e-002
2.752038e+003;5.815738e-002
2.753967e+003;5.788938e-002
2.755895e+003;5.778024e-002
2.757824e+003;5.802311e-002
2.759752e+003;5.817477e-002
2.761681e+003;5.852317e-002
2.763609e+003;5.854520e-002
2.765538e+003;5.825744e-002
2.767466e+003;5.840850e-002
2.769395e+003;5.846835e-002
2.771323e+003;5.853121e-002
2.773252e+003;5.888290e-002
2.775181e+003;5.897747e-002
2.777109e+003;5.871108e-002
2.779038e+003;5.848340e-002
2.780966e+003;5.876357e-002
2.782895e+003;5.924615e-002
2.784823e+003;5.931489e-002
2.786752e+003;5.905486e-002
2.788680e+003;5.906093e-002
2.790609e+003;5.919743e-002
2.792538e+003;5.926054e-002
2.794466e+003;5.965665e-002
2.796395e+003;5.974503e-002
2.798323e+003;5.936625e-002
2.800252e+003;5.968561e-002
2.802180e+003;6.014535e-002
2.804109e+003;6.038410e-002
2.806037e+003;6.067099e-002
2.807966e+003;6.060919e-002
2.809895e+003;6.058473e-002
2.811823e+003;6.088571e-002
2.813751e+003;6.093466e-002
2.815680e+003;6.075474e-002
2.817609e+003;6.059399e-002
2.819537e+003;6.069640e-002
2.821466e+003;6.080855e-002
2.823394e+003;6.112307e-002
2.825323e+003;6.166196e-002
2.827251e+003;6.166632e-002
2.829180e+003;6.162607e-002
2.831108e+003;6.188527e-002
2.833037e+003;6.198218e-002
2.834966e+003;6.197045e-002
2.836894e+003;6.202013e-002
2.838823e+003;6.235339e-002
2.840751e+003;6.280432e-002
2.842680e+003;6.298359e-002
2.844608e+003;6.363024e-002
2.846537e+003;6.456160e-002
2.848465e+003;6.493502e-002
2.850394e+003;6.449655e-002
2.852323e+003;6.381419e-002
2.854251e+003;6.386185e-002
2.856180e+003;6.436384e-002
2.858108e+003;6.441246e-002
2.860037e+003;6.458132e-002
2.861965e+003;6.515359e-002
2.863894e+003;6.564258e-002
2.865822e+003;6.600540e-002
2.867751e+003;6.671750e-002
2.869679e+003;6.735407e-002
2.871608e+003;6.770070e-002
2.873536e+003;6.821951e-002
2.875465e+003;6.844421e-002
2.877394e+003;6.829911e-002
2.879322e+003;6.810892e-002
2.881251e+003;6.798618e-002
2.883179e+003;6.793097e-002
2.885108e+003;6.782622e-002
2.887036e+003;6.765950e-002
2.888965e+003;6.770724e-002
2.890893e+003;6.772745e-002
2.892822e+003;6.717596e-002
2.894750e+003;6.716277e-002
2.896679e+003;6.754463e-002
2.898608e+003;6.779969e-002
2.900536e+003;6.834894e-002
2.902465e+003;6.894306e-002
2.904393e+003;6.906634e-002
2.906322e+003;6.945831e-002
2.908250e+003;6.983729e-002
2.910179e+003;7.015284e-002
2.912107e+003;7.135414e-002
2.914036e+003;7.258648e-002
2.915965e+003;7.290761e-002
2.917893e+003;7.308636e-002
2.919822e+003;7.306707e-002
2.921750e+003;7.248636e-002
2.923679e+003;7.185998e-002
2.925607e+003;7.153314e-002
2.927536e+003;7.167470e-002
2.929464e+003;7.193446e-002
2.931393e+003;7.166903e-002
2.933322e+003;7.141498e-002
2.935250e+003;7.153635e-002
2.937178e+003;7.162703e-002
2.939107e+003;7.143318e-002
2.941036e+003;7.120553e-002
2.942964e+003;7.123262e-002
2.944893e+003;7.127764e-002
2.946821e+003;7.127311e-002
2.948750e+003;7.131845e-002
2.950678e+003;7.140631e-002
2.952607e+003;7.149119e-002
2.954535e+003;7.147454e-002
2.956464e+003;7.154971e-002
2.958393e+003;7.203756e-002
2.960321e+003;7.226031e-002
2.962250e+003;7.192042e-002
2.964178e+003;7.180794e-002
2.966107e+003;7.180916e-002
2.968035e+003;7.142255e-002
2.969964e+003;7.111162e-002
2.971892e+003;7.102042e-002
2.973821e+003;7.062352e-002
2.975750e+003;6.993642e-002
2.977678e+003;6.932077e-002
2.979607e+003;6.902233e-002
2.981535e+003;6.859703e-002
2.983464e+003;6.796247e-002
2.985392e+003;6.753758e-002
2.987321e+003;6.723236e-002
2.989249e+003;6.687671e-002
2.991178e+003;6.644296e-002
2.993106e+003;6.589205e-002
2.995035e+003;6.551418e-002
2.996964e+003;6.524149e-002
2.998892e+003;6.509900e-002
3.000821e+003;6.539522e-002
3.002749e+003;6.528781e-002
3.004678e+003;6.472602e-002
3.006606e+003;6.477398e-002
3.008535e+003;6.566860e-002
3.010463e+003;6.582206e-002
3.012392e+003;6.529848e-002
3.014321e+003;6.529332e-002
3.016249e+003;6.565808e-002
3.018177e+003;6.609254e-002
3.020106e+003;6.630714e-002
3.022035e+003;6.625724e-002
3.023963e+003;6.627364e-002
3.025892e+003;6.632436e-002
3.027820e+003;6.661211e-002
3.029749e+003;6.688281e-002
3.031677e+003;6.706795e-002
3.033606e+003;6.731054e-002
3.035534e+003;6.758791e-002
3.037463e+003;6.796100e-002
3.039392e+003;6.834441e-002
3.041320e+003;6.874361e-002
3.043249e+003;6.913847e-002
3.045177e+003;6.924122e-002
3.047106e+003;6.921172e-002
3.049034e+003;6.922346e-002
3.050963e+003;6.912442e-002
3.052891e+003;6.936473e-002
3.054820e+003;6.979592e-002
3.056749e+003;6.969585e-002
3.058677e+003;6.948739e-002
3.060606e+003;6.977363e-002
3.062534e+003;7.018131e-002
3.064463e+003;7.005519e-002
3.066391e+003;6.999866e-002
3.068320e+003;7.012352e-002
3.070248e+003;6.998472e-002
3.072177e+003;6.979534e-002
3.074105e+003;6.978172e-002
3.076034e+003;6.999383e-002
3.077963e+003;6.977519e-002
3.079891e+003;6.929465e-002
3.081820e+003;6.923791e-002
3.083748e+003;6.918487e-002
3.085677e+003;6.880273e-002
3.087605e+003;6.870138e-002
3.089534e+003;6.877874e-002
3.091462e+003;6.876069e-002
3.093391e+003;6.868256e-002
3.095320e+003;6.861386e-002
3.097248e+003;6.864285e-002
3.099177e+003;6.865481e-002
3.101105e+003;6.856265e-002
3.103034e+003;6.836946e-002
3.104962e+003;6.781878e-002
3.106891e+003;6.774608e-002
3.108819e+003;6.818958e-002
3.110748e+003;6.848133e-002
3.112677e+003;6.854197e-002
3.114605e+003;6.846430e-002
3.116533e+003;6.838311e-002
3.118462e+003;6.840748e-002
3.120391e+003;6.851706e-002
3.122319e+003;6.877288e-002
3.124248e+003;6.899662e-002
3.126176e+003;6.922854e-002
3.128105e+003;6.950878e-002
3.130033e+003;6.967862e-002
3.131962e+003;6.958753e-002
3.133890e+003;6.937811e-002
3.135819e+003;6.967485e-002
3.137748e+003;7.030357e-002
3.139676e+003;7.072607e-002
3.141605e+003;7.080571e-002
3.143533e+003;7.093614e-002
3.145462e+003;7.120979e-002
3.147390e+003;7.154705e-002
3.149319e+003;7.182233e-002
3.151247e+003;7.199907e-002
3.153176e+003;7.208391e-002
3.155104e+003;7.235181e-002
3.157033e+003;7.269498e-002
3.158962e+003;7.278214e-002
3.160890e+003;7.307201e-002
3.162819e+003;7.357354e-002
3.164747e+003;7.382882e-002
3.166676e+003;7.403664e-002
3.168604e+003;7.477435e-002
3.170533e+003;7.534721e-002
3.172461e+003;7.579752e-002
3.174390e+003;7.655065e-002
3.176319e+003;7.694600e-002
3.178247e+003;7.698891e-002
3.180176e+003;7.720003e-002
3.182104e+003;7.752704e-002
3.184033e+003;7.768986e-002
3.185961e+003;7.781422e-002
3.187890e+003;7.833154e-002
3.189818e+003;7.901312e-002
3.191747e+003;7.941135e-002
3.193676e+003;7.966408e-002
3.195604e+003;7.994045e-002
3.197532e+003;8.048476e-002
3.199461e+003;8.081809e-002
3.201390e+003;8.093053e-002
3.203318e+003;8.098590e-002
3.205247e+003;8.076521e-002
3.207175e+003;8.043603e-002
3.209104e+003;8.046561e-002
3.211032e+003;8.074482e-002
3.212961e+003;8.129425e-002
3.214889e+003;8.171281e-002
3.216818e+003;8.180537e-002
3.218747e+003;8.202668e-002
3.220675e+003;8.250224e-002
3.222604e+003;8.251550e-002
3.224532e+003;8.252624e-002
3.226461e+003;8.280929e-002
3.228389e+003;8.324875e-002
3.230318e+003;8.362205e-002
3.232246e+003;8.398372e-002
3.234175e+003;8.391840e-002
3.236104e+003;8.392013e-002
3.238032e+003;8.432908e-002
3.239961e+003;8.461943e-002
3.241889e+003;8.469908e-002
3.243818e+003;8.516109e-002
3.245746e+003;8.535068e-002
3.247675e+003;8.552623e-002
3.249603e+003;8.592959e-002
3.251532e+003;8.625602e-002
3.253460e+003;8.654992e-002
3.255389e+003;8.685852e-002
3.257318e+003;8.742397e-002
3.259246e+003;8.819994e-002
3.261175e+003;8.867610e-002
3.263103e+003;8.879133e-002
3.265032e+003;8.891769e-002
3.266960e+003;8.886162e-002
3.268889e+003;8.911202e-002
3.270817e+003;8.940840e-002
3.272746e+003;8.955061e-002
3.274675e+003;8.964013e-002
3.276603e+003;9.005039e-002
3.278531e+003;9.014576e-002
3.280460e+003;9.007563e-002
3.282389e+003;9.020465e-002
3.284317e+003;9.004285e-002
3.286246e+003;9.005839e-002
3.288174e+003;9.031016e-002
3.290103e+003;9.037703e-002
3.292031e+003;9.008395e-002
3.293960e+003;8.963370e-002
3.295888e+003;8.919518e-002
3.297817e+003;8.887581e-002
3.299746e+003;8.888305e-002
3.301674e+003;8.872678e-002
3.303603e+003;8.848583e-002
3.305531e+003;8.812927e-002
3.307460e+003;8.776368e-002
3.309388e+003;8.742198e-002
3.311317e+003;8.688058e-002
3.313245e+003;8.633038e-002
3.315174e+003;8.622038e-002
3.317103e+003;8.646234e-002
3.319031e+003;8.643149e-002
3.320960e+003;8.618740e-002
3.322888e+003;8.575324e-002
3.324817e+003;8.480842e-002
3.326745e+003;8.428760e-002
3.328674e+003;8.409526e-002
3.330602e+003;8.349726e-002
3.332531e+003;8.315388e-002
3.334459e+003;8.289595e-002
3.336388e+003;8.264317e-002
3.338317e+003;8.215185e-002
3.340245e+003;8.202787e-002
3.342174e+003;8.151218e-002
3.344102e+003;8.075906e-002
3.346031e+003;8.008657e-002
3.347959e+003;8.008980e-002
3.349888e+003;8.006188e-002
3.351816e+003;7.925837e-002
3.353745e+003;7.866684e-002
3.355674e+003;7.868939e-002
3.357602e+003;7.839686e-002
3.359531e+003;7.760884e-002
3.361459e+003;7.680864e-002
3.363388e+003;7.612292e-002
3.365316e+003;7.599124e-002
3.367245e+003;7.560768e-002
3.369173e+003;7.521082e-002
3.371102e+003;7.500604e-002
3.373031e+003;7.465345e-002
3.374959e+003;7.424427e-002
3.376887e+003;7.396638e-002
3.378816e+003;7.364769e-002
3.380745e+003;7.321396e-002
3.382673e+003;7.244044e-002
3.384602e+003;7.208727e-002
3.386530e+003;7.198526e-002
3.388459e+003;7.129197e-002
3.390387e+003;7.126585e-002
3.392316e+003;7.137898e-002
3.394244e+003;7.056981e-002
3.396173e+003;6.989998e-002
3.398102e+003;6.974098e-002
3.400030e+003;6.929955e-002
3.401959e+003;6.885573e-002
3.403887e+003;6.867216e-002
3.405816e+003;6.847125e-002
3.407744e+003;6.844882e-002
3.409673e+003;6.815974e-002
3.411601e+003;6.733511e-002
3.413530e+003;6.660033e-002
3.415458e+003;6.605366e-002
3.417387e+003;6.597169e-002
3.419316e+003;6.597716e-002
3.421244e+003;6.569739e-002
3.423173e+003;6.528438e-002
3.425101e+003;6.451316e-002
3.427030e+003;6.408952e-002
3.428958e+003;6.371349e-002
3.430887e+003;6.377336e-002
3.432815e+003;6.354627e-002
3.434744e+003;6.288189e-002
3.436673e+003;6.234268e-002
3.438601e+003;6.195203e-002
3.440530e+003;6.142232e-002
3.442458e+003;6.072608e-002
3.444387e+003;6.070040e-002
3.446315e+003;6.109698e-002
3.448244e+003;6.093397e-002
3.450172e+003;6.058329e-002
3.452101e+003;6.020970e-002
3.454030e+003;5.962665e-002
3.455958e+003;5.926688e-002
3.457886e+003;5.916857e-002
3.459815e+003;5.897470e-002
3.461744e+003;5.866484e-002
3.463672e+003;5.850350e-002
3.465601e+003;5.853978e-002
3.467529e+003;5.862362e-002
3.469458e+003;5.818818e-002
3.471386e+003;5.760406e-002
3.473315e+003;5.733132e-002
3.475243e+003;5.701315e-002
3.477172e+003;5.665698e-002
3.479101e+003;5.627193e-002
3.481029e+003;5.625790e-002
3.482958e+003;5.618922e-002
3.484886e+003;5.591764e-002
3.486815e+003;5.580731e-002
3.488743e+003;5.546469e-002
3.490672e+003;5.512615e-002
3.492600e+003;5.528323e-002
3.494529e+003;5.465831e-002
3.496458e+003;5.389199e-002
3.498386e+003;5.388891e-002
3.500315e+003;5.386745e-002
3.502243e+003;5.330503e-002
3.504172e+003;5.307208e-002
3.506100e+003;5.308811e-002
3.508029e+003;5.296190e-002
3.509957e+003;5.269727e-002
3.511886e+003;5.226967e-002
3.513814e+003;5.165654e-002
3.515743e+003;5.148099e-002
3.517672e+003;5.149733e-002
3.519600e+003;5.100685e-002
3.521529e+003;5.047748e-002
3.523457e+003;5.040364e-002
3.525386e+003;5.052814e-002
3.527314e+003;5.112164e-002
3.529243e+003;5.130830e-002
3.531171e+003;5.039914e-002
3.533100e+003;4.958101e-002
3.535029e+003;4.952994e-002
3.536957e+003;4.946265e-002
3.538885e+003;4.878762e-002
3.540814e+003;4.848368e-002
3.542743e+003;4.864413e-002
3.544671e+003;4.845486e-002
3.546600e+003;4.821047e-002
3.548528e+003;4.841122e-002
3.550457e+003;4.803893e-002
3.552385e+003;4.748973e-002
3.554314e+003;4.751279e-002
3.556242e+003;4.725282e-002
3.558171e+003;4.670328e-002
3.560100e+003;4.660983e-002
3.562028e+003;4.637017e-002
3.563957e+003;4.576426e-002
3.565885e+003;4.533461e-002
3.567814e+003;4.509252e-002
3.569742e+003;4.544044e-002
3.571671e+003;4.548014e-002
3.573599e+003;4.530515e-002
3.575528e+003;4.490329e-002
3.577457e+003;4.471950e-002
3.579385e+003;4.443062e-002
3.581314e+003;4.377813e-002
3.583242e+003;4.351123e-002
3.585171e+003;4.321096e-002
3.587099e+003;4.255693e-002
3.589028e+003;4.270412e-002
3.590956e+003;4.318271e-002
3.592885e+003;4.299650e-002
3.594813e+003;4.283272e-002
3.596742e+003;4.283458e-002
3.598671e+003;4.280119e-002
3.600599e+003;4.214982e-002
3.602528e+003;4.182843e-002
3.604456e+003;4.212952e-002
3.606385e+003;4.158664e-002
3.608313e+003;4.058988e-002
3.610242e+003;4.080524e-002
3.612170e+003;4.084043e-002
3.614099e+003;4.034755e-002
3.616028e+003;4.024386e-002
3.617956e+003;4.012927e-002
3.619885e+003;3.984993e-002
3.621813e+003;3.979741e-002
3.623742e+003;3.940355e-002
3.625670e+003;3.890936e-002
3.627599e+003;3.748079e-002
3.629527e+003;3.743640e-002
3.631456e+003;3.827675e-002
3.633385e+003;3.772970e-002
3.635313e+003;3.758422e-002
3.637241e+003;3.818994e-002
3.639170e+003;3.842047e-002
3.641099e+003;3.824523e-002
3.643027e+003;3.817645e-002
3.644956e+003;3.791865e-002
3.646884e+003;3.669133e-002
3.648813e+003;3.560146e-002
3.650741e+003;3.588333e-002
3.652670e+003;3.657669e-002
3.654598e+003;3.598991e-002
3.656527e+003;3.545331e-002
3.658456e+003;3.578035e-002
3.660384e+003;3.552479e-002
3.662313e+003;3.522798e-002
3.664241e+003;3.538997e-002
3.666170e+003;3.495964e-002
3.668098e+003;3.384537e-002
3.670027e+003;3.314148e-002
3.671955e+003;3.359560e-002
3.673884e+003;3.308655e-002
3.675813e+003;3.278909e-002
3.677741e+003;3.353901e-002
3.679669e+003;3.364164e-002
3.681598e+003;3.350934e-002
3.683527e+003;3.331993e-002
3.685455e+003;3.260893e-002
3.687384e+003;3.124512e-002
3.689312e+003;3.131954e-002
3.691241e+003;3.219340e-002
3.693169e+003;3.266661e-002
3.695098e+003;3.306063e-002
3.697026e+003;3.284340e-002
3.698955e+003;3.227349e-002
3.700884e+003;3.191420e-002
3.702812e+003;3.187608e-002
3.704741e+003;3.199994e-002
3.706669e+003;3.200817e-002
3.708598e+003;3.127129e-002
3.710526e+003;3.097873e-002
3.712455e+003;3.124960e-002
3.714383e+003;3.115643e-002
3.716312e+003;3.074731e-002
3.718240e+003;3.072669e-002
3.720169e+003;3.089212e-002
3.722098e+003;3.127360e-002
3.724026e+003;3.098983e-002
3.725955e+003;3.042145e-002
3.727883e+003;3.072370e-002
3.729812e+003;3.070546e-002
3.731740e+003;2.973259e-002
3.733669e+003;2.953706e-002
3.735597e+003;2.986474e-002
3.737526e+003;3.054809e-002
3.739455e+003;3.115227e-002
3.741383e+003;3.108496e-002
3.743312e+003;2.966489e-002
3.745240e+003;2.971414e-002
3.747169e+003;3.003507e-002
3.749097e+003;2.901931e-002
3.751026e+003;2.866586e-002
3.752954e+003;2.932339e-002
3.754883e+003;3.039131e-002
3.756812e+003;3.057450e-002
3.758740e+003;3.041793e-002
3.760668e+003;3.074034e-002
3.762597e+003;3.082909e-002
3.764526e+003;3.043797e-002
3.766454e+003;3.045336e-002
3.768383e+003;3.021154e-002
3.770311e+003;3.010616e-002
3.772240e+003;3.027140e-002
3.774168e+003;3.040148e-002
3.776097e+003;3.063263e-002
3.778025e+003;3.018316e-002
3.779954e+003;2.965993e-002
3.781883e+003;2.974441e-002
3.783811e+003;3.012349e-002
3.785740e+003;3.048713e-002
3.787668e+003;3.046342e-002
3.789597e+003;3.058972e-002
3.791525e+003;3.098043e-002
3.793454e+003;3.064173e-002
3.795382e+003;2.996435e-002
3.797311e+003;2.996765e-002
3.799240e+003;2.953688e-002
3.801168e+003;2.933768e-002
3.803097e+003;3.001785e-002
3.805025e+003;3.016842e-002
3.806954e+003;2.994195e-002
3.808882e+003;3.053288e-002
3.810811e+003;3.088906e-002
3.812739e+003;3.028255e-002
3.814668e+003;2.902272e-002
3.816596e+003;2.909332e-002
3.818525e+003;2.927192e-002
3.820454e+003;2.873963e-002
3.822382e+003;2.952521e-002
3.824311e+003;3.090006e-002
3.826239e+003;3.107951e-002
3.828168e+003;3.062381e-002
3.830096e+003;3.020490e-002
3.832025e+003;2.989271e-002
3.833953e+003;2.949422e-002
3.835882e+003;2.884496e-002
3.837811e+003;2.878154e-002
3.839739e+003;2.974348e-002
3.841667e+003;3.020316e-002
3.843596e+003;3.006582e-002
3.845525e+003;3.012953e-002
3.847453e+003;3.013237e-002
3.849382e+003;2.987124e-002
3.851310e+003;2.875588e-002
3.853239e+003;2.775066e-002
3.855167e+003;2.881968e-002
3.857096e+003;3.019278e-002
3.859024e+003;3.092098e-002
3.860953e+003;3.108873e-002
3.862882e+003;3.091197e-002
3.864810e+003;3.077161e-002
3.866739e+003;3.084210e-002
3.868667e+003;2.973958e-002
3.870596e+003;2.880509e-002
3.872524e+003;2.948727e-002
3.874453e+003;3.032202e-002
3.876381e+003;3.082425e-002
3.878310e+003;3.049690e-002
3.880239e+003;3.047533e-002
3.882167e+003;3.022717e-002
3.884096e+003;2.933314e-002
3.886024e+003;2.959040e-002
3.887953e+003;3.050483e-002
3.889881e+003;3.043861e-002
3.891810e+003;3.052449e-002
3.893738e+003;3.094453e-002
3.895667e+003;3.069397e-002
3.897595e+003;3.055175e-002
3.899524e+003;3.046328e-002
3.901453e+003;3.015823e-002
3.903381e+003;2.989857e-002
3.905310e+003;3.032877e-002
3.907238e+003;3.108335e-002
3.909167e+003;3.113329e-002
3.911095e+003;3.063181e-002
3.913024e+003;3.061005e-002
3.914952e+003;3.081091e-002
3.916881e+003;3.054674e-002
3.918810e+003;3.038307e-002
3.920738e+003;3.081507e-002
3.922667e+003;3.125761e-002
3.924595e+003;3.082684e-002
3.926524e+003;3.066705e-002
3.928452e+003;3.025900e-002
3.930381e+003;2.966472e-002
3.932309e+003;3.047988e-002
3.934238e+003;3.134390e-002
3.936167e+003;3.097723e-002
3.938095e+003;3.054809e-002
3.940023e+003;3.046925e-002
3.941952e+003;3.057656e-002
3.943881e+003;3.081297e-002
3.945809e+003;3.064941e-002
3.947738e+003;3.096172e-002
3.949666e+003;3.185800e-002
3.951595e+003;3.219812e-002
3.953523e+003;3.113967e-002
3.955452e+003;3.056074e-002
3.957380e+003;3.099282e-002
3.959309e+003;3.069834e-002
3.961238e+003;3.056007e-002
3.963166e+003;3.117858e-002
3.965095e+003;3.157563e-002
3.967023e+003;3.143889e-002
3.968952e+003;3.137193e-002
3.970880e+003;3.135262e-002
3.972809e+003;3.119894e-002
3.974737e+003;3.095332e-002
3.976666e+003;3.057020e-002
3.978594e+003;3.030802e-002
3.980523e+003;3.008816e-002
3.982452e+003;3.002009e-002
3.984380e+003;3.068053e-002
3.986309e+003;3.093318e-002
3.988237e+003;3.041925e-002
3.990166e+003;3.042671e-002
3.992094e+003;3.034142e-002
3.994023e+003;3.067811e-002
3.995951e+003;3.098659e-002
3.997880e+003;3.044473e-002
3.999809e+003;2.985346e-002
4.001737e+003;0.000000e+000
