3.992094e+002;0.000000e+000
4.011380e+002;0.000000e+000
4.030665e+002;0.000000e+000
4.049951e+002;0.000000e+000
4.069236e+002;0.000000e+000
4.088522e+002;0.000000e+000
4.107807e+002;0.000000e+000
4.127093e+002;0.000000e+000
4.146378e+002;0.000000e+000
4.165664e+002;0.000000e+000
4.184949e+002;0.000000e+000
4.204235e+002;0.000000e+000
4.223520e+002;0.000000e+000
4.242806e+002;0.000000e+000
4.262091e+002;0.000000e+000
4.281377e+002;0.000000e+000
4.300662e+002;0.000000e+000
4.319948e+002;0.000000e+000
4.339233e+002;0.000000e+000
4.358519e+002;0.000000e+000
4.377804e+002;0.000000e+000
4.397090e+002;0.000000e+000
4.416375e+002;0.000000e+000
4.435660e+002;0.000000e+000
4.454946e+002;0.000000e+000
4.474232e+002;0.000000e+000
4.493517e+002;0.000000e+000
4.512802e+002;0.000000e+000
4.532088e+002;0.000000e+000
4.551373e+002;0.000000e+000
4.570659e+002;0.000000e+000
4.589944e+002;0.000000e+000
4.609230e+002;0.000000e+000
4.628515e+002;0.000000e+000
4.647801e+002;0.000000e+000
4.667086e+002;0.000000e+000
4.686372e+002;0.000000e+000
4.705657e+002;0.000000e+000
4.724943e+002;0.000000e+000
4.744228e+002;0.000000e+000
4.763513e+002;0.000000e+000
4.782799e+002;0.000000e+000
4.802085e+002;0.000000e+000
4.821370e+002;0.000000e+000
4.840656e+002;0.000000e+000
4.859941e+002;0.000000e+000
4.879226e+002;0.000000e+000
4.898512e+002;0.000000e+000
4.917798e+002;0.000000e+000
4.937083e+002;0.000000e+000
4.956368e+002;0.000000e+000
4.975654e+002;0.000000e+000
4.994939e+002;0.000000e+000
5.014225e+002;0.000000e+000
5.033510e+002;0.000000e+000
5.052796e+002;0.000000e+000
5.072081e+002;0.000000e+000
5.091367e+002;0.000000e+000
5.110652e+002;0.000000e+000
5.129938e+002;0.000000e+000
5.149223e+002;0.000000e+000
5.168509e+002;0.000000e+000
5.187794e+002;0.000000e+000
5.207079e+002;0.000000e+000
5.226365e+002;0.000000e+000
5.245651e+002;0.000000e+000
5.264936e+002;0.000000e+000
5.284222e+002;0.000000e+000
5.303507e+002;0.000000e+000
5.322792e+002;0.000000e+000
5.342078e+002;0.000000e+000
5.361364e+002;0.000000e+000
5.380649e+002;0.000000e+000
5.399935e+002;0.000000e+000
5.419220e+002;0.000000e+000
5.438505e+002;0.000000e+000
5.457791e+002;0.000000e+000
5.477076e+002;0.000000e+000
5.496362e+002;0.000000e+000
5.515648e+002;0.000000e+000
5.534933e+002;0.000000e+000
5.554218e+002;0.000000e+000
5.573504e+002;0.000000e+000
5.592789e+002;0.000000e+000
5.612075e+002;0.000000e+000
5.631360e+002;0.000000e+000
5.650646e+002;0.000000e+000
5.669931e+002;0.000000e+000
5.689217e+002;0.000000e+000
5.708502e+002;0.000000e+000
5.727787e+002;0.000000e+000
5.747073e+002;0.000000e+000
5.766359e+002;0.000000e+000
5.785644e+002;0.000000e+000
5.804930e+002;0.000000e+000
5.824215e+002;0.000000e+000
5.843500e+002;0.000000e+000
5.862786e+002;0.000000e+000
5.882072e+002;0.000000e+000
5.901357e+002;0.000000e+000
5.920643e+002;0.000000e+000
5.939928e+002;0.000000e+000
5.959213e+002;0.000000e+000
5.978499e+002;0.000000e+000
5.997784e+002;1.821934e-001
6.017070e+002;1.837237e-001
6.036355e+002;1.793357e-001
6.055641e+002;1.736198e-001
6.074926e+002;1.757984e-001
6.094211e+002;1.800090e-001
6.113497e+002;1.792480e-001
6.132783e+002;1.770049e-001
6.152068e+002;1.766615e-001
6.171354e+002;1.742277e-001
6.190639e+002;1.711115e-001
6.209924e+002;1.750836e-001
6.229210e+002;1.781164e-001
6.248495e+002;1.763476e-001
6.267781e+002;1.749189e-001
6.287067e+002;1.772373e-001
6.306352e+002;1.778751e-001
6.325637e+002;1.758033e-001
6.344923e+002;1.758610e-001
6.364208e+002;1.734148e-001
6.383494e+002;1.719004e-001
6.402780e+002;1.741857e-001
6.422065e+002;1.754181e-001
6.441350e+002;1.735670e-001
6.460636e+002;1.715191e-001
6.479921e+002;1.712650e-001
6.499207e+002;1.701781e-001
6.518492e+002;1.681801e-001
6.537778e+002;1.664646e-001
6.557063e+002;1.667381e-001
6.576349e+002;1.669719e-001
6.595634e+002;1.651733e-001
6.614919e+002;1.639625e-001
6.634205e+002;1.641706e-001
6.653491e+002;1.638099e-001
6.672776e+002;1.626661e-001
6.692062e+002;1.622733e-001
6.711347e+002;1.618729e-001
6.730632e+002;1.608332e-001
6.749918e+002;1.598926e-001
6.769203e+002;1.601229e-001
6.788489e+002;1.600831e-001
6.807775e+002;1.585636e-001
6.827060e+002;1.572142e-001
6.846345e+002;1.568762e-001
6.865631e+002;1.559447e-001
6.884916e+002;1.554706e-001
6.904202e+002;1.558994e-001
6.923488e+002;1.550983e-001
6.942773e+002;1.532427e-001
6.962058e+002;1.525307e-001
6.981344e+002;1.513502e-001
7.000629e+002;1.511220e-001
7.019915e+002;1.515282e-001
7.039200e+002;1.498330e-001
7.058486e+002;1.480160e-001
7.077771e+002;1.466377e-001
7.097057e+002;1.444789e-001
7.116342e+002;1.418606e-001
7.135627e+002;1.403605e-001
7.154913e+002;1.397245e-001
7.174199e+002;1.391859e-001
7.193484e+002;1.378835e-001
7.212770e+002;1.367050e-001
7.232055e+002;1.355419e-001
7.251340e+002;1.347393e-001
7.270626e+002;1.345405e-001
7.289911e+002;1.345361e-001
7.309197e+002;1.346769e-001
7.328483e+002;1.342824e-001
7.347768e+002;1.330633e-001
7.367053e+002;1.315961e-001
7.386339e+002;1.304166e-001
7.405624e+002;1.300017e-001
7.424910e+002;1.305032e-001
7.444196e+002;1.311601e-001
7.463481e+002;1.313215e-001
7.482766e+002;1.293942e-001
7.502052e+002;1.263036e-001
7.521337e+002;1.252326e-001
7.540623e+002;1.247506e-001
7.559908e+002;1.236751e-001
7.579194e+002;1.228056e-001
7.598479e+002;1.225023e-001
7.617765e+002;1.217346e-001
7.637050e+002;1.201012e-001
7.656335e+002;1.188474e-001
7.675621e+002;1.185637e-001
7.694907e+002;1.181821e-001
7.714192e+002;1.174447e-001
7.733478e+002;1.168028e-001
7.752763e+002;1.156566e-001
7.772048e+002;1.145065e-001
7.791334e+002;1.139905e-001
7.810620e+002;1.137080e-001
7.829905e+002;1.132212e-001
7.849191e+002;1.125281e-001
7.868476e+002;1.116613e-001
7.887761e+002;1.105862e-001
7.907047e+002;1.102330e-001
7.926332e+002;1.099585e-001
7.945618e+002;1.089436e-001
7.964903e+002;1.086325e-001
7.984189e+002;1.085555e-001
8.003474e+002;1.083384e-001
8.022759e+002;1.080202e-001
8.042045e+002;1.071184e-001
8.061331e+002;1.063762e-001
8.080616e+002;1.062356e-001
8.099902e+002;1.057252e-001
8.119187e+002;1.053485e-001
8.138472e+002;1.052764e-001
8.157758e+002;1.047082e-001
8.177043e+002;1.044211e-001
8.196329e+002;1.048103e-001
8.215615e+002;1.050991e-001
8.234900e+002;1.046159e-001
8.254185e+002;1.040496e-001
8.273471e+002;1.042617e-001
8.292756e+002;1.046047e-001
8.312042e+002;1.042698e-001
8.331328e+002;1.035130e-001
8.350613e+002;1.028416e-001
8.369898e+002;1.022832e-001
8.389184e+002;1.017494e-001
8.408469e+002;1.009703e-001
8.427755e+002;1.008094e-001
8.447040e+002;1.010421e-001
8.466326e+002;1.006247e-001
8.485611e+002;1.002675e-001
8.504897e+002;9.948115e-002
8.524182e+002;9.840751e-002
8.543467e+002;9.810344e-002
8.562753e+002;9.759236e-002
8.582039e+002;9.667271e-002
8.601324e+002;9.596664e-002
8.620610e+002;9.567504e-002
8.639895e+002;9.560802e-002
8.659180e+002;9.554910e-002
8.678466e+002;9.549856e-002
8.697751e+002;9.524945e-002
8.717037e+002;9.492374e-002
8.736323e+002;9.494045e-002
8.755608e+002;9.514248e-002
8.774893e+002;9.525064e-002
8.794179e+002;9.508263e-002
8.813464e+002;9.498526e-002
8.832750e+002;9.491562e-002
8.852036e+002;9.451441e-002
8.871321e+002;9.421795e-002
8.890606e+002;9.403358e-002
8.909892e+002;9.379497e-002
8.929177e+002;9.362801e-002
8.948463e+002;9.359603e-002
8.967748e+002;9.375928e-002
8.987034e+002;9.354465e-002
9.006319e+002;9.353101e-002
9.025605e+002;9.373400e-002
9.044890e+002;9.360515e-002
9.064175e+002;9.364191e-002
9.083461e+002;9.381771e-002
9.102747e+002;9.413444e-002
9.122032e+002;9.443246e-002
9.141318e+002;9.419551e-002
9.160603e+002;9.417568e-002
9.179888e+002;9.474403e-002
9.199174e+002;9.510952e-002
9.218459e+002;9.472956e-002
9.237745e+002;9.459544e-002
9.257031e+002;9.509570e-002
9.276316e+002;9.515980e-002
9.295601e+002;9.481025e-002
9.314887e+002;9.489167e-002
9.334172e+002;9.502963e-002
9.353458e+002;9.489501e-002
9.372744e+002;9.474312e-002
9.392029e+002;9.443913e-002
9.411314e+002;9.418157e-002
9.430600e+002;9.392922e-002
9.449885e+002;9.334747e-002
9.469171e+002;9.323107e-002
9.488456e+002;9.347668e-002
9.507742e+002;9.392560e-002
9.527027e+002;9.415271e-002
9.546313e+002;9.421173e-002
9.565598e+002;9.426644e-002
9.584883e+002;9.439939e-002
9.604169e+002;9.463993e-002
9.623455e+002;9.516178e-002
9.642740e+002;9.546480e-002
9.662026e+002;9.538670e-002
9.681311e+002;9.547685e-002
9.700596e+002;9.567987e-002
9.719882e+002;9.598003e-002
9.739167e+002;9.644953e-002
9.758453e+002;9.675112e-002
9.777739e+002;9.705960e-002
9.797024e+002;9.744865e-002
9.816309e+002;9.758921e-002
9.835595e+002;9.759270e-002
9.854880e+002;9.786317e-002
9.874166e+002;9.838939e-002
9.893452e+002;9.872545e-002
9.912737e+002;9.877054e-002
9.932022e+002;9.905123e-002
9.951307e+002;9.951073e-002
9.970593e+002;1.000959e-001
9.989879e+002;1.008752e-001
1.000916e+003;1.017960e-001
1.002845e+003;1.027054e-001
1.004773e+003;1.035636e-001
1.006702e+003;1.042835e-001
1.008631e+003;1.048934e-001
1.010559e+003;1.061226e-001
1.012488e+003;1.074582e-001
1.014416e+003;1.081209e-001
1.016345e+003;1.086027e-001
1.018273e+003;1.093438e-001
1.020202e+003;1.098255e-001
1.022130e+003;1.100520e-001
1.024059e+003;1.104980e-001
1.025988e+003;1.111481e-001
1.027916e+003;1.120349e-001
1.029845e+003;1.127251e-001
1.031773e+003;1.134579e-001
1.033702e+003;1.148228e-001
1.035630e+003;1.163225e-001
1.037559e+003;1.177195e-001
1.039487e+003;1.185042e-001
1.041416e+003;1.187557e-001
1.043344e+003;1.186334e-001
1.045273e+003;1.182329e-001
1.047202e+003;1.180963e-001
1.049130e+003;1.176592e-001
1.051059e+003;1.173187e-001
1.052987e+003;1.176923e-001
1.054916e+003;1.181613e-001
1.056844e+003;1.180735e-001
1.058773e+003;1.177139e-001
1.060701e+003;1.176606e-001
1.062630e+003;1.180506e-001
1.064558e+003;1.185777e-001
1.066487e+003;1.181780e-001
1.068416e+003;1.182471e-001
1.070344e+003;1.191562e-001
1.072273e+003;1.197133e-001
1.074201e+003;1.195071e-001
1.076130e+003;1.191952e-001
1.078058e+003;1.194317e-001
1.079987e+003;1.195937e-001
1.081915e+003;1.193361e-001
1.083844e+003;1.184821e-001
1.085773e+003;1.175010e-001
1.087701e+003;1.167061e-001
1.089630e+003;1.162699e-001
1.091558e+003;1.162336e-001
1.093487e+003;1.158260e-001
1.095415e+003;1.155845e-001
1.097344e+003;1.159131e-001
1.099272e+003;1.159857e-001
1.101201e+003;1.159376e-001
1.103129e+003;1.161149e-001
1.105058e+003;1.161980e-001
1.106987e+003;1.164868e-001
1.108915e+003;1.167755e-001
1.110844e+003;1.169909e-001
1.112772e+003;1.170104e-001
1.114701e+003;1.170424e-001
1.116629e+003;1.175474e-001
1.118558e+003;1.184625e-001
1.120486e+003;1.194314e-001
1.122415e+003;1.201244e-001
1.124344e+003;1.202025e-001
1.126272e+003;1.206770e-001
1.128201e+003;1.214904e-001
1.130129e+003;1.218700e-001
1.132058e+003;1.215990e-001
1.133986e+003;1.209655e-001
1.135915e+003;1.202920e-001
1.137843e+003;1.201984e-001
1.139772e+003;1.202250e-001
1.141700e+003;1.200769e-001
1.143629e+003;1.201283e-001
1.145557e+003;1.203950e-001
1.147486e+003;1.209576e-001
1.149415e+003;1.217421e-001
1.151343e+003;1.226223e-001
1.153272e+003;1.232999e-001
1.155200e+003;1.239385e-001
1.157129e+003;1.245573e-001
1.159057e+003;1.254558e-001
1.160986e+003;1.263285e-001
1.162914e+003;1.269784e-001
1.164843e+003;1.276847e-001
1.166771e+003;1.282507e-001
1.168700e+003;1.288662e-001
1.170629e+003;1.295608e-001
1.172557e+003;1.302948e-001
1.174486e+003;1.310556e-001
1.176414e+003;1.315015e-001
1.178343e+003;1.319457e-001
1.180271e+003;1.320646e-001
1.182200e+003;1.324971e-001
1.184128e+003;1.331519e-001
1.186057e+003;1.337105e-001
1.187986e+003;1.344670e-001
1.189914e+003;1.349097e-001
1.191843e+003;1.350829e-001
1.193771e+003;1.358301e-001
1.195700e+003;1.371141e-001
1.197628e+003;1.382949e-001
1.199557e+003;1.391377e-001
1.201485e+003;1.400929e-001
1.203414e+003;1.411256e-001
1.205343e+003;1.422244e-001
1.207271e+003;1.432825e-001
1.209200e+003;1.442726e-001
1.211128e+003;1.454818e-001
1.213057e+003;1.465398e-001
1.214985e+003;1.476282e-001
1.216914e+003;1.488191e-001
1.218842e+003;1.501921e-001
1.220771e+003;1.517233e-001
1.222699e+003;1.527034e-001
1.224628e+003;1.532904e-001
1.226557e+003;1.540608e-001
1.228485e+003;1.546945e-001
1.230414e+003;1.550074e-001
1.232342e+003;1.553729e-001
1.234271e+003;1.552655e-001
1.236199e+003;1.545180e-001
1.238128e+003;1.539586e-001
1.240056e+003;1.535294e-001
1.241985e+003;1.530120e-001
1.243913e+003;1.523857e-001
1.245842e+003;1.513415e-001
1.247771e+003;1.500989e-001
1.249699e+003;1.491917e-001
1.251628e+003;1.483888e-001
1.253556e+003;1.473686e-001
1.255485e+003;1.463101e-001
1.257413e+003;1.455219e-001
1.259342e+003;1.445668e-001
1.261270e+003;1.433259e-001
1.263199e+003;1.422669e-001
1.265127e+003;1.415009e-001
1.267056e+003;1.406115e-001
1.268985e+003;1.396114e-001
1.270913e+003;1.387375e-001
1.272842e+003;1.378896e-001
1.274770e+003;1.373460e-001
1.276699e+003;1.367777e-001
1.278627e+003;1.363069e-001
1.280556e+003;1.358086e-001
1.282484e+003;1.352482e-001
1.284413e+003;1.348307e-001
1.286342e+003;1.342042e-001
1.288270e+003;1.335865e-001
1.290199e+003;1.332947e-001
1.292127e+003;1.328786e-001
1.294056e+003;1.323669e-001
1.295984e+003;1.320847e-001
1.297913e+003;1.319817e-001
1.299841e+003;1.317928e-001
1.301770e+003;1.312907e-001
1.303698e+003;1.308079e-001
1.305627e+003;1.303191e-001
1.307556e+003;1.297176e-001
1.309484e+003;1.291107e-001
1.311413e+003;1.285753e-001
1.313341e+003;1.278009e-001
1.315270e+003;1.268705e-001
1.317198e+003;1.261306e-001
1.319127e+003;1.252861e-001
1.321055e+003;1.244497e-001
1.322984e+003;1.241807e-001
1.324912e+003;1.239959e-001
1.326841e+003;1.236388e-001
1.328770e+003;1.232388e-001
1.330698e+003;1.228175e-001
1.332627e+003;1.226927e-001
1.334555e+003;1.228094e-001
1.336484e+003;1.230019e-001
1.338412e+003;1.227940e-001
1.340341e+003;1.223578e-001
1.342269e+003;1.221772e-001
1.344198e+003;1.218320e-001
1.346126e+003;1.212882e-001
1.348055e+003;1.207239e-001
1.349984e+003;1.202986e-001
1.351912e+003;1.199297e-001
1.353841e+003;1.198254e-001
1.355769e+003;1.198319e-001
1.357698e+003;1.197614e-001
1.359626e+003;1.198894e-001
1.361555e+003;1.205492e-001
1.363483e+003;1.217295e-001
1.365412e+003;1.231529e-001
1.367341e+003;1.244998e-001
1.369269e+003;1.254680e-001
1.371198e+003;1.259522e-001
1.373126e+003;1.263260e-001
1.375055e+003;1.268872e-001
1.376983e+003;1.276866e-001
1.378912e+003;1.287364e-001
1.380840e+003;1.298070e-001
1.382769e+003;1.309156e-001
1.384698e+003;1.321456e-001
1.386626e+003;1.327222e-001
1.388555e+003;1.329565e-001
1.390483e+003;1.330419e-001
1.392412e+003;1.325649e-001
1.394340e+003;1.318645e-001
1.396269e+003;1.314714e-001
1.398197e+003;1.310920e-001
1.400126e+003;1.306340e-001
1.402054e+003;1.302575e-001
1.403983e+003;1.298098e-001
1.405911e+003;1.294704e-001
1.407840e+003;1.292739e-001
1.409769e+003;1.290041e-001
1.411697e+003;1.286069e-001
1.413626e+003;1.282176e-001
1.415554e+003;1.280385e-001
1.417483e+003;1.273861e-001
1.419411e+003;1.267539e-001
1.421340e+003;1.273827e-001
1.423268e+003;1.283120e-001
1.425197e+003;1.289877e-001
1.427125e+003;1.296509e-001
1.429054e+003;1.306265e-001
1.430983e+003;1.321347e-001
1.432911e+003;1.339675e-001
1.434840e+003;1.351331e-001
1.436768e+003;1.361395e-001
1.438697e+003;1.377784e-001
1.440625e+003;1.392162e-001
1.442554e+003;1.401302e-001
1.444482e+003;1.405669e-001
1.446411e+003;1.407821e-001
1.448340e+003;1.408656e-001
1.450268e+003;1.408577e-001
1.452197e+003;1.407331e-001
1.454125e+003;1.399926e-001
1.456054e+003;1.379152e-001
1.457982e+003;1.370998e-001
1.459911e+003;1.376151e-001
1.461839e+003;1.374265e-001
1.463768e+003;1.369153e-001
1.465697e+003;1.372161e-001
1.467625e+003;1.378551e-001
1.469554e+003;1.378660e-001
1.471482e+003;1.373579e-001
1.473411e+003;1.372316e-001
1.475339e+003;1.380786e-001
1.477268e+003;1.397708e-001
1.479196e+003;1.419926e-001
1.481125e+003;1.444668e-001
1.483053e+003;1.474732e-001
1.484982e+003;1.512217e-001
1.486911e+003;1.556596e-001
1.488839e+003;1.602813e-001
1.490768e+003;1.650675e-001
1.492696e+003;1.700677e-001
1.494625e+003;1.740983e-001
1.496553e+003;1.777190e-001
1.498482e+003;1.815880e-001
1.500410e+003;1.852562e-001
1.502339e+003;1.884857e-001
1.504267e+003;1.903944e-001
1.506196e+003;1.917652e-001
1.508125e+003;1.945098e-001
1.510053e+003;1.974272e-001
1.511982e+003;1.991475e-001
1.513910e+003;1.996333e-001
1.515839e+003;1.986122e-001
1.517767e+003;1.965537e-001
1.519696e+003;1.937147e-001
1.521624e+003;1.913263e-001
1.523553e+003;1.903480e-001
1.525481e+003;1.891578e-001
1.527410e+003;1.879818e-001
1.529339e+003;1.870432e-001
1.531267e+003;1.857698e-001
1.533196e+003;1.838384e-001
1.535124e+003;1.822472e-001
1.537053e+003;1.798282e-001
1.538981e+003;1.757765e-001
1.540910e+003;1.725483e-001
1.542838e+003;1.702179e-001
1.544767e+003;1.674507e-001
1.546695e+003;1.643453e-001
1.548624e+003;1.606418e-001
1.550553e+003;1.567123e-001
1.552481e+003;1.530389e-001
1.554410e+003;1.493499e-001
1.556338e+003;1.452244e-001
1.558267e+003;1.406631e-001
1.560195e+003;1.382729e-001
1.562124e+003;1.374842e-001
1.564052e+003;1.359469e-001
1.565981e+003;1.341340e-001
1.567910e+003;1.321395e-001
1.569838e+003;1.305046e-001
1.571767e+003;1.299718e-001
1.573695e+003;1.288589e-001
1.575624e+003;1.270911e-001
1.577552e+003;1.272654e-001
1.579481e+003;1.280163e-001
1.581409e+003;1.277814e-001
1.583338e+003;1.278023e-001
1.585266e+003;1.281599e-001
1.587195e+003;1.289447e-001
1.589124e+003;1.302065e-001
1.591052e+003;1.319090e-001
1.592981e+003;1.336639e-001
1.594909e+003;1.357030e-001
1.596838e+003;1.381482e-001
1.598766e+003;1.407669e-001
1.600695e+003;1.437602e-001
1.602623e+003;1.474125e-001
1.604552e+003;1.515342e-001
1.606480e+003;1.559729e-001
1.608409e+003;1.608743e-001
1.610338e+003;1.660424e-001
1.612266e+003;1.711041e-001
1.614195e+003;1.755501e-001
1.616123e+003;1.794045e-001
1.618052e+003;1.844028e-001
1.619980e+003;1.899619e-001
1.621909e+003;1.948002e-001
1.623837e+003;1.993569e-001
1.625766e+003;2.036180e-001
1.627694e+003;2.071772e-001
1.629623e+003;2.101397e-001
1.631552e+003;2.123127e-001
1.633480e+003;2.132115e-001
1.635409e+003;2.131643e-001
1.637337e+003;2.140338e-001
1.639266e+003;2.151565e-001
1.641194e+003;2.151501e-001
1.643123e+003;2.139705e-001
1.645051e+003;2.118663e-001
1.646980e+003;2.096577e-001
1.648909e+003;2.075413e-001
1.650837e+003;2.034751e-001
1.652766e+003;1.980443e-001
1.654694e+003;1.951985e-001
1.656623e+003;1.923841e-001
1.658551e+003;1.877701e-001
1.660480e+003;1.828152e-001
1.662408e+003;1.777320e-001
1.664337e+003;1.728612e-001
1.666266e+003;1.681830e-001
1.668194e+003;1.629515e-001
1.670123e+003;1.579727e-001
1.672051e+003;1.536577e-001
1.673980e+003;1.486518e-001
1.675908e+003;1.438816e-001
1.677837e+003;1.400941e-001
1.679765e+003;1.356646e-001
1.681694e+003;1.304598e-001
1.683622e+003;1.247359e-001
1.685551e+003;1.206181e-001
1.687479e+003;1.174015e-001
1.689408e+003;1.132511e-001
1.691337e+003;1.087868e-001
1.693265e+003;1.034765e-001
1.695194e+003;9.726469e-002
1.697122e+003;9.236716e-002
1.699051e+003;8.715106e-002
1.700979e+003;8.221342e-002
1.702908e+003;7.880506e-002
1.704836e+003;7.486315e-002
1.706765e+003;7.125098e-002
1.708693e+003;6.816380e-002
1.710622e+003;6.542211e-002
1.712551e+003;6.267128e-002
1.714479e+003;6.002184e-002
1.716408e+003;5.739057e-002
1.718336e+003;5.609096e-002
1.720265e+003;5.619345e-002
1.722193e+003;5.589013e-002
1.724122e+003;5.508853e-002
1.726050e+003;5.439936e-002
1.727979e+003;5.359451e-002
1.729908e+003;5.268523e-002
1.731836e+003;5.124145e-002
1.733765e+003;4.997447e-002
1.735693e+003;5.028522e-002
1.737622e+003;5.030151e-002
1.739550e+003;4.962528e-002
1.741479e+003;4.945248e-002
1.743407e+003;4.912727e-002
1.745336e+003;4.882065e-002
1.747265e+003;4.857572e-002
1.749193e+003;4.830549e-002
1.751122e+003;4.826993e-002
1.753050e+003;4.888228e-002
1.754979e+003;4.925321e-002
1.756907e+003;4.924193e-002
1.758836e+003;4.929047e-002
1.760764e+003;4.920059e-002
1.762693e+003;4.940058e-002
1.764621e+003;4.971418e-002
1.766550e+003;4.958970e-002
1.768479e+003;4.948961e-002
1.770407e+003;4.916760e-002
1.772336e+003;4.870595e-002
1.774264e+003;4.915687e-002
1.776193e+003;4.980722e-002
1.778121e+003;4.986136e-002
1.780050e+003;4.973149e-002
1.781978e+003;4.986159e-002
1.783907e+003;4.988965e-002
1.785835e+003;4.981119e-002
1.787764e+003;4.980071e-002
1.789693e+003;4.961993e-002
1.791621e+003;4.926635e-002
1.793550e+003;4.935224e-002
1.795478e+003;4.984605e-002
1.797407e+003;4.996120e-002
1.799335e+003;4.993038e-002
1.801264e+003;4.991726e-002
1.803192e+003;4.985876e-002
1.805121e+003;4.980417e-002
1.807049e+003;4.980770e-002
1.808978e+003;4.973755e-002
1.810907e+003;4.976768e-002
1.812835e+003;4.988240e-002
1.814764e+003;4.997819e-002
1.816692e+003;5.009278e-002
1.818621e+003;5.013461e-002
1.820549e+003;5.001622e-002
1.822478e+003;4.991347e-002
1.824406e+003;4.992525e-002
1.826335e+003;5.004924e-002
1.828264e+003;4.994756e-002
1.830192e+003;4.981079e-002
1.832121e+003;5.000410e-002
1.834049e+003;5.001165e-002
1.835978e+003;4.989422e-002
1.837906e+003;4.994693e-002
1.839835e+003;5.002176e-002
1.841763e+003;4.967546e-002
1.843692e+003;4.902143e-002
1.845620e+003;4.927522e-002
1.847549e+003;4.973888e-002
1.849478e+003;4.995440e-002
1.851406e+003;4.987686e-002
1.853335e+003;4.972685e-002
1.855263e+003;4.980610e-002
1.857192e+003;4.996388e-002
1.859120e+003;4.982814e-002
1.861049e+003;4.980930e-002
1.862977e+003;5.006824e-002
1.864906e+003;5.013848e-002
1.866834e+003;4.980547e-002
1.868763e+003;4.955252e-002
1.870692e+003;4.988407e-002
1.872620e+003;5.031769e-002
1.874549e+003;5.047703e-002
1.876477e+003;5.043245e-002
1.878406e+003;5.033335e-002
1.880334e+003;5.035966e-002
1.882263e+003;5.040804e-002
1.884191e+003;5.042080e-002
1.886120e+003;5.037540e-002
1.888048e+003;5.031475e-002
1.889977e+003;5.017195e-002
1.891906e+003;5.028592e-002
1.893834e+003;5.036956e-002
1.895763e+003;5.032938e-002
1.897691e+003;5.041176e-002
1.899620e+003;5.031129e-002
1.901548e+003;5.024802e-002
1.903477e+003;5.052556e-002
1.905405e+003;5.069723e-002
1.907334e+003;5.049322e-002
1.909262e+003;5.015317e-002
1.911191e+003;5.000235e-002
1.913120e+003;5.013186e-002
1.915048e+003;5.013342e-002
1.916977e+003;4.998726e-002
1.918905e+003;5.007359e-002
1.920834e+003;5.026933e-002
1.922762e+003;5.040454e-002
1.924691e+003;5.044238e-002
1.926619e+003;5.046400e-002
1.928548e+003;5.032082e-002
1.930477e+003;5.028153e-002
1.932405e+003;5.030612e-002
1.934334e+003;5.043885e-002
1.936262e+003;5.075253e-002
1.938191e+003;5.083704e-002
1.940119e+003;5.066160e-002
1.942048e+003;5.031620e-002
1.943976e+003;5.031234e-002
1.945905e+003;5.047562e-002
1.947833e+003;5.059648e-002
1.949762e+003;5.071872e-002
1.951691e+003;5.081518e-002
1.953619e+003;5.076210e-002
1.955548e+003;5.057146e-002
1.957476e+003;5.053778e-002
1.959405e+003;5.074903e-002
1.961333e+003;5.099165e-002
1.963262e+003;5.105031e-002
1.965190e+003;5.097630e-002
1.967119e+003;5.083846e-002
1.969047e+003;5.076374e-002
1.970976e+003;5.083678e-002
1.972905e+003;5.092719e-002
1.974833e+003;5.107505e-002
1.976762e+003;5.133620e-002
1.978690e+003;5.145159e-002
1.980619e+003;5.121856e-002
1.982547e+003;5.092067e-002
1.984476e+003;5.086840e-002
1.986404e+003;5.107184e-002
1.988333e+003;5.115996e-002
1.990261e+003;5.120555e-002
1.992190e+003;5.120279e-002
1.994119e+003;5.115112e-002
1.996047e+003;5.138323e-002
1.997976e+003;5.156004e-002
1.999904e+003;5.136577e-002
2.001833e+003;5.126729e-002
2.003761e+003;5.138490e-002
2.005690e+003;5.141788e-002
2.007618e+003;5.142310e-002
2.009547e+003;5.143988e-002
2.011476e+003;5.157419e-002
2.013404e+003;5.160153e-002
2.015333e+003;5.148237e-002
2.017261e+003;5.169629e-002
2.019190e+003;5.179748e-002
2.021118e+003;5.173484e-002
2.023047e+003;5.174242e-002
2.024975e+003;5.169852e-002
2.026904e+003;5.184997e-002
2.028833e+003;5.184041e-002
2.030761e+003;5.170412e-002
2.032690e+003;5.193563e-002
2.034618e+003;5.213961e-002
2.036547e+003;5.204846e-002
2.038475e+003;5.208301e-002
2.040404e+003;5.223858e-002
2.042332e+003;5.224524e-002
2.044261e+003;5.200643e-002
2.046189e+003;5.193798e-002
2.048118e+003;5.205245e-002
2.050047e+003;5.207348e-002
2.051975e+003;5.214711e-002
2.053904e+003;5.233946e-002
2.055832e+003;5.247123e-002
2.057761e+003;5.246192e-002
2.059689e+003;5.230249e-002
2.061618e+003;5.215810e-002
2.063546e+003;5.219528e-002
2.065475e+003;5.241986e-002
2.067404e+003;5.254370e-002
2.069332e+003;5.251820e-002
2.071260e+003;5.261012e-002
2.073189e+003;5.279757e-002
2.075118e+003;5.269622e-002
2.077046e+003;5.266850e-002
2.078975e+003;5.291860e-002
2.080903e+003;5.305051e-002
2.082832e+003;5.298687e-002
2.084760e+003;5.287515e-002
2.086689e+003;5.267696e-002
2.088617e+003;5.258401e-002
2.090546e+003;5.293634e-002
2.092475e+003;5.326056e-002
2.094403e+003;5.324052e-002
2.096332e+003;5.318884e-002
2.098260e+003;5.307369e-002
2.100189e+003;5.283971e-002
2.102117e+003;5.291654e-002
2.104046e+003;5.301989e-002
2.105974e+003;5.290415e-002
2.107903e+003;5.285561e-002
2.109832e+003;5.295711e-002
2.111760e+003;5.305444e-002
2.113688e+003;5.306377e-002
2.115617e+003;5.294457e-002
2.117546e+003;5.294165e-002
2.119474e+003;5.303225e-002
2.121403e+003;5.308904e-002
2.123331e+003;5.295360e-002
2.125260e+003;5.278313e-002
2.127188e+003;5.278946e-002
2.129117e+003;5.284626e-002
2.131045e+003;5.292455e-002
2.132974e+003;5.304172e-002
2.134903e+003;5.315618e-002
2.136831e+003;5.292410e-002
2.138760e+003;5.264812e-002
2.140688e+003;5.277887e-002
2.142617e+003;5.289117e-002
2.144545e+003;5.286841e-002
2.146474e+003;5.285681e-002
2.148402e+003;5.271545e-002
2.150331e+003;5.250758e-002
2.152260e+003;5.245590e-002
2.154188e+003;5.262755e-002
2.156117e+003;5.265732e-002
2.158045e+003;5.271572e-002
2.159974e+003;5.278538e-002
2.161902e+003;5.274052e-002
2.163831e+003;5.267636e-002
2.165759e+003;5.262871e-002
2.167688e+003;5.270730e-002
2.169616e+003;5.276001e-002
2.171545e+003;5.271325e-002
2.173474e+003;5.274789e-002
2.175402e+003;5.267980e-002
2.177331e+003;5.268923e-002
2.179259e+003;5.277561e-002
2.181188e+003;5.276012e-002
2.183116e+003;5.288028e-002
2.185045e+003;5.277254e-002
2.186973e+003;5.249827e-002
2.188902e+003;5.268133e-002
2.190831e+003;5.307358e-002
2.192759e+003;5.302536e-002
2.194688e+003;5.290505e-002
2.196616e+003;5.291010e-002
2.198545e+003;5.291998e-002
2.200473e+003;5.278425e-002
2.202402e+003;5.277498e-002
2.204330e+003;5.292747e-002
2.206259e+003;5.279858e-002
2.208188e+003;5.273427e-002
2.210116e+003;5.276094e-002
2.212044e+003;5.290954e-002
2.213973e+003;5.290861e-002
2.215902e+003;5.265987e-002
2.217830e+003;5.253614e-002
2.219759e+003;5.252642e-002
2.221687e+003;5.242540e-002
2.223616e+003;5.245822e-002
2.225544e+003;5.260170e-002
2.227473e+003;5.270101e-002
2.229401e+003;5.268425e-002
2.231330e+003;5.252788e-002
2.233259e+003;5.217375e-002
2.235187e+003;5.193088e-002
2.237116e+003;5.192390e-002
2.239044e+003;5.222689e-002
2.240973e+003;5.234693e-002
2.242901e+003;5.216987e-002
2.244830e+003;5.223963e-002
2.246758e+003;5.241949e-002
2.248687e+003;5.234884e-002
2.250615e+003;5.220888e-002
2.252544e+003;5.210770e-002
2.254473e+003;5.202122e-002
2.256401e+003;5.209802e-002
2.258330e+003;5.193802e-002
2.260258e+003;5.151191e-002
2.262187e+003;5.153669e-002
2.264115e+003;5.181148e-002
2.266044e+003;5.197730e-002
2.267972e+003;5.186147e-002
2.269901e+003;5.179707e-002
2.271830e+003;5.177038e-002
2.273758e+003;5.179711e-002
2.275687e+003;5.193275e-002
2.277615e+003;5.190579e-002
2.279544e+003;5.179961e-002
2.281472e+003;5.179774e-002
2.283401e+003;5.182932e-002
2.285329e+003;5.180356e-002
2.287258e+003;5.171002e-002
2.289187e+003;5.175041e-002
2.291115e+003;5.162721e-002
2.293043e+003;5.150691e-002
2.294972e+003;5.147241e-002
2.296901e+003;5.153344e-002
2.298829e+003;5.160571e-002
2.300758e+003;5.158885e-002
2.302686e+003;5.176847e-002
2.304615e+003;5.192562e-002
2.306543e+003;5.168057e-002
2.308472e+003;5.148905e-002
2.310400e+003;5.145790e-002
2.312329e+003;5.153091e-002
2.314258e+003;5.159594e-002
2.316186e+003;5.148606e-002
2.318115e+003;5.133389e-002
2.320043e+003;5.129362e-002
2.321972e+003;5.140594e-002
2.323900e+003;5.161030e-002
2.325829e+003;5.153598e-002
2.327757e+003;5.120562e-002
2.329686e+003;5.112175e-002
2.331615e+003;5.139915e-002
2.333543e+003;5.153777e-002
2.335472e+003;5.151374e-002
2.337400e+003;5.151121e-002
2.339329e+003;5.138326e-002
2.341257e+003;5.133240e-002
2.343186e+003;5.158008e-002
2.345114e+003;5.170390e-002
2.347043e+003;5.183138e-002
2.348971e+003;5.168207e-002
2.350900e+003;5.127083e-002
2.352829e+003;5.136808e-002
2.354757e+003;5.151777e-002
2.356686e+003;5.147827e-002
2.358614e+003;5.153172e-002
2.360543e+003;5.149199e-002
2.362471e+003;5.133113e-002
2.364400e+003;5.137450e-002
2.366328e+003;5.146961e-002
2.368257e+003;5.152975e-002
2.370186e+003;5.165266e-002
2.372114e+003;5.178874e-002
2.374042e+003;5.169338e-002
2.375971e+003;5.146842e-002
2.377900e+003;5.129496e-002
2.379828e+003;5.139400e-002
2.381757e+003;5.139609e-002
2.383685e+003;5.139356e-002
2.385614e+003;5.175287e-002
2.387542e+003;5.185348e-002
2.389471e+003;5.176022e-002
2.391399e+003;5.179162e-002
2.393328e+003;5.204696e-002
2.395257e+003;5.203497e-002
2.397185e+003;5.176523e-002
2.399114e+003;5.175347e-002
2.401042e+003;5.175720e-002
2.402971e+003;5.195740e-002
2.404899e+003;5.210285e-002
2.406828e+003;5.210464e-002
2.408756e+003;5.213531e-002
2.410685e+003;5.196393e-002
2.412614e+003;5.178445e-002
2.414542e+003;5.196651e-002
2.416471e+003;5.200038e-002
2.418399e+003;5.226205e-002
2.420328e+003;5.247613e-002
2.422256e+003;5.248551e-002
2.424185e+003;5.272103e-002
2.426113e+003;5.268781e-002
2.428042e+003;5.244469e-002
2.429970e+003;5.248465e-002
2.431899e+003;5.256797e-002
2.433828e+003;5.260174e-002
2.435756e+003;5.270636e-002
2.437685e+003;5.276843e-002
2.439613e+003;5.301780e-002
2.441542e+003;5.306579e-002
2.443470e+003;5.291055e-002
2.445399e+003;5.275140e-002
2.447327e+003;5.276716e-002
2.449256e+003;5.311862e-002
2.451185e+003;5.326502e-002
2.453113e+003;5.311948e-002
2.455042e+003;5.312139e-002
2.456970e+003;5.327491e-002
2.458899e+003;5.331296e-002
2.460827e+003;5.322550e-002
2.462756e+003;5.300881e-002
2.464684e+003;5.293462e-002
2.466613e+003;5.282957e-002
2.468542e+003;5.313517e-002
2.470470e+003;5.330787e-002
2.472398e+003;5.322655e-002
2.474327e+003;5.338831e-002
2.476256e+003;5.352224e-002
2.478184e+003;5.349687e-002
2.480113e+003;5.331207e-002
2.482041e+003;5.329408e-002
2.483970e+003;5.339303e-002
2.485898e+003;5.349222e-002
2.487827e+003;5.373529e-002
2.489755e+003;5.388610e-002
2.491684e+003;5.364497e-002
2.493613e+003;5.346449e-002
2.495541e+003;5.348499e-002
2.497470e+003;5.366536e-002
2.499398e+003;5.350841e-002
2.501327e+003;5.336729e-002
2.503255e+003;5.361168e-002
2.505184e+003;5.359286e-002
2.507112e+003;5.362918e-002
2.509041e+003;5.397707e-002
2.510969e+003;5.402183e-002
2.512898e+003;5.374125e-002
2.514827e+003;5.382691e-002
2.516755e+003;5.413254e-002
2.518684e+003;5.413198e-002
2.520612e+003;5.413164e-002
2.522541e+003;5.406855e-002
2.524469e+003;5.388193e-002
2.526398e+003;5.384896e-002
2.528326e+003;5.382961e-002
2.530255e+003;5.387638e-002
2.532184e+003;5.395970e-002
2.534112e+003;5.379327e-002
2.536041e+003;5.387578e-002
2.537969e+003;5.418126e-002
2.539898e+003;5.433556e-002
2.541826e+003;5.424181e-002
2.543755e+003;5.415262e-002
2.545683e+003;5.415059e-002
2.547612e+003;5.418190e-002
2.549541e+003;5.416748e-002
2.551469e+003;5.410826e-002
2.553397e+003;5.425901e-002
2.555326e+003;5.453252e-002
2.557255e+003;5.465264e-002
2.559183e+003;5.446802e-002
2.561112e+003;5.436234e-002
2.563040e+003;5.448304e-002
2.564969e+003;5.482812e-002
2.566897e+003;5.508951e-002
2.568826e+003;5.484496e-002
2.570754e+003;5.458955e-002
2.572683e+003;5.473885e-002
2.574612e+003;5.503098e-002
2.576540e+003;5.512182e-002
2.578469e+003;5.508861e-002
2.580397e+003;5.512720e-002
2.582326e+003;5.493509e-002
2.584254e+003;5.498939e-002
2.586183e+003;5.527033e-002
2.588111e+003;5.537932e-002
2.590040e+003;5.537107e-002
2.591969e+003;5.538835e-002
2.593897e+003;5.520365e-002
2.595826e+003;5.528842e-002
2.597754e+003;5.530920e-002
2.599683e+003;5.506686e-002
2.601611e+003;5.527454e-002
2.603540e+003;5.553766e-002
2.605468e+003;5.558029e-002
2.607397e+003;5.543239e-002
2.609325e+003;5.527529e-002
2.611254e+003;5.536456e-002
2.613183e+003;5.561700e-002
2.615111e+003;5.577834e-002
2.617040e+003;5.566529e-002
2.618968e+003;5.541496e-002
2.620897e+003;5.523269e-002
2.622825e+003;5.542855e-002
2.624754e+003;5.570503e-002
2.626682e+003;5.586587e-002
2.628611e+003;5.608433e-002
2.630540e+003;5.601104e-002
2.632468e+003;5.580019e-002
2.634396e+003;5.605409e-002
2.636325e+003;5.607649e-002
2.638254e+003;5.601956e-002
2.640182e+003;5.620141e-002
2.642111e+003;5.613776e-002
2.644039e+003;5.608271e-002
2.645968e+003;5.617848e-002
2.647896e+003;5.627190e-002
2.649825e+003;5.620899e-002
2.651753e+003;5.612056e-002
2.653682e+003;5.604538e-002
2.655611e+003;5.610175e-002
2.657539e+003;5.621329e-002
2.659468e+003;5.630841e-002
2.661396e+003;5.628340e-002
2.663325e+003;5.624742e-002
2.665253e+003;5.622630e-002
2.667182e+003;5.641660e-002
2.669110e+003;5.674442e-002
2.671039e+003;5.691557e-002
2.672968e+003;5.686764e-002
2.674896e+003;5.693605e-002
2.676825e+003;5.700617e-002
2.678753e+003;5.712244e-002
2.680682e+003;5.719133e-002
2.682610e+003;5.716488e-002
2.684539e+003;5.704312e-002
2.686467e+003;5.700405e-002
2.688396e+003;5.694035e-002
2.690324e+003;5.697258e-002
2.692253e+003;5.736051e-002
2.694182e+003;5.748380e-002
2.696110e+003;5.755851e-002
2.698039e+003;5.760167e-002
2.699967e+003;5.742517e-002
2.701896e+003;5.736157e-002
2.703824e+003;5.746243e-002
2.705753e+003;5.773816e-002
2.707681e+003;5.777816e-002
2.709610e+003;5.763122e-002
2.711539e+003;5.775367e-002
2.713467e+003;5.792156e-002
2.715396e+003;5.813132e-002
2.717324e+003;5.804924e-002
2.719253e+003;5.791027e-002
2.721181e+003;5.831966e-002
2.723110e+003;5.875314e-002
2.725038e+003;5.875751e-002
2.726967e+003;5.882727e-002
2.728896e+003;5.890168e-002
2.730824e+003;5.883008e-002
2.732752e+003;5.878247e-002
2.734681e+003;5.866465e-002
2.736610e+003;5.871188e-002
2.738538e+003;5.893447e-002
2.740467e+003;5.906690e-002
2.742395e+003;5.923388e-002
2.744324e+003;5.934752e-002
2.746252e+003;5.922268e-002
2.748181e+003;5.898244e-002
2.750109e+003;5.916655e-002
2.752038e+003;5.955075e-002
2.753967e+003;5.940249e-002
2.755895e+003;5.929366e-002
2.757824e+003;5.960369e-002
2.759752e+003;5.984812e-002
2.761681e+003;5.997489e-002
2.763609e+003;5.987189e-002
2.765538e+003;5.984770e-002
2.767466e+003;6.029299e-002
2.769395e+003;6.024856e-002
2.771323e+003;5.975199e-002
2.773252e+003;6.002587e-002
2.775181e+003;6.043878e-002
2.777109e+003;6.038867e-002
2.779038e+003;6.017663e-002
2.780966e+003;6.039998e-002
2.782895e+003;6.081595e-002
2.784823e+003;6.074068e-002
2.786752e+003;6.045108e-002
2.788680e+003;6.040119e-002
2.790609e+003;6.062016e-002
2.792538e+003;6.097972e-002
2.794466e+003;6.142495e-002
2.796395e+003;6.147286e-002
2.798323e+003;6.131661e-002
2.800252e+003;6.152783e-002
2.802180e+003;6.169973e-002
2.804109e+003;6.166441e-002
2.806037e+003;6.183606e-002
2.807966e+003;6.213836e-002
2.809895e+003;6.226030e-002
2.811823e+003;6.220145e-002
2.813751e+003;6.239948e-002
2.815680e+003;6.266186e-002
2.817609e+003;6.249899e-002
2.819537e+003;6.253270e-002
2.821466e+003;6.271687e-002
2.823394e+003;6.285077e-002
2.825323e+003;6.304258e-002
2.827251e+003;6.308641e-002
2.829180e+003;6.306557e-002
2.831108e+003;6.347828e-002
2.833037e+003;6.383599e-002
2.834966e+003;6.381825e-002
2.836894e+003;6.383568e-002
2.838823e+003;6.401511e-002
2.840751e+003;6.439159e-002
2.842680e+003;6.486607e-002
2.844608e+003;6.551850e-002
2.846537e+003;6.631780e-002
2.848465e+003;6.682836e-002
2.850394e+003;6.670544e-002
2.852323e+003;6.632880e-002
2.854251e+003;6.609258e-002
2.856180e+003;6.631868e-002
2.858108e+003;6.658387e-002
2.860037e+003;6.683713e-002
2.861965e+003;6.717093e-002
2.863894e+003;6.765582e-002
2.865822e+003;6.817024e-002
2.867751e+003;6.906474e-002
2.869679e+003;6.957259e-002
2.871608e+003;6.970235e-002
2.873536e+003;7.013080e-002
2.875465e+003;7.040787e-002
2.877394e+003;7.061046e-002
2.879322e+003;7.036564e-002
2.881251e+003;7.013470e-002
2.883179e+003;6.973737e-002
2.885108e+003;6.938421e-002
2.887036e+003;6.957341e-002
2.888965e+003;6.990547e-002
2.890893e+003;7.008769e-002
2.892822e+003;7.001022e-002
2.894750e+003;7.000477e-002
2.896679e+003;6.993684e-002
2.898608e+003;7.027572e-002
2.900536e+003;7.100649e-002
2.902465e+003;7.147916e-002
2.904393e+003;7.178008e-002
2.906322e+003;7.225077e-002
2.908250e+003;7.273693e-002
2.910179e+003;7.330299e-002
2.912107e+003;7.406697e-002
2.914036e+003;7.477014e-002
2.915965e+003;7.510356e-002
2.917893e+003;7.555113e-002
2.919822e+003;7.597631e-002
2.921750e+003;7.568971e-002
2.923679e+003;7.522292e-002
2.925607e+003;7.484929e-002
2.927536e+003;7.478128e-002
2.929464e+003;7.503538e-002
2.931393e+003;7.546046e-002
2.933322e+003;7.572517e-002
2.935250e+003;7.581595e-002
2.937178e+003;7.572466e-002
2.939107e+003;7.520232e-002
2.941036e+003;7.510541e-002
2.942964e+003;7.499564e-002
2.944893e+003;7.485913e-002
2.946821e+003;7.485595e-002
2.948750e+003;7.462563e-002
2.950678e+003;7.487579e-002
2.952607e+003;7.539710e-002
2.954535e+003;7.558374e-002
2.956464e+003;7.562373e-002
2.958393e+003;7.604693e-002
2.960321e+003;7.640168e-002
2.962250e+003;7.605218e-002
2.964178e+003;7.560567e-002
2.966107e+003;7.532037e-002
2.968035e+003;7.473724e-002
2.969964e+003;7.386515e-002
2.971892e+003;7.351993e-002
2.973821e+003;7.350321e-002
2.975750e+003;7.305703e-002
2.977678e+003;7.244306e-002
2.979607e+003;7.198718e-002
2.981535e+003;7.133594e-002
2.983464e+003;7.053515e-002
2.985392e+003;6.988215e-002
2.987321e+003;6.936640e-002
2.989249e+003;6.909788e-002
2.991178e+003;6.884008e-002
2.993106e+003;6.832952e-002
2.995035e+003;6.773973e-002
2.996964e+003;6.755044e-002
2.998892e+003;6.781336e-002
3.000821e+003;6.791888e-002
3.002749e+003;6.754950e-002
3.004678e+003;6.730416e-002
3.006606e+003;6.734432e-002
3.008535e+003;6.748595e-002
3.010463e+003;6.755338e-002
3.012392e+003;6.776370e-002
3.014321e+003;6.783885e-002
3.016249e+003;6.796553e-002
3.018177e+003;6.819796e-002
3.020106e+003;6.853479e-002
3.022035e+003;6.876158e-002
3.023963e+003;6.869490e-002
3.025892e+003;6.874046e-002
3.027820e+003;6.903251e-002
3.029749e+003;6.942981e-002
3.031677e+003;6.989998e-002
3.033606e+003;7.003506e-002
3.035534e+003;7.024401e-002
3.037463e+003;7.063581e-002
3.039392e+003;7.049291e-002
3.041320e+003;7.052030e-002
3.043249e+003;7.085801e-002
3.045177e+003;7.098823e-002
3.047106e+003;7.115194e-002
3.049034e+003;7.124785e-002
3.050963e+003;7.119936e-002
3.052891e+003;7.144775e-002
3.054820e+003;7.179802e-002
3.056749e+003;7.185873e-002
3.058677e+003;7.163899e-002
3.060606e+003;7.186350e-002
3.062534e+003;7.214520e-002
3.064463e+003;7.217302e-002
3.066391e+003;7.217067e-002
3.068320e+003;7.187257e-002
3.070248e+003;7.157908e-002
3.072177e+003;7.161953e-002
3.074105e+003;7.145178e-002
3.076034e+003;7.145236e-002
3.077963e+003;7.172102e-002
3.079891e+003;7.164247e-002
3.081820e+003;7.116291e-002
3.083748e+003;7.082037e-002
3.085677e+003;7.079057e-002
3.087605e+003;7.100103e-002
3.089534e+003;7.102124e-002
3.091462e+003;7.097637e-002
3.093391e+003;7.107922e-002
3.095320e+003;7.098850e-002
3.097248e+003;7.059000e-002
3.099177e+003;7.032695e-002
3.101105e+003;7.015721e-002
3.103034e+003;7.007711e-002
3.104962e+003;6.987780e-002
3.106891e+003;6.957816e-002
3.108819e+003;6.965392e-002
3.110748e+003;6.992267e-002
3.112677e+003;7.012944e-002
3.114605e+003;7.014334e-002
3.116533e+003;7.030241e-002
3.118462e+003;7.043391e-002
3.120391e+003;7.037394e-002
3.122319e+003;7.035352e-002
3.124248e+003;7.055367e-002
3.126176e+003;7.085267e-002
3.128105e+003;7.127666e-002
3.130033e+003;7.175064e-002
3.131962e+003;7.204436e-002
3.133890e+003;7.197322e-002
3.135819e+003;7.190181e-002
3.137748e+003;7.201088e-002
3.139676e+003;7.227843e-002
3.141605e+003;7.238473e-002
3.143533e+003;7.226787e-002
3.145462e+003;7.251800e-002
3.147390e+003;7.337521e-002
3.149319e+003;7.421160e-002
3.151247e+003;7.435632e-002
3.153176e+003;7.413900e-002
3.155104e+003;7.410434e-002
3.157033e+003;7.465011e-002
3.158962e+003;7.519515e-002
3.160890e+003;7.565615e-002
3.162819e+003;7.639702e-002
3.164747e+003;7.677668e-002
3.166676e+003;7.664867e-002
3.168604e+003;7.702274e-002
3.170533e+003;7.729664e-002
3.172461e+003;7.773222e-002
3.174390e+003;7.851539e-002
3.176319e+003;7.884829e-002
3.178247e+003;7.881165e-002
3.180176e+003;7.887121e-002
3.182104e+003;7.922163e-002
3.184033e+003;7.962213e-002
3.185961e+003;7.989573e-002
3.187890e+003;8.052500e-002
3.189818e+003;8.123296e-002
3.191747e+003;8.134878e-002
3.193676e+003;8.137476e-002
3.195604e+003;8.175101e-002
3.197532e+003;8.214748e-002
3.199461e+003;8.222339e-002
3.201390e+003;8.252692e-002
3.203318e+003;8.293292e-002
3.205247e+003;8.287252e-002
3.207175e+003;8.291696e-002
3.209104e+003;8.300829e-002
3.211032e+003;8.299685e-002
3.212961e+003;8.332465e-002
3.214889e+003;8.344477e-002
3.216818e+003;8.337604e-002
3.218747e+003;8.345084e-002
3.220675e+003;8.376411e-002
3.222604e+003;8.392254e-002
3.224532e+003;8.392619e-002
3.226461e+003;8.401279e-002
3.228389e+003;8.458352e-002
3.230318e+003;8.513457e-002
3.232246e+003;8.542421e-002
3.234175e+003;8.559313e-002
3.236104e+003;8.591518e-002
3.238032e+003;8.612764e-002
3.239961e+003;8.642870e-002
3.241889e+003;8.704241e-002
3.243818e+003;8.759846e-002
3.245746e+003;8.755711e-002
3.247675e+003;8.749331e-002
3.249603e+003;8.794541e-002
3.251532e+003;8.853766e-002
3.253460e+003;8.910376e-002
3.255389e+003;8.944532e-002
3.257318e+003;8.990911e-002
3.259246e+003;9.064206e-002
3.261175e+003;9.094255e-002
3.263103e+003;9.097454e-002
3.265032e+003;9.126368e-002
3.266960e+003;9.177166e-002
3.268889e+003;9.171759e-002
3.270817e+003;9.158633e-002
3.272746e+003;9.189971e-002
3.274675e+003;9.219820e-002
3.276603e+003;9.252121e-002
3.278531e+003;9.285312e-002
3.280460e+003;9.294607e-002
3.282389e+003;9.290790e-002
3.284317e+003;9.281205e-002
3.286246e+003;9.267581e-002
3.288174e+003;9.292567e-002
3.290103e+003;9.296187e-002
3.292031e+003;9.245693e-002
3.293960e+003;9.228564e-002
3.295888e+003;9.261955e-002
3.297817e+003;9.251625e-002
3.299746e+003;9.217136e-002
3.301674e+003;9.182561e-002
3.303603e+003;9.200257e-002
3.305531e+003;9.195048e-002
3.307460e+003;9.123850e-002
3.309388e+003;9.055365e-002
3.311317e+003;9.036855e-002
3.313245e+003;9.020073e-002
3.315174e+003;8.985915e-002
3.317103e+003;8.955172e-002
3.319031e+003;8.916902e-002
3.320960e+003;8.841438e-002
3.322888e+003;8.755139e-002
3.324817e+003;8.740290e-002
3.326745e+003;8.721436e-002
3.328674e+003;8.649121e-002
3.330602e+003;8.564297e-002
3.332531e+003;8.520157e-002
3.334459e+003;8.518858e-002
3.336388e+003;8.508576e-002
3.338317e+003;8.434787e-002
3.340245e+003;8.400977e-002
3.342174e+003;8.350015e-002
3.344102e+003;8.249715e-002
3.346031e+003;8.194460e-002
3.347959e+003;8.177965e-002
3.349888e+003;8.140554e-002
3.351816e+003;8.082036e-002
3.353745e+003;8.020577e-002
3.355674e+003;7.976539e-002
3.357602e+003;7.946331e-002
3.359531e+003;7.888424e-002
3.361459e+003;7.771447e-002
3.363388e+003;7.694805e-002
3.365316e+003;7.723220e-002
3.367245e+003;7.709642e-002
3.369173e+003;7.650279e-002
3.371102e+003;7.548781e-002
3.373031e+003;7.504113e-002
3.374959e+003;7.506035e-002
3.376887e+003;7.457890e-002
3.378816e+003;7.440976e-002
3.380745e+003;7.387851e-002
3.382673e+003;7.276341e-002
3.384602e+003;7.224372e-002
3.386530e+003;7.220142e-002
3.388459e+003;7.166095e-002
3.390387e+003;7.118586e-002
3.392316e+003;7.079849e-002
3.394244e+003;7.026244e-002
3.396173e+003;7.015253e-002
3.398102e+003;7.013723e-002
3.400030e+003;6.967392e-002
3.401959e+003;6.924468e-002
3.403887e+003;6.896275e-002
3.405816e+003;6.853642e-002
3.407744e+003;6.810117e-002
3.409673e+003;6.786174e-002
3.411601e+003;6.698919e-002
3.413530e+003;6.595518e-002
3.415458e+003;6.553881e-002
3.417387e+003;6.549288e-002
3.419316e+003;6.529235e-002
3.421244e+003;6.505281e-002
3.423173e+003;6.487338e-002
3.425101e+003;6.427017e-002
3.427030e+003;6.378371e-002
3.428958e+003;6.363703e-002
3.430887e+003;6.385859e-002
3.432815e+003;6.356971e-002
3.434744e+003;6.275217e-002
3.436673e+003;6.221464e-002
3.438601e+003;6.148290e-002
3.440530e+003;6.069415e-002
3.442458e+003;6.010338e-002
3.444387e+003;6.001552e-002
3.446315e+003;6.017644e-002
3.448244e+003;6.030159e-002
3.450172e+003;5.998687e-002
3.452101e+003;5.936070e-002
3.454030e+003;5.876354e-002
3.455958e+003;5.822626e-002
3.457886e+003;5.800331e-002
3.459815e+003;5.773040e-002
3.461744e+003;5.743682e-002
3.463672e+003;5.728172e-002
3.465601e+003;5.729435e-002
3.467529e+003;5.733578e-002
3.469458e+003;5.710233e-002
3.471386e+003;5.691837e-002
3.473315e+003;5.664063e-002
3.475243e+003;5.562875e-002
3.477172e+003;5.488741e-002
3.479101e+003;5.461935e-002
3.481029e+003;5.457197e-002
3.482958e+003;5.444297e-002
3.484886e+003;5.457576e-002
3.486815e+003;5.428056e-002
3.488743e+003;5.411794e-002
3.490672e+003;5.412173e-002
3.492600e+003;5.385155e-002
3.494529e+003;5.303236e-002
3.496458e+003;5.248133e-002
3.498386e+003;5.240225e-002
3.500315e+003;5.216053e-002
3.502243e+003;5.185740e-002
3.504172e+003;5.186516e-002
3.506100e+003;5.179442e-002
3.508029e+003;5.116514e-002
3.509957e+003;5.071842e-002
3.511886e+003;5.064503e-002
3.513814e+003;5.022641e-002
3.515743e+003;5.009571e-002
3.517672e+003;5.015953e-002
3.519600e+003;4.987463e-002
3.521529e+003;4.916589e-002
3.523457e+003;4.902643e-002
3.525386e+003;4.919955e-002
3.527314e+003;4.920378e-002
3.529243e+003;4.927693e-002
3.531171e+003;4.897202e-002
3.533100e+003;4.869138e-002
3.535029e+003;4.848868e-002
3.536957e+003;4.822820e-002
3.538885e+003;4.755789e-002
3.540814e+003;4.709710e-002
3.542743e+003;4.722438e-002
3.544671e+003;4.704950e-002
3.546600e+003;4.650652e-002
3.548528e+003;4.643852e-002
3.550457e+003;4.633308e-002
3.552385e+003;4.617389e-002
3.554314e+003;4.632810e-002
3.556242e+003;4.625051e-002
3.558171e+003;4.571920e-002
3.560100e+003;4.521962e-002
3.562028e+003;4.494738e-002
3.563957e+003;4.426131e-002
3.565885e+003;4.353727e-002
3.567814e+003;4.328120e-002
3.569742e+003;4.364390e-002
3.571671e+003;4.407812e-002
3.573599e+003;4.381115e-002
3.575528e+003;4.301995e-002
3.577457e+003;4.280514e-002
3.579385e+003;4.294404e-002
3.581314e+003;4.311819e-002
3.583242e+003;4.317407e-002
3.585171e+003;4.241238e-002
3.587099e+003;4.148470e-002
3.589028e+003;4.144836e-002
3.590956e+003;4.186021e-002
3.592885e+003;4.105944e-002
3.594813e+003;4.083108e-002
3.596742e+003;4.145076e-002
3.598671e+003;4.157753e-002
3.600599e+003;4.115516e-002
3.602528e+003;4.072760e-002
3.604456e+003;4.058646e-002
3.606385e+003;4.008649e-002
3.608313e+003;3.921565e-002
3.610242e+003;3.929672e-002
3.612170e+003;3.951368e-002
3.614099e+003;3.889773e-002
3.616028e+003;3.823839e-002
3.617956e+003;3.796482e-002
3.619885e+003;3.790628e-002
3.621813e+003;3.799744e-002
3.623742e+003;3.784486e-002
3.625670e+003;3.765623e-002
3.627599e+003;3.650338e-002
3.629527e+003;3.590414e-002
3.631456e+003;3.667731e-002
3.633385e+003;3.682335e-002
3.635313e+003;3.692864e-002
3.637241e+003;3.722766e-002
3.639170e+003;3.704124e-002
3.641099e+003;3.629779e-002
3.643027e+003;3.587139e-002
3.644956e+003;3.605831e-002
3.646884e+003;3.533716e-002
3.648813e+003;3.393135e-002
3.650741e+003;3.431472e-002
3.652670e+003;3.544756e-002
3.654598e+003;3.497016e-002
3.656527e+003;3.431278e-002
3.658456e+003;3.460886e-002
3.660384e+003;3.450574e-002
3.662313e+003;3.420777e-002
3.664241e+003;3.414550e-002
3.666170e+003;3.385537e-002
3.668098e+003;3.303564e-002
3.670027e+003;3.184998e-002
3.671955e+003;3.151406e-002
3.673884e+003;3.108503e-002
3.675813e+003;3.093475e-002
3.677741e+003;3.173715e-002
3.679669e+003;3.225189e-002
3.681598e+003;3.199476e-002
3.683527e+003;3.126815e-002
3.685455e+003;3.051890e-002
3.687384e+003;2.948836e-002
3.689312e+003;2.956039e-002
3.691241e+003;3.012964e-002
3.693169e+003;3.081603e-002
3.695098e+003;3.129461e-002
3.697026e+003;3.084975e-002
3.698955e+003;3.036217e-002
3.700884e+003;3.029083e-002
3.702812e+003;3.023328e-002
3.704741e+003;2.981403e-002
3.706669e+003;2.932088e-002
3.708598e+003;2.888561e-002
3.710526e+003;2.914657e-002
3.712455e+003;2.943503e-002
3.714383e+003;2.908677e-002
3.716312e+003;2.877839e-002
3.718240e+003;2.893767e-002
3.720169e+003;2.866681e-002
3.722098e+003;2.872933e-002
3.724026e+003;2.871531e-002
3.725955e+003;2.834724e-002
3.727883e+003;2.887191e-002
3.729812e+003;2.894982e-002
3.731740e+003;2.763684e-002
3.733669e+003;2.727198e-002
3.735597e+003;2.749050e-002
3.737526e+003;2.785936e-002
3.739455e+003;2.849720e-002
3.741383e+003;2.914328e-002
3.743312e+003;2.818907e-002
3.745240e+003;2.762473e-002
3.747169e+003;2.776027e-002
3.749097e+003;2.711370e-002
3.751026e+003;2.672596e-002
3.752954e+003;2.724051e-002
3.754883e+003;2.807520e-002
3.756812e+003;2.818921e-002
3.758740e+003;2.833289e-002
3.760668e+003;2.870122e-002
3.762597e+003;2.852459e-002
3.764526e+003;2.765563e-002
3.766454e+003;2.762544e-002
3.768383e+003;2.794030e-002
3.770311e+003;2.816503e-002
3.772240e+003;2.853195e-002
3.774168e+003;2.830763e-002
3.776097e+003;2.821251e-002
3.778025e+003;2.824865e-002
3.779954e+003;2.785332e-002
3.781883e+003;2.758169e-002
3.783811e+003;2.799685e-002
3.785740e+003;2.855342e-002
3.787668e+003;2.890417e-002
3.789597e+003;2.886500e-002
3.791525e+003;2.842903e-002
3.793454e+003;2.778864e-002
3.795382e+003;2.754599e-002
3.797311e+003;2.774960e-002
3.799240e+003;2.707047e-002
3.801168e+003;2.683415e-002
3.803097e+003;2.804230e-002
3.805025e+003;2.821240e-002
3.806954e+003;2.752065e-002
3.808882e+003;2.815541e-002
3.810811e+003;2.854345e-002
3.812739e+003;2.783569e-002
3.814668e+003;2.672726e-002
3.816596e+003;2.714054e-002
3.818525e+003;2.755821e-002
3.820454e+003;2.718107e-002
3.822382e+003;2.786151e-002
3.824311e+003;2.879719e-002
3.826239e+003;2.866455e-002
3.828168e+003;2.823567e-002
3.830096e+003;2.780227e-002
3.832025e+003;2.771040e-002
3.833953e+003;2.749565e-002
3.835882e+003;2.682171e-002
3.837811e+003;2.706373e-002
3.839739e+003;2.806382e-002
3.841667e+003;2.823270e-002
3.843596e+003;2.833384e-002
3.845525e+003;2.853290e-002
3.847453e+003;2.839510e-002
3.849382e+003;2.789783e-002
3.851310e+003;2.661903e-002
3.853239e+003;2.592477e-002
3.855167e+003;2.731962e-002
3.857096e+003;2.848298e-002
3.859024e+003;2.856691e-002
3.860953e+003;2.884510e-002
3.862882e+003;2.900585e-002
3.864810e+003;2.855548e-002
3.866739e+003;2.799596e-002
3.868667e+003;2.670048e-002
3.870596e+003;2.657961e-002
3.872524e+003;2.793592e-002
3.874453e+003;2.895928e-002
3.876381e+003;2.924407e-002
3.878310e+003;2.877967e-002
3.880239e+003;2.892407e-002
3.882167e+003;2.899271e-002
3.884096e+003;2.802593e-002
3.886024e+003;2.801052e-002
3.887953e+003;2.891284e-002
3.889881e+003;2.885041e-002
3.891810e+003;2.876030e-002
3.893738e+003;2.935040e-002
3.895667e+003;2.904369e-002
3.897595e+003;2.852052e-002
3.899524e+003;2.834947e-002
3.901453e+003;2.842269e-002
3.903381e+003;2.853877e-002
3.905310e+003;2.884485e-002
3.907238e+003;2.942234e-002
3.909167e+003;2.953766e-002
3.911095e+003;2.913375e-002
3.913024e+003;2.933856e-002
3.914952e+003;2.942557e-002
3.916881e+003;2.823504e-002
3.918810e+003;2.800483e-002
3.920738e+003;2.852409e-002
3.922667e+003;2.889291e-002
3.924595e+003;2.889609e-002
3.926524e+003;2.918088e-002
3.928452e+003;2.940507e-002
3.930381e+003;2.919696e-002
3.932309e+003;2.954756e-002
3.934238e+003;2.989807e-002
3.936167e+003;2.907947e-002
3.938095e+003;2.881213e-002
3.940023e+003;2.880261e-002
3.941952e+003;2.864360e-002
3.943881e+003;2.897475e-002
3.945809e+003;2.897550e-002
3.947738e+003;2.881766e-002
3.949666e+003;2.942581e-002
3.951595e+003;2.926196e-002
3.953523e+003;2.830848e-002
3.955452e+003;2.805583e-002
3.957380e+003;2.852933e-002
3.959309e+003;2.917964e-002
3.961238e+003;2.923085e-002
3.963166e+003;2.915157e-002
3.965095e+003;2.913378e-002
3.967023e+003;2.888101e-002
3.968952e+003;2.927990e-002
3.970880e+003;2.921309e-002
3.972809e+003;2.876190e-002
3.974737e+003;2.874359e-002
3.976666e+003;2.862855e-002
3.978594e+003;2.847212e-002
3.980523e+003;2.813802e-002
3.982452e+003;2.820314e-002
3.984380e+003;2.844827e-002
3.986309e+003;2.835329e-002
3.988237e+003;2.793059e-002
3.990166e+003;2.763384e-002
3.992094e+003;2.776850e-002
3.994023e+003;2.867945e-002
3.995951e+003;2.865559e-002
3.997880e+003;2.806096e-002
3.999809e+003;2.805919e-002
4.001737e+003;0.000000e+000
