3.992094e+002;0.000000e+000
4.011380e+002;0.000000e+000
4.030665e+002;0.000000e+000
4.049951e+002;0.000000e+000
4.069236e+002;0.000000e+000
4.088522e+002;0.000000e+000
4.107807e+002;0.000000e+000
4.127093e+002;0.000000e+000
4.146378e+002;0.000000e+000
4.165664e+002;0.000000e+000
4.184949e+002;0.000000e+000
4.204235e+002;0.000000e+000
4.223520e+002;0.000000e+000
4.242806e+002;0.000000e+000
4.262091e+002;0.000000e+000
4.281377e+002;0.000000e+000
4.300662e+002;0.000000e+000
4.319948e+002;0.000000e+000
4.339233e+002;0.000000e+000
4.358519e+002;0.000000e+000
4.377804e+002;0.000000e+000
4.397090e+002;0.000000e+000
4.416375e+002;0.000000e+000
4.435660e+002;0.000000e+000
4.454946e+002;0.000000e+000
4.474232e+002;0.000000e+000
4.493517e+002;0.000000e+000
4.512802e+002;0.000000e+000
4.532088e+002;0.000000e+000
4.551373e+002;0.000000e+000
4.570659e+002;0.000000e+000
4.589944e+002;0.000000e+000
4.609230e+002;0.000000e+000
4.628515e+002;0.000000e+000
4.647801e+002;0.000000e+000
4.667086e+002;0.000000e+000
4.686372e+002;0.000000e+000
4.705657e+002;0.000000e+000
4.724943e+002;0.000000e+000
4.744228e+002;0.000000e+000
4.763513e+002;0.000000e+000
4.782799e+002;0.000000e+000
4.802085e+002;0.000000e+000
4.821370e+002;0.000000e+000
4.840656e+002;0.000000e+000
4.859941e+002;0.000000e+000
4.879226e+002;0.000000e+000
4.898512e+002;0.000000e+000
4.917798e+002;0.000000e+000
4.937083e+002;0.000000e+000
4.956368e+002;0.000000e+000
4.975654e+002;0.000000e+000
4.994939e+002;0.000000e+000
5.014225e+002;0.000000e+000
5.033510e+002;0.000000e+000
5.052796e+002;0.000000e+000
5.072081e+002;0.000000e+000
5.091367e+002;0.000000e+000
5.110652e+002;0.000000e+000
5.129938e+002;0.000000e+000
5.149223e+002;0.000000e+000
5.168509e+002;0.000000e+000
5.187794e+002;0.000000e+000
5.207079e+002;0.000000e+000
5.226365e+002;0.000000e+000
5.245651e+002;0.000000e+000
5.264936e+002;0.000000e+000
5.284222e+002;0.000000e+000
5.303507e+002;0.000000e+000
5.322792e+002;0.000000e+000
5.342078e+002;0.000000e+000
5.361364e+002;0.000000e+000
5.380649e+002;0.000000e+000
5.399935e+002;0.000000e+000
5.419220e+002;0.000000e+000
5.438505e+002;0.000000e+000
5.457791e+002;0.000000e+000
5.477076e+002;0.000000e+000
5.496362e+002;0.000000e+000
5.515648e+002;0.000000e+000
5.534933e+002;0.000000e+000
5.554218e+002;0.000000e+000
5.573504e+002;0.000000e+000
5.592789e+002;0.000000e+000
5.612075e+002;0.000000e+000
5.631360e+002;0.000000e+000
5.650646e+002;0.000000e+000
5.669931e+002;0.000000e+000
5.689217e+002;0.000000e+000
5.708502e+002;0.000000e+000
5.727787e+002;0.000000e+000
5.747073e+002;0.000000e+000
5.766359e+002;0.000000e+000
5.785644e+002;0.000000e+000
5.804930e+002;0.000000e+000
5.824215e+002;0.000000e+000
5.843500e+002;0.000000e+000
5.862786e+002;0.000000e+000
5.882072e+002;0.000000e+000
5.901357e+002;0.000000e+000
5.920643e+002;0.000000e+000
5.939928e+002;0.000000e+000
5.959213e+002;0.000000e+000
5.978499e+002;0.000000e+000
5.997784e+002;2.343662e-001
6.017070e+002;2.293488e-001
6.036355e+002;2.277286e-001
6.055641e+002;2.342702e-001
6.074926e+002;2.400279e-001
6.094211e+002;2.371973e-001
6.113497e+002;2.321256e-001
6.132783e+002;2.315638e-001
6.152068e+002;2.348333e-001
6.171354e+002;2.317440e-001
6.190639e+002;2.308824e-001
6.209924e+002;2.324424e-001
6.229210e+002;2.318033e-001
6.248495e+002;2.299707e-001
6.267781e+002;2.287933e-001
6.287067e+002;2.281613e-001
6.306352e+002;2.264728e-001
6.325637e+002;2.239448e-001
6.344923e+002;2.170431e-001
6.364208e+002;2.131879e-001
6.383494e+002;2.138205e-001
6.402780e+002;2.087556e-001
6.422065e+002;2.081244e-001
6.441350e+002;2.123392e-001
6.460636e+002;2.121589e-001
6.479921e+002;2.084471e-001
6.499207e+002;2.042446e-001
6.518492e+002;2.003933e-001
6.537778e+002;1.998890e-001
6.557063e+002;2.024678e-001
6.576349e+002;2.020906e-001
6.595634e+002;2.015381e-001
6.614919e+002;2.020977e-001
6.634205e+002;2.011440e-001
6.653491e+002;2.003056e-001
6.672776e+002;1.994841e-001
6.692062e+002;1.984634e-001
6.711347e+002;1.959565e-001
6.730632e+002;1.943135e-001
6.749918e+002;1.929511e-001
6.769203e+002;1.921119e-001
6.788489e+002;1.906665e-001
6.807775e+002;1.893986e-001
6.827060e+002;1.888990e-001
6.846345e+002;1.873260e-001
6.865631e+002;1.862505e-001
6.884916e+002;1.855548e-001
6.904202e+002;1.850013e-001
6.923488e+002;1.848915e-001
6.942773e+002;1.847123e-001
6.962058e+002;1.844962e-001
6.981344e+002;1.838285e-001
7.000629e+002;1.829325e-001
7.019915e+002;1.822386e-001
7.039200e+002;1.809746e-001
7.058486e+002;1.784227e-001
7.077771e+002;1.758633e-001
7.097057e+002;1.737115e-001
7.116342e+002;1.721828e-001
7.135627e+002;1.709446e-001
7.154913e+002;1.686556e-001
7.174199e+002;1.670291e-001
7.193484e+002;1.660816e-001
7.212770e+002;1.653802e-001
7.232055e+002;1.644573e-001
7.251340e+002;1.630365e-001
7.270626e+002;1.624686e-001
7.289911e+002;1.625649e-001
7.309197e+002;1.615021e-001
7.328483e+002;1.608385e-001
7.347768e+002;1.611047e-001
7.367053e+002;1.619775e-001
7.386339e+002;1.625658e-001
7.405624e+002;1.617461e-001
7.424910e+002;1.612585e-001
7.444196e+002;1.608868e-001
7.463481e+002;1.593073e-001
7.482766e+002;1.570005e-001
7.502052e+002;1.552513e-001
7.521337e+002;1.544923e-001
7.540623e+002;1.534256e-001
7.559908e+002;1.517064e-001
7.579194e+002;1.499404e-001
7.598479e+002;1.478849e-001
7.617765e+002;1.463897e-001
7.637050e+002;1.446692e-001
7.656335e+002;1.429917e-001
7.675621e+002;1.414966e-001
7.694907e+002;1.404052e-001
7.714192e+002;1.390126e-001
7.733478e+002;1.371977e-001
7.752763e+002;1.362519e-001
7.772048e+002;1.359089e-001
7.791334e+002;1.352961e-001
7.810620e+002;1.335958e-001
7.829905e+002;1.318817e-001
7.849191e+002;1.310269e-001
7.868476e+002;1.304490e-001
7.887761e+002;1.300717e-001
7.907047e+002;1.296491e-001
7.926332e+002;1.296834e-001
7.945618e+002;1.282622e-001
7.964903e+002;1.265142e-001
7.984189e+002;1.259180e-001
8.003474e+002;1.257446e-001
8.022759e+002;1.254803e-001
8.042045e+002;1.247550e-001
8.061331e+002;1.240380e-001
8.080616e+002;1.237456e-001
8.099902e+002;1.240119e-001
8.119187e+002;1.241196e-001
8.138472e+002;1.232038e-001
8.157758e+002;1.229307e-001
8.177043e+002;1.234220e-001
8.196329e+002;1.242634e-001
8.215615e+002;1.250716e-001
8.234900e+002;1.254645e-001
8.254185e+002;1.257273e-001
8.273471e+002;1.255136e-001
8.292756e+002;1.248719e-001
8.312042e+002;1.238134e-001
8.331328e+002;1.218867e-001
8.350613e+002;1.201063e-001
8.369898e+002;1.181614e-001
8.389184e+002;1.160517e-001
8.408469e+002;1.149691e-001
8.427755e+002;1.140996e-001
8.447040e+002;1.133890e-001
8.466326e+002;1.129357e-001
8.485611e+002;1.115880e-001
8.504897e+002;1.103685e-001
8.524182e+002;1.102523e-001
8.543467e+002;1.097128e-001
8.562753e+002;1.088819e-001
8.582039e+002;1.079545e-001
8.601324e+002;1.069679e-001
8.620610e+002;1.070489e-001
8.639895e+002;1.070137e-001
8.659180e+002;1.066450e-001
8.678466e+002;1.065992e-001
8.697751e+002;1.070672e-001
8.717037e+002;1.075013e-001
8.736323e+002;1.074523e-001
8.755608e+002;1.074390e-001
8.774893e+002;1.077032e-001
8.794179e+002;1.079678e-001
8.813464e+002;1.086079e-001
8.832750e+002;1.092714e-001
8.852036e+002;1.093796e-001
8.871321e+002;1.094416e-001
8.890606e+002;1.092534e-001
8.909892e+002;1.085337e-001
8.929177e+002;1.078451e-001
8.948463e+002;1.075789e-001
8.967748e+002;1.072808e-001
8.987034e+002;1.070988e-001
9.006319e+002;1.069467e-001
9.025605e+002;1.069203e-001
9.044890e+002;1.073038e-001
9.064175e+002;1.076724e-001
9.083461e+002;1.077565e-001
9.102747e+002;1.077633e-001
9.122032e+002;1.079708e-001
9.141318e+002;1.085608e-001
9.160603e+002;1.089144e-001
9.179888e+002;1.093768e-001
9.199174e+002;1.097679e-001
9.218459e+002;1.101907e-001
9.237745e+002;1.107821e-001
9.257031e+002;1.107800e-001
9.276316e+002;1.106998e-001
9.295601e+002;1.110412e-001
9.314887e+002;1.113609e-001
9.334172e+002;1.116202e-001
9.353458e+002;1.116154e-001
9.372744e+002;1.112520e-001
9.392029e+002;1.110541e-001
9.411314e+002;1.106013e-001
9.430600e+002;1.103743e-001
9.449885e+002;1.102954e-001
9.469171e+002;1.100944e-001
9.488456e+002;1.101528e-001
9.507742e+002;1.104907e-001
9.527027e+002;1.107755e-001
9.546313e+002;1.109810e-001
9.565598e+002;1.112633e-001
9.584883e+002;1.117241e-001
9.604169e+002;1.122001e-001
9.623455e+002;1.129311e-001
9.642740e+002;1.135644e-001
9.662026e+002;1.141775e-001
9.681311e+002;1.151241e-001
9.700596e+002;1.159163e-001
9.719882e+002;1.164492e-001
9.739167e+002;1.165736e-001
9.758453e+002;1.169196e-001
9.777739e+002;1.178578e-001
9.797024e+002;1.189124e-001
9.816309e+002;1.196643e-001
9.835595e+002;1.206190e-001
9.854880e+002;1.224909e-001
9.874166e+002;1.248799e-001
9.893452e+002;1.271368e-001
9.912737e+002;1.289996e-001
9.932022e+002;1.300335e-001
9.951307e+002;1.308010e-001
9.970593e+002;1.317887e-001
9.989879e+002;1.329550e-001
1.000916e+003;1.347170e-001
1.002845e+003;1.367228e-001
1.004773e+003;1.387628e-001
1.006702e+003;1.406272e-001
1.008631e+003;1.420418e-001
1.010559e+003;1.434948e-001
1.012488e+003;1.451281e-001
1.014416e+003;1.465565e-001
1.016345e+003;1.476974e-001
1.018273e+003;1.488062e-001
1.020202e+003;1.504231e-001
1.022130e+003;1.522344e-001
1.024059e+003;1.542666e-001
1.025988e+003;1.570929e-001
1.027916e+003;1.607758e-001
1.029845e+003;1.644692e-001
1.031773e+003;1.682901e-001
1.033702e+003;1.724212e-001
1.035630e+003;1.758851e-001
1.037559e+003;1.786338e-001
1.039487e+003;1.809643e-001
1.041416e+003;1.835163e-001
1.043344e+003;1.851786e-001
1.045273e+003;1.848843e-001
1.047202e+003;1.830677e-001
1.049130e+003;1.801627e-001
1.051059e+003;1.764258e-001
1.052987e+003;1.727189e-001
1.054916e+003;1.699800e-001
1.056844e+003;1.688548e-001
1.058773e+003;1.689497e-001
1.060701e+003;1.693735e-001
1.062630e+003;1.695258e-001
1.064558e+003;1.697288e-001
1.066487e+003;1.702172e-001
1.068416e+003;1.707662e-001
1.070344e+003;1.708417e-001
1.072273e+003;1.707756e-001
1.074201e+003;1.707974e-001
1.076130e+003;1.705750e-001
1.078058e+003;1.706317e-001
1.079987e+003;1.705558e-001
1.081915e+003;1.703921e-001
1.083844e+003;1.704661e-001
1.085773e+003;1.706587e-001
1.087701e+003;1.705879e-001
1.089630e+003;1.699377e-001
1.091558e+003;1.693773e-001
1.093487e+003;1.693221e-001
1.095415e+003;1.693352e-001
1.097344e+003;1.696585e-001
1.099272e+003;1.694339e-001
1.101201e+003;1.684851e-001
1.103129e+003;1.676025e-001
1.105058e+003;1.668287e-001
1.106987e+003;1.660263e-001
1.108915e+003;1.649003e-001
1.110844e+003;1.636986e-001
1.112772e+003;1.627703e-001
1.114701e+003;1.624213e-001
1.116629e+003;1.620845e-001
1.118558e+003;1.619978e-001
1.120486e+003;1.618460e-001
1.122415e+003;1.618154e-001
1.124344e+003;1.621613e-001
1.126272e+003;1.624061e-001
1.128201e+003;1.627889e-001
1.130129e+003;1.631632e-001
1.132058e+003;1.632530e-001
1.133986e+003;1.638357e-001
1.135915e+003;1.652660e-001
1.137843e+003;1.672865e-001
1.139772e+003;1.688813e-001
1.141700e+003;1.702647e-001
1.143629e+003;1.715888e-001
1.145557e+003;1.733072e-001
1.147486e+003;1.754851e-001
1.149415e+003;1.772702e-001
1.151343e+003;1.782187e-001
1.153272e+003;1.789669e-001
1.155200e+003;1.796904e-001
1.157129e+003;1.799542e-001
1.159057e+003;1.801956e-001
1.160986e+003;1.808177e-001
1.162914e+003;1.817551e-001
1.164843e+003;1.828147e-001
1.166771e+003;1.844427e-001
1.168700e+003;1.864804e-001
1.170629e+003;1.881170e-001
1.172557e+003;1.891758e-001
1.174486e+003;1.899259e-001
1.176414e+003;1.907685e-001
1.178343e+003;1.918295e-001
1.180271e+003;1.927735e-001
1.182200e+003;1.936118e-001
1.184128e+003;1.947009e-001
1.186057e+003;1.961373e-001
1.187986e+003;1.976662e-001
1.189914e+003;1.989539e-001
1.191843e+003;2.002617e-001
1.193771e+003;2.011558e-001
1.195700e+003;2.020546e-001
1.197628e+003;2.035061e-001
1.199557e+003;2.050019e-001
1.201485e+003;2.062858e-001
1.203414e+003;2.073888e-001
1.205343e+003;2.084252e-001
1.207271e+003;2.094571e-001
1.209200e+003;2.106726e-001
1.211128e+003;2.119595e-001
1.213057e+003;2.131411e-001
1.214985e+003;2.143456e-001
1.216914e+003;2.151795e-001
1.218842e+003;2.158765e-001
1.220771e+003;2.167847e-001
1.222699e+003;2.173700e-001
1.224628e+003;2.172200e-001
1.226557e+003;2.172841e-001
1.228485e+003;2.174132e-001
1.230414e+003;2.171425e-001
1.232342e+003;2.167267e-001
1.234271e+003;2.162604e-001
1.236199e+003;2.153953e-001
1.238128e+003;2.140951e-001
1.240056e+003;2.127668e-001
1.241985e+003;2.113837e-001
1.243913e+003;2.098529e-001
1.245842e+003;2.084825e-001
1.247771e+003;2.072621e-001
1.249699e+003;2.060174e-001
1.251628e+003;2.048555e-001
1.253556e+003;2.038080e-001
1.255485e+003;2.023305e-001
1.257413e+003;2.009947e-001
1.259342e+003;1.997121e-001
1.261270e+003;1.975397e-001
1.263199e+003;1.950888e-001
1.265127e+003;1.929527e-001
1.267056e+003;1.912544e-001
1.268985e+003;1.898240e-001
1.270913e+003;1.884384e-001
1.272842e+003;1.874241e-001
1.274770e+003;1.868948e-001
1.276699e+003;1.863712e-001
1.278627e+003;1.858703e-001
1.280556e+003;1.852975e-001
1.282484e+003;1.842090e-001
1.284413e+003;1.828599e-001
1.286342e+003;1.813580e-001
1.288270e+003;1.801479e-001
1.290199e+003;1.793063e-001
1.292127e+003;1.784400e-001
1.294056e+003;1.774347e-001
1.295984e+003;1.764188e-001
1.297913e+003;1.751887e-001
1.299841e+003;1.739775e-001
1.301770e+003;1.728676e-001
1.303698e+003;1.718415e-001
1.305627e+003;1.709032e-001
1.307556e+003;1.705680e-001
1.309484e+003;1.706581e-001
1.311413e+003;1.711477e-001
1.313341e+003;1.720891e-001
1.315270e+003;1.728865e-001
1.317198e+003;1.733096e-001
1.319127e+003;1.739199e-001
1.321055e+003;1.747683e-001
1.322984e+003;1.751379e-001
1.324912e+003;1.752400e-001
1.326841e+003;1.755233e-001
1.328770e+003;1.751742e-001
1.330698e+003;1.742419e-001
1.332627e+003;1.732686e-001
1.334555e+003;1.719891e-001
1.336484e+003;1.704694e-001
1.338412e+003;1.687587e-001
1.340341e+003;1.672175e-001
1.342269e+003;1.661762e-001
1.344198e+003;1.649312e-001
1.346126e+003;1.635018e-001
1.348055e+003;1.623488e-001
1.349984e+003;1.612148e-001
1.351912e+003;1.600818e-001
1.353841e+003;1.592815e-001
1.355769e+003;1.590157e-001
1.357698e+003;1.590090e-001
1.359626e+003;1.592295e-001
1.361555e+003;1.598713e-001
1.363483e+003;1.609625e-001
1.365412e+003;1.623285e-001
1.367341e+003;1.636430e-001
1.369269e+003;1.645616e-001
1.371198e+003;1.648890e-001
1.373126e+003;1.648766e-001
1.375055e+003;1.651278e-001
1.376983e+003;1.659228e-001
1.378912e+003;1.667617e-001
1.380840e+003;1.677232e-001
1.382769e+003;1.690038e-001
1.384698e+003;1.701313e-001
1.386626e+003;1.706642e-001
1.388555e+003;1.706736e-001
1.390483e+003;1.704832e-001
1.392412e+003;1.699932e-001
1.394340e+003;1.695209e-001
1.396269e+003;1.692751e-001
1.398197e+003;1.689913e-001
1.400126e+003;1.694033e-001
1.402054e+003;1.700449e-001
1.403983e+003;1.701621e-001
1.405911e+003;1.701599e-001
1.407840e+003;1.704984e-001
1.409769e+003;1.711277e-001
1.411697e+003;1.714388e-001
1.413626e+003;1.717819e-001
1.415554e+003;1.721758e-001
1.417483e+003;1.721366e-001
1.419411e+003;1.722468e-001
1.421340e+003;1.731745e-001
1.423268e+003;1.740685e-001
1.425197e+003;1.750273e-001
1.427125e+003;1.765160e-001
1.429054e+003;1.784010e-001
1.430983e+003;1.806866e-001
1.432911e+003;1.832766e-001
1.434840e+003;1.858202e-001
1.436768e+003;1.880855e-001
1.438697e+003;1.904079e-001
1.440625e+003;1.922404e-001
1.442554e+003;1.932890e-001
1.444482e+003;1.936764e-001
1.446411e+003;1.940712e-001
1.448340e+003;1.943573e-001
1.450268e+003;1.947674e-001
1.452197e+003;1.953167e-001
1.454125e+003;1.955602e-001
1.456054e+003;1.950485e-001
1.457982e+003;1.946884e-001
1.459911e+003;1.944497e-001
1.461839e+003;1.934542e-001
1.463768e+003;1.916420e-001
1.465697e+003;1.900837e-001
1.467625e+003;1.892509e-001
1.469554e+003;1.884008e-001
1.471482e+003;1.872709e-001
1.473411e+003;1.871231e-001
1.475339e+003;1.881371e-001
1.477268e+003;1.896527e-001
1.479196e+003;1.922366e-001
1.481125e+003;1.958124e-001
1.483053e+003;2.004424e-001
1.484982e+003;2.060933e-001
1.486911e+003;2.123880e-001
1.488839e+003;2.193040e-001
1.490768e+003;2.271320e-001
1.492696e+003;2.353789e-001
1.494625e+003;2.432669e-001
1.496553e+003;2.505020e-001
1.498482e+003;2.570409e-001
1.500410e+003;2.626609e-001
1.502339e+003;2.671699e-001
1.504267e+003;2.702318e-001
1.506196e+003;2.725501e-001
1.508125e+003;2.759942e-001
1.510053e+003;2.795137e-001
1.511982e+003;2.815152e-001
1.513910e+003;2.821893e-001
1.515839e+003;2.808369e-001
1.517767e+003;2.770734e-001
1.519696e+003;2.714798e-001
1.521624e+003;2.663317e-001
1.523553e+003;2.627042e-001
1.525481e+003;2.590191e-001
1.527410e+003;2.557362e-001
1.529339e+003;2.524594e-001
1.531267e+003;2.487971e-001
1.533196e+003;2.449304e-001
1.535124e+003;2.410952e-001
1.537053e+003;2.366443e-001
1.538981e+003;2.315124e-001
1.540910e+003;2.271411e-001
1.542838e+003;2.235921e-001
1.544767e+003;2.197477e-001
1.546695e+003;2.152744e-001
1.548624e+003;2.102190e-001
1.550553e+003;2.048182e-001
1.552481e+003;1.994875e-001
1.554410e+003;1.944245e-001
1.556338e+003;1.892868e-001
1.558267e+003;1.836039e-001
1.560195e+003;1.792257e-001
1.562124e+003;1.761973e-001
1.564052e+003;1.728748e-001
1.565981e+003;1.695527e-001
1.567910e+003;1.663891e-001
1.569838e+003;1.638002e-001
1.571767e+003;1.622485e-001
1.573695e+003;1.610923e-001
1.575624e+003;1.602887e-001
1.577552e+003;1.607410e-001
1.579481e+003;1.620270e-001
1.581409e+003;1.634171e-001
1.583338e+003;1.650537e-001
1.585266e+003;1.672821e-001
1.587195e+003;1.698077e-001
1.589124e+003;1.727238e-001
1.591052e+003;1.764160e-001
1.592981e+003;1.805424e-001
1.594909e+003;1.844322e-001
1.596838e+003;1.884217e-001
1.598766e+003;1.930938e-001
1.600695e+003;1.985752e-001
1.602623e+003;2.049684e-001
1.604552e+003;2.121309e-001
1.606480e+003;2.194425e-001
1.608409e+003;2.274060e-001
1.610338e+003;2.357969e-001
1.612266e+003;2.437142e-001
1.614195e+003;2.508636e-001
1.616123e+003;2.573709e-001
1.618052e+003;2.642515e-001
1.619980e+003;2.713200e-001
1.621909e+003;2.778092e-001
1.623837e+003;2.844595e-001
1.625766e+003;2.910999e-001
1.627694e+003;2.970249e-001
1.629623e+003;3.023832e-001
1.631552e+003;3.066909e-001
1.633480e+003;3.097265e-001
1.635409e+003;3.119651e-001
1.637337e+003;3.139545e-001
1.639266e+003;3.152225e-001
1.641194e+003;3.149743e-001
1.643123e+003;3.133857e-001
1.645051e+003;3.106468e-001
1.646980e+003;3.074082e-001
1.648909e+003;3.036592e-001
1.650837e+003;2.983098e-001
1.652766e+003;2.918001e-001
1.654694e+003;2.866283e-001
1.656623e+003;2.814092e-001
1.658551e+003;2.747680e-001
1.660480e+003;2.676414e-001
1.662408e+003;2.601842e-001
1.664337e+003;2.530783e-001
1.666266e+003;2.457613e-001
1.668194e+003;2.379105e-001
1.670123e+003;2.301949e-001
1.672051e+003;2.228261e-001
1.673980e+003;2.154979e-001
1.675908e+003;2.083323e-001
1.677837e+003;2.016907e-001
1.679765e+003;1.949241e-001
1.681694e+003;1.874378e-001
1.683622e+003;1.795998e-001
1.685551e+003;1.728821e-001
1.687479e+003;1.668323e-001
1.689408e+003;1.603073e-001
1.691337e+003;1.536953e-001
1.693265e+003;1.467275e-001
1.695194e+003;1.388821e-001
1.697122e+003;1.318725e-001
1.699051e+003;1.250597e-001
1.700979e+003;1.182199e-001
1.702908e+003;1.127026e-001
1.704836e+003;1.070255e-001
1.706765e+003;1.017160e-001
1.708693e+003;9.688313e-002
1.710622e+003;9.258977e-002
1.712551e+003;8.870683e-002
1.714479e+003;8.525527e-002
1.716408e+003;8.203628e-002
1.718336e+003;7.955889e-002
1.720265e+003;7.781347e-002
1.722193e+003;7.607970e-002
1.724122e+003;7.429089e-002
1.726050e+003;7.285216e-002
1.727979e+003;7.144467e-002
1.729908e+003;6.968566e-002
1.731836e+003;6.737418e-002
1.733765e+003;6.513958e-002
1.735693e+003;6.412601e-002
1.737622e+003;6.298983e-002
1.739550e+003;6.134564e-002
1.741479e+003;5.993624e-002
1.743407e+003;5.820326e-002
1.745336e+003;5.657710e-002
1.747265e+003;5.498856e-002
1.749193e+003;5.341281e-002
1.751122e+003;5.202858e-002
1.753050e+003;5.100473e-002
1.754979e+003;4.985122e-002
1.756907e+003;4.880452e-002
1.758836e+003;4.793070e-002
1.760764e+003;4.684133e-002
1.762693e+003;4.600548e-002
1.764621e+003;4.559354e-002
1.766550e+003;4.478635e-002
1.768479e+003;4.400295e-002
1.770407e+003;4.325324e-002
1.772336e+003;4.256537e-002
1.774264e+003;4.249042e-002
1.776193e+003;4.233589e-002
1.778121e+003;4.190673e-002
1.780050e+003;4.140750e-002
1.781978e+003;4.113881e-002
1.783907e+003;4.114955e-002
1.785835e+003;4.090538e-002
1.787764e+003;4.078482e-002
1.789693e+003;4.049323e-002
1.791621e+003;3.995435e-002
1.793550e+003;3.970348e-002
1.795478e+003;3.963878e-002
1.797407e+003;3.933404e-002
1.799335e+003;3.891229e-002
1.801264e+003;3.855617e-002
1.803192e+003;3.849877e-002
1.805121e+003;3.836212e-002
1.807049e+003;3.823322e-002
1.808978e+003;3.815945e-002
1.810907e+003;3.786825e-002
1.812835e+003;3.760105e-002
1.814764e+003;3.745850e-002
1.816692e+003;3.723791e-002
1.818621e+003;3.713276e-002
1.820549e+003;3.696930e-002
1.822478e+003;3.682385e-002
1.824406e+003;3.672364e-002
1.826335e+003;3.657251e-002
1.828264e+003;3.634894e-002
1.830192e+003;3.622244e-002
1.832121e+003;3.615952e-002
1.834049e+003;3.608326e-002
1.835978e+003;3.603523e-002
1.837906e+003;3.604477e-002
1.839835e+003;3.589590e-002
1.841763e+003;3.563196e-002
1.843692e+003;3.512242e-002
1.845620e+003;3.505766e-002
1.847549e+003;3.519827e-002
1.849478e+003;3.518648e-002
1.851406e+003;3.507881e-002
1.853335e+003;3.504663e-002
1.855263e+003;3.502364e-002
1.857192e+003;3.495781e-002
1.859120e+003;3.482148e-002
1.861049e+003;3.474523e-002
1.862977e+003;3.480331e-002
1.864906e+003;3.486736e-002
1.866834e+003;3.466132e-002
1.868763e+003;3.442040e-002
1.870692e+003;3.455069e-002
1.872620e+003;3.476752e-002
1.874549e+003;3.477926e-002
1.876477e+003;3.482331e-002
1.878406e+003;3.486804e-002
1.880334e+003;3.479498e-002
1.882263e+003;3.473396e-002
1.884191e+003;3.465181e-002
1.886120e+003;3.469559e-002
1.888048e+003;3.479527e-002
1.889977e+003;3.485533e-002
1.891906e+003;3.496991e-002
1.893834e+003;3.495907e-002
1.895763e+003;3.493734e-002
1.897691e+003;3.482022e-002
1.899620e+003;3.500658e-002
1.901548e+003;3.516568e-002
1.903477e+003;3.503240e-002
1.905405e+003;3.498068e-002
1.907334e+003;3.507443e-002
1.909262e+003;3.498607e-002
1.911191e+003;3.491328e-002
1.913120e+003;3.509627e-002
1.915048e+003;3.508769e-002
1.916977e+003;3.483013e-002
1.918905e+003;3.476870e-002
1.920834e+003;3.488642e-002
1.922762e+003;3.495235e-002
1.924691e+003;3.505726e-002
1.926619e+003;3.521537e-002
1.928548e+003;3.524308e-002
1.930477e+003;3.527581e-002
1.932405e+003;3.520323e-002
1.934334e+003;3.497961e-002
1.936262e+003;3.498147e-002
1.938191e+003;3.491461e-002
1.940119e+003;3.480439e-002
1.942048e+003;3.504361e-002
1.943976e+003;3.523039e-002
1.945905e+003;3.508524e-002
1.947833e+003;3.506933e-002
1.949762e+003;3.519618e-002
1.951691e+003;3.513665e-002
1.953619e+003;3.499430e-002
1.955548e+003;3.512357e-002
1.957476e+003;3.522841e-002
1.959405e+003;3.528767e-002
1.961333e+003;3.530147e-002
1.963262e+003;3.525831e-002
1.965190e+003;3.530514e-002
1.967119e+003;3.519715e-002
1.969047e+003;3.504860e-002
1.970976e+003;3.498058e-002
1.972905e+003;3.509756e-002
1.974833e+003;3.508988e-002
1.976762e+003;3.508406e-002
1.978690e+003;3.516740e-002
1.980619e+003;3.515558e-002
1.982547e+003;3.502314e-002
1.984476e+003;3.509692e-002
1.986404e+003;3.537401e-002
1.988333e+003;3.550372e-002
1.990261e+003;3.543346e-002
1.992190e+003;3.528764e-002
1.994119e+003;3.520473e-002
1.996047e+003;3.518698e-002
1.997976e+003;3.530550e-002
1.999904e+003;3.531172e-002
2.001833e+003;3.523754e-002
2.003761e+003;3.518120e-002
2.005690e+003;3.529486e-002
2.007618e+003;3.531520e-002
2.009547e+003;3.533296e-002
2.011476e+003;3.545741e-002
2.013404e+003;3.549433e-002
2.015333e+003;3.558218e-002
2.017261e+003;3.549645e-002
2.019190e+003;3.539029e-002
2.021118e+003;3.559570e-002
2.023047e+003;3.557761e-002
2.024975e+003;3.544303e-002
2.026904e+003;3.540981e-002
2.028833e+003;3.544562e-002
2.030761e+003;3.556877e-002
2.032690e+003;3.567541e-002
2.034618e+003;3.586750e-002
2.036547e+003;3.576351e-002
2.038475e+003;3.563707e-002
2.040404e+003;3.566153e-002
2.042332e+003;3.574067e-002
2.044261e+003;3.568163e-002
2.046189e+003;3.567570e-002
2.048118e+003;3.561070e-002
2.050047e+003;3.548851e-002
2.051975e+003;3.556284e-002
2.053904e+003;3.574855e-002
2.055832e+003;3.586192e-002
2.057761e+003;3.577150e-002
2.059689e+003;3.578744e-002
2.061618e+003;3.591868e-002
2.063546e+003;3.578100e-002
2.065475e+003;3.552533e-002
2.067404e+003;3.569883e-002
2.069332e+003;3.598782e-002
2.071260e+003;3.581644e-002
2.073189e+003;3.565304e-002
2.075118e+003;3.568311e-002
2.077046e+003;3.579852e-002
2.078975e+003;3.577085e-002
2.080903e+003;3.571983e-002
2.082832e+003;3.557790e-002
2.084760e+003;3.546039e-002
2.086689e+003;3.548527e-002
2.088617e+003;3.573933e-002
2.090546e+003;3.587556e-002
2.092475e+003;3.574304e-002
2.094403e+003;3.568724e-002
2.096332e+003;3.570519e-002
2.098260e+003;3.575009e-002
2.100189e+003;3.583914e-002
2.102117e+003;3.561527e-002
2.104046e+003;3.543616e-002
2.105974e+003;3.546460e-002
2.107903e+003;3.551472e-002
2.109832e+003;3.547089e-002
2.111760e+003;3.527085e-002
2.113688e+003;3.509383e-002
2.115617e+003;3.524495e-002
2.117546e+003;3.538357e-002
2.119474e+003;3.525375e-002
2.121403e+003;3.531236e-002
2.123331e+003;3.554903e-002
2.125260e+003;3.568523e-002
2.127188e+003;3.560707e-002
2.129117e+003;3.536513e-002
2.131045e+003;3.535226e-002
2.132974e+003;3.541527e-002
2.134903e+003;3.545169e-002
2.136831e+003;3.541883e-002
2.138760e+003;3.533573e-002
2.140688e+003;3.535873e-002
2.142617e+003;3.533353e-002
2.144545e+003;3.522597e-002
2.146474e+003;3.515418e-002
2.148402e+003;3.484079e-002
2.150331e+003;3.480647e-002
2.152260e+003;3.512167e-002
2.154188e+003;3.528606e-002
2.156117e+003;3.528430e-002
2.158045e+003;3.511782e-002
2.159974e+003;3.502802e-002
2.161902e+003;3.500058e-002
2.163831e+003;3.485411e-002
2.165759e+003;3.487996e-002
2.167688e+003;3.508409e-002
2.169616e+003;3.516112e-002
2.171545e+003;3.511775e-002
2.173474e+003;3.527782e-002
2.175402e+003;3.540801e-002
2.177331e+003;3.530798e-002
2.179259e+003;3.517452e-002
2.181188e+003;3.514430e-002
2.183116e+003;3.510848e-002
2.185045e+003;3.506290e-002
2.186973e+003;3.513848e-002
2.188902e+003;3.519489e-002
2.190831e+003;3.521041e-002
2.192759e+003;3.503348e-002
2.194688e+003;3.503373e-002
2.196616e+003;3.520969e-002
2.198545e+003;3.521343e-002
2.200473e+003;3.529572e-002
2.202402e+003;3.531811e-002
2.204330e+003;3.529084e-002
2.206259e+003;3.536243e-002
2.208188e+003;3.533084e-002
2.210116e+003;3.525263e-002
2.212044e+003;3.528911e-002
2.213973e+003;3.529900e-002
2.215902e+003;3.526938e-002
2.217830e+003;3.516169e-002
2.219759e+003;3.520438e-002
2.221687e+003;3.544030e-002
2.223616e+003;3.552677e-002
2.225544e+003;3.547848e-002
2.227473e+003;3.553461e-002
2.229401e+003;3.547758e-002
2.231330e+003;3.528228e-002
2.233259e+003;3.517570e-002
2.235187e+003;3.530758e-002
2.237116e+003;3.544651e-002
2.239044e+003;3.548966e-002
2.240973e+003;3.550904e-002
2.242901e+003;3.550027e-002
2.244830e+003;3.561786e-002
2.246758e+003;3.552562e-002
2.248687e+003;3.531262e-002
2.250615e+003;3.525558e-002
2.252544e+003;3.523427e-002
2.254473e+003;3.529091e-002
2.256401e+003;3.537645e-002
2.258330e+003;3.537095e-002
2.260258e+003;3.522087e-002
2.262187e+003;3.526787e-002
2.264115e+003;3.548311e-002
2.266044e+003;3.560847e-002
2.267972e+003;3.572710e-002
2.269901e+003;3.564800e-002
2.271830e+003;3.537523e-002
2.273758e+003;3.558833e-002
2.275687e+003;3.600805e-002
2.277615e+003;3.586045e-002
2.279544e+003;3.555787e-002
2.281472e+003;3.570991e-002
2.283401e+003;3.578898e-002
2.285329e+003;3.575801e-002
2.287258e+003;3.604394e-002
2.289187e+003;3.629786e-002
2.291115e+003;3.629974e-002
2.293043e+003;3.633190e-002
2.294972e+003;3.621851e-002
2.296901e+003;3.605568e-002
2.298829e+003;3.590136e-002
2.300758e+003;3.589463e-002
2.302686e+003;3.607033e-002
2.304615e+003;3.624786e-002
2.306543e+003;3.625964e-002
2.308472e+003;3.616705e-002
2.310400e+003;3.613129e-002
2.312329e+003;3.610306e-002
2.314258e+003;3.624736e-002
2.316186e+003;3.614864e-002
2.318115e+003;3.596672e-002
2.320043e+003;3.605957e-002
2.321972e+003;3.601385e-002
2.323900e+003;3.587534e-002
2.325829e+003;3.594808e-002
2.327757e+003;3.602508e-002
2.329686e+003;3.598177e-002
2.331615e+003;3.598436e-002
2.333543e+003;3.611285e-002
2.335472e+003;3.619121e-002
2.337400e+003;3.615354e-002
2.339329e+003;3.603789e-002
2.341257e+003;3.603429e-002
2.343186e+003;3.629278e-002
2.345114e+003;3.664821e-002
2.347043e+003;3.696634e-002
2.348971e+003;3.727289e-002
2.350900e+003;3.727145e-002
2.352829e+003;3.706109e-002
2.354757e+003;3.673813e-002
2.356686e+003;3.666472e-002
2.358614e+003;3.697060e-002
2.360543e+003;3.703056e-002
2.362471e+003;3.691316e-002
2.364400e+003;3.692720e-002
2.366328e+003;3.706033e-002
2.368257e+003;3.722412e-002
2.370186e+003;3.734352e-002
2.372114e+003;3.742748e-002
2.374042e+003;3.769793e-002
2.375971e+003;3.805881e-002
2.377900e+003;3.838887e-002
2.379828e+003;3.862834e-002
2.381757e+003;3.883468e-002
2.383685e+003;3.898884e-002
2.385614e+003;3.901356e-002
2.387542e+003;3.909389e-002
2.389471e+003;3.941001e-002
2.391399e+003;3.962695e-002
2.393328e+003;3.966525e-002
2.395257e+003;3.976567e-002
2.397185e+003;3.982908e-002
2.399114e+003;3.996500e-002
2.401042e+003;4.010332e-002
2.402971e+003;4.023049e-002
2.404899e+003;4.031679e-002
2.406828e+003;4.050309e-002
2.408756e+003;4.055532e-002
2.410685e+003;4.045646e-002
2.412614e+003;4.054867e-002
2.414542e+003;4.088969e-002
2.416471e+003;4.131529e-002
2.418399e+003;4.155127e-002
2.420328e+003;4.156374e-002
2.422256e+003;4.154438e-002
2.424185e+003;4.169550e-002
2.426113e+003;4.197070e-002
2.428042e+003;4.218531e-002
2.429970e+003;4.236668e-002
2.431899e+003;4.242206e-002
2.433828e+003;4.249664e-002
2.435756e+003;4.256837e-002
2.437685e+003;4.283809e-002
2.439613e+003;4.324991e-002
2.441542e+003;4.336357e-002
2.443470e+003;4.328754e-002
2.445399e+003;4.345651e-002
2.447327e+003;4.367805e-002
2.449256e+003;4.362592e-002
2.451185e+003;4.368501e-002
2.453113e+003;4.413614e-002
2.455042e+003;4.422884e-002
2.456970e+003;4.427265e-002
2.458899e+003;4.442820e-002
2.460827e+003;4.460169e-002
2.462756e+003;4.458396e-002
2.464684e+003;4.477302e-002
2.466613e+003;4.519572e-002
2.468542e+003;4.535823e-002
2.470470e+003;4.540200e-002
2.472398e+003;4.552966e-002
2.474327e+003;4.549077e-002
2.476256e+003;4.558486e-002
2.478184e+003;4.578547e-002
2.480113e+003;4.596474e-002
2.482041e+003;4.624373e-002
2.483970e+003;4.663223e-002
2.485898e+003;4.678195e-002
2.487827e+003;4.686159e-002
2.489755e+003;4.691080e-002
2.491684e+003;4.670778e-002
2.493613e+003;4.698958e-002
2.495541e+003;4.744024e-002
2.497470e+003;4.751937e-002
2.499398e+003;4.767758e-002
2.501327e+003;4.791338e-002
2.503255e+003;4.798287e-002
2.505184e+003;4.799763e-002
2.507112e+003;4.799841e-002
2.509041e+003;4.800396e-002
2.510969e+003;4.803612e-002
2.512898e+003;4.820829e-002
2.514827e+003;4.835889e-002
2.516755e+003;4.856275e-002
2.518684e+003;4.862923e-002
2.520612e+003;4.872263e-002
2.522541e+003;4.901612e-002
2.524469e+003;4.931690e-002
2.526398e+003;4.936817e-002
2.528326e+003;4.941839e-002
2.530255e+003;4.960002e-002
2.532184e+003;4.973721e-002
2.534112e+003;4.951984e-002
2.536041e+003;4.947747e-002
2.537969e+003;4.972135e-002
2.539898e+003;4.989236e-002
2.541826e+003;5.001120e-002
2.543755e+003;5.003317e-002
2.545683e+003;5.011594e-002
2.547612e+003;5.039672e-002
2.549541e+003;5.038504e-002
2.551469e+003;5.030947e-002
2.553397e+003;5.043676e-002
2.555326e+003;5.070650e-002
2.557255e+003;5.087388e-002
2.559183e+003;5.091631e-002
2.561112e+003;5.104632e-002
2.563040e+003;5.128139e-002
2.564969e+003;5.158071e-002
2.566897e+003;5.144749e-002
2.568826e+003;5.144514e-002
2.570754e+003;5.159448e-002
2.572683e+003;5.174787e-002
2.574612e+003;5.197428e-002
2.576540e+003;5.198541e-002
2.578469e+003;5.202672e-002
2.580397e+003;5.244887e-002
2.582326e+003;5.274924e-002
2.584254e+003;5.293731e-002
2.586183e+003;5.298541e-002
2.588111e+003;5.304980e-002
2.590040e+003;5.329476e-002
2.591969e+003;5.336010e-002
2.593897e+003;5.344646e-002
2.595826e+003;5.353195e-002
2.597754e+003;5.369243e-002
2.599683e+003;5.401196e-002
2.601611e+003;5.434112e-002
2.603540e+003;5.420855e-002
2.605468e+003;5.409835e-002
2.607397e+003;5.432655e-002
2.609325e+003;5.440556e-002
2.611254e+003;5.456986e-002
2.613183e+003;5.453436e-002
2.615111e+003;5.425615e-002
2.617040e+003;5.436624e-002
2.618968e+003;5.474513e-002
2.620897e+003;5.493839e-002
2.622825e+003;5.497668e-002
2.624754e+003;5.494659e-002
2.626682e+003;5.471841e-002
2.628611e+003;5.467721e-002
2.630540e+003;5.500706e-002
2.632468e+003;5.522769e-002
2.634396e+003;5.524895e-002
2.636325e+003;5.527187e-002
2.638254e+003;5.535037e-002
2.640182e+003;5.542242e-002
2.642111e+003;5.547922e-002
2.644039e+003;5.559934e-002
2.645968e+003;5.564096e-002
2.647896e+003;5.569169e-002
2.649825e+003;5.566917e-002
2.651753e+003;5.576195e-002
2.653682e+003;5.600233e-002
2.655611e+003;5.586334e-002
2.657539e+003;5.564476e-002
2.659468e+003;5.559365e-002
2.661396e+003;5.600105e-002
2.663325e+003;5.647464e-002
2.665253e+003;5.653479e-002
2.667182e+003;5.642260e-002
2.669110e+003;5.655332e-002
2.671039e+003;5.671931e-002
2.672968e+003;5.657740e-002
2.674896e+003;5.671021e-002
2.676825e+003;5.716404e-002
2.678753e+003;5.710365e-002
2.680682e+003;5.700042e-002
2.682610e+003;5.708763e-002
2.684539e+003;5.752272e-002
2.686467e+003;5.797566e-002
2.688396e+003;5.813837e-002
2.690324e+003;5.806333e-002
2.692253e+003;5.797941e-002
2.694182e+003;5.800728e-002
2.696110e+003;5.808076e-002
2.698039e+003;5.827286e-002
2.699967e+003;5.820766e-002
2.701896e+003;5.819326e-002
2.703824e+003;5.870110e-002
2.705753e+003;5.904321e-002
2.707681e+003;5.915000e-002
2.709610e+003;5.916815e-002
2.711539e+003;5.931462e-002
2.713467e+003;5.961248e-002
2.715396e+003;5.990813e-002
2.717324e+003;6.024152e-002
2.719253e+003;6.031016e-002
2.721181e+003;6.048349e-002
2.723110e+003;6.074171e-002
2.725038e+003;6.093317e-002
2.726967e+003;6.117681e-002
2.728896e+003;6.131035e-002
2.730824e+003;6.150988e-002
2.732752e+003;6.172578e-002
2.734681e+003;6.184412e-002
2.736610e+003;6.212483e-002
2.738538e+003;6.211485e-002
2.740467e+003;6.210304e-002
2.742395e+003;6.229498e-002
2.744324e+003;6.235151e-002
2.746252e+003;6.240319e-002
2.748181e+003;6.268004e-002
2.750109e+003;6.311024e-002
2.752038e+003;6.353369e-002
2.753967e+003;6.381679e-002
2.755895e+003;6.403999e-002
2.757824e+003;6.426437e-002
2.759752e+003;6.432527e-002
2.761681e+003;6.418166e-002
2.763609e+003;6.423271e-002
2.765538e+003;6.449021e-002
2.767466e+003;6.470079e-002
2.769395e+003;6.479441e-002
2.771323e+003;6.487892e-002
2.773252e+003;6.483060e-002
2.775181e+003;6.485095e-002
2.777109e+003;6.512695e-002
2.779038e+003;6.544650e-002
2.780966e+003;6.568833e-002
2.782895e+003;6.615134e-002
2.784823e+003;6.655174e-002
2.786752e+003;6.657260e-002
2.788680e+003;6.647995e-002
2.790609e+003;6.660991e-002
2.792538e+003;6.702078e-002
2.794466e+003;6.736900e-002
2.796395e+003;6.758892e-002
2.798323e+003;6.779356e-002
2.800252e+003;6.801668e-002
2.802180e+003;6.832855e-002
2.804109e+003;6.869890e-002
2.806037e+003;6.922544e-002
2.807966e+003;6.956007e-002
2.809895e+003;6.944548e-002
2.811823e+003;6.966753e-002
2.813751e+003;6.989384e-002
2.815680e+003;6.999005e-002
2.817609e+003;7.025952e-002
2.819537e+003;7.054065e-002
2.821466e+003;7.066204e-002
2.823394e+003;7.094968e-002
2.825323e+003;7.162426e-002
2.827251e+003;7.221399e-002
2.829180e+003;7.227710e-002
2.831108e+003;7.231013e-002
2.833037e+003;7.292560e-002
2.834966e+003;7.376831e-002
2.836894e+003;7.421640e-002
2.838823e+003;7.455557e-002
2.840751e+003;7.495139e-002
2.842680e+003;7.528029e-002
2.844608e+003;7.608870e-002
2.846537e+003;7.732436e-002
2.848465e+003;7.804222e-002
2.850394e+003;7.829127e-002
2.852323e+003;7.902456e-002
2.854251e+003;8.010522e-002
2.856180e+003;8.082248e-002
2.858108e+003;8.156255e-002
2.860037e+003;8.207487e-002
2.861965e+003;8.255673e-002
2.863894e+003;8.347256e-002
2.865822e+003;8.451859e-002
2.867751e+003;8.570290e-002
2.869679e+003;8.628698e-002
2.871608e+003;8.651867e-002
2.873536e+003;8.687775e-002
2.875465e+003;8.722947e-002
2.877394e+003;8.739792e-002
2.879322e+003;8.771154e-002
2.881251e+003;8.766985e-002
2.883179e+003;8.714619e-002
2.885108e+003;8.677933e-002
2.887036e+003;8.681486e-002
2.888965e+003;8.694922e-002
2.890893e+003;8.693789e-002
2.892822e+003;8.708578e-002
2.894750e+003;8.764771e-002
2.896679e+003;8.816897e-002
2.898608e+003;8.834891e-002
2.900536e+003;8.871309e-002
2.902465e+003;8.947838e-002
2.904393e+003;9.020000e-002
2.906322e+003;9.064002e-002
2.908250e+003;9.123936e-002
2.910179e+003;9.182635e-002
2.912107e+003;9.227675e-002
2.914036e+003;9.277270e-002
2.915965e+003;9.350853e-002
2.917893e+003;9.451813e-002
2.919822e+003;9.536590e-002
2.921750e+003;9.617721e-002
2.923679e+003;9.698639e-002
2.925607e+003;9.757291e-002
2.927536e+003;9.817447e-002
2.929464e+003;9.882586e-002
2.931393e+003;9.921712e-002
2.933322e+003;9.955007e-002
2.935250e+003;9.945886e-002
2.937178e+003;9.909701e-002
2.939107e+003;9.897386e-002
2.941036e+003;9.887774e-002
2.942964e+003;9.855113e-002
2.944893e+003;9.813596e-002
2.946821e+003;9.787811e-002
2.948750e+003;9.767256e-002
2.950678e+003;9.771165e-002
2.952607e+003;9.766621e-002
2.954535e+003;9.764268e-002
2.956464e+003;9.781983e-002
2.958393e+003;9.795578e-002
2.960321e+003;9.787200e-002
2.962250e+003;9.764920e-002
2.964178e+003;9.770189e-002
2.966107e+003;9.774559e-002
2.968035e+003;9.712677e-002
2.969964e+003;9.608584e-002
2.971892e+003;9.497273e-002
2.973821e+003;9.458988e-002
2.975750e+003;9.412745e-002
2.977678e+003;9.325378e-002
2.979607e+003;9.253622e-002
2.981535e+003;9.157434e-002
2.983464e+003;9.043411e-002
2.985392e+003;8.937510e-002
2.987321e+003;8.825646e-002
2.989249e+003;8.756850e-002
2.991178e+003;8.708509e-002
2.993106e+003;8.643808e-002
2.995035e+003;8.605997e-002
2.996964e+003;8.575501e-002
2.998892e+003;8.541715e-002
3.000821e+003;8.538791e-002
3.002749e+003;8.522274e-002
3.004678e+003;8.488750e-002
3.006606e+003;8.500660e-002
3.008535e+003;8.542130e-002
3.010463e+003;8.536214e-002
3.012392e+003;8.511240e-002
3.014321e+003;8.506927e-002
3.016249e+003;8.499581e-002
3.018177e+003;8.536580e-002
3.020106e+003;8.597483e-002
3.022035e+003;8.624858e-002
3.023963e+003;8.648575e-002
3.025892e+003;8.688564e-002
3.027820e+003;8.720306e-002
3.029749e+003;8.771876e-002
3.031677e+003;8.808625e-002
3.033606e+003;8.808386e-002
3.035534e+003;8.829945e-002
3.037463e+003;8.873954e-002
3.039392e+003;8.908391e-002
3.041320e+003;8.920739e-002
3.043249e+003;8.928519e-002
3.045177e+003;8.945957e-002
3.047106e+003;9.003523e-002
3.049034e+003;9.046064e-002
3.050963e+003;9.043252e-002
3.052891e+003;9.072597e-002
3.054820e+003;9.103644e-002
3.056749e+003;9.145007e-002
3.058677e+003;9.194827e-002
3.060606e+003;9.187593e-002
3.062534e+003;9.167021e-002
3.064463e+003;9.164819e-002
3.066391e+003;9.164152e-002
3.068320e+003;9.132326e-002
3.070248e+003;9.097127e-002
3.072177e+003;9.084398e-002
3.074105e+003;9.069142e-002
3.076034e+003;9.038221e-002
3.077963e+003;9.052079e-002
3.079891e+003;9.118295e-002
3.081820e+003;9.154096e-002
3.083748e+003;9.117657e-002
3.085677e+003;9.059822e-002
3.087605e+003;9.023752e-002
3.089534e+003;9.007302e-002
3.091462e+003;8.991583e-002
3.093391e+003;8.963972e-002
3.095320e+003;8.937787e-002
3.097248e+003;8.913053e-002
3.099177e+003;8.913110e-002
3.101105e+003;8.918952e-002
3.103034e+003;8.913167e-002
3.104962e+003;8.905169e-002
3.106891e+003;8.897743e-002
3.108819e+003;8.908757e-002
3.110748e+003;8.928075e-002
3.112677e+003;8.923554e-002
3.114605e+003;8.913411e-002
3.116533e+003;8.913960e-002
3.118462e+003;8.933728e-002
3.120391e+003;8.923839e-002
3.122319e+003;8.924950e-002
3.124248e+003;8.974567e-002
3.126176e+003;9.000416e-002
3.128105e+003;9.007824e-002
3.130033e+003;9.067664e-002
3.131962e+003;9.121691e-002
3.133890e+003;9.140365e-002
3.135819e+003;9.153686e-002
3.137748e+003;9.205708e-002
3.139676e+003;9.251797e-002
3.141605e+003;9.271958e-002
3.143533e+003;9.295001e-002
3.145462e+003;9.317189e-002
3.147390e+003;9.360372e-002
3.149319e+003;9.420779e-002
3.151247e+003;9.469149e-002
3.153176e+003;9.512140e-002
3.155104e+003;9.589444e-002
3.157033e+003;9.665371e-002
3.158962e+003;9.707696e-002
3.160890e+003;9.741627e-002
3.162819e+003;9.729296e-002
3.164747e+003;9.785113e-002
3.166676e+003;9.945728e-002
3.168604e+003;1.004391e-001
3.170533e+003;1.006847e-001
3.172461e+003;1.006575e-001
3.174390e+003;1.010491e-001
3.176319e+003;1.019450e-001
3.178247e+003;1.028366e-001
3.180176e+003;1.037121e-001
3.182104e+003;1.040015e-001
3.184033e+003;1.037646e-001
3.185961e+003;1.038304e-001
3.187890e+003;1.044003e-001
3.189818e+003;1.050193e-001
3.191747e+003;1.057543e-001
3.193676e+003;1.064491e-001
3.195604e+003;1.067633e-001
3.197532e+003;1.068016e-001
3.199461e+003;1.071613e-001
3.201390e+003;1.075837e-001
3.203318e+003;1.079936e-001
3.205247e+003;1.083237e-001
3.207175e+003;1.081937e-001
3.209104e+003;1.082398e-001
3.211032e+003;1.088644e-001
3.212961e+003;1.096330e-001
3.214889e+003;1.098762e-001
3.216818e+003;1.098844e-001
3.218747e+003;1.102344e-001
3.220675e+003;1.104222e-001
3.222604e+003;1.104652e-001
3.224532e+003;1.107732e-001
3.226461e+003;1.111617e-001
3.228389e+003;1.112380e-001
3.230318e+003;1.114487e-001
3.232246e+003;1.119133e-001
3.234175e+003;1.123067e-001
3.236104e+003;1.124163e-001
3.238032e+003;1.126597e-001
3.239961e+003;1.131966e-001
3.241889e+003;1.137380e-001
3.243818e+003;1.146112e-001
3.245746e+003;1.151167e-001
3.247675e+003;1.151902e-001
3.249603e+003;1.154679e-001
3.251532e+003;1.161424e-001
3.253460e+003;1.171795e-001
3.255389e+003;1.179178e-001
3.257318e+003;1.176712e-001
3.259246e+003;1.178386e-001
3.261175e+003;1.185231e-001
3.263103e+003;1.191049e-001
3.265032e+003;1.196586e-001
3.266960e+003;1.202425e-001
3.268889e+003;1.206668e-001
3.270817e+003;1.207782e-001
3.272746e+003;1.210939e-001
3.274675e+003;1.211457e-001
3.276603e+003;1.210284e-001
3.278531e+003;1.214577e-001
3.280460e+003;1.218563e-001
3.282389e+003;1.218537e-001
3.284317e+003;1.221822e-001
3.286246e+003;1.227417e-001
3.288174e+003;1.226525e-001
3.290103e+003;1.221360e-001
3.292031e+003;1.217292e-001
3.293960e+003;1.212372e-001
3.295888e+003;1.208429e-001
3.297817e+003;1.207516e-001
3.299746e+003;1.206745e-001
3.301674e+003;1.203724e-001
3.303603e+003;1.201139e-001
3.305531e+003;1.200771e-001
3.307460e+003;1.198861e-001
3.309388e+003;1.192181e-001
3.311317e+003;1.182707e-001
3.313245e+003;1.179908e-001
3.315174e+003;1.174932e-001
3.317103e+003;1.171087e-001
3.319031e+003;1.165457e-001
3.320960e+003;1.157991e-001
3.322888e+003;1.151583e-001
3.324817e+003;1.152308e-001
3.326745e+003;1.149559e-001
3.328674e+003;1.138407e-001
3.330602e+003;1.131511e-001
3.332531e+003;1.127600e-001
3.334459e+003;1.122443e-001
3.336388e+003;1.113161e-001
3.338317e+003;1.106090e-001
3.340245e+003;1.104580e-001
3.342174e+003;1.102909e-001
3.344102e+003;1.098797e-001
3.346031e+003;1.090356e-001
3.347959e+003;1.081349e-001
3.349888e+003;1.073138e-001
3.351816e+003;1.062813e-001
3.353745e+003;1.055000e-001
3.355674e+003;1.051116e-001
3.357602e+003;1.045608e-001
3.359531e+003;1.038311e-001
3.361459e+003;1.030248e-001
3.363388e+003;1.023954e-001
3.365316e+003;1.015387e-001
3.367245e+003;1.005491e-001
3.369173e+003;9.945982e-002
3.371102e+003;9.864980e-002
3.373031e+003;9.819444e-002
3.374959e+003;9.770513e-002
3.376887e+003;9.674541e-002
3.378816e+003;9.566356e-002
3.380745e+003;9.458411e-002
3.382673e+003;9.380949e-002
3.384602e+003;9.319904e-002
3.386530e+003;9.261675e-002
3.388459e+003;9.244143e-002
3.390387e+003;9.202767e-002
3.392316e+003;9.150083e-002
3.394244e+003;9.103337e-002
3.396173e+003;9.025999e-002
3.398102e+003;8.973060e-002
3.400030e+003;8.894738e-002
3.401959e+003;8.805695e-002
3.403887e+003;8.727111e-002
3.405816e+003;8.655996e-002
3.407744e+003;8.610000e-002
3.409673e+003;8.532632e-002
3.411601e+003;8.446348e-002
3.413530e+003;8.377528e-002
3.415458e+003;8.328933e-002
3.417387e+003;8.310621e-002
3.419316e+003;8.226119e-002
3.421244e+003;8.076365e-002
3.423173e+003;8.030840e-002
3.425101e+003;7.998407e-002
3.427030e+003;7.872232e-002
3.428958e+003;7.760816e-002
3.430887e+003;7.714133e-002
3.432815e+003;7.670145e-002
3.434744e+003;7.608815e-002
3.436673e+003;7.498667e-002
3.438601e+003;7.373269e-002
3.440530e+003;7.276800e-002
3.442458e+003;7.239558e-002
3.444387e+003;7.209157e-002
3.446315e+003;7.130454e-002
3.448244e+003;7.094890e-002
3.450172e+003;7.056283e-002
3.452101e+003;6.998480e-002
3.454030e+003;6.939443e-002
3.455958e+003;6.867130e-002
3.457886e+003;6.859478e-002
3.459815e+003;6.839250e-002
3.461744e+003;6.784032e-002
3.463672e+003;6.743273e-002
3.465601e+003;6.687999e-002
3.467529e+003;6.656924e-002
3.469458e+003;6.620398e-002
3.471386e+003;6.544392e-002
3.473315e+003;6.516891e-002
3.475243e+003;6.545759e-002
3.477172e+003;6.509823e-002
3.479101e+003;6.423894e-002
3.481029e+003;6.347728e-002
3.482958e+003;6.304044e-002
3.484886e+003;6.244596e-002
3.486815e+003;6.210644e-002
3.488743e+003;6.205942e-002
3.490672e+003;6.173357e-002
3.492600e+003;6.074724e-002
3.494529e+003;5.960906e-002
3.496458e+003;5.949075e-002
3.498386e+003;5.947665e-002
3.500315e+003;5.903072e-002
3.502243e+003;5.834888e-002
3.504172e+003;5.750195e-002
3.506100e+003;5.725174e-002
3.508029e+003;5.726535e-002
3.509957e+003;5.704036e-002
3.511886e+003;5.687678e-002
3.513814e+003;5.648939e-002
3.515743e+003;5.572405e-002
3.517672e+003;5.532821e-002
3.519600e+003;5.488895e-002
3.521529e+003;5.411268e-002
3.523457e+003;5.306257e-002
3.525386e+003;5.264924e-002
3.527314e+003;5.296980e-002
3.529243e+003;5.305160e-002
3.531171e+003;5.292287e-002
3.533100e+003;5.250391e-002
3.535029e+003;5.197704e-002
3.536957e+003;5.156452e-002
3.538885e+003;5.109107e-002
3.540814e+003;5.036234e-002
3.542743e+003;5.031978e-002
3.544671e+003;5.062161e-002
3.546600e+003;5.065810e-002
3.548528e+003;4.993224e-002
3.550457e+003;4.887271e-002
3.552385e+003;4.850191e-002
3.554314e+003;4.864865e-002
3.556242e+003;4.851151e-002
3.558171e+003;4.799649e-002
3.560100e+003;4.721777e-002
3.562028e+003;4.654178e-002
3.563957e+003;4.629024e-002
3.565885e+003;4.572634e-002
3.567814e+003;4.524459e-002
3.569742e+003;4.495944e-002
3.571671e+003;4.451219e-002
3.573599e+003;4.386367e-002
3.575528e+003;4.352562e-002
3.577457e+003;4.334110e-002
3.579385e+003;4.301816e-002
3.581314e+003;4.240920e-002
3.583242e+003;4.159055e-002
3.585171e+003;4.104480e-002
3.587099e+003;4.078918e-002
3.589028e+003;4.029763e-002
3.590956e+003;4.011913e-002
3.592885e+003;3.999878e-002
3.594813e+003;3.922207e-002
3.596742e+003;3.862751e-002
3.598671e+003;3.815196e-002
3.600599e+003;3.785863e-002
3.602528e+003;3.764159e-002
3.604456e+003;3.697626e-002
3.606385e+003;3.573617e-002
3.608313e+003;3.470033e-002
3.610242e+003;3.439081e-002
3.612170e+003;3.427119e-002
3.614099e+003;3.433591e-002
3.616028e+003;3.409313e-002
3.617956e+003;3.346904e-002
3.619885e+003;3.298959e-002
3.621813e+003;3.239560e-002
3.623742e+003;3.121186e-002
3.625670e+003;3.013027e-002
3.627599e+003;2.945787e-002
3.629527e+003;2.915214e-002
3.631456e+003;2.908925e-002
3.633385e+003;2.836369e-002
3.635313e+003;2.774710e-002
3.637241e+003;2.720658e-002
3.639170e+003;2.659401e-002
3.641099e+003;2.621367e-002
3.643027e+003;2.552452e-002
3.644956e+003;2.436326e-002
3.646884e+003;2.297479e-002
3.648813e+003;2.237302e-002
3.650741e+003;2.311606e-002
3.652670e+003;2.305117e-002
3.654598e+003;2.171289e-002
3.656527e+003;2.058671e-002
3.658456e+003;2.006453e-002
3.660384e+003;1.931599e-002
3.662313e+003;1.885450e-002
3.664241e+003;1.821853e-002
3.666170e+003;1.731751e-002
3.668098e+003;1.651156e-002
3.670027e+003;1.543959e-002
3.671955e+003;1.514123e-002
3.673884e+003;1.458382e-002
3.675813e+003;1.382765e-002
3.677741e+003;1.408325e-002
3.679669e+003;1.405371e-002
3.681598e+003;1.362869e-002
3.683527e+003;1.294682e-002
3.685455e+003;1.244220e-002
3.687384e+003;1.145250e-002
3.689312e+003;1.082394e-002
3.691241e+003;1.082265e-002
3.693169e+003;1.101574e-002
3.695098e+003;1.092848e-002
3.697026e+003;1.079992e-002
3.698955e+003;1.041985e-002
3.700884e+003;9.704737e-003
3.702812e+003;9.883607e-003
3.704741e+003;1.006394e-002
3.706669e+003;9.585283e-003
3.708598e+003;9.390587e-003
3.710526e+003;9.350501e-003
3.712455e+003;9.214289e-003
3.714383e+003;9.451604e-003
3.716312e+003;9.392315e-003
3.718240e+003;9.227726e-003
3.720169e+003;9.228436e-003
3.722098e+003;9.062015e-003
3.724026e+003;9.012014e-003
3.725955e+003;9.000546e-003
3.727883e+003;8.975886e-003
3.729812e+003;8.435615e-003
3.731740e+003;7.702988e-003
3.733669e+003;7.814436e-003
3.735597e+003;8.282297e-003
3.737526e+003;8.475482e-003
3.739455e+003;8.269363e-003
3.741383e+003;8.109723e-003
3.743312e+003;7.244375e-003
3.745240e+003;7.496628e-003
3.747169e+003;7.798344e-003
3.749097e+003;7.135295e-003
3.751026e+003;7.139809e-003
3.752954e+003;7.479132e-003
3.754883e+003;8.232723e-003
3.756812e+003;8.745457e-003
3.758740e+003;8.655875e-003
3.760668e+003;8.470684e-003
3.762597e+003;8.151721e-003
3.764526e+003;7.680729e-003
3.766454e+003;7.888593e-003
3.768383e+003;7.978355e-003
3.770311e+003;7.813964e-003
3.772240e+003;8.119682e-003
3.774168e+003;8.415177e-003
3.776097e+003;8.221951e-003
3.778025e+003;7.987838e-003
3.779954e+003;7.975655e-003
3.781883e+003;7.988175e-003
3.783811e+003;7.955980e-003
3.785740e+003;8.501397e-003
3.787668e+003;8.864815e-003
3.789597e+003;8.255247e-003
3.791525e+003;7.718232e-003
3.793454e+003;8.188557e-003
3.795382e+003;8.702828e-003
3.797311e+003;8.655773e-003
3.799240e+003;8.119885e-003
3.801168e+003;7.636517e-003
3.803097e+003;7.897231e-003
3.805025e+003;7.425739e-003
3.806954e+003;6.830404e-003
3.808882e+003;7.476132e-003
3.810811e+003;8.121066e-003
3.812739e+003;7.706698e-003
3.814668e+003;6.873692e-003
3.816596e+003;7.712634e-003
3.818525e+003;8.381970e-003
3.820454e+003;7.893925e-003
3.822382e+003;8.288748e-003
3.824311e+003;8.671356e-003
3.826239e+003;8.182074e-003
3.828168e+003;8.034245e-003
3.830096e+003;8.409536e-003
3.832025e+003;8.700663e-003
3.833953e+003;8.681023e-003
3.835882e+003;8.301143e-003
3.837811e+003;7.843720e-003
3.839739e+003;7.846351e-003
3.841667e+003;8.185113e-003
3.843596e+003;8.518326e-003
3.845525e+003;8.800872e-003
3.847453e+003;9.302734e-003
3.849382e+003;8.717329e-003
3.851310e+003;7.314492e-003
3.853239e+003;6.956072e-003
3.855167e+003;8.367310e-003
3.857096e+003;9.473853e-003
3.859024e+003;9.060087e-003
3.860953e+003;8.331405e-003
3.862882e+003;8.587196e-003
3.864810e+003;9.204407e-003
3.866739e+003;9.093042e-003
3.868667e+003;8.257712e-003
3.870596e+003;8.068641e-003
3.872524e+003;8.085316e-003
3.874453e+003;8.262305e-003
3.876381e+003;9.553070e-003
3.878310e+003;1.017606e-002
3.880239e+003;1.009572e-002
3.882167e+003;9.812328e-003
3.884096e+003;9.176318e-003
3.886024e+003;8.873033e-003
3.887953e+003;8.998956e-003
3.889881e+003;8.999092e-003
3.891810e+003;9.074466e-003
3.893738e+003;9.309572e-003
3.895667e+003;9.604353e-003
3.897595e+003;9.151580e-003
3.899524e+003;9.026526e-003
3.901453e+003;9.618683e-003
3.903381e+003;9.882793e-003
3.905310e+003;9.684103e-003
3.907238e+003;9.538980e-003
3.909167e+003;1.004848e-002
3.911095e+003;1.013312e-002
3.913024e+003;9.819208e-003
3.914952e+003;9.436298e-003
3.916881e+003;9.150801e-003
3.918810e+003;9.495358e-003
3.920738e+003;9.224341e-003
3.922667e+003;8.991716e-003
3.924595e+003;9.166571e-003
3.926524e+003;9.564315e-003
3.928452e+003;9.478899e-003
3.930381e+003;9.272946e-003
3.932309e+003;9.538946e-003
3.934238e+003;1.000416e-002
3.936167e+003;1.045036e-002
3.938095e+003;1.056265e-002
3.940023e+003;9.555711e-003
3.941952e+003;9.018745e-003
3.943881e+003;9.473785e-003
3.945809e+003;9.452383e-003
3.947738e+003;9.372236e-003
3.949666e+003;9.989784e-003
3.951595e+003;1.083131e-002
3.953523e+003;1.069039e-002
3.955452e+003;1.017138e-002
3.957380e+003;9.846661e-003
3.959309e+003;9.338415e-003
3.961238e+003;9.131209e-003
3.963166e+003;9.288889e-003
3.965095e+003;8.803712e-003
3.967023e+003;8.697892e-003
3.968952e+003;9.475038e-003
3.970880e+003;9.732285e-003
3.972809e+003;9.856625e-003
3.974737e+003;1.005814e-002
3.976666e+003;9.722119e-003
3.978594e+003;9.463863e-003
3.980523e+003;9.173204e-003
3.982452e+003;9.238319e-003
3.984380e+003;9.681053e-003
3.986309e+003;1.010596e-002
3.988237e+003;1.017603e-002
3.990166e+003;1.004353e-002
3.992094e+003;9.841238e-003
3.994023e+003;9.303242e-003
3.995951e+003;9.055249e-003
3.997880e+003;9.501149e-003
3.999809e+003;9.611061e-003
4.001737e+003;0.000000e+000
