3.992094e+002;0.000000e+000
4.011380e+002;0.000000e+000
4.030665e+002;0.000000e+000
4.049951e+002;0.000000e+000
4.069236e+002;0.000000e+000
4.088522e+002;0.000000e+000
4.107807e+002;0.000000e+000
4.127093e+002;0.000000e+000
4.146378e+002;0.000000e+000
4.165664e+002;0.000000e+000
4.184949e+002;0.000000e+000
4.204235e+002;0.000000e+000
4.223520e+002;0.000000e+000
4.242806e+002;0.000000e+000
4.262091e+002;0.000000e+000
4.281377e+002;0.000000e+000
4.300662e+002;0.000000e+000
4.319948e+002;0.000000e+000
4.339233e+002;0.000000e+000
4.358519e+002;0.000000e+000
4.377804e+002;0.000000e+000
4.397090e+002;0.000000e+000
4.416375e+002;0.000000e+000
4.435660e+002;0.000000e+000
4.454946e+002;0.000000e+000
4.474232e+002;0.000000e+000
4.493517e+002;0.000000e+000
4.512802e+002;0.000000e+000
4.532088e+002;0.000000e+000
4.551373e+002;0.000000e+000
4.570659e+002;0.000000e+000
4.589944e+002;0.000000e+000
4.609230e+002;0.000000e+000
4.628515e+002;0.000000e+000
4.647801e+002;0.000000e+000
4.667086e+002;0.000000e+000
4.686372e+002;0.000000e+000
4.705657e+002;0.000000e+000
4.724943e+002;0.000000e+000
4.744228e+002;0.000000e+000
4.763513e+002;0.000000e+000
4.782799e+002;0.000000e+000
4.802085e+002;0.000000e+000
4.821370e+002;0.000000e+000
4.840656e+002;0.000000e+000
4.859941e+002;0.000000e+000
4.879226e+002;0.000000e+000
4.898512e+002;0.000000e+000
4.917798e+002;0.000000e+000
4.937083e+002;0.000000e+000
4.956368e+002;0.000000e+000
4.975654e+002;0.000000e+000
4.994939e+002;0.000000e+000
5.014225e+002;0.000000e+000
5.033510e+002;0.000000e+000
5.052796e+002;0.000000e+000
5.072081e+002;0.000000e+000
5.091367e+002;0.000000e+000
5.110652e+002;0.000000e+000
5.129938e+002;0.000000e+000
5.149223e+002;0.000000e+000
5.168509e+002;0.000000e+000
5.187794e+002;0.000000e+000
5.207079e+002;0.000000e+000
5.226365e+002;0.000000e+000
5.245651e+002;0.000000e+000
5.264936e+002;0.000000e+000
5.284222e+002;0.000000e+000
5.303507e+002;0.000000e+000
5.322792e+002;0.000000e+000
5.342078e+002;0.000000e+000
5.361364e+002;0.000000e+000
5.380649e+002;0.000000e+000
5.399935e+002;0.000000e+000
5.419220e+002;0.000000e+000
5.438505e+002;0.000000e+000
5.457791e+002;0.000000e+000
5.477076e+002;0.000000e+000
5.496362e+002;0.000000e+000
5.515648e+002;0.000000e+000
5.534933e+002;0.000000e+000
5.554218e+002;0.000000e+000
5.573504e+002;0.000000e+000
5.592789e+002;0.000000e+000
5.612075e+002;0.000000e+000
5.631360e+002;0.000000e+000
5.650646e+002;0.000000e+000
5.669931e+002;0.000000e+000
5.689217e+002;0.000000e+000
5.708502e+002;0.000000e+000
5.727787e+002;0.000000e+000
5.747073e+002;0.000000e+000
5.766359e+002;0.000000e+000
5.785644e+002;0.000000e+000
5.804930e+002;0.000000e+000
5.824215e+002;0.000000e+000
5.843500e+002;0.000000e+000
5.862786e+002;0.000000e+000
5.882072e+002;0.000000e+000
5.901357e+002;0.000000e+000
5.920643e+002;0.000000e+000
5.939928e+002;0.000000e+000
5.959213e+002;0.000000e+000
5.978499e+002;0.000000e+000
5.997784e+002;2.385971e-001
6.017070e+002;2.356317e-001
6.036355e+002;2.403876e-001
6.055641e+002;2.423521e-001
6.074926e+002;2.393360e-001
6.094211e+002;2.381917e-001
6.113497e+002;2.347414e-001
6.132783e+002;2.297411e-001
6.152068e+002;2.283448e-001
6.171354e+002;2.301968e-001
6.190639e+002;2.338914e-001
6.209924e+002;2.351490e-001
6.229210e+002;2.319854e-001
6.248495e+002;2.303547e-001
6.267781e+002;2.345802e-001
6.287067e+002;2.325747e-001
6.306352e+002;2.284757e-001
6.325637e+002;2.277932e-001
6.344923e+002;2.218389e-001
6.364208e+002;2.184150e-001
6.383494e+002;2.198870e-001
6.402780e+002;2.149922e-001
6.422065e+002;2.135622e-001
6.441350e+002;2.167308e-001
6.460636e+002;2.210474e-001
6.479921e+002;2.214193e-001
6.499207e+002;2.180572e-001
6.518492e+002;2.131404e-001
6.537778e+002;2.100074e-001
6.557063e+002;2.113524e-001
6.576349e+002;2.120553e-001
6.595634e+002;2.105769e-001
6.614919e+002;2.101289e-001
6.634205e+002;2.094517e-001
6.653491e+002;2.072403e-001
6.672776e+002;2.049264e-001
6.692062e+002;2.052662e-001
6.711347e+002;2.045870e-001
6.730632e+002;2.026468e-001
6.749918e+002;2.016708e-001
6.769203e+002;1.997874e-001
6.788489e+002;1.977749e-001
6.807775e+002;1.977896e-001
6.827060e+002;1.971603e-001
6.846345e+002;1.953881e-001
6.865631e+002;1.957600e-001
6.884916e+002;1.958739e-001
6.904202e+002;1.950424e-001
6.923488e+002;1.939831e-001
6.942773e+002;1.920341e-001
6.962058e+002;1.912943e-001
6.981344e+002;1.907262e-001
7.000629e+002;1.889679e-001
7.019915e+002;1.880712e-001
7.039200e+002;1.871005e-001
7.058486e+002;1.850856e-001
7.077771e+002;1.831600e-001
7.097057e+002;1.807594e-001
7.116342e+002;1.781789e-001
7.135627e+002;1.763889e-001
7.154913e+002;1.749123e-001
7.174199e+002;1.734714e-001
7.193484e+002;1.721639e-001
7.212770e+002;1.709842e-001
7.232055e+002;1.696754e-001
7.251340e+002;1.684328e-001
7.270626e+002;1.679390e-001
7.289911e+002;1.678803e-001
7.309197e+002;1.673876e-001
7.328483e+002;1.664487e-001
7.347768e+002;1.655045e-001
7.367053e+002;1.652461e-001
7.386339e+002;1.654833e-001
7.405624e+002;1.652545e-001
7.424910e+002;1.648032e-001
7.444196e+002;1.645344e-001
7.463481e+002;1.629658e-001
7.482766e+002;1.606384e-001
7.502052e+002;1.597085e-001
7.521337e+002;1.589086e-001
7.540623e+002;1.570770e-001
7.559908e+002;1.558540e-001
7.579194e+002;1.548008e-001
7.598479e+002;1.524624e-001
7.617765e+002;1.507320e-001
7.637050e+002;1.494626e-001
7.656335e+002;1.481093e-001
7.675621e+002;1.468150e-001
7.694907e+002;1.455050e-001
7.714192e+002;1.440299e-001
7.733478e+002;1.428763e-001
7.752763e+002;1.416727e-001
7.772048e+002;1.411468e-001
7.791334e+002;1.401360e-001
7.810620e+002;1.381041e-001
7.829905e+002;1.369943e-001
7.849191e+002;1.363664e-001
7.868476e+002;1.359757e-001
7.887761e+002;1.350178e-001
7.907047e+002;1.339450e-001
7.926332e+002;1.333297e-001
7.945618e+002;1.324467e-001
7.964903e+002;1.322426e-001
7.984189e+002;1.319565e-001
8.003474e+002;1.315268e-001
8.022759e+002;1.309891e-001
8.042045e+002;1.300275e-001
8.061331e+002;1.290620e-001
8.080616e+002;1.284397e-001
8.099902e+002;1.286272e-001
8.119187e+002;1.287078e-001
8.138472e+002;1.277771e-001
8.157758e+002;1.273227e-001
8.177043e+002;1.269546e-001
8.196329e+002;1.269554e-001
8.215615e+002;1.273909e-001
8.234900e+002;1.279037e-001
8.254185e+002;1.281429e-001
8.273471e+002;1.278434e-001
8.292756e+002;1.274676e-001
8.312042e+002;1.267043e-001
8.331328e+002;1.254402e-001
8.350613e+002;1.237421e-001
8.369898e+002;1.224805e-001
8.389184e+002;1.220718e-001
8.408469e+002;1.212544e-001
8.427755e+002;1.199509e-001
8.447040e+002;1.189520e-001
8.466326e+002;1.186480e-001
8.485611e+002;1.181990e-001
8.504897e+002;1.172915e-001
8.524182e+002;1.166884e-001
8.543467e+002;1.161970e-001
8.562753e+002;1.155197e-001
8.582039e+002;1.151870e-001
8.601324e+002;1.148259e-001
8.620610e+002;1.146178e-001
8.639895e+002;1.147398e-001
8.659180e+002;1.146729e-001
8.678466e+002;1.148091e-001
8.697751e+002;1.153572e-001
8.717037e+002;1.154683e-001
8.736323e+002;1.152526e-001
8.755608e+002;1.152232e-001
8.774893e+002;1.153477e-001
8.794179e+002;1.157481e-001
8.813464e+002;1.159836e-001
8.832750e+002;1.158804e-001
8.852036e+002;1.159819e-001
8.871321e+002;1.164104e-001
8.890606e+002;1.165854e-001
8.909892e+002;1.161895e-001
8.929177e+002;1.156941e-001
8.948463e+002;1.153372e-001
8.967748e+002;1.150768e-001
8.987034e+002;1.148086e-001
9.006319e+002;1.145881e-001
9.025605e+002;1.146788e-001
9.044890e+002;1.152421e-001
9.064175e+002;1.156114e-001
9.083461e+002;1.156934e-001
9.102747e+002;1.158816e-001
9.122032e+002;1.159906e-001
9.141318e+002;1.162265e-001
9.160603e+002;1.165932e-001
9.179888e+002;1.172940e-001
9.199174e+002;1.180245e-001
9.218459e+002;1.183723e-001
9.237745e+002;1.188226e-001
9.257031e+002;1.192247e-001
9.276316e+002;1.193736e-001
9.295601e+002;1.195364e-001
9.314887e+002;1.198634e-001
9.334172e+002;1.197451e-001
9.353458e+002;1.193354e-001
9.372744e+002;1.193181e-001
9.392029e+002;1.193146e-001
9.411314e+002;1.186945e-001
9.430600e+002;1.182171e-001
9.449885e+002;1.184234e-001
9.469171e+002;1.185567e-001
9.488456e+002;1.184825e-001
9.507742e+002;1.188145e-001
9.527027e+002;1.192114e-001
9.546313e+002;1.192308e-001
9.565598e+002;1.196115e-001
9.584883e+002;1.203316e-001
9.604169e+002;1.207110e-001
9.623455e+002;1.210962e-001
9.642740e+002;1.215066e-001
9.662026e+002;1.219469e-001
9.681311e+002;1.226763e-001
9.700596e+002;1.235077e-001
9.719882e+002;1.240708e-001
9.739167e+002;1.243486e-001
9.758453e+002;1.250210e-001
9.777739e+002;1.258405e-001
9.797024e+002;1.263553e-001
9.816309e+002;1.270685e-001
9.835595e+002;1.281201e-001
9.854880e+002;1.292456e-001
9.874166e+002;1.306676e-001
9.893452e+002;1.324133e-001
9.912737e+002;1.341933e-001
9.932022e+002;1.354285e-001
9.951307e+002;1.364655e-001
9.970593e+002;1.377947e-001
9.989879e+002;1.392627e-001
1.000916e+003;1.409270e-001
1.002845e+003;1.424637e-001
1.004773e+003;1.441391e-001
1.006702e+003;1.458307e-001
1.008631e+003;1.473903e-001
1.010559e+003;1.486931e-001
1.012488e+003;1.499731e-001
1.014416e+003;1.516294e-001
1.016345e+003;1.531053e-001
1.018273e+003;1.541673e-001
1.020202e+003;1.553894e-001
1.022130e+003;1.570173e-001
1.024059e+003;1.593188e-001
1.025988e+003;1.620990e-001
1.027916e+003;1.653609e-001
1.029845e+003;1.689853e-001
1.031773e+003;1.725290e-001
1.033702e+003;1.763377e-001
1.035630e+003;1.801711e-001
1.037559e+003;1.830054e-001
1.039487e+003;1.845896e-001
1.041416e+003;1.855041e-001
1.043344e+003;1.853968e-001
1.045273e+003;1.839467e-001
1.047202e+003;1.816960e-001
1.049130e+003;1.792975e-001
1.051059e+003;1.768529e-001
1.052987e+003;1.742210e-001
1.054916e+003;1.726484e-001
1.056844e+003;1.721642e-001
1.058773e+003;1.721731e-001
1.060701e+003;1.726669e-001
1.062630e+003;1.732311e-001
1.064558e+003;1.737288e-001
1.066487e+003;1.744146e-001
1.068416e+003;1.751328e-001
1.070344e+003;1.750858e-001
1.072273e+003;1.754412e-001
1.074201e+003;1.758319e-001
1.076130e+003;1.751306e-001
1.078058e+003;1.751066e-001
1.079987e+003;1.752299e-001
1.081915e+003;1.746612e-001
1.083844e+003;1.743323e-001
1.085773e+003;1.739557e-001
1.087701e+003;1.737509e-001
1.089630e+003;1.734821e-001
1.091558e+003;1.726741e-001
1.093487e+003;1.725479e-001
1.095415e+003;1.727851e-001
1.097344e+003;1.728755e-001
1.099272e+003;1.723381e-001
1.101201e+003;1.715347e-001
1.103129e+003;1.711389e-001
1.105058e+003;1.705148e-001
1.106987e+003;1.697546e-001
1.108915e+003;1.684090e-001
1.110844e+003;1.673010e-001
1.112772e+003;1.665974e-001
1.114701e+003;1.665674e-001
1.116629e+003;1.666663e-001
1.118558e+003;1.665032e-001
1.120486e+003;1.663883e-001
1.122415e+003;1.665147e-001
1.124344e+003;1.668784e-001
1.126272e+003;1.671990e-001
1.128201e+003;1.673469e-001
1.130129e+003;1.676189e-001
1.132058e+003;1.681776e-001
1.133986e+003;1.688016e-001
1.135915e+003;1.699876e-001
1.137843e+003;1.719046e-001
1.139772e+003;1.738208e-001
1.141700e+003;1.757133e-001
1.143629e+003;1.772048e-001
1.145557e+003;1.789833e-001
1.147486e+003;1.808351e-001
1.149415e+003;1.822637e-001
1.151343e+003;1.834571e-001
1.153272e+003;1.843380e-001
1.155200e+003;1.852643e-001
1.157129e+003;1.857694e-001
1.159057e+003;1.862002e-001
1.160986e+003;1.872640e-001
1.162914e+003;1.887186e-001
1.164843e+003;1.898837e-001
1.166771e+003;1.911704e-001
1.168700e+003;1.930128e-001
1.170629e+003;1.948286e-001
1.172557e+003;1.957995e-001
1.174486e+003;1.965057e-001
1.176414e+003;1.972155e-001
1.178343e+003;1.979659e-001
1.180271e+003;1.984701e-001
1.182200e+003;1.989827e-001
1.184128e+003;2.002885e-001
1.186057e+003;2.020651e-001
1.187986e+003;2.035649e-001
1.189914e+003;2.047158e-001
1.191843e+003;2.058528e-001
1.193771e+003;2.071026e-001
1.195700e+003;2.081609e-001
1.197628e+003;2.091956e-001
1.199557e+003;2.106286e-001
1.201485e+003;2.120695e-001
1.203414e+003;2.132204e-001
1.205343e+003;2.145489e-001
1.207271e+003;2.159648e-001
1.209200e+003;2.173086e-001
1.211128e+003;2.187056e-001
1.213057e+003;2.200111e-001
1.214985e+003;2.210217e-001
1.216914e+003;2.220415e-001
1.218842e+003;2.227727e-001
1.220771e+003;2.231735e-001
1.222699e+003;2.234973e-001
1.224628e+003;2.239383e-001
1.226557e+003;2.243130e-001
1.228485e+003;2.243393e-001
1.230414e+003;2.241831e-001
1.232342e+003;2.237411e-001
1.234271e+003;2.227798e-001
1.236199e+003;2.215678e-001
1.238128e+003;2.203818e-001
1.240056e+003;2.191997e-001
1.241985e+003;2.181112e-001
1.243913e+003;2.168524e-001
1.245842e+003;2.154737e-001
1.247771e+003;2.138788e-001
1.249699e+003;2.122790e-001
1.251628e+003;2.107247e-001
1.253556e+003;2.093262e-001
1.255485e+003;2.079079e-001
1.257413e+003;2.066777e-001
1.259342e+003;2.053463e-001
1.261270e+003;2.032930e-001
1.263199e+003;2.009250e-001
1.265127e+003;1.986607e-001
1.267056e+003;1.968534e-001
1.268985e+003;1.957007e-001
1.270913e+003;1.946452e-001
1.272842e+003;1.933924e-001
1.274770e+003;1.922234e-001
1.276699e+003;1.913163e-001
1.278627e+003;1.907730e-001
1.280556e+003;1.898630e-001
1.282484e+003;1.885614e-001
1.284413e+003;1.873192e-001
1.286342e+003;1.860921e-001
1.288270e+003;1.848847e-001
1.290199e+003;1.837789e-001
1.292127e+003;1.828672e-001
1.294056e+003;1.819130e-001
1.295984e+003;1.810388e-001
1.297913e+003;1.799493e-001
1.299841e+003;1.788059e-001
1.301770e+003;1.779902e-001
1.303698e+003;1.772354e-001
1.305627e+003;1.766472e-001
1.307556e+003;1.763676e-001
1.309484e+003;1.762471e-001
1.311413e+003;1.763757e-001
1.313341e+003;1.766433e-001
1.315270e+003;1.768966e-001
1.317198e+003;1.772027e-001
1.319127e+003;1.777667e-001
1.321055e+003;1.782474e-001
1.322984e+003;1.783993e-001
1.324912e+003;1.783503e-001
1.326841e+003;1.782580e-001
1.328770e+003;1.780296e-001
1.330698e+003;1.773690e-001
1.332627e+003;1.764126e-001
1.334555e+003;1.753947e-001
1.336484e+003;1.740484e-001
1.338412e+003;1.726880e-001
1.340341e+003;1.717417e-001
1.342269e+003;1.709765e-001
1.344198e+003;1.699834e-001
1.346126e+003;1.690991e-001
1.348055e+003;1.684146e-001
1.349984e+003;1.676365e-001
1.351912e+003;1.670052e-001
1.353841e+003;1.666231e-001
1.355769e+003;1.664729e-001
1.357698e+003;1.664785e-001
1.359626e+003;1.666783e-001
1.361555e+003;1.672695e-001
1.363483e+003;1.685746e-001
1.365412e+003;1.704061e-001
1.367341e+003;1.719597e-001
1.369269e+003;1.730243e-001
1.371198e+003;1.733924e-001
1.373126e+003;1.732606e-001
1.375055e+003;1.735252e-001
1.376983e+003;1.743057e-001
1.378912e+003;1.752330e-001
1.380840e+003;1.764323e-001
1.382769e+003;1.778200e-001
1.384698e+003;1.790089e-001
1.386626e+003;1.796277e-001
1.388555e+003;1.798712e-001
1.390483e+003;1.797165e-001
1.392412e+003;1.790633e-001
1.394340e+003;1.783222e-001
1.396269e+003;1.778172e-001
1.398197e+003;1.776378e-001
1.400126e+003;1.778754e-001
1.402054e+003;1.781639e-001
1.403983e+003;1.783552e-001
1.405911e+003;1.787226e-001
1.407840e+003;1.790175e-001
1.409769e+003;1.791738e-001
1.411697e+003;1.792487e-001
1.413626e+003;1.794251e-001
1.415554e+003;1.793806e-001
1.417483e+003;1.791354e-001
1.419411e+003;1.793470e-001
1.421340e+003;1.801901e-001
1.423268e+003;1.812156e-001
1.425197e+003;1.822954e-001
1.427125e+003;1.837394e-001
1.429054e+003;1.856275e-001
1.430983e+003;1.880174e-001
1.432911e+003;1.909393e-001
1.434840e+003;1.937874e-001
1.436768e+003;1.962609e-001
1.438697e+003;1.989984e-001
1.440625e+003;2.009642e-001
1.442554e+003;2.019742e-001
1.444482e+003;2.027723e-001
1.446411e+003;2.035385e-001
1.448340e+003;2.038983e-001
1.450268e+003;2.043106e-001
1.452197e+003;2.048326e-001
1.454125e+003;2.047761e-001
1.456054e+003;2.036367e-001
1.457982e+003;2.029273e-001
1.459911e+003;2.024813e-001
1.461839e+003;2.014893e-001
1.463768e+003;2.003289e-001
1.465697e+003;1.992821e-001
1.467625e+003;1.985638e-001
1.469554e+003;1.977493e-001
1.471482e+003;1.966361e-001
1.473411e+003;1.962314e-001
1.475339e+003;1.971894e-001
1.477268e+003;1.992539e-001
1.479196e+003;2.024592e-001
1.481125e+003;2.065303e-001
1.483053e+003;2.115504e-001
1.484982e+003;2.175950e-001
1.486911e+003;2.247197e-001
1.488839e+003;2.324675e-001
1.490768e+003;2.409280e-001
1.492696e+003;2.496720e-001
1.494625e+003;2.578562e-001
1.496553e+003;2.657463e-001
1.498482e+003;2.730076e-001
1.500410e+003;2.791647e-001
1.502339e+003;2.841004e-001
1.504267e+003;2.876029e-001
1.506196e+003;2.908240e-001
1.508125e+003;2.946838e-001
1.510053e+003;2.981148e-001
1.511982e+003;3.002073e-001
1.513910e+003;3.011282e-001
1.515839e+003;2.997476e-001
1.517767e+003;2.959616e-001
1.519696e+003;2.908601e-001
1.521624e+003;2.857879e-001
1.523553e+003;2.819027e-001
1.525481e+003;2.782139e-001
1.527410e+003;2.747742e-001
1.529339e+003;2.714083e-001
1.531267e+003;2.674004e-001
1.533196e+003;2.628996e-001
1.535124e+003;2.588141e-001
1.537053e+003;2.538705e-001
1.538981e+003;2.480509e-001
1.540910e+003;2.431513e-001
1.542838e+003;2.390800e-001
1.544767e+003;2.343795e-001
1.546695e+003;2.292472e-001
1.548624e+003;2.237450e-001
1.550553e+003;2.177631e-001
1.552481e+003;2.119911e-001
1.554410e+003;2.065808e-001
1.556338e+003;2.010146e-001
1.558267e+003;1.947126e-001
1.560195e+003;1.899778e-001
1.562124e+003;1.866828e-001
1.564052e+003;1.828414e-001
1.565981e+003;1.793771e-001
1.567910e+003;1.762448e-001
1.569838e+003;1.733146e-001
1.571767e+003;1.714829e-001
1.573695e+003;1.699517e-001
1.575624e+003;1.687269e-001
1.577552e+003;1.692171e-001
1.579481e+003;1.705028e-001
1.581409e+003;1.716405e-001
1.583338e+003;1.730198e-001
1.585266e+003;1.752925e-001
1.587195e+003;1.781822e-001
1.589124e+003;1.813199e-001
1.591052e+003;1.849065e-001
1.592981e+003;1.891014e-001
1.594909e+003;1.939073e-001
1.596838e+003;1.990041e-001
1.598766e+003;2.047257e-001
1.600695e+003;2.110737e-001
1.602623e+003;2.178003e-001
1.604552e+003;2.254151e-001
1.606480e+003;2.339113e-001
1.608409e+003;2.427848e-001
1.610338e+003;2.515813e-001
1.612266e+003;2.603459e-001
1.614195e+003;2.688003e-001
1.616123e+003;2.764145e-001
1.618052e+003;2.844705e-001
1.619980e+003;2.926394e-001
1.621909e+003;3.000030e-001
1.623837e+003;3.077016e-001
1.625766e+003;3.152528e-001
1.627694e+003;3.217213e-001
1.629623e+003;3.274594e-001
1.631552e+003;3.318412e-001
1.633480e+003;3.348250e-001
1.635409e+003;3.365999e-001
1.637337e+003;3.381568e-001
1.639266e+003;3.392365e-001
1.641194e+003;3.387420e-001
1.643123e+003;3.368885e-001
1.645051e+003;3.336359e-001
1.646980e+003;3.296806e-001
1.648909e+003;3.256745e-001
1.650837e+003;3.200501e-001
1.652766e+003;3.129098e-001
1.654694e+003;3.071325e-001
1.656623e+003;3.014180e-001
1.658551e+003;2.940542e-001
1.660480e+003;2.859906e-001
1.662408e+003;2.778298e-001
1.664337e+003;2.701619e-001
1.666266e+003;2.621492e-001
1.668194e+003;2.535960e-001
1.670123e+003;2.452546e-001
1.672051e+003;2.374154e-001
1.673980e+003;2.294483e-001
1.675908e+003;2.216015e-001
1.677837e+003;2.141369e-001
1.679765e+003;2.065346e-001
1.681694e+003;1.988368e-001
1.683622e+003;1.908088e-001
1.685551e+003;1.833956e-001
1.687479e+003;1.765946e-001
1.689408e+003;1.695109e-001
1.691337e+003;1.624767e-001
1.693265e+003;1.550198e-001
1.695194e+003;1.465949e-001
1.697122e+003;1.389645e-001
1.699051e+003;1.314429e-001
1.700979e+003;1.240399e-001
1.702908e+003;1.180184e-001
1.704836e+003;1.118394e-001
1.706765e+003;1.061938e-001
1.708693e+003;1.012387e-001
1.710622e+003;9.684582e-002
1.712551e+003;9.284610e-002
1.714479e+003;8.906866e-002
1.716408e+003;8.560096e-002
1.718336e+003;8.322070e-002
1.720265e+003;8.163411e-002
1.722193e+003;7.986976e-002
1.724122e+003;7.801534e-002
1.726050e+003;7.636845e-002
1.727979e+003;7.470547e-002
1.729908e+003;7.316188e-002
1.731836e+003;7.112911e-002
1.733765e+003;6.884579e-002
1.735693e+003;6.762682e-002
1.737622e+003;6.650706e-002
1.739550e+003;6.500833e-002
1.741479e+003;6.364136e-002
1.743407e+003;6.203764e-002
1.745336e+003;6.069263e-002
1.747265e+003;5.942920e-002
1.749193e+003;5.811394e-002
1.751122e+003;5.696457e-002
1.753050e+003;5.630399e-002
1.754979e+003;5.547681e-002
1.756907e+003;5.449003e-002
1.758836e+003;5.373645e-002
1.760764e+003;5.285505e-002
1.762693e+003;5.207262e-002
1.764621e+003;5.159941e-002
1.766550e+003;5.086658e-002
1.768479e+003;5.021498e-002
1.770407e+003;4.947513e-002
1.772336e+003;4.889347e-002
1.774264e+003;4.905856e-002
1.776193e+003;4.916979e-002
1.778121e+003;4.886040e-002
1.780050e+003;4.835600e-002
1.781978e+003;4.802062e-002
1.783907e+003;4.795963e-002
1.785835e+003;4.802705e-002
1.787764e+003;4.787135e-002
1.789693e+003;4.725426e-002
1.791621e+003;4.675479e-002
1.793550e+003;4.678700e-002
1.795478e+003;4.691504e-002
1.797407e+003;4.661873e-002
1.799335e+003;4.617069e-002
1.801264e+003;4.584346e-002
1.803192e+003;4.591877e-002
1.805121e+003;4.582943e-002
1.807049e+003;4.552705e-002
1.808978e+003;4.542495e-002
1.810907e+003;4.544434e-002
1.812835e+003;4.538489e-002
1.814764e+003;4.534057e-002
1.816692e+003;4.521440e-002
1.818621e+003;4.507605e-002
1.820549e+003;4.494448e-002
1.822478e+003;4.486695e-002
1.824406e+003;4.477449e-002
1.826335e+003;4.475002e-002
1.828264e+003;4.454963e-002
1.830192e+003;4.430365e-002
1.832121e+003;4.417847e-002
1.834049e+003;4.409448e-002
1.835978e+003;4.409378e-002
1.837906e+003;4.421699e-002
1.839835e+003;4.422392e-002
1.841763e+003;4.406232e-002
1.843692e+003;4.372349e-002
1.845620e+003;4.372836e-002
1.847549e+003;4.380825e-002
1.849478e+003;4.381467e-002
1.851406e+003;4.384699e-002
1.853335e+003;4.377050e-002
1.855263e+003;4.352251e-002
1.857192e+003;4.347277e-002
1.859120e+003;4.352273e-002
1.861049e+003;4.358265e-002
1.862977e+003;4.367596e-002
1.864906e+003;4.367468e-002
1.866834e+003;4.351137e-002
1.868763e+003;4.338320e-002
1.870692e+003;4.342242e-002
1.872620e+003;4.361196e-002
1.874549e+003;4.370128e-002
1.876477e+003;4.371352e-002
1.878406e+003;4.365358e-002
1.880334e+003;4.357738e-002
1.882263e+003;4.363976e-002
1.884191e+003;4.365306e-002
1.886120e+003;4.365882e-002
1.888048e+003;4.372030e-002
1.889977e+003;4.368842e-002
1.891906e+003;4.373437e-002
1.893834e+003;4.387188e-002
1.895763e+003;4.393457e-002
1.897691e+003;4.384872e-002
1.899620e+003;4.389377e-002
1.901548e+003;4.394351e-002
1.903477e+003;4.383992e-002
1.905405e+003;4.388171e-002
1.907334e+003;4.400871e-002
1.909262e+003;4.369293e-002
1.911191e+003;4.344820e-002
1.913120e+003;4.367442e-002
1.915048e+003;4.395198e-002
1.916977e+003;4.381137e-002
1.918905e+003;4.376141e-002
1.920834e+003;4.391763e-002
1.922762e+003;4.387947e-002
1.924691e+003;4.378421e-002
1.926619e+003;4.372554e-002
1.928548e+003;4.373067e-002
1.930477e+003;4.389564e-002
1.932405e+003;4.389281e-002
1.934334e+003;4.380642e-002
1.936262e+003;4.388563e-002
1.938191e+003;4.385583e-002
1.940119e+003;4.364742e-002
1.942048e+003;4.357027e-002
1.943976e+003;4.367677e-002
1.945905e+003;4.374012e-002
1.947833e+003;4.394351e-002
1.949762e+003;4.413027e-002
1.951691e+003;4.406756e-002
1.953619e+003;4.397468e-002
1.955548e+003;4.415698e-002
1.957476e+003;4.420422e-002
1.959405e+003;4.423610e-002
1.961333e+003;4.430108e-002
1.963262e+003;4.422411e-002
1.965190e+003;4.423353e-002
1.967119e+003;4.417466e-002
1.969047e+003;4.410676e-002
1.970976e+003;4.422414e-002
1.972905e+003;4.436808e-002
1.974833e+003;4.416981e-002
1.976762e+003;4.414527e-002
1.978690e+003;4.432673e-002
1.980619e+003;4.432585e-002
1.982547e+003;4.425144e-002
1.984476e+003;4.432108e-002
1.986404e+003;4.448241e-002
1.988333e+003;4.439899e-002
1.990261e+003;4.434926e-002
1.992190e+003;4.439965e-002
1.994119e+003;4.439289e-002
1.996047e+003;4.438596e-002
1.997976e+003;4.433983e-002
1.999904e+003;4.432372e-002
2.001833e+003;4.447823e-002
2.003761e+003;4.454020e-002
2.005690e+003;4.464205e-002
2.007618e+003;4.465421e-002
2.009547e+003;4.456064e-002
2.011476e+003;4.471179e-002
2.013404e+003;4.488510e-002
2.015333e+003;4.483400e-002
2.017261e+003;4.477136e-002
2.019190e+003;4.490593e-002
2.021118e+003;4.495734e-002
2.023047e+003;4.500196e-002
2.024975e+003;4.510289e-002
2.026904e+003;4.515237e-002
2.028833e+003;4.507363e-002
2.030761e+003;4.502868e-002
2.032690e+003;4.517494e-002
2.034618e+003;4.535984e-002
2.036547e+003;4.515957e-002
2.038475e+003;4.505690e-002
2.040404e+003;4.508436e-002
2.042332e+003;4.518384e-002
2.044261e+003;4.519741e-002
2.046189e+003;4.512311e-002
2.048118e+003;4.513421e-002
2.050047e+003;4.528496e-002
2.051975e+003;4.536036e-002
2.053904e+003;4.544533e-002
2.055832e+003;4.555707e-002
2.057761e+003;4.546233e-002
2.059689e+003;4.541874e-002
2.061618e+003;4.531762e-002
2.063546e+003;4.515994e-002
2.065475e+003;4.517263e-002
2.067404e+003;4.530011e-002
2.069332e+003;4.540343e-002
2.071260e+003;4.536757e-002
2.073189e+003;4.525882e-002
2.075118e+003;4.521362e-002
2.077046e+003;4.542488e-002
2.078975e+003;4.554699e-002
2.080903e+003;4.555450e-002
2.082832e+003;4.557183e-002
2.084760e+003;4.548841e-002
2.086689e+003;4.540053e-002
2.088617e+003;4.549066e-002
2.090546e+003;4.558725e-002
2.092475e+003;4.563112e-002
2.094403e+003;4.556620e-002
2.096332e+003;4.543032e-002
2.098260e+003;4.555693e-002
2.100189e+003;4.559848e-002
2.102117e+003;4.538096e-002
2.104046e+003;4.537430e-002
2.105974e+003;4.547808e-002
2.107903e+003;4.546031e-002
2.109832e+003;4.519759e-002
2.111760e+003;4.503228e-002
2.113688e+003;4.512186e-002
2.115617e+003;4.522987e-002
2.117546e+003;4.521925e-002
2.119474e+003;4.528320e-002
2.121403e+003;4.534888e-002
2.123331e+003;4.547340e-002
2.125260e+003;4.557739e-002
2.127188e+003;4.549574e-002
2.129117e+003;4.534951e-002
2.131045e+003;4.544220e-002
2.132974e+003;4.550380e-002
2.134903e+003;4.552341e-002
2.136831e+003;4.557161e-002
2.138760e+003;4.542480e-002
2.140688e+003;4.536216e-002
2.142617e+003;4.531369e-002
2.144545e+003;4.512943e-002
2.146474e+003;4.490145e-002
2.148402e+003;4.479818e-002
2.150331e+003;4.496473e-002
2.152260e+003;4.529934e-002
2.154188e+003;4.530019e-002
2.156117e+003;4.505694e-002
2.158045e+003;4.494764e-002
2.159974e+003;4.507194e-002
2.161902e+003;4.522885e-002
2.163831e+003;4.516274e-002
2.165759e+003;4.502551e-002
2.167688e+003;4.497278e-002
2.169616e+003;4.500284e-002
2.171545e+003;4.503507e-002
2.173474e+003;4.509623e-002
2.175402e+003;4.517656e-002
2.177331e+003;4.529210e-002
2.179259e+003;4.543257e-002
2.181188e+003;4.552219e-002
2.183116e+003;4.549209e-002
2.185045e+003;4.518693e-002
2.186973e+003;4.517487e-002
2.188902e+003;4.541675e-002
2.190831e+003;4.549839e-002
2.192759e+003;4.544743e-002
2.194688e+003;4.541013e-002
2.196616e+003;4.537272e-002
2.198545e+003;4.529820e-002
2.200473e+003;4.524918e-002
2.202402e+003;4.512836e-002
2.204330e+003;4.525422e-002
2.206259e+003;4.537595e-002
2.208188e+003;4.540299e-002
2.210116e+003;4.540163e-002
2.212044e+003;4.555516e-002
2.213973e+003;4.567113e-002
2.215902e+003;4.538574e-002
2.217830e+003;4.529279e-002
2.219759e+003;4.542664e-002
2.221687e+003;4.551899e-002
2.223616e+003;4.555148e-002
2.225544e+003;4.555078e-002
2.227473e+003;4.554703e-002
2.229401e+003;4.557500e-002
2.231330e+003;4.550541e-002
2.233259e+003;4.546807e-002
2.235187e+003;4.564908e-002
2.237116e+003;4.585031e-002
2.239044e+003;4.585543e-002
2.240973e+003;4.565505e-002
2.242901e+003;4.543746e-002
2.244830e+003;4.547513e-002
2.246758e+003;4.555811e-002
2.248687e+003;4.547521e-002
2.250615e+003;4.535374e-002
2.252544e+003;4.521502e-002
2.254473e+003;4.509385e-002
2.256401e+003;4.536418e-002
2.258330e+003;4.563719e-002
2.260258e+003;4.549371e-002
2.262187e+003;4.549750e-002
2.264115e+003;4.560705e-002
2.266044e+003;4.571843e-002
2.267972e+003;4.567514e-002
2.269901e+003;4.564982e-002
2.271830e+003;4.566649e-002
2.273758e+003;4.557367e-002
2.275687e+003;4.569307e-002
2.277615e+003;4.576983e-002
2.279544e+003;4.555472e-002
2.281472e+003;4.554703e-002
2.283401e+003;4.564949e-002
2.285329e+003;4.558508e-002
2.287258e+003;4.573960e-002
2.289187e+003;4.596883e-002
2.291115e+003;4.610583e-002
2.293043e+003;4.618752e-002
2.294972e+003;4.611645e-002
2.296901e+003;4.597063e-002
2.298829e+003;4.590666e-002
2.300758e+003;4.596411e-002
2.302686e+003;4.605488e-002
2.304615e+003;4.605591e-002
2.306543e+003;4.601388e-002
2.308472e+003;4.605646e-002
2.310400e+003;4.588574e-002
2.312329e+003;4.568950e-002
2.314258e+003;4.577509e-002
2.316186e+003;4.588939e-002
2.318115e+003;4.589333e-002
2.320043e+003;4.603657e-002
2.321972e+003;4.605915e-002
2.323900e+003;4.596437e-002
2.325829e+003;4.599513e-002
2.327757e+003;4.601922e-002
2.329686e+003;4.595210e-002
2.331615e+003;4.604409e-002
2.333543e+003;4.614408e-002
2.335472e+003;4.620448e-002
2.337400e+003;4.622597e-002
2.339329e+003;4.605436e-002
2.341257e+003;4.597616e-002
2.343186e+003;4.611984e-002
2.345114e+003;4.646832e-002
2.347043e+003;4.706767e-002
2.348971e+003;4.741296e-002
2.350900e+003;4.715845e-002
2.352829e+003;4.669192e-002
2.354757e+003;4.652213e-002
2.356686e+003;4.664119e-002
2.358614e+003;4.686610e-002
2.360543e+003;4.692268e-002
2.362471e+003;4.681288e-002
2.364400e+003;4.679741e-002
2.366328e+003;4.686337e-002
2.368257e+003;4.689075e-002
2.370186e+003;4.720624e-002
2.372114e+003;4.752030e-002
2.374042e+003;4.776519e-002
2.375971e+003;4.792910e-002
2.377900e+003;4.813428e-002
2.379828e+003;4.846420e-002
2.381757e+003;4.855274e-002
2.383685e+003;4.855404e-002
2.385614e+003;4.857261e-002
2.387542e+003;4.869780e-002
2.389471e+003;4.896364e-002
2.391399e+003;4.923335e-002
2.393328e+003;4.923640e-002
2.395257e+003;4.909725e-002
2.397185e+003;4.904250e-002
2.399114e+003;4.924809e-002
2.401042e+003;4.953986e-002
2.402971e+003;4.968609e-002
2.404899e+003;4.963654e-002
2.406828e+003;4.979559e-002
2.408756e+003;4.999785e-002
2.410685e+003;4.993172e-002
2.412614e+003;4.998235e-002
2.414542e+003;5.037856e-002
2.416471e+003;5.073391e-002
2.418399e+003;5.083819e-002
2.420328e+003;5.087522e-002
2.422256e+003;5.067239e-002
2.424185e+003;5.064439e-002
2.426113e+003;5.092358e-002
2.428042e+003;5.134843e-002
2.429970e+003;5.169748e-002
2.431899e+003;5.178867e-002
2.433828e+003;5.174522e-002
2.435756e+003;5.180681e-002
2.437685e+003;5.202758e-002
2.439613e+003;5.216639e-002
2.441542e+003;5.215036e-002
2.443470e+003;5.205619e-002
2.445399e+003;5.216882e-002
2.447327e+003;5.230597e-002
2.449256e+003;5.224527e-002
2.451185e+003;5.250668e-002
2.453113e+003;5.293911e-002
2.455042e+003;5.304250e-002
2.456970e+003;5.312499e-002
2.458899e+003;5.315727e-002
2.460827e+003;5.326052e-002
2.462756e+003;5.340835e-002
2.464684e+003;5.372550e-002
2.466613e+003;5.397478e-002
2.468542e+003;5.398960e-002
2.470470e+003;5.392838e-002
2.472398e+003;5.412665e-002
2.474327e+003;5.412000e-002
2.476256e+003;5.428356e-002
2.478184e+003;5.447268e-002
2.480113e+003;5.452771e-002
2.482041e+003;5.462803e-002
2.483970e+003;5.487925e-002
2.485898e+003;5.527785e-002
2.487827e+003;5.530924e-002
2.489755e+003;5.505092e-002
2.491684e+003;5.493659e-002
2.493613e+003;5.513168e-002
2.495541e+003;5.523913e-002
2.497470e+003;5.527732e-002
2.499398e+003;5.559204e-002
2.501327e+003;5.591881e-002
2.503255e+003;5.581311e-002
2.505184e+003;5.557859e-002
2.507112e+003;5.564751e-002
2.509041e+003;5.588030e-002
2.510969e+003;5.603453e-002
2.512898e+003;5.620205e-002
2.514827e+003;5.623776e-002
2.516755e+003;5.635907e-002
2.518684e+003;5.652079e-002
2.520612e+003;5.663788e-002
2.522541e+003;5.680227e-002
2.524469e+003;5.678780e-002
2.526398e+003;5.673218e-002
2.528326e+003;5.682477e-002
2.530255e+003;5.687731e-002
2.532184e+003;5.693956e-002
2.534112e+003;5.696619e-002
2.536041e+003;5.687115e-002
2.537969e+003;5.705120e-002
2.539898e+003;5.727204e-002
2.541826e+003;5.742945e-002
2.543755e+003;5.730157e-002
2.545683e+003;5.728353e-002
2.547612e+003;5.751005e-002
2.549541e+003;5.761578e-002
2.551469e+003;5.769240e-002
2.553397e+003;5.786151e-002
2.555326e+003;5.795313e-002
2.557255e+003;5.801372e-002
2.559183e+003;5.808549e-002
2.561112e+003;5.806966e-002
2.563040e+003;5.810019e-002
2.564969e+003;5.833065e-002
2.566897e+003;5.824399e-002
2.568826e+003;5.817004e-002
2.570754e+003;5.843594e-002
2.572683e+003;5.858847e-002
2.574612e+003;5.883832e-002
2.576540e+003;5.915672e-002
2.578469e+003;5.920054e-002
2.580397e+003;5.925974e-002
2.582326e+003;5.946457e-002
2.584254e+003;5.953909e-002
2.586183e+003;5.944808e-002
2.588111e+003;5.952089e-002
2.590040e+003;5.975385e-002
2.591969e+003;5.970450e-002
2.593897e+003;5.968732e-002
2.595826e+003;5.972207e-002
2.597754e+003;5.984470e-002
2.599683e+003;6.015711e-002
2.601611e+003;6.028549e-002
2.603540e+003;6.023148e-002
2.605468e+003;6.034305e-002
2.607397e+003;6.071454e-002
2.609325e+003;6.086360e-002
2.611254e+003;6.071603e-002
2.613183e+003;6.041509e-002
2.615111e+003;6.021644e-002
2.617040e+003;6.024309e-002
2.618968e+003;6.062839e-002
2.620897e+003;6.091822e-002
2.622825e+003;6.088159e-002
2.624754e+003;6.098574e-002
2.626682e+003;6.090869e-002
2.628611e+003;6.081351e-002
2.630540e+003;6.110053e-002
2.632468e+003;6.115561e-002
2.634396e+003;6.090274e-002
2.636325e+003;6.100355e-002
2.638254e+003;6.134271e-002
2.640182e+003;6.138682e-002
2.642111e+003;6.126559e-002
2.644039e+003;6.130340e-002
2.645968e+003;6.139281e-002
2.647896e+003;6.154974e-002
2.649825e+003;6.163710e-002
2.651753e+003;6.156326e-002
2.653682e+003;6.157876e-002
2.655611e+003;6.162717e-002
2.657539e+003;6.150584e-002
2.659468e+003;6.128509e-002
2.661396e+003;6.168976e-002
2.663325e+003;6.210266e-002
2.665253e+003;6.200469e-002
2.667182e+003;6.196036e-002
2.669110e+003;6.221101e-002
2.671039e+003;6.231808e-002
2.672968e+003;6.234895e-002
2.674896e+003;6.247232e-002
2.676825e+003;6.262225e-002
2.678753e+003;6.247618e-002
2.680682e+003;6.222818e-002
2.682610e+003;6.221407e-002
2.684539e+003;6.260342e-002
2.686467e+003;6.292541e-002
2.688396e+003;6.287014e-002
2.690324e+003;6.285004e-002
2.692253e+003;6.325476e-002
2.694182e+003;6.357799e-002
2.696110e+003;6.358935e-002
2.698039e+003;6.351916e-002
2.699967e+003;6.351466e-002
2.701896e+003;6.351145e-002
2.703824e+003;6.380747e-002
2.705753e+003;6.403407e-002
2.707681e+003;6.403450e-002
2.709610e+003;6.405400e-002
2.711539e+003;6.419200e-002
2.713467e+003;6.456625e-002
2.715396e+003;6.477787e-002
2.717324e+003;6.480425e-002
2.719253e+003;6.479464e-002
2.721181e+003;6.494249e-002
2.723110e+003;6.527391e-002
2.725038e+003;6.560848e-002
2.726967e+003;6.580965e-002
2.728896e+003;6.576377e-002
2.730824e+003;6.591129e-002
2.732752e+003;6.622540e-002
2.734681e+003;6.647895e-002
2.736610e+003;6.652582e-002
2.738538e+003;6.619896e-002
2.740467e+003;6.586502e-002
2.742395e+003;6.612947e-002
2.744324e+003;6.658129e-002
2.746252e+003;6.669922e-002
2.748181e+003;6.693812e-002
2.750109e+003;6.731483e-002
2.752038e+003;6.767835e-002
2.753967e+003;6.789006e-002
2.755895e+003;6.793395e-002
2.757824e+003;6.792128e-002
2.759752e+003;6.790703e-002
2.761681e+003;6.784543e-002
2.763609e+003;6.811392e-002
2.765538e+003;6.855170e-002
2.767466e+003;6.869808e-002
2.769395e+003;6.862395e-002
2.771323e+003;6.854949e-002
2.773252e+003;6.847788e-002
2.775181e+003;6.864328e-002
2.777109e+003;6.893148e-002
2.779038e+003;6.918320e-002
2.780966e+003;6.936932e-002
2.782895e+003;6.943727e-002
2.784823e+003;6.948681e-002
2.786752e+003;6.953285e-002
2.788680e+003;6.970189e-002
2.790609e+003;7.005507e-002
2.792538e+003;7.040943e-002
2.794466e+003;7.071632e-002
2.796395e+003;7.096517e-002
2.798323e+003;7.103623e-002
2.800252e+003;7.127175e-002
2.802180e+003;7.150470e-002
2.804109e+003;7.158007e-002
2.806037e+003;7.211101e-002
2.807966e+003;7.274646e-002
2.809895e+003;7.277881e-002
2.811823e+003;7.268742e-002
2.813751e+003;7.264558e-002
2.815680e+003;7.272840e-002
2.817609e+003;7.301869e-002
2.819537e+003;7.316718e-002
2.821466e+003;7.353830e-002
2.823394e+003;7.405797e-002
2.825323e+003;7.436112e-002
2.827251e+003;7.456449e-002
2.829180e+003;7.481426e-002
2.831108e+003;7.508075e-002
2.833037e+003;7.559766e-002
2.834966e+003;7.600177e-002
2.836894e+003;7.652211e-002
2.838823e+003;7.712154e-002
2.840751e+003;7.749713e-002
2.842680e+003;7.790338e-002
2.844608e+003;7.836865e-002
2.846537e+003;7.936183e-002
2.848465e+003;8.058890e-002
2.850394e+003;8.101541e-002
2.852323e+003;8.145250e-002
2.854251e+003;8.222239e-002
2.856180e+003;8.258883e-002
2.858108e+003;8.321869e-002
2.860037e+003;8.414983e-002
2.861965e+003;8.491010e-002
2.863894e+003;8.554439e-002
2.865822e+003;8.629001e-002
2.867751e+003;8.738653e-002
2.869679e+003;8.840325e-002
2.871608e+003;8.888866e-002
2.873536e+003;8.912992e-002
2.875465e+003;8.934592e-002
2.877394e+003;8.925475e-002
2.879322e+003;8.928324e-002
2.881251e+003;8.902827e-002
2.883179e+003;8.861035e-002
2.885108e+003;8.850650e-002
2.887036e+003;8.861035e-002
2.888965e+003;8.875288e-002
2.890893e+003;8.891960e-002
2.892822e+003;8.935096e-002
2.894750e+003;8.966302e-002
2.896679e+003;8.969630e-002
2.898608e+003;8.980899e-002
2.900536e+003;9.014759e-002
2.902465e+003;9.075859e-002
2.904393e+003;9.132027e-002
2.906322e+003;9.190749e-002
2.908250e+003;9.256894e-002
2.910179e+003;9.315021e-002
2.912107e+003;9.389985e-002
2.914036e+003;9.473665e-002
2.915965e+003;9.603297e-002
2.917893e+003;9.736128e-002
2.919822e+003;9.794532e-002
2.921750e+003;9.828522e-002
2.923679e+003;9.883160e-002
2.925607e+003;9.956294e-002
2.927536e+003;1.008815e-001
2.929464e+003;1.016176e-001
2.931393e+003;1.015683e-001
2.933322e+003;1.017874e-001
2.935250e+003;1.018452e-001
2.937178e+003;1.015356e-001
2.939107e+003;1.011660e-001
2.941036e+003;1.008417e-001
2.942964e+003;1.006093e-001
2.944893e+003;1.002364e-001
2.946821e+003;9.990445e-002
2.948750e+003;9.983272e-002
2.950678e+003;9.986062e-002
2.952607e+003;9.988213e-002
2.954535e+003;9.986646e-002
2.956464e+003;9.998632e-002
2.958393e+003;1.002479e-001
2.960321e+003;1.003355e-001
2.962250e+003;1.000189e-001
2.964178e+003;9.970373e-002
2.966107e+003;9.945119e-002
2.968035e+003;9.853824e-002
2.969964e+003;9.762476e-002
2.971892e+003;9.699344e-002
2.973821e+003;9.645176e-002
2.975750e+003;9.572188e-002
2.977678e+003;9.480610e-002
2.979607e+003;9.398208e-002
2.981535e+003;9.303185e-002
2.983464e+003;9.193598e-002
2.985392e+003;9.075724e-002
2.987321e+003;8.949259e-002
2.989249e+003;8.858788e-002
2.991178e+003;8.806089e-002
2.993106e+003;8.775780e-002
2.995035e+003;8.726572e-002
2.996964e+003;8.675651e-002
2.998892e+003;8.634631e-002
3.000821e+003;8.606349e-002
3.002749e+003;8.577758e-002
3.004678e+003;8.552817e-002
3.006606e+003;8.565286e-002
3.008535e+003;8.596231e-002
3.010463e+003;8.625372e-002
3.012392e+003;8.640040e-002
3.014321e+003;8.620946e-002
3.016249e+003;8.581234e-002
3.018177e+003;8.602148e-002
3.020106e+003;8.638313e-002
3.022035e+003;8.664032e-002
3.023963e+003;8.716097e-002
3.025892e+003;8.772528e-002
3.027820e+003;8.791587e-002
3.029749e+003;8.804782e-002
3.031677e+003;8.817433e-002
3.033606e+003;8.828898e-002
3.035534e+003;8.877438e-002
3.037463e+003;8.960087e-002
3.039392e+003;9.014759e-002
3.041320e+003;9.030780e-002
3.043249e+003;9.032252e-002
3.045177e+003;9.078415e-002
3.047106e+003;9.157385e-002
3.049034e+003;9.162860e-002
3.050963e+003;9.140250e-002
3.052891e+003;9.152574e-002
3.054820e+003;9.160203e-002
3.056749e+003;9.218943e-002
3.058677e+003;9.274772e-002
3.060606e+003;9.290084e-002
3.062534e+003;9.301416e-002
3.064463e+003;9.276335e-002
3.066391e+003;9.238486e-002
3.068320e+003;9.224635e-002
3.070248e+003;9.196510e-002
3.072177e+003;9.187163e-002
3.074105e+003;9.174006e-002
3.076034e+003;9.131810e-002
3.077963e+003;9.092772e-002
3.079891e+003;9.121234e-002
3.081820e+003;9.156530e-002
3.083748e+003;9.126703e-002
3.085677e+003;9.114355e-002
3.087605e+003;9.104866e-002
3.089534e+003;9.067154e-002
3.091462e+003;9.036524e-002
3.093391e+003;9.028140e-002
3.095320e+003;9.019070e-002
3.097248e+003;8.985801e-002
3.099177e+003;8.957387e-002
3.101105e+003;8.947317e-002
3.103034e+003;8.952183e-002
3.104962e+003;8.950513e-002
3.106891e+003;8.923998e-002
3.108819e+003;8.918911e-002
3.110748e+003;8.937188e-002
3.112677e+003;8.966672e-002
3.114605e+003;8.977668e-002
3.116533e+003;8.989342e-002
3.118462e+003;9.010506e-002
3.120391e+003;9.025600e-002
3.122319e+003;9.035883e-002
3.124248e+003;9.040061e-002
3.126176e+003;9.052034e-002
3.128105e+003;9.110002e-002
3.130033e+003;9.174968e-002
3.131962e+003;9.187609e-002
3.133890e+003;9.202178e-002
3.135819e+003;9.253835e-002
3.137748e+003;9.283941e-002
3.139676e+003;9.283424e-002
3.141605e+003;9.313831e-002
3.143533e+003;9.370406e-002
3.145462e+003;9.434500e-002
3.147390e+003;9.510993e-002
3.149319e+003;9.552102e-002
3.151247e+003;9.589010e-002
3.153176e+003;9.623208e-002
3.155104e+003;9.682839e-002
3.157033e+003;9.756316e-002
3.158962e+003;9.778157e-002
3.160890e+003;9.838470e-002
3.162819e+003;9.894302e-002
3.164747e+003;9.941920e-002
3.166676e+003;1.005637e-001
3.168604e+003;1.014268e-001
3.170533e+003;1.017272e-001
3.172461e+003;1.019453e-001
3.174390e+003;1.024892e-001
3.176319e+003;1.032624e-001
3.178247e+003;1.040171e-001
3.180176e+003;1.047544e-001
3.182104e+003;1.051019e-001
3.184033e+003;1.051891e-001
3.185961e+003;1.057781e-001
3.187890e+003;1.068638e-001
3.189818e+003;1.077216e-001
3.191747e+003;1.084739e-001
3.193676e+003;1.088428e-001
3.195604e+003;1.089857e-001
3.197532e+003;1.091590e-001
3.199461e+003;1.095509e-001
3.201390e+003;1.100058e-001
3.203318e+003;1.104063e-001
3.205247e+003;1.108170e-001
3.207175e+003;1.110432e-001
3.209104e+003;1.110339e-001
3.211032e+003;1.115026e-001
3.212961e+003;1.121910e-001
3.214889e+003;1.125391e-001
3.216818e+003;1.124186e-001
3.218747e+003;1.126337e-001
3.220675e+003;1.130665e-001
3.222604e+003;1.134267e-001
3.224532e+003;1.134167e-001
3.226461e+003;1.136049e-001
3.228389e+003;1.142019e-001
3.230318e+003;1.146394e-001
3.232246e+003;1.149669e-001
3.234175e+003;1.148836e-001
3.236104e+003;1.149002e-001
3.238032e+003;1.156916e-001
3.239961e+003;1.165301e-001
3.241889e+003;1.170875e-001
3.243818e+003;1.179264e-001
3.245746e+003;1.184642e-001
3.247675e+003;1.187773e-001
3.249603e+003;1.194047e-001
3.251532e+003;1.201400e-001
3.253460e+003;1.208860e-001
3.255389e+003;1.216110e-001
3.257318e+003;1.218220e-001
3.259246e+003;1.219667e-001
3.261175e+003;1.226087e-001
3.263103e+003;1.234681e-001
3.265032e+003;1.237364e-001
3.266960e+003;1.240938e-001
3.268889e+003;1.244315e-001
3.270817e+003;1.245229e-001
3.272746e+003;1.250496e-001
3.274675e+003;1.256875e-001
3.276603e+003;1.255755e-001
3.278531e+003;1.256703e-001
3.280460e+003;1.261114e-001
3.282389e+003;1.263494e-001
3.284317e+003;1.266834e-001
3.286246e+003;1.269658e-001
3.288174e+003;1.268800e-001
3.290103e+003;1.262884e-001
3.292031e+003;1.255946e-001
3.293960e+003;1.255331e-001
3.295888e+003;1.254489e-001
3.297817e+003;1.254295e-001
3.299746e+003;1.254970e-001
3.301674e+003;1.253149e-001
3.303603e+003;1.246214e-001
3.305531e+003;1.237416e-001
3.307460e+003;1.232779e-001
3.309388e+003;1.230035e-001
3.311317e+003;1.223334e-001
3.313245e+003;1.218220e-001
3.315174e+003;1.214164e-001
3.317103e+003;1.210766e-001
3.319031e+003;1.207140e-001
3.320960e+003;1.199979e-001
3.322888e+003;1.192209e-001
3.324817e+003;1.190302e-001
3.326745e+003;1.186676e-001
3.328674e+003;1.178246e-001
3.330602e+003;1.171702e-001
3.332531e+003;1.164132e-001
3.334459e+003;1.157822e-001
3.336388e+003;1.151239e-001
3.338317e+003;1.144037e-001
3.340245e+003;1.137095e-001
3.342174e+003;1.128271e-001
3.344102e+003;1.120035e-001
3.346031e+003;1.113538e-001
3.347959e+003;1.108320e-001
3.349888e+003;1.099674e-001
3.351816e+003;1.090327e-001
3.353745e+003;1.082554e-001
3.355674e+003;1.072319e-001
3.357602e+003;1.062782e-001
3.359531e+003;1.058799e-001
3.361459e+003;1.053454e-001
3.363388e+003;1.043993e-001
3.365316e+003;1.033542e-001
3.367245e+003;1.024845e-001
3.369173e+003;1.015449e-001
3.371102e+003;1.005166e-001
3.373031e+003;9.975830e-002
3.374959e+003;9.920784e-002
3.376887e+003;9.845789e-002
3.378816e+003;9.743799e-002
3.380745e+003;9.637076e-002
3.382673e+003;9.562714e-002
3.384602e+003;9.502184e-002
3.386530e+003;9.431959e-002
3.388459e+003;9.411321e-002
3.390387e+003;9.392329e-002
3.392316e+003;9.319206e-002
3.394244e+003;9.208502e-002
3.396173e+003;9.109524e-002
3.398102e+003;9.033211e-002
3.400030e+003;8.951698e-002
3.401959e+003;8.903778e-002
3.403887e+003;8.842851e-002
3.405816e+003;8.773282e-002
3.407744e+003;8.746717e-002
3.409673e+003;8.657136e-002
3.411601e+003;8.502147e-002
3.413530e+003;8.429420e-002
3.415458e+003;8.430751e-002
3.417387e+003;8.431797e-002
3.419316e+003;8.347188e-002
3.421244e+003;8.181789e-002
3.423173e+003;8.091169e-002
3.425101e+003;8.038164e-002
3.427030e+003;7.926040e-002
3.428958e+003;7.829697e-002
3.430887e+003;7.795812e-002
3.432815e+003;7.741385e-002
3.434744e+003;7.623353e-002
3.436673e+003;7.517600e-002
3.438601e+003;7.462434e-002
3.440530e+003;7.407600e-002
3.442458e+003;7.347625e-002
3.444387e+003;7.272913e-002
3.446315e+003;7.204995e-002
3.448244e+003;7.145490e-002
3.450172e+003;7.046040e-002
3.452101e+003;6.952596e-002
3.454030e+003;6.920508e-002
3.455958e+003;6.932781e-002
3.457886e+003;6.919540e-002
3.459815e+003;6.837237e-002
3.461744e+003;6.817439e-002
3.463672e+003;6.802621e-002
3.465601e+003;6.729592e-002
3.467529e+003;6.669270e-002
3.469458e+003;6.596421e-002
3.471386e+003;6.530710e-002
3.473315e+003;6.491747e-002
3.475243e+003;6.479887e-002
3.477172e+003;6.452973e-002
3.479101e+003;6.402774e-002
3.481029e+003;6.349055e-002
3.482958e+003;6.303369e-002
3.484886e+003;6.246295e-002
3.486815e+003;6.208675e-002
3.488743e+003;6.155879e-002
3.490672e+003;6.108951e-002
3.492600e+003;6.063658e-002
3.494529e+003;6.006867e-002
3.496458e+003;5.993898e-002
3.498386e+003;5.960807e-002
3.500315e+003;5.898529e-002
3.502243e+003;5.842514e-002
3.504172e+003;5.764295e-002
3.506100e+003;5.727699e-002
3.508029e+003;5.694341e-002
3.509957e+003;5.637333e-002
3.511886e+003;5.622799e-002
3.513814e+003;5.620190e-002
3.515743e+003;5.580219e-002
3.517672e+003;5.529862e-002
3.519600e+003;5.471776e-002
3.521529e+003;5.377024e-002
3.523457e+003;5.311285e-002
3.525386e+003;5.289386e-002
3.527314e+003;5.274927e-002
3.529243e+003;5.264251e-002
3.531171e+003;5.242446e-002
3.533100e+003;5.231041e-002
3.535029e+003;5.217775e-002
3.536957e+003;5.194597e-002
3.538885e+003;5.143768e-002
3.540814e+003;5.077130e-002
3.542743e+003;5.065713e-002
3.544671e+003;5.042296e-002
3.546600e+003;4.982461e-002
3.548528e+003;4.969906e-002
3.550457e+003;4.939526e-002
3.552385e+003;4.871785e-002
3.554314e+003;4.863901e-002
3.556242e+003;4.883222e-002
3.558171e+003;4.818811e-002
3.560100e+003;4.749276e-002
3.562028e+003;4.686019e-002
3.563957e+003;4.624122e-002
3.565885e+003;4.563473e-002
3.567814e+003;4.507263e-002
3.569742e+003;4.484116e-002
3.571671e+003;4.480832e-002
3.573599e+003;4.435484e-002
3.575528e+003;4.397468e-002
3.577457e+003;4.398960e-002
3.579385e+003;4.344450e-002
3.581314e+003;4.264768e-002
3.583242e+003;4.188433e-002
3.585171e+003;4.132287e-002
3.587099e+003;4.119979e-002
3.589028e+003;4.090607e-002
3.590956e+003;4.076338e-002
3.592885e+003;4.085892e-002
3.594813e+003;4.048650e-002
3.596742e+003;4.004489e-002
3.598671e+003;3.958387e-002
3.600599e+003;3.941893e-002
3.602528e+003;3.954039e-002
3.604456e+003;3.916949e-002
3.606385e+003;3.823239e-002
3.608313e+003;3.718575e-002
3.610242e+003;3.692442e-002
3.612170e+003;3.651704e-002
3.614099e+003;3.632819e-002
3.616028e+003;3.598728e-002
3.617956e+003;3.564491e-002
3.619885e+003;3.518167e-002
3.621813e+003;3.446876e-002
3.623742e+003;3.370441e-002
3.625670e+003;3.263318e-002
3.627599e+003;3.149258e-002
3.629527e+003;3.124426e-002
3.631456e+003;3.212087e-002
3.633385e+003;3.186749e-002
3.635313e+003;3.112831e-002
3.637241e+003;3.073554e-002
3.639170e+003;3.031900e-002
3.641099e+003;2.971137e-002
3.643027e+003;2.863694e-002
3.644956e+003;2.746216e-002
3.646884e+003;2.711057e-002
3.648813e+003;2.695446e-002
3.650741e+003;2.677896e-002
3.652670e+003;2.633352e-002
3.654598e+003;2.515968e-002
3.656527e+003;2.429332e-002
3.658456e+003;2.399803e-002
3.660384e+003;2.341543e-002
3.662313e+003;2.319798e-002
3.664241e+003;2.242709e-002
3.666170e+003;2.125755e-002
3.668098e+003;2.030626e-002
3.670027e+003;1.938160e-002
3.671955e+003;1.926303e-002
3.673884e+003;1.821808e-002
3.675813e+003;1.701245e-002
3.677741e+003;1.742549e-002
3.679669e+003;1.757051e-002
3.681598e+003;1.749334e-002
3.683527e+003;1.683720e-002
3.685455e+003;1.603719e-002
3.687384e+003;1.524249e-002
3.689312e+003;1.485889e-002
3.691241e+003;1.470627e-002
3.693169e+003;1.450926e-002
3.695098e+003;1.443904e-002
3.697026e+003;1.429317e-002
3.698955e+003;1.373261e-002
3.700884e+003;1.340914e-002
3.702812e+003;1.385509e-002
3.704741e+003;1.361809e-002
3.706669e+003;1.280910e-002
3.708598e+003;1.247756e-002
3.710526e+003;1.225375e-002
3.712455e+003;1.232230e-002
3.714383e+003;1.254805e-002
3.716312e+003;1.228742e-002
3.718240e+003;1.195662e-002
3.720169e+003;1.205213e-002
3.722098e+003;1.217247e-002
3.724026e+003;1.211226e-002
3.725955e+003;1.196704e-002
3.727883e+003;1.221118e-002
3.729812e+003;1.195086e-002
3.731740e+003;1.111094e-002
3.733669e+003;1.108270e-002
3.735597e+003;1.142110e-002
3.737526e+003;1.153422e-002
3.739455e+003;1.150265e-002
3.741383e+003;1.146560e-002
3.743312e+003;1.050735e-002
3.745240e+003;1.072010e-002
3.747169e+003;1.091621e-002
3.749097e+003;1.016972e-002
3.751026e+003;1.007506e-002
3.752954e+003;1.031132e-002
3.754883e+003;1.096354e-002
3.756812e+003;1.112039e-002
3.758740e+003;1.075818e-002
3.760668e+003;1.082947e-002
3.762597e+003;1.112916e-002
3.764526e+003;1.088278e-002
3.766454e+003;1.089637e-002
3.768383e+003;1.078280e-002
3.770311e+003;1.078708e-002
3.772240e+003;1.093554e-002
3.774168e+003;1.075722e-002
3.776097e+003;1.066971e-002
3.778025e+003;1.114976e-002
3.779954e+003;1.148458e-002
3.781883e+003;1.147676e-002
3.783811e+003;1.146250e-002
3.785740e+003;1.168675e-002
3.787668e+003;1.198424e-002
3.789597e+003;1.160109e-002
3.791525e+003;1.110557e-002
3.793454e+003;1.123653e-002
3.795382e+003;1.124360e-002
3.797311e+003;1.128866e-002
3.799240e+003;1.085988e-002
3.801168e+003;1.002779e-002
3.803097e+003;1.023519e-002
3.805025e+003;1.024767e-002
3.806954e+003;1.028160e-002
3.808882e+003;1.149190e-002
3.810811e+003;1.200948e-002
3.812739e+003;1.100806e-002
3.814668e+003;1.003559e-002
3.816596e+003;1.086049e-002
3.818525e+003;1.161082e-002
3.820454e+003;1.122908e-002
3.822382e+003;1.143161e-002
3.824311e+003;1.179508e-002
3.826239e+003;1.124826e-002
3.828168e+003;1.108208e-002
3.830096e+003;1.086022e-002
3.832025e+003;1.088770e-002
3.833953e+003;1.113501e-002
3.835882e+003;1.109262e-002
3.837811e+003;1.103691e-002
3.839739e+003;1.115456e-002
3.841667e+003;1.147938e-002
3.843596e+003;1.201517e-002
3.845525e+003;1.234715e-002
3.847453e+003;1.220928e-002
3.849382e+003;1.127210e-002
3.851310e+003;1.033983e-002
3.853239e+003;9.938319e-003
3.855167e+003;1.073966e-002
3.857096e+003;1.204021e-002
3.859024e+003;1.244489e-002
3.860953e+003;1.200373e-002
3.862882e+003;1.196149e-002
3.864810e+003;1.229796e-002
3.866739e+003;1.236712e-002
3.868667e+003;1.101506e-002
3.870596e+003;1.043016e-002
3.872524e+003;1.099518e-002
3.874453e+003;1.156645e-002
3.876381e+003;1.275638e-002
3.878310e+003;1.338652e-002
3.880239e+003;1.329013e-002
3.882167e+003;1.319339e-002
3.884096e+003;1.261852e-002
3.886024e+003;1.196732e-002
3.887953e+003;1.201412e-002
3.889881e+003;1.180083e-002
3.891810e+003;1.199920e-002
3.893738e+003;1.279514e-002
3.895667e+003;1.334264e-002
3.897595e+003;1.239467e-002
3.899524e+003;1.124901e-002
3.901453e+003;1.142461e-002
3.903381e+003;1.185415e-002
3.905310e+003;1.256537e-002
3.907238e+003;1.338061e-002
3.909167e+003;1.356941e-002
3.911095e+003;1.321296e-002
3.913024e+003;1.291804e-002
3.914952e+003;1.278613e-002
3.916881e+003;1.260439e-002
3.918810e+003;1.301838e-002
3.920738e+003;1.341949e-002
3.922667e+003;1.336875e-002
3.924595e+003;1.307174e-002
3.926524e+003;1.267170e-002
3.928452e+003;1.240752e-002
3.930381e+003;1.259228e-002
3.932309e+003;1.303852e-002
3.934238e+003;1.367362e-002
3.936167e+003;1.356626e-002
3.938095e+003;1.295163e-002
3.940023e+003;1.226861e-002
3.941952e+003;1.214514e-002
3.943881e+003;1.290507e-002
3.945809e+003;1.329696e-002
3.947738e+003;1.351581e-002
3.949666e+003;1.399341e-002
3.951595e+003;1.420230e-002
3.953523e+003;1.374981e-002
3.955452e+003;1.332160e-002
3.957380e+003;1.380580e-002
3.959309e+003;1.377129e-002
3.961238e+003;1.350613e-002
3.963166e+003;1.322669e-002
3.965095e+003;1.279733e-002
3.967023e+003;1.310483e-002
3.968952e+003;1.402226e-002
3.970880e+003;1.400060e-002
3.972809e+003;1.348429e-002
3.974737e+003;1.296877e-002
3.976666e+003;1.251804e-002
3.978594e+003;1.227727e-002
3.980523e+003;1.214974e-002
3.982452e+003;1.248721e-002
3.984380e+003;1.306751e-002
3.986309e+003;1.335911e-002
3.988237e+003;1.309981e-002
3.990166e+003;1.244059e-002
3.992094e+003;1.224540e-002
3.994023e+003;1.232843e-002
3.995951e+003;1.241131e-002
3.997880e+003;1.259924e-002
3.999809e+003;1.249935e-002
4.001737e+003;0.000000e+000
