3.992094e+002;0.000000e+000
4.011380e+002;0.000000e+000
4.030665e+002;0.000000e+000
4.049951e+002;0.000000e+000
4.069236e+002;0.000000e+000
4.088522e+002;0.000000e+000
4.107807e+002;0.000000e+000
4.127093e+002;0.000000e+000
4.146378e+002;0.000000e+000
4.165664e+002;0.000000e+000
4.184949e+002;0.000000e+000
4.204235e+002;0.000000e+000
4.223520e+002;0.000000e+000
4.242806e+002;0.000000e+000
4.262091e+002;0.000000e+000
4.281377e+002;0.000000e+000
4.300662e+002;0.000000e+000
4.319948e+002;0.000000e+000
4.339233e+002;0.000000e+000
4.358519e+002;0.000000e+000
4.377804e+002;0.000000e+000
4.397090e+002;0.000000e+000
4.416375e+002;0.000000e+000
4.435660e+002;0.000000e+000
4.454946e+002;0.000000e+000
4.474232e+002;0.000000e+000
4.493517e+002;0.000000e+000
4.512802e+002;0.000000e+000
4.532088e+002;0.000000e+000
4.551373e+002;0.000000e+000
4.570659e+002;0.000000e+000
4.589944e+002;0.000000e+000
4.609230e+002;0.000000e+000
4.628515e+002;0.000000e+000
4.647801e+002;0.000000e+000
4.667086e+002;0.000000e+000
4.686372e+002;0.000000e+000
4.705657e+002;0.000000e+000
4.724943e+002;0.000000e+000
4.744228e+002;0.000000e+000
4.763513e+002;0.000000e+000
4.782799e+002;0.000000e+000
4.802085e+002;0.000000e+000
4.821370e+002;0.000000e+000
4.840656e+002;0.000000e+000
4.859941e+002;0.000000e+000
4.879226e+002;0.000000e+000
4.898512e+002;0.000000e+000
4.917798e+002;0.000000e+000
4.937083e+002;0.000000e+000
4.956368e+002;0.000000e+000
4.975654e+002;0.000000e+000
4.994939e+002;0.000000e+000
5.014225e+002;0.000000e+000
5.033510e+002;0.000000e+000
5.052796e+002;0.000000e+000
5.072081e+002;0.000000e+000
5.091367e+002;0.000000e+000
5.110652e+002;0.000000e+000
5.129938e+002;0.000000e+000
5.149223e+002;0.000000e+000
5.168509e+002;0.000000e+000
5.187794e+002;0.000000e+000
5.207079e+002;0.000000e+000
5.226365e+002;0.000000e+000
5.245651e+002;0.000000e+000
5.264936e+002;0.000000e+000
5.284222e+002;0.000000e+000
5.303507e+002;0.000000e+000
5.322792e+002;0.000000e+000
5.342078e+002;0.000000e+000
5.361364e+002;0.000000e+000
5.380649e+002;0.000000e+000
5.399935e+002;0.000000e+000
5.419220e+002;0.000000e+000
5.438505e+002;0.000000e+000
5.457791e+002;0.000000e+000
5.477076e+002;0.000000e+000
5.496362e+002;0.000000e+000
5.515648e+002;0.000000e+000
5.534933e+002;0.000000e+000
5.554218e+002;0.000000e+000
5.573504e+002;0.000000e+000
5.592789e+002;0.000000e+000
5.612075e+002;0.000000e+000
5.631360e+002;0.000000e+000
5.650646e+002;0.000000e+000
5.669931e+002;0.000000e+000
5.689217e+002;0.000000e+000
5.708502e+002;0.000000e+000
5.727787e+002;0.000000e+000
5.747073e+002;0.000000e+000
5.766359e+002;0.000000e+000
5.785644e+002;0.000000e+000
5.804930e+002;0.000000e+000
5.824215e+002;0.000000e+000
5.843500e+002;0.000000e+000
5.862786e+002;0.000000e+000
5.882072e+002;0.000000e+000
5.901357e+002;0.000000e+000
5.920643e+002;0.000000e+000
5.939928e+002;0.000000e+000
5.959213e+002;0.000000e+000
5.978499e+002;0.000000e+000
5.997784e+002;1.871354e-001
6.017070e+002;1.861528e-001
6.036355e+002;1.911287e-001
6.055641e+002;1.966956e-001
6.074926e+002;1.950051e-001
6.094211e+002;1.877238e-001
6.113497e+002;1.856247e-001
6.132783e+002;1.870983e-001
6.152068e+002;1.864834e-001
6.171354e+002;1.840282e-001
6.190639e+002;1.832174e-001
6.209924e+002;1.850049e-001
6.229210e+002;1.883446e-001
6.248495e+002;1.907167e-001
6.267781e+002;1.892018e-001
6.287067e+002;1.840588e-001
6.306352e+002;1.831293e-001
6.325637e+002;1.856455e-001
6.344923e+002;1.793351e-001
6.364208e+002;1.727605e-001
6.383494e+002;1.755575e-001
6.402780e+002;1.764299e-001
6.422065e+002;1.758366e-001
6.441350e+002;1.760447e-001
6.460636e+002;1.765542e-001
6.479921e+002;1.764911e-001
6.499207e+002;1.723576e-001
6.518492e+002;1.705009e-001
6.537778e+002;1.718618e-001
6.557063e+002;1.730479e-001
6.576349e+002;1.732253e-001
6.595634e+002;1.735368e-001
6.614919e+002;1.735545e-001
6.634205e+002;1.735735e-001
6.653491e+002;1.740057e-001
6.672776e+002;1.734335e-001
6.692062e+002;1.718971e-001
6.711347e+002;1.697645e-001
6.730632e+002;1.678231e-001
6.749918e+002;1.657325e-001
6.769203e+002;1.633683e-001
6.788489e+002;1.626523e-001
6.807775e+002;1.627015e-001
6.827060e+002;1.628198e-001
6.846345e+002;1.626998e-001
6.865631e+002;1.622244e-001
6.884916e+002;1.620719e-001
6.904202e+002;1.619036e-001
6.923488e+002;1.602480e-001
6.942773e+002;1.580102e-001
6.962058e+002;1.577028e-001
6.981344e+002;1.577736e-001
7.000629e+002;1.571492e-001
7.019915e+002;1.569433e-001
7.039200e+002;1.565128e-001
7.058486e+002;1.545489e-001
7.077771e+002;1.526284e-001
7.097057e+002;1.512973e-001
7.116342e+002;1.496240e-001
7.135627e+002;1.477946e-001
7.154913e+002;1.460983e-001
7.174199e+002;1.448315e-001
7.193484e+002;1.439832e-001
7.212770e+002;1.432364e-001
7.232055e+002;1.418492e-001
7.251340e+002;1.409837e-001
7.270626e+002;1.411007e-001
7.289911e+002;1.413710e-001
7.309197e+002;1.418178e-001
7.328483e+002;1.412631e-001
7.347768e+002;1.399918e-001
7.367053e+002;1.402551e-001
7.386339e+002;1.407354e-001
7.405624e+002;1.408177e-001
7.424910e+002;1.406078e-001
7.444196e+002;1.396019e-001
7.463481e+002;1.385055e-001
7.482766e+002;1.372741e-001
7.502052e+002;1.360999e-001
7.521337e+002;1.349931e-001
7.540623e+002;1.337441e-001
7.559908e+002;1.329704e-001
7.579194e+002;1.316383e-001
7.598479e+002;1.301235e-001
7.617765e+002;1.297070e-001
7.637050e+002;1.284389e-001
7.656335e+002;1.269472e-001
7.675621e+002;1.258111e-001
7.694907e+002;1.247946e-001
7.714192e+002;1.239288e-001
7.733478e+002;1.231874e-001
7.752763e+002;1.223871e-001
7.772048e+002;1.213179e-001
7.791334e+002;1.195876e-001
7.810620e+002;1.179727e-001
7.829905e+002;1.170346e-001
7.849191e+002;1.161120e-001
7.868476e+002;1.157221e-001
7.887761e+002;1.152544e-001
7.907047e+002;1.148983e-001
7.926332e+002;1.143582e-001
7.945618e+002;1.129488e-001
7.964903e+002;1.119440e-001
7.984189e+002;1.114113e-001
8.003474e+002;1.107661e-001
8.022759e+002;1.109172e-001
8.042045e+002;1.109839e-001
8.061331e+002;1.101168e-001
8.080616e+002;1.095030e-001
8.099902e+002;1.094600e-001
8.119187e+002;1.096705e-001
8.138472e+002;1.096248e-001
8.157758e+002;1.101157e-001
8.177043e+002;1.104354e-001
8.196329e+002;1.101247e-001
8.215615e+002;1.105076e-001
8.234900e+002;1.114592e-001
8.254185e+002;1.117716e-001
8.273471e+002;1.114719e-001
8.292756e+002;1.111069e-001
8.312042e+002;1.101760e-001
8.331328e+002;1.086970e-001
8.350613e+002;1.074774e-001
8.369898e+002;1.063828e-001
8.389184e+002;1.053126e-001
8.408469e+002;1.041697e-001
8.427755e+002;1.031197e-001
8.447040e+002;1.022511e-001
8.466326e+002;1.016495e-001
8.485611e+002;1.009813e-001
8.504897e+002;1.001970e-001
8.524182e+002;9.935497e-002
8.543467e+002;9.839085e-002
8.562753e+002;9.807603e-002
8.582039e+002;9.760593e-002
8.601324e+002;9.670434e-002
8.620610e+002;9.650187e-002
8.639895e+002;9.654941e-002
8.659180e+002;9.667462e-002
8.678466e+002;9.694348e-002
8.697751e+002;9.683642e-002
8.717037e+002;9.665822e-002
8.736323e+002;9.660078e-002
8.755608e+002;9.632646e-002
8.774893e+002;9.629341e-002
8.794179e+002;9.680271e-002
8.813464e+002;9.724765e-002
8.832750e+002;9.741092e-002
8.852036e+002;9.756229e-002
8.871321e+002;9.781020e-002
8.890606e+002;9.780082e-002
8.909892e+002;9.694485e-002
8.929177e+002;9.634694e-002
8.948463e+002;9.607067e-002
8.967748e+002;9.588192e-002
8.987034e+002;9.568706e-002
9.006319e+002;9.545827e-002
9.025605e+002;9.554125e-002
9.044890e+002;9.566621e-002
9.064175e+002;9.554765e-002
9.083461e+002;9.538236e-002
9.102747e+002;9.543578e-002
9.122032e+002;9.566352e-002
9.141318e+002;9.582598e-002
9.160603e+002;9.594329e-002
9.179888e+002;9.628667e-002
9.199174e+002;9.650046e-002
9.218459e+002;9.658277e-002
9.237745e+002;9.686454e-002
9.257031e+002;9.691780e-002
9.276316e+002;9.701378e-002
9.295601e+002;9.730864e-002
9.314887e+002;9.738666e-002
9.334172e+002;9.720376e-002
9.353458e+002;9.699053e-002
9.372744e+002;9.671038e-002
9.392029e+002;9.649314e-002
9.411314e+002;9.604847e-002
9.430600e+002;9.571498e-002
9.449885e+002;9.559835e-002
9.469171e+002;9.559993e-002
9.488456e+002;9.580429e-002
9.507742e+002;9.620177e-002
9.527027e+002;9.635673e-002
9.546313e+002;9.620756e-002
9.565598e+002;9.636493e-002
9.584883e+002;9.703702e-002
9.604169e+002;9.741635e-002
9.623455e+002;9.755275e-002
9.642740e+002;9.766239e-002
9.662026e+002;9.801520e-002
9.681311e+002;9.856860e-002
9.700596e+002;9.901755e-002
9.719882e+002;9.921621e-002
9.739167e+002;9.926572e-002
9.758453e+002;9.942140e-002
9.777739e+002;9.978498e-002
9.797024e+002;1.003013e-001
9.816309e+002;1.008138e-001
9.835595e+002;1.013497e-001
9.854880e+002;1.023452e-001
9.874166e+002;1.037306e-001
9.893452e+002;1.051493e-001
9.912737e+002;1.060868e-001
9.932022e+002;1.065479e-001
9.951307e+002;1.070476e-001
9.970593e+002;1.073859e-001
9.989879e+002;1.076153e-001
1.000916e+003;1.082838e-001
1.002845e+003;1.093444e-001
1.004773e+003;1.109188e-001
1.006702e+003;1.126633e-001
1.008631e+003;1.139551e-001
1.010559e+003;1.150906e-001
1.012488e+003;1.165736e-001
1.014416e+003;1.182641e-001
1.016345e+003;1.197882e-001
1.018273e+003;1.209708e-001
1.020202e+003;1.218141e-001
1.022130e+003;1.232370e-001
1.024059e+003;1.253809e-001
1.025988e+003;1.279611e-001
1.027916e+003;1.309626e-001
1.029845e+003;1.340497e-001
1.031773e+003;1.369784e-001
1.033702e+003;1.400017e-001
1.035630e+003;1.426782e-001
1.037559e+003;1.449161e-001
1.039487e+003;1.472013e-001
1.041416e+003;1.489994e-001
1.043344e+003;1.502085e-001
1.045273e+003;1.507289e-001
1.047202e+003;1.496577e-001
1.049130e+003;1.474936e-001
1.051059e+003;1.452771e-001
1.052987e+003;1.431714e-001
1.054916e+003;1.412878e-001
1.056844e+003;1.404454e-001
1.058773e+003;1.404904e-001
1.060701e+003;1.407699e-001
1.062630e+003;1.409313e-001
1.064558e+003;1.411125e-001
1.066487e+003;1.415512e-001
1.068416e+003;1.421368e-001
1.070344e+003;1.425838e-001
1.072273e+003;1.427425e-001
1.074201e+003;1.427432e-001
1.076130e+003;1.427430e-001
1.078058e+003;1.431063e-001
1.079987e+003;1.431803e-001
1.081915e+003;1.428607e-001
1.083844e+003;1.426580e-001
1.085773e+003;1.423543e-001
1.087701e+003;1.423362e-001
1.089630e+003;1.422415e-001
1.091558e+003;1.416132e-001
1.093487e+003;1.411928e-001
1.095415e+003;1.407786e-001
1.097344e+003;1.408803e-001
1.099272e+003;1.409356e-001
1.101201e+003;1.403150e-001
1.103129e+003;1.395230e-001
1.105058e+003;1.388719e-001
1.106987e+003;1.380249e-001
1.108915e+003;1.369990e-001
1.110844e+003;1.361592e-001
1.112772e+003;1.353619e-001
1.114701e+003;1.346449e-001
1.116629e+003;1.342402e-001
1.118558e+003;1.343272e-001
1.120486e+003;1.342996e-001
1.122415e+003;1.340999e-001
1.124344e+003;1.341782e-001
1.126272e+003;1.344538e-001
1.128201e+003;1.346120e-001
1.130129e+003;1.348846e-001
1.132058e+003;1.351839e-001
1.133986e+003;1.354448e-001
1.135915e+003;1.362872e-001
1.137843e+003;1.377139e-001
1.139772e+003;1.388827e-001
1.141700e+003;1.399469e-001
1.143629e+003;1.408151e-001
1.145557e+003;1.418711e-001
1.147486e+003;1.432562e-001
1.149415e+003;1.443323e-001
1.151343e+003;1.450273e-001
1.153272e+003;1.456413e-001
1.155200e+003;1.458857e-001
1.157129e+003;1.457242e-001
1.159057e+003;1.456851e-001
1.160986e+003;1.462725e-001
1.162914e+003;1.467844e-001
1.164843e+003;1.474897e-001
1.166771e+003;1.484516e-001
1.168700e+003;1.496583e-001
1.170629e+003;1.509857e-001
1.172557e+003;1.517250e-001
1.174486e+003;1.520416e-001
1.176414e+003;1.524189e-001
1.178343e+003;1.531195e-001
1.180271e+003;1.537644e-001
1.182200e+003;1.543580e-001
1.184128e+003;1.552413e-001
1.186057e+003;1.563083e-001
1.187986e+003;1.572360e-001
1.189914e+003;1.577292e-001
1.191843e+003;1.585224e-001
1.193771e+003;1.596207e-001
1.195700e+003;1.604595e-001
1.197628e+003;1.609964e-001
1.199557e+003;1.618668e-001
1.201485e+003;1.628046e-001
1.203414e+003;1.633697e-001
1.205343e+003;1.640382e-001
1.207271e+003;1.650088e-001
1.209200e+003;1.659555e-001
1.211128e+003;1.669612e-001
1.213057e+003;1.680322e-001
1.214985e+003;1.689751e-001
1.216914e+003;1.698441e-001
1.218842e+003;1.703980e-001
1.220771e+003;1.710716e-001
1.222699e+003;1.715847e-001
1.224628e+003;1.715236e-001
1.226557e+003;1.716911e-001
1.228485e+003;1.719648e-001
1.230414e+003;1.720519e-001
1.232342e+003;1.718664e-001
1.234271e+003;1.714766e-001
1.236199e+003;1.706177e-001
1.238128e+003;1.697517e-001
1.240056e+003;1.687831e-001
1.241985e+003;1.679748e-001
1.243913e+003;1.672845e-001
1.245842e+003;1.666084e-001
1.247771e+003;1.657113e-001
1.249699e+003;1.645649e-001
1.251628e+003;1.638990e-001
1.253556e+003;1.632864e-001
1.255485e+003;1.623553e-001
1.257413e+003;1.612179e-001
1.259342e+003;1.601225e-001
1.261270e+003;1.586747e-001
1.263199e+003;1.570126e-001
1.265127e+003;1.555185e-001
1.267056e+003;1.544377e-001
1.268985e+003;1.536369e-001
1.270913e+003;1.529868e-001
1.272842e+003;1.526058e-001
1.274770e+003;1.525613e-001
1.276699e+003;1.524956e-001
1.278627e+003;1.525313e-001
1.280556e+003;1.524067e-001
1.282484e+003;1.519493e-001
1.284413e+003;1.510977e-001
1.286342e+003;1.499134e-001
1.288270e+003;1.490205e-001
1.290199e+003;1.483205e-001
1.292127e+003;1.477595e-001
1.294056e+003;1.472291e-001
1.295984e+003;1.465632e-001
1.297913e+003;1.456608e-001
1.299841e+003;1.446927e-001
1.301770e+003;1.437588e-001
1.303698e+003;1.430763e-001
1.305627e+003;1.424930e-001
1.307556e+003;1.422885e-001
1.309484e+003;1.424753e-001
1.311413e+003;1.425753e-001
1.313341e+003;1.428262e-001
1.315270e+003;1.434271e-001
1.317198e+003;1.441168e-001
1.319127e+003;1.447724e-001
1.321055e+003;1.453933e-001
1.322984e+003;1.456921e-001
1.324912e+003;1.456365e-001
1.326841e+003;1.456621e-001
1.328770e+003;1.453336e-001
1.330698e+003;1.445716e-001
1.332627e+003;1.439145e-001
1.334555e+003;1.429771e-001
1.336484e+003;1.416681e-001
1.338412e+003;1.403725e-001
1.340341e+003;1.391024e-001
1.342269e+003;1.380006e-001
1.344198e+003;1.369504e-001
1.346126e+003;1.360330e-001
1.348055e+003;1.352907e-001
1.349984e+003;1.344066e-001
1.351912e+003;1.336912e-001
1.353841e+003;1.332297e-001
1.355769e+003;1.328199e-001
1.357698e+003;1.329056e-001
1.359626e+003;1.331797e-001
1.361555e+003;1.335695e-001
1.363483e+003;1.343330e-001
1.365412e+003;1.355237e-001
1.367341e+003;1.367221e-001
1.369269e+003;1.374734e-001
1.371198e+003;1.378304e-001
1.373126e+003;1.380137e-001
1.375055e+003;1.382685e-001
1.376983e+003;1.389184e-001
1.378912e+003;1.397173e-001
1.380840e+003;1.407679e-001
1.382769e+003;1.420388e-001
1.384698e+003;1.428554e-001
1.386626e+003;1.430907e-001
1.388555e+003;1.433562e-001
1.390483e+003;1.433007e-001
1.392412e+003;1.426110e-001
1.394340e+003;1.419425e-001
1.396269e+003;1.416935e-001
1.398197e+003;1.416300e-001
1.400126e+003;1.416746e-001
1.402054e+003;1.417498e-001
1.403983e+003;1.416568e-001
1.405911e+003;1.417061e-001
1.407840e+003;1.417794e-001
1.409769e+003;1.416911e-001
1.411697e+003;1.418815e-001
1.413626e+003;1.421655e-001
1.415554e+003;1.420709e-001
1.417483e+003;1.417083e-001
1.419411e+003;1.417073e-001
1.421340e+003;1.425959e-001
1.423268e+003;1.435920e-001
1.425197e+003;1.444386e-001
1.427125e+003;1.455406e-001
1.429054e+003;1.467530e-001
1.430983e+003;1.481646e-001
1.432911e+003;1.499286e-001
1.434840e+003;1.516224e-001
1.436768e+003;1.533789e-001
1.438697e+003;1.557574e-001
1.440625e+003;1.574709e-001
1.442554e+003;1.580971e-001
1.444482e+003;1.583686e-001
1.446411e+003;1.587957e-001
1.448340e+003;1.592015e-001
1.450268e+003;1.595041e-001
1.452197e+003;1.598465e-001
1.454125e+003;1.602446e-001
1.456054e+003;1.599468e-001
1.457982e+003;1.598597e-001
1.459911e+003;1.599202e-001
1.461839e+003;1.591837e-001
1.463768e+003;1.578526e-001
1.465697e+003;1.568439e-001
1.467625e+003;1.565155e-001
1.469554e+003;1.560549e-001
1.471482e+003;1.552227e-001
1.473411e+003;1.550101e-001
1.475339e+003;1.557799e-001
1.477268e+003;1.570453e-001
1.479196e+003;1.591453e-001
1.481125e+003;1.617250e-001
1.483053e+003;1.649749e-001
1.484982e+003;1.688823e-001
1.486911e+003;1.733214e-001
1.488839e+003;1.782447e-001
1.490768e+003;1.839896e-001
1.492696e+003;1.900302e-001
1.494625e+003;1.950720e-001
1.496553e+003;1.997760e-001
1.498482e+003;2.044233e-001
1.500410e+003;2.082226e-001
1.502339e+003;2.110327e-001
1.504267e+003;2.127299e-001
1.506196e+003;2.139106e-001
1.508125e+003;2.161881e-001
1.510053e+003;2.185661e-001
1.511982e+003;2.197737e-001
1.513910e+003;2.203102e-001
1.515839e+003;2.194803e-001
1.517767e+003;2.170555e-001
1.519696e+003;2.135971e-001
1.521624e+003;2.102866e-001
1.523553e+003;2.080089e-001
1.525481e+003;2.056292e-001
1.527410e+003;2.034066e-001
1.529339e+003;2.013080e-001
1.531267e+003;1.990098e-001
1.533196e+003;1.961647e-001
1.535124e+003;1.935714e-001
1.537053e+003;1.905588e-001
1.538981e+003;1.868189e-001
1.540910e+003;1.841382e-001
1.542838e+003;1.821643e-001
1.544767e+003;1.794065e-001
1.546695e+003;1.762279e-001
1.548624e+003;1.729753e-001
1.550553e+003;1.694850e-001
1.552481e+003;1.657985e-001
1.554410e+003;1.620131e-001
1.556338e+003;1.583529e-001
1.558267e+003;1.542401e-001
1.560195e+003;1.512918e-001
1.562124e+003;1.494474e-001
1.564052e+003;1.469061e-001
1.565981e+003;1.445173e-001
1.567910e+003;1.424619e-001
1.569838e+003;1.405900e-001
1.571767e+003;1.395967e-001
1.573695e+003;1.388034e-001
1.575624e+003;1.379400e-001
1.577552e+003;1.384365e-001
1.579481e+003;1.394962e-001
1.581409e+003;1.402809e-001
1.583338e+003;1.413107e-001
1.585266e+003;1.428805e-001
1.587195e+003;1.448165e-001
1.589124e+003;1.469454e-001
1.591052e+003;1.494057e-001
1.592981e+003;1.519474e-001
1.594909e+003;1.546998e-001
1.596838e+003;1.577971e-001
1.598766e+003;1.612246e-001
1.600695e+003;1.650392e-001
1.602623e+003;1.694632e-001
1.604552e+003;1.745247e-001
1.606480e+003;1.798862e-001
1.608409e+003;1.854756e-001
1.610338e+003;1.909763e-001
1.612266e+003;1.963172e-001
1.614195e+003;2.012950e-001
1.616123e+003;2.055552e-001
1.618052e+003;2.102565e-001
1.619980e+003;2.152957e-001
1.621909e+003;2.196853e-001
1.623837e+003;2.240673e-001
1.625766e+003;2.285931e-001
1.627694e+003;2.326047e-001
1.629623e+003;2.365037e-001
1.631552e+003;2.396307e-001
1.633480e+003;2.411087e-001
1.635409e+003;2.420311e-001
1.637337e+003;2.434136e-001
1.639266e+003;2.443151e-001
1.641194e+003;2.441576e-001
1.643123e+003;2.430055e-001
1.645051e+003;2.408756e-001
1.646980e+003;2.384070e-001
1.648909e+003;2.360445e-001
1.650837e+003;2.323035e-001
1.652766e+003;2.273868e-001
1.654694e+003;2.239018e-001
1.656623e+003;2.208374e-001
1.658551e+003;2.166200e-001
1.660480e+003;2.118104e-001
1.662408e+003;2.065666e-001
1.664337e+003;2.017606e-001
1.666266e+003;1.970559e-001
1.668194e+003;1.914435e-001
1.670123e+003;1.857658e-001
1.672051e+003;1.806420e-001
1.673980e+003;1.755518e-001
1.675908e+003;1.707102e-001
1.677837e+003;1.661265e-001
1.679765e+003;1.610205e-001
1.681694e+003;1.553810e-001
1.683622e+003;1.492340e-001
1.685551e+003;1.443297e-001
1.687479e+003;1.404595e-001
1.689408e+003;1.359039e-001
1.691337e+003;1.309168e-001
1.693265e+003;1.255820e-001
1.695194e+003;1.196154e-001
1.697122e+003;1.142313e-001
1.699051e+003;1.086823e-001
1.700979e+003;1.034210e-001
1.702908e+003;9.941370e-002
1.704836e+003;9.494428e-002
1.706765e+003;9.066088e-002
1.708693e+003;8.673296e-002
1.710622e+003;8.329122e-002
1.712551e+003;7.990580e-002
1.714479e+003;7.669401e-002
1.716408e+003;7.386240e-002
1.718336e+003;7.199828e-002
1.720265e+003;7.062902e-002
1.722193e+003;6.901187e-002
1.724122e+003;6.736579e-002
1.726050e+003;6.594685e-002
1.727979e+003;6.447772e-002
1.729908e+003;6.281435e-002
1.731836e+003;6.061849e-002
1.733765e+003;5.862878e-002
1.735693e+003;5.793212e-002
1.737622e+003;5.682968e-002
1.739550e+003;5.499608e-002
1.741479e+003;5.366124e-002
1.743407e+003;5.242521e-002
1.745336e+003;5.098528e-002
1.747265e+003;4.946644e-002
1.749193e+003;4.803827e-002
1.751122e+003;4.677989e-002
1.753050e+003;4.589590e-002
1.754979e+003;4.490943e-002
1.756907e+003;4.397266e-002
1.758836e+003;4.314069e-002
1.760764e+003;4.221427e-002
1.762693e+003;4.138417e-002
1.764621e+003;4.089664e-002
1.766550e+003;4.033744e-002
1.768479e+003;3.994360e-002
1.770407e+003;3.913537e-002
1.772336e+003;3.826180e-002
1.774264e+003;3.823054e-002
1.776193e+003;3.821582e-002
1.778121e+003;3.794511e-002
1.780050e+003;3.753132e-002
1.781978e+003;3.726181e-002
1.783907e+003;3.711970e-002
1.785835e+003;3.692792e-002
1.787764e+003;3.681188e-002
1.789693e+003;3.652594e-002
1.791621e+003;3.596165e-002
1.793550e+003;3.570250e-002
1.795478e+003;3.587567e-002
1.797407e+003;3.562941e-002
1.799335e+003;3.516834e-002
1.801264e+003;3.491411e-002
1.803192e+003;3.498377e-002
1.805121e+003;3.500439e-002
1.807049e+003;3.485415e-002
1.808978e+003;3.465177e-002
1.810907e+003;3.449139e-002
1.812835e+003;3.424925e-002
1.814764e+003;3.399222e-002
1.816692e+003;3.381213e-002
1.818621e+003;3.376826e-002
1.820549e+003;3.362152e-002
1.822478e+003;3.350214e-002
1.824406e+003;3.340566e-002
1.826335e+003;3.334733e-002
1.828264e+003;3.321194e-002
1.830192e+003;3.313147e-002
1.832121e+003;3.289330e-002
1.834049e+003;3.264529e-002
1.835978e+003;3.268205e-002
1.837906e+003;3.294687e-002
1.839835e+003;3.295070e-002
1.841763e+003;3.248875e-002
1.843692e+003;3.186656e-002
1.845620e+003;3.185429e-002
1.847549e+003;3.215940e-002
1.849478e+003;3.217217e-002
1.851406e+003;3.195971e-002
1.853335e+003;3.192333e-002
1.855263e+003;3.189295e-002
1.857192e+003;3.182139e-002
1.859120e+003;3.181294e-002
1.861049e+003;3.177821e-002
1.862977e+003;3.179796e-002
1.864906e+003;3.183689e-002
1.866834e+003;3.159231e-002
1.868763e+003;3.130195e-002
1.870692e+003;3.137004e-002
1.872620e+003;3.153251e-002
1.874549e+003;3.155400e-002
1.876477e+003;3.161205e-002
1.878406e+003;3.149418e-002
1.880334e+003;3.116295e-002
1.882263e+003;3.095620e-002
1.884191e+003;3.095606e-002
1.886120e+003;3.109574e-002
1.888048e+003;3.119242e-002
1.889977e+003;3.113603e-002
1.891906e+003;3.116935e-002
1.893834e+003;3.113134e-002
1.895763e+003;3.116821e-002
1.897691e+003;3.112945e-002
1.899620e+003;3.103858e-002
1.901548e+003;3.096734e-002
1.903477e+003;3.097004e-002
1.905405e+003;3.112546e-002
1.907334e+003;3.108972e-002
1.909262e+003;3.073280e-002
1.911191e+003;3.055353e-002
1.913120e+003;3.059626e-002
1.915048e+003;3.064956e-002
1.916977e+003;3.052431e-002
1.918905e+003;3.047522e-002
1.920834e+003;3.059519e-002
1.922762e+003;3.073590e-002
1.924691e+003;3.071947e-002
1.926619e+003;3.063000e-002
1.928548e+003;3.052399e-002
1.930477e+003;3.064927e-002
1.932405e+003;3.080113e-002
1.934334e+003;3.059406e-002
1.936262e+003;3.043104e-002
1.938191e+003;3.043815e-002
1.940119e+003;3.036797e-002
1.942048e+003;3.032661e-002
1.943976e+003;3.041900e-002
1.945905e+003;3.044558e-002
1.947833e+003;3.056725e-002
1.949762e+003;3.076062e-002
1.951691e+003;3.070108e-002
1.953619e+003;3.057930e-002
1.955548e+003;3.077819e-002
1.957476e+003;3.085086e-002
1.959405e+003;3.093154e-002
1.961333e+003;3.095649e-002
1.963262e+003;3.077907e-002
1.965190e+003;3.078100e-002
1.967119e+003;3.073988e-002
1.969047e+003;3.063402e-002
1.970976e+003;3.083332e-002
1.972905e+003;3.108944e-002
1.974833e+003;3.093076e-002
1.976762e+003;3.088398e-002
1.978690e+003;3.091005e-002
1.980619e+003;3.089216e-002
1.982547e+003;3.097339e-002
1.984476e+003;3.113571e-002
1.986404e+003;3.128724e-002
1.988333e+003;3.122155e-002
1.990261e+003;3.107706e-002
1.992190e+003;3.100335e-002
1.994119e+003;3.106702e-002
1.996047e+003;3.103054e-002
1.997976e+003;3.101502e-002
1.999904e+003;3.099887e-002
2.001833e+003;3.108898e-002
2.003761e+003;3.122151e-002
2.005690e+003;3.124277e-002
2.007618e+003;3.116957e-002
2.009547e+003;3.112340e-002
2.011476e+003;3.129643e-002
2.013404e+003;3.141670e-002
2.015333e+003;3.139903e-002
2.017261e+003;3.131049e-002
2.019190e+003;3.126360e-002
2.021118e+003;3.139166e-002
2.023047e+003;3.152910e-002
2.024975e+003;3.168724e-002
2.026904e+003;3.166283e-002
2.028833e+003;3.166529e-002
2.030761e+003;3.168561e-002
2.032690e+003;3.172039e-002
2.034618e+003;3.172923e-002
2.036547e+003;3.158076e-002
2.038475e+003;3.149949e-002
2.040404e+003;3.151306e-002
2.042332e+003;3.165631e-002
2.044261e+003;3.165791e-002
2.046189e+003;3.160132e-002
2.048118e+003;3.160713e-002
2.050047e+003;3.159459e-002
2.051975e+003;3.170521e-002
2.053904e+003;3.188596e-002
2.055832e+003;3.186513e-002
2.057761e+003;3.178584e-002
2.059689e+003;3.181279e-002
2.061618e+003;3.180588e-002
2.063546e+003;3.172456e-002
2.065475e+003;3.165702e-002
2.067404e+003;3.171030e-002
2.069332e+003;3.170571e-002
2.071260e+003;3.165413e-002
2.073189e+003;3.169936e-002
2.075118e+003;3.174609e-002
2.077046e+003;3.194195e-002
2.078975e+003;3.196876e-002
2.080903e+003;3.187747e-002
2.082832e+003;3.180088e-002
2.084760e+003;3.178053e-002
2.086689e+003;3.189009e-002
2.088617e+003;3.199797e-002
2.090546e+003;3.207741e-002
2.092475e+003;3.199833e-002
2.094403e+003;3.179697e-002
2.096332e+003;3.189862e-002
2.098260e+003;3.202961e-002
2.100189e+003;3.193874e-002
2.102117e+003;3.182003e-002
2.104046e+003;3.174203e-002
2.105974e+003;3.175041e-002
2.107903e+003;3.168596e-002
2.109832e+003;3.162256e-002
2.111760e+003;3.156561e-002
2.113688e+003;3.158304e-002
2.115617e+003;3.182245e-002
2.117546e+003;3.195963e-002
2.119474e+003;3.175369e-002
2.121403e+003;3.166001e-002
2.123331e+003;3.163471e-002
2.125260e+003;3.166679e-002
2.127188e+003;3.182734e-002
2.129117e+003;3.184488e-002
2.131045e+003;3.189869e-002
2.132974e+003;3.174410e-002
2.134903e+003;3.158953e-002
2.136831e+003;3.169612e-002
2.138760e+003;3.170175e-002
2.140688e+003;3.166190e-002
2.142617e+003;3.156483e-002
2.144545e+003;3.156501e-002
2.146474e+003;3.166219e-002
2.148402e+003;3.158806e-002
2.150331e+003;3.143006e-002
2.152260e+003;3.157552e-002
2.154188e+003;3.168197e-002
2.156117e+003;3.168236e-002
2.158045e+003;3.163079e-002
2.159974e+003;3.157891e-002
2.161902e+003;3.150479e-002
2.163831e+003;3.148068e-002
2.165759e+003;3.149304e-002
2.167688e+003;3.151167e-002
2.169616e+003;3.154694e-002
2.171545e+003;3.160200e-002
2.173474e+003;3.167897e-002
2.175402e+003;3.162958e-002
2.177331e+003;3.161226e-002
2.179259e+003;3.166108e-002
2.181188e+003;3.171344e-002
2.183116e+003;3.170268e-002
2.185045e+003;3.170318e-002
2.186973e+003;3.177793e-002
2.188902e+003;3.173258e-002
2.190831e+003;3.160677e-002
2.192759e+003;3.143732e-002
2.194688e+003;3.139903e-002
2.196616e+003;3.161486e-002
2.198545e+003;3.154940e-002
2.200473e+003;3.148620e-002
2.202402e+003;3.155372e-002
2.204330e+003;3.153800e-002
2.206259e+003;3.155101e-002
2.208188e+003;3.162744e-002
2.210116e+003;3.158813e-002
2.212044e+003;3.156002e-002
2.213973e+003;3.156002e-002
2.215902e+003;3.145446e-002
2.217830e+003;3.134543e-002
2.219759e+003;3.139173e-002
2.221687e+003;3.157349e-002
2.223616e+003;3.156323e-002
2.225544e+003;3.157381e-002
2.227473e+003;3.171373e-002
2.229401e+003;3.168710e-002
2.231330e+003;3.143020e-002
2.233259e+003;3.128510e-002
2.235187e+003;3.139027e-002
2.237116e+003;3.149097e-002
2.239044e+003;3.160160e-002
2.240973e+003;3.155197e-002
2.242901e+003;3.144879e-002
2.244830e+003;3.150134e-002
2.246758e+003;3.141898e-002
2.248687e+003;3.133660e-002
2.250615e+003;3.139804e-002
2.252544e+003;3.142550e-002
2.254473e+003;3.127859e-002
2.256401e+003;3.131163e-002
2.258330e+003;3.144765e-002
2.260258e+003;3.139398e-002
2.262187e+003;3.133977e-002
2.264115e+003;3.139921e-002
2.266044e+003;3.150262e-002
2.267972e+003;3.158899e-002
2.269901e+003;3.162438e-002
2.271830e+003;3.140619e-002
2.273758e+003;3.137153e-002
2.275687e+003;3.160930e-002
2.277615e+003;3.155094e-002
2.279544e+003;3.157509e-002
2.281472e+003;3.171448e-002
2.283401e+003;3.163991e-002
2.285329e+003;3.145442e-002
2.287258e+003;3.148029e-002
2.289187e+003;3.160745e-002
2.291115e+003;3.177347e-002
2.293043e+003;3.186945e-002
2.294972e+003;3.179073e-002
2.296901e+003;3.168995e-002
2.298829e+003;3.148695e-002
2.300758e+003;3.162367e-002
2.302686e+003;3.187747e-002
2.304615e+003;3.169726e-002
2.306543e+003;3.160873e-002
2.308472e+003;3.186506e-002
2.310400e+003;3.207320e-002
2.312329e+003;3.199626e-002
2.314258e+003;3.197172e-002
2.316186e+003;3.194601e-002
2.318115e+003;3.167541e-002
2.320043e+003;3.155974e-002
2.321972e+003;3.162188e-002
2.323900e+003;3.153020e-002
2.325829e+003;3.158218e-002
2.327757e+003;3.172706e-002
2.329686e+003;3.157135e-002
2.331615e+003;3.158307e-002
2.333543e+003;3.170236e-002
2.335472e+003;3.176021e-002
2.337400e+003;3.185850e-002
2.339329e+003;3.180737e-002
2.341257e+003;3.162972e-002
2.343186e+003;3.163599e-002
2.345114e+003;3.204481e-002
2.347043e+003;3.254325e-002
2.348971e+003;3.270794e-002
2.350900e+003;3.256081e-002
2.352829e+003;3.230954e-002
2.354757e+003;3.215519e-002
2.356686e+003;3.226963e-002
2.358614e+003;3.254135e-002
2.360543e+003;3.246372e-002
2.362471e+003;3.227748e-002
2.364400e+003;3.222781e-002
2.366328e+003;3.234041e-002
2.368257e+003;3.260932e-002
2.370186e+003;3.306385e-002
2.372114e+003;3.332004e-002
2.374042e+003;3.337539e-002
2.375971e+003;3.337807e-002
2.377900e+003;3.357849e-002
2.379828e+003;3.398187e-002
2.381757e+003;3.424777e-002
2.383685e+003;3.431027e-002
2.385614e+003;3.433960e-002
2.387542e+003;3.437407e-002
2.389471e+003;3.451614e-002
2.391399e+003;3.486215e-002
2.393328e+003;3.489709e-002
2.395257e+003;3.463433e-002
2.397185e+003;3.455055e-002
2.399114e+003;3.473888e-002
2.401042e+003;3.509121e-002
2.402971e+003;3.521253e-002
2.404899e+003;3.508291e-002
2.406828e+003;3.505848e-002
2.408756e+003;3.537232e-002
2.410685e+003;3.550958e-002
2.412614e+003;3.559319e-002
2.414542e+003;3.589089e-002
2.416471e+003;3.613846e-002
2.418399e+003;3.621668e-002
2.420328e+003;3.629685e-002
2.422256e+003;3.634531e-002
2.424185e+003;3.639582e-002
2.426113e+003;3.657886e-002
2.428042e+003;3.666029e-002
2.429970e+003;3.662182e-002
2.431899e+003;3.671993e-002
2.433828e+003;3.690342e-002
2.435756e+003;3.698763e-002
2.437685e+003;3.710627e-002
2.439613e+003;3.738327e-002
2.441542e+003;3.743687e-002
2.443470e+003;3.742968e-002
2.445399e+003;3.764390e-002
2.447327e+003;3.787291e-002
2.449256e+003;3.777202e-002
2.451185e+003;3.778286e-002
2.453113e+003;3.832647e-002
2.455042e+003;3.859408e-002
2.456970e+003;3.860473e-002
2.458899e+003;3.862841e-002
2.460827e+003;3.867227e-002
2.462756e+003;3.861943e-002
2.464684e+003;3.885131e-002
2.466613e+003;3.908922e-002
2.468542e+003;3.917236e-002
2.470470e+003;3.920216e-002
2.472398e+003;3.931579e-002
2.474327e+003;3.946846e-002
2.476256e+003;3.961628e-002
2.478184e+003;3.978543e-002
2.480113e+003;3.978321e-002
2.482041e+003;3.973390e-002
2.483970e+003;3.986086e-002
2.485898e+003;4.019112e-002
2.487827e+003;4.030778e-002
2.489755e+003;4.034315e-002
2.491684e+003;4.052480e-002
2.493613e+003;4.083868e-002
2.495541e+003;4.105307e-002
2.497470e+003;4.105307e-002
2.499398e+003;4.121480e-002
2.501327e+003;4.140239e-002
2.503255e+003;4.132240e-002
2.505184e+003;4.113815e-002
2.507112e+003;4.117298e-002
2.509041e+003;4.128796e-002
2.510969e+003;4.126850e-002
2.512898e+003;4.144314e-002
2.514827e+003;4.160743e-002
2.516755e+003;4.177983e-002
2.518684e+003;4.192348e-002
2.520612e+003;4.210149e-002
2.522541e+003;4.223724e-002
2.524469e+003;4.235905e-002
2.526398e+003;4.252189e-002
2.528326e+003;4.248768e-002
2.530255e+003;4.239232e-002
2.532184e+003;4.237640e-002
2.534112e+003;4.245242e-002
2.536041e+003;4.241940e-002
2.537969e+003;4.261106e-002
2.539898e+003;4.301146e-002
2.541826e+003;4.315358e-002
2.543755e+003;4.283147e-002
2.545683e+003;4.275333e-002
2.547612e+003;4.302405e-002
2.549541e+003;4.323611e-002
2.551469e+003;4.334432e-002
2.553397e+003;4.350577e-002
2.555326e+003;4.360785e-002
2.557255e+003;4.380514e-002
2.559183e+003;4.388141e-002
2.561112e+003;4.366790e-002
2.563040e+003;4.373595e-002
2.564969e+003;4.418562e-002
2.566897e+003;4.427914e-002
2.568826e+003;4.430277e-002
2.570754e+003;4.453770e-002
2.572683e+003;4.452034e-002
2.574612e+003;4.454728e-002
2.576540e+003;4.476685e-002
2.578469e+003;4.494433e-002
2.580397e+003;4.517509e-002
2.582326e+003;4.529533e-002
2.584254e+003;4.525477e-002
2.586183e+003;4.535977e-002
2.588111e+003;4.565442e-002
2.590040e+003;4.569984e-002
2.591969e+003;4.558368e-002
2.593897e+003;4.553695e-002
2.595826e+003;4.551844e-002
2.597754e+003;4.587097e-002
2.599683e+003;4.606180e-002
2.601611e+003;4.614025e-002
2.603540e+003;4.635992e-002
2.605468e+003;4.647861e-002
2.607397e+003;4.657811e-002
2.609325e+003;4.659810e-002
2.611254e+003;4.669756e-002
2.613183e+003;4.687462e-002
2.615111e+003;4.688153e-002
2.617040e+003;4.682919e-002
2.618968e+003;4.691438e-002
2.620897e+003;4.701583e-002
2.622825e+003;4.705995e-002
2.624754e+003;4.724810e-002
2.626682e+003;4.728752e-002
2.628611e+003;4.725305e-002
2.630540e+003;4.751834e-002
2.632468e+003;4.766371e-002
2.634396e+003;4.743041e-002
2.636325e+003;4.752994e-002
2.638254e+003;4.775846e-002
2.640182e+003;4.780610e-002
2.642111e+003;4.787087e-002
2.644039e+003;4.809194e-002
2.645968e+003;4.809875e-002
2.647896e+003;4.805467e-002
2.649825e+003;4.811063e-002
2.651753e+003;4.829382e-002
2.653682e+003;4.829438e-002
2.655611e+003;4.814931e-002
2.657539e+003;4.828849e-002
2.659468e+003;4.848887e-002
2.661396e+003;4.877894e-002
2.663325e+003;4.904606e-002
2.665253e+003;4.912730e-002
2.667182e+003;4.901998e-002
2.669110e+003;4.916738e-002
2.671039e+003;4.916708e-002
2.672968e+003;4.918107e-002
2.674896e+003;4.959304e-002
2.676825e+003;4.978228e-002
2.678753e+003;4.960957e-002
2.680682e+003;4.941747e-002
2.682610e+003;4.952418e-002
2.684539e+003;5.013086e-002
2.686467e+003;5.054820e-002
2.688396e+003;5.069414e-002
2.690324e+003;5.065903e-002
2.692253e+003;5.067355e-002
2.694182e+003;5.082285e-002
2.696110e+003;5.094932e-002
2.698039e+003;5.101073e-002
2.699967e+003;5.107035e-002
2.701896e+003;5.129335e-002
2.703824e+003;5.164534e-002
2.705753e+003;5.182339e-002
2.707681e+003;5.177232e-002
2.709610e+003;5.168602e-002
2.711539e+003;5.168083e-002
2.713467e+003;5.193226e-002
2.715396e+003;5.232970e-002
2.717324e+003;5.265395e-002
2.719253e+003;5.279323e-002
2.721181e+003;5.308189e-002
2.723110e+003;5.335028e-002
2.725038e+003;5.336819e-002
2.726967e+003;5.343844e-002
2.728896e+003;5.367668e-002
2.730824e+003;5.409482e-002
2.732752e+003;5.427856e-002
2.734681e+003;5.444331e-002
2.736610e+003;5.471776e-002
2.738538e+003;5.469875e-002
2.740467e+003;5.481470e-002
2.742395e+003;5.499157e-002
2.744324e+003;5.523966e-002
2.746252e+003;5.540958e-002
2.748181e+003;5.540273e-002
2.750109e+003;5.556240e-002
2.752038e+003;5.591109e-002
2.753967e+003;5.629279e-002
2.755895e+003;5.649098e-002
2.757824e+003;5.655525e-002
2.759752e+003;5.650407e-002
2.761681e+003;5.666045e-002
2.763609e+003;5.712043e-002
2.765538e+003;5.742631e-002
2.767466e+003;5.743422e-002
2.769395e+003;5.739424e-002
2.771323e+003;5.742491e-002
2.773252e+003;5.766342e-002
2.775181e+003;5.801686e-002
2.777109e+003;5.833615e-002
2.779038e+003;5.851305e-002
2.780966e+003;5.861755e-002
2.782895e+003;5.867550e-002
2.784823e+003;5.885941e-002
2.786752e+003;5.900088e-002
2.788680e+003;5.911351e-002
2.790609e+003;5.936811e-002
2.792538e+003;5.974355e-002
2.794466e+003;6.016601e-002
2.796395e+003;6.032166e-002
2.798323e+003;6.027963e-002
2.800252e+003;6.036959e-002
2.802180e+003;6.066706e-002
2.804109e+003;6.095742e-002
2.806037e+003;6.150167e-002
2.807966e+003;6.166857e-002
2.809895e+003;6.152592e-002
2.811823e+003;6.201000e-002
2.813751e+003;6.242844e-002
2.815680e+003;6.249757e-002
2.817609e+003;6.265819e-002
2.819537e+003;6.291828e-002
2.821466e+003;6.313580e-002
2.823394e+003;6.340009e-002
2.825323e+003;6.382094e-002
2.827251e+003;6.402393e-002
2.829180e+003;6.417974e-002
2.831108e+003;6.447453e-002
2.833037e+003;6.524780e-002
2.834966e+003;6.600910e-002
2.836894e+003;6.631486e-002
2.838823e+003;6.656282e-002
2.840751e+003;6.712414e-002
2.842680e+003;6.755105e-002
2.844608e+003;6.803431e-002
2.846537e+003;6.906847e-002
2.848465e+003;6.975234e-002
2.850394e+003;7.013458e-002
2.852323e+003;7.086296e-002
2.854251e+003;7.177930e-002
2.856180e+003;7.258320e-002
2.858108e+003;7.328252e-002
2.860037e+003;7.381441e-002
2.861965e+003;7.459676e-002
2.863894e+003;7.556327e-002
2.865822e+003;7.641977e-002
2.867751e+003;7.732563e-002
2.869679e+003;7.824397e-002
2.871608e+003;7.879680e-002
2.873536e+003;7.922564e-002
2.875465e+003;7.964629e-002
2.877394e+003;7.960565e-002
2.879322e+003;7.936683e-002
2.881251e+003;7.915543e-002
2.883179e+003;7.893141e-002
2.885108e+003;7.890975e-002
2.887036e+003;7.912219e-002
2.888965e+003;7.915376e-002
2.890893e+003;7.902957e-002
2.892822e+003;7.939707e-002
2.894750e+003;7.960092e-002
2.896679e+003;7.959475e-002
2.898608e+003;7.984388e-002
2.900536e+003;8.007769e-002
2.902465e+003;8.029038e-002
2.904393e+003;8.062863e-002
2.906322e+003;8.121961e-002
2.908250e+003;8.204461e-002
2.910179e+003;8.279835e-002
2.912107e+003;8.319345e-002
2.914036e+003;8.353983e-002
2.915965e+003;8.408850e-002
2.917893e+003;8.470540e-002
2.919822e+003;8.519774e-002
2.921750e+003;8.602099e-002
2.923679e+003;8.686475e-002
2.925607e+003;8.740294e-002
2.927536e+003;8.819856e-002
2.929464e+003;8.864851e-002
2.931393e+003;8.862706e-002
2.933322e+003;8.875227e-002
2.935250e+003;8.926789e-002
2.937178e+003;8.964522e-002
2.939107e+003;8.926342e-002
2.941036e+003;8.903302e-002
2.942964e+003;8.918618e-002
2.944893e+003;8.884243e-002
2.946821e+003;8.875621e-002
2.948750e+003;8.885504e-002
2.950678e+003;8.854417e-002
2.952607e+003;8.839984e-002
2.954535e+003;8.824074e-002
2.956464e+003;8.843351e-002
2.958393e+003;8.894786e-002
2.960321e+003;8.898568e-002
2.962250e+003;8.874678e-002
2.964178e+003;8.848827e-002
2.966107e+003;8.798508e-002
2.968035e+003;8.729035e-002
2.969964e+003;8.687993e-002
2.971892e+003;8.691446e-002
2.973821e+003;8.671779e-002
2.975750e+003;8.604006e-002
2.977678e+003;8.517980e-002
2.979607e+003;8.444964e-002
2.981535e+003;8.396575e-002
2.983464e+003;8.323266e-002
2.985392e+003;8.205169e-002
2.987321e+003;8.113102e-002
2.989249e+003;8.068197e-002
2.991178e+003;8.015185e-002
2.993106e+003;7.943164e-002
2.995035e+003;7.877669e-002
2.996964e+003;7.840774e-002
2.998892e+003;7.827353e-002
3.000821e+003;7.847665e-002
3.002749e+003;7.867330e-002
3.004678e+003;7.837766e-002
3.006606e+003;7.810862e-002
3.008535e+003;7.821616e-002
3.010463e+003;7.847736e-002
3.012392e+003;7.856204e-002
3.014321e+003;7.817137e-002
3.016249e+003;7.765262e-002
3.018177e+003;7.790575e-002
3.020106e+003;7.844763e-002
3.022035e+003;7.885436e-002
3.023963e+003;7.926052e-002
3.025892e+003;7.955479e-002
3.027820e+003;7.966670e-002
3.029749e+003;7.960612e-002
3.031677e+003;7.943168e-002
3.033606e+003;7.979060e-002
3.035534e+003;8.052616e-002
3.037463e+003;8.104812e-002
3.039392e+003;8.128809e-002
3.041320e+003;8.138891e-002
3.043249e+003;8.121750e-002
3.045177e+003;8.127918e-002
3.047106e+003;8.183621e-002
3.049034e+003;8.227573e-002
3.050963e+003;8.254094e-002
3.052891e+003;8.275156e-002
3.054820e+003;8.264606e-002
3.056749e+003;8.287634e-002
3.058677e+003;8.324875e-002
3.060606e+003;8.324461e-002
3.062534e+003;8.331618e-002
3.064463e+003;8.316223e-002
3.066391e+003;8.287096e-002
3.068320e+003;8.298936e-002
3.070248e+003;8.277357e-002
3.072177e+003;8.257528e-002
3.074105e+003;8.262843e-002
3.076034e+003;8.224794e-002
3.077963e+003;8.205261e-002
3.079891e+003;8.245596e-002
3.081820e+003;8.272193e-002
3.083748e+003;8.249715e-002
3.085677e+003;8.229087e-002
3.087605e+003;8.206554e-002
3.089534e+003;8.183161e-002
3.091462e+003;8.162764e-002
3.093391e+003;8.148811e-002
3.095320e+003;8.098878e-002
3.097248e+003;8.064535e-002
3.099177e+003;8.068748e-002
3.101105e+003;8.083932e-002
3.103034e+003;8.115954e-002
3.104962e+003;8.149974e-002
3.106891e+003;8.112523e-002
3.108819e+003;8.076274e-002
3.110748e+003;8.100519e-002
3.112677e+003;8.108382e-002
3.114605e+003;8.096746e-002
3.116533e+003;8.104416e-002
3.118462e+003;8.119857e-002
3.120391e+003;8.136398e-002
3.122319e+003;8.145513e-002
3.124248e+003;8.172002e-002
3.126176e+003;8.192063e-002
3.128105e+003;8.183989e-002
3.130033e+003;8.209088e-002
3.131962e+003;8.256507e-002
3.133890e+003;8.284029e-002
3.135819e+003;8.324061e-002
3.137748e+003;8.368946e-002
3.139676e+003;8.369584e-002
3.141605e+003;8.394139e-002
3.143533e+003;8.450679e-002
3.145462e+003;8.466050e-002
3.147390e+003;8.495507e-002
3.149319e+003;8.570682e-002
3.151247e+003;8.616025e-002
3.153176e+003;8.586511e-002
3.155104e+003;8.626887e-002
3.157033e+003;8.719905e-002
3.158962e+003;8.775500e-002
3.160890e+003;8.835127e-002
3.162819e+003;8.864985e-002
3.164747e+003;8.903775e-002
3.166676e+003;8.969667e-002
3.168604e+003;9.049626e-002
3.170533e+003;9.093593e-002
3.172461e+003;9.080531e-002
3.174390e+003;9.105381e-002
3.176319e+003;9.154816e-002
3.178247e+003;9.222668e-002
3.180176e+003;9.291381e-002
3.182104e+003;9.318873e-002
3.184033e+003;9.319752e-002
3.185961e+003;9.323489e-002
3.187890e+003;9.372964e-002
3.189818e+003;9.435282e-002
3.191747e+003;9.521376e-002
3.193676e+003;9.554575e-002
3.195604e+003;9.536830e-002
3.197532e+003;9.525914e-002
3.199461e+003;9.565559e-002
3.201390e+003;9.622175e-002
3.203318e+003;9.654561e-002
3.205247e+003;9.664891e-002
3.207175e+003;9.663041e-002
3.209104e+003;9.689490e-002
3.211032e+003;9.724944e-002
3.212961e+003;9.740403e-002
3.214889e+003;9.753193e-002
3.216818e+003;9.769002e-002
3.218747e+003;9.796192e-002
3.220675e+003;9.788209e-002
3.222604e+003;9.773592e-002
3.224532e+003;9.792635e-002
3.226461e+003;9.831136e-002
3.228389e+003;9.875648e-002
3.230318e+003;9.922986e-002
3.232246e+003;9.934705e-002
3.234175e+003;9.907620e-002
3.236104e+003;9.902505e-002
3.238032e+003;9.956786e-002
3.239961e+003;1.003237e-001
3.241889e+003;1.008671e-001
3.243818e+003;1.013285e-001
3.245746e+003;1.014988e-001
3.247675e+003;1.013862e-001
3.249603e+003;1.019133e-001
3.251532e+003;1.024817e-001
3.253460e+003;1.025339e-001
3.255389e+003;1.028938e-001
3.257318e+003;1.031834e-001
3.259246e+003;1.033415e-001
3.261175e+003;1.037048e-001
3.263103e+003;1.043862e-001
3.265032e+003;1.048001e-001
3.266960e+003;1.050135e-001
3.268889e+003;1.050141e-001
3.270817e+003;1.049344e-001
3.272746e+003;1.052174e-001
3.274675e+003;1.052762e-001
3.276603e+003;1.050026e-001
3.278531e+003;1.054137e-001
3.280460e+003;1.058327e-001
3.282389e+003;1.057297e-001
3.284317e+003;1.056448e-001
3.286246e+003;1.057159e-001
3.288174e+003;1.057208e-001
3.290103e+003;1.054505e-001
3.292031e+003;1.054481e-001
3.293960e+003;1.054259e-001
3.295888e+003;1.050088e-001
3.297817e+003;1.049407e-001
3.299746e+003;1.051812e-001
3.301674e+003;1.046873e-001
3.303603e+003;1.040761e-001
3.305531e+003;1.038733e-001
3.307460e+003;1.037290e-001
3.309388e+003;1.034974e-001
3.311317e+003;1.031080e-001
3.313245e+003;1.029230e-001
3.315174e+003;1.025822e-001
3.317103e+003;1.023060e-001
3.319031e+003;1.015910e-001
3.320960e+003;1.006815e-001
3.322888e+003;9.988852e-002
3.324817e+003;9.988730e-002
3.326745e+003;9.994603e-002
3.328674e+003;9.975901e-002
3.330602e+003;9.974463e-002
3.332531e+003;9.908744e-002
3.334459e+003;9.867413e-002
3.336388e+003;9.846646e-002
3.338317e+003;9.773422e-002
3.340245e+003;9.668484e-002
3.342174e+003;9.569822e-002
3.344102e+003;9.543627e-002
3.346031e+003;9.553853e-002
3.347959e+003;9.525032e-002
3.349888e+003;9.487295e-002
3.351816e+003;9.441870e-002
3.353745e+003;9.346173e-002
3.355674e+003;9.231921e-002
3.357602e+003;9.174796e-002
3.359531e+003;9.177089e-002
3.361459e+003;9.146201e-002
3.363388e+003;9.063206e-002
3.365316e+003;8.968848e-002
3.367245e+003;8.935881e-002
3.369173e+003;8.894152e-002
3.371102e+003;8.765554e-002
3.373031e+003;8.686419e-002
3.374959e+003;8.694469e-002
3.376887e+003;8.647944e-002
3.378816e+003;8.546297e-002
3.380745e+003;8.445323e-002
3.382673e+003;8.405123e-002
3.384602e+003;8.384304e-002
3.386530e+003;8.342140e-002
3.388459e+003;8.329005e-002
3.390387e+003;8.284274e-002
3.392316e+003;8.210748e-002
3.394244e+003;8.163375e-002
3.396173e+003;8.149595e-002
3.398102e+003;8.090199e-002
3.400030e+003;7.993986e-002
3.401959e+003;7.946267e-002
3.403887e+003;7.885500e-002
3.405816e+003;7.825150e-002
3.407744e+003;7.826658e-002
3.409673e+003;7.780154e-002
3.411601e+003;7.683731e-002
3.413530e+003;7.602791e-002
3.415458e+003;7.568892e-002
3.417387e+003;7.577894e-002
3.419316e+003;7.510175e-002
3.421244e+003;7.365562e-002
3.423173e+003;7.296769e-002
3.425101e+003;7.265361e-002
3.427030e+003;7.222933e-002
3.428958e+003;7.175885e-002
3.430887e+003;7.117341e-002
3.432815e+003;7.059823e-002
3.434744e+003;7.000247e-002
3.436673e+003;6.903716e-002
3.438601e+003;6.802195e-002
3.440530e+003;6.747775e-002
3.442458e+003;6.727487e-002
3.444387e+003;6.678716e-002
3.446315e+003;6.609725e-002
3.448244e+003;6.550232e-002
3.450172e+003;6.503830e-002
3.452101e+003;6.443083e-002
3.454030e+003;6.386408e-002
3.455958e+003;6.369703e-002
3.457886e+003;6.376652e-002
3.459815e+003;6.355805e-002
3.461744e+003;6.329086e-002
3.463672e+003;6.299309e-002
3.465601e+003;6.219912e-002
3.467529e+003;6.149152e-002
3.469458e+003;6.105926e-002
3.471386e+003;6.049385e-002
3.473315e+003;5.999753e-002
3.475243e+003;6.032177e-002
3.477172e+003;6.024902e-002
3.479101e+003;5.948000e-002
3.481029e+003;5.876452e-002
3.482958e+003;5.840706e-002
3.484886e+003;5.764522e-002
3.486815e+003;5.723261e-002
3.488743e+003;5.736603e-002
3.490672e+003;5.727744e-002
3.492600e+003;5.648777e-002
3.494529e+003;5.590735e-002
3.496458e+003;5.558484e-002
3.498386e+003;5.529271e-002
3.500315e+003;5.502688e-002
3.502243e+003;5.459071e-002
3.504172e+003;5.399527e-002
3.506100e+003;5.372899e-002
3.508029e+003;5.345276e-002
3.509957e+003;5.294547e-002
3.511886e+003;5.246069e-002
3.513814e+003;5.229539e-002
3.515743e+003;5.154034e-002
3.517672e+003;5.107990e-002
3.519600e+003;5.108683e-002
3.521529e+003;5.010683e-002
3.523457e+003;4.894873e-002
3.525386e+003;4.858183e-002
3.527314e+003;4.885064e-002
3.529243e+003;4.895340e-002
3.531171e+003;4.846812e-002
3.533100e+003;4.823617e-002
3.535029e+003;4.811825e-002
3.536957e+003;4.776408e-002
3.538885e+003;4.727591e-002
3.540814e+003;4.679428e-002
3.542743e+003;4.658682e-002
3.544671e+003;4.639100e-002
3.546600e+003;4.611125e-002
3.548528e+003;4.549695e-002
3.550457e+003;4.470268e-002
3.552385e+003;4.464176e-002
3.554314e+003;4.454901e-002
3.556242e+003;4.405458e-002
3.558171e+003;4.351807e-002
3.560100e+003;4.328483e-002
3.562028e+003;4.305416e-002
3.563957e+003;4.216282e-002
3.565885e+003;4.142671e-002
3.567814e+003;4.107270e-002
3.569742e+003;4.055998e-002
3.571671e+003;4.023631e-002
3.573599e+003;4.010561e-002
3.575528e+003;3.981974e-002
3.577457e+003;3.965301e-002
3.579385e+003;3.929218e-002
3.581314e+003;3.842380e-002
3.583242e+003;3.767353e-002
3.585171e+003;3.707357e-002
3.587099e+003;3.669353e-002
3.589028e+003;3.645606e-002
3.590956e+003;3.619561e-002
3.592885e+003;3.627574e-002
3.594813e+003;3.588668e-002
3.596742e+003;3.527509e-002
3.598671e+003;3.455837e-002
3.600599e+003;3.389989e-002
3.602528e+003;3.367924e-002
3.604456e+003;3.312474e-002
3.606385e+003;3.214541e-002
3.608313e+003;3.139643e-002
3.610242e+003;3.141054e-002
3.612170e+003;3.166144e-002
3.614099e+003;3.179204e-002
3.616028e+003;3.110286e-002
3.617956e+003;3.047856e-002
3.619885e+003;2.990652e-002
3.621813e+003;2.900068e-002
3.623742e+003;2.806421e-002
3.625670e+003;2.717688e-002
3.627599e+003;2.631036e-002
3.629527e+003;2.587392e-002
3.631456e+003;2.582349e-002
3.633385e+003;2.544803e-002
3.635313e+003;2.518752e-002
3.637241e+003;2.519282e-002
3.639170e+003;2.501529e-002
3.641099e+003;2.409780e-002
3.643027e+003;2.304369e-002
3.644956e+003;2.215040e-002
3.646884e+003;2.157341e-002
3.648813e+003;2.104782e-002
3.650741e+003;2.102378e-002
3.652670e+003;2.092666e-002
3.654598e+003;1.980272e-002
3.656527e+003;1.911920e-002
3.658456e+003;1.927245e-002
3.660384e+003;1.911907e-002
3.662313e+003;1.852540e-002
3.664241e+003;1.750614e-002
3.666170e+003;1.675875e-002
3.668098e+003;1.636131e-002
3.670027e+003;1.581113e-002
3.671955e+003;1.595912e-002
3.673884e+003;1.552134e-002
3.675813e+003;1.469256e-002
3.677741e+003;1.494482e-002
3.679669e+003;1.491704e-002
3.681598e+003;1.482728e-002
3.683527e+003;1.437389e-002
3.685455e+003;1.366439e-002
3.687384e+003;1.283207e-002
3.689312e+003;1.233808e-002
3.691241e+003;1.240527e-002
3.693169e+003;1.261047e-002
3.695098e+003;1.288132e-002
3.697026e+003;1.291125e-002
3.698955e+003;1.240340e-002
3.700884e+003;1.212007e-002
3.702812e+003;1.257980e-002
3.704741e+003;1.254590e-002
3.706669e+003;1.213036e-002
3.708598e+003;1.223466e-002
3.710526e+003;1.149271e-002
3.712455e+003;1.118108e-002
3.714383e+003;1.152527e-002
3.716312e+003;1.137770e-002
3.718240e+003;1.130447e-002
3.720169e+003;1.114926e-002
3.722098e+003;1.095087e-002
3.724026e+003;1.133566e-002
3.725955e+003;1.143869e-002
3.727883e+003;1.151561e-002
3.729812e+003;1.161099e-002
3.731740e+003;1.110003e-002
3.733669e+003;1.077057e-002
3.735597e+003;1.084130e-002
3.737526e+003;1.099470e-002
3.739455e+003;1.121368e-002
3.741383e+003;1.101482e-002
3.743312e+003;9.700739e-003
3.745240e+003;9.899979e-003
3.747169e+003;1.025337e-002
3.749097e+003;9.521130e-003
3.751026e+003;9.168534e-003
3.752954e+003;9.450826e-003
3.754883e+003;1.052534e-002
3.756812e+003;1.116557e-002
3.758740e+003;1.132182e-002
3.760668e+003;1.079459e-002
3.762597e+003;1.026766e-002
3.764526e+003;1.026671e-002
3.766454e+003;1.079381e-002
3.768383e+003;1.100983e-002
3.770311e+003;1.082387e-002
3.772240e+003;1.068193e-002
3.774168e+003;1.054258e-002
3.776097e+003;1.021372e-002
3.778025e+003;1.066454e-002
3.779954e+003;1.122256e-002
3.781883e+003;1.122643e-002
3.783811e+003;1.083464e-002
3.785740e+003;1.081174e-002
3.787668e+003;1.109820e-002
3.789597e+003;1.115847e-002
3.791525e+003;1.082696e-002
3.793454e+003;1.088206e-002
3.795382e+003;1.096130e-002
3.797311e+003;1.122677e-002
3.799240e+003;1.124962e-002
3.801168e+003;1.067684e-002
3.803097e+003;1.059769e-002
3.805025e+003;1.013414e-002
3.806954e+003;9.730116e-003
3.808882e+003;1.091009e-002
3.810811e+003;1.165670e-002
3.812739e+003;1.091444e-002
3.814668e+003;9.749668e-003
3.816596e+003;1.032228e-002
3.818525e+003;1.099623e-002
3.820454e+003;1.064400e-002
3.822382e+003;1.120845e-002
3.824311e+003;1.145005e-002
3.826239e+003;1.106319e-002
3.828168e+003;1.076728e-002
3.830096e+003;1.021063e-002
3.832025e+003;1.043125e-002
3.833953e+003;1.090986e-002
3.835882e+003;1.043128e-002
3.837811e+003;9.810464e-003
3.839739e+003;1.022891e-002
3.841667e+003;1.118125e-002
3.843596e+003;1.163403e-002
3.845525e+003;1.126887e-002
3.847453e+003;1.148349e-002
3.849382e+003;1.151398e-002
3.851310e+003;1.032272e-002
3.853239e+003;9.013705e-003
3.855167e+003;9.425632e-003
3.857096e+003;1.077815e-002
3.859024e+003;1.118094e-002
3.860953e+003;1.073175e-002
3.862882e+003;1.060295e-002
3.864810e+003;1.069388e-002
3.866739e+003;1.100493e-002
3.868667e+003;1.067038e-002
3.870596e+003;1.089715e-002
3.872524e+003;1.125680e-002
3.874453e+003;1.107090e-002
3.876381e+003;1.166589e-002
3.878310e+003;1.210232e-002
3.880239e+003;1.209601e-002
3.882167e+003;1.233269e-002
3.884096e+003;1.213083e-002
3.886024e+003;1.165684e-002
3.887953e+003;1.179279e-002
3.889881e+003;1.153395e-002
3.891810e+003;1.161787e-002
3.893738e+003;1.196755e-002
3.895667e+003;1.206501e-002
3.897595e+003;1.180982e-002
3.899524e+003;1.146301e-002
3.901453e+003;1.146257e-002
3.903381e+003;1.158748e-002
3.905310e+003;1.188057e-002
3.907238e+003;1.216150e-002
3.909167e+003;1.225280e-002
3.911095e+003;1.182269e-002
3.913024e+003;1.133617e-002
3.914952e+003;1.123129e-002
3.916881e+003;1.140423e-002
3.918810e+003;1.191204e-002
3.920738e+003;1.199048e-002
3.922667e+003;1.183590e-002
3.924595e+003;1.188412e-002
3.926524e+003;1.189893e-002
3.928452e+003;1.166592e-002
3.930381e+003;1.155729e-002
3.932309e+003;1.195601e-002
3.934238e+003;1.257608e-002
3.936167e+003;1.280565e-002
3.938095e+003;1.236835e-002
3.940023e+003;1.132481e-002
3.941952e+003;1.111217e-002
3.943881e+003;1.194000e-002
3.945809e+003;1.194974e-002
3.947738e+003;1.165704e-002
3.949666e+003;1.250116e-002
3.951595e+003;1.321672e-002
3.953523e+003;1.282415e-002
3.955452e+003;1.226340e-002
3.957380e+003;1.234251e-002
3.959309e+003;1.224216e-002
3.961238e+003;1.186937e-002
3.963166e+003;1.164479e-002
3.965095e+003;1.159435e-002
3.967023e+003;1.177519e-002
3.968952e+003;1.224857e-002
3.970880e+003;1.221193e-002
3.972809e+003;1.210944e-002
3.974737e+003;1.229475e-002
3.976666e+003;1.177914e-002
3.978594e+003;1.095862e-002
3.980523e+003;1.129097e-002
3.982452e+003;1.224049e-002
3.984380e+003;1.244847e-002
3.986309e+003;1.206201e-002
3.988237e+003;1.194535e-002
3.990166e+003;1.185616e-002
3.992094e+003;1.168628e-002
3.994023e+003;1.165347e-002
3.995951e+003;1.199497e-002
3.997880e+003;1.226510e-002
3.999809e+003;1.200614e-002
4.001737e+003;0.000000e+000
