3.992094e+002;0.000000e+000
4.011380e+002;0.000000e+000
4.030665e+002;0.000000e+000
4.049951e+002;0.000000e+000
4.069236e+002;0.000000e+000
4.088522e+002;0.000000e+000
4.107807e+002;0.000000e+000
4.127093e+002;0.000000e+000
4.146378e+002;0.000000e+000
4.165664e+002;0.000000e+000
4.184949e+002;0.000000e+000
4.204235e+002;0.000000e+000
4.223520e+002;0.000000e+000
4.242806e+002;0.000000e+000
4.262091e+002;0.000000e+000
4.281377e+002;0.000000e+000
4.300662e+002;0.000000e+000
4.319948e+002;0.000000e+000
4.339233e+002;0.000000e+000
4.358519e+002;0.000000e+000
4.377804e+002;0.000000e+000
4.397090e+002;0.000000e+000
4.416375e+002;0.000000e+000
4.435660e+002;0.000000e+000
4.454946e+002;0.000000e+000
4.474232e+002;0.000000e+000
4.493517e+002;0.000000e+000
4.512802e+002;0.000000e+000
4.532088e+002;0.000000e+000
4.551373e+002;0.000000e+000
4.570659e+002;0.000000e+000
4.589944e+002;0.000000e+000
4.609230e+002;0.000000e+000
4.628515e+002;0.000000e+000
4.647801e+002;0.000000e+000
4.667086e+002;0.000000e+000
4.686372e+002;0.000000e+000
4.705657e+002;0.000000e+000
4.724943e+002;0.000000e+000
4.744228e+002;0.000000e+000
4.763513e+002;0.000000e+000
4.782799e+002;0.000000e+000
4.802085e+002;0.000000e+000
4.821370e+002;0.000000e+000
4.840656e+002;0.000000e+000
4.859941e+002;0.000000e+000
4.879226e+002;0.000000e+000
4.898512e+002;0.000000e+000
4.917798e+002;0.000000e+000
4.937083e+002;0.000000e+000
4.956368e+002;0.000000e+000
4.975654e+002;0.000000e+000
4.994939e+002;0.000000e+000
5.014225e+002;0.000000e+000
5.033510e+002;0.000000e+000
5.052796e+002;0.000000e+000
5.072081e+002;0.000000e+000
5.091367e+002;0.000000e+000
5.110652e+002;0.000000e+000
5.129938e+002;0.000000e+000
5.149223e+002;0.000000e+000
5.168509e+002;0.000000e+000
5.187794e+002;0.000000e+000
5.207079e+002;0.000000e+000
5.226365e+002;0.000000e+000
5.245651e+002;0.000000e+000
5.264936e+002;0.000000e+000
5.284222e+002;0.000000e+000
5.303507e+002;0.000000e+000
5.322792e+002;0.000000e+000
5.342078e+002;0.000000e+000
5.361364e+002;0.000000e+000
5.380649e+002;0.000000e+000
5.399935e+002;0.000000e+000
5.419220e+002;0.000000e+000
5.438505e+002;0.000000e+000
5.457791e+002;0.000000e+000
5.477076e+002;0.000000e+000
5.496362e+002;0.000000e+000
5.515648e+002;0.000000e+000
5.534933e+002;0.000000e+000
5.554218e+002;0.000000e+000
5.573504e+002;0.000000e+000
5.592789e+002;0.000000e+000
5.612075e+002;0.000000e+000
5.631360e+002;0.000000e+000
5.650646e+002;0.000000e+000
5.669931e+002;0.000000e+000
5.689217e+002;0.000000e+000
5.708502e+002;0.000000e+000
5.727787e+002;0.000000e+000
5.747073e+002;0.000000e+000
5.766359e+002;0.000000e+000
5.785644e+002;0.000000e+000
5.804930e+002;0.000000e+000
5.824215e+002;0.000000e+000
5.843500e+002;0.000000e+000
5.862786e+002;0.000000e+000
5.882072e+002;0.000000e+000
5.901357e+002;0.000000e+000
5.920643e+002;0.000000e+000
5.939928e+002;0.000000e+000
5.959213e+002;0.000000e+000
5.978499e+002;0.000000e+000
5.997784e+002;2.328173e-001
6.017070e+002;2.328682e-001
6.036355e+002;2.267374e-001
6.055641e+002;2.210246e-001
6.074926e+002;2.248952e-001
6.094211e+002;2.308753e-001
6.113497e+002;2.311062e-001
6.132783e+002;2.262899e-001
6.152068e+002;2.248003e-001
6.171354e+002;2.257343e-001
6.190639e+002;2.239497e-001
6.209924e+002;2.244404e-001
6.229210e+002;2.246884e-001
6.248495e+002;2.210484e-001
6.267781e+002;2.187154e-001
6.287067e+002;2.187543e-001
6.306352e+002;2.165421e-001
6.325637e+002;2.157209e-001
6.344923e+002;2.141760e-001
6.364208e+002;2.116322e-001
6.383494e+002;2.111475e-001
6.402780e+002;2.132814e-001
6.422065e+002;2.146758e-001
6.441350e+002;2.129438e-001
6.460636e+002;2.111378e-001
6.479921e+002;2.109564e-001
6.499207e+002;2.121210e-001
6.518492e+002;2.101260e-001
6.537778e+002;2.064555e-001
6.557063e+002;2.074671e-001
6.576349e+002;2.091552e-001
6.595634e+002;2.070921e-001
6.614919e+002;2.062748e-001
6.634205e+002;2.057144e-001
6.653491e+002;2.049063e-001
6.672776e+002;2.048751e-001
6.692062e+002;2.023585e-001
6.711347e+002;1.995358e-001
6.730632e+002;1.981829e-001
6.749918e+002;1.973261e-001
6.769203e+002;1.975470e-001
6.788489e+002;1.976904e-001
6.807775e+002;1.963789e-001
6.827060e+002;1.937889e-001
6.846345e+002;1.920398e-001
6.865631e+002;1.924300e-001
6.884916e+002;1.928003e-001
6.904202e+002;1.922117e-001
6.923488e+002;1.907435e-001
6.942773e+002;1.898005e-001
6.962058e+002;1.898592e-001
6.981344e+002;1.895102e-001
7.000629e+002;1.882323e-001
7.019915e+002;1.868930e-001
7.039200e+002;1.849221e-001
7.058486e+002;1.825066e-001
7.077771e+002;1.805486e-001
7.097057e+002;1.780735e-001
7.116342e+002;1.744957e-001
7.135627e+002;1.717685e-001
7.154913e+002;1.702158e-001
7.174199e+002;1.686430e-001
7.193484e+002;1.668435e-001
7.212770e+002;1.649137e-001
7.232055e+002;1.632621e-001
7.251340e+002;1.627456e-001
7.270626e+002;1.620822e-001
7.289911e+002;1.612643e-001
7.309197e+002;1.605738e-001
7.328483e+002;1.599061e-001
7.347768e+002;1.588091e-001
7.367053e+002;1.575186e-001
7.386339e+002;1.563888e-001
7.405624e+002;1.561476e-001
7.424910e+002;1.559613e-001
7.444196e+002;1.552827e-001
7.463481e+002;1.544948e-001
7.482766e+002;1.532468e-001
7.502052e+002;1.512207e-001
7.521337e+002;1.500841e-001
7.540623e+002;1.490271e-001
7.559908e+002;1.462630e-001
7.579194e+002;1.442913e-001
7.598479e+002;1.434143e-001
7.617765e+002;1.420581e-001
7.637050e+002;1.402373e-001
7.656335e+002;1.389002e-001
7.675621e+002;1.378164e-001
7.694907e+002;1.369435e-001
7.714192e+002;1.359806e-001
7.733478e+002;1.348079e-001
7.752763e+002;1.331171e-001
7.772048e+002;1.311854e-001
7.791334e+002;1.304965e-001
7.810620e+002;1.306895e-001
7.829905e+002;1.303739e-001
7.849191e+002;1.293551e-001
7.868476e+002;1.275962e-001
7.887761e+002;1.262227e-001
7.907047e+002;1.255675e-001
7.926332e+002;1.246338e-001
7.945618e+002;1.234795e-001
7.964903e+002;1.231064e-001
7.984189e+002;1.231488e-001
8.003474e+002;1.225748e-001
8.022759e+002;1.215935e-001
8.042045e+002;1.206891e-001
8.061331e+002;1.201931e-001
8.080616e+002;1.199678e-001
8.099902e+002;1.195242e-001
8.119187e+002;1.189344e-001
8.138472e+002;1.182964e-001
8.157758e+002;1.179185e-001
8.177043e+002;1.177214e-001
8.196329e+002;1.175764e-001
8.215615e+002;1.173550e-001
8.234900e+002;1.172296e-001
8.254185e+002;1.171906e-001
8.273471e+002;1.169618e-001
8.292756e+002;1.168563e-001
8.312042e+002;1.164120e-001
8.331328e+002;1.151868e-001
8.350613e+002;1.138129e-001
8.369898e+002;1.126845e-001
8.389184e+002;1.115795e-001
8.408469e+002;1.105477e-001
8.427755e+002;1.096606e-001
8.447040e+002;1.089153e-001
8.466326e+002;1.086552e-001
8.485611e+002;1.087851e-001
8.504897e+002;1.081014e-001
8.524182e+002;1.070956e-001
8.543467e+002;1.063202e-001
8.562753e+002;1.053222e-001
8.582039e+002;1.046912e-001
8.601324e+002;1.044466e-001
8.620610e+002;1.039174e-001
8.639895e+002;1.033464e-001
8.659180e+002;1.030933e-001
8.678466e+002;1.028567e-001
8.697751e+002;1.027320e-001
8.717037e+002;1.025421e-001
8.736323e+002;1.025291e-001
8.755608e+002;1.026981e-001
8.774893e+002;1.030569e-001
8.794179e+002;1.028708e-001
8.813464e+002;1.023193e-001
8.832750e+002;1.020337e-001
8.852036e+002;1.018490e-001
8.871321e+002;1.017193e-001
8.890606e+002;1.012614e-001
8.909892e+002;1.009984e-001
8.929177e+002;1.007532e-001
8.948463e+002;1.004651e-001
8.967748e+002;1.004265e-001
8.987034e+002;1.004219e-001
9.006319e+002;1.007985e-001
9.025605e+002;1.007689e-001
9.044890e+002;1.003252e-001
9.064175e+002;1.003557e-001
9.083461e+002;1.008313e-001
9.102747e+002;1.013401e-001
9.122032e+002;1.016622e-001
9.141318e+002;1.018119e-001
9.160603e+002;1.020697e-001
9.179888e+002;1.026523e-001
9.199174e+002;1.034054e-001
9.218459e+002;1.034859e-001
9.237745e+002;1.034645e-001
9.257031e+002;1.038947e-001
9.276316e+002;1.041881e-001
9.295601e+002;1.045268e-001
9.314887e+002;1.047581e-001
9.334172e+002;1.044265e-001
9.353458e+002;1.041101e-001
9.372744e+002;1.037971e-001
9.392029e+002;1.032647e-001
9.411314e+002;1.028085e-001
9.430600e+002;1.025491e-001
9.449885e+002;1.024206e-001
9.469171e+002;1.024598e-001
9.488456e+002;1.022702e-001
9.507742e+002;1.022065e-001
9.527027e+002;1.021508e-001
9.546313e+002;1.024435e-001
9.565598e+002;1.028416e-001
9.584883e+002;1.031282e-001
9.604169e+002;1.036594e-001
9.623455e+002;1.042881e-001
9.642740e+002;1.044625e-001
9.662026e+002;1.044546e-001
9.681311e+002;1.046732e-001
9.700596e+002;1.050334e-001
9.719882e+002;1.054343e-001
9.739167e+002;1.060528e-001
9.758453e+002;1.069190e-001
9.777739e+002;1.073547e-001
9.797024e+002;1.076542e-001
9.816309e+002;1.081304e-001
9.835595e+002;1.086367e-001
9.854880e+002;1.091948e-001
9.874166e+002;1.097316e-001
9.893452e+002;1.101027e-001
9.912737e+002;1.103423e-001
9.932022e+002;1.106401e-001
9.951307e+002;1.111529e-001
9.970593e+002;1.117830e-001
9.989879e+002;1.126311e-001
1.000916e+003;1.136388e-001
1.002845e+003;1.144203e-001
1.004773e+003;1.152021e-001
1.006702e+003;1.162327e-001
1.008631e+003;1.174853e-001
1.010559e+003;1.187812e-001
1.012488e+003;1.202804e-001
1.014416e+003;1.218326e-001
1.016345e+003;1.231484e-001
1.018273e+003;1.242250e-001
1.020202e+003;1.249466e-001
1.022130e+003;1.262134e-001
1.024059e+003;1.279624e-001
1.025988e+003;1.296352e-001
1.027916e+003;1.317769e-001
1.029845e+003;1.342263e-001
1.031773e+003;1.367491e-001
1.033702e+003;1.392748e-001
1.035630e+003;1.414045e-001
1.037559e+003;1.430417e-001
1.039487e+003;1.441497e-001
1.041416e+003;1.446480e-001
1.043344e+003;1.440937e-001
1.045273e+003;1.426759e-001
1.047202e+003;1.417148e-001
1.049130e+003;1.410507e-001
1.051059e+003;1.403442e-001
1.052987e+003;1.403516e-001
1.054916e+003;1.410504e-001
1.056844e+003;1.414745e-001
1.058773e+003;1.414147e-001
1.060701e+003;1.418068e-001
1.062630e+003;1.427880e-001
1.064558e+003;1.436304e-001
1.066487e+003;1.439216e-001
1.068416e+003;1.441147e-001
1.070344e+003;1.445459e-001
1.072273e+003;1.448313e-001
1.074201e+003;1.446954e-001
1.076130e+003;1.442486e-001
1.078058e+003;1.445079e-001
1.079987e+003;1.447290e-001
1.081915e+003;1.437443e-001
1.083844e+003;1.420497e-001
1.085773e+003;1.406809e-001
1.087701e+003;1.399588e-001
1.089630e+003;1.395606e-001
1.091558e+003;1.393256e-001
1.093487e+003;1.389339e-001
1.095415e+003;1.380844e-001
1.097344e+003;1.377881e-001
1.099272e+003;1.382135e-001
1.101201e+003;1.383306e-001
1.103129e+003;1.381552e-001
1.105058e+003;1.383704e-001
1.106987e+003;1.385120e-001
1.108915e+003;1.382410e-001
1.110844e+003;1.378187e-001
1.112772e+003;1.371699e-001
1.114701e+003;1.368837e-001
1.116629e+003;1.371898e-001
1.118558e+003;1.377864e-001
1.120486e+003;1.381724e-001
1.122415e+003;1.381047e-001
1.124344e+003;1.379743e-001
1.126272e+003;1.381879e-001
1.128201e+003;1.383828e-001
1.130129e+003;1.385269e-001
1.132058e+003;1.386771e-001
1.133986e+003;1.389689e-001
1.135915e+003;1.394081e-001
1.137843e+003;1.402569e-001
1.139772e+003;1.411738e-001
1.141700e+003;1.422898e-001
1.143629e+003;1.433909e-001
1.145557e+003;1.447726e-001
1.147486e+003;1.462931e-001
1.149415e+003;1.478051e-001
1.151343e+003;1.493441e-001
1.153272e+003;1.507541e-001
1.155200e+003;1.519316e-001
1.157129e+003;1.528524e-001
1.159057e+003;1.540052e-001
1.160986e+003;1.553705e-001
1.162914e+003;1.564566e-001
1.164843e+003;1.576440e-001
1.166771e+003;1.589320e-001
1.168700e+003;1.603029e-001
1.170629e+003;1.617664e-001
1.172557e+003;1.628490e-001
1.174486e+003;1.634179e-001
1.176414e+003;1.635651e-001
1.178343e+003;1.640140e-001
1.180271e+003;1.642279e-001
1.182200e+003;1.643171e-001
1.184128e+003;1.648667e-001
1.186057e+003;1.657718e-001
1.187986e+003;1.668581e-001
1.189914e+003;1.680468e-001
1.191843e+003;1.691802e-001
1.193771e+003;1.701668e-001
1.195700e+003;1.714474e-001
1.197628e+003;1.729265e-001
1.199557e+003;1.745894e-001
1.201485e+003;1.763341e-001
1.203414e+003;1.780962e-001
1.205343e+003;1.800686e-001
1.207271e+003;1.817501e-001
1.209200e+003;1.834374e-001
1.211128e+003;1.856250e-001
1.213057e+003;1.874515e-001
1.214985e+003;1.891033e-001
1.216914e+003;1.912178e-001
1.218842e+003;1.935043e-001
1.220771e+003;1.955987e-001
1.222699e+003;1.974919e-001
1.224628e+003;1.988236e-001
1.226557e+003;2.000207e-001
1.228485e+003;2.011637e-001
1.230414e+003;2.017069e-001
1.232342e+003;2.017628e-001
1.234271e+003;2.015255e-001
1.236199e+003;2.010162e-001
1.238128e+003;2.005091e-001
1.240056e+003;1.998096e-001
1.241985e+003;1.987991e-001
1.243913e+003;1.974745e-001
1.245842e+003;1.957521e-001
1.247771e+003;1.940716e-001
1.249699e+003;1.926745e-001
1.251628e+003;1.913330e-001
1.253556e+003;1.898875e-001
1.255485e+003;1.882384e-001
1.257413e+003;1.865881e-001
1.259342e+003;1.851084e-001
1.261270e+003;1.836004e-001
1.263199e+003;1.820564e-001
1.265127e+003;1.807426e-001
1.267056e+003;1.794422e-001
1.268985e+003;1.778120e-001
1.270913e+003;1.762577e-001
1.272842e+003;1.748604e-001
1.274770e+003;1.738212e-001
1.276699e+003;1.728087e-001
1.278627e+003;1.716851e-001
1.280556e+003;1.708145e-001
1.282484e+003;1.701970e-001
1.284413e+003;1.696505e-001
1.286342e+003;1.687680e-001
1.288270e+003;1.679367e-001
1.290199e+003;1.675005e-001
1.292127e+003;1.670330e-001
1.294056e+003;1.665256e-001
1.295984e+003;1.663840e-001
1.297913e+003;1.665631e-001
1.299841e+003;1.668258e-001
1.301770e+003;1.667260e-001
1.303698e+003;1.664427e-001
1.305627e+003;1.661907e-001
1.307556e+003;1.658190e-001
1.309484e+003;1.653072e-001
1.311413e+003;1.647516e-001
1.313341e+003;1.638911e-001
1.315270e+003;1.630628e-001
1.317198e+003;1.623874e-001
1.319127e+003;1.614850e-001
1.321055e+003;1.606750e-001
1.322984e+003;1.601907e-001
1.324912e+003;1.597596e-001
1.326841e+003;1.594254e-001
1.328770e+003;1.592332e-001
1.330698e+003;1.592380e-001
1.332627e+003;1.592886e-001
1.334555e+003;1.593116e-001
1.336484e+003;1.593869e-001
1.338412e+003;1.592054e-001
1.340341e+003;1.592006e-001
1.342269e+003;1.592274e-001
1.344198e+003;1.589015e-001
1.346126e+003;1.585235e-001
1.348055e+003;1.582122e-001
1.349984e+003;1.578682e-001
1.351912e+003;1.575319e-001
1.353841e+003;1.574228e-001
1.355769e+003;1.575543e-001
1.357698e+003;1.580474e-001
1.359626e+003;1.588971e-001
1.361555e+003;1.601040e-001
1.363483e+003;1.620727e-001
1.365412e+003;1.643177e-001
1.367341e+003;1.661489e-001
1.369269e+003;1.675559e-001
1.371198e+003;1.683234e-001
1.373126e+003;1.688285e-001
1.375055e+003;1.699845e-001
1.376983e+003;1.716979e-001
1.378912e+003;1.734551e-001
1.380840e+003;1.752903e-001
1.382769e+003;1.770811e-001
1.384698e+003;1.785471e-001
1.386626e+003;1.794432e-001
1.388555e+003;1.801290e-001
1.390483e+003;1.802869e-001
1.392412e+003;1.795970e-001
1.394340e+003;1.785336e-001
1.396269e+003;1.776007e-001
1.398197e+003;1.766154e-001
1.400126e+003;1.759625e-001
1.402054e+003;1.756719e-001
1.403983e+003;1.748524e-001
1.405911e+003;1.738666e-001
1.407840e+003;1.731730e-001
1.409769e+003;1.726908e-001
1.411697e+003;1.720080e-001
1.413626e+003;1.716356e-001
1.415554e+003;1.714093e-001
1.417483e+003;1.701743e-001
1.419411e+003;1.695427e-001
1.421340e+003;1.706619e-001
1.423268e+003;1.718059e-001
1.425197e+003;1.729186e-001
1.427125e+003;1.741893e-001
1.429054e+003;1.759508e-001
1.430983e+003;1.786838e-001
1.432911e+003;1.815356e-001
1.434840e+003;1.833469e-001
1.436768e+003;1.849682e-001
1.438697e+003;1.879061e-001
1.440625e+003;1.904770e-001
1.442554e+003;1.918564e-001
1.444482e+003;1.926025e-001
1.446411e+003;1.931207e-001
1.448340e+003;1.933771e-001
1.450268e+003;1.934436e-001
1.452197e+003;1.931087e-001
1.454125e+003;1.916010e-001
1.456054e+003;1.882636e-001
1.457982e+003;1.866047e-001
1.459911e+003;1.869710e-001
1.461839e+003;1.868539e-001
1.463768e+003;1.860667e-001
1.465697e+003;1.860897e-001
1.467625e+003;1.871112e-001
1.469554e+003;1.871865e-001
1.471482e+003;1.862540e-001
1.473411e+003;1.862318e-001
1.475339e+003;1.874486e-001
1.477268e+003;1.895393e-001
1.479196e+003;1.928255e-001
1.481125e+003;1.971329e-001
1.483053e+003;2.025580e-001
1.484982e+003;2.089606e-001
1.486911e+003;2.163299e-001
1.488839e+003;2.245683e-001
1.490768e+003;2.336508e-001
1.492696e+003;2.428796e-001
1.494625e+003;2.507794e-001
1.496553e+003;2.583717e-001
1.498482e+003;2.665458e-001
1.500410e+003;2.739709e-001
1.502339e+003;2.801593e-001
1.504267e+003;2.844497e-001
1.506196e+003;2.878734e-001
1.508125e+003;2.934210e-001
1.510053e+003;2.989352e-001
1.511982e+003;3.022356e-001
1.513910e+003;3.034010e-001
1.515839e+003;3.016700e-001
1.517767e+003;2.976639e-001
1.519696e+003;2.922424e-001
1.521624e+003;2.873574e-001
1.523553e+003;2.852170e-001
1.525481e+003;2.832722e-001
1.527410e+003;2.808241e-001
1.529339e+003;2.782359e-001
1.531267e+003;2.753559e-001
1.533196e+003;2.717671e-001
1.535124e+003;2.687274e-001
1.537053e+003;2.642311e-001
1.538981e+003;2.572214e-001
1.540910e+003;2.517554e-001
1.542838e+003;2.476750e-001
1.544767e+003;2.425738e-001
1.546695e+003;2.367887e-001
1.548624e+003;2.303087e-001
1.550553e+003;2.239657e-001
1.552481e+003;2.176479e-001
1.554410e+003;2.111752e-001
1.556338e+003;2.045661e-001
1.558267e+003;1.971144e-001
1.560195e+003;1.930106e-001
1.562124e+003;1.915028e-001
1.564052e+003;1.884935e-001
1.565981e+003;1.848806e-001
1.567910e+003;1.812319e-001
1.569838e+003;1.783565e-001
1.571767e+003;1.771755e-001
1.573695e+003;1.752960e-001
1.575624e+003;1.728214e-001
1.577552e+003;1.728264e-001
1.579481e+003;1.735187e-001
1.581409e+003;1.733070e-001
1.583338e+003;1.735369e-001
1.585266e+003;1.743012e-001
1.587195e+003;1.757798e-001
1.589124e+003;1.778937e-001
1.591052e+003;1.806660e-001
1.592981e+003;1.835516e-001
1.594909e+003;1.867839e-001
1.596838e+003;1.907199e-001
1.598766e+003;1.952498e-001
1.600695e+003;2.005349e-001
1.602623e+003;2.068485e-001
1.604552e+003;2.136540e-001
1.606480e+003;2.212541e-001
1.608409e+003;2.296951e-001
1.610338e+003;2.386461e-001
1.612266e+003;2.474941e-001
1.614195e+003;2.554643e-001
1.616123e+003;2.628110e-001
1.618052e+003;2.716993e-001
1.619980e+003;2.811962e-001
1.621909e+003;2.897977e-001
1.623837e+003;2.981289e-001
1.625766e+003;3.061513e-001
1.627694e+003;3.131810e-001
1.629623e+003;3.193348e-001
1.631552e+003;3.239578e-001
1.633480e+003;3.260654e-001
1.635409e+003;3.270782e-001
1.637337e+003;3.296004e-001
1.639266e+003;3.308864e-001
1.641194e+003;3.299358e-001
1.643123e+003;3.273781e-001
1.645051e+003;3.229048e-001
1.646980e+003;3.185987e-001
1.648909e+003;3.142484e-001
1.650837e+003;3.063765e-001
1.652766e+003;2.966212e-001
1.654694e+003;2.907814e-001
1.656623e+003;2.851565e-001
1.658551e+003;2.768803e-001
1.660480e+003;2.679340e-001
1.662408e+003;2.592535e-001
1.664337e+003;2.511432e-001
1.666266e+003;2.427705e-001
1.668194e+003;2.338057e-001
1.670123e+003;2.255694e-001
1.672051e+003;2.178923e-001
1.673980e+003;2.093610e-001
1.675908e+003;2.015437e-001
1.677837e+003;1.948852e-001
1.679765e+003;1.874674e-001
1.681694e+003;1.790967e-001
1.683622e+003;1.696745e-001
1.685551e+003;1.628989e-001
1.687479e+003;1.576316e-001
1.689408e+003;1.508150e-001
1.691337e+003;1.436882e-001
1.693265e+003;1.354825e-001
1.695194e+003;1.261165e-001
1.697122e+003;1.187117e-001
1.699051e+003;1.105253e-001
1.700979e+003;1.027820e-001
1.702908e+003;9.737471e-002
1.704836e+003;9.082675e-002
1.706765e+003;8.487368e-002
1.708693e+003;7.969776e-002
1.710622e+003;7.498576e-002
1.712551e+003;7.055882e-002
1.714479e+003;6.621370e-002
1.716408e+003;6.185994e-002
1.718336e+003;5.986717e-002
1.720265e+003;5.975830e-002
1.722193e+003;5.870748e-002
1.724122e+003;5.703677e-002
1.726050e+003;5.575521e-002
1.727979e+003;5.440564e-002
1.729908e+003;5.298732e-002
1.731836e+003;5.070129e-002
1.733765e+003;4.833989e-002
1.735693e+003;4.864161e-002
1.737622e+003;4.879499e-002
1.739550e+003;4.768523e-002
1.741479e+003;4.729671e-002
1.743407e+003;4.667421e-002
1.745336e+003;4.613454e-002
1.747265e+003;4.574129e-002
1.749193e+003;4.529629e-002
1.751122e+003;4.521017e-002
1.753050e+003;4.612669e-002
1.754979e+003;4.666119e-002
1.756907e+003;4.662876e-002
1.758836e+003;4.666561e-002
1.760764e+003;4.655410e-002
1.762693e+003;4.675604e-002
1.764621e+003;4.707314e-002
1.766550e+003;4.676593e-002
1.768479e+003;4.643989e-002
1.770407e+003;4.579132e-002
1.772336e+003;4.516803e-002
1.774264e+003;4.587653e-002
1.776193e+003;4.665458e-002
1.778121e+003;4.671561e-002
1.780050e+003;4.660799e-002
1.781978e+003;4.665691e-002
1.783907e+003;4.653987e-002
1.785835e+003;4.645574e-002
1.787764e+003;4.650435e-002
1.789693e+003;4.598444e-002
1.791621e+003;4.520245e-002
1.793550e+003;4.536371e-002
1.795478e+003;4.605145e-002
1.797407e+003;4.603152e-002
1.799335e+003;4.586202e-002
1.801264e+003;4.583466e-002
1.803192e+003;4.591590e-002
1.805121e+003;4.574718e-002
1.807049e+003;4.558736e-002
1.808978e+003;4.557147e-002
1.810907e+003;4.554508e-002
1.812835e+003;4.560168e-002
1.814764e+003;4.576577e-002
1.816692e+003;4.580101e-002
1.818621e+003;4.579887e-002
1.820549e+003;4.579442e-002
1.822478e+003;4.565276e-002
1.824406e+003;4.525065e-002
1.826335e+003;4.524455e-002
1.828264e+003;4.509785e-002
1.830192e+003;4.490689e-002
1.832121e+003;4.519752e-002
1.834049e+003;4.532273e-002
1.835978e+003;4.535440e-002
1.837906e+003;4.540005e-002
1.839835e+003;4.526047e-002
1.841763e+003;4.483095e-002
1.843692e+003;4.426846e-002
1.845620e+003;4.456439e-002
1.847549e+003;4.487085e-002
1.849478e+003;4.498567e-002
1.851406e+003;4.511601e-002
1.853335e+003;4.510300e-002
1.855263e+003;4.495477e-002
1.857192e+003;4.485145e-002
1.859120e+003;4.477618e-002
1.861049e+003;4.489311e-002
1.862977e+003;4.504665e-002
1.864906e+003;4.484083e-002
1.866834e+003;4.456145e-002
1.868763e+003;4.445202e-002
1.870692e+003;4.460144e-002
1.872620e+003;4.490365e-002
1.874549e+003;4.506899e-002
1.876477e+003;4.517200e-002
1.878406e+003;4.515843e-002
1.880334e+003;4.513207e-002
1.882263e+003;4.517344e-002
1.884191e+003;4.531118e-002
1.886120e+003;4.528055e-002
1.888048e+003;4.504272e-002
1.889977e+003;4.485468e-002
1.891906e+003;4.498876e-002
1.893834e+003;4.500920e-002
1.895763e+003;4.493794e-002
1.897691e+003;4.502114e-002
1.899620e+003;4.491049e-002
1.901548e+003;4.483686e-002
1.903477e+003;4.513913e-002
1.905405e+003;4.531317e-002
1.907334e+003;4.505738e-002
1.909262e+003;4.483470e-002
1.911191e+003;4.496980e-002
1.913120e+003;4.501063e-002
1.915048e+003;4.471638e-002
1.916977e+003;4.439998e-002
1.918905e+003;4.446847e-002
1.920834e+003;4.444156e-002
1.922762e+003;4.430288e-002
1.924691e+003;4.447504e-002
1.926619e+003;4.461623e-002
1.928548e+003;4.452603e-002
1.930477e+003;4.450984e-002
1.932405e+003;4.456579e-002
1.934334e+003;4.474176e-002
1.936262e+003;4.485222e-002
1.938191e+003;4.481566e-002
1.940119e+003;4.477981e-002
1.942048e+003;4.461899e-002
1.943976e+003;4.469611e-002
1.945905e+003;4.493276e-002
1.947833e+003;4.498505e-002
1.949762e+003;4.494091e-002
1.951691e+003;4.499512e-002
1.953619e+003;4.506503e-002
1.955548e+003;4.500435e-002
1.957476e+003;4.504301e-002
1.959405e+003;4.499784e-002
1.961333e+003;4.481912e-002
1.963262e+003;4.485200e-002
1.965190e+003;4.488359e-002
1.967119e+003;4.497832e-002
1.969047e+003;4.504841e-002
1.970976e+003;4.507907e-002
1.972905e+003;4.511473e-002
1.974833e+003;4.530254e-002
1.976762e+003;4.559829e-002
1.978690e+003;4.564798e-002
1.980619e+003;4.546877e-002
1.982547e+003;4.521837e-002
1.984476e+003;4.523304e-002
1.986404e+003;4.547237e-002
1.988333e+003;4.543673e-002
1.990261e+003;4.516450e-002
1.992190e+003;4.509840e-002
1.994119e+003;4.521859e-002
1.996047e+003;4.548650e-002
1.997976e+003;4.562391e-002
1.999904e+003;4.548933e-002
2.001833e+003;4.553253e-002
2.003761e+003;4.568825e-002
2.005690e+003;4.575775e-002
2.007618e+003;4.568453e-002
2.009547e+003;4.579917e-002
2.011476e+003;4.595593e-002
2.013404e+003;4.606586e-002
2.015333e+003;4.601469e-002
2.017261e+003;4.606140e-002
2.019190e+003;4.604567e-002
2.021118e+003;4.602279e-002
2.023047e+003;4.606983e-002
2.024975e+003;4.618553e-002
2.026904e+003;4.627988e-002
2.028833e+003;4.630919e-002
2.030761e+003;4.642791e-002
2.032690e+003;4.655661e-002
2.034618e+003;4.656661e-002
2.036547e+003;4.651497e-002
2.038475e+003;4.641316e-002
2.040404e+003;4.649786e-002
2.042332e+003;4.672435e-002
2.044261e+003;4.668996e-002
2.046189e+003;4.661072e-002
2.048118e+003;4.671394e-002
2.050047e+003;4.683768e-002
2.051975e+003;4.691836e-002
2.053904e+003;4.699851e-002
2.055832e+003;4.701889e-002
2.057761e+003;4.685831e-002
2.059689e+003;4.658058e-002
2.061618e+003;4.674468e-002
2.063546e+003;4.711701e-002
2.065475e+003;4.725519e-002
2.067404e+003;4.726856e-002
2.069332e+003;4.724208e-002
2.071260e+003;4.721548e-002
2.073189e+003;4.727588e-002
2.075118e+003;4.727602e-002
2.077046e+003;4.738029e-002
2.078975e+003;4.758077e-002
2.080903e+003;4.774540e-002
2.082832e+003;4.767502e-002
2.084760e+003;4.758022e-002
2.086689e+003;4.753516e-002
2.088617e+003;4.746433e-002
2.090546e+003;4.760488e-002
2.092475e+003;4.782137e-002
2.094403e+003;4.788237e-002
2.096332e+003;4.802820e-002
2.098260e+003;4.793428e-002
2.100189e+003;4.768834e-002
2.102117e+003;4.769159e-002
2.104046e+003;4.788356e-002
2.105974e+003;4.782367e-002
2.107903e+003;4.773327e-002
2.109832e+003;4.777048e-002
2.111760e+003;4.773745e-002
2.113688e+003;4.776297e-002
2.115617e+003;4.770783e-002
2.117546e+003;4.768767e-002
2.119474e+003;4.765114e-002
2.121403e+003;4.760806e-002
2.123331e+003;4.773197e-002
2.125260e+003;4.783565e-002
2.127188e+003;4.765997e-002
2.129117e+003;4.737896e-002
2.131045e+003;4.735262e-002
2.132974e+003;4.749741e-002
2.134903e+003;4.754251e-002
2.136831e+003;4.748544e-002
2.138760e+003;4.732010e-002
2.140688e+003;4.736171e-002
2.142617e+003;4.766622e-002
2.144545e+003;4.761498e-002
2.146474e+003;4.727732e-002
2.148402e+003;4.710995e-002
2.150331e+003;4.722593e-002
2.152260e+003;4.736451e-002
2.154188e+003;4.743832e-002
2.156117e+003;4.743795e-002
2.158045e+003;4.747450e-002
2.159974e+003;4.750910e-002
2.161902e+003;4.737457e-002
2.163831e+003;4.736444e-002
2.165759e+003;4.737512e-002
2.167688e+003;4.742442e-002
2.169616e+003;4.753763e-002
2.171545e+003;4.755926e-002
2.173474e+003;4.744375e-002
2.175402e+003;4.744120e-002
2.177331e+003;4.745265e-002
2.179259e+003;4.754248e-002
2.181188e+003;4.748769e-002
2.183116e+003;4.731877e-002
2.185045e+003;4.735631e-002
2.186973e+003;4.742882e-002
2.188902e+003;4.743835e-002
2.190831e+003;4.733854e-002
2.192759e+003;4.711032e-002
2.194688e+003;4.726509e-002
2.196616e+003;4.760636e-002
2.198545e+003;4.745121e-002
2.200473e+003;4.711187e-002
2.202402e+003;4.721348e-002
2.204330e+003;4.745994e-002
2.206259e+003;4.741378e-002
2.208188e+003;4.751246e-002
2.210116e+003;4.746522e-002
2.212044e+003;4.743528e-002
2.213973e+003;4.760429e-002
2.215902e+003;4.758296e-002
2.217830e+003;4.741322e-002
2.219759e+003;4.718921e-002
2.221687e+003;4.715649e-002
2.223616e+003;4.730163e-002
2.225544e+003;4.721326e-002
2.227473e+003;4.728386e-002
2.229401e+003;4.747298e-002
2.231330e+003;4.727795e-002
2.233259e+003;4.709252e-002
2.235187e+003;4.708635e-002
2.237116e+003;4.706339e-002
2.239044e+003;4.708957e-002
2.240973e+003;4.702683e-002
2.242901e+003;4.694494e-002
2.244830e+003;4.691840e-002
2.246758e+003;4.696473e-002
2.248687e+003;4.691895e-002
2.250615e+003;4.700723e-002
2.252544e+003;4.709936e-002
2.254473e+003;4.721130e-002
2.256401e+003;4.703263e-002
2.258330e+003;4.668222e-002
2.260258e+003;4.655473e-002
2.262187e+003;4.664458e-002
2.264115e+003;4.678560e-002
2.266044e+003;4.680096e-002
2.267972e+003;4.669170e-002
2.269901e+003;4.674944e-002
2.271830e+003;4.681653e-002
2.273758e+003;4.675147e-002
2.275687e+003;4.675841e-002
2.277615e+003;4.676291e-002
2.279544e+003;4.683384e-002
2.281472e+003;4.702705e-002
2.283401e+003;4.706006e-002
2.285329e+003;4.687957e-002
2.287258e+003;4.679058e-002
2.289187e+003;4.681125e-002
2.291115e+003;4.684081e-002
2.293043e+003;4.680239e-002
2.294972e+003;4.681719e-002
2.296901e+003;4.682506e-002
2.298829e+003;4.674870e-002
2.300758e+003;4.649100e-002
2.302686e+003;4.635217e-002
2.304615e+003;4.650789e-002
2.306543e+003;4.669277e-002
2.308472e+003;4.681933e-002
2.310400e+003;4.684842e-002
2.312329e+003;4.685857e-002
2.314258e+003;4.682498e-002
2.316186e+003;4.665104e-002
2.318115e+003;4.652485e-002
2.320043e+003;4.652430e-002
2.321972e+003;4.659962e-002
2.323900e+003;4.668380e-002
2.325829e+003;4.669553e-002
2.327757e+003;4.662153e-002
2.329686e+003;4.664709e-002
2.331615e+003;4.693257e-002
2.333543e+003;4.693136e-002
2.335472e+003;4.683831e-002
2.337400e+003;4.701420e-002
2.339329e+003;4.711690e-002
2.341257e+003;4.692423e-002
2.343186e+003;4.695823e-002
2.345114e+003;4.707631e-002
2.347043e+003;4.715767e-002
2.348971e+003;4.707273e-002
2.350900e+003;4.683251e-002
2.352829e+003;4.693158e-002
2.354757e+003;4.715664e-002
2.356686e+003;4.704134e-002
2.358614e+003;4.691689e-002
2.360543e+003;4.695919e-002
2.362471e+003;4.711897e-002
2.364400e+003;4.728009e-002
2.366328e+003;4.729040e-002
2.368257e+003;4.727806e-002
2.370186e+003;4.734530e-002
2.372114e+003;4.754499e-002
2.374042e+003;4.747912e-002
2.375971e+003;4.730887e-002
2.377900e+003;4.736574e-002
2.379828e+003;4.755386e-002
2.381757e+003;4.742368e-002
2.383685e+003;4.739489e-002
2.385614e+003;4.779921e-002
2.387542e+003;4.787427e-002
2.389471e+003;4.776818e-002
2.391399e+003;4.783266e-002
2.393328e+003;4.810448e-002
2.395257e+003;4.830471e-002
2.397185e+003;4.817719e-002
2.399114e+003;4.818456e-002
2.401042e+003;4.827175e-002
2.402971e+003;4.851747e-002
2.404899e+003;4.865302e-002
2.406828e+003;4.881353e-002
2.408756e+003;4.882780e-002
2.410685e+003;4.868253e-002
2.412614e+003;4.871952e-002
2.414542e+003;4.898115e-002
2.416471e+003;4.922653e-002
2.418399e+003;4.944483e-002
2.420328e+003;4.941561e-002
2.422256e+003;4.935116e-002
2.424185e+003;4.973376e-002
2.426113e+003;4.987961e-002
2.428042e+003;4.972822e-002
2.429970e+003;4.984453e-002
2.431899e+003;4.995782e-002
2.433828e+003;4.996079e-002
2.435756e+003;4.998202e-002
2.437685e+003;4.995157e-002
2.439613e+003;5.006868e-002
2.441542e+003;5.016756e-002
2.443470e+003;5.021632e-002
2.445399e+003;5.036822e-002
2.447327e+003;5.044387e-002
2.449256e+003;5.063754e-002
2.451185e+003;5.082661e-002
2.453113e+003;5.076303e-002
2.455042e+003;5.081413e-002
2.456970e+003;5.107822e-002
2.458899e+003;5.108291e-002
2.460827e+003;5.093282e-002
2.462756e+003;5.071533e-002
2.464684e+003;5.088610e-002
2.466613e+003;5.122494e-002
2.468542e+003;5.142060e-002
2.470470e+003;5.133806e-002
2.472398e+003;5.143910e-002
2.474327e+003;5.189563e-002
2.476256e+003;5.207852e-002
2.478184e+003;5.192349e-002
2.480113e+003;5.169449e-002
2.482041e+003;5.166341e-002
2.483970e+003;5.177721e-002
2.485898e+003;5.216467e-002
2.487827e+003;5.246899e-002
2.489755e+003;5.229285e-002
2.491684e+003;5.215466e-002
2.493613e+003;5.221672e-002
2.495541e+003;5.224299e-002
2.497470e+003;5.237463e-002
2.499398e+003;5.228332e-002
2.501327e+003;5.215305e-002
2.503255e+003;5.239153e-002
2.505184e+003;5.267164e-002
2.507112e+003;5.302629e-002
2.509041e+003;5.308968e-002
2.510969e+003;5.273393e-002
2.512898e+003;5.266966e-002
2.514827e+003;5.285187e-002
2.516755e+003;5.325015e-002
2.518684e+003;5.334668e-002
2.520612e+003;5.314143e-002
2.522541e+003;5.314420e-002
2.524469e+003;5.325142e-002
2.526398e+003;5.332020e-002
2.528326e+003;5.340592e-002
2.530255e+003;5.333447e-002
2.532184e+003;5.324041e-002
2.534112e+003;5.309181e-002
2.536041e+003;5.346318e-002
2.537969e+003;5.377343e-002
2.539898e+003;5.356257e-002
2.541826e+003;5.351309e-002
2.543755e+003;5.354701e-002
2.545683e+003;5.359346e-002
2.547612e+003;5.375993e-002
2.549541e+003;5.385568e-002
2.551469e+003;5.390928e-002
2.553397e+003;5.405294e-002
2.555326e+003;5.410777e-002
2.557255e+003;5.423502e-002
2.559183e+003;5.436406e-002
2.561112e+003;5.436455e-002
2.563040e+003;5.431885e-002
2.564969e+003;5.457448e-002
2.566897e+003;5.490358e-002
2.568826e+003;5.487181e-002
2.570754e+003;5.472359e-002
2.572683e+003;5.475697e-002
2.574612e+003;5.496980e-002
2.576540e+003;5.515496e-002
2.578469e+003;5.528094e-002
2.580397e+003;5.566544e-002
2.582326e+003;5.572718e-002
2.584254e+003;5.559979e-002
2.586183e+003;5.565376e-002
2.588111e+003;5.573584e-002
2.590040e+003;5.584009e-002
2.591969e+003;5.590521e-002
2.593897e+003;5.589654e-002
2.595826e+003;5.600083e-002
2.597754e+003;5.609469e-002
2.599683e+003;5.609749e-002
2.601611e+003;5.610182e-002
2.603540e+003;5.615800e-002
2.605468e+003;5.628404e-002
2.607397e+003;5.648264e-002
2.609325e+003;5.677160e-002
2.611254e+003;5.670968e-002
2.613183e+003;5.650079e-002
2.615111e+003;5.645769e-002
2.617040e+003;5.650649e-002
2.618968e+003;5.672920e-002
2.620897e+003;5.690084e-002
2.622825e+003;5.688373e-002
2.624754e+003;5.687085e-002
2.626682e+003;5.696079e-002
2.628611e+003;5.709307e-002
2.630540e+003;5.721775e-002
2.632468e+003;5.727786e-002
2.634396e+003;5.732894e-002
2.636325e+003;5.744159e-002
2.638254e+003;5.764200e-002
2.640182e+003;5.786602e-002
2.642111e+003;5.786424e-002
2.644039e+003;5.790350e-002
2.645968e+003;5.802808e-002
2.647896e+003;5.817651e-002
2.649825e+003;5.805387e-002
2.651753e+003;5.792156e-002
2.653682e+003;5.823573e-002
2.655611e+003;5.841934e-002
2.657539e+003;5.834847e-002
2.659468e+003;5.849284e-002
2.661396e+003;5.846509e-002
2.663325e+003;5.835942e-002
2.665253e+003;5.839338e-002
2.667182e+003;5.858475e-002
2.669110e+003;5.879609e-002
2.671039e+003;5.892566e-002
2.672968e+003;5.905145e-002
2.674896e+003;5.925872e-002
2.676825e+003;5.948896e-002
2.678753e+003;5.947175e-002
2.680682e+003;5.938452e-002
2.682610e+003;5.952742e-002
2.684539e+003;5.964809e-002
2.686467e+003;5.986714e-002
2.688396e+003;6.007171e-002
2.690324e+003;6.011909e-002
2.692253e+003;6.025176e-002
2.694182e+003;6.013454e-002
2.696110e+003;6.015635e-002
2.698039e+003;6.053796e-002
2.699967e+003;6.065083e-002
2.701896e+003;6.056443e-002
2.703824e+003;6.060652e-002
2.705753e+003;6.088753e-002
2.707681e+003;6.092196e-002
2.709610e+003;6.078336e-002
2.711539e+003;6.108607e-002
2.713467e+003;6.147682e-002
2.715396e+003;6.169840e-002
2.717324e+003;6.172173e-002
2.719253e+003;6.166257e-002
2.721181e+003;6.193372e-002
2.723110e+003;6.236448e-002
2.725038e+003;6.254571e-002
2.726967e+003;6.280121e-002
2.728896e+003;6.310748e-002
2.730824e+003;6.340238e-002
2.732752e+003;6.337029e-002
2.734681e+003;6.298983e-002
2.736610e+003;6.301611e-002
2.738538e+003;6.336477e-002
2.740467e+003;6.356848e-002
2.742395e+003;6.374422e-002
2.744324e+003;6.383035e-002
2.746252e+003;6.375075e-002
2.748181e+003;6.394289e-002
2.750109e+003;6.441150e-002
2.752038e+003;6.456806e-002
2.753967e+003;6.426118e-002
2.755895e+003;6.412090e-002
2.757824e+003;6.452023e-002
2.759752e+003;6.507729e-002
2.761681e+003;6.533618e-002
2.763609e+003;6.519740e-002
2.765538e+003;6.519543e-002
2.767466e+003;6.544007e-002
2.769395e+003;6.538313e-002
2.771323e+003;6.562559e-002
2.773252e+003;6.620607e-002
2.775181e+003;6.648242e-002
2.777109e+003;6.660199e-002
2.779038e+003;6.653579e-002
2.780966e+003;6.661849e-002
2.782895e+003;6.694520e-002
2.784823e+003;6.694864e-002
2.786752e+003;6.693782e-002
2.788680e+003;6.716540e-002
2.790609e+003;6.737983e-002
2.792538e+003;6.759809e-002
2.794466e+003;6.811477e-002
2.796395e+003;6.841248e-002
2.798323e+003;6.833670e-002
2.800252e+003;6.871081e-002
2.802180e+003;6.899098e-002
2.804109e+003;6.899817e-002
2.806037e+003;6.933197e-002
2.807966e+003;6.980005e-002
2.809895e+003;7.009385e-002
2.811823e+003;7.000165e-002
2.813751e+003;6.985056e-002
2.815680e+003;6.986418e-002
2.817609e+003;7.010658e-002
2.819537e+003;7.052385e-002
2.821466e+003;7.068595e-002
2.823394e+003;7.091273e-002
2.825323e+003;7.131106e-002
2.827251e+003;7.159022e-002
2.829180e+003;7.184559e-002
2.831108e+003;7.231084e-002
2.833037e+003;7.256577e-002
2.834966e+003;7.259252e-002
2.836894e+003;7.283602e-002
2.838823e+003;7.336305e-002
2.840751e+003;7.396226e-002
2.842680e+003;7.440917e-002
2.844608e+003;7.492890e-002
2.846537e+003;7.561876e-002
2.848465e+003;7.646557e-002
2.850394e+003;7.688172e-002
2.852323e+003;7.681730e-002
2.854251e+003;7.698959e-002
2.856180e+003;7.735944e-002
2.858108e+003;7.770286e-002
2.860037e+003;7.803077e-002
2.861965e+003;7.850797e-002
2.863894e+003;7.932368e-002
2.865822e+003;8.026037e-002
2.867751e+003;8.152404e-002
2.869679e+003;8.262390e-002
2.871608e+003;8.329021e-002
2.873536e+003;8.381160e-002
2.875465e+003;8.416898e-002
2.877394e+003;8.428020e-002
2.879322e+003;8.407865e-002
2.881251e+003;8.376170e-002
2.883179e+003;8.344895e-002
2.885108e+003;8.330008e-002
2.887036e+003;8.322418e-002
2.888965e+003;8.335203e-002
2.890893e+003;8.371513e-002
2.892822e+003;8.363896e-002
2.894750e+003;8.373321e-002
2.896679e+003;8.418490e-002
2.898608e+003;8.461951e-002
2.900536e+003;8.502688e-002
2.902465e+003;8.542486e-002
2.904393e+003;8.590326e-002
2.906322e+003;8.663429e-002
2.908250e+003;8.757024e-002
2.910179e+003;8.848794e-002
2.912107e+003;8.950318e-002
2.914036e+003;9.080669e-002
2.915965e+003;9.195880e-002
2.917893e+003;9.247825e-002
2.919822e+003;9.265485e-002
2.921750e+003;9.244012e-002
2.923679e+003;9.218612e-002
2.925607e+003;9.208022e-002
2.927536e+003;9.226359e-002
2.929464e+003;9.264247e-002
2.931393e+003;9.292550e-002
2.933322e+003;9.287872e-002
2.935250e+003;9.249817e-002
2.937178e+003;9.253556e-002
2.939107e+003;9.256648e-002
2.941036e+003;9.215224e-002
2.942964e+003;9.180846e-002
2.944893e+003;9.160171e-002
2.946821e+003;9.133814e-002
2.948750e+003;9.138345e-002
2.950678e+003;9.157324e-002
2.952607e+003;9.217919e-002
2.954535e+003;9.275387e-002
2.956464e+003;9.300049e-002
2.958393e+003;9.343987e-002
2.960321e+003;9.359558e-002
2.962250e+003;9.320778e-002
2.964178e+003;9.276946e-002
2.966107e+003;9.232707e-002
2.968035e+003;9.156673e-002
2.969964e+003;9.077055e-002
2.971892e+003;9.040339e-002
2.973821e+003;9.003840e-002
2.975750e+003;8.898548e-002
2.977678e+003;8.790861e-002
2.979607e+003;8.708999e-002
2.981535e+003;8.602673e-002
2.983464e+003;8.499178e-002
2.985392e+003;8.436940e-002
2.987321e+003;8.393230e-002
2.989249e+003;8.328544e-002
2.991178e+003;8.257484e-002
2.993106e+003;8.170062e-002
2.995035e+003;8.114117e-002
2.996964e+003;8.113442e-002
2.998892e+003;8.132557e-002
3.000821e+003;8.125757e-002
3.002749e+003;8.065524e-002
3.004678e+003;8.041386e-002
3.006606e+003;8.069207e-002
3.008535e+003;8.112152e-002
3.010463e+003;8.135842e-002
3.012392e+003;8.144259e-002
3.014321e+003;8.148459e-002
3.016249e+003;8.166070e-002
3.018177e+003;8.192615e-002
3.020106e+003;8.235614e-002
3.022035e+003;8.285990e-002
3.023963e+003;8.346943e-002
3.025892e+003;8.370782e-002
3.027820e+003;8.396499e-002
3.029749e+003;8.443032e-002
3.031677e+003;8.485740e-002
3.033606e+003;8.501212e-002
3.035534e+003;8.510095e-002
3.037463e+003;8.552377e-002
3.039392e+003;8.593408e-002
3.041320e+003;8.606979e-002
3.043249e+003;8.630476e-002
3.045177e+003;8.656979e-002
3.047106e+003;8.686423e-002
3.049034e+003;8.715061e-002
3.050963e+003;8.744184e-002
3.052891e+003;8.795433e-002
3.054820e+003;8.855326e-002
3.056749e+003;8.852389e-002
3.058677e+003;8.843733e-002
3.060606e+003;8.849066e-002
3.062534e+003;8.877357e-002
3.064463e+003;8.905467e-002
3.066391e+003;8.869842e-002
3.068320e+003;8.837787e-002
3.070248e+003;8.846954e-002
3.072177e+003;8.853259e-002
3.074105e+003;8.843351e-002
3.076034e+003;8.870638e-002
3.077963e+003;8.862092e-002
3.079891e+003;8.795563e-002
3.081820e+003;8.750924e-002
3.083748e+003;8.731822e-002
3.085677e+003;8.703820e-002
3.087605e+003;8.694093e-002
3.089534e+003;8.716835e-002
3.091462e+003;8.717199e-002
3.093391e+003;8.694351e-002
3.095320e+003;8.662653e-002
3.097248e+003;8.593953e-002
3.099177e+003;8.580556e-002
3.101105e+003;8.636103e-002
3.103034e+003;8.660465e-002
3.104962e+003;8.619095e-002
3.106891e+003;8.614069e-002
3.108819e+003;8.615997e-002
3.110748e+003;8.610433e-002
3.112677e+003;8.635581e-002
3.114605e+003;8.660893e-002
3.116533e+003;8.677528e-002
3.118462e+003;8.695586e-002
3.120391e+003;8.692300e-002
3.122319e+003;8.687499e-002
3.124248e+003;8.736975e-002
3.126176e+003;8.804186e-002
3.128105e+003;8.836329e-002
3.130033e+003;8.881198e-002
3.131962e+003;8.912178e-002
3.133890e+003;8.906565e-002
3.135819e+003;8.923485e-002
3.137748e+003;8.979172e-002
3.139676e+003;9.038364e-002
3.141605e+003;9.067623e-002
3.143533e+003;9.065827e-002
3.145462e+003;9.111142e-002
3.147390e+003;9.214204e-002
3.149319e+003;9.271232e-002
3.151247e+003;9.316894e-002
3.153176e+003;9.365785e-002
3.155104e+003;9.423573e-002
3.157033e+003;9.496056e-002
3.158962e+003;9.549229e-002
3.160890e+003;9.618573e-002
3.162819e+003;9.695429e-002
3.164747e+003;9.735900e-002
3.166676e+003;9.766912e-002
3.168604e+003;9.871563e-002
3.170533e+003;9.956298e-002
3.172461e+003;1.004272e-001
3.174390e+003;1.012288e-001
3.176319e+003;1.016285e-001
3.178247e+003;1.018455e-001
3.180176e+003;1.022009e-001
3.182104e+003;1.028911e-001
3.184033e+003;1.033795e-001
3.185961e+003;1.037094e-001
3.187890e+003;1.045688e-001
3.189818e+003;1.053847e-001
3.191747e+003;1.057344e-001
3.193676e+003;1.061062e-001
3.195604e+003;1.069086e-001
3.197532e+003;1.078436e-001
3.199461e+003;1.083691e-001
3.201390e+003;1.086380e-001
3.203318e+003;1.086449e-001
3.205247e+003;1.084917e-001
3.207175e+003;1.090902e-001
3.209104e+003;1.095126e-001
3.211032e+003;1.096680e-001
3.212961e+003;1.100661e-001
3.214889e+003;1.101629e-001
3.216818e+003;1.103658e-001
3.218747e+003;1.108646e-001
3.220675e+003;1.112760e-001
3.222604e+003;1.116733e-001
3.224532e+003;1.122142e-001
3.226461e+003;1.126338e-001
3.228389e+003;1.131441e-001
3.230318e+003;1.133704e-001
3.232246e+003;1.139373e-001
3.234175e+003;1.144520e-001
3.236104e+003;1.148439e-001
3.238032e+003;1.153736e-001
3.239961e+003;1.162316e-001
3.241889e+003;1.168084e-001
3.243818e+003;1.172672e-001
3.245746e+003;1.176052e-001
3.247675e+003;1.179058e-001
3.249603e+003;1.185455e-001
3.251532e+003;1.192722e-001
3.253460e+003;1.199848e-001
3.255389e+003;1.204853e-001
3.257318e+003;1.213504e-001
3.259246e+003;1.224389e-001
3.261175e+003;1.228254e-001
3.263103e+003;1.234065e-001
3.265032e+003;1.243449e-001
3.266960e+003;1.248378e-001
3.268889e+003;1.254182e-001
3.270817e+003;1.256131e-001
3.272746e+003;1.255022e-001
3.274675e+003;1.257777e-001
3.276603e+003;1.261412e-001
3.278531e+003;1.264295e-001
3.280460e+003;1.265256e-001
3.282389e+003;1.266254e-001
3.284317e+003;1.268009e-001
3.286246e+003;1.270874e-001
3.288174e+003;1.271427e-001
3.290103e+003;1.269305e-001
3.292031e+003;1.268551e-001
3.293960e+003;1.265374e-001
3.295888e+003;1.259369e-001
3.297817e+003;1.252421e-001
3.299746e+003;1.252347e-001
3.301674e+003;1.251280e-001
3.303603e+003;1.251336e-001
3.305531e+003;1.248757e-001
3.307460e+003;1.237171e-001
3.309388e+003;1.229707e-001
3.311317e+003;1.227174e-001
3.313245e+003;1.221963e-001
3.315174e+003;1.214799e-001
3.317103e+003;1.211064e-001
3.319031e+003;1.208789e-001
3.320960e+003;1.200617e-001
3.322888e+003;1.189059e-001
3.324817e+003;1.183545e-001
3.326745e+003;1.173821e-001
3.328674e+003;1.163051e-001
3.330602e+003;1.158905e-001
3.332531e+003;1.153631e-001
3.334459e+003;1.141849e-001
3.336388e+003;1.135812e-001
3.338317e+003;1.132850e-001
3.340245e+003;1.130395e-001
3.342174e+003;1.119231e-001
3.344102e+003;1.103293e-001
3.346031e+003;1.093978e-001
3.347959e+003;1.091409e-001
3.349888e+003;1.085317e-001
3.351816e+003;1.072324e-001
3.353745e+003;1.062334e-001
3.355674e+003;1.059789e-001
3.357602e+003;1.053049e-001
3.359531e+003;1.042374e-001
3.361459e+003;1.032224e-001
3.363388e+003;1.021631e-001
3.365316e+003;1.015369e-001
3.367245e+003;1.009237e-001
3.369173e+003;1.002626e-001
3.371102e+003;9.971732e-002
3.373031e+003;9.922816e-002
3.374959e+003;9.837656e-002
3.376887e+003;9.763974e-002
3.378816e+003;9.733189e-002
3.380745e+003;9.618990e-002
3.382673e+003;9.488206e-002
3.384602e+003;9.420288e-002
3.386530e+003;9.388521e-002
3.388459e+003;9.302155e-002
3.390387e+003;9.208333e-002
3.392316e+003;9.167573e-002
3.394244e+003;9.114952e-002
3.396173e+003;9.020277e-002
3.398102e+003;8.990504e-002
3.400030e+003;8.970306e-002
3.401959e+003;8.884377e-002
3.403887e+003;8.779585e-002
3.405816e+003;8.694907e-002
3.407744e+003;8.661111e-002
3.409673e+003;8.610797e-002
3.411601e+003;8.494898e-002
3.413530e+003;8.399542e-002
3.415458e+003;8.328351e-002
3.417387e+003;8.271188e-002
3.419316e+003;8.223224e-002
3.421244e+003;8.135362e-002
3.423173e+003;8.063848e-002
3.425101e+003;7.990074e-002
3.427030e+003;7.910991e-002
3.428958e+003;7.828900e-002
3.430887e+003;7.810906e-002
3.432815e+003;7.772838e-002
3.434744e+003;7.689663e-002
3.436673e+003;7.623605e-002
3.438601e+003;7.557219e-002
3.440530e+003;7.452559e-002
3.442458e+003;7.386496e-002
3.444387e+003;7.399950e-002
3.446315e+003;7.363752e-002
3.448244e+003;7.241996e-002
3.450172e+003;7.159452e-002
3.452101e+003;7.136983e-002
3.454030e+003;7.101929e-002
3.455958e+003;7.075988e-002
3.457886e+003;7.027857e-002
3.459815e+003;6.924751e-002
3.461744e+003;6.858810e-002
3.463672e+003;6.847167e-002
3.465601e+003;6.834348e-002
3.467529e+003;6.819249e-002
3.469458e+003;6.778861e-002
3.471386e+003;6.721170e-002
3.473315e+003;6.681317e-002
3.475243e+003;6.609382e-002
3.477172e+003;6.515963e-002
3.479101e+003;6.469548e-002
3.481029e+003;6.473902e-002
3.482958e+003;6.468887e-002
3.484886e+003;6.432546e-002
3.486815e+003;6.338053e-002
3.488743e+003;6.310453e-002
3.490672e+003;6.280899e-002
3.492600e+003;6.208224e-002
3.494529e+003;6.120085e-002
3.496458e+003;6.084698e-002
3.498386e+003;6.087857e-002
3.500315e+003;6.038710e-002
3.502243e+003;5.937236e-002
3.504172e+003;5.900218e-002
3.506100e+003;5.900104e-002
3.508029e+003;5.854941e-002
3.509957e+003;5.800600e-002
3.511886e+003;5.821103e-002
3.513814e+003;5.832163e-002
3.515743e+003;5.801838e-002
3.517672e+003;5.715188e-002
3.519600e+003;5.622456e-002
3.521529e+003;5.572921e-002
3.523457e+003;5.567459e-002
3.525386e+003;5.585792e-002
3.527314e+003;5.563576e-002
3.529243e+003;5.501823e-002
3.531171e+003;5.471991e-002
3.533100e+003;5.464479e-002
3.535029e+003;5.425972e-002
3.536957e+003;5.395700e-002
3.538885e+003;5.307608e-002
3.540814e+003;5.245632e-002
3.542743e+003;5.244745e-002
3.544671e+003;5.238902e-002
3.546600e+003;5.185493e-002
3.548528e+003;5.155370e-002
3.550457e+003;5.135678e-002
3.552385e+003;5.109775e-002
3.554314e+003;5.077853e-002
3.556242e+003;5.002968e-002
3.558171e+003;4.965110e-002
3.560100e+003;4.971343e-002
3.562028e+003;4.901657e-002
3.563957e+003;4.801159e-002
3.565885e+003;4.738990e-002
3.567814e+003;4.736732e-002
3.569742e+003;4.747310e-002
3.571671e+003;4.692438e-002
3.573599e+003;4.669155e-002
3.575528e+003;4.647330e-002
3.577457e+003;4.611000e-002
3.579385e+003;4.561423e-002
3.581314e+003;4.518380e-002
3.583242e+003;4.511859e-002
3.585171e+003;4.469008e-002
3.587099e+003;4.388706e-002
3.589028e+003;4.391532e-002
3.590956e+003;4.422172e-002
3.592885e+003;4.353778e-002
3.594813e+003;4.281944e-002
3.596742e+003;4.295878e-002
3.598671e+003;4.338540e-002
3.600599e+003;4.294810e-002
3.602528e+003;4.237954e-002
3.604456e+003;4.248995e-002
3.606385e+003;4.170889e-002
3.608313e+003;4.043010e-002
3.610242e+003;4.022129e-002
3.612170e+003;4.003853e-002
3.614099e+003;3.938167e-002
3.616028e+003;3.885696e-002
3.617956e+003;3.850805e-002
3.619885e+003;3.836932e-002
3.621813e+003;3.850982e-002
3.623742e+003;3.835014e-002
3.625670e+003;3.768549e-002
3.627599e+003;3.555564e-002
3.629527e+003;3.454901e-002
3.631456e+003;3.574289e-002
3.633385e+003;3.656595e-002
3.635313e+003;3.638440e-002
3.637241e+003;3.605060e-002
3.639170e+003;3.602969e-002
3.641099e+003;3.559779e-002
3.643027e+003;3.512957e-002
3.644956e+003;3.476027e-002
3.646884e+003;3.315696e-002
3.648813e+003;3.161429e-002
3.650741e+003;3.232977e-002
3.652670e+003;3.332197e-002
3.654598e+003;3.215227e-002
3.656527e+003;3.131747e-002
3.658456e+003;3.157766e-002
3.660384e+003;3.121628e-002
3.662313e+003;3.079874e-002
3.664241e+003;3.024063e-002
3.666170e+003;2.945191e-002
3.668098e+003;2.827754e-002
3.670027e+003;2.704141e-002
3.671955e+003;2.674544e-002
3.673884e+003;2.564099e-002
3.675813e+003;2.510407e-002
3.677741e+003;2.613568e-002
3.679669e+003;2.649884e-002
3.681598e+003;2.615447e-002
3.683527e+003;2.595695e-002
3.685455e+003;2.554799e-002
3.687384e+003;2.406240e-002
3.689312e+003;2.368313e-002
3.691241e+003;2.389313e-002
3.693169e+003;2.451006e-002
3.695098e+003;2.548984e-002
3.697026e+003;2.522158e-002
3.698955e+003;2.414709e-002
3.700884e+003;2.397884e-002
3.702812e+003;2.443582e-002
3.704741e+003;2.412673e-002
3.706669e+003;2.350370e-002
3.708598e+003;2.276042e-002
3.710526e+003;2.238474e-002
3.712455e+003;2.266116e-002
3.714383e+003;2.325492e-002
3.716312e+003;2.296924e-002
3.718240e+003;2.251928e-002
3.720169e+003;2.256469e-002
3.722098e+003;2.295893e-002
3.724026e+003;2.287378e-002
3.725955e+003;2.286717e-002
3.727883e+003;2.331298e-002
3.729812e+003;2.273469e-002
3.731740e+003;2.105397e-002
3.733669e+003;2.011961e-002
3.735597e+003;2.002126e-002
3.737526e+003;2.157588e-002
3.739455e+003;2.288604e-002
3.741383e+003;2.196804e-002
3.743312e+003;1.957327e-002
3.745240e+003;1.998827e-002
3.747169e+003;2.103637e-002
3.749097e+003;1.995919e-002
3.751026e+003;1.911217e-002
3.752954e+003;1.987525e-002
3.754883e+003;2.138071e-002
3.756812e+003;2.158455e-002
3.758740e+003;2.166113e-002
3.760668e+003;2.254071e-002
3.762597e+003;2.267841e-002
3.764526e+003;2.195117e-002
3.766454e+003;2.152856e-002
3.768383e+003;2.122923e-002
3.770311e+003;2.145277e-002
3.772240e+003;2.189587e-002
3.774168e+003;2.183837e-002
3.776097e+003;2.170547e-002
3.778025e+003;2.140699e-002
3.779954e+003;2.099777e-002
3.781883e+003;2.128835e-002
3.783811e+003;2.172379e-002
3.785740e+003;2.211354e-002
3.787668e+003;2.252504e-002
3.789597e+003;2.249705e-002
3.791525e+003;2.248704e-002
3.793454e+003;2.185764e-002
3.795382e+003;2.083231e-002
3.797311e+003;2.092777e-002
3.799240e+003;2.053884e-002
3.801168e+003;2.024682e-002
3.803097e+003;2.137581e-002
3.805025e+003;2.135057e-002
3.806954e+003;2.084107e-002
3.808882e+003;2.162808e-002
3.810811e+003;2.226806e-002
3.812739e+003;2.195957e-002
3.814668e+003;2.079949e-002
3.816596e+003;2.087812e-002
3.818525e+003;2.095542e-002
3.820454e+003;2.034553e-002
3.822382e+003;2.118062e-002
3.824311e+003;2.249998e-002
3.826239e+003;2.291031e-002
3.828168e+003;2.265464e-002
3.830096e+003;2.196975e-002
3.832025e+003;2.196968e-002
3.833953e+003;2.193270e-002
3.835882e+003;2.077718e-002
3.837811e+003;2.041345e-002
3.839739e+003;2.151585e-002
3.841667e+003;2.180451e-002
3.843596e+003;2.184095e-002
3.845525e+003;2.261743e-002
3.847453e+003;2.286504e-002
3.849382e+003;2.192180e-002
3.851310e+003;2.031809e-002
3.853239e+003;1.923708e-002
3.855167e+003;2.081583e-002
3.857096e+003;2.230573e-002
3.859024e+003;2.252009e-002
3.860953e+003;2.251642e-002
3.862882e+003;2.253771e-002
3.864810e+003;2.259449e-002
3.866739e+003;2.241921e-002
3.868667e+003;2.119273e-002
3.870596e+003;2.127290e-002
3.872524e+003;2.236492e-002
3.874453e+003;2.299156e-002
3.876381e+003;2.294779e-002
3.878310e+003;2.238742e-002
3.880239e+003;2.219911e-002
3.882167e+003;2.236670e-002
3.884096e+003;2.142353e-002
3.886024e+003;2.179671e-002
3.887953e+003;2.304900e-002
3.889881e+003;2.253534e-002
3.891810e+003;2.251729e-002
3.893738e+003;2.325159e-002
3.895667e+003;2.358090e-002
3.897595e+003;2.361050e-002
3.899524e+003;2.315146e-002
3.901453e+003;2.198561e-002
3.903381e+003;2.170840e-002
3.905310e+003;2.268473e-002
3.907238e+003;2.388022e-002
3.909167e+003;2.389653e-002
3.911095e+003;2.366536e-002
3.913024e+003;2.393287e-002
3.914952e+003;2.385995e-002
3.916881e+003;2.339927e-002
3.918810e+003;2.368622e-002
3.920738e+003;2.353844e-002
3.922667e+003;2.315565e-002
3.924595e+003;2.313692e-002
3.926524e+003;2.327551e-002
3.928452e+003;2.329113e-002
3.930381e+003;2.340914e-002
3.932309e+003;2.397415e-002
3.934238e+003;2.414579e-002
3.936167e+003;2.367960e-002
3.938095e+003;2.371918e-002
3.940023e+003;2.385806e-002
3.941952e+003;2.374322e-002
3.943881e+003;2.357727e-002
3.945809e+003;2.351392e-002
3.947738e+003;2.381997e-002
3.949666e+003;2.429100e-002
3.951595e+003;2.440424e-002
3.953523e+003;2.397201e-002
3.955452e+003;2.397415e-002
3.957380e+003;2.457605e-002
3.959309e+003;2.441430e-002
3.961238e+003;2.405683e-002
3.963166e+003;2.472530e-002
3.965095e+003;2.513514e-002
3.967023e+003;2.473937e-002
3.968952e+003;2.453439e-002
3.970880e+003;2.389873e-002
3.972809e+003;2.367747e-002
3.974737e+003;2.415304e-002
3.976666e+003;2.389936e-002
3.978594e+003;2.342138e-002
3.980523e+003;2.328938e-002
3.982452e+003;2.328638e-002
3.984380e+003;2.361977e-002
3.986309e+003;2.369538e-002
3.988237e+003;2.324901e-002
3.990166e+003;2.329550e-002
3.992094e+003;2.325600e-002
3.994023e+003;2.301997e-002
3.995951e+003;2.303820e-002
3.997880e+003;2.302870e-002
3.999809e+003;2.278046e-002
4.001737e+003;0.000000e+000
