3.992094e+002;0.000000e+000
4.011380e+002;0.000000e+000
4.030665e+002;0.000000e+000
4.049951e+002;0.000000e+000
4.069236e+002;0.000000e+000
4.088522e+002;0.000000e+000
4.107807e+002;0.000000e+000
4.127093e+002;0.000000e+000
4.146378e+002;0.000000e+000
4.165664e+002;0.000000e+000
4.184949e+002;0.000000e+000
4.204235e+002;0.000000e+000
4.223520e+002;0.000000e+000
4.242806e+002;0.000000e+000
4.262091e+002;0.000000e+000
4.281377e+002;0.000000e+000
4.300662e+002;0.000000e+000
4.319948e+002;0.000000e+000
4.339233e+002;0.000000e+000
4.358519e+002;0.000000e+000
4.377804e+002;0.000000e+000
4.397090e+002;0.000000e+000
4.416375e+002;0.000000e+000
4.435660e+002;0.000000e+000
4.454946e+002;0.000000e+000
4.474232e+002;0.000000e+000
4.493517e+002;0.000000e+000
4.512802e+002;0.000000e+000
4.532088e+002;0.000000e+000
4.551373e+002;0.000000e+000
4.570659e+002;0.000000e+000
4.589944e+002;0.000000e+000
4.609230e+002;0.000000e+000
4.628515e+002;0.000000e+000
4.647801e+002;0.000000e+000
4.667086e+002;0.000000e+000
4.686372e+002;0.000000e+000
4.705657e+002;0.000000e+000
4.724943e+002;0.000000e+000
4.744228e+002;0.000000e+000
4.763513e+002;0.000000e+000
4.782799e+002;0.000000e+000
4.802085e+002;0.000000e+000
4.821370e+002;0.000000e+000
4.840656e+002;0.000000e+000
4.859941e+002;0.000000e+000
4.879226e+002;0.000000e+000
4.898512e+002;0.000000e+000
4.917798e+002;0.000000e+000
4.937083e+002;0.000000e+000
4.956368e+002;0.000000e+000
4.975654e+002;0.000000e+000
4.994939e+002;0.000000e+000
5.014225e+002;0.000000e+000
5.033510e+002;0.000000e+000
5.052796e+002;0.000000e+000
5.072081e+002;0.000000e+000
5.091367e+002;0.000000e+000
5.110652e+002;0.000000e+000
5.129938e+002;0.000000e+000
5.149223e+002;0.000000e+000
5.168509e+002;0.000000e+000
5.187794e+002;0.000000e+000
5.207079e+002;0.000000e+000
5.226365e+002;0.000000e+000
5.245651e+002;0.000000e+000
5.264936e+002;0.000000e+000
5.284222e+002;0.000000e+000
5.303507e+002;0.000000e+000
5.322792e+002;0.000000e+000
5.342078e+002;0.000000e+000
5.361364e+002;0.000000e+000
5.380649e+002;0.000000e+000
5.399935e+002;0.000000e+000
5.419220e+002;0.000000e+000
5.438505e+002;0.000000e+000
5.457791e+002;0.000000e+000
5.477076e+002;0.000000e+000
5.496362e+002;0.000000e+000
5.515648e+002;0.000000e+000
5.534933e+002;0.000000e+000
5.554218e+002;0.000000e+000
5.573504e+002;0.000000e+000
5.592789e+002;0.000000e+000
5.612075e+002;0.000000e+000
5.631360e+002;0.000000e+000
5.650646e+002;0.000000e+000
5.669931e+002;0.000000e+000
5.689217e+002;0.000000e+000
5.708502e+002;0.000000e+000
5.727787e+002;0.000000e+000
5.747073e+002;0.000000e+000
5.766359e+002;0.000000e+000
5.785644e+002;0.000000e+000
5.804930e+002;0.000000e+000
5.824215e+002;0.000000e+000
5.843500e+002;0.000000e+000
5.862786e+002;0.000000e+000
5.882072e+002;0.000000e+000
5.901357e+002;0.000000e+000
5.920643e+002;0.000000e+000
5.939928e+002;0.000000e+000
5.959213e+002;0.000000e+000
5.978499e+002;0.000000e+000
5.997784e+002;1.772378e-001
6.017070e+002;1.804388e-001
6.036355e+002;1.766887e-001
6.055641e+002;1.732196e-001
6.074926e+002;1.725931e-001
6.094211e+002;1.725047e-001
6.113497e+002;1.698351e-001
6.132783e+002;1.680363e-001
6.152068e+002;1.726658e-001
6.171354e+002;1.751699e-001
6.190639e+002;1.712499e-001
6.209924e+002;1.694019e-001
6.229210e+002;1.680054e-001
6.248495e+002;1.661779e-001
6.267781e+002;1.676443e-001
6.287067e+002;1.675860e-001
6.306352e+002;1.645219e-001
6.325637e+002;1.638297e-001
6.344923e+002;1.655487e-001
6.364208e+002;1.639684e-001
6.383494e+002;1.599362e-001
6.402780e+002;1.600253e-001
6.422065e+002;1.617544e-001
6.441350e+002;1.627028e-001
6.460636e+002;1.642438e-001
6.479921e+002;1.639346e-001
6.499207e+002;1.611416e-001
6.518492e+002;1.568441e-001
6.537778e+002;1.536669e-001
6.557063e+002;1.514127e-001
6.576349e+002;1.520563e-001
6.595634e+002;1.552515e-001
6.614919e+002;1.556823e-001
6.634205e+002;1.538762e-001
6.653491e+002;1.538084e-001
6.672776e+002;1.538755e-001
6.692062e+002;1.538749e-001
6.711347e+002;1.538342e-001
6.730632e+002;1.531126e-001
6.749918e+002;1.512790e-001
6.769203e+002;1.486123e-001
6.788489e+002;1.460871e-001
6.807775e+002;1.448799e-001
6.827060e+002;1.444671e-001
6.846345e+002;1.439482e-001
6.865631e+002;1.421903e-001
6.884916e+002;1.401171e-001
6.904202e+002;1.407886e-001
6.923488e+002;1.425795e-001
6.942773e+002;1.419567e-001
6.962058e+002;1.404296e-001
6.981344e+002;1.390755e-001
7.000629e+002;1.382778e-001
7.019915e+002;1.384263e-001
7.039200e+002;1.377790e-001
7.058486e+002;1.359639e-001
7.077771e+002;1.339322e-001
7.097057e+002;1.329438e-001
7.116342e+002;1.318233e-001
7.135627e+002;1.307084e-001
7.154913e+002;1.297458e-001
7.174199e+002;1.289741e-001
7.193484e+002;1.279750e-001
7.212770e+002;1.260686e-001
7.232055e+002;1.255933e-001
7.251340e+002;1.255296e-001
7.270626e+002;1.244159e-001
7.289911e+002;1.233640e-001
7.309197e+002;1.224462e-001
7.328483e+002;1.219456e-001
7.347768e+002;1.219155e-001
7.367053e+002;1.218934e-001
7.386339e+002;1.221950e-001
7.405624e+002;1.230752e-001
7.424910e+002;1.231027e-001
7.444196e+002;1.219338e-001
7.463481e+002;1.207218e-001
7.482766e+002;1.191957e-001
7.502052e+002;1.177593e-001
7.521337e+002;1.167915e-001
7.540623e+002;1.168055e-001
7.559908e+002;1.164317e-001
7.579194e+002;1.148195e-001
7.598479e+002;1.141023e-001
7.617765e+002;1.132258e-001
7.637050e+002;1.122295e-001
7.656335e+002;1.118707e-001
7.675621e+002;1.111217e-001
7.694907e+002;1.102276e-001
7.714192e+002;1.092917e-001
7.733478e+002;1.084117e-001
7.752763e+002;1.075496e-001
7.772048e+002;1.069845e-001
7.791334e+002;1.066237e-001
7.810620e+002;1.062560e-001
7.829905e+002;1.054463e-001
7.849191e+002;1.046071e-001
7.868476e+002;1.043732e-001
7.887761e+002;1.041495e-001
7.907047e+002;1.038956e-001
7.926332e+002;1.036511e-001
7.945618e+002;1.026746e-001
7.964903e+002;1.014502e-001
7.984189e+002;1.012550e-001
8.003474e+002;1.019460e-001
8.022759e+002;1.021451e-001
8.042045e+002;1.013021e-001
8.061331e+002;1.009432e-001
8.080616e+002;1.005838e-001
8.099902e+002;9.972603e-002
8.119187e+002;9.945174e-002
8.138472e+002;9.928146e-002
8.157758e+002;9.938129e-002
8.177043e+002;9.909339e-002
8.196329e+002;9.905472e-002
8.215615e+002;9.975605e-002
8.234900e+002;1.002915e-001
8.254185e+002;1.003553e-001
8.273471e+002;9.984870e-002
8.292756e+002;9.939262e-002
8.312042e+002;9.926060e-002
8.331328e+002;9.857496e-002
8.350613e+002;9.754072e-002
8.369898e+002;9.628390e-002
8.389184e+002;9.537836e-002
8.408469e+002;9.469750e-002
8.427755e+002;9.387648e-002
8.447040e+002;9.311207e-002
8.466326e+002;9.319673e-002
8.485611e+002;9.307114e-002
8.504897e+002;9.244417e-002
8.524182e+002;9.161264e-002
8.543467e+002;9.119517e-002
8.562753e+002;9.094553e-002
8.582039e+002;9.056936e-002
8.601324e+002;9.026525e-002
8.620610e+002;9.005618e-002
8.639895e+002;8.989114e-002
8.659180e+002;8.972559e-002
8.678466e+002;8.984359e-002
8.697751e+002;9.023312e-002
8.717037e+002;9.061071e-002
8.736323e+002;9.059789e-002
8.755608e+002;9.090202e-002
8.774893e+002;9.158175e-002
8.794179e+002;9.183965e-002
8.813464e+002;9.201555e-002
8.832750e+002;9.228405e-002
8.852036e+002;9.209112e-002
8.871321e+002;9.135187e-002
8.890606e+002;9.077766e-002
8.909892e+002;9.082095e-002
8.929177e+002;9.066733e-002
8.948463e+002;9.029540e-002
8.967748e+002;9.037630e-002
8.987034e+002;9.030372e-002
9.006319e+002;8.974376e-002
9.025605e+002;8.937221e-002
9.044890e+002;8.979025e-002
9.064175e+002;9.036797e-002
9.083461e+002;9.028173e-002
9.102747e+002;9.022545e-002
9.122032e+002;9.010796e-002
9.141318e+002;8.993768e-002
9.160603e+002;9.041342e-002
9.179888e+002;9.087437e-002
9.199174e+002;9.070134e-002
9.218459e+002;9.065104e-002
9.237745e+002;9.101111e-002
9.257031e+002;9.117077e-002
9.276316e+002;9.100629e-002
9.295601e+002;9.060311e-002
9.314887e+002;9.065533e-002
9.334172e+002;9.083773e-002
9.353458e+002;9.053071e-002
9.372744e+002;9.003058e-002
9.392029e+002;8.954923e-002
9.411314e+002;8.935271e-002
9.430600e+002;8.945122e-002
9.449885e+002;8.925503e-002
9.469171e+002;8.900736e-002
9.488456e+002;8.884507e-002
9.507742e+002;8.918253e-002
9.527027e+002;8.966844e-002
9.546313e+002;8.977477e-002
9.565598e+002;8.968835e-002
9.584883e+002;9.002014e-002
9.604169e+002;9.053043e-002
9.623455e+002;9.084092e-002
9.642740e+002;9.110787e-002
9.662026e+002;9.149690e-002
9.681311e+002;9.188788e-002
9.700596e+002;9.236085e-002
9.719882e+002;9.260999e-002
9.739167e+002;9.232999e-002
9.758453e+002;9.192051e-002
9.777739e+002;9.230277e-002
9.797024e+002;9.276918e-002
9.816309e+002;9.333277e-002
9.835595e+002;9.421416e-002
9.854880e+002;9.506898e-002
9.874166e+002;9.604872e-002
9.893452e+002;9.697239e-002
9.912737e+002;9.774853e-002
9.932022e+002;9.806341e-002
9.951307e+002;9.782398e-002
9.970593e+002;9.758174e-002
9.989879e+002;9.756947e-002
1.000916e+003;9.765442e-002
1.002845e+003;9.835021e-002
1.004773e+003;9.967259e-002
1.006702e+003;1.009210e-001
1.008631e+003;1.023447e-001
1.010559e+003;1.042112e-001
1.012488e+003;1.056243e-001
1.014416e+003;1.071499e-001
1.016345e+003;1.091048e-001
1.018273e+003;1.110074e-001
1.020202e+003;1.126578e-001
1.022130e+003;1.143681e-001
1.024059e+003;1.161223e-001
1.025988e+003;1.176617e-001
1.027916e+003;1.193946e-001
1.029845e+003;1.215065e-001
1.031773e+003;1.236504e-001
1.033702e+003;1.256402e-001
1.035630e+003;1.277405e-001
1.037559e+003;1.298639e-001
1.039487e+003;1.315779e-001
1.041416e+003;1.328188e-001
1.043344e+003;1.338152e-001
1.045273e+003;1.339261e-001
1.047202e+003;1.325895e-001
1.049130e+003;1.306187e-001
1.051059e+003;1.283412e-001
1.052987e+003;1.260135e-001
1.054916e+003;1.245502e-001
1.056844e+003;1.238622e-001
1.058773e+003;1.236723e-001
1.060701e+003;1.238781e-001
1.062630e+003;1.242372e-001
1.064558e+003;1.245814e-001
1.066487e+003;1.250026e-001
1.068416e+003;1.255875e-001
1.070344e+003;1.260306e-001
1.072273e+003;1.262735e-001
1.074201e+003;1.264258e-001
1.076130e+003;1.263300e-001
1.078058e+003;1.261155e-001
1.079987e+003;1.257354e-001
1.081915e+003;1.253969e-001
1.083844e+003;1.248683e-001
1.085773e+003;1.248186e-001
1.087701e+003;1.247796e-001
1.089630e+003;1.246217e-001
1.091558e+003;1.246344e-001
1.093487e+003;1.245207e-001
1.095415e+003;1.240729e-001
1.097344e+003;1.237170e-001
1.099272e+003;1.239273e-001
1.101201e+003;1.240375e-001
1.103129e+003;1.235935e-001
1.105058e+003;1.230683e-001
1.106987e+003;1.227275e-001
1.108915e+003;1.221452e-001
1.110844e+003;1.216408e-001
1.112772e+003;1.213450e-001
1.114701e+003;1.208408e-001
1.116629e+003;1.200757e-001
1.118558e+003;1.201079e-001
1.120486e+003;1.202625e-001
1.122415e+003;1.199596e-001
1.124344e+003;1.199467e-001
1.126272e+003;1.202354e-001
1.128201e+003;1.202050e-001
1.130129e+003;1.199380e-001
1.132058e+003;1.200597e-001
1.133986e+003;1.205535e-001
1.135915e+003;1.212973e-001
1.137843e+003;1.220884e-001
1.139772e+003;1.230283e-001
1.141700e+003;1.237145e-001
1.143629e+003;1.242463e-001
1.145557e+003;1.246745e-001
1.147486e+003;1.252591e-001
1.149415e+003;1.263774e-001
1.151343e+003;1.276107e-001
1.153272e+003;1.284013e-001
1.155200e+003;1.287087e-001
1.157129e+003;1.289215e-001
1.159057e+003;1.289856e-001
1.160986e+003;1.289611e-001
1.162914e+003;1.295265e-001
1.164843e+003;1.305642e-001
1.166771e+003;1.314937e-001
1.168700e+003;1.319198e-001
1.170629e+003;1.322632e-001
1.172557e+003;1.325957e-001
1.174486e+003;1.329443e-001
1.176414e+003;1.333531e-001
1.178343e+003;1.337134e-001
1.180271e+003;1.339506e-001
1.182200e+003;1.341359e-001
1.184128e+003;1.347983e-001
1.186057e+003;1.356751e-001
1.187986e+003;1.358590e-001
1.189914e+003;1.356579e-001
1.191843e+003;1.357828e-001
1.193771e+003;1.361267e-001
1.195700e+003;1.363474e-001
1.197628e+003;1.366719e-001
1.199557e+003;1.370387e-001
1.201485e+003;1.371326e-001
1.203414e+003;1.372625e-001
1.205343e+003;1.372977e-001
1.207271e+003;1.375242e-001
1.209200e+003;1.383281e-001
1.211128e+003;1.389626e-001
1.213057e+003;1.396630e-001
1.214985e+003;1.404970e-001
1.216914e+003;1.411697e-001
1.218842e+003;1.421660e-001
1.220771e+003;1.430381e-001
1.222699e+003;1.432275e-001
1.224628e+003;1.434640e-001
1.226557e+003;1.440309e-001
1.228485e+003;1.446016e-001
1.230414e+003;1.448167e-001
1.232342e+003;1.447237e-001
1.234271e+003;1.444663e-001
1.236199e+003;1.440634e-001
1.238128e+003;1.437535e-001
1.240056e+003;1.430682e-001
1.241985e+003;1.421512e-001
1.243913e+003;1.416563e-001
1.245842e+003;1.409582e-001
1.247771e+003;1.399698e-001
1.249699e+003;1.393011e-001
1.251628e+003;1.387702e-001
1.253556e+003;1.382944e-001
1.255485e+003;1.377795e-001
1.257413e+003;1.370524e-001
1.259342e+003;1.361773e-001
1.261270e+003;1.351734e-001
1.263199e+003;1.340596e-001
1.265127e+003;1.330840e-001
1.267056e+003;1.324353e-001
1.268985e+003;1.317583e-001
1.270913e+003;1.311169e-001
1.272842e+003;1.307834e-001
1.274770e+003;1.306005e-001
1.276699e+003;1.302431e-001
1.278627e+003;1.300392e-001
1.280556e+003;1.301292e-001
1.282484e+003;1.300981e-001
1.284413e+003;1.298885e-001
1.286342e+003;1.297846e-001
1.288270e+003;1.296292e-001
1.290199e+003;1.297690e-001
1.292127e+003;1.301211e-001
1.294056e+003;1.303476e-001
1.295984e+003;1.304504e-001
1.297913e+003;1.304132e-001
1.299841e+003;1.302257e-001
1.301770e+003;1.297048e-001
1.303698e+003;1.291080e-001
1.305627e+003;1.287050e-001
1.307556e+003;1.286521e-001
1.309484e+003;1.287921e-001
1.311413e+003;1.288374e-001
1.313341e+003;1.291509e-001
1.315270e+003;1.295810e-001
1.317198e+003;1.298489e-001
1.319127e+003;1.301704e-001
1.321055e+003;1.305757e-001
1.322984e+003;1.309191e-001
1.324912e+003;1.311824e-001
1.326841e+003;1.311651e-001
1.328770e+003;1.310261e-001
1.330698e+003;1.309626e-001
1.332627e+003;1.305968e-001
1.334555e+003;1.297267e-001
1.336484e+003;1.286517e-001
1.338412e+003;1.279065e-001
1.340341e+003;1.272373e-001
1.342269e+003;1.265252e-001
1.344198e+003;1.256732e-001
1.346126e+003;1.248908e-001
1.348055e+003;1.241524e-001
1.349984e+003;1.235087e-001
1.351912e+003;1.229255e-001
1.353841e+003;1.225074e-001
1.355769e+003;1.222320e-001
1.357698e+003;1.221502e-001
1.359626e+003;1.222185e-001
1.361555e+003;1.225896e-001
1.363483e+003;1.234415e-001
1.365412e+003;1.244749e-001
1.367341e+003;1.255026e-001
1.369269e+003;1.264005e-001
1.371198e+003;1.267963e-001
1.373126e+003;1.267987e-001
1.375055e+003;1.270789e-001
1.376983e+003;1.277769e-001
1.378912e+003;1.285160e-001
1.380840e+003;1.293249e-001
1.382769e+003;1.301589e-001
1.384698e+003;1.307390e-001
1.386626e+003;1.307401e-001
1.388555e+003;1.307884e-001
1.390483e+003;1.309179e-001
1.392412e+003;1.303858e-001
1.394340e+003;1.296404e-001
1.396269e+003;1.296790e-001
1.398197e+003;1.297200e-001
1.400126e+003;1.297905e-001
1.402054e+003;1.299050e-001
1.403983e+003;1.298283e-001
1.405911e+003;1.299905e-001
1.407840e+003;1.302867e-001
1.409769e+003;1.302067e-001
1.411697e+003;1.298909e-001
1.413626e+003;1.296664e-001
1.415554e+003;1.293454e-001
1.417483e+003;1.285896e-001
1.419411e+003;1.283200e-001
1.421340e+003;1.293180e-001
1.423268e+003;1.299848e-001
1.425197e+003;1.305105e-001
1.427125e+003;1.310973e-001
1.429054e+003;1.316705e-001
1.430983e+003;1.328568e-001
1.432911e+003;1.346223e-001
1.434840e+003;1.354468e-001
1.436768e+003;1.360229e-001
1.438697e+003;1.379737e-001
1.440625e+003;1.395441e-001
1.442554e+003;1.401019e-001
1.444482e+003;1.403485e-001
1.446411e+003;1.404324e-001
1.448340e+003;1.405530e-001
1.450268e+003;1.410865e-001
1.452197e+003;1.411946e-001
1.454125e+003;1.403774e-001
1.456054e+003;1.384584e-001
1.457982e+003;1.384840e-001
1.459911e+003;1.397790e-001
1.461839e+003;1.394082e-001
1.463768e+003;1.379453e-001
1.465697e+003;1.371313e-001
1.467625e+003;1.368482e-001
1.469554e+003;1.357973e-001
1.471482e+003;1.340643e-001
1.473411e+003;1.333819e-001
1.475339e+003;1.339684e-001
1.477268e+003;1.349831e-001
1.479196e+003;1.365948e-001
1.481125e+003;1.384466e-001
1.483053e+003;1.409924e-001
1.484982e+003;1.440693e-001
1.486911e+003;1.472922e-001
1.488839e+003;1.507320e-001
1.490768e+003;1.551347e-001
1.492696e+003;1.600627e-001
1.494625e+003;1.638295e-001
1.496553e+003;1.675610e-001
1.498482e+003;1.722003e-001
1.500410e+003;1.765723e-001
1.502339e+003;1.798471e-001
1.504267e+003;1.808866e-001
1.506196e+003;1.814174e-001
1.508125e+003;1.846713e-001
1.510053e+003;1.881822e-001
1.511982e+003;1.903044e-001
1.513910e+003;1.912472e-001
1.515839e+003;1.903341e-001
1.517767e+003;1.889114e-001
1.519696e+003;1.865668e-001
1.521624e+003;1.842260e-001
1.523553e+003;1.835337e-001
1.525481e+003;1.827193e-001
1.527410e+003;1.822789e-001
1.529339e+003;1.816750e-001
1.531267e+003;1.799761e-001
1.533196e+003;1.777985e-001
1.535124e+003;1.763338e-001
1.537053e+003;1.734895e-001
1.538981e+003;1.691242e-001
1.540910e+003;1.666677e-001
1.542838e+003;1.656882e-001
1.544767e+003;1.642280e-001
1.546695e+003;1.621298e-001
1.548624e+003;1.593271e-001
1.550553e+003;1.560113e-001
1.552481e+003;1.521192e-001
1.554410e+003;1.479014e-001
1.556338e+003;1.434203e-001
1.558267e+003;1.382010e-001
1.560195e+003;1.360929e-001
1.562124e+003;1.358852e-001
1.564052e+003;1.338038e-001
1.565981e+003;1.314525e-001
1.567910e+003;1.291498e-001
1.569838e+003;1.274295e-001
1.571767e+003;1.270830e-001
1.573695e+003;1.258543e-001
1.575624e+003;1.239941e-001
1.577552e+003;1.247708e-001
1.579481e+003;1.264329e-001
1.581409e+003;1.272606e-001
1.583338e+003;1.281693e-001
1.585266e+003;1.293909e-001
1.587195e+003;1.310209e-001
1.589124e+003;1.330615e-001
1.591052e+003;1.352457e-001
1.592981e+003;1.372720e-001
1.594909e+003;1.393331e-001
1.596838e+003;1.418102e-001
1.598766e+003;1.448235e-001
1.600695e+003;1.483092e-001
1.602623e+003;1.521717e-001
1.604552e+003;1.561520e-001
1.606480e+003;1.606010e-001
1.608409e+003;1.654536e-001
1.610338e+003;1.702728e-001
1.612266e+003;1.748299e-001
1.614195e+003;1.782338e-001
1.616123e+003;1.809042e-001
1.618052e+003;1.855350e-001
1.619980e+003;1.902447e-001
1.621909e+003;1.934561e-001
1.623837e+003;1.967094e-001
1.625766e+003;1.998750e-001
1.627694e+003;2.021215e-001
1.629623e+003;2.040181e-001
1.631552e+003;2.053079e-001
1.633480e+003;2.051649e-001
1.635409e+003;2.044904e-001
1.637337e+003;2.053278e-001
1.639266e+003;2.060838e-001
1.641194e+003;2.056823e-001
1.643123e+003;2.043910e-001
1.645051e+003;2.018828e-001
1.646980e+003;1.997156e-001
1.648909e+003;1.982601e-001
1.650837e+003;1.940539e-001
1.652766e+003;1.882731e-001
1.654694e+003;1.867537e-001
1.656623e+003;1.856119e-001
1.658551e+003;1.819723e-001
1.660480e+003;1.774537e-001
1.662408e+003;1.728804e-001
1.664337e+003;1.688119e-001
1.666266e+003;1.644989e-001
1.668194e+003;1.595257e-001
1.670123e+003;1.551737e-001
1.672051e+003;1.517855e-001
1.673980e+003;1.475786e-001
1.675908e+003;1.434106e-001
1.677837e+003;1.400630e-001
1.679765e+003;1.359754e-001
1.681694e+003;1.308830e-001
1.683622e+003;1.247130e-001
1.685551e+003;1.210692e-001
1.687479e+003;1.188555e-001
1.689408e+003;1.152559e-001
1.691337e+003;1.110770e-001
1.693265e+003;1.058702e-001
1.695194e+003;9.958278e-002
1.697122e+003;9.491076e-002
1.699051e+003;8.990137e-002
1.700979e+003;8.587419e-002
1.702908e+003;8.374775e-002
1.704836e+003;8.017074e-002
1.706765e+003;7.696020e-002
1.708693e+003;7.412132e-002
1.710622e+003;7.131763e-002
1.712551e+003;6.824243e-002
1.714479e+003;6.484630e-002
1.716408e+003;6.143182e-002
1.718336e+003;6.014599e-002
1.720265e+003;6.027628e-002
1.722193e+003;5.934619e-002
1.724122e+003;5.795105e-002
1.726050e+003;5.678248e-002
1.727979e+003;5.568363e-002
1.729908e+003;5.460920e-002
1.731836e+003;5.262470e-002
1.733765e+003;5.038013e-002
1.735693e+003;5.069946e-002
1.737622e+003;5.093822e-002
1.739550e+003;4.972588e-002
1.741479e+003;4.909124e-002
1.743407e+003;4.845734e-002
1.745336e+003;4.751793e-002
1.747265e+003;4.648856e-002
1.749193e+003;4.528684e-002
1.751122e+003;4.434343e-002
1.753050e+003;4.421420e-002
1.754979e+003;4.373551e-002
1.756907e+003;4.330119e-002
1.758836e+003;4.309887e-002
1.760764e+003;4.219236e-002
1.762693e+003;4.171326e-002
1.764621e+003;4.188549e-002
1.766550e+003;4.128647e-002
1.768479e+003;4.058843e-002
1.770407e+003;3.971230e-002
1.772336e+003;3.905648e-002
1.774264e+003;3.945877e-002
1.776193e+003;3.975224e-002
1.778121e+003;3.959922e-002
1.780050e+003;3.937086e-002
1.781978e+003;3.930731e-002
1.783907e+003;3.908508e-002
1.785835e+003;3.898050e-002
1.787764e+003;3.891523e-002
1.789693e+003;3.809784e-002
1.791621e+003;3.719629e-002
1.793550e+003;3.729535e-002
1.795478e+003;3.773439e-002
1.797407e+003;3.766262e-002
1.799335e+003;3.740137e-002
1.801264e+003;3.729098e-002
1.803192e+003;3.733561e-002
1.805121e+003;3.718846e-002
1.807049e+003;3.710493e-002
1.808978e+003;3.681036e-002
1.810907e+003;3.661912e-002
1.812835e+003;3.672678e-002
1.814764e+003;3.662889e-002
1.816692e+003;3.647365e-002
1.818621e+003;3.651805e-002
1.820549e+003;3.634073e-002
1.822478e+003;3.596780e-002
1.824406e+003;3.562498e-002
1.826335e+003;3.565800e-002
1.828264e+003;3.533486e-002
1.830192e+003;3.507558e-002
1.832121e+003;3.535661e-002
1.834049e+003;3.550448e-002
1.835978e+003;3.539403e-002
1.837906e+003;3.541466e-002
1.839835e+003;3.541765e-002
1.841763e+003;3.496510e-002
1.843692e+003;3.412665e-002
1.845620e+003;3.416131e-002
1.847549e+003;3.455417e-002
1.849478e+003;3.470987e-002
1.851406e+003;3.460006e-002
1.853335e+003;3.443949e-002
1.855263e+003;3.448859e-002
1.857192e+003;3.443292e-002
1.859120e+003;3.426237e-002
1.861049e+003;3.426753e-002
1.862977e+003;3.423125e-002
1.864906e+003;3.407263e-002
1.866834e+003;3.369216e-002
1.868763e+003;3.351191e-002
1.870692e+003;3.391383e-002
1.872620e+003;3.430453e-002
1.874549e+003;3.441029e-002
1.876477e+003;3.430471e-002
1.878406e+003;3.423394e-002
1.880334e+003;3.427172e-002
1.882263e+003;3.424878e-002
1.884191e+003;3.413772e-002
1.886120e+003;3.402207e-002
1.888048e+003;3.385203e-002
1.889977e+003;3.379165e-002
1.891906e+003;3.399369e-002
1.893834e+003;3.404282e-002
1.895763e+003;3.407224e-002
1.897691e+003;3.397850e-002
1.899620e+003;3.392429e-002
1.901548e+003;3.405712e-002
1.903477e+003;3.414690e-002
1.905405e+003;3.408339e-002
1.907334e+003;3.401006e-002
1.909262e+003;3.388080e-002
1.911191e+003;3.389850e-002
1.913120e+003;3.391637e-002
1.915048e+003;3.371888e-002
1.916977e+003;3.329181e-002
1.918905e+003;3.328548e-002
1.920834e+003;3.346435e-002
1.922762e+003;3.346625e-002
1.924691e+003;3.369524e-002
1.926619e+003;3.387905e-002
1.928548e+003;3.380060e-002
1.930477e+003;3.374409e-002
1.932405e+003;3.373241e-002
1.934334e+003;3.365013e-002
1.936262e+003;3.349295e-002
1.938191e+003;3.353732e-002
1.940119e+003;3.352068e-002
1.942048e+003;3.322256e-002
1.943976e+003;3.338086e-002
1.945905e+003;3.370119e-002
1.947833e+003;3.374710e-002
1.949762e+003;3.377094e-002
1.951691e+003;3.381009e-002
1.953619e+003;3.388148e-002
1.955548e+003;3.389362e-002
1.957476e+003;3.390903e-002
1.959405e+003;3.387378e-002
1.961333e+003;3.378656e-002
1.963262e+003;3.376199e-002
1.965190e+003;3.375519e-002
1.967119e+003;3.360777e-002
1.969047e+003;3.360090e-002
1.970976e+003;3.381944e-002
1.972905e+003;3.397309e-002
1.974833e+003;3.394865e-002
1.976762e+003;3.397409e-002
1.978690e+003;3.406841e-002
1.980619e+003;3.389047e-002
1.982547e+003;3.363434e-002
1.984476e+003;3.384616e-002
1.986404e+003;3.407733e-002
1.988333e+003;3.402526e-002
1.990261e+003;3.382893e-002
1.992190e+003;3.368024e-002
1.994119e+003;3.376142e-002
1.996047e+003;3.385300e-002
1.997976e+003;3.385673e-002
1.999904e+003;3.392608e-002
2.001833e+003;3.392522e-002
2.003761e+003;3.385569e-002
2.005690e+003;3.398032e-002
2.007618e+003;3.414073e-002
2.009547e+003;3.414941e-002
2.011476e+003;3.428345e-002
2.013404e+003;3.416353e-002
2.015333e+003;3.389835e-002
2.017261e+003;3.380121e-002
2.019190e+003;3.403959e-002
2.021118e+003;3.416303e-002
2.023047e+003;3.418597e-002
2.024975e+003;3.426000e-002
2.026904e+003;3.417160e-002
2.028833e+003;3.409740e-002
2.030761e+003;3.418751e-002
2.032690e+003;3.417593e-002
2.034618e+003;3.418862e-002
2.036547e+003;3.437927e-002
2.038475e+003;3.438196e-002
2.040404e+003;3.427230e-002
2.042332e+003;3.434990e-002
2.044261e+003;3.434448e-002
2.046189e+003;3.437772e-002
2.048118e+003;3.447948e-002
2.050047e+003;3.443590e-002
2.051975e+003;3.448576e-002
2.053904e+003;3.467105e-002
2.055832e+003;3.479753e-002
2.057761e+003;3.473091e-002
2.059689e+003;3.460800e-002
2.061618e+003;3.452845e-002
2.063546e+003;3.463042e-002
2.065475e+003;3.466322e-002
2.067404e+003;3.451528e-002
2.069332e+003;3.447898e-002
2.071260e+003;3.473748e-002
2.073189e+003;3.487425e-002
2.075118e+003;3.474265e-002
2.077046e+003;3.469179e-002
2.078975e+003;3.469602e-002
2.080903e+003;3.481713e-002
2.082832e+003;3.500083e-002
2.084760e+003;3.468253e-002
2.086689e+003;3.439874e-002
2.088617e+003;3.460139e-002
2.090546e+003;3.477319e-002
2.092475e+003;3.474024e-002
2.094403e+003;3.475693e-002
2.096332e+003;3.477021e-002
2.098260e+003;3.475575e-002
2.100189e+003;3.474602e-002
2.102117e+003;3.468041e-002
2.104046e+003;3.467194e-002
2.105974e+003;3.469304e-002
2.107903e+003;3.458657e-002
2.109832e+003;3.447744e-002
2.111760e+003;3.447245e-002
2.113688e+003;3.456275e-002
2.115617e+003;3.448207e-002
2.117546e+003;3.446718e-002
2.119474e+003;3.452253e-002
2.121403e+003;3.447869e-002
2.123331e+003;3.433433e-002
2.125260e+003;3.424534e-002
2.127188e+003;3.428750e-002
2.129117e+003;3.430052e-002
2.131045e+003;3.442604e-002
2.132974e+003;3.457814e-002
2.134903e+003;3.452687e-002
2.136831e+003;3.445828e-002
2.138760e+003;3.439967e-002
2.140688e+003;3.432436e-002
2.142617e+003;3.436969e-002
2.144545e+003;3.433935e-002
2.146474e+003;3.414206e-002
2.148402e+003;3.411611e-002
2.150331e+003;3.425885e-002
2.152260e+003;3.426997e-002
2.154188e+003;3.423114e-002
2.156117e+003;3.416088e-002
2.158045e+003;3.410077e-002
2.159974e+003;3.408826e-002
2.161902e+003;3.420020e-002
2.163831e+003;3.423139e-002
2.165759e+003;3.414600e-002
2.167688e+003;3.416583e-002
2.169616e+003;3.420992e-002
2.171545e+003;3.402300e-002
2.173474e+003;3.388990e-002
2.175402e+003;3.394718e-002
2.177331e+003;3.398599e-002
2.179259e+003;3.405024e-002
2.181188e+003;3.417389e-002
2.183116e+003;3.400111e-002
2.185045e+003;3.369163e-002
2.186973e+003;3.366964e-002
2.188902e+003;3.393056e-002
2.190831e+003;3.405547e-002
2.192759e+003;3.400670e-002
2.194688e+003;3.401326e-002
2.196616e+003;3.411485e-002
2.198545e+003;3.431332e-002
2.200473e+003;3.431712e-002
2.202402e+003;3.408389e-002
2.204330e+003;3.385211e-002
2.206259e+003;3.385393e-002
2.208188e+003;3.386296e-002
2.210116e+003;3.373245e-002
2.212044e+003;3.393196e-002
2.213973e+003;3.427825e-002
2.215902e+003;3.415023e-002
2.217830e+003;3.386486e-002
2.219759e+003;3.385343e-002
2.221687e+003;3.389552e-002
2.223616e+003;3.377786e-002
2.225544e+003;3.375712e-002
2.227473e+003;3.394571e-002
2.229401e+003;3.401877e-002
2.231330e+003;3.392612e-002
2.233259e+003;3.384609e-002
2.235187e+003;3.362335e-002
2.237116e+003;3.354320e-002
2.239044e+003;3.380948e-002
2.240973e+003;3.385472e-002
2.242901e+003;3.366076e-002
2.244830e+003;3.370828e-002
2.246758e+003;3.383097e-002
2.248687e+003;3.369069e-002
2.250615e+003;3.372002e-002
2.252544e+003;3.382137e-002
2.254473e+003;3.375974e-002
2.256401e+003;3.383695e-002
2.258330e+003;3.393955e-002
2.260258e+003;3.390441e-002
2.262187e+003;3.370373e-002
2.264115e+003;3.355168e-002
2.266044e+003;3.362055e-002
2.267972e+003;3.378985e-002
2.269901e+003;3.378405e-002
2.271830e+003;3.376217e-002
2.273758e+003;3.394170e-002
2.275687e+003;3.391236e-002
2.277615e+003;3.374154e-002
2.279544e+003;3.380432e-002
2.281472e+003;3.383080e-002
2.283401e+003;3.377875e-002
2.285329e+003;3.379498e-002
2.287258e+003;3.388238e-002
2.289187e+003;3.396560e-002
2.291115e+003;3.397140e-002
2.293043e+003;3.381693e-002
2.294972e+003;3.364791e-002
2.296901e+003;3.363151e-002
2.298829e+003;3.393948e-002
2.300758e+003;3.421737e-002
2.302686e+003;3.416647e-002
2.304615e+003;3.397656e-002
2.306543e+003;3.391179e-002
2.308472e+003;3.396954e-002
2.310400e+003;3.388352e-002
2.312329e+003;3.380572e-002
2.314258e+003;3.387865e-002
2.316186e+003;3.388008e-002
2.318115e+003;3.378316e-002
2.320043e+003;3.363953e-002
2.321972e+003;3.367093e-002
2.323900e+003;3.362438e-002
2.325829e+003;3.332161e-002
2.327757e+003;3.320671e-002
2.329686e+003;3.329077e-002
2.331615e+003;3.336394e-002
2.333543e+003;3.349269e-002
2.335472e+003;3.348171e-002
2.337400e+003;3.342112e-002
2.339329e+003;3.364540e-002
2.341257e+003;3.389022e-002
2.343186e+003;3.389409e-002
2.345114e+003;3.366728e-002
2.347043e+003;3.357530e-002
2.348971e+003;3.386432e-002
2.350900e+003;3.404443e-002
2.352829e+003;3.371759e-002
2.354757e+003;3.359249e-002
2.356686e+003;3.364035e-002
2.358614e+003;3.348761e-002
2.360543e+003;3.338988e-002
2.362471e+003;3.356127e-002
2.364400e+003;3.368378e-002
2.366328e+003;3.382796e-002
2.368257e+003;3.400290e-002
2.370186e+003;3.401161e-002
2.372114e+003;3.414292e-002
2.374042e+003;3.463179e-002
2.375971e+003;3.489303e-002
2.377900e+003;3.479193e-002
2.379828e+003;3.502518e-002
2.381757e+003;3.526769e-002
2.383685e+003;3.520549e-002
2.385614e+003;3.513115e-002
2.387542e+003;3.529961e-002
2.389471e+003;3.530755e-002
2.391399e+003;3.524617e-002
2.393328e+003;3.531585e-002
2.395257e+003;3.566588e-002
2.397185e+003;3.595103e-002
2.399114e+003;3.596377e-002
2.401042e+003;3.601536e-002
2.402971e+003;3.600863e-002
2.404899e+003;3.592713e-002
2.406828e+003;3.581582e-002
2.408756e+003;3.613626e-002
2.410685e+003;3.639679e-002
2.412614e+003;3.625082e-002
2.414542e+003;3.648641e-002
2.416471e+003;3.663336e-002
2.418399e+003;3.660895e-002
2.420328e+003;3.688333e-002
2.422256e+003;3.714731e-002
2.424185e+003;3.731957e-002
2.426113e+003;3.720419e-002
2.428042e+003;3.721950e-002
2.429970e+003;3.737616e-002
2.431899e+003;3.751442e-002
2.433828e+003;3.743170e-002
2.435756e+003;3.741181e-002
2.437685e+003;3.750987e-002
2.439613e+003;3.755278e-002
2.441542e+003;3.765236e-002
2.443470e+003;3.773255e-002
2.445399e+003;3.777849e-002
2.447327e+003;3.799599e-002
2.449256e+003;3.821230e-002
2.451185e+003;3.812805e-002
2.453113e+003;3.819338e-002
2.455042e+003;3.843901e-002
2.456970e+003;3.849965e-002
2.458899e+003;3.836440e-002
2.460827e+003;3.841631e-002
2.462756e+003;3.861671e-002
2.464684e+003;3.879015e-002
2.466613e+003;3.904611e-002
2.468542e+003;3.903277e-002
2.470470e+003;3.862718e-002
2.472398e+003;3.858770e-002
2.474327e+003;3.888852e-002
2.476256e+003;3.913773e-002
2.478184e+003;3.924387e-002
2.480113e+003;3.947223e-002
2.482041e+003;3.971691e-002
2.483970e+003;3.976531e-002
2.485898e+003;3.970707e-002
2.487827e+003;3.967908e-002
2.489755e+003;3.966924e-002
2.491684e+003;3.986245e-002
2.493613e+003;3.999577e-002
2.495541e+003;4.008275e-002
2.497470e+003;4.031854e-002
2.499398e+003;4.034842e-002
2.501327e+003;4.036551e-002
2.503255e+003;4.046897e-002
2.505184e+003;4.046534e-002
2.507112e+003;4.058479e-002
2.509041e+003;4.089478e-002
2.510969e+003;4.086078e-002
2.512898e+003;4.075526e-002
2.514827e+003;4.100496e-002
2.516755e+003;4.108614e-002
2.518684e+003;4.108559e-002
2.520612e+003;4.121134e-002
2.522541e+003;4.128607e-002
2.524469e+003;4.146013e-002
2.526398e+003;4.150227e-002
2.528326e+003;4.139984e-002
2.530255e+003;4.161038e-002
2.532184e+003;4.178293e-002
2.534112e+003;4.187633e-002
2.536041e+003;4.211846e-002
2.537969e+003;4.216688e-002
2.539898e+003;4.219609e-002
2.541826e+003;4.212354e-002
2.543755e+003;4.201636e-002
2.545683e+003;4.207352e-002
2.547612e+003;4.208988e-002
2.549541e+003;4.210350e-002
2.551469e+003;4.230758e-002
2.553397e+003;4.245443e-002
2.555326e+003;4.252484e-002
2.557255e+003;4.263138e-002
2.559183e+003;4.269148e-002
2.561112e+003;4.288812e-002
2.563040e+003;4.289891e-002
2.564969e+003;4.299646e-002
2.566897e+003;4.309613e-002
2.568826e+003;4.302273e-002
2.570754e+003;4.319391e-002
2.572683e+003;4.356261e-002
2.574612e+003;4.363823e-002
2.576540e+003;4.351309e-002
2.578469e+003;4.354269e-002
2.580397e+003;4.387848e-002
2.582326e+003;4.409613e-002
2.584254e+003;4.399077e-002
2.586183e+003;4.401868e-002
2.588111e+003;4.410115e-002
2.590040e+003;4.423651e-002
2.591969e+003;4.444986e-002
2.593897e+003;4.491225e-002
2.595826e+003;4.510418e-002
2.597754e+003;4.490329e-002
2.599683e+003;4.497057e-002
2.601611e+003;4.523977e-002
2.603540e+003;4.531762e-002
2.605468e+003;4.535017e-002
2.607397e+003;4.533663e-002
2.609325e+003;4.535903e-002
2.611254e+003;4.551211e-002
2.613183e+003;4.561139e-002
2.615111e+003;4.576191e-002
2.617040e+003;4.596791e-002
2.618968e+003;4.604360e-002
2.620897e+003;4.602662e-002
2.622825e+003;4.608848e-002
2.624754e+003;4.631059e-002
2.626682e+003;4.641256e-002
2.628611e+003;4.635601e-002
2.630540e+003;4.631664e-002
2.632468e+003;4.636430e-002
2.634396e+003;4.654639e-002
2.636325e+003;4.683222e-002
2.638254e+003;4.699508e-002
2.640182e+003;4.691596e-002
2.642111e+003;4.685218e-002
2.644039e+003;4.685716e-002
2.645968e+003;4.681734e-002
2.647896e+003;4.709382e-002
2.649825e+003;4.721256e-002
2.651753e+003;4.707919e-002
2.653682e+003;4.712517e-002
2.655611e+003;4.728049e-002
2.657539e+003;4.743011e-002
2.659468e+003;4.743107e-002
2.661396e+003;4.745894e-002
2.663325e+003;4.733348e-002
2.665253e+003;4.739201e-002
2.667182e+003;4.766271e-002
2.669110e+003;4.802861e-002
2.671039e+003;4.820981e-002
2.672968e+003;4.829771e-002
2.674896e+003;4.837281e-002
2.676825e+003;4.830382e-002
2.678753e+003;4.845001e-002
2.680682e+003;4.862634e-002
2.682610e+003;4.862304e-002
2.684539e+003;4.873123e-002
2.686467e+003;4.892158e-002
2.688396e+003;4.908100e-002
2.690324e+003;4.943068e-002
2.692253e+003;4.940373e-002
2.694182e+003;4.921495e-002
2.696110e+003;4.945259e-002
2.698039e+003;4.966465e-002
2.699967e+003;4.967454e-002
2.701896e+003;4.975152e-002
2.703824e+003;4.963189e-002
2.705753e+003;4.942679e-002
2.707681e+003;4.972826e-002
2.709610e+003;5.014577e-002
2.711539e+003;5.050580e-002
2.713467e+003;5.089616e-002
2.715396e+003;5.084386e-002
2.717324e+003;5.082169e-002
2.719253e+003;5.109886e-002
2.721181e+003;5.127452e-002
2.723110e+003;5.141646e-002
2.725038e+003;5.162930e-002
2.726967e+003;5.181133e-002
2.728896e+003;5.186416e-002
2.730824e+003;5.202963e-002
2.732752e+003;5.229894e-002
2.734681e+003;5.244786e-002
2.736610e+003;5.234805e-002
2.738538e+003;5.259362e-002
2.740467e+003;5.299204e-002
2.742395e+003;5.311993e-002
2.744324e+003;5.337254e-002
2.746252e+003;5.375220e-002
2.748181e+003;5.367147e-002
2.750109e+003;5.361730e-002
2.752038e+003;5.373716e-002
2.753967e+003;5.396649e-002
2.755895e+003;5.428761e-002
2.757824e+003;5.446641e-002
2.759752e+003;5.451607e-002
2.761681e+003;5.477132e-002
2.763609e+003;5.500830e-002
2.765538e+003;5.486831e-002
2.767466e+003;5.484677e-002
2.769395e+003;5.521132e-002
2.771323e+003;5.532756e-002
2.773252e+003;5.524003e-002
2.775181e+003;5.548815e-002
2.777109e+003;5.575630e-002
2.779038e+003;5.588817e-002
2.780966e+003;5.606337e-002
2.782895e+003;5.610239e-002
2.784823e+003;5.614967e-002
2.786752e+003;5.641042e-002
2.788680e+003;5.665007e-002
2.790609e+003;5.690685e-002
2.792538e+003;5.717878e-002
2.794466e+003;5.726803e-002
2.796395e+003;5.738165e-002
2.798323e+003;5.755654e-002
2.800252e+003;5.775712e-002
2.802180e+003;5.796491e-002
2.804109e+003;5.821489e-002
2.806037e+003;5.846494e-002
2.807966e+003;5.866037e-002
2.809895e+003;5.899660e-002
2.811823e+003;5.943778e-002
2.813751e+003;5.969477e-002
2.815680e+003;5.980542e-002
2.817609e+003;5.973975e-002
2.819537e+003;5.971538e-002
2.821466e+003;6.007114e-002
2.823394e+003;6.030704e-002
2.825323e+003;6.045169e-002
2.827251e+003;6.063982e-002
2.829180e+003;6.075661e-002
2.831108e+003;6.096451e-002
2.833037e+003;6.123366e-002
2.834966e+003;6.159384e-002
2.836894e+003;6.199838e-002
2.838823e+003;6.245361e-002
2.840751e+003;6.277867e-002
2.842680e+003;6.327941e-002
2.844608e+003;6.378061e-002
2.846537e+003;6.410650e-002
2.848465e+003;6.457321e-002
2.850394e+003;6.495449e-002
2.852323e+003;6.521527e-002
2.854251e+003;6.589209e-002
2.856180e+003;6.695591e-002
2.858108e+003;6.775813e-002
2.860037e+003;6.807806e-002
2.861965e+003;6.856769e-002
2.863894e+003;6.948560e-002
2.865822e+003;6.994529e-002
2.867751e+003;7.037760e-002
2.869679e+003;7.143021e-002
2.871608e+003;7.237139e-002
2.873536e+003;7.279844e-002
2.875465e+003;7.261222e-002
2.877394e+003;7.220417e-002
2.879322e+003;7.211868e-002
2.881251e+003;7.206352e-002
2.883179e+003;7.168971e-002
2.885108e+003;7.174134e-002
2.887036e+003;7.230461e-002
2.888965e+003;7.208457e-002
2.890893e+003;7.156420e-002
2.892822e+003;7.189278e-002
2.894750e+003;7.233823e-002
2.896679e+003;7.239037e-002
2.898608e+003;7.259941e-002
2.900536e+003;7.286995e-002
2.902465e+003;7.325886e-002
2.904393e+003;7.372134e-002
2.906322e+003;7.437464e-002
2.908250e+003;7.475038e-002
2.910179e+003;7.500234e-002
2.912107e+003;7.564309e-002
2.914036e+003;7.625695e-002
2.915965e+003;7.653010e-002
2.917893e+003;7.695767e-002
2.919822e+003;7.756518e-002
2.921750e+003;7.809196e-002
2.923679e+003;7.865059e-002
2.925607e+003;7.922430e-002
2.927536e+003;7.971404e-002
2.929464e+003;8.012614e-002
2.931393e+003;8.021784e-002
2.933322e+003;8.049592e-002
2.935250e+003;8.078512e-002
2.937178e+003;8.075400e-002
2.939107e+003;8.014065e-002
2.941036e+003;7.972363e-002
2.942964e+003;7.989174e-002
2.944893e+003;7.998276e-002
2.946821e+003;7.983568e-002
2.948750e+003;7.988832e-002
2.950678e+003;7.984527e-002
2.952607e+003;7.958085e-002
2.954535e+003;7.975114e-002
2.956464e+003;8.040193e-002
2.958393e+003;8.069993e-002
2.960321e+003;8.035094e-002
2.962250e+003;8.005618e-002
2.964178e+003;7.974795e-002
2.966107e+003;7.939003e-002
2.968035e+003;7.919853e-002
2.969964e+003;7.897854e-002
2.971892e+003;7.870345e-002
2.973821e+003;7.817549e-002
2.975750e+003;7.750755e-002
2.977678e+003;7.689505e-002
2.979607e+003;7.637699e-002
2.981535e+003;7.596858e-002
2.983464e+003;7.572064e-002
2.985392e+003;7.507347e-002
2.987321e+003;7.422598e-002
2.989249e+003;7.370061e-002
2.991178e+003;7.344882e-002
2.993106e+003;7.339600e-002
2.995035e+003;7.324070e-002
2.996964e+003;7.292251e-002
2.998892e+003;7.263920e-002
3.000821e+003;7.238544e-002
3.002749e+003;7.217541e-002
3.004678e+003;7.210546e-002
3.006606e+003;7.186338e-002
3.008535e+003;7.175995e-002
3.010463e+003;7.169604e-002
3.012392e+003;7.157713e-002
3.014321e+003;7.148060e-002
3.016249e+003;7.174232e-002
3.018177e+003;7.226133e-002
3.020106e+003;7.262436e-002
3.022035e+003;7.291839e-002
3.023963e+003;7.337141e-002
3.025892e+003;7.359391e-002
3.027820e+003;7.372873e-002
3.029749e+003;7.397947e-002
3.031677e+003;7.415532e-002
3.033606e+003;7.444566e-002
3.035534e+003;7.460018e-002
3.037463e+003;7.475908e-002
3.039392e+003;7.491012e-002
3.041320e+003;7.499135e-002
3.043249e+003;7.544398e-002
3.045177e+003;7.604342e-002
3.047106e+003;7.651263e-002
3.049034e+003;7.645217e-002
3.050963e+003;7.662922e-002
3.052891e+003;7.697887e-002
3.054820e+003;7.698666e-002
3.056749e+003;7.710255e-002
3.058677e+003;7.736229e-002
3.060606e+003;7.750220e-002
3.062534e+003;7.731240e-002
3.064463e+003;7.708272e-002
3.066391e+003;7.711351e-002
3.068320e+003;7.719397e-002
3.070248e+003;7.702859e-002
3.072177e+003;7.681058e-002
3.074105e+003;7.703397e-002
3.076034e+003;7.702001e-002
3.077963e+003;7.705875e-002
3.079891e+003;7.744473e-002
3.081820e+003;7.759786e-002
3.083748e+003;7.745602e-002
3.085677e+003;7.704288e-002
3.087605e+003;7.668156e-002
3.089534e+003;7.660127e-002
3.091462e+003;7.641093e-002
3.093391e+003;7.607887e-002
3.095320e+003;7.600821e-002
3.097248e+003;7.606868e-002
3.099177e+003;7.586893e-002
3.101105e+003;7.555898e-002
3.103034e+003;7.576766e-002
3.104962e+003;7.605763e-002
3.106891e+003;7.601192e-002
3.108819e+003;7.608854e-002
3.110748e+003;7.604401e-002
3.112677e+003;7.618851e-002
3.114605e+003;7.626607e-002
3.116533e+003;7.626943e-002
3.118462e+003;7.652669e-002
3.120391e+003;7.663661e-002
3.122319e+003;7.669571e-002
3.124248e+003;7.662859e-002
3.126176e+003;7.674189e-002
3.128105e+003;7.712657e-002
3.130033e+003;7.748870e-002
3.131962e+003;7.763578e-002
3.133890e+003;7.792494e-002
3.135819e+003;7.827539e-002
3.137748e+003;7.848272e-002
3.139676e+003;7.849634e-002
3.141605e+003;7.902524e-002
3.143533e+003;7.939249e-002
3.145462e+003;7.927401e-002
3.147390e+003;7.940096e-002
3.149319e+003;8.014651e-002
3.151247e+003;8.101872e-002
3.153176e+003;8.158114e-002
3.155104e+003;8.181253e-002
3.157033e+003;8.168870e-002
3.158962e+003;8.215180e-002
3.160890e+003;8.292546e-002
3.162819e+003;8.341137e-002
3.164747e+003;8.384372e-002
3.166676e+003;8.421193e-002
3.168604e+003;8.446482e-002
3.170533e+003;8.454218e-002
3.172461e+003;8.495172e-002
3.174390e+003;8.540751e-002
3.176319e+003;8.593642e-002
3.178247e+003;8.670274e-002
3.180176e+003;8.719637e-002
3.182104e+003;8.732256e-002
3.184033e+003;8.756339e-002
3.185961e+003;8.748666e-002
3.187890e+003;8.801723e-002
3.189818e+003;8.855899e-002
3.191747e+003;8.846442e-002
3.193676e+003;8.885284e-002
3.195604e+003;8.952227e-002
3.197532e+003;9.004395e-002
3.199461e+003;9.042183e-002
3.201390e+003;9.072518e-002
3.203318e+003;9.097380e-002
3.205247e+003;9.124267e-002
3.207175e+003;9.120498e-002
3.209104e+003;9.117134e-002
3.211032e+003;9.146246e-002
3.212961e+003;9.165335e-002
3.214889e+003;9.187429e-002
3.216818e+003;9.252634e-002
3.218747e+003;9.294504e-002
3.220675e+003;9.308095e-002
3.222604e+003;9.336193e-002
3.224532e+003;9.354232e-002
3.226461e+003;9.353216e-002
3.228389e+003;9.384251e-002
3.230318e+003;9.412123e-002
3.232246e+003;9.433993e-002
3.234175e+003;9.443489e-002
3.236104e+003;9.465791e-002
3.238032e+003;9.524801e-002
3.239961e+003;9.590469e-002
3.241889e+003;9.641030e-002
3.243818e+003;9.678064e-002
3.245746e+003;9.686201e-002
3.247675e+003;9.694112e-002
3.249603e+003;9.734366e-002
3.251532e+003;9.768517e-002
3.253460e+003;9.819415e-002
3.255389e+003;9.883822e-002
3.257318e+003;9.920313e-002
3.259246e+003;9.910405e-002
3.261175e+003;9.934289e-002
3.263103e+003;1.000412e-001
3.265032e+003;1.003063e-001
3.266960e+003;1.002647e-001
3.268889e+003;1.007663e-001
3.270817e+003;1.013627e-001
3.272746e+003;1.014913e-001
3.274675e+003;1.014461e-001
3.276603e+003;1.015917e-001
3.278531e+003;1.017315e-001
3.280460e+003;1.016267e-001
3.282389e+003;1.011022e-001
3.284317e+003;1.012089e-001
3.286246e+003;1.018051e-001
3.288174e+003;1.014990e-001
3.290103e+003;1.007034e-001
3.292031e+003;1.007141e-001
3.293960e+003;1.010583e-001
3.295888e+003;1.009784e-001
3.297817e+003;1.009232e-001
3.299746e+003;1.008273e-001
3.301674e+003;1.003574e-001
3.303603e+003;9.981721e-002
3.305531e+003;9.959465e-002
3.307460e+003;9.923828e-002
3.309388e+003;9.867142e-002
3.311317e+003;9.852374e-002
3.313245e+003;9.878975e-002
3.315174e+003;9.858905e-002
3.317103e+003;9.801241e-002
3.319031e+003;9.750999e-002
3.320960e+003;9.690744e-002
3.322888e+003;9.644907e-002
3.324817e+003;9.549885e-002
3.326745e+003;9.482889e-002
3.328674e+003;9.477197e-002
3.330602e+003;9.456249e-002
3.332531e+003;9.420367e-002
3.334459e+003;9.385905e-002
3.336388e+003;9.366825e-002
3.338317e+003;9.333872e-002
3.340245e+003;9.274247e-002
3.342174e+003;9.208256e-002
3.344102e+003;9.179622e-002
3.346031e+003;9.166468e-002
3.347959e+003;9.116831e-002
3.349888e+003;9.017634e-002
3.351816e+003;8.921434e-002
3.353745e+003;8.878028e-002
3.355674e+003;8.856232e-002
3.357602e+003;8.839594e-002
3.359531e+003;8.821087e-002
3.361459e+003;8.768599e-002
3.363388e+003;8.711737e-002
3.365316e+003;8.696190e-002
3.367245e+003;8.604878e-002
3.369173e+003;8.482639e-002
3.371102e+003;8.439858e-002
3.373031e+003;8.431070e-002
3.374959e+003;8.432313e-002
3.376887e+003;8.392756e-002
3.378816e+003;8.314798e-002
3.380745e+003;8.226952e-002
3.382673e+003;8.174209e-002
3.384602e+003;8.167090e-002
3.386530e+003;8.152021e-002
3.388459e+003;8.128446e-002
3.390387e+003;8.073145e-002
3.392316e+003;8.009670e-002
3.394244e+003;7.993504e-002
3.396173e+003;7.954559e-002
3.398102e+003;7.861433e-002
3.400030e+003;7.802577e-002
3.401959e+003;7.786088e-002
3.403887e+003;7.737029e-002
3.405816e+003;7.648639e-002
3.407744e+003;7.592781e-002
3.409673e+003;7.624451e-002
3.411601e+003;7.623590e-002
3.413530e+003;7.571961e-002
3.415458e+003;7.526256e-002
3.417387e+003;7.428075e-002
3.419316e+003;7.320258e-002
3.421244e+003;7.260238e-002
3.423173e+003;7.271801e-002
3.425101e+003;7.279531e-002
3.427030e+003;7.237534e-002
3.428958e+003;7.231029e-002
3.430887e+003;7.154037e-002
3.432815e+003;7.067479e-002
3.434744e+003;7.080434e-002
3.436673e+003;7.059398e-002
3.438601e+003;6.946585e-002
3.440530e+003;6.845138e-002
3.442458e+003;6.816500e-002
3.444387e+003;6.816062e-002
3.446315e+003;6.787995e-002
3.448244e+003;6.757138e-002
3.450172e+003;6.759720e-002
3.452101e+003;6.733643e-002
3.454030e+003;6.713520e-002
3.455958e+003;6.679806e-002
3.457886e+003;6.634717e-002
3.459815e+003;6.632988e-002
3.461744e+003;6.581405e-002
3.463672e+003;6.476198e-002
3.465601e+003;6.393172e-002
3.467529e+003;6.373210e-002
3.469458e+003;6.362341e-002
3.471386e+003;6.343011e-002
3.473315e+003;6.303419e-002
3.475243e+003;6.280527e-002
3.477172e+003;6.278536e-002
3.479101e+003;6.219277e-002
3.481029e+003;6.129928e-002
3.482958e+003;6.111925e-002
3.484886e+003;6.119608e-002
3.486815e+003;6.105454e-002
3.488743e+003;6.087922e-002
3.490672e+003;6.071134e-002
3.492600e+003;6.039445e-002
3.494529e+003;6.007742e-002
3.496458e+003;5.969755e-002
3.498386e+003;5.929825e-002
3.500315e+003;5.890047e-002
3.502243e+003;5.841119e-002
3.504172e+003;5.793731e-002
3.506100e+003;5.712909e-002
3.508029e+003;5.685741e-002
3.509957e+003;5.734894e-002
3.511886e+003;5.740479e-002
3.513814e+003;5.692608e-002
3.515743e+003;5.703979e-002
3.517672e+003;5.681824e-002
3.519600e+003;5.612350e-002
3.521529e+003;5.575547e-002
3.523457e+003;5.541462e-002
3.525386e+003;5.506942e-002
3.527314e+003;5.472607e-002
3.529243e+003;5.453271e-002
3.531171e+003;5.453252e-002
3.533100e+003;5.437240e-002
3.535029e+003;5.350687e-002
3.536957e+003;5.322180e-002
3.538885e+003;5.364114e-002
3.540814e+003;5.353461e-002
3.542743e+003;5.273131e-002
3.544671e+003;5.207901e-002
3.546600e+003;5.166531e-002
3.548528e+003;5.140497e-002
3.550457e+003;5.123213e-002
3.552385e+003;5.070836e-002
3.554314e+003;5.049311e-002
3.556242e+003;5.066741e-002
3.558171e+003;5.018452e-002
3.560100e+003;4.949510e-002
3.562028e+003;4.939159e-002
3.563957e+003;4.879177e-002
3.565885e+003;4.793154e-002
3.567814e+003;4.761782e-002
3.569742e+003;4.753179e-002
3.571671e+003;4.722190e-002
3.573599e+003;4.683598e-002
3.575528e+003;4.682871e-002
3.577457e+003;4.710202e-002
3.579385e+003;4.697880e-002
3.581314e+003;4.652216e-002
3.583242e+003;4.616413e-002
3.585171e+003;4.548794e-002
3.587099e+003;4.438566e-002
3.589028e+003;4.407915e-002
3.590956e+003;4.400922e-002
3.592885e+003;4.347636e-002
3.594813e+003;4.328417e-002
3.596742e+003;4.323021e-002
3.598671e+003;4.294924e-002
3.600599e+003;4.245220e-002
3.602528e+003;4.218805e-002
3.604456e+003;4.197034e-002
3.606385e+003;4.125291e-002
3.608313e+003;4.031577e-002
3.610242e+003;3.963897e-002
3.612170e+003;3.889360e-002
3.614099e+003;3.902367e-002
3.616028e+003;3.897927e-002
3.617956e+003;3.822743e-002
3.619885e+003;3.767097e-002
3.621813e+003;3.729192e-002
3.623742e+003;3.716842e-002
3.625670e+003;3.650648e-002
3.627599e+003;3.477689e-002
3.629527e+003;3.441445e-002
3.631456e+003;3.506182e-002
3.633385e+003;3.513015e-002
3.635313e+003;3.487138e-002
3.637241e+003;3.453318e-002
3.639170e+003;3.406128e-002
3.641099e+003;3.321809e-002
3.643027e+003;3.235016e-002
3.644956e+003;3.119787e-002
3.646884e+003;2.941922e-002
3.648813e+003;2.837837e-002
3.650741e+003;2.884638e-002
3.652670e+003;2.938047e-002
3.654598e+003;2.858000e-002
3.656527e+003;2.826813e-002
3.658456e+003;2.866352e-002
3.660384e+003;2.846214e-002
3.662313e+003;2.793787e-002
3.664241e+003;2.732279e-002
3.666170e+003;2.640567e-002
3.668098e+003;2.479230e-002
3.670027e+003;2.350818e-002
3.671955e+003;2.380394e-002
3.673884e+003;2.285747e-002
3.675813e+003;2.203228e-002
3.677741e+003;2.291723e-002
3.679669e+003;2.346946e-002
3.681598e+003;2.322541e-002
3.683527e+003;2.222816e-002
3.685455e+003;2.121308e-002
3.687384e+003;1.973015e-002
3.689312e+003;2.012190e-002
3.691241e+003;2.159232e-002
3.693169e+003;2.195320e-002
3.695098e+003;2.164702e-002
3.697026e+003;2.159486e-002
3.698955e+003;2.142060e-002
3.700884e+003;2.062274e-002
3.702812e+003;2.013863e-002
3.704741e+003;2.022911e-002
3.706669e+003;2.037719e-002
3.708598e+003;1.977377e-002
3.710526e+003;1.854356e-002
3.712455e+003;1.845912e-002
3.714383e+003;1.985339e-002
3.716312e+003;2.032073e-002
3.718240e+003;1.971139e-002
3.720169e+003;1.945402e-002
3.722098e+003;1.957983e-002
3.724026e+003;1.942138e-002
3.725955e+003;1.941251e-002
3.727883e+003;1.940000e-002
3.729812e+003;1.854176e-002
3.731740e+003;1.761475e-002
3.733669e+003;1.739224e-002
3.735597e+003;1.707107e-002
3.737526e+003;1.722632e-002
3.739455e+003;1.793207e-002
3.741383e+003;1.805816e-002
3.743312e+003;1.616631e-002
3.745240e+003;1.613274e-002
3.747169e+003;1.678878e-002
3.749097e+003;1.600563e-002
3.751026e+003;1.621411e-002
3.752954e+003;1.757234e-002
3.754883e+003;1.864150e-002
3.756812e+003;1.882371e-002
3.758740e+003;1.880516e-002
3.760668e+003;1.858720e-002
3.762597e+003;1.806331e-002
3.764526e+003;1.780156e-002
3.766454e+003;1.848761e-002
3.768383e+003;1.857783e-002
3.770311e+003;1.847185e-002
3.772240e+003;1.848039e-002
3.774168e+003;1.863956e-002
3.776097e+003;1.873936e-002
3.778025e+003;1.868321e-002
3.779954e+003;1.908756e-002
3.781883e+003;1.970158e-002
3.783811e+003;1.906356e-002
3.785740e+003;1.868352e-002
3.787668e+003;1.887243e-002
3.789597e+003;1.904560e-002
3.791525e+003;1.931699e-002
3.793454e+003;1.913108e-002
3.795382e+003;1.852575e-002
3.797311e+003;1.816335e-002
3.799240e+003;1.709537e-002
3.801168e+003;1.683614e-002
3.803097e+003;1.841176e-002
3.805025e+003;1.866536e-002
3.806954e+003;1.840416e-002
3.808882e+003;1.925475e-002
3.810811e+003;1.979073e-002
3.812739e+003;1.915878e-002
3.814668e+003;1.725266e-002
3.816596e+003;1.717933e-002
3.818525e+003;1.818988e-002
3.820454e+003;1.785618e-002
3.822382e+003;1.851794e-002
3.824311e+003;1.953231e-002
3.826239e+003;1.984077e-002
3.828168e+003;1.998671e-002
3.830096e+003;1.970168e-002
3.832025e+003;1.888679e-002
3.833953e+003;1.836748e-002
3.835882e+003;1.746060e-002
3.837811e+003;1.717402e-002
3.839739e+003;1.844032e-002
3.841667e+003;1.910082e-002
3.843596e+003;1.959865e-002
3.845525e+003;2.027095e-002
3.847453e+003;1.994504e-002
3.849382e+003;1.873860e-002
3.851310e+003;1.632711e-002
3.853239e+003;1.488872e-002
3.855167e+003;1.727858e-002
3.857096e+003;1.940073e-002
3.859024e+003;1.927785e-002
3.860953e+003;1.814742e-002
3.862882e+003;1.795859e-002
3.864810e+003;1.845912e-002
3.866739e+003;1.906775e-002
3.868667e+003;1.913139e-002
3.870596e+003;1.938947e-002
3.872524e+003;1.945544e-002
3.874453e+003;1.976451e-002
3.876381e+003;1.989967e-002
3.878310e+003;1.921232e-002
3.880239e+003;1.876344e-002
3.882167e+003;1.943067e-002
3.884096e+003;1.967772e-002
3.886024e+003;1.967602e-002
3.887953e+003;1.964493e-002
3.889881e+003;1.876565e-002
3.891810e+003;1.904816e-002
3.893738e+003;1.984958e-002
3.895667e+003;2.006519e-002
3.897595e+003;1.977883e-002
3.899524e+003;1.891199e-002
3.901453e+003;1.860691e-002
3.903381e+003;1.905058e-002
3.905310e+003;1.969922e-002
3.907238e+003;2.020596e-002
3.909167e+003;2.047270e-002
3.911095e+003;2.038181e-002
3.913024e+003;2.038042e-002
3.914952e+003;2.041574e-002
3.916881e+003;2.018066e-002
3.918810e+003;2.002886e-002
3.920738e+003;2.027109e-002
3.922667e+003;2.101749e-002
3.924595e+003;2.090465e-002
3.926524e+003;2.068515e-002
3.928452e+003;2.096574e-002
3.930381e+003;2.077832e-002
3.932309e+003;2.073488e-002
3.934238e+003;2.078503e-002
3.936167e+003;2.038088e-002
3.938095e+003;2.049910e-002
3.940023e+003;2.079681e-002
3.941952e+003;2.116775e-002
3.943881e+003;2.157800e-002
3.945809e+003;2.123800e-002
3.947738e+003;2.086540e-002
3.949666e+003;2.085855e-002
3.951595e+003;2.123065e-002
3.953523e+003;2.173463e-002
3.955452e+003;2.137111e-002
3.957380e+003;2.053599e-002
3.959309e+003;2.028654e-002
3.961238e+003;2.085358e-002
3.963166e+003;2.077829e-002
3.965095e+003;2.052689e-002
3.967023e+003;2.058251e-002
3.968952e+003;2.036952e-002
3.970880e+003;2.032563e-002
3.972809e+003;2.050143e-002
3.974737e+003;2.066638e-002
3.976666e+003;2.086787e-002
3.978594e+003;2.085827e-002
3.980523e+003;2.051136e-002
3.982452e+003;2.030209e-002
3.984380e+003;2.008275e-002
3.986309e+003;1.994674e-002
3.988237e+003;2.013852e-002
3.990166e+003;2.016708e-002
3.992094e+003;2.008969e-002
3.994023e+003;2.017805e-002
3.995951e+003;2.010715e-002
3.997880e+003;2.018895e-002
3.999809e+003;2.057268e-002
4.001737e+003;0.000000e+000
