3.992094e+002;0.000000e+000
4.011380e+002;0.000000e+000
4.030665e+002;0.000000e+000
4.049951e+002;0.000000e+000
4.069236e+002;0.000000e+000
4.088522e+002;0.000000e+000
4.107807e+002;0.000000e+000
4.127093e+002;0.000000e+000
4.146378e+002;0.000000e+000
4.165664e+002;0.000000e+000
4.184949e+002;0.000000e+000
4.204235e+002;0.000000e+000
4.223520e+002;0.000000e+000
4.242806e+002;0.000000e+000
4.262091e+002;0.000000e+000
4.281377e+002;0.000000e+000
4.300662e+002;0.000000e+000
4.319948e+002;0.000000e+000
4.339233e+002;0.000000e+000
4.358519e+002;0.000000e+000
4.377804e+002;0.000000e+000
4.397090e+002;0.000000e+000
4.416375e+002;0.000000e+000
4.435660e+002;0.000000e+000
4.454946e+002;0.000000e+000
4.474232e+002;0.000000e+000
4.493517e+002;0.000000e+000
4.512802e+002;0.000000e+000
4.532088e+002;0.000000e+000
4.551373e+002;0.000000e+000
4.570659e+002;0.000000e+000
4.589944e+002;0.000000e+000
4.609230e+002;0.000000e+000
4.628515e+002;0.000000e+000
4.647801e+002;0.000000e+000
4.667086e+002;0.000000e+000
4.686372e+002;0.000000e+000
4.705657e+002;0.000000e+000
4.724943e+002;0.000000e+000
4.744228e+002;0.000000e+000
4.763513e+002;0.000000e+000
4.782799e+002;0.000000e+000
4.802085e+002;0.000000e+000
4.821370e+002;0.000000e+000
4.840656e+002;0.000000e+000
4.859941e+002;0.000000e+000
4.879226e+002;0.000000e+000
4.898512e+002;0.000000e+000
4.917798e+002;0.000000e+000
4.937083e+002;0.000000e+000
4.956368e+002;0.000000e+000
4.975654e+002;0.000000e+000
4.994939e+002;0.000000e+000
5.014225e+002;0.000000e+000
5.033510e+002;0.000000e+000
5.052796e+002;0.000000e+000
5.072081e+002;0.000000e+000
5.091367e+002;0.000000e+000
5.110652e+002;0.000000e+000
5.129938e+002;0.000000e+000
5.149223e+002;0.000000e+000
5.168509e+002;0.000000e+000
5.187794e+002;0.000000e+000
5.207079e+002;0.000000e+000
5.226365e+002;0.000000e+000
5.245651e+002;0.000000e+000
5.264936e+002;0.000000e+000
5.284222e+002;0.000000e+000
5.303507e+002;0.000000e+000
5.322792e+002;0.000000e+000
5.342078e+002;0.000000e+000
5.361364e+002;0.000000e+000
5.380649e+002;0.000000e+000
5.399935e+002;0.000000e+000
5.419220e+002;0.000000e+000
5.438505e+002;0.000000e+000
5.457791e+002;0.000000e+000
5.477076e+002;0.000000e+000
5.496362e+002;0.000000e+000
5.515648e+002;0.000000e+000
5.534933e+002;0.000000e+000
5.554218e+002;0.000000e+000
5.573504e+002;0.000000e+000
5.592789e+002;0.000000e+000
5.612075e+002;0.000000e+000
5.631360e+002;0.000000e+000
5.650646e+002;0.000000e+000
5.669931e+002;0.000000e+000
5.689217e+002;0.000000e+000
5.708502e+002;0.000000e+000
5.727787e+002;0.000000e+000
5.747073e+002;0.000000e+000
5.766359e+002;0.000000e+000
5.785644e+002;0.000000e+000
5.804930e+002;0.000000e+000
5.824215e+002;0.000000e+000
5.843500e+002;0.000000e+000
5.862786e+002;0.000000e+000
5.882072e+002;0.000000e+000
5.901357e+002;0.000000e+000
5.920643e+002;0.000000e+000
5.939928e+002;0.000000e+000
5.959213e+002;0.000000e+000
5.978499e+002;0.000000e+000
5.997784e+002;1.770309e-001
6.017070e+002;1.750906e-001
6.036355e+002;1.734186e-001
6.055641e+002;1.741451e-001
6.074926e+002;1.778675e-001
6.094211e+002;1.780593e-001
6.113497e+002;1.737881e-001
6.132783e+002;1.726151e-001
6.152068e+002;1.751675e-001
6.171354e+002;1.779111e-001
6.190639e+002;1.799886e-001
6.209924e+002;1.792362e-001
6.229210e+002;1.789851e-001
6.248495e+002;1.795989e-001
6.267781e+002;1.779580e-001
6.287067e+002;1.751609e-001
6.306352e+002;1.757457e-001
6.325637e+002;1.759026e-001
6.344923e+002;1.691175e-001
6.364208e+002;1.627378e-001
6.383494e+002;1.647703e-001
6.402780e+002;1.638955e-001
6.422065e+002;1.633878e-001
6.441350e+002;1.647487e-001
6.460636e+002;1.685880e-001
6.479921e+002;1.745406e-001
6.499207e+002;1.740265e-001
6.518492e+002;1.670516e-001
6.537778e+002;1.634044e-001
6.557063e+002;1.635423e-001
6.576349e+002;1.636749e-001
6.595634e+002;1.638325e-001
6.614919e+002;1.651539e-001
6.634205e+002;1.657305e-001
6.653491e+002;1.642427e-001
6.672776e+002;1.610223e-001
6.692062e+002;1.597521e-001
6.711347e+002;1.591074e-001
6.730632e+002;1.582113e-001
6.749918e+002;1.569879e-001
6.769203e+002;1.556598e-001
6.788489e+002;1.553667e-001
6.807775e+002;1.551121e-001
6.827060e+002;1.531623e-001
6.846345e+002;1.511249e-001
6.865631e+002;1.510743e-001
6.884916e+002;1.518920e-001
6.904202e+002;1.516698e-001
6.923488e+002;1.495340e-001
6.942773e+002;1.486846e-001
6.962058e+002;1.488581e-001
6.981344e+002;1.486341e-001
7.000629e+002;1.485840e-001
7.019915e+002;1.478118e-001
7.039200e+002;1.468575e-001
7.058486e+002;1.453461e-001
7.077771e+002;1.434746e-001
7.097057e+002;1.425382e-001
7.116342e+002;1.415758e-001
7.135627e+002;1.399040e-001
7.154913e+002;1.381164e-001
7.174199e+002;1.367428e-001
7.193484e+002;1.363330e-001
7.212770e+002;1.357185e-001
7.232055e+002;1.340708e-001
7.251340e+002;1.331741e-001
7.270626e+002;1.330251e-001
7.289911e+002;1.335818e-001
7.309197e+002;1.341576e-001
7.328483e+002;1.338121e-001
7.347768e+002;1.339103e-001
7.367053e+002;1.341096e-001
7.386339e+002;1.338861e-001
7.405624e+002;1.340785e-001
7.424910e+002;1.338640e-001
7.444196e+002;1.329048e-001
7.463481e+002;1.311515e-001
7.482766e+002;1.297775e-001
7.502052e+002;1.293475e-001
7.521337e+002;1.284341e-001
7.540623e+002;1.272089e-001
7.559908e+002;1.260037e-001
7.579194e+002;1.250232e-001
7.598479e+002;1.244529e-001
7.617765e+002;1.231449e-001
7.637050e+002;1.212080e-001
7.656335e+002;1.198136e-001
7.675621e+002;1.185903e-001
7.694907e+002;1.173523e-001
7.714192e+002;1.156501e-001
7.733478e+002;1.140264e-001
7.752763e+002;1.128151e-001
7.772048e+002;1.122063e-001
7.791334e+002;1.116614e-001
7.810620e+002;1.105844e-001
7.829905e+002;1.100958e-001
7.849191e+002;1.090579e-001
7.868476e+002;1.084103e-001
7.887761e+002;1.075303e-001
7.907047e+002;1.070850e-001
7.926332e+002;1.073155e-001
7.945618e+002;1.060294e-001
7.964903e+002;1.045052e-001
7.984189e+002;1.039711e-001
8.003474e+002;1.038760e-001
8.022759e+002;1.034566e-001
8.042045e+002;1.027116e-001
8.061331e+002;1.019603e-001
8.080616e+002;1.020544e-001
8.099902e+002;1.026246e-001
8.119187e+002;1.025132e-001
8.138472e+002;1.020926e-001
8.157758e+002;1.019826e-001
8.177043e+002;1.021501e-001
8.196329e+002;1.024224e-001
8.215615e+002;1.026990e-001
8.234900e+002;1.032206e-001
8.254185e+002;1.035707e-001
8.273471e+002;1.038562e-001
8.292756e+002;1.034728e-001
8.312042e+002;1.021638e-001
8.331328e+002;1.004141e-001
8.350613e+002;9.924965e-002
8.369898e+002;9.861600e-002
8.389184e+002;9.754636e-002
8.408469e+002;9.660794e-002
8.427755e+002;9.566972e-002
8.447040e+002;9.450708e-002
8.466326e+002;9.326088e-002
8.485611e+002;9.223025e-002
8.504897e+002;9.140631e-002
8.524182e+002;9.089664e-002
8.543467e+002;9.055699e-002
8.562753e+002;8.995549e-002
8.582039e+002;8.904132e-002
8.601324e+002;8.825479e-002
8.620610e+002;8.788832e-002
8.639895e+002;8.757320e-002
8.659180e+002;8.698647e-002
8.678466e+002;8.707934e-002
8.697751e+002;8.754949e-002
8.717037e+002;8.785478e-002
8.736323e+002;8.814758e-002
8.755608e+002;8.814523e-002
8.774893e+002;8.760271e-002
8.794179e+002;8.748857e-002
8.813464e+002;8.796784e-002
8.832750e+002;8.852860e-002
8.852036e+002;8.887459e-002
8.871321e+002;8.897084e-002
8.890606e+002;8.892526e-002
8.909892e+002;8.813654e-002
8.929177e+002;8.704525e-002
8.948463e+002;8.640897e-002
8.967748e+002;8.603145e-002
8.987034e+002;8.587242e-002
9.006319e+002;8.555044e-002
9.025605e+002;8.535072e-002
9.044890e+002;8.548278e-002
9.064175e+002;8.563583e-002
9.083461e+002;8.574565e-002
9.102747e+002;8.586822e-002
9.122032e+002;8.633010e-002
9.141318e+002;8.652797e-002
9.160603e+002;8.654799e-002
9.179888e+002;8.694542e-002
9.199174e+002;8.705602e-002
9.218459e+002;8.718094e-002
9.237745e+002;8.774957e-002
9.257031e+002;8.790784e-002
9.276316e+002;8.774044e-002
9.295601e+002;8.805204e-002
9.314887e+002;8.846905e-002
9.334172e+002;8.852678e-002
9.353458e+002;8.849773e-002
9.372744e+002;8.817275e-002
9.392029e+002;8.785611e-002
9.411314e+002;8.734050e-002
9.430600e+002;8.703606e-002
9.449885e+002;8.698627e-002
9.469171e+002;8.684156e-002
9.488456e+002;8.683703e-002
9.507742e+002;8.688588e-002
9.527027e+002;8.712097e-002
9.546313e+002;8.756939e-002
9.565598e+002;8.788293e-002
9.584883e+002;8.795924e-002
9.604169e+002;8.803816e-002
9.623455e+002;8.858147e-002
9.642740e+002;8.921247e-002
9.662026e+002;8.966900e-002
9.681311e+002;9.037903e-002
9.700596e+002;9.110999e-002
9.719882e+002;9.170339e-002
9.739167e+002;9.211111e-002
9.758453e+002;9.264193e-002
9.777739e+002;9.340084e-002
9.797024e+002;9.425755e-002
9.816309e+002;9.503540e-002
9.835595e+002;9.579991e-002
9.854880e+002;9.706983e-002
9.874166e+002;9.909959e-002
9.893452e+002;1.010280e-001
9.912737e+002;1.027082e-001
9.932022e+002;1.038598e-001
9.951307e+002;1.045676e-001
9.970593e+002;1.055472e-001
9.989879e+002;1.064353e-001
1.000916e+003;1.070010e-001
1.002845e+003;1.079778e-001
1.004773e+003;1.095710e-001
1.006702e+003;1.107805e-001
1.008631e+003;1.116202e-001
1.010559e+003;1.131419e-001
1.012488e+003;1.146598e-001
1.014416e+003;1.161046e-001
1.016345e+003;1.175146e-001
1.018273e+003;1.185420e-001
1.020202e+003;1.193785e-001
1.022130e+003;1.205053e-001
1.024059e+003;1.220339e-001
1.025988e+003;1.237602e-001
1.027916e+003;1.264172e-001
1.029845e+003;1.294428e-001
1.031773e+003;1.320250e-001
1.033702e+003;1.350105e-001
1.035630e+003;1.383354e-001
1.037559e+003;1.411271e-001
1.039487e+003;1.431589e-001
1.041416e+003;1.447078e-001
1.043344e+003;1.456803e-001
1.045273e+003;1.460325e-001
1.047202e+003;1.452335e-001
1.049130e+003;1.433126e-001
1.051059e+003;1.403188e-001
1.052987e+003;1.365580e-001
1.054916e+003;1.334980e-001
1.056844e+003;1.318401e-001
1.058773e+003;1.304092e-001
1.060701e+003;1.298298e-001
1.062630e+003;1.298614e-001
1.064558e+003;1.297050e-001
1.066487e+003;1.301280e-001
1.068416e+003;1.305484e-001
1.070344e+003;1.306214e-001
1.072273e+003;1.308650e-001
1.074201e+003;1.310283e-001
1.076130e+003;1.309927e-001
1.078058e+003;1.311897e-001
1.079987e+003;1.311449e-001
1.081915e+003;1.310968e-001
1.083844e+003;1.314671e-001
1.085773e+003;1.319266e-001
1.087701e+003;1.323343e-001
1.089630e+003;1.323957e-001
1.091558e+003;1.320925e-001
1.093487e+003;1.321503e-001
1.095415e+003;1.328184e-001
1.097344e+003;1.333207e-001
1.099272e+003;1.330096e-001
1.101201e+003;1.328694e-001
1.103129e+003;1.330243e-001
1.105058e+003;1.327998e-001
1.106987e+003;1.324183e-001
1.108915e+003;1.316518e-001
1.110844e+003;1.306672e-001
1.112772e+003;1.300058e-001
1.114701e+003;1.299555e-001
1.116629e+003;1.302693e-001
1.118558e+003;1.309502e-001
1.120486e+003;1.313369e-001
1.122415e+003;1.315013e-001
1.124344e+003;1.319412e-001
1.126272e+003;1.326653e-001
1.128201e+003;1.335456e-001
1.130129e+003;1.342721e-001
1.132058e+003;1.347143e-001
1.133986e+003;1.356189e-001
1.135915e+003;1.371440e-001
1.137843e+003;1.389138e-001
1.139772e+003;1.401862e-001
1.141700e+003;1.417502e-001
1.143629e+003;1.436491e-001
1.145557e+003;1.453358e-001
1.147486e+003;1.470652e-001
1.149415e+003;1.488280e-001
1.151343e+003;1.501350e-001
1.153272e+003;1.511919e-001
1.155200e+003;1.520761e-001
1.157129e+003;1.527757e-001
1.159057e+003;1.535390e-001
1.160986e+003;1.544148e-001
1.162914e+003;1.552446e-001
1.164843e+003;1.564037e-001
1.166771e+003;1.577691e-001
1.168700e+003;1.592263e-001
1.170629e+003;1.608612e-001
1.172557e+003;1.622461e-001
1.174486e+003;1.633329e-001
1.176414e+003;1.645061e-001
1.178343e+003;1.657346e-001
1.180271e+003;1.666855e-001
1.182200e+003;1.671744e-001
1.184128e+003;1.681700e-001
1.186057e+003;1.692814e-001
1.187986e+003;1.703384e-001
1.189914e+003;1.712204e-001
1.191843e+003;1.718850e-001
1.193771e+003;1.727366e-001
1.195700e+003;1.735757e-001
1.197628e+003;1.744231e-001
1.199557e+003;1.752505e-001
1.201485e+003;1.759549e-001
1.203414e+003;1.767046e-001
1.205343e+003;1.774062e-001
1.207271e+003;1.782326e-001
1.209200e+003;1.789517e-001
1.211128e+003;1.795645e-001
1.213057e+003;1.804028e-001
1.214985e+003;1.814319e-001
1.216914e+003;1.820968e-001
1.218842e+003;1.826229e-001
1.220771e+003;1.831054e-001
1.222699e+003;1.828515e-001
1.224628e+003;1.825148e-001
1.226557e+003;1.826573e-001
1.228485e+003;1.827242e-001
1.230414e+003;1.824891e-001
1.232342e+003;1.822840e-001
1.234271e+003;1.820194e-001
1.236199e+003;1.810257e-001
1.238128e+003;1.797819e-001
1.240056e+003;1.785075e-001
1.241985e+003;1.775919e-001
1.243913e+003;1.768266e-001
1.245842e+003;1.758048e-001
1.247771e+003;1.748417e-001
1.249699e+003;1.737877e-001
1.251628e+003;1.728144e-001
1.253556e+003;1.718972e-001
1.255485e+003;1.707849e-001
1.257413e+003;1.695627e-001
1.259342e+003;1.681142e-001
1.261270e+003;1.663833e-001
1.263199e+003;1.647170e-001
1.265127e+003;1.629303e-001
1.267056e+003;1.612191e-001
1.268985e+003;1.597858e-001
1.270913e+003;1.584530e-001
1.272842e+003;1.576577e-001
1.274770e+003;1.571351e-001
1.276699e+003;1.565307e-001
1.278627e+003;1.555217e-001
1.280556e+003;1.545410e-001
1.282484e+003;1.539556e-001
1.284413e+003;1.532476e-001
1.286342e+003;1.522621e-001
1.288270e+003;1.512281e-001
1.290199e+003;1.502472e-001
1.292127e+003;1.493588e-001
1.294056e+003;1.483954e-001
1.295984e+003;1.473488e-001
1.297913e+003;1.461054e-001
1.299841e+003;1.447523e-001
1.301770e+003;1.436157e-001
1.303698e+003;1.427682e-001
1.305627e+003;1.418862e-001
1.307556e+003;1.411441e-001
1.309484e+003;1.406846e-001
1.311413e+003;1.404493e-001
1.313341e+003;1.405567e-001
1.315270e+003;1.408932e-001
1.317198e+003;1.414344e-001
1.319127e+003;1.419207e-001
1.321055e+003;1.422827e-001
1.322984e+003;1.424163e-001
1.324912e+003;1.424968e-001
1.326841e+003;1.427063e-001
1.328770e+003;1.424874e-001
1.330698e+003;1.417193e-001
1.332627e+003;1.409280e-001
1.334555e+003;1.400290e-001
1.336484e+003;1.387573e-001
1.338412e+003;1.374817e-001
1.340341e+003;1.362477e-001
1.342269e+003;1.349749e-001
1.344198e+003;1.337075e-001
1.346126e+003;1.328150e-001
1.348055e+003;1.320949e-001
1.349984e+003;1.309747e-001
1.351912e+003;1.299354e-001
1.353841e+003;1.291711e-001
1.355769e+003;1.286010e-001
1.357698e+003;1.284776e-001
1.359626e+003;1.284718e-001
1.361555e+003;1.285778e-001
1.363483e+003;1.291733e-001
1.365412e+003;1.301521e-001
1.367341e+003;1.311258e-001
1.369269e+003;1.317665e-001
1.371198e+003;1.320380e-001
1.373126e+003;1.321809e-001
1.375055e+003;1.323517e-001
1.376983e+003;1.327503e-001
1.378912e+003;1.332520e-001
1.380840e+003;1.339607e-001
1.382769e+003;1.350341e-001
1.384698e+003;1.360964e-001
1.386626e+003;1.366650e-001
1.388555e+003;1.368292e-001
1.390483e+003;1.366590e-001
1.392412e+003;1.362205e-001
1.394340e+003;1.359180e-001
1.396269e+003;1.356463e-001
1.398197e+003;1.354554e-001
1.400126e+003;1.356168e-001
1.402054e+003;1.358667e-001
1.403983e+003;1.359854e-001
1.405911e+003;1.363204e-001
1.407840e+003;1.369775e-001
1.409769e+003;1.373951e-001
1.411697e+003;1.375218e-001
1.413626e+003;1.378182e-001
1.415554e+003;1.381204e-001
1.417483e+003;1.382791e-001
1.419411e+003;1.383249e-001
1.421340e+003;1.387865e-001
1.423268e+003;1.397033e-001
1.425197e+003;1.406724e-001
1.427125e+003;1.417891e-001
1.429054e+003;1.431364e-001
1.430983e+003;1.445782e-001
1.432911e+003;1.464049e-001
1.434840e+003;1.484439e-001
1.436768e+003;1.503678e-001
1.438697e+003;1.521681e-001
1.440625e+003;1.535054e-001
1.442554e+003;1.542611e-001
1.444482e+003;1.548476e-001
1.446411e+003;1.553957e-001
1.448340e+003;1.558977e-001
1.450268e+003;1.566180e-001
1.452197e+003;1.572326e-001
1.454125e+003;1.577038e-001
1.456054e+003;1.579039e-001
1.457982e+003;1.580308e-001
1.459911e+003;1.580049e-001
1.461839e+003;1.574552e-001
1.463768e+003;1.563596e-001
1.465697e+003;1.553278e-001
1.467625e+003;1.547184e-001
1.469554e+003;1.541044e-001
1.471482e+003;1.533651e-001
1.473411e+003;1.531467e-001
1.475339e+003;1.536376e-001
1.477268e+003;1.545525e-001
1.479196e+003;1.560436e-001
1.481125e+003;1.579116e-001
1.483053e+003;1.601306e-001
1.484982e+003;1.628363e-001
1.486911e+003;1.660862e-001
1.488839e+003;1.699321e-001
1.490768e+003;1.744798e-001
1.492696e+003;1.791627e-001
1.494625e+003;1.835334e-001
1.496553e+003;1.877547e-001
1.498482e+003;1.915737e-001
1.500410e+003;1.949446e-001
1.502339e+003;1.977182e-001
1.504267e+003;1.994398e-001
1.506196e+003;2.008559e-001
1.508125e+003;2.025906e-001
1.510053e+003;2.039797e-001
1.511982e+003;2.050268e-001
1.513910e+003;2.056480e-001
1.515839e+003;2.050388e-001
1.517767e+003;2.033813e-001
1.519696e+003;2.003929e-001
1.521624e+003;1.967476e-001
1.523553e+003;1.940703e-001
1.525481e+003;1.917738e-001
1.527410e+003;1.893472e-001
1.529339e+003;1.867761e-001
1.531267e+003;1.844166e-001
1.533196e+003;1.821321e-001
1.535124e+003;1.799475e-001
1.537053e+003;1.773303e-001
1.538981e+003;1.742997e-001
1.540910e+003;1.715822e-001
1.542838e+003;1.693145e-001
1.544767e+003;1.668086e-001
1.546695e+003;1.643660e-001
1.548624e+003;1.615213e-001
1.550553e+003;1.580165e-001
1.552481e+003;1.546664e-001
1.554410e+003;1.517940e-001
1.556338e+003;1.487658e-001
1.558267e+003;1.448964e-001
1.560195e+003;1.418549e-001
1.562124e+003;1.397430e-001
1.564052e+003;1.373909e-001
1.565981e+003;1.352452e-001
1.567910e+003;1.334107e-001
1.569838e+003;1.317366e-001
1.571767e+003;1.304541e-001
1.573695e+003;1.296942e-001
1.575624e+003;1.292502e-001
1.577552e+003;1.294561e-001
1.579481e+003;1.303241e-001
1.581409e+003;1.314301e-001
1.583338e+003;1.327439e-001
1.585266e+003;1.342595e-001
1.587195e+003;1.361351e-001
1.589124e+003;1.385400e-001
1.591052e+003;1.414945e-001
1.592981e+003;1.443998e-001
1.594909e+003;1.471006e-001
1.596838e+003;1.501104e-001
1.598766e+003;1.534977e-001
1.600695e+003;1.572217e-001
1.602623e+003;1.614436e-001
1.604552e+003;1.659500e-001
1.606480e+003;1.708799e-001
1.608409e+003;1.760276e-001
1.610338e+003;1.810843e-001
1.612266e+003;1.862255e-001
1.614195e+003;1.909802e-001
1.616123e+003;1.947511e-001
1.618052e+003;1.987448e-001
1.619980e+003;2.029759e-001
1.621909e+003;2.065836e-001
1.623837e+003;2.103487e-001
1.625766e+003;2.141508e-001
1.627694e+003;2.175352e-001
1.629623e+003;2.208055e-001
1.631552e+003;2.233892e-001
1.633480e+003;2.250486e-001
1.635409e+003;2.261478e-001
1.637337e+003;2.271833e-001
1.639266e+003;2.276746e-001
1.641194e+003;2.270869e-001
1.643123e+003;2.260322e-001
1.645051e+003;2.242910e-001
1.646980e+003;2.217765e-001
1.648909e+003;2.190375e-001
1.650837e+003;2.158136e-001
1.652766e+003;2.119366e-001
1.654694e+003;2.085186e-001
1.656623e+003;2.051873e-001
1.658551e+003;2.010799e-001
1.660480e+003;1.964679e-001
1.662408e+003;1.917797e-001
1.664337e+003;1.871966e-001
1.666266e+003;1.823674e-001
1.668194e+003;1.773733e-001
1.670123e+003;1.722585e-001
1.672051e+003;1.672757e-001
1.673980e+003;1.622563e-001
1.675908e+003;1.574590e-001
1.677837e+003;1.527880e-001
1.679765e+003;1.478287e-001
1.681694e+003;1.426789e-001
1.683622e+003;1.372969e-001
1.685551e+003;1.325119e-001
1.687479e+003;1.283190e-001
1.689408e+003;1.239076e-001
1.691337e+003;1.193310e-001
1.693265e+003;1.144203e-001
1.695194e+003;1.090010e-001
1.697122e+003;1.040123e-001
1.699051e+003;9.906992e-002
1.700979e+003;9.397311e-002
1.702908e+003;8.969789e-002
1.704836e+003;8.519798e-002
1.706765e+003;8.078209e-002
1.708693e+003;7.681164e-002
1.710622e+003;7.316694e-002
1.712551e+003;6.973075e-002
1.714479e+003;6.662601e-002
1.716408e+003;6.385479e-002
1.718336e+003;6.158521e-002
1.720265e+003;5.968071e-002
1.722193e+003;5.782120e-002
1.724122e+003;5.613138e-002
1.726050e+003;5.461965e-002
1.727979e+003;5.303397e-002
1.729908e+003;5.137685e-002
1.731836e+003;4.944918e-002
1.733765e+003;4.760185e-002
1.735693e+003;4.640036e-002
1.737622e+003;4.499339e-002
1.739550e+003;4.314483e-002
1.741479e+003;4.149823e-002
1.743407e+003;3.978038e-002
1.745336e+003;3.824331e-002
1.747265e+003;3.685476e-002
1.749193e+003;3.529037e-002
1.751122e+003;3.373861e-002
1.753050e+003;3.229590e-002
1.754979e+003;3.087473e-002
1.756907e+003;2.960700e-002
1.758836e+003;2.851507e-002
1.760764e+003;2.743413e-002
1.762693e+003;2.637081e-002
1.764621e+003;2.564004e-002
1.766550e+003;2.469738e-002
1.768479e+003;2.381105e-002
1.770407e+003;2.286089e-002
1.772336e+003;2.211431e-002
1.774264e+003;2.186524e-002
1.776193e+003;2.151460e-002
1.778121e+003;2.107619e-002
1.780050e+003;2.059005e-002
1.781978e+003;2.023339e-002
1.783907e+003;2.009219e-002
1.785835e+003;1.985263e-002
1.787764e+003;1.946175e-002
1.789693e+003;1.894839e-002
1.791621e+003;1.868397e-002
1.793550e+003;1.862064e-002
1.795478e+003;1.840772e-002
1.797407e+003;1.799617e-002
1.799335e+003;1.768642e-002
1.801264e+003;1.749955e-002
1.803192e+003;1.754805e-002
1.805121e+003;1.728841e-002
1.807049e+003;1.695419e-002
1.808978e+003;1.683476e-002
1.810907e+003;1.675668e-002
1.812835e+003;1.662012e-002
1.814764e+003;1.645959e-002
1.816692e+003;1.630964e-002
1.818621e+003;1.621116e-002
1.820549e+003;1.609691e-002
1.822478e+003;1.600347e-002
1.824406e+003;1.582144e-002
1.826335e+003;1.567446e-002
1.828264e+003;1.561270e-002
1.830192e+003;1.564210e-002
1.832121e+003;1.545930e-002
1.834049e+003;1.522890e-002
1.835978e+003;1.517692e-002
1.837906e+003;1.538009e-002
1.839835e+003;1.544027e-002
1.841763e+003;1.515081e-002
1.843692e+003;1.484534e-002
1.845620e+003;1.491012e-002
1.847549e+003;1.491667e-002
1.849478e+003;1.482974e-002
1.851406e+003;1.477558e-002
1.853335e+003;1.474438e-002
1.855263e+003;1.471141e-002
1.857192e+003;1.472666e-002
1.859120e+003;1.471316e-002
1.861049e+003;1.465565e-002
1.862977e+003;1.468502e-002
1.864906e+003;1.485680e-002
1.866834e+003;1.479080e-002
1.868763e+003;1.458567e-002
1.870692e+003;1.458670e-002
1.872620e+003;1.467724e-002
1.874549e+003;1.460613e-002
1.876477e+003;1.452612e-002
1.878406e+003;1.450036e-002
1.880334e+003;1.451718e-002
1.882263e+003;1.458043e-002
1.884191e+003;1.440499e-002
1.886120e+003;1.441746e-002
1.888048e+003;1.468358e-002
1.889977e+003;1.483790e-002
1.891906e+003;1.482138e-002
1.893834e+003;1.478980e-002
1.895763e+003;1.483094e-002
1.897691e+003;1.478099e-002
1.899620e+003;1.485926e-002
1.901548e+003;1.480880e-002
1.903477e+003;1.473777e-002
1.905405e+003;1.477901e-002
1.907334e+003;1.478740e-002
1.909262e+003;1.459232e-002
1.911191e+003;1.455716e-002
1.913120e+003;1.469736e-002
1.915048e+003;1.481291e-002
1.916977e+003;1.471669e-002
1.918905e+003;1.445767e-002
1.920834e+003;1.444901e-002
1.922762e+003;1.470483e-002
1.924691e+003;1.482347e-002
1.926619e+003;1.472155e-002
1.928548e+003;1.473479e-002
1.930477e+003;1.478165e-002
1.932405e+003;1.472879e-002
1.934334e+003;1.470791e-002
1.936262e+003;1.477259e-002
1.938191e+003;1.463495e-002
1.940119e+003;1.449696e-002
1.942048e+003;1.460085e-002
1.943976e+003;1.476224e-002
1.945905e+003;1.471460e-002
1.947833e+003;1.466110e-002
1.949762e+003;1.469317e-002
1.951691e+003;1.472131e-002
1.953619e+003;1.477955e-002
1.955548e+003;1.481363e-002
1.957476e+003;1.478926e-002
1.959405e+003;1.480883e-002
1.961333e+003;1.469314e-002
1.963262e+003;1.458461e-002
1.965190e+003;1.468166e-002
1.967119e+003;1.487603e-002
1.969047e+003;1.485344e-002
1.970976e+003;1.459472e-002
1.972905e+003;1.449299e-002
1.974833e+003;1.445932e-002
1.976762e+003;1.451379e-002
1.978690e+003;1.469862e-002
1.980619e+003;1.474507e-002
1.982547e+003;1.458084e-002
1.984476e+003;1.463800e-002
1.986404e+003;1.473242e-002
1.988333e+003;1.470894e-002
1.990261e+003;1.468461e-002
1.992190e+003;1.456401e-002
1.994119e+003;1.452293e-002
1.996047e+003;1.438269e-002
1.997976e+003;1.431714e-002
1.999904e+003;1.432002e-002
2.001833e+003;1.437207e-002
2.003761e+003;1.449916e-002
2.005690e+003;1.458320e-002
2.007618e+003;1.463471e-002
2.009547e+003;1.451886e-002
2.011476e+003;1.453633e-002
2.013404e+003;1.447000e-002
2.015333e+003;1.434612e-002
2.017261e+003;1.444883e-002
2.019190e+003;1.460119e-002
2.021118e+003;1.473215e-002
2.023047e+003;1.478309e-002
2.024975e+003;1.467909e-002
2.026904e+003;1.461257e-002
2.028833e+003;1.457587e-002
2.030761e+003;1.450594e-002
2.032690e+003;1.442825e-002
2.034618e+003;1.433512e-002
2.036547e+003;1.432115e-002
2.038475e+003;1.448713e-002
2.040404e+003;1.453044e-002
2.042332e+003;1.452115e-002
2.044261e+003;1.443380e-002
2.046189e+003;1.424592e-002
2.048118e+003;1.421487e-002
2.050047e+003;1.431749e-002
2.051975e+003;1.445620e-002
2.053904e+003;1.455463e-002
2.055832e+003;1.442081e-002
2.057761e+003;1.434132e-002
2.059689e+003;1.436577e-002
2.061618e+003;1.436646e-002
2.063546e+003;1.438810e-002
2.065475e+003;1.431526e-002
2.067404e+003;1.424962e-002
2.069332e+003;1.417789e-002
2.071260e+003;1.420675e-002
2.073189e+003;1.429923e-002
2.075118e+003;1.420436e-002
2.077046e+003;1.420261e-002
2.078975e+003;1.427978e-002
2.080903e+003;1.427883e-002
2.082832e+003;1.412942e-002
2.084760e+003;1.392029e-002
2.086689e+003;1.395437e-002
2.088617e+003;1.422551e-002
2.090546e+003;1.418183e-002
2.092475e+003;1.402308e-002
2.094403e+003;1.389918e-002
2.096332e+003;1.390904e-002
2.098260e+003;1.391920e-002
2.100189e+003;1.396375e-002
2.102117e+003;1.379331e-002
2.104046e+003;1.360578e-002
2.105974e+003;1.378811e-002
2.107903e+003;1.393360e-002
2.109832e+003;1.389754e-002
2.111760e+003;1.368453e-002
2.113688e+003;1.354903e-002
2.115617e+003;1.354404e-002
2.117546e+003;1.357566e-002
2.119474e+003;1.364055e-002
2.121403e+003;1.369430e-002
2.123331e+003;1.365016e-002
2.125260e+003;1.367006e-002
2.127188e+003;1.370709e-002
2.129117e+003;1.365095e-002
2.131045e+003;1.376537e-002
2.132974e+003;1.368613e-002
2.134903e+003;1.352312e-002
2.136831e+003;1.344260e-002
2.138760e+003;1.335614e-002
2.140688e+003;1.344150e-002
2.142617e+003;1.344222e-002
2.144545e+003;1.329751e-002
2.146474e+003;1.315172e-002
2.148402e+003;1.310022e-002
2.150331e+003;1.327776e-002
2.152260e+003;1.360335e-002
2.154188e+003;1.357371e-002
2.156117e+003;1.331244e-002
2.158045e+003;1.320022e-002
2.159974e+003;1.320586e-002
2.161902e+003;1.321033e-002
2.163831e+003;1.311221e-002
2.165759e+003;1.314322e-002
2.167688e+003;1.316890e-002
2.169616e+003;1.311914e-002
2.171545e+003;1.302002e-002
2.173474e+003;1.293276e-002
2.175402e+003;1.308172e-002
2.177331e+003;1.324746e-002
2.179259e+003;1.325559e-002
2.181188e+003;1.315521e-002
2.183116e+003;1.308230e-002
2.185045e+003;1.295450e-002
2.186973e+003;1.296860e-002
2.188902e+003;1.302241e-002
2.190831e+003;1.296539e-002
2.192759e+003;1.299636e-002
2.194688e+003;1.318089e-002
2.196616e+003;1.325464e-002
2.198545e+003;1.312215e-002
2.200473e+003;1.305583e-002
2.202402e+003;1.292685e-002
2.204330e+003;1.292248e-002
2.206259e+003;1.312573e-002
2.208188e+003;1.313024e-002
2.210116e+003;1.295535e-002
2.212044e+003;1.296003e-002
2.213973e+003;1.302418e-002
2.215902e+003;1.299581e-002
2.217830e+003;1.295986e-002
2.219759e+003;1.305754e-002
2.221687e+003;1.311262e-002
2.223616e+003;1.304374e-002
2.225544e+003;1.304603e-002
2.227473e+003;1.321535e-002
2.229401e+003;1.339527e-002
2.231330e+003;1.319479e-002
2.233259e+003;1.307335e-002
2.235187e+003;1.320521e-002
2.237116e+003;1.333930e-002
2.239044e+003;1.336205e-002
2.240973e+003;1.315872e-002
2.242901e+003;1.297638e-002
2.244830e+003;1.298799e-002
2.246758e+003;1.297587e-002
2.248687e+003;1.296177e-002
2.250615e+003;1.290122e-002
2.252544e+003;1.281122e-002
2.254473e+003;1.280914e-002
2.256401e+003;1.296607e-002
2.258330e+003;1.290941e-002
2.260258e+003;1.277788e-002
2.262187e+003;1.285268e-002
2.264115e+003;1.296293e-002
2.266044e+003;1.312403e-002
2.267972e+003;1.317006e-002
2.269901e+003;1.299816e-002
2.271830e+003;1.282825e-002
2.273758e+003;1.302241e-002
2.275687e+003;1.330701e-002
2.277615e+003;1.328033e-002
2.279544e+003;1.320333e-002
2.281472e+003;1.330533e-002
2.283401e+003;1.315206e-002
2.285329e+003;1.282528e-002
2.287258e+003;1.293422e-002
2.289187e+003;1.308113e-002
2.291115e+003;1.299922e-002
2.293043e+003;1.304040e-002
2.294972e+003;1.311347e-002
2.296901e+003;1.324661e-002
2.298829e+003;1.309302e-002
2.300758e+003;1.294658e-002
2.302686e+003;1.299243e-002
2.304615e+003;1.302831e-002
2.306543e+003;1.309729e-002
2.308472e+003;1.320340e-002
2.310400e+003;1.311030e-002
2.312329e+003;1.305068e-002
2.314258e+003;1.326550e-002
2.316186e+003;1.328398e-002
2.318115e+003;1.298936e-002
2.320043e+003;1.306082e-002
2.321972e+003;1.319114e-002
2.323900e+003;1.303439e-002
2.325829e+003;1.304801e-002
2.327757e+003;1.299458e-002
2.329686e+003;1.268913e-002
2.331615e+003;1.251688e-002
2.333543e+003;1.265478e-002
2.335472e+003;1.300107e-002
2.337400e+003;1.321665e-002
2.339329e+003;1.310934e-002
2.341257e+003;1.280572e-002
2.343186e+003;1.285316e-002
2.345114e+003;1.324432e-002
2.347043e+003;1.359782e-002
2.348971e+003;1.374283e-002
2.350900e+003;1.370395e-002
2.352829e+003;1.348751e-002
2.354757e+003;1.324401e-002
2.356686e+003;1.315507e-002
2.358614e+003;1.318178e-002
2.360543e+003;1.311938e-002
2.362471e+003;1.318007e-002
2.364400e+003;1.322540e-002
2.366328e+003;1.326998e-002
2.368257e+003;1.349403e-002
2.370186e+003;1.400642e-002
2.372114e+003;1.407168e-002
2.374042e+003;1.392628e-002
2.375971e+003;1.408516e-002
2.377900e+003;1.460177e-002
2.379828e+003;1.486904e-002
2.381757e+003;1.463974e-002
2.383685e+003;1.454863e-002
2.385614e+003;1.493038e-002
2.387542e+003;1.523559e-002
2.389471e+003;1.543763e-002
2.391399e+003;1.567552e-002
2.393328e+003;1.569785e-002
2.395257e+003;1.567528e-002
2.397185e+003;1.554871e-002
2.399114e+003;1.559975e-002
2.401042e+003;1.594420e-002
2.402971e+003;1.618106e-002
2.404899e+003;1.616528e-002
2.406828e+003;1.607907e-002
2.408756e+003;1.621865e-002
2.410685e+003;1.646348e-002
2.412614e+003;1.651369e-002
2.414542e+003;1.657902e-002
2.416471e+003;1.671846e-002
2.418399e+003;1.679594e-002
2.420328e+003;1.701221e-002
2.422256e+003;1.716778e-002
2.424185e+003;1.722790e-002
2.426113e+003;1.750072e-002
2.428042e+003;1.778865e-002
2.429970e+003;1.766889e-002
2.431899e+003;1.758407e-002
2.433828e+003;1.777888e-002
2.435756e+003;1.805823e-002
2.437685e+003;1.845733e-002
2.439613e+003;1.882326e-002
2.441542e+003;1.881910e-002
2.443470e+003;1.862960e-002
2.445399e+003;1.867232e-002
2.447327e+003;1.876918e-002
2.449256e+003;1.883132e-002
2.451185e+003;1.914168e-002
2.453113e+003;1.936244e-002
2.455042e+003;1.931734e-002
2.456970e+003;1.943676e-002
2.458899e+003;1.958846e-002
2.460827e+003;1.980626e-002
2.462756e+003;1.987171e-002
2.464684e+003;1.990529e-002
2.466613e+003;2.005228e-002
2.468542e+003;2.013245e-002
2.470470e+003;2.020433e-002
2.472398e+003;2.030612e-002
2.474327e+003;2.026619e-002
2.476256e+003;2.033959e-002
2.478184e+003;2.055072e-002
2.480113e+003;2.062194e-002
2.482041e+003;2.080836e-002
2.483970e+003;2.114942e-002
2.485898e+003;2.154064e-002
2.487827e+003;2.152849e-002
2.489755e+003;2.143198e-002
2.491684e+003;2.142394e-002
2.493613e+003;2.163188e-002
2.495541e+003;2.183817e-002
2.497470e+003;2.182346e-002
2.499398e+003;2.189434e-002
2.501327e+003;2.207659e-002
2.503255e+003;2.219175e-002
2.505184e+003;2.224804e-002
2.507112e+003;2.230712e-002
2.509041e+003;2.230126e-002
2.510969e+003;2.243742e-002
2.512898e+003;2.278217e-002
2.514827e+003;2.280833e-002
2.516755e+003;2.288646e-002
2.518684e+003;2.317658e-002
2.520612e+003;2.328652e-002
2.522541e+003;2.308621e-002
2.524469e+003;2.312255e-002
2.526398e+003;2.323108e-002
2.528326e+003;2.326212e-002
2.530255e+003;2.353217e-002
2.532184e+003;2.357083e-002
2.534112e+003;2.334137e-002
2.536041e+003;2.334627e-002
2.537969e+003;2.347831e-002
2.539898e+003;2.360910e-002
2.541826e+003;2.380986e-002
2.543755e+003;2.365462e-002
2.545683e+003;2.354998e-002
2.547612e+003;2.382050e-002
2.549541e+003;2.385497e-002
2.551469e+003;2.375417e-002
2.553397e+003;2.409623e-002
2.555326e+003;2.445429e-002
2.557255e+003;2.459544e-002
2.559183e+003;2.475406e-002
2.561112e+003;2.480173e-002
2.563040e+003;2.466704e-002
2.564969e+003;2.465319e-002
2.566897e+003;2.466245e-002
2.568826e+003;2.501392e-002
2.570754e+003;2.535170e-002
2.572683e+003;2.530794e-002
2.574612e+003;2.536646e-002
2.576540e+003;2.539027e-002
2.578469e+003;2.542214e-002
2.580397e+003;2.575489e-002
2.582326e+003;2.609423e-002
2.584254e+003;2.597296e-002
2.586183e+003;2.570395e-002
2.588111e+003;2.576769e-002
2.590040e+003;2.602696e-002
2.591969e+003;2.594482e-002
2.593897e+003;2.576361e-002
2.595826e+003;2.582215e-002
2.597754e+003;2.611580e-002
2.599683e+003;2.644253e-002
2.601611e+003;2.669728e-002
2.603540e+003;2.670281e-002
2.605468e+003;2.678629e-002
2.607397e+003;2.698101e-002
2.609325e+003;2.693193e-002
2.611254e+003;2.702399e-002
2.613183e+003;2.697565e-002
2.615111e+003;2.698189e-002
2.617040e+003;2.712111e-002
2.618968e+003;2.743847e-002
2.620897e+003;2.754878e-002
2.622825e+003;2.738296e-002
2.624754e+003;2.746713e-002
2.626682e+003;2.755786e-002
2.628611e+003;2.743646e-002
2.630540e+003;2.759800e-002
2.632468e+003;2.786119e-002
2.634396e+003;2.799204e-002
2.636325e+003;2.817585e-002
2.638254e+003;2.836652e-002
2.640182e+003;2.816574e-002
2.642111e+003;2.797250e-002
2.644039e+003;2.823351e-002
2.645968e+003;2.839889e-002
2.647896e+003;2.849593e-002
2.649825e+003;2.855739e-002
2.651753e+003;2.849752e-002
2.653682e+003;2.839935e-002
2.655611e+003;2.840189e-002
2.657539e+003;2.854684e-002
2.659468e+003;2.875754e-002
2.661396e+003;2.903979e-002
2.663325e+003;2.915940e-002
2.665253e+003;2.900844e-002
2.667182e+003;2.889014e-002
2.669110e+003;2.897451e-002
2.671039e+003;2.897305e-002
2.672968e+003;2.914580e-002
2.674896e+003;2.933995e-002
2.676825e+003;2.951134e-002
2.678753e+003;2.979682e-002
2.680682e+003;2.977815e-002
2.682610e+003;2.978876e-002
2.684539e+003;2.992395e-002
2.686467e+003;3.000624e-002
2.688396e+003;3.012314e-002
2.690324e+003;3.017584e-002
2.692253e+003;3.027307e-002
2.694182e+003;3.041086e-002
2.696110e+003;3.046282e-002
2.698039e+003;3.061137e-002
2.699967e+003;3.089871e-002
2.701896e+003;3.106841e-002
2.703824e+003;3.123134e-002
2.705753e+003;3.128215e-002
2.707681e+003;3.132385e-002
2.709610e+003;3.153875e-002
2.711539e+003;3.161151e-002
2.713467e+003;3.172952e-002
2.715396e+003;3.214920e-002
2.717324e+003;3.254164e-002
2.719253e+003;3.246315e-002
2.721181e+003;3.220197e-002
2.723110e+003;3.230900e-002
2.725038e+003;3.263010e-002
2.726967e+003;3.296518e-002
2.728896e+003;3.312746e-002
2.730824e+003;3.328834e-002
2.732752e+003;3.351700e-002
2.734681e+003;3.389832e-002
2.736610e+003;3.422856e-002
2.738538e+003;3.411844e-002
2.740467e+003;3.392257e-002
2.742395e+003;3.422960e-002
2.744324e+003;3.449688e-002
2.746252e+003;3.427836e-002
2.748181e+003;3.449380e-002
2.750109e+003;3.508449e-002
2.752038e+003;3.537325e-002
2.753967e+003;3.556147e-002
2.755895e+003;3.586282e-002
2.757824e+003;3.585775e-002
2.759752e+003;3.588106e-002
2.761681e+003;3.596478e-002
2.763609e+003;3.604085e-002
2.765538e+003;3.616543e-002
2.767466e+003;3.634660e-002
2.769395e+003;3.638757e-002
2.771323e+003;3.639211e-002
2.773252e+003;3.650392e-002
2.775181e+003;3.682569e-002
2.777109e+003;3.727206e-002
2.779038e+003;3.755625e-002
2.780966e+003;3.781326e-002
2.782895e+003;3.796363e-002
2.784823e+003;3.783629e-002
2.786752e+003;3.772814e-002
2.788680e+003;3.788676e-002
2.790609e+003;3.818864e-002
2.792538e+003;3.855682e-002
2.794466e+003;3.879297e-002
2.796395e+003;3.890476e-002
2.798323e+003;3.910318e-002
2.800252e+003;3.949502e-002
2.802180e+003;3.974785e-002
2.804109e+003;4.003453e-002
2.806037e+003;4.050061e-002
2.807966e+003;4.088099e-002
2.809895e+003;4.083581e-002
2.811823e+003;4.085117e-002
2.813751e+003;4.092777e-002
2.815680e+003;4.111499e-002
2.817609e+003;4.133486e-002
2.819537e+003;4.168011e-002
2.821466e+003;4.193775e-002
2.823394e+003;4.231207e-002
2.825323e+003;4.295253e-002
2.827251e+003;4.320686e-002
2.829180e+003;4.325898e-002
2.831108e+003;4.366248e-002
2.833037e+003;4.440970e-002
2.834966e+003;4.514204e-002
2.836894e+003;4.565847e-002
2.838823e+003;4.584416e-002
2.840751e+003;4.605145e-002
2.842680e+003;4.650151e-002
2.844608e+003;4.728305e-002
2.846537e+003;4.825420e-002
2.848465e+003;4.873868e-002
2.850394e+003;4.905474e-002
2.852323e+003;4.980922e-002
2.854251e+003;5.070676e-002
2.856180e+003;5.147364e-002
2.858108e+003;5.236633e-002
2.860037e+003;5.328772e-002
2.861965e+003;5.408878e-002
2.863894e+003;5.466917e-002
2.865822e+003;5.549086e-002
2.867751e+003;5.666064e-002
2.869679e+003;5.733261e-002
2.871608e+003;5.747204e-002
2.873536e+003;5.804462e-002
2.875465e+003;5.864755e-002
2.877394e+003;5.867998e-002
2.879322e+003;5.864584e-002
2.881251e+003;5.862897e-002
2.883179e+003;5.857057e-002
2.885108e+003;5.860735e-002
2.887036e+003;5.883634e-002
2.888965e+003;5.904161e-002
2.890893e+003;5.896563e-002
2.892822e+003;5.936750e-002
2.894750e+003;5.987082e-002
2.896679e+003;6.000662e-002
2.898608e+003;6.013949e-002
2.900536e+003;6.041468e-002
2.902465e+003;6.074967e-002
2.904393e+003;6.086699e-002
2.906322e+003;6.131187e-002
2.908250e+003;6.209390e-002
2.910179e+003;6.263036e-002
2.912107e+003;6.306859e-002
2.914036e+003;6.366173e-002
2.915965e+003;6.447368e-002
2.917893e+003;6.505905e-002
2.919822e+003;6.556736e-002
2.921750e+003;6.637346e-002
2.923679e+003;6.720458e-002
2.925607e+003;6.795421e-002
2.927536e+003;6.871016e-002
2.929464e+003;6.929127e-002
2.931393e+003;6.955062e-002
2.933322e+003;6.983947e-002
2.935250e+003;7.028648e-002
2.937178e+003;7.063713e-002
2.939107e+003;7.092413e-002
2.941036e+003;7.098804e-002
2.942964e+003;7.077911e-002
2.944893e+003;7.045323e-002
2.946821e+003;7.029497e-002
2.948750e+003;7.008991e-002
2.950678e+003;7.001236e-002
2.952607e+003;6.989243e-002
2.954535e+003;6.958546e-002
2.956464e+003;6.954047e-002
2.958393e+003;6.941333e-002
2.960321e+003;6.903025e-002
2.962250e+003;6.871919e-002
2.964178e+003;6.863727e-002
2.966107e+003;6.869952e-002
2.968035e+003;6.828884e-002
2.969964e+003;6.789269e-002
2.971892e+003;6.773207e-002
2.973821e+003;6.769640e-002
2.975750e+003;6.731758e-002
2.977678e+003;6.662764e-002
2.979607e+003;6.588029e-002
2.981535e+003;6.502426e-002
2.983464e+003;6.419184e-002
2.985392e+003;6.339859e-002
2.987321e+003;6.279505e-002
2.989249e+003;6.244730e-002
2.991178e+003;6.184344e-002
2.993106e+003;6.123801e-002
2.995035e+003;6.072612e-002
2.996964e+003;6.029585e-002
2.998892e+003;5.999365e-002
3.000821e+003;5.960640e-002
3.002749e+003;5.939090e-002
3.004678e+003;5.928291e-002
3.006606e+003;5.898510e-002
3.008535e+003;5.848488e-002
3.010463e+003;5.844007e-002
3.012392e+003;5.886791e-002
3.014321e+003;5.877063e-002
3.016249e+003;5.827646e-002
3.018177e+003;5.857182e-002
3.020106e+003;5.903896e-002
3.022035e+003;5.901618e-002
3.023963e+003;5.906447e-002
3.025892e+003;5.920004e-002
3.027820e+003;5.937054e-002
3.029749e+003;5.965588e-002
3.031677e+003;5.977610e-002
3.033606e+003;5.968740e-002
3.035534e+003;5.990482e-002
3.037463e+003;6.045165e-002
3.039392e+003;6.097022e-002
3.041320e+003;6.109073e-002
3.043249e+003;6.100008e-002
3.045177e+003;6.114470e-002
3.047106e+003;6.166872e-002
3.049034e+003;6.214069e-002
3.050963e+003;6.244722e-002
3.052891e+003;6.274831e-002
3.054820e+003;6.277146e-002
3.056749e+003;6.295819e-002
3.058677e+003;6.319527e-002
3.060606e+003;6.314484e-002
3.062534e+003;6.303021e-002
3.064463e+003;6.288527e-002
3.066391e+003;6.321409e-002
3.068320e+003;6.337662e-002
3.070248e+003;6.286355e-002
3.072177e+003;6.275894e-002
3.074105e+003;6.263607e-002
3.076034e+003;6.190541e-002
3.077963e+003;6.190652e-002
3.079891e+003;6.243364e-002
3.081820e+003;6.248537e-002
3.083748e+003;6.214092e-002
3.085677e+003;6.183129e-002
3.087605e+003;6.199051e-002
3.089534e+003;6.217560e-002
3.091462e+003;6.177150e-002
3.093391e+003;6.143602e-002
3.095320e+003;6.144247e-002
3.097248e+003;6.155990e-002
3.099177e+003;6.156505e-002
3.101105e+003;6.147526e-002
3.103034e+003;6.127704e-002
3.104962e+003;6.118437e-002
3.106891e+003;6.105804e-002
3.108819e+003;6.123888e-002
3.110748e+003;6.133256e-002
3.112677e+003;6.116118e-002
3.114605e+003;6.099970e-002
3.116533e+003;6.122889e-002
3.118462e+003;6.172116e-002
3.120391e+003;6.194465e-002
3.122319e+003;6.179610e-002
3.124248e+003;6.185054e-002
3.126176e+003;6.200431e-002
3.128105e+003;6.220753e-002
3.130033e+003;6.255604e-002
3.131962e+003;6.281776e-002
3.133890e+003;6.319320e-002
3.135819e+003;6.360822e-002
3.137748e+003;6.419560e-002
3.139676e+003;6.465968e-002
3.141605e+003;6.482410e-002
3.143533e+003;6.493298e-002
3.145462e+003;6.468325e-002
3.147390e+003;6.456840e-002
3.149319e+003;6.514754e-002
3.151247e+003;6.608757e-002
3.153176e+003;6.667484e-002
3.155104e+003;6.729092e-002
3.157033e+003;6.787859e-002
3.158962e+003;6.827313e-002
3.160890e+003;6.847318e-002
3.162819e+003;6.853661e-002
3.164747e+003;6.893016e-002
3.166676e+003;6.976709e-002
3.168604e+003;7.052592e-002
3.170533e+003;7.103240e-002
3.172461e+003;7.109889e-002
3.174390e+003;7.132079e-002
3.176319e+003;7.201268e-002
3.178247e+003;7.265671e-002
3.180176e+003;7.312761e-002
3.182104e+003;7.351945e-002
3.184033e+003;7.352389e-002
3.185961e+003;7.366414e-002
3.187890e+003;7.428703e-002
3.189818e+003;7.487749e-002
3.191747e+003;7.551017e-002
3.193676e+003;7.555728e-002
3.195604e+003;7.546408e-002
3.197532e+003;7.583997e-002
3.199461e+003;7.613706e-002
3.201390e+003;7.628969e-002
3.203318e+003;7.666488e-002
3.205247e+003;7.694960e-002
3.207175e+003;7.682552e-002
3.209104e+003;7.691854e-002
3.211032e+003;7.740577e-002
3.212961e+003;7.772394e-002
3.214889e+003;7.785121e-002
3.216818e+003;7.789873e-002
3.218747e+003;7.787285e-002
3.220675e+003;7.783990e-002
3.222604e+003;7.804009e-002
3.224532e+003;7.836623e-002
3.226461e+003;7.865627e-002
3.228389e+003;7.905222e-002
3.230318e+003;7.943291e-002
3.232246e+003;7.943494e-002
3.234175e+003;7.953103e-002
3.236104e+003;7.980780e-002
3.238032e+003;8.015671e-002
3.239961e+003;8.076186e-002
3.241889e+003;8.096015e-002
3.243818e+003;8.130827e-002
3.245746e+003;8.161076e-002
3.247675e+003;8.162684e-002
3.249603e+003;8.206906e-002
3.251532e+003;8.266682e-002
3.253460e+003;8.294275e-002
3.255389e+003;8.320513e-002
3.257318e+003;8.344863e-002
3.259246e+003;8.360703e-002
3.261175e+003;8.375555e-002
3.263103e+003;8.396744e-002
3.265032e+003;8.370785e-002
3.266960e+003;8.371485e-002
3.268889e+003;8.428374e-002
3.270817e+003;8.469831e-002
3.272746e+003;8.478796e-002
3.274675e+003;8.472674e-002
3.276603e+003;8.485039e-002
3.278531e+003;8.523297e-002
3.280460e+003;8.532931e-002
3.282389e+003;8.520269e-002
3.284317e+003;8.534596e-002
3.286246e+003;8.595007e-002
3.288174e+003;8.589943e-002
3.290103e+003;8.532055e-002
3.292031e+003;8.518060e-002
3.293960e+003;8.486381e-002
3.295888e+003;8.406816e-002
3.297817e+003;8.354565e-002
3.299746e+003;8.381402e-002
3.301674e+003;8.383922e-002
3.303603e+003;8.346613e-002
3.305531e+003;8.327945e-002
3.307460e+003;8.301868e-002
3.309388e+003;8.261039e-002
3.311317e+003;8.199210e-002
3.313245e+003;8.175189e-002
3.315174e+003;8.170190e-002
3.317103e+003;8.117647e-002
3.319031e+003;8.044492e-002
3.320960e+003;8.024694e-002
3.322888e+003;8.042023e-002
3.324817e+003;8.037558e-002
3.326745e+003;7.973506e-002
3.328674e+003;7.901630e-002
3.330602e+003;7.857832e-002
3.332531e+003;7.841825e-002
3.334459e+003;7.829309e-002
3.336388e+003;7.750402e-002
3.338317e+003;7.673256e-002
3.340245e+003;7.647628e-002
3.342174e+003;7.635870e-002
3.344102e+003;7.585441e-002
3.346031e+003;7.501116e-002
3.347959e+003;7.428468e-002
3.349888e+003;7.359866e-002
3.351816e+003;7.290903e-002
3.353745e+003;7.233898e-002
3.355674e+003;7.163586e-002
3.357602e+003;7.093704e-002
3.359531e+003;7.046679e-002
3.361459e+003;7.006390e-002
3.363388e+003;6.978095e-002
3.365316e+003;6.934561e-002
3.367245e+003;6.860944e-002
3.369173e+003;6.774724e-002
3.371102e+003;6.690206e-002
3.373031e+003;6.648362e-002
3.374959e+003;6.605493e-002
3.376887e+003;6.478317e-002
3.378816e+003;6.368042e-002
3.380745e+003;6.292897e-002
3.382673e+003;6.243693e-002
3.384602e+003;6.218206e-002
3.386530e+003;6.153294e-002
3.388459e+003;6.082273e-002
3.390387e+003;6.044030e-002
3.392316e+003;5.990639e-002
3.394244e+003;5.927125e-002
3.396173e+003;5.887110e-002
3.398102e+003;5.817443e-002
3.400030e+003;5.749352e-002
3.401959e+003;5.706511e-002
3.403887e+003;5.649973e-002
3.405816e+003;5.584269e-002
3.407744e+003;5.518540e-002
3.409673e+003;5.443963e-002
3.411601e+003;5.379960e-002
3.413530e+003;5.286276e-002
3.415458e+003;5.243243e-002
3.417387e+003;5.250271e-002
3.419316e+003;5.170073e-002
3.421244e+003;5.029839e-002
3.423173e+003;4.953180e-002
3.425101e+003;4.896954e-002
3.427030e+003;4.835652e-002
3.428958e+003;4.765565e-002
3.430887e+003;4.684547e-002
3.432815e+003;4.636298e-002
3.434744e+003;4.589049e-002
3.436673e+003;4.515160e-002
3.438601e+003;4.464638e-002
3.440530e+003;4.384648e-002
3.442458e+003;4.278364e-002
3.444387e+003;4.212262e-002
3.446315e+003;4.173052e-002
3.448244e+003;4.136238e-002
3.450172e+003;4.059694e-002
3.452101e+003;3.986496e-002
3.454030e+003;3.974276e-002
3.455958e+003;3.931765e-002
3.457886e+003;3.889377e-002
3.459815e+003;3.816126e-002
3.461744e+003;3.759801e-002
3.463672e+003;3.712165e-002
3.465601e+003;3.647282e-002
3.467529e+003;3.605287e-002
3.469458e+003;3.565818e-002
3.471386e+003;3.509296e-002
3.473315e+003;3.465238e-002
3.475243e+003;3.453175e-002
3.477172e+003;3.436023e-002
3.479101e+003;3.408005e-002
3.481029e+003;3.346295e-002
3.482958e+003;3.294480e-002
3.484886e+003;3.224351e-002
3.486815e+003;3.155329e-002
3.488743e+003;3.114112e-002
3.490672e+003;3.076965e-002
3.492600e+003;3.033208e-002
3.494529e+003;2.998831e-002
3.496458e+003;2.935661e-002
3.498386e+003;2.920742e-002
3.500315e+003;2.870313e-002
3.502243e+003;2.773763e-002
3.504172e+003;2.714114e-002
3.506100e+003;2.679901e-002
3.508029e+003;2.637296e-002
3.509957e+003;2.593240e-002
3.511886e+003;2.583288e-002
3.513814e+003;2.572711e-002
3.515743e+003;2.495493e-002
3.517672e+003;2.439029e-002
3.519600e+003;2.449288e-002
3.521529e+003;2.400325e-002
3.523457e+003;2.288328e-002
3.525386e+003;2.213412e-002
3.527314e+003;2.211620e-002
3.529243e+003;2.187301e-002
3.531171e+003;2.137406e-002
3.533100e+003;2.126670e-002
3.535029e+003;2.121729e-002
3.536957e+003;2.092670e-002
3.538885e+003;2.056323e-002
3.540814e+003;1.993897e-002
3.542743e+003;1.947921e-002
3.544671e+003;1.916460e-002
3.546600e+003;1.889693e-002
3.548528e+003;1.859595e-002
3.550457e+003;1.824911e-002
3.552385e+003;1.812981e-002
3.554314e+003;1.780471e-002
3.556242e+003;1.711050e-002
3.558171e+003;1.658615e-002
3.560100e+003;1.619685e-002
3.562028e+003;1.555201e-002
3.563957e+003;1.492112e-002
3.565885e+003;1.421678e-002
3.567814e+003;1.385995e-002
3.569742e+003;1.381442e-002
3.571671e+003;1.360011e-002
3.573599e+003;1.341632e-002
3.575528e+003;1.305665e-002
3.577457e+003;1.250105e-002
3.579385e+003;1.181217e-002
3.581314e+003;1.115874e-002
3.583242e+003;1.055009e-002
3.585171e+003;1.037132e-002
3.587099e+003;1.030936e-002
3.589028e+003;9.669838e-003
3.590956e+003;8.932320e-003
3.592885e+003;8.434366e-003
3.594813e+003;8.039376e-003
3.596742e+003;7.880394e-003
3.598671e+003;7.598211e-003
3.600599e+003;7.034393e-003
3.602528e+003;6.656589e-003
3.604456e+003;6.189768e-003
3.606385e+003;5.320082e-003
3.608313e+003;4.127811e-003
3.610242e+003;3.881385e-003
3.612170e+003;4.126908e-003
3.614099e+003;3.712588e-003
3.616028e+003;2.962623e-003
3.617956e+003;2.647178e-003
3.619885e+003;2.181082e-003
3.621813e+003;1.674871e-003
3.623742e+003;9.404006e-004
3.625670e+003;-1.883593e-004
3.627599e+003;-1.301805e-003
3.629527e+003;-1.757612e-003
3.631456e+003;-1.698373e-003
3.633385e+003;-2.014443e-003
3.635313e+003;-2.431119e-003
3.637241e+003;-2.971609e-003
3.639170e+003;-3.510046e-003
3.641099e+003;-4.104538e-003
3.643027e+003;-4.856339e-003
3.644956e+003;-5.778432e-003
3.646884e+003;-6.192102e-003
3.648813e+003;-6.267846e-003
3.650741e+003;-6.323591e-003
3.652670e+003;-6.418183e-003
3.654598e+003;-7.630081e-003
3.656527e+003;-8.605304e-003
3.658456e+003;-8.663544e-003
3.660384e+003;-9.388274e-003
3.662313e+003;-9.964999e-003
3.664241e+003;-1.015197e-002
3.666170e+003;-1.050357e-002
3.668098e+003;-1.087167e-002
3.670027e+003;-1.139711e-002
3.671955e+003;-1.157724e-002
3.673884e+003;-1.223734e-002
3.675813e+003;-1.306338e-002
3.677741e+003;-1.295241e-002
3.679669e+003;-1.259647e-002
3.681598e+003;-1.252546e-002
3.683527e+003;-1.315214e-002
3.685455e+003;-1.386551e-002
3.687384e+003;-1.483745e-002
3.689312e+003;-1.528295e-002
3.691241e+003;-1.492642e-002
3.693169e+003;-1.456806e-002
3.695098e+003;-1.462500e-002
3.697026e+003;-1.471924e-002
3.698955e+003;-1.481522e-002
3.700884e+003;-1.516688e-002
3.702812e+003;-1.474666e-002
3.704741e+003;-1.458133e-002
3.706669e+003;-1.500805e-002
3.708598e+003;-1.533707e-002
3.710526e+003;-1.557088e-002
3.712455e+003;-1.542566e-002
3.714383e+003;-1.543308e-002
3.716312e+003;-1.610705e-002
3.718240e+003;-1.623235e-002
3.720169e+003;-1.583466e-002
3.722098e+003;-1.589280e-002
3.724026e+003;-1.577088e-002
3.725955e+003;-1.595262e-002
3.727883e+003;-1.604009e-002
3.729812e+003;-1.615721e-002
3.731740e+003;-1.645014e-002
3.733669e+003;-1.632739e-002
3.735597e+003;-1.629197e-002
3.737526e+003;-1.658532e-002
3.739455e+003;-1.660554e-002
3.741383e+003;-1.646765e-002
3.743312e+003;-1.690292e-002
3.745240e+003;-1.669693e-002
3.747169e+003;-1.657760e-002
3.749097e+003;-1.709046e-002
3.751026e+003;-1.718716e-002
3.752954e+003;-1.721707e-002
3.754883e+003;-1.701591e-002
3.756812e+003;-1.680488e-002
3.758740e+003;-1.625913e-002
3.760668e+003;-1.613764e-002
3.762597e+003;-1.648568e-002
3.764526e+003;-1.692236e-002
3.766454e+003;-1.691468e-002
3.768383e+003;-1.670277e-002
3.770311e+003;-1.652820e-002
3.772240e+003;-1.634191e-002
3.774168e+003;-1.667965e-002
3.776097e+003;-1.723952e-002
3.778025e+003;-1.702719e-002
3.779954e+003;-1.639817e-002
3.781883e+003;-1.623529e-002
3.783811e+003;-1.667656e-002
3.785740e+003;-1.693211e-002
3.787668e+003;-1.656185e-002
3.789597e+003;-1.661236e-002
3.791525e+003;-1.686235e-002
3.793454e+003;-1.637379e-002
3.795382e+003;-1.624614e-002
3.797311e+003;-1.641495e-002
3.799240e+003;-1.637034e-002
3.801168e+003;-1.675559e-002
3.803097e+003;-1.697870e-002
3.805025e+003;-1.717885e-002
3.806954e+003;-1.757570e-002
3.808882e+003;-1.708231e-002
3.810811e+003;-1.631795e-002
3.812739e+003;-1.659754e-002
3.814668e+003;-1.763450e-002
3.816596e+003;-1.720130e-002
3.818525e+003;-1.638505e-002
3.820454e+003;-1.661970e-002
3.822382e+003;-1.660066e-002
3.824311e+003;-1.668660e-002
3.826239e+003;-1.710620e-002
3.828168e+003;-1.697267e-002
3.830096e+003;-1.643588e-002
3.832025e+003;-1.617477e-002
3.833953e+003;-1.618453e-002
3.835882e+003;-1.648016e-002
3.837811e+003;-1.712789e-002
3.839739e+003;-1.736926e-002
3.841667e+003;-1.649506e-002
3.843596e+003;-1.608815e-002
3.845525e+003;-1.615564e-002
3.847453e+003;-1.583823e-002
3.849382e+003;-1.627793e-002
3.851310e+003;-1.695869e-002
3.853239e+003;-1.725719e-002
3.855167e+003;-1.716471e-002
3.857096e+003;-1.657272e-002
3.859024e+003;-1.624547e-002
3.860953e+003;-1.631992e-002
3.862882e+003;-1.626673e-002
3.864810e+003;-1.626018e-002
3.866739e+003;-1.604929e-002
3.868667e+003;-1.641696e-002
3.870596e+003;-1.656634e-002
3.872524e+003;-1.642803e-002
3.874453e+003;-1.633279e-002
3.876381e+003;-1.530918e-002
3.878310e+003;-1.484808e-002
3.880239e+003;-1.513818e-002
3.882167e+003;-1.548328e-002
3.884096e+003;-1.588270e-002
3.886024e+003;-1.614821e-002
3.887953e+003;-1.641789e-002
3.889881e+003;-1.693581e-002
3.891810e+003;-1.696965e-002
3.893738e+003;-1.627426e-002
3.895667e+003;-1.587657e-002
3.897595e+003;-1.617327e-002
3.899524e+003;-1.646644e-002
3.901453e+003;-1.624965e-002
3.903381e+003;-1.620531e-002
3.905310e+003;-1.607305e-002
3.907238e+003;-1.583175e-002
3.909167e+003;-1.530378e-002
3.911095e+003;-1.547948e-002
3.913024e+003;-1.585606e-002
3.914952e+003;-1.581079e-002
3.916881e+003;-1.583750e-002
3.918810e+003;-1.569445e-002
3.920738e+003;-1.570819e-002
3.922667e+003;-1.623452e-002
3.924595e+003;-1.661048e-002
3.926524e+003;-1.667270e-002
3.928452e+003;-1.625830e-002
3.930381e+003;-1.601611e-002
3.932309e+003;-1.581657e-002
3.934238e+003;-1.491874e-002
3.936167e+003;-1.463249e-002
3.938095e+003;-1.542163e-002
3.940023e+003;-1.675378e-002
3.941952e+003;-1.722968e-002
3.943881e+003;-1.651917e-002
3.945809e+003;-1.646427e-002
3.947738e+003;-1.645119e-002
3.949666e+003;-1.590203e-002
3.951595e+003;-1.549991e-002
3.953523e+003;-1.583683e-002
3.955452e+003;-1.635362e-002
3.957380e+003;-1.627691e-002
3.959309e+003;-1.620857e-002
3.961238e+003;-1.659827e-002
3.963166e+003;-1.661820e-002
3.965095e+003;-1.624837e-002
3.967023e+003;-1.606720e-002
3.968952e+003;-1.600554e-002
3.970880e+003;-1.626637e-002
3.972809e+003;-1.675709e-002
3.974737e+003;-1.744197e-002
3.976666e+003;-1.778989e-002
3.978594e+003;-1.769138e-002
3.980523e+003;-1.709957e-002
3.982452e+003;-1.627056e-002
3.984380e+003;-1.611963e-002
3.986309e+003;-1.616078e-002
3.988237e+003;-1.605140e-002
3.990166e+003;-1.615236e-002
3.992094e+003;-1.672543e-002
3.994023e+003;-1.722092e-002
3.995951e+003;-1.718382e-002
3.997880e+003;-1.706469e-002
3.999809e+003;-1.680921e-002
4.001737e+003;0.000000e+000
