3.992094e+002;0.000000e+000
4.011380e+002;0.000000e+000
4.030665e+002;0.000000e+000
4.049951e+002;0.000000e+000
4.069236e+002;0.000000e+000
4.088522e+002;0.000000e+000
4.107807e+002;0.000000e+000
4.127093e+002;0.000000e+000
4.146378e+002;0.000000e+000
4.165664e+002;0.000000e+000
4.184949e+002;0.000000e+000
4.204235e+002;0.000000e+000
4.223520e+002;0.000000e+000
4.242806e+002;0.000000e+000
4.262091e+002;0.000000e+000
4.281377e+002;0.000000e+000
4.300662e+002;0.000000e+000
4.319948e+002;0.000000e+000
4.339233e+002;0.000000e+000
4.358519e+002;0.000000e+000
4.377804e+002;0.000000e+000
4.397090e+002;0.000000e+000
4.416375e+002;0.000000e+000
4.435660e+002;0.000000e+000
4.454946e+002;0.000000e+000
4.474232e+002;0.000000e+000
4.493517e+002;0.000000e+000
4.512802e+002;0.000000e+000
4.532088e+002;0.000000e+000
4.551373e+002;0.000000e+000
4.570659e+002;0.000000e+000
4.589944e+002;0.000000e+000
4.609230e+002;0.000000e+000
4.628515e+002;0.000000e+000
4.647801e+002;0.000000e+000
4.667086e+002;0.000000e+000
4.686372e+002;0.000000e+000
4.705657e+002;0.000000e+000
4.724943e+002;0.000000e+000
4.744228e+002;0.000000e+000
4.763513e+002;0.000000e+000
4.782799e+002;0.000000e+000
4.802085e+002;0.000000e+000
4.821370e+002;0.000000e+000
4.840656e+002;0.000000e+000
4.859941e+002;0.000000e+000
4.879226e+002;0.000000e+000
4.898512e+002;0.000000e+000
4.917798e+002;0.000000e+000
4.937083e+002;0.000000e+000
4.956368e+002;0.000000e+000
4.975654e+002;0.000000e+000
4.994939e+002;0.000000e+000
5.014225e+002;0.000000e+000
5.033510e+002;0.000000e+000
5.052796e+002;0.000000e+000
5.072081e+002;0.000000e+000
5.091367e+002;0.000000e+000
5.110652e+002;0.000000e+000
5.129938e+002;0.000000e+000
5.149223e+002;0.000000e+000
5.168509e+002;0.000000e+000
5.187794e+002;0.000000e+000
5.207079e+002;0.000000e+000
5.226365e+002;0.000000e+000
5.245651e+002;0.000000e+000
5.264936e+002;0.000000e+000
5.284222e+002;0.000000e+000
5.303507e+002;0.000000e+000
5.322792e+002;0.000000e+000
5.342078e+002;0.000000e+000
5.361364e+002;0.000000e+000
5.380649e+002;0.000000e+000
5.399935e+002;0.000000e+000
5.419220e+002;0.000000e+000
5.438505e+002;0.000000e+000
5.457791e+002;0.000000e+000
5.477076e+002;0.000000e+000
5.496362e+002;0.000000e+000
5.515648e+002;0.000000e+000
5.534933e+002;0.000000e+000
5.554218e+002;0.000000e+000
5.573504e+002;0.000000e+000
5.592789e+002;0.000000e+000
5.612075e+002;0.000000e+000
5.631360e+002;0.000000e+000
5.650646e+002;0.000000e+000
5.669931e+002;0.000000e+000
5.689217e+002;0.000000e+000
5.708502e+002;0.000000e+000
5.727787e+002;0.000000e+000
5.747073e+002;0.000000e+000
5.766359e+002;0.000000e+000
5.785644e+002;0.000000e+000
5.804930e+002;0.000000e+000
5.824215e+002;0.000000e+000
5.843500e+002;0.000000e+000
5.862786e+002;0.000000e+000
5.882072e+002;0.000000e+000
5.901357e+002;0.000000e+000
5.920643e+002;0.000000e+000
5.939928e+002;0.000000e+000
5.959213e+002;0.000000e+000
5.978499e+002;0.000000e+000
5.997784e+002;1.862658e-001
6.017070e+002;1.891565e-001
6.036355e+002;1.854882e-001
6.055641e+002;1.826365e-001
6.074926e+002;1.838730e-001
6.094211e+002;1.836682e-001
6.113497e+002;1.849449e-001
6.132783e+002;1.857193e-001
6.152068e+002;1.847355e-001
6.171354e+002;1.821956e-001
6.190639e+002;1.796625e-001
6.209924e+002;1.787732e-001
6.229210e+002;1.791443e-001
6.248495e+002;1.813398e-001
6.267781e+002;1.855287e-001
6.287067e+002;1.852680e-001
6.306352e+002;1.811244e-001
6.325637e+002;1.807872e-001
6.344923e+002;1.839451e-001
6.364208e+002;1.823763e-001
6.383494e+002;1.795053e-001
6.402780e+002;1.810541e-001
6.422065e+002;1.829530e-001
6.441350e+002;1.821677e-001
6.460636e+002;1.800525e-001
6.479921e+002;1.784863e-001
6.499207e+002;1.778755e-001
6.518492e+002;1.755478e-001
6.537778e+002;1.711927e-001
6.557063e+002;1.690481e-001
6.576349e+002;1.706528e-001
6.595634e+002;1.738458e-001
6.614919e+002;1.749329e-001
6.634205e+002;1.729294e-001
6.653491e+002;1.726809e-001
6.672776e+002;1.719992e-001
6.692062e+002;1.708105e-001
6.711347e+002;1.690443e-001
6.730632e+002;1.674037e-001
6.749918e+002;1.664766e-001
6.769203e+002;1.646793e-001
6.788489e+002;1.625062e-001
6.807775e+002;1.616412e-001
6.827060e+002;1.618712e-001
6.846345e+002;1.610320e-001
6.865631e+002;1.589338e-001
6.884916e+002;1.575488e-001
6.904202e+002;1.574365e-001
6.923488e+002;1.579452e-001
6.942773e+002;1.576868e-001
6.962058e+002;1.574485e-001
6.981344e+002;1.572615e-001
7.000629e+002;1.568138e-001
7.019915e+002;1.565098e-001
7.039200e+002;1.559475e-001
7.058486e+002;1.551671e-001
7.077771e+002;1.535966e-001
7.097057e+002;1.519075e-001
7.116342e+002;1.500881e-001
7.135627e+002;1.479665e-001
7.154913e+002;1.472235e-001
7.174199e+002;1.471393e-001
7.193484e+002;1.466954e-001
7.212770e+002;1.453728e-001
7.232055e+002;1.448506e-001
7.251340e+002;1.454213e-001
7.270626e+002;1.442861e-001
7.289911e+002;1.431627e-001
7.309197e+002;1.424567e-001
7.328483e+002;1.419589e-001
7.347768e+002;1.418831e-001
7.367053e+002;1.419203e-001
7.386339e+002;1.423183e-001
7.405624e+002;1.424903e-001
7.424910e+002;1.424550e-001
7.444196e+002;1.421980e-001
7.463481e+002;1.410480e-001
7.482766e+002;1.392257e-001
7.502052e+002;1.380587e-001
7.521337e+002;1.374437e-001
7.540623e+002;1.368088e-001
7.559908e+002;1.356978e-001
7.579194e+002;1.342116e-001
7.598479e+002;1.336391e-001
7.617765e+002;1.322847e-001
7.637050e+002;1.308053e-001
7.656335e+002;1.298398e-001
7.675621e+002;1.284667e-001
7.694907e+002;1.269029e-001
7.714192e+002;1.260542e-001
7.733478e+002;1.258245e-001
7.752763e+002;1.243420e-001
7.772048e+002;1.226718e-001
7.791334e+002;1.226795e-001
7.810620e+002;1.225418e-001
7.829905e+002;1.218228e-001
7.849191e+002;1.211665e-001
7.868476e+002;1.206986e-001
7.887761e+002;1.203980e-001
7.907047e+002;1.205148e-001
7.926332e+002;1.204680e-001
7.945618e+002;1.200164e-001
7.964903e+002;1.190111e-001
7.984189e+002;1.182874e-001
8.003474e+002;1.184497e-001
8.022759e+002;1.180741e-001
8.042045e+002;1.170133e-001
8.061331e+002;1.168410e-001
8.080616e+002;1.171340e-001
8.099902e+002;1.170703e-001
8.119187e+002;1.166879e-001
8.138472e+002;1.163924e-001
8.157758e+002;1.168231e-001
8.177043e+002;1.175001e-001
8.196329e+002;1.180063e-001
8.215615e+002;1.186638e-001
8.234900e+002;1.192698e-001
8.254185e+002;1.195002e-001
8.273471e+002;1.193337e-001
8.292756e+002;1.188113e-001
8.312042e+002;1.182923e-001
8.331328e+002;1.174804e-001
8.350613e+002;1.166260e-001
8.369898e+002;1.153621e-001
8.389184e+002;1.142005e-001
8.408469e+002;1.130520e-001
8.427755e+002;1.118418e-001
8.447040e+002;1.111152e-001
8.466326e+002;1.110064e-001
8.485611e+002;1.106535e-001
8.504897e+002;1.096149e-001
8.524182e+002;1.086823e-001
8.543467e+002;1.078381e-001
8.562753e+002;1.067001e-001
8.582039e+002;1.060864e-001
8.601324e+002;1.059010e-001
8.620610e+002;1.054849e-001
8.639895e+002;1.050298e-001
8.659180e+002;1.046448e-001
8.678466e+002;1.046536e-001
8.697751e+002;1.046837e-001
8.717037e+002;1.044738e-001
8.736323e+002;1.044044e-001
8.755608e+002;1.045017e-001
8.774893e+002;1.049804e-001
8.794179e+002;1.053437e-001
8.813464e+002;1.056048e-001
8.832750e+002;1.055441e-001
8.852036e+002;1.051685e-001
8.871321e+002;1.047214e-001
8.890606e+002;1.038603e-001
8.909892e+002;1.032579e-001
8.929177e+002;1.033117e-001
8.948463e+002;1.033170e-001
8.967748e+002;1.031781e-001
8.987034e+002;1.025741e-001
9.006319e+002;1.018744e-001
9.025605e+002;1.012612e-001
9.044890e+002;1.015211e-001
9.064175e+002;1.018007e-001
9.083461e+002;1.016065e-001
9.102747e+002;1.016738e-001
9.122032e+002;1.012898e-001
9.141318e+002;1.009465e-001
9.160603e+002;1.011876e-001
9.179888e+002;1.014139e-001
9.199174e+002;1.011766e-001
9.218459e+002;1.007479e-001
9.237745e+002;1.009705e-001
9.257031e+002;1.012051e-001
9.276316e+002;1.010896e-001
9.295601e+002;1.008152e-001
9.314887e+002;1.005138e-001
9.334172e+002;1.002288e-001
9.353458e+002;9.993134e-002
9.372744e+002;9.951177e-002
9.392029e+002;9.900936e-002
9.411314e+002;9.865940e-002
9.430600e+002;9.848886e-002
9.449885e+002;9.811449e-002
9.469171e+002;9.774202e-002
9.488456e+002;9.744521e-002
9.507742e+002;9.730896e-002
9.527027e+002;9.738960e-002
9.546313e+002;9.733081e-002
9.565598e+002;9.725885e-002
9.584883e+002;9.756304e-002
9.604169e+002;9.783552e-002
9.623455e+002;9.778825e-002
9.642740e+002;9.770131e-002
9.662026e+002;9.761402e-002
9.681311e+002;9.762082e-002
9.700596e+002;9.790127e-002
9.719882e+002;9.800747e-002
9.739167e+002;9.790214e-002
9.758453e+002;9.753330e-002
9.777739e+002;9.746283e-002
9.797024e+002;9.789144e-002
9.816309e+002;9.853487e-002
9.835595e+002;9.895750e-002
9.854880e+002;9.958348e-002
9.874166e+002;1.006249e-001
9.893452e+002;1.015368e-001
9.912737e+002;1.022660e-001
9.932022e+002;1.027970e-001
9.951307e+002;1.026095e-001
9.970593e+002;1.020320e-001
9.989879e+002;1.017933e-001
1.000916e+003;1.017543e-001
1.002845e+003;1.021294e-001
1.004773e+003;1.033334e-001
1.006702e+003;1.045936e-001
1.008631e+003;1.058663e-001
1.010559e+003;1.075258e-001
1.012488e+003;1.089469e-001
1.014416e+003;1.104565e-001
1.016345e+003;1.125066e-001
1.018273e+003;1.144836e-001
1.020202e+003;1.163458e-001
1.022130e+003;1.184117e-001
1.024059e+003;1.204001e-001
1.025988e+003;1.221209e-001
1.027916e+003;1.241122e-001
1.029845e+003;1.267223e-001
1.031773e+003;1.295248e-001
1.033702e+003;1.323797e-001
1.035630e+003;1.348349e-001
1.037559e+003;1.367832e-001
1.039487e+003;1.391500e-001
1.041416e+003;1.408900e-001
1.043344e+003;1.420960e-001
1.045273e+003;1.428495e-001
1.047202e+003;1.419728e-001
1.049130e+003;1.400231e-001
1.051059e+003;1.375585e-001
1.052987e+003;1.343502e-001
1.054916e+003;1.316028e-001
1.056844e+003;1.302398e-001
1.058773e+003;1.295977e-001
1.060701e+003;1.292826e-001
1.062630e+003;1.296367e-001
1.064558e+003;1.301800e-001
1.066487e+003;1.308086e-001
1.068416e+003;1.314978e-001
1.070344e+003;1.319105e-001
1.072273e+003;1.322146e-001
1.074201e+003;1.328137e-001
1.076130e+003;1.331435e-001
1.078058e+003;1.332451e-001
1.079987e+003;1.332800e-001
1.081915e+003;1.332250e-001
1.083844e+003;1.330865e-001
1.085773e+003;1.332655e-001
1.087701e+003;1.335212e-001
1.089630e+003;1.335178e-001
1.091558e+003;1.333183e-001
1.093487e+003;1.334832e-001
1.095415e+003;1.337194e-001
1.097344e+003;1.338035e-001
1.099272e+003;1.342430e-001
1.101201e+003;1.342120e-001
1.103129e+003;1.334429e-001
1.105058e+003;1.330959e-001
1.106987e+003;1.327969e-001
1.108915e+003;1.318947e-001
1.110844e+003;1.314160e-001
1.112772e+003;1.312654e-001
1.114701e+003;1.306764e-001
1.116629e+003;1.300006e-001
1.118558e+003;1.297293e-001
1.120486e+003;1.299231e-001
1.122415e+003;1.301187e-001
1.124344e+003;1.302920e-001
1.126272e+003;1.308900e-001
1.128201e+003;1.310360e-001
1.130129e+003;1.311989e-001
1.132058e+003;1.317816e-001
1.133986e+003;1.323489e-001
1.135915e+003;1.334738e-001
1.137843e+003;1.348166e-001
1.139772e+003;1.362775e-001
1.141700e+003;1.377711e-001
1.143629e+003;1.389077e-001
1.145557e+003;1.397173e-001
1.147486e+003;1.404359e-001
1.149415e+003;1.415944e-001
1.151343e+003;1.433485e-001
1.153272e+003;1.444205e-001
1.155200e+003;1.449075e-001
1.157129e+003;1.450698e-001
1.159057e+003;1.452920e-001
1.160986e+003;1.457822e-001
1.162914e+003;1.462953e-001
1.164843e+003;1.473461e-001
1.166771e+003;1.486564e-001
1.168700e+003;1.496392e-001
1.170629e+003;1.505406e-001
1.172557e+003;1.511973e-001
1.174486e+003;1.520140e-001
1.176414e+003;1.529095e-001
1.178343e+003;1.537653e-001
1.180271e+003;1.546878e-001
1.182200e+003;1.554503e-001
1.184128e+003;1.560753e-001
1.186057e+003;1.570352e-001
1.187986e+003;1.579806e-001
1.189914e+003;1.584509e-001
1.191843e+003;1.584434e-001
1.193771e+003;1.586039e-001
1.195700e+003;1.588647e-001
1.197628e+003;1.590190e-001
1.199557e+003;1.592084e-001
1.201485e+003;1.595664e-001
1.203414e+003;1.599746e-001
1.205343e+003;1.600465e-001
1.207271e+003;1.603783e-001
1.209200e+003;1.610932e-001
1.211128e+003;1.619408e-001
1.213057e+003;1.628908e-001
1.214985e+003;1.637560e-001
1.216914e+003;1.644505e-001
1.218842e+003;1.654350e-001
1.220771e+003;1.664521e-001
1.222699e+003;1.673509e-001
1.224628e+003;1.681181e-001
1.226557e+003;1.686875e-001
1.228485e+003;1.694333e-001
1.230414e+003;1.698990e-001
1.232342e+003;1.701755e-001
1.234271e+003;1.702754e-001
1.236199e+003;1.697663e-001
1.238128e+003;1.691901e-001
1.240056e+003;1.685362e-001
1.241985e+003;1.678907e-001
1.243913e+003;1.674467e-001
1.245842e+003;1.668450e-001
1.247771e+003;1.657427e-001
1.249699e+003;1.648865e-001
1.251628e+003;1.642112e-001
1.253556e+003;1.635688e-001
1.255485e+003;1.629176e-001
1.257413e+003;1.618351e-001
1.259342e+003;1.606656e-001
1.261270e+003;1.594913e-001
1.263199e+003;1.579239e-001
1.265127e+003;1.563285e-001
1.267056e+003;1.548030e-001
1.268985e+003;1.535949e-001
1.270913e+003;1.528969e-001
1.272842e+003;1.524944e-001
1.274770e+003;1.522556e-001
1.276699e+003;1.518025e-001
1.278627e+003;1.514876e-001
1.280556e+003;1.513873e-001
1.282484e+003;1.514308e-001
1.284413e+003;1.514188e-001
1.286342e+003;1.512605e-001
1.288270e+003;1.509160e-001
1.290199e+003;1.509470e-001
1.292127e+003;1.512680e-001
1.294056e+003;1.515009e-001
1.295984e+003;1.516356e-001
1.297913e+003;1.515318e-001
1.299841e+003;1.512432e-001
1.301770e+003;1.508150e-001
1.303698e+003;1.501936e-001
1.305627e+003;1.494771e-001
1.307556e+003;1.489861e-001
1.309484e+003;1.488518e-001
1.311413e+003;1.490270e-001
1.313341e+003;1.494192e-001
1.315270e+003;1.497093e-001
1.317198e+003;1.502925e-001
1.319127e+003;1.510564e-001
1.321055e+003;1.517688e-001
1.322984e+003;1.521988e-001
1.324912e+003;1.525344e-001
1.326841e+003;1.526827e-001
1.328770e+003;1.527316e-001
1.330698e+003;1.526678e-001
1.332627e+003;1.521704e-001
1.334555e+003;1.513045e-001
1.336484e+003;1.503711e-001
1.338412e+003;1.493658e-001
1.340341e+003;1.483315e-001
1.342269e+003;1.475543e-001
1.344198e+003;1.465956e-001
1.346126e+003;1.454172e-001
1.348055e+003;1.445682e-001
1.349984e+003;1.439693e-001
1.351912e+003;1.433539e-001
1.353841e+003;1.426423e-001
1.355769e+003;1.422523e-001
1.357698e+003;1.420792e-001
1.359626e+003;1.419986e-001
1.361555e+003;1.421753e-001
1.363483e+003;1.429704e-001
1.365412e+003;1.442761e-001
1.367341e+003;1.456333e-001
1.369269e+003;1.465766e-001
1.371198e+003;1.468704e-001
1.373126e+003;1.466408e-001
1.375055e+003;1.470334e-001
1.376983e+003;1.478857e-001
1.378912e+003;1.485653e-001
1.380840e+003;1.493274e-001
1.382769e+003;1.501497e-001
1.384698e+003;1.507875e-001
1.386626e+003;1.509084e-001
1.388555e+003;1.512618e-001
1.390483e+003;1.514066e-001
1.392412e+003;1.507874e-001
1.394340e+003;1.501366e-001
1.396269e+003;1.501658e-001
1.398197e+003;1.501700e-001
1.400126e+003;1.501966e-001
1.402054e+003;1.502690e-001
1.403983e+003;1.499673e-001
1.405911e+003;1.498811e-001
1.407840e+003;1.500271e-001
1.409769e+003;1.499504e-001
1.411697e+003;1.499438e-001
1.413626e+003;1.501458e-001
1.415554e+003;1.499684e-001
1.417483e+003;1.490966e-001
1.419411e+003;1.488114e-001
1.421340e+003;1.500122e-001
1.423268e+003;1.507826e-001
1.425197e+003;1.515063e-001
1.427125e+003;1.522848e-001
1.429054e+003;1.530051e-001
1.430983e+003;1.544442e-001
1.432911e+003;1.562950e-001
1.434840e+003;1.570236e-001
1.436768e+003;1.577737e-001
1.438697e+003;1.603146e-001
1.440625e+003;1.621814e-001
1.442554e+003;1.631023e-001
1.444482e+003;1.636776e-001
1.446411e+003;1.637356e-001
1.448340e+003;1.641706e-001
1.450268e+003;1.652908e-001
1.452197e+003;1.658705e-001
1.454125e+003;1.655277e-001
1.456054e+003;1.639039e-001
1.457982e+003;1.647138e-001
1.459911e+003;1.670647e-001
1.461839e+003;1.676083e-001
1.463768e+003;1.664058e-001
1.465697e+003;1.656434e-001
1.467625e+003;1.658406e-001
1.469554e+003;1.652247e-001
1.471482e+003;1.636128e-001
1.473411e+003;1.632299e-001
1.475339e+003;1.642967e-001
1.477268e+003;1.656655e-001
1.479196e+003;1.672074e-001
1.481125e+003;1.688586e-001
1.483053e+003;1.711385e-001
1.484982e+003;1.734837e-001
1.486911e+003;1.759571e-001
1.488839e+003;1.788177e-001
1.490768e+003;1.824412e-001
1.492696e+003;1.864403e-001
1.494625e+003;1.891804e-001
1.496553e+003;1.918558e-001
1.498482e+003;1.955291e-001
1.500410e+003;1.988293e-001
1.502339e+003;2.010047e-001
1.504267e+003;2.006777e-001
1.506196e+003;1.998856e-001
1.508125e+003;2.025396e-001
1.510053e+003;2.055076e-001
1.511982e+003;2.067594e-001
1.513910e+003;2.069411e-001
1.515839e+003;2.054603e-001
1.517767e+003;2.033277e-001
1.519696e+003;2.002615e-001
1.521624e+003;1.971620e-001
1.523553e+003;1.963047e-001
1.525481e+003;1.953733e-001
1.527410e+003;1.944008e-001
1.529339e+003;1.933628e-001
1.531267e+003;1.916012e-001
1.533196e+003;1.894539e-001
1.535124e+003;1.884120e-001
1.537053e+003;1.858222e-001
1.538981e+003;1.812049e-001
1.540910e+003;1.793208e-001
1.542838e+003;1.796562e-001
1.544767e+003;1.793714e-001
1.546695e+003;1.783980e-001
1.548624e+003;1.766237e-001
1.550553e+003;1.745449e-001
1.552481e+003;1.717127e-001
1.554410e+003;1.686514e-001
1.556338e+003;1.652235e-001
1.558267e+003;1.605180e-001
1.560195e+003;1.595827e-001
1.562124e+003;1.609048e-001
1.564052e+003;1.598002e-001
1.565981e+003;1.581632e-001
1.567910e+003;1.560678e-001
1.569838e+003;1.543841e-001
1.571767e+003;1.544053e-001
1.573695e+003;1.533232e-001
1.575624e+003;1.513270e-001
1.577552e+003;1.524241e-001
1.579481e+003;1.546990e-001
1.581409e+003;1.559124e-001
1.583338e+003;1.568743e-001
1.585266e+003;1.579092e-001
1.587195e+003;1.591792e-001
1.589124e+003;1.608538e-001
1.591052e+003;1.627217e-001
1.592981e+003;1.644163e-001
1.594909e+003;1.661391e-001
1.596838e+003;1.681036e-001
1.598766e+003;1.702894e-001
1.600695e+003;1.727685e-001
1.602623e+003;1.756994e-001
1.604552e+003;1.791177e-001
1.606480e+003;1.826430e-001
1.608409e+003;1.861150e-001
1.610338e+003;1.897269e-001
1.612266e+003;1.933677e-001
1.614195e+003;1.956204e-001
1.616123e+003;1.967110e-001
1.618052e+003;2.003912e-001
1.619980e+003;2.044399e-001
1.621909e+003;2.068559e-001
1.623837e+003;2.095219e-001
1.625766e+003;2.123393e-001
1.627694e+003;2.144531e-001
1.629623e+003;2.167950e-001
1.631552e+003;2.186559e-001
1.633480e+003;2.185495e-001
1.635409e+003;2.179679e-001
1.637337e+003;2.196444e-001
1.639266e+003;2.211110e-001
1.641194e+003;2.209307e-001
1.643123e+003;2.195881e-001
1.645051e+003;2.168580e-001
1.646980e+003;2.149287e-001
1.648909e+003;2.141919e-001
1.650837e+003;2.100825e-001
1.652766e+003;2.042673e-001
1.654694e+003;2.038879e-001
1.656623e+003;2.039733e-001
1.658551e+003;2.012336e-001
1.660480e+003;1.974510e-001
1.662408e+003;1.935469e-001
1.664337e+003;1.904244e-001
1.666266e+003;1.870679e-001
1.668194e+003;1.826465e-001
1.670123e+003;1.787041e-001
1.672051e+003;1.758478e-001
1.673980e+003;1.719394e-001
1.675908e+003;1.681919e-001
1.677837e+003;1.655099e-001
1.679765e+003;1.619508e-001
1.681694e+003;1.570625e-001
1.683622e+003;1.506750e-001
1.685551e+003;1.475317e-001
1.687479e+003;1.463091e-001
1.689408e+003;1.431956e-001
1.691337e+003;1.394640e-001
1.693265e+003;1.344632e-001
1.695194e+003;1.279755e-001
1.697122e+003;1.237044e-001
1.699051e+003;1.189598e-001
1.700979e+003;1.151699e-001
1.702908e+003;1.134847e-001
1.704836e+003;1.097502e-001
1.706765e+003;1.063615e-001
1.708693e+003;1.032334e-001
1.710622e+003;9.973525e-002
1.712551e+003;9.597118e-002
1.714479e+003;9.176794e-002
1.716408e+003;8.726791e-002
1.718336e+003;8.530289e-002
1.720265e+003;8.516689e-002
1.722193e+003;8.378331e-002
1.724122e+003;8.193355e-002
1.726050e+003;8.033061e-002
1.727979e+003;7.851031e-002
1.729908e+003;7.671038e-002
1.731836e+003;7.393837e-002
1.733765e+003;7.092214e-002
1.735693e+003;7.124930e-002
1.737622e+003;7.138346e-002
1.739550e+003;6.974717e-002
1.741479e+003;6.880545e-002
1.743407e+003;6.771348e-002
1.745336e+003;6.621799e-002
1.747265e+003;6.467199e-002
1.749193e+003;6.305197e-002
1.751122e+003;6.174293e-002
1.753050e+003;6.159174e-002
1.754979e+003;6.106594e-002
1.756907e+003;6.028127e-002
1.758836e+003;5.982161e-002
1.760764e+003;5.871472e-002
1.762693e+003;5.794681e-002
1.764621e+003;5.792398e-002
1.766550e+003;5.718944e-002
1.768479e+003;5.644637e-002
1.770407e+003;5.551484e-002
1.772336e+003;5.486598e-002
1.774264e+003;5.562593e-002
1.776193e+003;5.592002e-002
1.778121e+003;5.551413e-002
1.780050e+003;5.518043e-002
1.781978e+003;5.516072e-002
1.783907e+003;5.507251e-002
1.785835e+003;5.502846e-002
1.787764e+003;5.509805e-002
1.789693e+003;5.436932e-002
1.791621e+003;5.321183e-002
1.793550e+003;5.331930e-002
1.795478e+003;5.409354e-002
1.797407e+003;5.419905e-002
1.799335e+003;5.398889e-002
1.801264e+003;5.385887e-002
1.803192e+003;5.400386e-002
1.805121e+003;5.404240e-002
1.807049e+003;5.395808e-002
1.808978e+003;5.371643e-002
1.810907e+003;5.355972e-002
1.812835e+003;5.362378e-002
1.814764e+003;5.361070e-002
1.816692e+003;5.337722e-002
1.818621e+003;5.338947e-002
1.820549e+003;5.332420e-002
1.822478e+003;5.310185e-002
1.824406e+003;5.272955e-002
1.826335e+003;5.271624e-002
1.828264e+003;5.241239e-002
1.830192e+003;5.216101e-002
1.832121e+003;5.259041e-002
1.834049e+003;5.296936e-002
1.835978e+003;5.296980e-002
1.837906e+003;5.294439e-002
1.839835e+003;5.281718e-002
1.841763e+003;5.219853e-002
1.843692e+003;5.130271e-002
1.845620e+003;5.150845e-002
1.847549e+003;5.205843e-002
1.849478e+003;5.239945e-002
1.851406e+003;5.239635e-002
1.853335e+003;5.220002e-002
1.855263e+003;5.224412e-002
1.857192e+003;5.238663e-002
1.859120e+003;5.236009e-002
1.861049e+003;5.222752e-002
1.862977e+003;5.214532e-002
1.864906e+003;5.199131e-002
1.866834e+003;5.152072e-002
1.868763e+003;5.117692e-002
1.870692e+003;5.152728e-002
1.872620e+003;5.184015e-002
1.874549e+003;5.190881e-002
1.876477e+003;5.200871e-002
1.878406e+003;5.200979e-002
1.880334e+003;5.192812e-002
1.882263e+003;5.192991e-002
1.884191e+003;5.182398e-002
1.886120e+003;5.174753e-002
1.888048e+003;5.165370e-002
1.889977e+003;5.163191e-002
1.891906e+003;5.173555e-002
1.893834e+003;5.165964e-002
1.895763e+003;5.163668e-002
1.897691e+003;5.173831e-002
1.899620e+003;5.176429e-002
1.901548e+003;5.177023e-002
1.903477e+003;5.184467e-002
1.905405e+003;5.180413e-002
1.907334e+003;5.168181e-002
1.909262e+003;5.146610e-002
1.911191e+003;5.143656e-002
1.913120e+003;5.151031e-002
1.915048e+003;5.117875e-002
1.916977e+003;5.075946e-002
1.918905e+003;5.094675e-002
1.920834e+003;5.113047e-002
1.922762e+003;5.112007e-002
1.924691e+003;5.129991e-002
1.926619e+003;5.135760e-002
1.928548e+003;5.142358e-002
1.930477e+003;5.155728e-002
1.932405e+003;5.178725e-002
1.934334e+003;5.180304e-002
1.936262e+003;5.150800e-002
1.938191e+003;5.134698e-002
1.940119e+003;5.128276e-002
1.942048e+003;5.107363e-002
1.943976e+003;5.116413e-002
1.945905e+003;5.133452e-002
1.947833e+003;5.136398e-002
1.949762e+003;5.144738e-002
1.951691e+003;5.131412e-002
1.953619e+003;5.136588e-002
1.955548e+003;5.163299e-002
1.957476e+003;5.184190e-002
1.959405e+003;5.163124e-002
1.961333e+003;5.149531e-002
1.963262e+003;5.160135e-002
1.965190e+003;5.157116e-002
1.967119e+003;5.132344e-002
1.969047e+003;5.125868e-002
1.970976e+003;5.139050e-002
1.972905e+003;5.152199e-002
1.974833e+003;5.157019e-002
1.976762e+003;5.167251e-002
1.978690e+003;5.163918e-002
1.980619e+003;5.144790e-002
1.982547e+003;5.134541e-002
1.984476e+003;5.146715e-002
1.986404e+003;5.153340e-002
1.988333e+003;5.158075e-002
1.990261e+003;5.153598e-002
1.992190e+003;5.140859e-002
1.994119e+003;5.150695e-002
1.996047e+003;5.165841e-002
1.997976e+003;5.159485e-002
1.999904e+003;5.153363e-002
2.001833e+003;5.167718e-002
2.003761e+003;5.172988e-002
2.005690e+003;5.160407e-002
2.007618e+003;5.160646e-002
2.009547e+003;5.168016e-002
2.011476e+003;5.176086e-002
2.013404e+003;5.173402e-002
2.015333e+003;5.165340e-002
2.017261e+003;5.155049e-002
2.019190e+003;5.172962e-002
2.021118e+003;5.179326e-002
2.023047e+003;5.168020e-002
2.024975e+003;5.178042e-002
2.026904e+003;5.186252e-002
2.028833e+003;5.163456e-002
2.030761e+003;5.148218e-002
2.032690e+003;5.148360e-002
2.034618e+003;5.147655e-002
2.036547e+003;5.169401e-002
2.038475e+003;5.177254e-002
2.040404e+003;5.170151e-002
2.042332e+003;5.176694e-002
2.044261e+003;5.181450e-002
2.046189e+003;5.192132e-002
2.048118e+003;5.201514e-002
2.050047e+003;5.190773e-002
2.051975e+003;5.185613e-002
2.053904e+003;5.194866e-002
2.055832e+003;5.191789e-002
2.057761e+003;5.183358e-002
2.059689e+003;5.174003e-002
2.061618e+003;5.166524e-002
2.063546e+003;5.167968e-002
2.065475e+003;5.174466e-002
2.067404e+003;5.179785e-002
2.069332e+003;5.176601e-002
2.071260e+003;5.186311e-002
2.073189e+003;5.188174e-002
2.075118e+003;5.180633e-002
2.077046e+003;5.174421e-002
2.078975e+003;5.168528e-002
2.080903e+003;5.175052e-002
2.082832e+003;5.190038e-002
2.084760e+003;5.171428e-002
2.086689e+003;5.141254e-002
2.088617e+003;5.160023e-002
2.090546e+003;5.185393e-002
2.092475e+003;5.186699e-002
2.094403e+003;5.169013e-002
2.096332e+003;5.164564e-002
2.098260e+003;5.173839e-002
2.100189e+003;5.182309e-002
2.102117e+003;5.177053e-002
2.104046e+003;5.158765e-002
2.105974e+003;5.138912e-002
2.107903e+003;5.141444e-002
2.109832e+003;5.149117e-002
2.111760e+003;5.152740e-002
2.113688e+003;5.162437e-002
2.115617e+003;5.146991e-002
2.117546e+003;5.147532e-002
2.119474e+003;5.157866e-002
2.121403e+003;5.155822e-002
2.123331e+003;5.153154e-002
2.125260e+003;5.149718e-002
2.127188e+003;5.150319e-002
2.129117e+003;5.150953e-002
2.131045e+003;5.156422e-002
2.132974e+003;5.153855e-002
2.134903e+003;5.156888e-002
2.136831e+003;5.154948e-002
2.138760e+003;5.146487e-002
2.140688e+003;5.150117e-002
2.142617e+003;5.152561e-002
2.144545e+003;5.138841e-002
2.146474e+003;5.136424e-002
2.148402e+003;5.146991e-002
2.150331e+003;5.161575e-002
2.152260e+003;5.150087e-002
2.154188e+003;5.127799e-002
2.156117e+003;5.121792e-002
2.158045e+003;5.129231e-002
2.159974e+003;5.142731e-002
2.161902e+003;5.144406e-002
2.163831e+003;5.133646e-002
2.165759e+003;5.142194e-002
2.167688e+003;5.144055e-002
2.169616e+003;5.118288e-002
2.171545e+003;5.115671e-002
2.173474e+003;5.133228e-002
2.175402e+003;5.141146e-002
2.177331e+003;5.139747e-002
2.179259e+003;5.134631e-002
2.181188e+003;5.123049e-002
2.183116e+003;5.117457e-002
2.185045e+003;5.127762e-002
2.186973e+003;5.136238e-002
2.188902e+003;5.131834e-002
2.190831e+003;5.128492e-002
2.192759e+003;5.129965e-002
2.194688e+003;5.132781e-002
2.196616e+003;5.150863e-002
2.198545e+003;5.163863e-002
2.200473e+003;5.157280e-002
2.202402e+003;5.134727e-002
2.204330e+003;5.114758e-002
2.206259e+003;5.119831e-002
2.208188e+003;5.143160e-002
2.210116e+003;5.141478e-002
2.212044e+003;5.148423e-002
2.213973e+003;5.177687e-002
2.215902e+003;5.180353e-002
2.217830e+003;5.158941e-002
2.219759e+003;5.142672e-002
2.221687e+003;5.126867e-002
2.223616e+003;5.122065e-002
2.225544e+003;5.130480e-002
2.227473e+003;5.138655e-002
2.229401e+003;5.133228e-002
2.231330e+003;5.124805e-002
2.233259e+003;5.115925e-002
2.235187e+003;5.124969e-002
2.237116e+003;5.139042e-002
2.239044e+003;5.132385e-002
2.240973e+003;5.135373e-002
2.242901e+003;5.139057e-002
2.244830e+003;5.123373e-002
2.246758e+003;5.114259e-002
2.248687e+003;5.114173e-002
2.250615e+003;5.128511e-002
2.252544e+003;5.150919e-002
2.254473e+003;5.142105e-002
2.256401e+003;5.127456e-002
2.258330e+003;5.126841e-002
2.260258e+003;5.135772e-002
2.262187e+003;5.123810e-002
2.264115e+003;5.115131e-002
2.266044e+003;5.116126e-002
2.267972e+003;5.114531e-002
2.269901e+003;5.115984e-002
2.271830e+003;5.129801e-002
2.273758e+003;5.139393e-002
2.275687e+003;5.120473e-002
2.277615e+003;5.108783e-002
2.279544e+003;5.108806e-002
2.281472e+003;5.108515e-002
2.283401e+003;5.115567e-002
2.285329e+003;5.132221e-002
2.287258e+003;5.132438e-002
2.289187e+003;5.127050e-002
2.291115e+003;5.132923e-002
2.293043e+003;5.117580e-002
2.294972e+003;5.100570e-002
2.296901e+003;5.112518e-002
2.298829e+003;5.130331e-002
2.300758e+003;5.138830e-002
2.302686e+003;5.141474e-002
2.304615e+003;5.128422e-002
2.306543e+003;5.111325e-002
2.308472e+003;5.111280e-002
2.310400e+003;5.102075e-002
2.312329e+003;5.075458e-002
2.314258e+003;5.074720e-002
2.316186e+003;5.074329e-002
2.318115e+003;5.060463e-002
2.320043e+003;5.052393e-002
2.321972e+003;5.068520e-002
2.323900e+003;5.072695e-002
2.325829e+003;5.059436e-002
2.327757e+003;5.055743e-002
2.329686e+003;5.064149e-002
2.331615e+003;5.070348e-002
2.333543e+003;5.058900e-002
2.335472e+003;5.050625e-002
2.337400e+003;5.063125e-002
2.339329e+003;5.073484e-002
2.341257e+003;5.088483e-002
2.343186e+003;5.102165e-002
2.345114e+003;5.089139e-002
2.347043e+003;5.083998e-002
2.348971e+003;5.116313e-002
2.350900e+003;5.135626e-002
2.352829e+003;5.108612e-002
2.354757e+003;5.098815e-002
2.356686e+003;5.109107e-002
2.358614e+003;5.086527e-002
2.360543e+003;5.059201e-002
2.362471e+003;5.064231e-002
2.364400e+003;5.062872e-002
2.366328e+003;5.056275e-002
2.368257e+003;5.075599e-002
2.370186e+003;5.110017e-002
2.372114e+003;5.140422e-002
2.374042e+003;5.166483e-002
2.375971e+003;5.164545e-002
2.377900e+003;5.156295e-002
2.379828e+003;5.175560e-002
2.381757e+003;5.206101e-002
2.383685e+003;5.229920e-002
2.385614e+003;5.223997e-002
2.387542e+003;5.211782e-002
2.389471e+003;5.211801e-002
2.391399e+003;5.210803e-002
2.393328e+003;5.221516e-002
2.395257e+003;5.244981e-002
2.397185e+003;5.245770e-002
2.399114e+003;5.256229e-002
2.401042e+003;5.281191e-002
2.402971e+003;5.299646e-002
2.404899e+003;5.293660e-002
2.406828e+003;5.271452e-002
2.408756e+003;5.277183e-002
2.410685e+003;5.292477e-002
2.412614e+003;5.291235e-002
2.414542e+003;5.306579e-002
2.416471e+003;5.319105e-002
2.418399e+003;5.331499e-002
2.420328e+003;5.357914e-002
2.422256e+003;5.366188e-002
2.424185e+003;5.383651e-002
2.426113e+003;5.389877e-002
2.428042e+003;5.388006e-002
2.429970e+003;5.396912e-002
2.431899e+003;5.415859e-002
2.433828e+003;5.438907e-002
2.435756e+003;5.450882e-002
2.437685e+003;5.444094e-002
2.439613e+003;5.431281e-002
2.441542e+003;5.432602e-002
2.443470e+003;5.447005e-002
2.445399e+003;5.463892e-002
2.447327e+003;5.491313e-002
2.449256e+003;5.491083e-002
2.451185e+003;5.465880e-002
2.453113e+003;5.462487e-002
2.455042e+003;5.487214e-002
2.456970e+003;5.505291e-002
2.458899e+003;5.522946e-002
2.460827e+003;5.517987e-002
2.462756e+003;5.497288e-002
2.464684e+003;5.515888e-002
2.466613e+003;5.557517e-002
2.468542e+003;5.564322e-002
2.470470e+003;5.544406e-002
2.472398e+003;5.568732e-002
2.474327e+003;5.600305e-002
2.476256e+003;5.587913e-002
2.478184e+003;5.573723e-002
2.480113e+003;5.597135e-002
2.482041e+003;5.623976e-002
2.483970e+003;5.630909e-002
2.485898e+003;5.633263e-002
2.487827e+003;5.618380e-002
2.489755e+003;5.599480e-002
2.491684e+003;5.625881e-002
2.493613e+003;5.656295e-002
2.495541e+003;5.664561e-002
2.497470e+003;5.702396e-002
2.499398e+003;5.716431e-002
2.501327e+003;5.696959e-002
2.503255e+003;5.708151e-002
2.505184e+003;5.714057e-002
2.507112e+003;5.715785e-002
2.509041e+003;5.737889e-002
2.510969e+003;5.733434e-002
2.512898e+003;5.717096e-002
2.514827e+003;5.744046e-002
2.516755e+003;5.762770e-002
2.518684e+003;5.765494e-002
2.520612e+003;5.771810e-002
2.522541e+003;5.779433e-002
2.524469e+003;5.786409e-002
2.526398e+003;5.780015e-002
2.528326e+003;5.774614e-002
2.530255e+003;5.787241e-002
2.532184e+003;5.815901e-002
2.534112e+003;5.847833e-002
2.536041e+003;5.851609e-002
2.537969e+003;5.844095e-002
2.539898e+003;5.859105e-002
2.541826e+003;5.869712e-002
2.543755e+003;5.871502e-002
2.545683e+003;5.862183e-002
2.547612e+003;5.855525e-002
2.549541e+003;5.865730e-002
2.551469e+003;5.879927e-002
2.553397e+003;5.877302e-002
2.555326e+003;5.873217e-002
2.557255e+003;5.893500e-002
2.559183e+003;5.901360e-002
2.561112e+003;5.917589e-002
2.563040e+003;5.929852e-002
2.564969e+003;5.945017e-002
2.566897e+003;5.955965e-002
2.568826e+003;5.960681e-002
2.570754e+003;5.965623e-002
2.572683e+003;5.978663e-002
2.574612e+003;5.998889e-002
2.576540e+003;6.004151e-002
2.578469e+003;6.008108e-002
2.580397e+003;6.046685e-002
2.582326e+003;6.064013e-002
2.584254e+003;6.060241e-002
2.586183e+003;6.074697e-002
2.588111e+003;6.082418e-002
2.590040e+003;6.090366e-002
2.591969e+003;6.105049e-002
2.593897e+003;6.101732e-002
2.595826e+003;6.091201e-002
2.597754e+003;6.090118e-002
2.599683e+003;6.076747e-002
2.601611e+003;6.078561e-002
2.603540e+003;6.105633e-002
2.605468e+003;6.153088e-002
2.607397e+003;6.169358e-002
2.609325e+003;6.178632e-002
2.611254e+003;6.187240e-002
2.613183e+003;6.201768e-002
2.615111e+003;6.220152e-002
2.617040e+003;6.220363e-002
2.618968e+003;6.210973e-002
2.620897e+003;6.210396e-002
2.622825e+003;6.211990e-002
2.624754e+003;6.227544e-002
2.626682e+003;6.230864e-002
2.628611e+003;6.213588e-002
2.630540e+003;6.229548e-002
2.632468e+003;6.266064e-002
2.634396e+003;6.292184e-002
2.636325e+003;6.272759e-002
2.638254e+003;6.270405e-002
2.640182e+003;6.284633e-002
2.642111e+003;6.299979e-002
2.644039e+003;6.305304e-002
2.645968e+003;6.293467e-002
2.647896e+003;6.300400e-002
2.649825e+003;6.313235e-002
2.651753e+003;6.323682e-002
2.653682e+003;6.320815e-002
2.655611e+003;6.321746e-002
2.657539e+003;6.342789e-002
2.659468e+003;6.361178e-002
2.661396e+003;6.365659e-002
2.663325e+003;6.360849e-002
2.665253e+003;6.380812e-002
2.667182e+003;6.381768e-002
2.669110e+003;6.390216e-002
2.671039e+003;6.406287e-002
2.672968e+003;6.416081e-002
2.674896e+003;6.440662e-002
2.676825e+003;6.469133e-002
2.678753e+003;6.469225e-002
2.680682e+003;6.452377e-002
2.682610e+003;6.438641e-002
2.684539e+003;6.464914e-002
2.686467e+003;6.510920e-002
2.688396e+003;6.517819e-002
2.690324e+003;6.531504e-002
2.692253e+003;6.541549e-002
2.694182e+003;6.528018e-002
2.696110e+003;6.535520e-002
2.698039e+003;6.558782e-002
2.699967e+003;6.569573e-002
2.701896e+003;6.586216e-002
2.703824e+003;6.602769e-002
2.705753e+003;6.591126e-002
2.707681e+003;6.606184e-002
2.709610e+003;6.644168e-002
2.711539e+003;6.665375e-002
2.713467e+003;6.682538e-002
2.715396e+003;6.686569e-002
2.717324e+003;6.690241e-002
2.719253e+003;6.710117e-002
2.721181e+003;6.738169e-002
2.723110e+003;6.755655e-002
2.725038e+003;6.781378e-002
2.726967e+003;6.790978e-002
2.728896e+003;6.787123e-002
2.730824e+003;6.788792e-002
2.732752e+003;6.823417e-002
2.734681e+003;6.855399e-002
2.736610e+003;6.865415e-002
2.738538e+003;6.879691e-002
2.740467e+003;6.899172e-002
2.742395e+003;6.911206e-002
2.744324e+003;6.907096e-002
2.746252e+003;6.913370e-002
2.748181e+003;6.921887e-002
2.750109e+003;6.925245e-002
2.752038e+003;6.939051e-002
2.753967e+003;6.971130e-002
2.755895e+003;7.004549e-002
2.757824e+003;7.027343e-002
2.759752e+003;7.038185e-002
2.761681e+003;7.046368e-002
2.763609e+003;7.057780e-002
2.765538e+003;7.072505e-002
2.767466e+003;7.076658e-002
2.769395e+003;7.094769e-002
2.771323e+003;7.119776e-002
2.773252e+003;7.115651e-002
2.775181e+003;7.116837e-002
2.777109e+003;7.135191e-002
2.779038e+003;7.160452e-002
2.780966e+003;7.201291e-002
2.782895e+003;7.214047e-002
2.784823e+003;7.201166e-002
2.786752e+003;7.191491e-002
2.788680e+003;7.199101e-002
2.790609e+003;7.248323e-002
2.792538e+003;7.296060e-002
2.794466e+003;7.319286e-002
2.796395e+003;7.339503e-002
2.798323e+003;7.328989e-002
2.800252e+003;7.333394e-002
2.802180e+003;7.369617e-002
2.804109e+003;7.401554e-002
2.806037e+003;7.435922e-002
2.807966e+003;7.472220e-002
2.809895e+003;7.510844e-002
2.811823e+003;7.543432e-002
2.813751e+003;7.554451e-002
2.815680e+003;7.568371e-002
2.817609e+003;7.580253e-002
2.819537e+003;7.623949e-002
2.821466e+003;7.670543e-002
2.823394e+003;7.671674e-002
2.825323e+003;7.660590e-002
2.827251e+003;7.689477e-002
2.829180e+003;7.744490e-002
2.831108e+003;7.772271e-002
2.833037e+003;7.795665e-002
2.834966e+003;7.843842e-002
2.836894e+003;7.881221e-002
2.838823e+003;7.937702e-002
2.840751e+003;8.012662e-002
2.842680e+003;8.072434e-002
2.844608e+003;8.116069e-002
2.846537e+003;8.139019e-002
2.848465e+003;8.195488e-002
2.850394e+003;8.257172e-002
2.852323e+003;8.311299e-002
2.854251e+003;8.396085e-002
2.856180e+003;8.492891e-002
2.858108e+003;8.571117e-002
2.860037e+003;8.621593e-002
2.861965e+003;8.677350e-002
2.863894e+003;8.763717e-002
2.865822e+003;8.857179e-002
2.867751e+003;8.926664e-002
2.869679e+003;8.990487e-002
2.871608e+003;9.096906e-002
2.873536e+003;9.168748e-002
2.875465e+003;9.163796e-002
2.877394e+003;9.127587e-002
2.879322e+003;9.116652e-002
2.881251e+003;9.130142e-002
2.883179e+003;9.132645e-002
2.885108e+003;9.144884e-002
2.887036e+003;9.171592e-002
2.888965e+003;9.180068e-002
2.890893e+003;9.158449e-002
2.892822e+003;9.177129e-002
2.894750e+003;9.224110e-002
2.896679e+003;9.228462e-002
2.898608e+003;9.264108e-002
2.900536e+003;9.323575e-002
2.902465e+003;9.351729e-002
2.904393e+003;9.387381e-002
2.906322e+003;9.455058e-002
2.908250e+003;9.489282e-002
2.910179e+003;9.534626e-002
2.912107e+003;9.630429e-002
2.914036e+003;9.709602e-002
2.915965e+003;9.750991e-002
2.917893e+003;9.811744e-002
2.919822e+003;9.883368e-002
2.921750e+003;9.955902e-002
2.923679e+003;1.003777e-001
2.925607e+003;1.010573e-001
2.927536e+003;1.018378e-001
2.929464e+003;1.026181e-001
2.931393e+003;1.030608e-001
2.933322e+003;1.031834e-001
2.935250e+003;1.033391e-001
2.937178e+003;1.033675e-001
2.939107e+003;1.029400e-001
2.941036e+003;1.029529e-001
2.942964e+003;1.031770e-001
2.944893e+003;1.030240e-001
2.946821e+003;1.030485e-001
2.948750e+003;1.032921e-001
2.950678e+003;1.030110e-001
2.952607e+003;1.024281e-001
2.954535e+003;1.023659e-001
2.956464e+003;1.026126e-001
2.958393e+003;1.030791e-001
2.960321e+003;1.029746e-001
2.962250e+003;1.024189e-001
2.964178e+003;1.021518e-001
2.966107e+003;1.022812e-001
2.968035e+003;1.021260e-001
2.969964e+003;1.016069e-001
2.971892e+003;1.011989e-001
2.973821e+003;1.007248e-001
2.975750e+003;1.003812e-001
2.977678e+003;1.000328e-001
2.979607e+003;9.903833e-002
2.981535e+003;9.802923e-002
2.983464e+003;9.764779e-002
2.985392e+003;9.717882e-002
2.987321e+003;9.666812e-002
2.989249e+003;9.620371e-002
2.991178e+003;9.556524e-002
2.993106e+003;9.530734e-002
2.995035e+003;9.519903e-002
2.996964e+003;9.442434e-002
2.998892e+003;9.370784e-002
3.000821e+003;9.359801e-002
3.002749e+003;9.352378e-002
3.004678e+003;9.330869e-002
3.006606e+003;9.319127e-002
3.008535e+003;9.313399e-002
3.010463e+003;9.289329e-002
3.012392e+003;9.250821e-002
3.014321e+003;9.235039e-002
3.016249e+003;9.251966e-002
3.018177e+003;9.289066e-002
3.020106e+003;9.306141e-002
3.022035e+003;9.348589e-002
3.023963e+003;9.387821e-002
3.025892e+003;9.384391e-002
3.027820e+003;9.411597e-002
3.029749e+003;9.466264e-002
3.031677e+003;9.493240e-002
3.033606e+003;9.467962e-002
3.035534e+003;9.460282e-002
3.037463e+003;9.480927e-002
3.039392e+003;9.493817e-002
3.041320e+003;9.507116e-002
3.043249e+003;9.538282e-002
3.045177e+003;9.603450e-002
3.047106e+003;9.658600e-002
3.049034e+003;9.653658e-002
3.050963e+003;9.638838e-002
3.052891e+003;9.656543e-002
3.054820e+003;9.664121e-002
3.056749e+003;9.680470e-002
3.058677e+003;9.705947e-002
3.060606e+003;9.705459e-002
3.062534e+003;9.708118e-002
3.064463e+003;9.717956e-002
3.066391e+003;9.741589e-002
3.068320e+003;9.724139e-002
3.070248e+003;9.685965e-002
3.072177e+003;9.674181e-002
3.074105e+003;9.679240e-002
3.076034e+003;9.682855e-002
3.077963e+003;9.705239e-002
3.079891e+003;9.743720e-002
3.081820e+003;9.763966e-002
3.083748e+003;9.743845e-002
3.085677e+003;9.688450e-002
3.087605e+003;9.672322e-002
3.089534e+003;9.683891e-002
3.091462e+003;9.650315e-002
3.093391e+003;9.627356e-002
3.095320e+003;9.647733e-002
3.097248e+003;9.656072e-002
3.099177e+003;9.625710e-002
3.101105e+003;9.627104e-002
3.103034e+003;9.648143e-002
3.104962e+003;9.633283e-002
3.106891e+003;9.639090e-002
3.108819e+003;9.662242e-002
3.110748e+003;9.652744e-002
3.112677e+003;9.665404e-002
3.114605e+003;9.686015e-002
3.116533e+003;9.686156e-002
3.118462e+003;9.713588e-002
3.120391e+003;9.743240e-002
3.122319e+003;9.737165e-002
3.124248e+003;9.742451e-002
3.126176e+003;9.760556e-002
3.128105e+003;9.778065e-002
3.130033e+003;9.784914e-002
3.131962e+003;9.820168e-002
3.133890e+003;9.895779e-002
3.135819e+003;9.934826e-002
3.137748e+003;9.955073e-002
3.139676e+003;9.991129e-002
3.141605e+003;1.004719e-001
3.143533e+003;1.009080e-001
3.145462e+003;1.007821e-001
3.147390e+003;1.007913e-001
3.149319e+003;1.014689e-001
3.151247e+003;1.024297e-001
3.153176e+003;1.031196e-001
3.155104e+003;1.031551e-001
3.157033e+003;1.029724e-001
3.158962e+003;1.032777e-001
3.160890e+003;1.041488e-001
3.162819e+003;1.046969e-001
3.164747e+003;1.048589e-001
3.166676e+003;1.050758e-001
3.168604e+003;1.055557e-001
3.170533e+003;1.061446e-001
3.172461e+003;1.065938e-001
3.174390e+003;1.071524e-001
3.176319e+003;1.078551e-001
3.178247e+003;1.082251e-001
3.180176e+003;1.083354e-001
3.182104e+003;1.086190e-001
3.184033e+003;1.090332e-001
3.185961e+003;1.093276e-001
3.187890e+003;1.099265e-001
3.189818e+003;1.104278e-001
3.191747e+003;1.103787e-001
3.193676e+003;1.107409e-001
3.195604e+003;1.112170e-001
3.197532e+003;1.115650e-001
3.199461e+003;1.121067e-001
3.201390e+003;1.121596e-001
3.203318e+003;1.123162e-001
3.205247e+003;1.126791e-001
3.207175e+003;1.128950e-001
3.209104e+003;1.131629e-001
3.211032e+003;1.134867e-001
3.212961e+003;1.135387e-001
3.214889e+003;1.138611e-001
3.216818e+003;1.143977e-001
3.218747e+003;1.144263e-001
3.220675e+003;1.141908e-001
3.222604e+003;1.141517e-001
3.224532e+003;1.142991e-001
3.226461e+003;1.146469e-001
3.228389e+003;1.152981e-001
3.230318e+003;1.159144e-001
3.232246e+003;1.164041e-001
3.234175e+003;1.165260e-001
3.236104e+003;1.166176e-001
3.238032e+003;1.169157e-001
3.239961e+003;1.172074e-001
3.241889e+003;1.173957e-001
3.243818e+003;1.173139e-001
3.245746e+003;1.175587e-001
3.247675e+003;1.177970e-001
3.249603e+003;1.177503e-001
3.251532e+003;1.179004e-001
3.253460e+003;1.186955e-001
3.255389e+003;1.194527e-001
3.257318e+003;1.197153e-001
3.259246e+003;1.194896e-001
3.261175e+003;1.196379e-001
3.263103e+003;1.200489e-001
3.265032e+003;1.205583e-001
3.266960e+003;1.210151e-001
3.268889e+003;1.211388e-001
3.270817e+003;1.209599e-001
3.272746e+003;1.213156e-001
3.274675e+003;1.216399e-001
3.276603e+003;1.217624e-001
3.278531e+003;1.217301e-001
3.280460e+003;1.217563e-001
3.282389e+003;1.217664e-001
3.284317e+003;1.218287e-001
3.286246e+003;1.222637e-001
3.288174e+003;1.221859e-001
3.290103e+003;1.217494e-001
3.292031e+003;1.217831e-001
3.293960e+003;1.219908e-001
3.295888e+003;1.214626e-001
3.297817e+003;1.209262e-001
3.299746e+003;1.209542e-001
3.301674e+003;1.210611e-001
3.303603e+003;1.213234e-001
3.305531e+003;1.214290e-001
3.307460e+003;1.206377e-001
3.309388e+003;1.202736e-001
3.311317e+003;1.206315e-001
3.313245e+003;1.203197e-001
3.315174e+003;1.198792e-001
3.317103e+003;1.198161e-001
3.319031e+003;1.193349e-001
3.320960e+003;1.186249e-001
3.322888e+003;1.185763e-001
3.324817e+003;1.183705e-001
3.326745e+003;1.179555e-001
3.328674e+003;1.179371e-001
3.330602e+003;1.178695e-001
3.332531e+003;1.175229e-001
3.334459e+003;1.169281e-001
3.336388e+003;1.164424e-001
3.338317e+003;1.164213e-001
3.340245e+003;1.161486e-001
3.342174e+003;1.155046e-001
3.344102e+003;1.148992e-001
3.346031e+003;1.144572e-001
3.347959e+003;1.143263e-001
3.349888e+003;1.142505e-001
3.351816e+003;1.132144e-001
3.353745e+003;1.121959e-001
3.355674e+003;1.118972e-001
3.357602e+003;1.116388e-001
3.359531e+003;1.113632e-001
3.361459e+003;1.108056e-001
3.363388e+003;1.103820e-001
3.365316e+003;1.102822e-001
3.367245e+003;1.096036e-001
3.369173e+003;1.087578e-001
3.371102e+003;1.082143e-001
3.373031e+003;1.078650e-001
3.374959e+003;1.078031e-001
3.376887e+003;1.074670e-001
3.378816e+003;1.067462e-001
3.380745e+003;1.062255e-001
3.382673e+003;1.056237e-001
3.384602e+003;1.051846e-001
3.386530e+003;1.051213e-001
3.388459e+003;1.049090e-001
3.390387e+003;1.038981e-001
3.392316e+003;1.029711e-001
3.394244e+003;1.029938e-001
3.396173e+003;1.026767e-001
3.398102e+003;1.020059e-001
3.400030e+003;1.017037e-001
3.401959e+003;1.015394e-001
3.403887e+003;1.008146e-001
3.405816e+003;9.979624e-002
3.407744e+003;9.921663e-002
3.409673e+003;9.864510e-002
3.411601e+003;9.815677e-002
3.413530e+003;9.824754e-002
3.415458e+003;9.813550e-002
3.417387e+003;9.717683e-002
3.419316e+003;9.628717e-002
3.421244e+003;9.543239e-002
3.423173e+003;9.487295e-002
3.425101e+003;9.478784e-002
3.427030e+003;9.456096e-002
3.428958e+003;9.406193e-002
3.430887e+003;9.291241e-002
3.432815e+003;9.215719e-002
3.434744e+003;9.224045e-002
3.436673e+003;9.195282e-002
3.438601e+003;9.097560e-002
3.440530e+003;9.003576e-002
3.442458e+003;8.931246e-002
3.444387e+003;8.887634e-002
3.446315e+003;8.851926e-002
3.448244e+003;8.811475e-002
3.450172e+003;8.801426e-002
3.452101e+003;8.775521e-002
3.454030e+003;8.686560e-002
3.455958e+003;8.594543e-002
3.457886e+003;8.579320e-002
3.459815e+003;8.583155e-002
3.461744e+003;8.522584e-002
3.463672e+003;8.459213e-002
3.465601e+003;8.412916e-002
3.467529e+003;8.301475e-002
3.469458e+003;8.219424e-002
3.471386e+003;8.221994e-002
3.473315e+003;8.254539e-002
3.475243e+003;8.269023e-002
3.477172e+003;8.225054e-002
3.479101e+003;8.120268e-002
3.481029e+003;8.000459e-002
3.482958e+003;7.983782e-002
3.484886e+003;8.024319e-002
3.486815e+003;7.980350e-002
3.488743e+003;7.896519e-002
3.490672e+003;7.849733e-002
3.492600e+003;7.852190e-002
3.494529e+003;7.853683e-002
3.496458e+003;7.777051e-002
3.498386e+003;7.666543e-002
3.500315e+003;7.613742e-002
3.502243e+003;7.609967e-002
3.504172e+003;7.574777e-002
3.506100e+003;7.510120e-002
3.508029e+003;7.504606e-002
3.509957e+003;7.504711e-002
3.511886e+003;7.481269e-002
3.513814e+003;7.425358e-002
3.515743e+003;7.397864e-002
3.517672e+003;7.402689e-002
3.519600e+003;7.356173e-002
3.521529e+003;7.299270e-002
3.523457e+003;7.249279e-002
3.525386e+003;7.232641e-002
3.527314e+003;7.211965e-002
3.529243e+003;7.161523e-002
3.531171e+003;7.109929e-002
3.533100e+003;7.078351e-002
3.535029e+003;7.012469e-002
3.536957e+003;6.985714e-002
3.538885e+003;6.999815e-002
3.540814e+003;6.978039e-002
3.542743e+003;6.890053e-002
3.544671e+003;6.831370e-002
3.546600e+003;6.780491e-002
3.548528e+003;6.757452e-002
3.550457e+003;6.730288e-002
3.552385e+003;6.693569e-002
3.554314e+003;6.729084e-002
3.556242e+003;6.725011e-002
3.558171e+003;6.634470e-002
3.560100e+003;6.547377e-002
3.562028e+003;6.544989e-002
3.563957e+003;6.514173e-002
3.565885e+003;6.445765e-002
3.567814e+003;6.439609e-002
3.569742e+003;6.450724e-002
3.571671e+003;6.427348e-002
3.573599e+003;6.379469e-002
3.575528e+003;6.336309e-002
3.577457e+003;6.328094e-002
3.579385e+003;6.289572e-002
3.581314e+003;6.236808e-002
3.583242e+003;6.199804e-002
3.585171e+003;6.106742e-002
3.587099e+003;6.008271e-002
3.589028e+003;6.020544e-002
3.590956e+003;6.051057e-002
3.592885e+003;6.018801e-002
3.594813e+003;5.978530e-002
3.596742e+003;5.926935e-002
3.598671e+003;5.886647e-002
3.600599e+003;5.837526e-002
3.602528e+003;5.833967e-002
3.604456e+003;5.830269e-002
3.606385e+003;5.739802e-002
3.608313e+003;5.670790e-002
3.610242e+003;5.646241e-002
3.612170e+003;5.561173e-002
3.614099e+003;5.546778e-002
3.616028e+003;5.532252e-002
3.617956e+003;5.425405e-002
3.619885e+003;5.394237e-002
3.621813e+003;5.448955e-002
3.623742e+003;5.474317e-002
3.625670e+003;5.371167e-002
3.627599e+003;5.149744e-002
3.629527e+003;5.116480e-002
3.631456e+003;5.225772e-002
3.633385e+003;5.283612e-002
3.635313e+003;5.271972e-002
3.637241e+003;5.217708e-002
3.639170e+003;5.149595e-002
3.641099e+003;5.071473e-002
3.643027e+003;5.035337e-002
3.644956e+003;4.967773e-002
3.646884e+003;4.820395e-002
3.648813e+003;4.712207e-002
3.650741e+003;4.763816e-002
3.652670e+003;4.873683e-002
3.654598e+003;4.849976e-002
3.656527e+003;4.812221e-002
3.658456e+003;4.850876e-002
3.660384e+003;4.840678e-002
3.662313e+003;4.806777e-002
3.664241e+003;4.788193e-002
3.666170e+003;4.718002e-002
3.668098e+003;4.584711e-002
3.670027e+003;4.454703e-002
3.671955e+003;4.523091e-002
3.673884e+003;4.493548e-002
3.675813e+003;4.427213e-002
3.677741e+003;4.545464e-002
3.679669e+003;4.632283e-002
3.681598e+003;4.623042e-002
3.683527e+003;4.552709e-002
3.685455e+003;4.457904e-002
3.687384e+003;4.273323e-002
3.689312e+003;4.294412e-002
3.691241e+003;4.441510e-002
3.693169e+003;4.516174e-002
3.695098e+003;4.553820e-002
3.697026e+003;4.548157e-002
3.698955e+003;4.544894e-002
3.700884e+003;4.508517e-002
3.702812e+003;4.475961e-002
3.704741e+003;4.484686e-002
3.706669e+003;4.495330e-002
3.708598e+003;4.444252e-002
3.710526e+003;4.346684e-002
3.712455e+003;4.347303e-002
3.714383e+003;4.483547e-002
3.716312e+003;4.517619e-002
3.718240e+003;4.463199e-002
3.720169e+003;4.406661e-002
3.722098e+003;4.385146e-002
3.724026e+003;4.364830e-002
3.725955e+003;4.366325e-002
3.727883e+003;4.413046e-002
3.729812e+003;4.366233e-002
3.731740e+003;4.265759e-002
3.733669e+003;4.245644e-002
3.735597e+003;4.213106e-002
3.737526e+003;4.265481e-002
3.739455e+003;4.367893e-002
3.741383e+003;4.326535e-002
3.743312e+003;4.057402e-002
3.745240e+003;4.076050e-002
3.747169e+003;4.177710e-002
3.749097e+003;4.074584e-002
3.751026e+003;4.059243e-002
3.752954e+003;4.224787e-002
3.754883e+003;4.401970e-002
3.756812e+003;4.433047e-002
3.758740e+003;4.376153e-002
3.760668e+003;4.335215e-002
3.762597e+003;4.342059e-002
3.764526e+003;4.341312e-002
3.766454e+003;4.388024e-002
3.768383e+003;4.358185e-002
3.770311e+003;4.357613e-002
3.772240e+003;4.415338e-002
3.774168e+003;4.467036e-002
3.776097e+003;4.446090e-002
3.778025e+003;4.395594e-002
3.779954e+003;4.420925e-002
3.781883e+003;4.481254e-002
3.783811e+003;4.461521e-002
3.785740e+003;4.441653e-002
3.787668e+003;4.438923e-002
3.789597e+003;4.430831e-002
3.791525e+003;4.441290e-002
3.793454e+003;4.450488e-002
3.795382e+003;4.394531e-002
3.797311e+003;4.368040e-002
3.799240e+003;4.235872e-002
3.801168e+003;4.161125e-002
3.803097e+003;4.338309e-002
3.805025e+003;4.354196e-002
3.806954e+003;4.263109e-002
3.808882e+003;4.330115e-002
3.810811e+003;4.401013e-002
3.812739e+003;4.392042e-002
3.814668e+003;4.237837e-002
3.816596e+003;4.232950e-002
3.818525e+003;4.362852e-002
3.820454e+003;4.312675e-002
3.822382e+003;4.316598e-002
3.824311e+003;4.393710e-002
3.826239e+003;4.451582e-002
3.828168e+003;4.492636e-002
3.830096e+003;4.419069e-002
3.832025e+003;4.331990e-002
3.833953e+003;4.306923e-002
3.835882e+003;4.264900e-002
3.837811e+003;4.257736e-002
3.839739e+003;4.349057e-002
3.841667e+003;4.413145e-002
3.843596e+003;4.457320e-002
3.845525e+003;4.517906e-002
3.847453e+003;4.488911e-002
3.849382e+003;4.378461e-002
3.851310e+003;4.125724e-002
3.853239e+003;3.939648e-002
3.855167e+003;4.193311e-002
3.857096e+003;4.439242e-002
3.859024e+003;4.435799e-002
3.860953e+003;4.405062e-002
3.862882e+003;4.389182e-002
3.864810e+003;4.390641e-002
3.866739e+003;4.411964e-002
3.868667e+003;4.331624e-002
3.870596e+003;4.373268e-002
3.872524e+003;4.456189e-002
3.874453e+003;4.469945e-002
3.876381e+003;4.515877e-002
3.878310e+003;4.496447e-002
3.880239e+003;4.451858e-002
3.882167e+003;4.460246e-002
3.884096e+003;4.396771e-002
3.886024e+003;4.412448e-002
3.887953e+003;4.487401e-002
3.889881e+003;4.419648e-002
3.891810e+003;4.414029e-002
3.893738e+003;4.496829e-002
3.895667e+003;4.516829e-002
3.897595e+003;4.426296e-002
3.899524e+003;4.334036e-002
3.901453e+003;4.356247e-002
3.903381e+003;4.359848e-002
3.905310e+003;4.440600e-002
3.907238e+003;4.529386e-002
3.909167e+003;4.507454e-002
3.911095e+003;4.511906e-002
3.913024e+003;4.553330e-002
3.914952e+003;4.547289e-002
3.916881e+003;4.474910e-002
3.918810e+003;4.457280e-002
3.920738e+003;4.484961e-002
3.922667e+003;4.524697e-002
3.924595e+003;4.552256e-002
3.926524e+003;4.558725e-002
3.928452e+003;4.592017e-002
3.930381e+003;4.614135e-002
3.932309e+003;4.599465e-002
3.934238e+003;4.590831e-002
3.936167e+003;4.543282e-002
3.938095e+003;4.546108e-002
3.940023e+003;4.577317e-002
3.941952e+003;4.609533e-002
3.943881e+003;4.624620e-002
3.945809e+003;4.578945e-002
3.947738e+003;4.528996e-002
3.949666e+003;4.574416e-002
3.951595e+003;4.634908e-002
3.953523e+003;4.639572e-002
3.955452e+003;4.588780e-002
3.957380e+003;4.531475e-002
3.959309e+003;4.534697e-002
3.961238e+003;4.587712e-002
3.963166e+003;4.617452e-002
3.965095e+003;4.617408e-002
3.967023e+003;4.603311e-002
3.968952e+003;4.601049e-002
3.970880e+003;4.598680e-002
3.972809e+003;4.586486e-002
3.974737e+003;4.579055e-002
3.976666e+003;4.596216e-002
3.978594e+003;4.595770e-002
3.980523e+003;4.580186e-002
3.982452e+003;4.548956e-002
3.984380e+003;4.546225e-002
3.986309e+003;4.562483e-002
3.988237e+003;4.556208e-002
3.990166e+003;4.548367e-002
3.992094e+003;4.543562e-002
3.994023e+003;4.518958e-002
3.995951e+003;4.506374e-002
3.997880e+003;4.528492e-002
3.999809e+003;4.500163e-002
4.001737e+003;0.000000e+000
