3.992094e+002;0.000000e+000
4.011380e+002;0.000000e+000
4.030665e+002;0.000000e+000
4.049951e+002;0.000000e+000
4.069236e+002;0.000000e+000
4.088522e+002;0.000000e+000
4.107807e+002;0.000000e+000
4.127093e+002;0.000000e+000
4.146378e+002;0.000000e+000
4.165664e+002;0.000000e+000
4.184949e+002;0.000000e+000
4.204235e+002;0.000000e+000
4.223520e+002;0.000000e+000
4.242806e+002;0.000000e+000
4.262091e+002;0.000000e+000
4.281377e+002;0.000000e+000
4.300662e+002;0.000000e+000
4.319948e+002;0.000000e+000
4.339233e+002;0.000000e+000
4.358519e+002;0.000000e+000
4.377804e+002;0.000000e+000
4.397090e+002;0.000000e+000
4.416375e+002;0.000000e+000
4.435660e+002;0.000000e+000
4.454946e+002;0.000000e+000
4.474232e+002;0.000000e+000
4.493517e+002;0.000000e+000
4.512802e+002;0.000000e+000
4.532088e+002;0.000000e+000
4.551373e+002;0.000000e+000
4.570659e+002;0.000000e+000
4.589944e+002;0.000000e+000
4.609230e+002;0.000000e+000
4.628515e+002;0.000000e+000
4.647801e+002;0.000000e+000
4.667086e+002;0.000000e+000
4.686372e+002;0.000000e+000
4.705657e+002;0.000000e+000
4.724943e+002;0.000000e+000
4.744228e+002;0.000000e+000
4.763513e+002;0.000000e+000
4.782799e+002;0.000000e+000
4.802085e+002;0.000000e+000
4.821370e+002;0.000000e+000
4.840656e+002;0.000000e+000
4.859941e+002;0.000000e+000
4.879226e+002;0.000000e+000
4.898512e+002;0.000000e+000
4.917798e+002;0.000000e+000
4.937083e+002;0.000000e+000
4.956368e+002;0.000000e+000
4.975654e+002;0.000000e+000
4.994939e+002;0.000000e+000
5.014225e+002;0.000000e+000
5.033510e+002;0.000000e+000
5.052796e+002;0.000000e+000
5.072081e+002;0.000000e+000
5.091367e+002;0.000000e+000
5.110652e+002;0.000000e+000
5.129938e+002;0.000000e+000
5.149223e+002;0.000000e+000
5.168509e+002;0.000000e+000
5.187794e+002;0.000000e+000
5.207079e+002;0.000000e+000
5.226365e+002;0.000000e+000
5.245651e+002;0.000000e+000
5.264936e+002;0.000000e+000
5.284222e+002;0.000000e+000
5.303507e+002;0.000000e+000
5.322792e+002;0.000000e+000
5.342078e+002;0.000000e+000
5.361364e+002;0.000000e+000
5.380649e+002;0.000000e+000
5.399935e+002;0.000000e+000
5.419220e+002;0.000000e+000
5.438505e+002;0.000000e+000
5.457791e+002;0.000000e+000
5.477076e+002;0.000000e+000
5.496362e+002;0.000000e+000
5.515648e+002;0.000000e+000
5.534933e+002;0.000000e+000
5.554218e+002;0.000000e+000
5.573504e+002;0.000000e+000
5.592789e+002;0.000000e+000
5.612075e+002;0.000000e+000
5.631360e+002;0.000000e+000
5.650646e+002;0.000000e+000
5.669931e+002;0.000000e+000
5.689217e+002;0.000000e+000
5.708502e+002;0.000000e+000
5.727787e+002;0.000000e+000
5.747073e+002;0.000000e+000
5.766359e+002;0.000000e+000
5.785644e+002;0.000000e+000
5.804930e+002;0.000000e+000
5.824215e+002;0.000000e+000
5.843500e+002;0.000000e+000
5.862786e+002;0.000000e+000
5.882072e+002;0.000000e+000
5.901357e+002;0.000000e+000
5.920643e+002;0.000000e+000
5.939928e+002;0.000000e+000
5.959213e+002;0.000000e+000
5.978499e+002;0.000000e+000
5.997784e+002;2.501396e-001
6.017070e+002;2.536154e-001
6.036355e+002;2.548184e-001
6.055641e+002;2.536996e-001
6.074926e+002;2.525863e-001
6.094211e+002;2.534321e-001
6.113497e+002;2.539599e-001
6.132783e+002;2.515437e-001
6.152068e+002;2.547860e-001
6.171354e+002;2.599302e-001
6.190639e+002;2.558646e-001
6.209924e+002;2.506764e-001
6.229210e+002;2.494549e-001
6.248495e+002;2.500399e-001
6.267781e+002;2.520087e-001
6.287067e+002;2.513389e-001
6.306352e+002;2.470819e-001
6.325637e+002;2.448804e-001
6.344923e+002;2.482113e-001
6.364208e+002;2.480745e-001
6.383494e+002;2.428966e-001
6.402780e+002;2.427970e-001
6.422065e+002;2.478861e-001
6.441350e+002;2.510573e-001
6.460636e+002;2.515267e-001
6.479921e+002;2.490353e-001
6.499207e+002;2.435500e-001
6.518492e+002;2.354116e-001
6.537778e+002;2.324269e-001
6.557063e+002;2.333387e-001
6.576349e+002;2.365872e-001
6.595634e+002;2.389008e-001
6.614919e+002;2.382755e-001
6.634205e+002;2.366343e-001
6.653491e+002;2.361513e-001
6.672776e+002;2.358345e-001
6.692062e+002;2.348309e-001
6.711347e+002;2.320854e-001
6.730632e+002;2.294532e-001
6.749918e+002;2.286972e-001
6.769203e+002;2.268817e-001
6.788489e+002;2.240511e-001
6.807775e+002;2.227663e-001
6.827060e+002;2.214644e-001
6.846345e+002;2.214815e-001
6.865631e+002;2.205466e-001
6.884916e+002;2.191829e-001
6.904202e+002;2.192592e-001
6.923488e+002;2.205315e-001
6.942773e+002;2.197893e-001
6.962058e+002;2.184227e-001
6.981344e+002;2.171851e-001
7.000629e+002;2.161223e-001
7.019915e+002;2.147997e-001
7.039200e+002;2.130609e-001
7.058486e+002;2.108899e-001
7.077771e+002;2.081090e-001
7.097057e+002;2.059802e-001
7.116342e+002;2.045324e-001
7.135627e+002;2.031723e-001
7.154913e+002;2.024999e-001
7.174199e+002;2.020660e-001
7.193484e+002;2.010615e-001
7.212770e+002;1.986130e-001
7.232055e+002;1.974729e-001
7.251340e+002;1.966528e-001
7.270626e+002;1.947311e-001
7.289911e+002;1.935565e-001
7.309197e+002;1.931326e-001
7.328483e+002;1.921798e-001
7.347768e+002;1.918116e-001
7.367053e+002;1.924840e-001
7.386339e+002;1.929351e-001
7.405624e+002;1.931183e-001
7.424910e+002;1.936731e-001
7.444196e+002;1.934154e-001
7.463481e+002;1.916525e-001
7.482766e+002;1.887874e-001
7.502052e+002;1.874600e-001
7.521337e+002;1.869617e-001
7.540623e+002;1.855909e-001
7.559908e+002;1.839076e-001
7.579194e+002;1.826352e-001
7.598479e+002;1.822070e-001
7.617765e+002;1.809227e-001
7.637050e+002;1.788536e-001
7.656335e+002;1.777159e-001
7.675621e+002;1.768004e-001
7.694907e+002;1.752488e-001
7.714192e+002;1.735235e-001
7.733478e+002;1.728004e-001
7.752763e+002;1.724575e-001
7.772048e+002;1.717621e-001
7.791334e+002;1.705763e-001
7.810620e+002;1.694995e-001
7.829905e+002;1.689623e-001
7.849191e+002;1.681913e-001
7.868476e+002;1.682346e-001
7.887761e+002;1.685464e-001
7.907047e+002;1.682663e-001
7.926332e+002;1.677819e-001
7.945618e+002;1.661874e-001
7.964903e+002;1.646111e-001
7.984189e+002;1.647885e-001
8.003474e+002;1.651744e-001
8.022759e+002;1.645607e-001
8.042045e+002;1.634827e-001
8.061331e+002;1.629207e-001
8.080616e+002;1.630471e-001
8.099902e+002;1.635152e-001
8.119187e+002;1.636796e-001
8.138472e+002;1.634369e-001
8.157758e+002;1.634549e-001
8.177043e+002;1.635368e-001
8.196329e+002;1.640146e-001
8.215615e+002;1.643274e-001
8.234900e+002;1.644104e-001
8.254185e+002;1.641217e-001
8.273471e+002;1.634643e-001
8.292756e+002;1.623866e-001
8.312042e+002;1.616372e-001
8.331328e+002;1.606000e-001
8.350613e+002;1.581398e-001
8.369898e+002;1.557442e-001
8.389184e+002;1.552408e-001
8.408469e+002;1.544302e-001
8.427755e+002;1.531359e-001
8.447040e+002;1.521593e-001
8.466326e+002;1.516217e-001
8.485611e+002;1.514081e-001
8.504897e+002;1.508157e-001
8.524182e+002;1.498962e-001
8.543467e+002;1.494651e-001
8.562753e+002;1.488000e-001
8.582039e+002;1.480834e-001
8.601324e+002;1.479805e-001
8.620610e+002;1.480061e-001
8.639895e+002;1.479234e-001
8.659180e+002;1.476071e-001
8.678466e+002;1.472861e-001
8.697751e+002;1.474743e-001
8.717037e+002;1.479823e-001
8.736323e+002;1.481867e-001
8.755608e+002;1.483985e-001
8.774893e+002;1.487388e-001
8.794179e+002;1.493604e-001
8.813464e+002;1.498390e-001
8.832750e+002;1.494680e-001
8.852036e+002;1.488634e-001
8.871321e+002;1.484695e-001
8.890606e+002;1.478964e-001
8.909892e+002;1.475463e-001
8.929177e+002;1.474231e-001
8.948463e+002;1.470417e-001
8.967748e+002;1.466757e-001
8.987034e+002;1.463816e-001
9.006319e+002;1.462544e-001
9.025605e+002;1.460568e-001
9.044890e+002;1.461898e-001
9.064175e+002;1.463030e-001
9.083461e+002;1.459456e-001
9.102747e+002;1.457652e-001
9.122032e+002;1.457417e-001
9.141318e+002;1.454917e-001
9.160603e+002;1.455321e-001
9.179888e+002;1.457837e-001
9.199174e+002;1.456817e-001
9.218459e+002;1.455465e-001
9.237745e+002;1.457641e-001
9.257031e+002;1.459736e-001
9.276316e+002;1.459119e-001
9.295601e+002;1.455877e-001
9.314887e+002;1.451955e-001
9.334172e+002;1.449104e-001
9.353458e+002;1.446032e-001
9.372744e+002;1.441588e-001
9.392029e+002;1.437431e-001
9.411314e+002;1.431664e-001
9.430600e+002;1.427908e-001
9.449885e+002;1.426695e-001
9.469171e+002;1.422709e-001
9.488456e+002;1.420002e-001
9.507742e+002;1.420836e-001
9.527027e+002;1.422545e-001
9.546313e+002;1.425849e-001
9.565598e+002;1.426684e-001
9.584883e+002;1.427327e-001
9.604169e+002;1.427469e-001
9.623455e+002;1.428856e-001
9.642740e+002;1.431401e-001
9.662026e+002;1.434935e-001
9.681311e+002;1.440361e-001
9.700596e+002;1.444979e-001
9.719882e+002;1.447201e-001
9.739167e+002;1.450025e-001
9.758453e+002;1.451434e-001
9.777739e+002;1.456364e-001
9.797024e+002;1.460712e-001
9.816309e+002;1.465740e-001
9.835595e+002;1.478312e-001
9.854880e+002;1.491943e-001
9.874166e+002;1.502425e-001
9.893452e+002;1.515206e-001
9.912737e+002;1.523765e-001
9.932022e+002;1.523645e-001
9.951307e+002;1.515538e-001
9.970593e+002;1.508537e-001
9.989879e+002;1.508792e-001
1.000916e+003;1.514685e-001
1.002845e+003;1.526035e-001
1.004773e+003;1.537020e-001
1.006702e+003;1.548390e-001
1.008631e+003;1.566677e-001
1.010559e+003;1.587843e-001
1.012488e+003;1.609932e-001
1.014416e+003;1.635521e-001
1.016345e+003;1.657865e-001
1.018273e+003;1.677025e-001
1.020202e+003;1.698042e-001
1.022130e+003;1.718405e-001
1.024059e+003;1.736793e-001
1.025988e+003;1.760950e-001
1.027916e+003;1.787990e-001
1.029845e+003;1.816577e-001
1.031773e+003;1.847475e-001
1.033702e+003;1.880471e-001
1.035630e+003;1.907915e-001
1.037559e+003;1.931565e-001
1.039487e+003;1.958448e-001
1.041416e+003;1.978707e-001
1.043344e+003;1.986263e-001
1.045273e+003;1.976151e-001
1.047202e+003;1.943545e-001
1.049130e+003;1.899791e-001
1.051059e+003;1.858337e-001
1.052987e+003;1.822862e-001
1.054916e+003;1.799684e-001
1.056844e+003;1.789894e-001
1.058773e+003;1.788320e-001
1.060701e+003;1.794086e-001
1.062630e+003;1.803077e-001
1.064558e+003;1.808947e-001
1.066487e+003;1.815968e-001
1.068416e+003;1.823294e-001
1.070344e+003;1.827432e-001
1.072273e+003;1.829243e-001
1.074201e+003;1.835479e-001
1.076130e+003;1.840119e-001
1.078058e+003;1.837162e-001
1.079987e+003;1.830978e-001
1.081915e+003;1.828183e-001
1.083844e+003;1.829597e-001
1.085773e+003;1.831505e-001
1.087701e+003;1.832768e-001
1.089630e+003;1.835886e-001
1.091558e+003;1.838951e-001
1.093487e+003;1.838563e-001
1.095415e+003;1.833864e-001
1.097344e+003;1.833595e-001
1.099272e+003;1.840772e-001
1.101201e+003;1.845571e-001
1.103129e+003;1.840118e-001
1.105058e+003;1.831637e-001
1.106987e+003;1.825541e-001
1.108915e+003;1.822026e-001
1.110844e+003;1.818426e-001
1.112772e+003;1.812990e-001
1.114701e+003;1.809755e-001
1.116629e+003;1.811195e-001
1.118558e+003;1.813258e-001
1.120486e+003;1.813615e-001
1.122415e+003;1.810917e-001
1.124344e+003;1.809110e-001
1.126272e+003;1.813322e-001
1.128201e+003;1.817154e-001
1.130129e+003;1.817720e-001
1.132058e+003;1.824674e-001
1.133986e+003;1.834613e-001
1.135915e+003;1.845248e-001
1.137843e+003;1.858295e-001
1.139772e+003;1.872519e-001
1.141700e+003;1.884583e-001
1.143629e+003;1.896689e-001
1.145557e+003;1.907104e-001
1.147486e+003;1.919378e-001
1.149415e+003;1.937933e-001
1.151343e+003;1.952963e-001
1.153272e+003;1.957191e-001
1.155200e+003;1.960015e-001
1.157129e+003;1.961893e-001
1.159057e+003;1.961129e-001
1.160986e+003;1.965153e-001
1.162914e+003;1.978605e-001
1.164843e+003;1.995163e-001
1.166771e+003;2.008824e-001
1.168700e+003;2.020755e-001
1.170629e+003;2.031590e-001
1.172557e+003;2.041512e-001
1.174486e+003;2.048421e-001
1.176414e+003;2.051892e-001
1.178343e+003;2.054393e-001
1.180271e+003;2.059066e-001
1.182200e+003;2.065838e-001
1.184128e+003;2.076587e-001
1.186057e+003;2.087608e-001
1.187986e+003;2.093473e-001
1.189914e+003;2.095697e-001
1.191843e+003;2.096276e-001
1.193771e+003;2.094046e-001
1.195700e+003;2.092882e-001
1.197628e+003;2.098097e-001
1.199557e+003;2.101917e-001
1.201485e+003;2.103433e-001
1.203414e+003;2.107787e-001
1.205343e+003;2.110604e-001
1.207271e+003;2.118347e-001
1.209200e+003;2.131176e-001
1.211128e+003;2.142683e-001
1.213057e+003;2.155511e-001
1.214985e+003;2.170359e-001
1.216914e+003;2.183630e-001
1.218842e+003;2.196437e-001
1.220771e+003;2.210540e-001
1.222699e+003;2.222397e-001
1.224628e+003;2.231159e-001
1.226557e+003;2.238675e-001
1.228485e+003;2.247107e-001
1.230414e+003;2.248504e-001
1.232342e+003;2.246612e-001
1.234271e+003;2.243041e-001
1.236199e+003;2.235624e-001
1.238128e+003;2.228633e-001
1.240056e+003;2.219265e-001
1.241985e+003;2.208228e-001
1.243913e+003;2.198353e-001
1.245842e+003;2.188021e-001
1.247771e+003;2.175574e-001
1.249699e+003;2.167633e-001
1.251628e+003;2.158073e-001
1.253556e+003;2.146202e-001
1.255485e+003;2.138302e-001
1.257413e+003;2.130207e-001
1.259342e+003;2.118472e-001
1.261270e+003;2.101737e-001
1.263199e+003;2.081747e-001
1.265127e+003;2.064934e-001
1.267056e+003;2.052375e-001
1.268985e+003;2.042065e-001
1.270913e+003;2.034876e-001
1.272842e+003;2.031614e-001
1.274770e+003;2.031252e-001
1.276699e+003;2.027844e-001
1.278627e+003;2.023313e-001
1.280556e+003;2.021907e-001
1.282484e+003;2.019272e-001
1.284413e+003;2.015800e-001
1.286342e+003;2.013885e-001
1.288270e+003;2.011096e-001
1.290199e+003;2.010462e-001
1.292127e+003;2.010713e-001
1.294056e+003;2.010267e-001
1.295984e+003;2.008941e-001
1.297913e+003;2.003333e-001
1.299841e+003;1.994372e-001
1.301770e+003;1.984905e-001
1.303698e+003;1.975276e-001
1.305627e+003;1.968787e-001
1.307556e+003;1.964722e-001
1.309484e+003;1.964066e-001
1.311413e+003;1.967862e-001
1.313341e+003;1.974055e-001
1.315270e+003;1.980731e-001
1.317198e+003;1.987287e-001
1.319127e+003;1.995342e-001
1.321055e+003;2.003305e-001
1.322984e+003;2.006977e-001
1.324912e+003;2.007919e-001
1.326841e+003;2.005544e-001
1.328770e+003;2.000478e-001
1.330698e+003;1.992857e-001
1.332627e+003;1.980304e-001
1.334555e+003;1.963888e-001
1.336484e+003;1.945793e-001
1.338412e+003;1.926960e-001
1.340341e+003;1.911391e-001
1.342269e+003;1.899363e-001
1.344198e+003;1.887255e-001
1.346126e+003;1.877311e-001
1.348055e+003;1.865379e-001
1.349984e+003;1.851610e-001
1.351912e+003;1.840520e-001
1.353841e+003;1.834233e-001
1.355769e+003;1.828960e-001
1.357698e+003;1.824955e-001
1.359626e+003;1.826385e-001
1.361555e+003;1.832668e-001
1.363483e+003;1.844136e-001
1.365412e+003;1.861065e-001
1.367341e+003;1.875939e-001
1.369269e+003;1.884872e-001
1.371198e+003;1.887362e-001
1.373126e+003;1.886785e-001
1.375055e+003;1.892173e-001
1.376983e+003;1.902104e-001
1.378912e+003;1.911922e-001
1.380840e+003;1.923766e-001
1.382769e+003;1.933951e-001
1.384698e+003;1.940331e-001
1.386626e+003;1.942598e-001
1.388555e+003;1.943603e-001
1.390483e+003;1.941561e-001
1.392412e+003;1.935057e-001
1.394340e+003;1.927740e-001
1.396269e+003;1.926960e-001
1.398197e+003;1.926866e-001
1.400126e+003;1.930567e-001
1.402054e+003;1.934711e-001
1.403983e+003;1.931643e-001
1.405911e+003;1.929688e-001
1.407840e+003;1.930138e-001
1.409769e+003;1.929407e-001
1.411697e+003;1.928425e-001
1.413626e+003;1.928184e-001
1.415554e+003;1.924348e-001
1.417483e+003;1.912532e-001
1.419411e+003;1.907498e-001
1.421340e+003;1.918062e-001
1.423268e+003;1.922987e-001
1.425197e+003;1.926374e-001
1.427125e+003;1.934658e-001
1.429054e+003;1.947131e-001
1.430983e+003;1.967642e-001
1.432911e+003;1.992101e-001
1.434840e+003;2.006315e-001
1.436768e+003;2.019377e-001
1.438697e+003;2.044549e-001
1.440625e+003;2.059513e-001
1.442554e+003;2.064830e-001
1.444482e+003;2.068083e-001
1.446411e+003;2.068243e-001
1.448340e+003;2.070853e-001
1.450268e+003;2.079654e-001
1.452197e+003;2.086537e-001
1.454125e+003;2.083354e-001
1.456054e+003;2.063623e-001
1.457982e+003;2.064209e-001
1.459911e+003;2.076301e-001
1.461839e+003;2.066800e-001
1.463768e+003;2.041699e-001
1.465697e+003;2.027320e-001
1.467625e+003;2.022568e-001
1.469554e+003;2.006877e-001
1.471482e+003;1.981675e-001
1.473411e+003;1.970710e-001
1.475339e+003;1.977199e-001
1.477268e+003;1.989761e-001
1.479196e+003;2.008492e-001
1.481125e+003;2.034727e-001
1.483053e+003;2.073628e-001
1.484982e+003;2.117969e-001
1.486911e+003;2.163477e-001
1.488839e+003;2.215894e-001
1.490768e+003;2.283179e-001
1.492696e+003;2.359114e-001
1.494625e+003;2.424135e-001
1.496553e+003;2.485774e-001
1.498482e+003;2.550884e-001
1.500410e+003;2.610581e-001
1.502339e+003;2.659203e-001
1.504267e+003;2.682367e-001
1.506196e+003;2.702041e-001
1.508125e+003;2.752698e-001
1.510053e+003;2.805605e-001
1.511982e+003;2.839738e-001
1.513910e+003;2.855993e-001
1.515839e+003;2.848171e-001
1.517767e+003;2.827743e-001
1.519696e+003;2.793172e-001
1.521624e+003;2.756630e-001
1.523553e+003;2.745377e-001
1.525481e+003;2.735368e-001
1.527410e+003;2.725638e-001
1.529339e+003;2.714332e-001
1.531267e+003;2.692677e-001
1.533196e+003;2.663423e-001
1.535124e+003;2.643458e-001
1.537053e+003;2.606890e-001
1.538981e+003;2.546510e-001
1.540910e+003;2.508837e-001
1.542838e+003;2.488186e-001
1.544767e+003;2.459211e-001
1.546695e+003;2.421748e-001
1.548624e+003;2.372647e-001
1.550553e+003;2.321188e-001
1.552481e+003;2.262027e-001
1.554410e+003;2.201201e-001
1.556338e+003;2.138213e-001
1.558267e+003;2.062475e-001
1.560195e+003;2.025106e-001
1.562124e+003;2.015239e-001
1.564052e+003;1.987281e-001
1.565981e+003;1.954065e-001
1.567910e+003;1.920519e-001
1.569838e+003;1.896639e-001
1.571767e+003;1.890540e-001
1.573695e+003;1.877454e-001
1.575624e+003;1.858780e-001
1.577552e+003;1.869486e-001
1.579481e+003;1.890819e-001
1.581409e+003;1.904895e-001
1.583338e+003;1.919725e-001
1.585266e+003;1.935682e-001
1.587195e+003;1.958551e-001
1.589124e+003;1.985897e-001
1.591052e+003;2.012984e-001
1.592981e+003;2.039429e-001
1.594909e+003;2.066347e-001
1.596838e+003;2.097792e-001
1.598766e+003;2.135306e-001
1.600695e+003;2.178759e-001
1.602623e+003;2.231006e-001
1.604552e+003;2.289531e-001
1.606480e+003;2.352841e-001
1.608409e+003;2.422441e-001
1.610338e+003;2.493221e-001
1.612266e+003;2.560504e-001
1.614195e+003;2.616412e-001
1.616123e+003;2.662491e-001
1.618052e+003;2.729452e-001
1.619980e+003;2.798443e-001
1.621909e+003;2.856822e-001
1.623837e+003;2.917071e-001
1.625766e+003;2.971680e-001
1.627694e+003;3.013922e-001
1.629623e+003;3.052348e-001
1.631552e+003;3.080932e-001
1.633480e+003;3.090065e-001
1.635409e+003;3.093788e-001
1.637337e+003;3.115479e-001
1.639266e+003;3.132625e-001
1.641194e+003;3.133948e-001
1.643123e+003;3.121592e-001
1.645051e+003;3.090304e-001
1.646980e+003;3.063910e-001
1.648909e+003;3.045366e-001
1.650837e+003;2.989908e-001
1.652766e+003;2.912019e-001
1.654694e+003;2.880634e-001
1.656623e+003;2.848836e-001
1.658551e+003;2.788815e-001
1.660480e+003;2.719737e-001
1.662408e+003;2.643883e-001
1.664337e+003;2.577296e-001
1.666266e+003;2.512102e-001
1.668194e+003;2.438622e-001
1.670123e+003;2.373425e-001
1.672051e+003;2.319153e-001
1.673980e+003;2.251559e-001
1.675908e+003;2.187018e-001
1.677837e+003;2.138508e-001
1.679765e+003;2.080677e-001
1.681694e+003;2.009152e-001
1.683622e+003;1.923481e-001
1.685551e+003;1.868481e-001
1.687479e+003;1.835190e-001
1.689408e+003;1.784418e-001
1.691337e+003;1.726105e-001
1.693265e+003;1.655442e-001
1.695194e+003;1.570084e-001
1.697122e+003;1.507224e-001
1.699051e+003;1.444155e-001
1.700979e+003;1.390292e-001
1.702908e+003;1.359593e-001
1.704836e+003;1.313969e-001
1.706765e+003;1.274118e-001
1.708693e+003;1.241314e-001
1.710622e+003;1.209847e-001
1.712551e+003;1.175857e-001
1.714479e+003;1.138966e-001
1.716408e+003;1.101547e-001
1.718336e+003;1.088349e-001
1.720265e+003;1.092526e-001
1.722193e+003;1.084348e-001
1.724122e+003;1.071201e-001
1.726050e+003;1.061308e-001
1.727979e+003;1.048198e-001
1.729908e+003;1.032489e-001
1.731836e+003;1.009103e-001
1.733765e+003;9.860306e-002
1.735693e+003;9.912295e-002
1.737622e+003;9.941637e-002
1.739550e+003;9.824663e-002
1.741479e+003;9.755379e-002
1.743407e+003;9.657446e-002
1.745336e+003;9.532636e-002
1.747265e+003;9.406621e-002
1.749193e+003;9.278990e-002
1.751122e+003;9.175271e-002
1.753050e+003;9.178181e-002
1.754979e+003;9.136594e-002
1.756907e+003;9.073801e-002
1.758836e+003;9.057119e-002
1.760764e+003;8.962648e-002
1.762693e+003;8.907642e-002
1.764621e+003;8.925011e-002
1.766550e+003;8.863404e-002
1.768479e+003;8.798281e-002
1.770407e+003;8.721569e-002
1.772336e+003;8.634526e-002
1.774264e+003;8.677678e-002
1.776193e+003;8.717762e-002
1.778121e+003;8.702756e-002
1.780050e+003;8.678224e-002
1.781978e+003;8.678763e-002
1.783907e+003;8.654188e-002
1.785835e+003;8.634958e-002
1.787764e+003;8.631685e-002
1.789693e+003;8.557203e-002
1.791621e+003;8.445914e-002
1.793550e+003;8.433592e-002
1.795478e+003;8.486808e-002
1.797407e+003;8.496953e-002
1.799335e+003;8.474419e-002
1.801264e+003;8.459814e-002
1.803192e+003;8.473311e-002
1.805121e+003;8.467428e-002
1.807049e+003;8.439978e-002
1.808978e+003;8.406345e-002
1.810907e+003;8.393215e-002
1.812835e+003;8.385264e-002
1.814764e+003;8.373345e-002
1.816692e+003;8.355581e-002
1.818621e+003;8.349894e-002
1.820549e+003;8.339988e-002
1.822478e+003;8.314413e-002
1.824406e+003;8.283540e-002
1.826335e+003;8.284065e-002
1.828264e+003;8.257272e-002
1.830192e+003;8.234617e-002
1.832121e+003;8.264129e-002
1.834049e+003;8.268915e-002
1.835978e+003;8.263443e-002
1.837906e+003;8.270955e-002
1.839835e+003;8.257998e-002
1.841763e+003;8.193731e-002
1.843692e+003;8.111896e-002
1.845620e+003;8.126612e-002
1.847549e+003;8.172053e-002
1.849478e+003;8.202403e-002
1.851406e+003;8.213655e-002
1.853335e+003;8.199970e-002
1.855263e+003;8.185861e-002
1.857192e+003;8.186266e-002
1.859120e+003;8.190671e-002
1.861049e+003;8.195148e-002
1.862977e+003;8.186565e-002
1.864906e+003;8.163247e-002
1.866834e+003;8.117799e-002
1.868763e+003;8.095125e-002
1.870692e+003;8.129093e-002
1.872620e+003;8.171261e-002
1.874549e+003;8.190235e-002
1.876477e+003;8.188018e-002
1.878406e+003;8.177241e-002
1.880334e+003;8.171605e-002
1.882263e+003;8.162887e-002
1.884191e+003;8.160277e-002
1.886120e+003;8.157322e-002
1.888048e+003;8.135654e-002
1.889977e+003;8.122709e-002
1.891906e+003;8.134587e-002
1.893834e+003;8.121355e-002
1.895763e+003;8.123943e-002
1.897691e+003;8.132046e-002
1.899620e+003;8.130911e-002
1.901548e+003;8.126888e-002
1.903477e+003;8.125333e-002
1.905405e+003;8.131554e-002
1.907334e+003;8.124898e-002
1.909262e+003;8.097094e-002
1.911191e+003;8.096179e-002
1.913120e+003;8.112623e-002
1.915048e+003;8.093441e-002
1.916977e+003;8.049756e-002
1.918905e+003;8.054797e-002
1.920834e+003;8.073691e-002
1.922762e+003;8.068839e-002
1.924691e+003;8.072043e-002
1.926619e+003;8.077842e-002
1.928548e+003;8.078732e-002
1.930477e+003;8.088822e-002
1.932405e+003;8.099972e-002
1.934334e+003;8.106888e-002
1.936262e+003;8.088255e-002
1.938191e+003;8.068309e-002
1.940119e+003;8.055547e-002
1.942048e+003;8.046258e-002
1.943976e+003;8.079514e-002
1.945905e+003;8.106213e-002
1.947833e+003;8.094905e-002
1.949762e+003;8.098279e-002
1.951691e+003;8.105978e-002
1.953619e+003;8.103178e-002
1.955548e+003;8.105934e-002
1.957476e+003;8.116309e-002
1.959405e+003;8.095089e-002
1.961333e+003;8.068441e-002
1.963262e+003;8.072937e-002
1.965190e+003;8.083804e-002
1.967119e+003;8.076433e-002
1.969047e+003;8.071641e-002
1.970976e+003;8.066705e-002
1.972905e+003;8.084251e-002
1.974833e+003;8.102739e-002
1.976762e+003;8.105123e-002
1.978690e+003;8.097564e-002
1.980619e+003;8.073799e-002
1.982547e+003;8.061842e-002
1.984476e+003;8.079458e-002
1.986404e+003;8.101597e-002
1.988333e+003;8.095109e-002
1.990261e+003;8.072742e-002
1.992190e+003;8.062496e-002
1.994119e+003;8.082236e-002
1.996047e+003;8.101753e-002
1.997976e+003;8.089188e-002
1.999904e+003;8.083876e-002
2.001833e+003;8.091289e-002
2.003761e+003;8.100171e-002
2.005690e+003;8.091804e-002
2.007618e+003;8.097069e-002
2.009547e+003;8.111797e-002
2.011476e+003;8.109879e-002
2.013404e+003;8.075918e-002
2.015333e+003;8.052292e-002
2.017261e+003;8.054646e-002
2.019190e+003;8.070359e-002
2.021118e+003;8.070954e-002
2.023047e+003;8.062691e-002
2.024975e+003;8.077104e-002
2.026904e+003;8.090299e-002
2.028833e+003;8.082630e-002
2.030761e+003;8.094910e-002
2.032690e+003;8.102811e-002
2.034618e+003;8.084147e-002
2.036547e+003;8.079685e-002
2.038475e+003;8.084986e-002
2.040404e+003;8.095560e-002
2.042332e+003;8.105039e-002
2.044261e+003;8.116250e-002
2.046189e+003;8.116641e-002
2.048118e+003;8.103614e-002
2.050047e+003;8.103585e-002
2.051975e+003;8.110354e-002
2.053904e+003;8.117304e-002
2.055832e+003;8.112555e-002
2.057761e+003;8.105458e-002
2.059689e+003;8.108809e-002
2.061618e+003;8.122037e-002
2.063546e+003;8.130132e-002
2.065475e+003;8.114795e-002
2.067404e+003;8.085912e-002
2.069332e+003;8.083177e-002
2.071260e+003;8.110650e-002
2.073189e+003;8.135730e-002
2.075118e+003;8.140618e-002
2.077046e+003;8.132441e-002
2.078975e+003;8.119094e-002
2.080903e+003;8.127706e-002
2.082832e+003;8.136129e-002
2.084760e+003;8.109456e-002
2.086689e+003;8.080555e-002
2.088617e+003;8.090027e-002
2.090546e+003;8.105614e-002
2.092475e+003;8.107974e-002
2.094403e+003;8.104149e-002
2.096332e+003;8.091644e-002
2.098260e+003;8.064722e-002
2.100189e+003;8.066393e-002
2.102117e+003;8.085517e-002
2.104046e+003;8.103522e-002
2.105974e+003;8.105822e-002
2.107903e+003;8.090494e-002
2.109832e+003;8.085453e-002
2.111760e+003;8.087752e-002
2.113688e+003;8.081829e-002
2.115617e+003;8.064778e-002
2.117546e+003;8.044627e-002
2.119474e+003;8.042601e-002
2.121403e+003;8.043579e-002
2.123331e+003;8.054646e-002
2.125260e+003;8.060693e-002
2.127188e+003;8.055799e-002
2.129117e+003;8.039580e-002
2.131045e+003;8.051591e-002
2.132974e+003;8.055352e-002
2.134903e+003;8.039583e-002
2.136831e+003;8.039153e-002
2.138760e+003;8.037805e-002
2.140688e+003;8.037989e-002
2.142617e+003;8.040915e-002
2.144545e+003;8.029883e-002
2.146474e+003;8.024104e-002
2.148402e+003;8.022510e-002
2.150331e+003;8.019441e-002
2.152260e+003;8.027273e-002
2.154188e+003;8.023641e-002
2.156117e+003;8.006614e-002
2.158045e+003;7.997435e-002
2.159974e+003;8.005080e-002
2.161902e+003;8.017125e-002
2.163831e+003;8.012363e-002
2.165759e+003;8.015496e-002
2.167688e+003;8.037343e-002
2.169616e+003;8.032858e-002
2.171545e+003;8.008662e-002
2.173474e+003;8.002717e-002
2.175402e+003;8.010431e-002
2.177331e+003;8.004677e-002
2.179259e+003;7.996412e-002
2.181188e+003;7.982034e-002
2.183116e+003;7.981715e-002
2.185045e+003;7.990094e-002
2.186973e+003;7.996419e-002
2.188902e+003;7.994320e-002
2.190831e+003;7.986964e-002
2.192759e+003;7.984758e-002
2.194688e+003;7.995368e-002
2.196616e+003;8.017074e-002
2.198545e+003;8.019321e-002
2.200473e+003;8.009940e-002
2.202402e+003;7.998690e-002
2.204330e+003;7.977606e-002
2.206259e+003;7.972192e-002
2.208188e+003;7.989533e-002
2.210116e+003;7.976038e-002
2.212044e+003;7.975301e-002
2.213973e+003;8.022366e-002
2.215902e+003;8.025758e-002
2.217830e+003;7.985085e-002
2.219759e+003;7.972817e-002
2.221687e+003;7.968084e-002
2.223616e+003;7.944731e-002
2.225544e+003;7.935312e-002
2.227473e+003;7.945428e-002
2.229401e+003;7.955005e-002
2.231330e+003;7.957420e-002
2.233259e+003;7.937033e-002
2.235187e+003;7.924505e-002
2.237116e+003;7.931242e-002
2.239044e+003;7.940888e-002
2.240973e+003;7.945953e-002
2.242901e+003;7.928634e-002
2.244830e+003;7.925579e-002
2.246758e+003;7.927981e-002
2.248687e+003;7.920680e-002
2.250615e+003;7.933370e-002
2.252544e+003;7.950345e-002
2.254473e+003;7.942241e-002
2.256401e+003;7.909027e-002
2.258330e+003;7.908145e-002
2.260258e+003;7.930769e-002
2.262187e+003;7.938454e-002
2.264115e+003;7.930610e-002
2.266044e+003;7.907154e-002
2.267972e+003;7.891826e-002
2.269901e+003;7.902981e-002
2.271830e+003;7.919833e-002
2.273758e+003;7.923396e-002
2.275687e+003;7.914485e-002
2.277615e+003;7.908220e-002
2.279544e+003;7.914899e-002
2.281472e+003;7.908729e-002
2.283401e+003;7.909353e-002
2.285329e+003;7.917825e-002
2.287258e+003;7.929576e-002
2.289187e+003;7.931151e-002
2.291115e+003;7.934647e-002
2.293043e+003;7.918310e-002
2.294972e+003;7.903688e-002
2.296901e+003;7.919022e-002
2.298829e+003;7.925782e-002
2.300758e+003;7.939890e-002
2.302686e+003;7.942861e-002
2.304615e+003;7.933033e-002
2.306543e+003;7.926064e-002
2.308472e+003;7.920982e-002
2.310400e+003;7.919201e-002
2.312329e+003;7.911877e-002
2.314258e+003;7.908896e-002
2.316186e+003;7.897651e-002
2.318115e+003;7.889111e-002
2.320043e+003;7.895509e-002
2.321972e+003;7.916215e-002
2.323900e+003;7.912466e-002
2.325829e+003;7.901081e-002
2.327757e+003;7.900906e-002
2.329686e+003;7.894897e-002
2.331615e+003;7.892803e-002
2.333543e+003;7.899459e-002
2.335472e+003;7.902270e-002
2.337400e+003;7.907258e-002
2.339329e+003;7.913543e-002
2.341257e+003;7.932300e-002
2.343186e+003;7.955817e-002
2.345114e+003;7.953815e-002
2.347043e+003;7.949729e-002
2.348971e+003;7.952574e-002
2.350900e+003;7.952295e-002
2.352829e+003;7.915539e-002
2.354757e+003;7.906900e-002
2.356686e+003;7.945523e-002
2.358614e+003;7.940546e-002
2.360543e+003;7.918072e-002
2.362471e+003;7.929134e-002
2.364400e+003;7.929902e-002
2.366328e+003;7.938470e-002
2.368257e+003;7.987649e-002
2.370186e+003;8.000709e-002
2.372114e+003;7.993361e-002
2.374042e+003;8.026184e-002
2.375971e+003;8.039077e-002
2.377900e+003;8.041621e-002
2.379828e+003;8.054542e-002
2.381757e+003;8.086754e-002
2.383685e+003;8.113758e-002
2.385614e+003;8.099453e-002
2.387542e+003;8.096478e-002
2.389471e+003;8.108445e-002
2.391399e+003;8.112296e-002
2.393328e+003;8.124635e-002
2.395257e+003;8.147028e-002
2.397185e+003;8.147308e-002
2.399114e+003;8.154228e-002
2.401042e+003;8.180545e-002
2.402971e+003;8.197937e-002
2.404899e+003;8.211838e-002
2.406828e+003;8.201655e-002
2.408756e+003;8.213339e-002
2.410685e+003;8.250344e-002
2.412614e+003;8.265632e-002
2.414542e+003;8.261287e-002
2.416471e+003;8.265287e-002
2.418399e+003;8.275910e-002
2.420328e+003;8.288809e-002
2.422256e+003;8.300560e-002
2.424185e+003;8.329438e-002
2.426113e+003;8.328652e-002
2.428042e+003;8.321022e-002
2.429970e+003;8.343799e-002
2.431899e+003;8.388608e-002
2.433828e+003;8.399928e-002
2.435756e+003;8.391317e-002
2.437685e+003;8.404246e-002
2.439613e+003;8.421914e-002
2.441542e+003;8.430184e-002
2.443470e+003;8.421491e-002
2.445399e+003;8.433351e-002
2.447327e+003;8.462628e-002
2.449256e+003;8.469151e-002
2.451185e+003;8.451976e-002
2.453113e+003;8.468833e-002
2.455042e+003;8.511070e-002
2.456970e+003;8.540320e-002
2.458899e+003;8.540497e-002
2.460827e+003;8.516613e-002
2.462756e+003;8.529241e-002
2.464684e+003;8.570750e-002
2.466613e+003;8.606781e-002
2.468542e+003;8.604757e-002
2.470470e+003;8.583487e-002
2.472398e+003;8.610655e-002
2.474327e+003;8.630597e-002
2.476256e+003;8.622704e-002
2.478184e+003;8.635674e-002
2.480113e+003;8.672932e-002
2.482041e+003;8.690353e-002
2.483970e+003;8.680968e-002
2.485898e+003;8.688556e-002
2.487827e+003;8.691850e-002
2.489755e+003;8.704934e-002
2.491684e+003;8.728848e-002
2.493613e+003;8.738381e-002
2.495541e+003;8.751146e-002
2.497470e+003;8.758876e-002
2.499398e+003;8.745830e-002
2.501327e+003;8.742620e-002
2.503255e+003;8.756797e-002
2.505184e+003;8.757543e-002
2.507112e+003;8.760677e-002
2.509041e+003;8.779754e-002
2.510969e+003;8.778043e-002
2.512898e+003;8.770724e-002
2.514827e+003;8.805171e-002
2.516755e+003;8.832894e-002
2.518684e+003;8.839090e-002
2.520612e+003;8.838477e-002
2.522541e+003;8.826380e-002
2.524469e+003;8.835338e-002
2.526398e+003;8.860958e-002
2.528326e+003;8.871528e-002
2.530255e+003;8.874609e-002
2.532184e+003;8.886158e-002
2.534112e+003;8.897832e-002
2.536041e+003;8.902822e-002
2.537969e+003;8.915136e-002
2.539898e+003;8.923420e-002
2.541826e+003;8.933146e-002
2.543755e+003;8.951499e-002
2.545683e+003;8.948559e-002
2.547612e+003;8.924145e-002
2.549541e+003;8.940966e-002
2.551469e+003;8.977036e-002
2.553397e+003;8.970677e-002
2.555326e+003;8.983107e-002
2.557255e+003;8.992220e-002
2.559183e+003;8.975154e-002
2.561112e+003;9.013537e-002
2.563040e+003;9.041841e-002
2.564969e+003;9.031408e-002
2.566897e+003;9.014747e-002
2.568826e+003;9.011342e-002
2.570754e+003;9.035606e-002
2.572683e+003;9.069085e-002
2.574612e+003;9.097911e-002
2.576540e+003;9.109353e-002
2.578469e+003;9.100906e-002
2.580397e+003;9.114502e-002
2.582326e+003;9.140827e-002
2.584254e+003;9.134480e-002
2.586183e+003;9.130862e-002
2.588111e+003;9.133323e-002
2.590040e+003;9.152775e-002
2.591969e+003;9.184931e-002
2.593897e+003;9.217731e-002
2.595826e+003;9.233576e-002
2.597754e+003;9.218124e-002
2.599683e+003;9.204500e-002
2.601611e+003;9.223291e-002
2.603540e+003;9.235036e-002
2.605468e+003;9.239794e-002
2.607397e+003;9.251383e-002
2.609325e+003;9.266892e-002
2.611254e+003;9.266798e-002
2.613183e+003;9.265194e-002
2.615111e+003;9.292723e-002
2.617040e+003;9.307561e-002
2.618968e+003;9.302360e-002
2.620897e+003;9.314413e-002
2.622825e+003;9.313732e-002
2.624754e+003;9.327953e-002
2.626682e+003;9.340639e-002
2.628611e+003;9.310209e-002
2.630540e+003;9.291549e-002
2.632468e+003;9.323193e-002
2.634396e+003;9.367196e-002
2.636325e+003;9.384917e-002
2.638254e+003;9.387612e-002
2.640182e+003;9.391153e-002
2.642111e+003;9.400425e-002
2.644039e+003;9.394678e-002
2.645968e+003;9.364568e-002
2.647896e+003;9.369124e-002
2.649825e+003;9.397648e-002
2.651753e+003;9.404095e-002
2.653682e+003;9.396546e-002
2.655611e+003;9.407630e-002
2.657539e+003;9.429011e-002
2.659468e+003;9.435998e-002
2.661396e+003;9.446503e-002
2.663325e+003;9.427982e-002
2.665253e+003;9.426405e-002
2.667182e+003;9.445589e-002
2.669110e+003;9.457579e-002
2.671039e+003;9.481541e-002
2.672968e+003;9.500374e-002
2.674896e+003;9.525230e-002
2.676825e+003;9.531782e-002
2.678753e+003;9.513588e-002
2.680682e+003;9.502546e-002
2.682610e+003;9.495129e-002
2.684539e+003;9.517358e-002
2.686467e+003;9.546896e-002
2.688396e+003;9.564205e-002
2.690324e+003;9.588824e-002
2.692253e+003;9.588180e-002
2.694182e+003;9.578755e-002
2.696110e+003;9.598668e-002
2.698039e+003;9.606108e-002
2.699967e+003;9.614620e-002
2.701896e+003;9.629862e-002
2.703824e+003;9.615219e-002
2.705753e+003;9.586564e-002
2.707681e+003;9.611503e-002
2.709610e+003;9.646517e-002
2.711539e+003;9.662867e-002
2.713467e+003;9.701671e-002
2.715396e+003;9.715731e-002
2.717324e+003;9.707360e-002
2.719253e+003;9.746815e-002
2.721181e+003;9.786935e-002
2.723110e+003;9.799743e-002
2.725038e+003;9.809887e-002
2.726967e+003;9.812330e-002
2.728896e+003;9.817542e-002
2.730824e+003;9.848931e-002
2.732752e+003;9.886242e-002
2.734681e+003;9.890470e-002
2.736610e+003;9.886210e-002
2.738538e+003;9.909040e-002
2.740467e+003;9.930362e-002
2.742395e+003;9.924806e-002
2.744324e+003;9.923311e-002
2.746252e+003;9.940891e-002
2.748181e+003;9.946731e-002
2.750109e+003;9.969239e-002
2.752038e+003;9.976034e-002
2.753967e+003;9.987000e-002
2.755895e+003;1.002360e-001
2.757824e+003;1.004962e-001
2.759752e+003;1.004990e-001
2.761681e+003;1.007554e-001
2.763609e+003;1.010223e-001
2.765538e+003;1.011380e-001
2.767466e+003;1.011464e-001
2.769395e+003;1.012649e-001
2.771323e+003;1.014519e-001
2.773252e+003;1.015775e-001
2.775181e+003;1.018857e-001
2.777109e+003;1.020123e-001
2.779038e+003;1.019900e-001
2.780966e+003;1.023279e-001
2.782895e+003;1.022732e-001
2.784823e+003;1.020377e-001
2.786752e+003;1.023395e-001
2.788680e+003;1.025906e-001
2.790609e+003;1.027885e-001
2.792538e+003;1.031289e-001
2.794466e+003;1.031965e-001
2.796395e+003;1.032342e-001
2.798323e+003;1.033523e-001
2.800252e+003;1.034723e-001
2.802180e+003;1.038151e-001
2.804109e+003;1.043291e-001
2.806037e+003;1.045523e-001
2.807966e+003;1.045772e-001
2.809895e+003;1.048584e-001
2.811823e+003;1.051032e-001
2.813751e+003;1.050499e-001
2.815680e+003;1.050031e-001
2.817609e+003;1.050691e-001
2.819537e+003;1.055016e-001
2.821466e+003;1.059999e-001
2.823394e+003;1.060154e-001
2.825323e+003;1.060365e-001
2.827251e+003;1.064054e-001
2.829180e+003;1.068495e-001
2.831108e+003;1.069768e-001
2.833037e+003;1.069237e-001
2.834966e+003;1.074258e-001
2.836894e+003;1.080886e-001
2.838823e+003;1.085875e-001
2.840751e+003;1.091808e-001
2.842680e+003;1.096337e-001
2.844608e+003;1.099890e-001
2.846537e+003;1.104005e-001
2.848465e+003;1.110160e-001
2.850394e+003;1.116203e-001
2.852323e+003;1.122239e-001
2.854251e+003;1.129479e-001
2.856180e+003;1.139369e-001
2.858108e+003;1.145555e-001
2.860037e+003;1.148996e-001
2.861965e+003;1.154062e-001
2.863894e+003;1.160318e-001
2.865822e+003;1.167160e-001
2.867751e+003;1.175319e-001
2.869679e+003;1.184074e-001
2.871608e+003;1.191934e-001
2.873536e+003;1.193762e-001
2.875465e+003;1.189315e-001
2.877394e+003;1.184597e-001
2.879322e+003;1.184676e-001
2.881251e+003;1.186102e-001
2.883179e+003;1.183273e-001
2.885108e+003;1.181723e-001
2.887036e+003;1.182114e-001
2.888965e+003;1.181305e-001
2.890893e+003;1.180982e-001
2.892822e+003;1.185579e-001
2.894750e+003;1.188805e-001
2.896679e+003;1.188641e-001
2.898608e+003;1.190746e-001
2.900536e+003;1.194260e-001
2.902465e+003;1.199584e-001
2.904393e+003;1.206286e-001
2.906322e+003;1.211106e-001
2.908250e+003;1.215047e-001
2.910179e+003;1.222330e-001
2.912107e+003;1.230768e-001
2.914036e+003;1.234846e-001
2.915965e+003;1.238652e-001
2.917893e+003;1.249265e-001
2.919822e+003;1.258788e-001
2.921750e+003;1.261984e-001
2.923679e+003;1.268127e-001
2.925607e+003;1.277098e-001
2.927536e+003;1.283029e-001
2.929464e+003;1.283467e-001
2.931393e+003;1.282808e-001
2.933322e+003;1.286386e-001
2.935250e+003;1.287037e-001
2.937178e+003;1.283599e-001
2.939107e+003;1.277248e-001
2.941036e+003;1.270064e-001
2.942964e+003;1.267302e-001
2.944893e+003;1.266632e-001
2.946821e+003;1.265371e-001
2.948750e+003;1.268493e-001
2.950678e+003;1.268763e-001
2.952607e+003;1.264913e-001
2.954535e+003;1.263678e-001
2.956464e+003;1.266015e-001
2.958393e+003;1.268805e-001
2.960321e+003;1.266197e-001
2.962250e+003;1.263476e-001
2.964178e+003;1.262572e-001
2.966107e+003;1.259310e-001
2.968035e+003;1.254520e-001
2.969964e+003;1.249716e-001
2.971892e+003;1.241505e-001
2.973821e+003;1.229503e-001
2.975750e+003;1.219279e-001
2.977678e+003;1.213067e-001
2.979607e+003;1.203339e-001
2.981535e+003;1.192859e-001
2.983464e+003;1.184830e-001
2.985392e+003;1.176574e-001
2.987321e+003;1.171421e-001
2.989249e+003;1.168455e-001
2.991178e+003;1.162746e-001
2.993106e+003;1.159030e-001
2.995035e+003;1.157155e-001
2.996964e+003;1.150318e-001
2.998892e+003;1.146287e-001
3.000821e+003;1.147184e-001
3.002749e+003;1.148022e-001
3.004678e+003;1.148980e-001
3.006606e+003;1.147409e-001
3.008535e+003;1.143624e-001
3.010463e+003;1.144133e-001
3.012392e+003;1.146391e-001
3.014321e+003;1.146523e-001
3.016249e+003;1.149695e-001
3.018177e+003;1.155050e-001
3.020106e+003;1.155628e-001
3.022035e+003;1.157829e-001
3.023963e+003;1.164249e-001
3.025892e+003;1.168726e-001
3.027820e+003;1.169489e-001
3.029749e+003;1.169394e-001
3.031677e+003;1.170270e-001
3.033606e+003;1.172504e-001
3.035534e+003;1.175156e-001
3.037463e+003;1.178582e-001
3.039392e+003;1.181879e-001
3.041320e+003;1.185475e-001
3.043249e+003;1.190404e-001
3.045177e+003;1.196275e-001
3.047106e+003;1.200568e-001
3.049034e+003;1.200721e-001
3.050963e+003;1.201497e-001
3.052891e+003;1.204453e-001
3.054820e+003;1.207344e-001
3.056749e+003;1.210603e-001
3.058677e+003;1.211848e-001
3.060606e+003;1.210556e-001
3.062534e+003;1.209838e-001
3.064463e+003;1.208693e-001
3.066391e+003;1.206836e-001
3.068320e+003;1.205686e-001
3.070248e+003;1.205604e-001
3.072177e+003;1.206360e-001
3.074105e+003;1.208008e-001
3.076034e+003;1.208552e-001
3.077963e+003;1.209635e-001
3.079891e+003;1.209938e-001
3.081820e+003;1.207547e-001
3.083748e+003;1.205937e-001
3.085677e+003;1.203127e-001
3.087605e+003;1.200340e-001
3.089534e+003;1.197019e-001
3.091462e+003;1.193519e-001
3.093391e+003;1.192820e-001
3.095320e+003;1.193345e-001
3.097248e+003;1.195935e-001
3.099177e+003;1.193619e-001
3.101105e+003;1.190327e-001
3.103034e+003;1.192155e-001
3.104962e+003;1.192144e-001
3.106891e+003;1.193459e-001
3.108819e+003;1.196736e-001
3.110748e+003;1.195295e-001
3.112677e+003;1.196255e-001
3.114605e+003;1.198876e-001
3.116533e+003;1.196094e-001
3.118462e+003;1.195394e-001
3.120391e+003;1.197768e-001
3.122319e+003;1.200642e-001
3.124248e+003;1.200768e-001
3.126176e+003;1.201466e-001
3.128105e+003;1.207563e-001
3.130033e+003;1.213835e-001
3.131962e+003;1.217002e-001
3.133890e+003;1.223194e-001
3.135819e+003;1.226871e-001
3.137748e+003;1.224392e-001
3.139676e+003;1.224793e-001
3.141605e+003;1.229085e-001
3.143533e+003;1.231425e-001
3.145462e+003;1.230880e-001
3.147390e+003;1.234053e-001
3.149319e+003;1.245248e-001
3.151247e+003;1.255353e-001
3.153176e+003;1.259845e-001
3.155104e+003;1.266042e-001
3.157033e+003;1.269724e-001
3.158962e+003;1.271740e-001
3.160890e+003;1.277546e-001
3.162819e+003;1.281719e-001
3.164747e+003;1.286130e-001
3.166676e+003;1.292107e-001
3.168604e+003;1.293977e-001
3.170533e+003;1.294189e-001
3.172461e+003;1.298047e-001
3.174390e+003;1.308359e-001
3.176319e+003;1.315905e-001
3.178247e+003;1.321371e-001
3.180176e+003;1.327509e-001
3.182104e+003;1.328588e-001
3.184033e+003;1.329423e-001
3.185961e+003;1.333357e-001
3.187890e+003;1.338923e-001
3.189818e+003;1.344057e-001
3.191747e+003;1.347127e-001
3.193676e+003;1.351004e-001
3.195604e+003;1.353187e-001
3.197532e+003;1.356848e-001
3.199461e+003;1.361469e-001
3.201390e+003;1.367238e-001
3.203318e+003;1.375998e-001
3.205247e+003;1.381974e-001
3.207175e+003;1.382084e-001
3.209104e+003;1.379014e-001
3.211032e+003;1.380915e-001
3.212961e+003;1.382397e-001
3.214889e+003;1.384839e-001
3.216818e+003;1.391059e-001
3.218747e+003;1.396718e-001
3.220675e+003;1.398541e-001
3.222604e+003;1.401628e-001
3.224532e+003;1.403340e-001
3.226461e+003;1.405188e-001
3.228389e+003;1.409691e-001
3.230318e+003;1.413437e-001
3.232246e+003;1.418474e-001
3.234175e+003;1.425615e-001
3.236104e+003;1.426688e-001
3.238032e+003;1.427340e-001
3.239961e+003;1.433772e-001
3.241889e+003;1.439279e-001
3.243818e+003;1.442476e-001
3.245746e+003;1.446665e-001
3.247675e+003;1.452898e-001
3.249603e+003;1.461756e-001
3.251532e+003;1.469409e-001
3.253460e+003;1.474334e-001
3.255389e+003;1.481805e-001
3.257318e+003;1.486637e-001
3.259246e+003;1.486875e-001
3.261175e+003;1.492482e-001
3.263103e+003;1.502050e-001
3.265032e+003;1.506069e-001
3.266960e+003;1.509331e-001
3.268889e+003;1.512532e-001
3.270817e+003;1.513157e-001
3.272746e+003;1.516102e-001
3.274675e+003;1.519667e-001
3.276603e+003;1.521497e-001
3.278531e+003;1.522354e-001
3.280460e+003;1.524229e-001
3.282389e+003;1.527761e-001
3.284317e+003;1.529936e-001
3.286246e+003;1.525092e-001
3.288174e+003;1.517432e-001
3.290103e+003;1.516981e-001
3.292031e+003;1.519928e-001
3.293960e+003;1.517455e-001
3.295888e+003;1.514972e-001
3.297817e+003;1.514898e-001
3.299746e+003;1.511170e-001
3.301674e+003;1.505896e-001
3.303603e+003;1.503388e-001
3.305531e+003;1.503411e-001
3.307460e+003;1.503127e-001
3.309388e+003;1.499563e-001
3.311317e+003;1.490663e-001
3.313245e+003;1.484352e-001
3.315174e+003;1.483405e-001
3.317103e+003;1.477915e-001
3.319031e+003;1.464323e-001
3.320960e+003;1.454989e-001
3.322888e+003;1.454626e-001
3.324817e+003;1.451523e-001
3.326745e+003;1.445863e-001
3.328674e+003;1.441289e-001
3.330602e+003;1.434283e-001
3.332531e+003;1.428792e-001
3.334459e+003;1.421866e-001
3.336388e+003;1.417738e-001
3.338317e+003;1.418662e-001
3.340245e+003;1.415471e-001
3.342174e+003;1.404590e-001
3.344102e+003;1.391517e-001
3.346031e+003;1.387710e-001
3.347959e+003;1.385685e-001
3.349888e+003;1.378505e-001
3.351816e+003;1.369491e-001
3.353745e+003;1.363280e-001
3.355674e+003;1.355972e-001
3.357602e+003;1.348980e-001
3.359531e+003;1.344585e-001
3.361459e+003;1.336935e-001
3.363388e+003;1.330308e-001
3.365316e+003;1.327363e-001
3.367245e+003;1.318701e-001
3.369173e+003;1.308494e-001
3.371102e+003;1.300689e-001
3.373031e+003;1.297038e-001
3.374959e+003;1.296548e-001
3.376887e+003;1.292085e-001
3.378816e+003;1.284349e-001
3.380745e+003;1.275304e-001
3.382673e+003;1.266946e-001
3.384602e+003;1.260384e-001
3.386530e+003;1.254942e-001
3.388459e+003;1.250686e-001
3.390387e+003;1.247916e-001
3.392316e+003;1.241460e-001
3.394244e+003;1.237258e-001
3.396173e+003;1.232111e-001
3.398102e+003;1.223853e-001
3.400030e+003;1.221404e-001
3.401959e+003;1.217421e-001
3.403887e+003;1.208300e-001
3.405816e+003;1.201135e-001
3.407744e+003;1.199457e-001
3.409673e+003;1.199148e-001
3.411601e+003;1.194177e-001
3.413530e+003;1.185204e-001
3.415458e+003;1.176623e-001
3.417387e+003;1.168780e-001
3.419316e+003;1.159667e-001
3.421244e+003;1.153881e-001
3.423173e+003;1.156034e-001
3.425101e+003;1.155425e-001
3.427030e+003;1.146571e-001
3.428958e+003;1.139979e-001
3.430887e+003;1.128773e-001
3.432815e+003;1.121799e-001
3.434744e+003;1.127614e-001
3.436673e+003;1.126182e-001
3.438601e+003;1.113974e-001
3.440530e+003;1.103825e-001
3.442458e+003;1.101970e-001
3.444387e+003;1.102898e-001
3.446315e+003;1.096367e-001
3.448244e+003;1.091814e-001
3.450172e+003;1.089766e-001
3.452101e+003;1.083145e-001
3.454030e+003;1.075553e-001
3.455958e+003;1.070418e-001
3.457886e+003;1.068433e-001
3.459815e+003;1.068100e-001
3.461744e+003;1.062231e-001
3.463672e+003;1.053520e-001
3.465601e+003;1.045033e-001
3.467529e+003;1.035326e-001
3.469458e+003;1.030824e-001
3.471386e+003;1.035974e-001
3.473315e+003;1.041799e-001
3.475243e+003;1.038880e-001
3.477172e+003;1.030655e-001
3.479101e+003;1.025018e-001
3.481029e+003;1.020037e-001
3.482958e+003;1.020345e-001
3.484886e+003;1.022809e-001
3.486815e+003;1.016185e-001
3.488743e+003;1.003593e-001
3.490672e+003;9.967142e-002
3.492600e+003;9.941112e-002
3.494529e+003;9.914763e-002
3.496458e+003;9.880415e-002
3.498386e+003;9.842165e-002
3.500315e+003;9.812159e-002
3.502243e+003;9.821534e-002
3.504172e+003;9.774426e-002
3.506100e+003;9.686350e-002
3.508029e+003;9.653671e-002
3.509957e+003;9.647953e-002
3.511886e+003;9.636745e-002
3.513814e+003;9.608530e-002
3.515743e+003;9.606819e-002
3.517672e+003;9.582317e-002
3.519600e+003;9.510189e-002
3.521529e+003;9.474032e-002
3.523457e+003;9.441084e-002
3.525386e+003;9.431432e-002
3.527314e+003;9.408613e-002
3.529243e+003;9.382977e-002
3.531171e+003;9.376331e-002
3.533100e+003;9.348141e-002
3.535029e+003;9.294545e-002
3.536957e+003;9.292386e-002
3.538885e+003;9.285928e-002
3.540814e+003;9.210595e-002
3.542743e+003;9.094320e-002
3.544671e+003;9.071000e-002
3.546600e+003;9.057532e-002
3.548528e+003;9.029152e-002
3.550457e+003;9.027451e-002
3.552385e+003;9.008676e-002
3.554314e+003;9.008354e-002
3.556242e+003;8.959899e-002
3.558171e+003;8.890411e-002
3.560100e+003;8.872296e-002
3.562028e+003;8.876283e-002
3.563957e+003;8.794772e-002
3.565885e+003;8.705752e-002
3.567814e+003;8.670970e-002
3.569742e+003;8.679304e-002
3.571671e+003;8.680862e-002
3.573599e+003;8.663486e-002
3.575528e+003;8.599050e-002
3.577457e+003;8.579397e-002
3.579385e+003;8.576595e-002
3.581314e+003;8.548286e-002
3.583242e+003;8.559289e-002
3.585171e+003;8.476025e-002
3.587099e+003;8.361827e-002
3.589028e+003;8.379091e-002
3.590956e+003;8.398011e-002
3.592885e+003;8.358987e-002
3.594813e+003;8.343317e-002
3.596742e+003;8.314858e-002
3.598671e+003;8.257488e-002
3.600599e+003;8.220489e-002
3.602528e+003;8.197253e-002
3.604456e+003;8.121235e-002
3.606385e+003;8.050877e-002
3.608313e+003;8.048001e-002
3.610242e+003;8.041833e-002
3.612170e+003;7.961484e-002
3.614099e+003;7.958786e-002
3.616028e+003;7.901356e-002
3.617956e+003;7.773016e-002
3.619885e+003;7.782893e-002
3.621813e+003;7.850062e-002
3.623742e+003;7.857241e-002
3.625670e+003;7.724115e-002
3.627599e+003;7.465326e-002
3.629527e+003;7.427127e-002
3.631456e+003;7.543968e-002
3.633385e+003;7.566947e-002
3.635313e+003;7.570407e-002
3.637241e+003;7.543495e-002
3.639170e+003;7.466651e-002
3.641099e+003;7.392136e-002
3.643027e+003;7.312807e-002
3.644956e+003;7.179251e-002
3.646884e+003;6.981363e-002
3.648813e+003;6.849762e-002
3.650741e+003;6.894489e-002
3.652670e+003;6.997016e-002
3.654598e+003;6.959675e-002
3.656527e+003;6.903860e-002
3.658456e+003;6.900364e-002
3.660384e+003;6.873821e-002
3.662313e+003;6.861360e-002
3.664241e+003;6.812485e-002
3.666170e+003;6.712139e-002
3.668098e+003;6.499058e-002
3.670027e+003;6.281082e-002
3.671955e+003;6.282894e-002
3.673884e+003;6.207594e-002
3.675813e+003;6.140163e-002
3.677741e+003;6.244669e-002
3.679669e+003;6.294770e-002
3.681598e+003;6.285483e-002
3.683527e+003;6.195684e-002
3.685455e+003;6.053552e-002
3.687384e+003;5.875883e-002
3.689312e+003;5.917145e-002
3.691241e+003;6.045089e-002
3.693169e+003;6.100104e-002
3.695098e+003;6.088185e-002
3.697026e+003;6.021591e-002
3.698955e+003;5.972568e-002
3.700884e+003;5.937107e-002
3.702812e+003;5.912244e-002
3.704741e+003;5.916052e-002
3.706669e+003;5.943934e-002
3.708598e+003;5.871889e-002
3.710526e+003;5.699846e-002
3.712455e+003;5.676594e-002
3.714383e+003;5.815367e-002
3.716312e+003;5.854960e-002
3.718240e+003;5.806598e-002
3.720169e+003;5.763470e-002
3.722098e+003;5.766580e-002
3.724026e+003;5.765839e-002
3.725955e+003;5.776136e-002
3.727883e+003;5.817610e-002
3.729812e+003;5.753021e-002
3.731740e+003;5.616385e-002
3.733669e+003;5.554752e-002
3.735597e+003;5.508262e-002
3.737526e+003;5.577442e-002
3.739455e+003;5.715528e-002
3.741383e+003;5.693869e-002
3.743312e+003;5.417792e-002
3.745240e+003;5.425551e-002
3.747169e+003;5.523062e-002
3.749097e+003;5.430811e-002
3.751026e+003;5.411749e-002
3.752954e+003;5.561392e-002
3.754883e+003;5.711790e-002
3.756812e+003;5.745377e-002
3.758740e+003;5.755045e-002
3.760668e+003;5.738433e-002
3.762597e+003;5.716196e-002
3.764526e+003;5.685548e-002
3.766454e+003;5.684566e-002
3.768383e+003;5.656763e-002
3.770311e+003;5.670451e-002
3.772240e+003;5.704610e-002
3.774168e+003;5.731862e-002
3.776097e+003;5.729582e-002
3.778025e+003;5.721061e-002
3.779954e+003;5.746311e-002
3.781883e+003;5.807504e-002
3.783811e+003;5.792413e-002
3.785740e+003;5.794863e-002
3.787668e+003;5.784709e-002
3.789597e+003;5.750392e-002
3.791525e+003;5.758949e-002
3.793454e+003;5.730830e-002
3.795382e+003;5.696929e-002
3.797311e+003;5.693612e-002
3.799240e+003;5.546789e-002
3.801168e+003;5.478640e-002
3.803097e+003;5.638906e-002
3.805025e+003;5.625768e-002
3.806954e+003;5.595718e-002
3.808882e+003;5.691712e-002
3.810811e+003;5.733816e-002
3.812739e+003;5.721008e-002
3.814668e+003;5.577069e-002
3.816596e+003;5.584322e-002
3.818525e+003;5.649868e-002
3.820454e+003;5.590178e-002
3.822382e+003;5.632267e-002
3.824311e+003;5.687410e-002
3.826239e+003;5.704754e-002
3.828168e+003;5.756993e-002
3.830096e+003;5.770187e-002
3.832025e+003;5.729903e-002
3.833953e+003;5.659054e-002
3.835882e+003;5.557328e-002
3.837811e+003;5.543232e-002
3.839739e+003;5.683297e-002
3.841667e+003;5.757810e-002
3.843596e+003;5.793034e-002
3.845525e+003;5.853792e-002
3.847453e+003;5.832372e-002
3.849382e+003;5.721885e-002
3.851310e+003;5.469804e-002
3.853239e+003;5.285662e-002
3.855167e+003;5.511697e-002
3.857096e+003;5.777650e-002
3.859024e+003;5.808803e-002
3.860953e+003;5.749904e-002
3.862882e+003;5.695671e-002
3.864810e+003;5.693450e-002
3.866739e+003;5.760216e-002
3.868667e+003;5.717209e-002
3.870596e+003;5.758741e-002
3.872524e+003;5.857883e-002
3.874453e+003;5.867986e-002
3.876381e+003;5.869962e-002
3.878310e+003;5.815700e-002
3.880239e+003;5.771038e-002
3.882167e+003;5.823410e-002
3.884096e+003;5.809742e-002
3.886024e+003;5.832686e-002
3.887953e+003;5.872898e-002
3.889881e+003;5.742098e-002
3.891810e+003;5.746152e-002
3.893738e+003;5.887235e-002
3.895667e+003;5.948535e-002
3.897595e+003;5.874817e-002
3.899524e+003;5.785606e-002
3.901453e+003;5.755994e-002
3.903381e+003;5.771326e-002
3.905310e+003;5.866458e-002
3.907238e+003;5.917958e-002
3.909167e+003;5.938315e-002
3.911095e+003;5.952210e-002
3.913024e+003;5.933475e-002
3.914952e+003;5.929533e-002
3.916881e+003;5.901102e-002
3.918810e+003;5.908348e-002
3.920738e+003;5.900859e-002
3.922667e+003;5.925765e-002
3.924595e+003;5.969416e-002
3.926524e+003;6.022447e-002
3.928452e+003;6.051788e-002
3.930381e+003;6.059113e-002
3.932309e+003;6.064393e-002
3.934238e+003;6.041106e-002
3.936167e+003;6.023490e-002
3.938095e+003;6.064203e-002
3.940023e+003;6.109672e-002
3.941952e+003;6.171726e-002
3.943881e+003;6.167923e-002
3.945809e+003;6.084930e-002
3.947738e+003;6.034450e-002
3.949666e+003;6.047321e-002
3.951595e+003;6.075802e-002
3.953523e+003;6.070155e-002
3.955452e+003;6.001057e-002
3.957380e+003;5.937122e-002
3.959309e+003;5.960404e-002
3.961238e+003;6.009329e-002
3.963166e+003;6.042884e-002
3.965095e+003;6.049385e-002
3.967023e+003;6.030049e-002
3.968952e+003;6.008986e-002
3.970880e+003;5.994895e-002
3.972809e+003;6.031739e-002
3.974737e+003;6.054717e-002
3.976666e+003;6.018603e-002
3.978594e+003;6.005771e-002
3.980523e+003;6.053437e-002
3.982452e+003;6.097919e-002
3.984380e+003;6.067766e-002
3.986309e+003;6.011502e-002
3.988237e+003;6.002324e-002
3.990166e+003;6.014641e-002
3.992094e+003;6.017256e-002
3.994023e+003;6.015094e-002
3.995951e+003;6.004056e-002
3.997880e+003;5.979640e-002
3.999809e+003;5.982416e-002
4.001737e+003;0.000000e+000
