3.992094e+002;0.000000e+000
4.011380e+002;0.000000e+000
4.030665e+002;0.000000e+000
4.049951e+002;0.000000e+000
4.069236e+002;0.000000e+000
4.088522e+002;0.000000e+000
4.107807e+002;0.000000e+000
4.127093e+002;0.000000e+000
4.146378e+002;0.000000e+000
4.165664e+002;0.000000e+000
4.184949e+002;0.000000e+000
4.204235e+002;0.000000e+000
4.223520e+002;0.000000e+000
4.242806e+002;0.000000e+000
4.262091e+002;0.000000e+000
4.281377e+002;0.000000e+000
4.300662e+002;0.000000e+000
4.319948e+002;0.000000e+000
4.339233e+002;0.000000e+000
4.358519e+002;0.000000e+000
4.377804e+002;0.000000e+000
4.397090e+002;0.000000e+000
4.416375e+002;0.000000e+000
4.435660e+002;0.000000e+000
4.454946e+002;0.000000e+000
4.474232e+002;0.000000e+000
4.493517e+002;0.000000e+000
4.512802e+002;0.000000e+000
4.532088e+002;0.000000e+000
4.551373e+002;0.000000e+000
4.570659e+002;0.000000e+000
4.589944e+002;0.000000e+000
4.609230e+002;0.000000e+000
4.628515e+002;0.000000e+000
4.647801e+002;0.000000e+000
4.667086e+002;0.000000e+000
4.686372e+002;0.000000e+000
4.705657e+002;0.000000e+000
4.724943e+002;0.000000e+000
4.744228e+002;0.000000e+000
4.763513e+002;0.000000e+000
4.782799e+002;0.000000e+000
4.802085e+002;0.000000e+000
4.821370e+002;0.000000e+000
4.840656e+002;0.000000e+000
4.859941e+002;0.000000e+000
4.879226e+002;0.000000e+000
4.898512e+002;0.000000e+000
4.917798e+002;0.000000e+000
4.937083e+002;0.000000e+000
4.956368e+002;0.000000e+000
4.975654e+002;0.000000e+000
4.994939e+002;0.000000e+000
5.014225e+002;0.000000e+000
5.033510e+002;0.000000e+000
5.052796e+002;0.000000e+000
5.072081e+002;0.000000e+000
5.091367e+002;0.000000e+000
5.110652e+002;0.000000e+000
5.129938e+002;0.000000e+000
5.149223e+002;0.000000e+000
5.168509e+002;0.000000e+000
5.187794e+002;0.000000e+000
5.207079e+002;0.000000e+000
5.226365e+002;0.000000e+000
5.245651e+002;0.000000e+000
5.264936e+002;0.000000e+000
5.284222e+002;0.000000e+000
5.303507e+002;0.000000e+000
5.322792e+002;0.000000e+000
5.342078e+002;0.000000e+000
5.361364e+002;0.000000e+000
5.380649e+002;0.000000e+000
5.399935e+002;0.000000e+000
5.419220e+002;0.000000e+000
5.438505e+002;0.000000e+000
5.457791e+002;0.000000e+000
5.477076e+002;0.000000e+000
5.496362e+002;0.000000e+000
5.515648e+002;0.000000e+000
5.534933e+002;0.000000e+000
5.554218e+002;0.000000e+000
5.573504e+002;0.000000e+000
5.592789e+002;0.000000e+000
5.612075e+002;0.000000e+000
5.631360e+002;0.000000e+000
5.650646e+002;0.000000e+000
5.669931e+002;0.000000e+000
5.689217e+002;0.000000e+000
5.708502e+002;0.000000e+000
5.727787e+002;0.000000e+000
5.747073e+002;0.000000e+000
5.766359e+002;0.000000e+000
5.785644e+002;0.000000e+000
5.804930e+002;0.000000e+000
5.824215e+002;0.000000e+000
5.843500e+002;0.000000e+000
5.862786e+002;0.000000e+000
5.882072e+002;0.000000e+000
5.901357e+002;0.000000e+000
5.920643e+002;0.000000e+000
5.939928e+002;0.000000e+000
5.959213e+002;0.000000e+000
5.978499e+002;0.000000e+000
5.997784e+002;2.051792e-001
6.017070e+002;2.018526e-001
6.036355e+002;2.003520e-001
6.055641e+002;2.067108e-001
6.074926e+002;2.098629e-001
6.094211e+002;2.050965e-001
6.113497e+002;2.051570e-001
6.132783e+002;2.077246e-001
6.152068e+002;2.090625e-001
6.171354e+002;2.073855e-001
6.190639e+002;2.036644e-001
6.209924e+002;2.032496e-001
6.229210e+002;2.037817e-001
6.248495e+002;2.026079e-001
6.267781e+002;2.019299e-001
6.287067e+002;2.000608e-001
6.306352e+002;1.975875e-001
6.325637e+002;1.973491e-001
6.344923e+002;1.998191e-001
6.364208e+002;1.988308e-001
6.383494e+002;1.988084e-001
6.402780e+002;1.948978e-001
6.422065e+002;1.925743e-001
6.441350e+002;1.968758e-001
6.460636e+002;1.982286e-001
6.479921e+002;1.966949e-001
6.499207e+002;1.928954e-001
6.518492e+002;1.885055e-001
6.537778e+002;1.844311e-001
6.557063e+002;1.828598e-001
6.576349e+002;1.827202e-001
6.595634e+002;1.834726e-001
6.614919e+002;1.858198e-001
6.634205e+002;1.864997e-001
6.653491e+002;1.856038e-001
6.672776e+002;1.847281e-001
6.692062e+002;1.830883e-001
6.711347e+002;1.797826e-001
6.730632e+002;1.766189e-001
6.749918e+002;1.741364e-001
6.769203e+002;1.731851e-001
6.788489e+002;1.733110e-001
6.807775e+002;1.725523e-001
6.827060e+002;1.703774e-001
6.846345e+002;1.683826e-001
6.865631e+002;1.682593e-001
6.884916e+002;1.683345e-001
6.904202e+002;1.679024e-001
6.923488e+002;1.674999e-001
6.942773e+002;1.661333e-001
6.962058e+002;1.654514e-001
6.981344e+002;1.658858e-001
7.000629e+002;1.650845e-001
7.019915e+002;1.631507e-001
7.039200e+002;1.613010e-001
7.058486e+002;1.602516e-001
7.077771e+002;1.583792e-001
7.097057e+002;1.560464e-001
7.116342e+002;1.539675e-001
7.135627e+002;1.525906e-001
7.154913e+002;1.515654e-001
7.174199e+002;1.502864e-001
7.193484e+002;1.486381e-001
7.212770e+002;1.473131e-001
7.232055e+002;1.463150e-001
7.251340e+002;1.455609e-001
7.270626e+002;1.450624e-001
7.289911e+002;1.449860e-001
7.309197e+002;1.445181e-001
7.328483e+002;1.428682e-001
7.347768e+002;1.423520e-001
7.367053e+002;1.437017e-001
7.386339e+002;1.442444e-001
7.405624e+002;1.438087e-001
7.424910e+002;1.439894e-001
7.444196e+002;1.442389e-001
7.463481e+002;1.424176e-001
7.482766e+002;1.403602e-001
7.502052e+002;1.393157e-001
7.521337e+002;1.381122e-001
7.540623e+002;1.367707e-001
7.559908e+002;1.354701e-001
7.579194e+002;1.337581e-001
7.598479e+002;1.323375e-001
7.617765e+002;1.310628e-001
7.637050e+002;1.296495e-001
7.656335e+002;1.288984e-001
7.675621e+002;1.281414e-001
7.694907e+002;1.269604e-001
7.714192e+002;1.252607e-001
7.733478e+002;1.236486e-001
7.752763e+002;1.229833e-001
7.772048e+002;1.222966e-001
7.791334e+002;1.209828e-001
7.810620e+002;1.198628e-001
7.829905e+002;1.194197e-001
7.849191e+002;1.184825e-001
7.868476e+002;1.177531e-001
7.887761e+002;1.176958e-001
7.907047e+002;1.176779e-001
7.926332e+002;1.171103e-001
7.945618e+002;1.153557e-001
7.964903e+002;1.140212e-001
7.984189e+002;1.139651e-001
8.003474e+002;1.140388e-001
8.022759e+002;1.138069e-001
8.042045e+002;1.132632e-001
8.061331e+002;1.122316e-001
8.080616e+002;1.116896e-001
8.099902e+002;1.116327e-001
8.119187e+002;1.119574e-001
8.138472e+002;1.124151e-001
8.157758e+002;1.128935e-001
8.177043e+002;1.131981e-001
8.196329e+002;1.137160e-001
8.215615e+002;1.142856e-001
8.234900e+002;1.153242e-001
8.254185e+002;1.157399e-001
8.273471e+002;1.154396e-001
8.292756e+002;1.153573e-001
8.312042e+002;1.143479e-001
8.331328e+002;1.125710e-001
8.350613e+002;1.107641e-001
8.369898e+002;1.090726e-001
8.389184e+002;1.078044e-001
8.408469e+002;1.064369e-001
8.427755e+002;1.052475e-001
8.447040e+002;1.042056e-001
8.466326e+002;1.034260e-001
8.485611e+002;1.036237e-001
8.504897e+002;1.032384e-001
8.524182e+002;1.023288e-001
8.543467e+002;1.014152e-001
8.562753e+002;1.011438e-001
8.582039e+002;1.010202e-001
8.601324e+002;1.006671e-001
8.620610e+002;1.007048e-001
8.639895e+002;1.007934e-001
8.659180e+002;1.007059e-001
8.678466e+002;1.008639e-001
8.697751e+002;1.010805e-001
8.717037e+002;1.016237e-001
8.736323e+002;1.021809e-001
8.755608e+002;1.024206e-001
8.774893e+002;1.023664e-001
8.794179e+002;1.026295e-001
8.813464e+002;1.029820e-001
8.832750e+002;1.031768e-001
8.852036e+002;1.033022e-001
8.871321e+002;1.036774e-001
8.890606e+002;1.034793e-001
8.909892e+002;1.026906e-001
8.929177e+002;1.022627e-001
8.948463e+002;1.020501e-001
8.967748e+002;1.018559e-001
8.987034e+002;1.016829e-001
9.006319e+002;1.016049e-001
9.025605e+002;1.015477e-001
9.044890e+002;1.016331e-001
9.064175e+002;1.020549e-001
9.083461e+002;1.023724e-001
9.102747e+002;1.023657e-001
9.122032e+002;1.022645e-001
9.141318e+002;1.023191e-001
9.160603e+002;1.025600e-001
9.179888e+002;1.030796e-001
9.199174e+002;1.033539e-001
9.218459e+002;1.034624e-001
9.237745e+002;1.038985e-001
9.257031e+002;1.039916e-001
9.276316e+002;1.038707e-001
9.295601e+002;1.040117e-001
9.314887e+002;1.042693e-001
9.334172e+002;1.043661e-001
9.353458e+002;1.043498e-001
9.372744e+002;1.043120e-001
9.392029e+002;1.040775e-001
9.411314e+002;1.034220e-001
9.430600e+002;1.030809e-001
9.449885e+002;1.031349e-001
9.469171e+002;1.032774e-001
9.488456e+002;1.035162e-001
9.507742e+002;1.038019e-001
9.527027e+002;1.040201e-001
9.546313e+002;1.043085e-001
9.565598e+002;1.046328e-001
9.584883e+002;1.050156e-001
9.604169e+002;1.054373e-001
9.623455e+002;1.058879e-001
9.642740e+002;1.062719e-001
9.662026e+002;1.066454e-001
9.681311e+002;1.072912e-001
9.700596e+002;1.079272e-001
9.719882e+002;1.082589e-001
9.739167e+002;1.082081e-001
9.758453e+002;1.083455e-001
9.777739e+002;1.087833e-001
9.797024e+002;1.094841e-001
9.816309e+002;1.104782e-001
9.835595e+002;1.113645e-001
9.854880e+002;1.125091e-001
9.874166e+002;1.141388e-001
9.893452e+002;1.158790e-001
9.912737e+002;1.172796e-001
9.932022e+002;1.174464e-001
9.951307e+002;1.172663e-001
9.970593e+002;1.174676e-001
9.989879e+002;1.180367e-001
1.000916e+003;1.189765e-001
1.002845e+003;1.203528e-001
1.004773e+003;1.218093e-001
1.006702e+003;1.234238e-001
1.008631e+003;1.248773e-001
1.010559e+003;1.262649e-001
1.012488e+003;1.279754e-001
1.014416e+003;1.297282e-001
1.016345e+003;1.314673e-001
1.018273e+003;1.331396e-001
1.020202e+003;1.345425e-001
1.022130e+003;1.363281e-001
1.024059e+003;1.387904e-001
1.025988e+003;1.415143e-001
1.027916e+003;1.448158e-001
1.029845e+003;1.487049e-001
1.031773e+003;1.525396e-001
1.033702e+003;1.562174e-001
1.035630e+003;1.593183e-001
1.037559e+003;1.618269e-001
1.039487e+003;1.640915e-001
1.041416e+003;1.659030e-001
1.043344e+003;1.668113e-001
1.045273e+003;1.659677e-001
1.047202e+003;1.637542e-001
1.049130e+003;1.605138e-001
1.051059e+003;1.569941e-001
1.052987e+003;1.537451e-001
1.054916e+003;1.516063e-001
1.056844e+003;1.508190e-001
1.058773e+003;1.507669e-001
1.060701e+003;1.511989e-001
1.062630e+003;1.518756e-001
1.064558e+003;1.524157e-001
1.066487e+003;1.527434e-001
1.068416e+003;1.529950e-001
1.070344e+003;1.534520e-001
1.072273e+003;1.538447e-001
1.074201e+003;1.540051e-001
1.076130e+003;1.539839e-001
1.078058e+003;1.540216e-001
1.079987e+003;1.535029e-001
1.081915e+003;1.530289e-001
1.083844e+003;1.530885e-001
1.085773e+003;1.531030e-001
1.087701e+003;1.527373e-001
1.089630e+003;1.521966e-001
1.091558e+003;1.518147e-001
1.093487e+003;1.518330e-001
1.095415e+003;1.520407e-001
1.097344e+003;1.521927e-001
1.099272e+003;1.517633e-001
1.101201e+003;1.512251e-001
1.103129e+003;1.508114e-001
1.105058e+003;1.499689e-001
1.106987e+003;1.489095e-001
1.108915e+003;1.477428e-001
1.110844e+003;1.468336e-001
1.112772e+003;1.461142e-001
1.114701e+003;1.457953e-001
1.116629e+003;1.459896e-001
1.118558e+003;1.462222e-001
1.120486e+003;1.457516e-001
1.122415e+003;1.452442e-001
1.124344e+003;1.453171e-001
1.126272e+003;1.456618e-001
1.128201e+003;1.461131e-001
1.130129e+003;1.462813e-001
1.132058e+003;1.462549e-001
1.133986e+003;1.466860e-001
1.135915e+003;1.476362e-001
1.137843e+003;1.491640e-001
1.139772e+003;1.505282e-001
1.141700e+003;1.518604e-001
1.143629e+003;1.530318e-001
1.145557e+003;1.542640e-001
1.147486e+003;1.563641e-001
1.149415e+003;1.582573e-001
1.151343e+003;1.589128e-001
1.153272e+003;1.589953e-001
1.155200e+003;1.588354e-001
1.157129e+003;1.584330e-001
1.159057e+003;1.582996e-001
1.160986e+003;1.590883e-001
1.162914e+003;1.605856e-001
1.164843e+003;1.620783e-001
1.166771e+003;1.633605e-001
1.168700e+003;1.647761e-001
1.170629e+003;1.658807e-001
1.172557e+003;1.665215e-001
1.174486e+003;1.671506e-001
1.176414e+003;1.678244e-001
1.178343e+003;1.685008e-001
1.180271e+003;1.690649e-001
1.182200e+003;1.699451e-001
1.184128e+003;1.708652e-001
1.186057e+003;1.718151e-001
1.187986e+003;1.730199e-001
1.189914e+003;1.741861e-001
1.191843e+003;1.751432e-001
1.193771e+003;1.758011e-001
1.195700e+003;1.762081e-001
1.197628e+003;1.769478e-001
1.199557e+003;1.778334e-001
1.201485e+003;1.782677e-001
1.203414e+003;1.787443e-001
1.205343e+003;1.792986e-001
1.207271e+003;1.800604e-001
1.209200e+003;1.807852e-001
1.211128e+003;1.817363e-001
1.213057e+003;1.832795e-001
1.214985e+003;1.847997e-001
1.216914e+003;1.861153e-001
1.218842e+003;1.870830e-001
1.220771e+003;1.878596e-001
1.222699e+003;1.885923e-001
1.224628e+003;1.890618e-001
1.226557e+003;1.893576e-001
1.228485e+003;1.894523e-001
1.230414e+003;1.898184e-001
1.232342e+003;1.899256e-001
1.234271e+003;1.896015e-001
1.236199e+003;1.890372e-001
1.238128e+003;1.880320e-001
1.240056e+003;1.868853e-001
1.241985e+003;1.862572e-001
1.243913e+003;1.855580e-001
1.245842e+003;1.843618e-001
1.247771e+003;1.832260e-001
1.249699e+003;1.821925e-001
1.251628e+003;1.814274e-001
1.253556e+003;1.807548e-001
1.255485e+003;1.797901e-001
1.257413e+003;1.785063e-001
1.259342e+003;1.769638e-001
1.261270e+003;1.754513e-001
1.263199e+003;1.742109e-001
1.265127e+003;1.727888e-001
1.267056e+003;1.715742e-001
1.268985e+003;1.707221e-001
1.270913e+003;1.701312e-001
1.272842e+003;1.699588e-001
1.274770e+003;1.701990e-001
1.276699e+003;1.701569e-001
1.278627e+003;1.700151e-001
1.280556e+003;1.697817e-001
1.282484e+003;1.691312e-001
1.284413e+003;1.682948e-001
1.286342e+003;1.672635e-001
1.288270e+003;1.663033e-001
1.290199e+003;1.656200e-001
1.292127e+003;1.648394e-001
1.294056e+003;1.639155e-001
1.295984e+003;1.629816e-001
1.297913e+003;1.615529e-001
1.299841e+003;1.598941e-001
1.301770e+003;1.586497e-001
1.303698e+003;1.577943e-001
1.305627e+003;1.570580e-001
1.307556e+003;1.566320e-001
1.309484e+003;1.565815e-001
1.311413e+003;1.568860e-001
1.313341e+003;1.576302e-001
1.315270e+003;1.583657e-001
1.317198e+003;1.591468e-001
1.319127e+003;1.600020e-001
1.321055e+003;1.605665e-001
1.322984e+003;1.606750e-001
1.324912e+003;1.605876e-001
1.326841e+003;1.606113e-001
1.328770e+003;1.600635e-001
1.330698e+003;1.587370e-001
1.332627e+003;1.571828e-001
1.334555e+003;1.554398e-001
1.336484e+003;1.533671e-001
1.338412e+003;1.513466e-001
1.340341e+003;1.495847e-001
1.342269e+003;1.479964e-001
1.344198e+003;1.466223e-001
1.346126e+003;1.454138e-001
1.348055e+003;1.441952e-001
1.349984e+003;1.428910e-001
1.351912e+003;1.418562e-001
1.353841e+003;1.411409e-001
1.355769e+003;1.405395e-001
1.357698e+003;1.404187e-001
1.359626e+003;1.408521e-001
1.361555e+003;1.415150e-001
1.363483e+003;1.425387e-001
1.365412e+003;1.439969e-001
1.367341e+003;1.451951e-001
1.369269e+003;1.457257e-001
1.371198e+003;1.458234e-001
1.373126e+003;1.458941e-001
1.375055e+003;1.460961e-001
1.376983e+003;1.466853e-001
1.378912e+003;1.475461e-001
1.380840e+003;1.486204e-001
1.382769e+003;1.498286e-001
1.384698e+003;1.509015e-001
1.386626e+003;1.513526e-001
1.388555e+003;1.511694e-001
1.390483e+003;1.507604e-001
1.392412e+003;1.502894e-001
1.394340e+003;1.501048e-001
1.396269e+003;1.502232e-001
1.398197e+003;1.504633e-001
1.400126e+003;1.508271e-001
1.402054e+003;1.510415e-001
1.403983e+003;1.510472e-001
1.405911e+003;1.511508e-001
1.407840e+003;1.513299e-001
1.409769e+003;1.517173e-001
1.411697e+003;1.520513e-001
1.413626e+003;1.523055e-001
1.415554e+003;1.525259e-001
1.417483e+003;1.524653e-001
1.419411e+003;1.523919e-001
1.421340e+003;1.531328e-001
1.423268e+003;1.541198e-001
1.425197e+003;1.550074e-001
1.427125e+003;1.561235e-001
1.429054e+003;1.575911e-001
1.430983e+003;1.594864e-001
1.432911e+003;1.620624e-001
1.434840e+003;1.645210e-001
1.436768e+003;1.664597e-001
1.438697e+003;1.683145e-001
1.440625e+003;1.694394e-001
1.442554e+003;1.700239e-001
1.444482e+003;1.703359e-001
1.446411e+003;1.705814e-001
1.448340e+003;1.709696e-001
1.450268e+003;1.715320e-001
1.452197e+003;1.722635e-001
1.454125e+003;1.727259e-001
1.456054e+003;1.725779e-001
1.457982e+003;1.723805e-001
1.459911e+003;1.715973e-001
1.461839e+003;1.699845e-001
1.463768e+003;1.681082e-001
1.465697e+003;1.664303e-001
1.467625e+003;1.652176e-001
1.469554e+003;1.639617e-001
1.471482e+003;1.626738e-001
1.473411e+003;1.620224e-001
1.475339e+003;1.624300e-001
1.477268e+003;1.634396e-001
1.479196e+003;1.654360e-001
1.481125e+003;1.683753e-001
1.483053e+003;1.722886e-001
1.484982e+003;1.771042e-001
1.486911e+003;1.825960e-001
1.488839e+003;1.888843e-001
1.490768e+003;1.957720e-001
1.492696e+003;2.029683e-001
1.494625e+003;2.101798e-001
1.496553e+003;2.170804e-001
1.498482e+003;2.229657e-001
1.500410e+003;2.276954e-001
1.502339e+003;2.314185e-001
1.504267e+003;2.341391e-001
1.506196e+003;2.366939e-001
1.508125e+003;2.401483e-001
1.510053e+003;2.435098e-001
1.511982e+003;2.458126e-001
1.513910e+003;2.471335e-001
1.515839e+003;2.467144e-001
1.517767e+003;2.442458e-001
1.519696e+003;2.405609e-001
1.521624e+003;2.369992e-001
1.523553e+003;2.348045e-001
1.525481e+003;2.326502e-001
1.527410e+003;2.302530e-001
1.529339e+003;2.279087e-001
1.531267e+003;2.253639e-001
1.533196e+003;2.221911e-001
1.535124e+003;2.188854e-001
1.537053e+003;2.152504e-001
1.538981e+003;2.110489e-001
1.540910e+003;2.072870e-001
1.542838e+003;2.037091e-001
1.544767e+003;1.994103e-001
1.546695e+003;1.946157e-001
1.548624e+003;1.893849e-001
1.550553e+003;1.839463e-001
1.552481e+003;1.786050e-001
1.554410e+003;1.735764e-001
1.556338e+003;1.685387e-001
1.558267e+003;1.629574e-001
1.560195e+003;1.584354e-001
1.562124e+003;1.548477e-001
1.564052e+003;1.511130e-001
1.565981e+003;1.478610e-001
1.567910e+003;1.451770e-001
1.569838e+003;1.430527e-001
1.571767e+003;1.416336e-001
1.573695e+003;1.403733e-001
1.575624e+003;1.394911e-001
1.577552e+003;1.399837e-001
1.579481e+003;1.410426e-001
1.581409e+003;1.421014e-001
1.583338e+003;1.435294e-001
1.585266e+003;1.452695e-001
1.587195e+003;1.473776e-001
1.589124e+003;1.500497e-001
1.591052e+003;1.529809e-001
1.592981e+003;1.558560e-001
1.594909e+003;1.589054e-001
1.596838e+003;1.623482e-001
1.598766e+003;1.662566e-001
1.600695e+003;1.709943e-001
1.602623e+003;1.764529e-001
1.604552e+003;1.828286e-001
1.606480e+003;1.898627e-001
1.608409e+003;1.971007e-001
1.610338e+003;2.045011e-001
1.612266e+003;2.118288e-001
1.614195e+003;2.185676e-001
1.616123e+003;2.247041e-001
1.618052e+003;2.313809e-001
1.619980e+003;2.382166e-001
1.621909e+003;2.444692e-001
1.623837e+003;2.506035e-001
1.625766e+003;2.566220e-001
1.627694e+003;2.619017e-001
1.629623e+003;2.663801e-001
1.631552e+003;2.697044e-001
1.633480e+003;2.717837e-001
1.635409e+003;2.732158e-001
1.637337e+003;2.746530e-001
1.639266e+003;2.756630e-001
1.641194e+003;2.757445e-001
1.643123e+003;2.748073e-001
1.645051e+003;2.727050e-001
1.646980e+003;2.698382e-001
1.648909e+003;2.666577e-001
1.650837e+003;2.624729e-001
1.652766e+003;2.570858e-001
1.654694e+003;2.522241e-001
1.656623e+003;2.472329e-001
1.658551e+003;2.412206e-001
1.660480e+003;2.347082e-001
1.662408e+003;2.280036e-001
1.664337e+003;2.216799e-001
1.666266e+003;2.152221e-001
1.668194e+003;2.086436e-001
1.670123e+003;2.021157e-001
1.672051e+003;1.955703e-001
1.673980e+003;1.890617e-001
1.675908e+003;1.827773e-001
1.677837e+003;1.767696e-001
1.679765e+003;1.705871e-001
1.681694e+003;1.640607e-001
1.683622e+003;1.573912e-001
1.685551e+003;1.514695e-001
1.687479e+003;1.460759e-001
1.689408e+003;1.403259e-001
1.691337e+003;1.346002e-001
1.693265e+003;1.284100e-001
1.695194e+003;1.216244e-001
1.697122e+003;1.155031e-001
1.699051e+003;1.093667e-001
1.700979e+003;1.032695e-001
1.702908e+003;9.827753e-002
1.704836e+003;9.328643e-002
1.706765e+003;8.877747e-002
1.708693e+003;8.485660e-002
1.710622e+003;8.134019e-002
1.712551e+003;7.812028e-002
1.714479e+003;7.525669e-002
1.716408e+003;7.260125e-002
1.718336e+003;7.061783e-002
1.720265e+003;6.934137e-002
1.722193e+003;6.801230e-002
1.724122e+003;6.654046e-002
1.726050e+003;6.518566e-002
1.727979e+003;6.389268e-002
1.729908e+003;6.258413e-002
1.731836e+003;6.104428e-002
1.733765e+003;5.926840e-002
1.735693e+003;5.835813e-002
1.737622e+003;5.728879e-002
1.739550e+003;5.582882e-002
1.741479e+003;5.468980e-002
1.743407e+003;5.354889e-002
1.745336e+003;5.241998e-002
1.747265e+003;5.133758e-002
1.749193e+003;5.027521e-002
1.751122e+003;4.935736e-002
1.753050e+003;4.869872e-002
1.754979e+003;4.794827e-002
1.756907e+003;4.722213e-002
1.758836e+003;4.655731e-002
1.760764e+003;4.584401e-002
1.762693e+003;4.535297e-002
1.764621e+003;4.509046e-002
1.766550e+003;4.441697e-002
1.768479e+003;4.391602e-002
1.770407e+003;4.340345e-002
1.772336e+003;4.287053e-002
1.774264e+003;4.280617e-002
1.776193e+003;4.283008e-002
1.778121e+003;4.263639e-002
1.780050e+003;4.225963e-002
1.781978e+003;4.209612e-002
1.783907e+003;4.207736e-002
1.785835e+003;4.198172e-002
1.787764e+003;4.177885e-002
1.789693e+003;4.151733e-002
1.791621e+003;4.125371e-002
1.793550e+003;4.105391e-002
1.795478e+003;4.101130e-002
1.797407e+003;4.074161e-002
1.799335e+003;4.043002e-002
1.801264e+003;4.020675e-002
1.803192e+003;4.031723e-002
1.805121e+003;4.039875e-002
1.807049e+003;4.026895e-002
1.808978e+003;4.025074e-002
1.810907e+003;4.029120e-002
1.812835e+003;4.012429e-002
1.814764e+003;3.993681e-002
1.816692e+003;3.978790e-002
1.818621e+003;3.969135e-002
1.820549e+003;3.962448e-002
1.822478e+003;3.951277e-002
1.824406e+003;3.937496e-002
1.826335e+003;3.931529e-002
1.828264e+003;3.928750e-002
1.830192e+003;3.927800e-002
1.832121e+003;3.909197e-002
1.834049e+003;3.877377e-002
1.835978e+003;3.883667e-002
1.837906e+003;3.915883e-002
1.839835e+003;3.929327e-002
1.841763e+003;3.912710e-002
1.843692e+003;3.880681e-002
1.845620e+003;3.879192e-002
1.847549e+003;3.877301e-002
1.849478e+003;3.876098e-002
1.851406e+003;3.874631e-002
1.853335e+003;3.875504e-002
1.855263e+003;3.871190e-002
1.857192e+003;3.852159e-002
1.859120e+003;3.846558e-002
1.861049e+003;3.857492e-002
1.862977e+003;3.861755e-002
1.864906e+003;3.859622e-002
1.866834e+003;3.846065e-002
1.868763e+003;3.827574e-002
1.870692e+003;3.828637e-002
1.872620e+003;3.847912e-002
1.874549e+003;3.852025e-002
1.876477e+003;3.852484e-002
1.878406e+003;3.849450e-002
1.880334e+003;3.855667e-002
1.882263e+003;3.860002e-002
1.884191e+003;3.838333e-002
1.886120e+003;3.821994e-002
1.888048e+003;3.840849e-002
1.889977e+003;3.873026e-002
1.891906e+003;3.885609e-002
1.893834e+003;3.875171e-002
1.895763e+003;3.872859e-002
1.897691e+003;3.871396e-002
1.899620e+003;3.881497e-002
1.901548e+003;3.877993e-002
1.903477e+003;3.867401e-002
1.905405e+003;3.875943e-002
1.907334e+003;3.883638e-002
1.909262e+003;3.860527e-002
1.911191e+003;3.854975e-002
1.913120e+003;3.875577e-002
1.915048e+003;3.883391e-002
1.916977e+003;3.874450e-002
1.918905e+003;3.870987e-002
1.920834e+003;3.872794e-002
1.922762e+003;3.887493e-002
1.924691e+003;3.893096e-002
1.926619e+003;3.886928e-002
1.928548e+003;3.891454e-002
1.930477e+003;3.903647e-002
1.932405e+003;3.898145e-002
1.934334e+003;3.885728e-002
1.936262e+003;3.896579e-002
1.938191e+003;3.886852e-002
1.940119e+003;3.860958e-002
1.942048e+003;3.869187e-002
1.943976e+003;3.877153e-002
1.945905e+003;3.871074e-002
1.947833e+003;3.886468e-002
1.949762e+003;3.910651e-002
1.951691e+003;3.906047e-002
1.953619e+003;3.893299e-002
1.955548e+003;3.906663e-002
1.957476e+003;3.911442e-002
1.959405e+003;3.911449e-002
1.961333e+003;3.905188e-002
1.963262e+003;3.894455e-002
1.965190e+003;3.905438e-002
1.967119e+003;3.919005e-002
1.969047e+003;3.907080e-002
1.970976e+003;3.900497e-002
1.972905e+003;3.912145e-002
1.974833e+003;3.903807e-002
1.976762e+003;3.895082e-002
1.978690e+003;3.917424e-002
1.980619e+003;3.924663e-002
1.982547e+003;3.902139e-002
1.984476e+003;3.902712e-002
1.986404e+003;3.923332e-002
1.988333e+003;3.918780e-002
1.990261e+003;3.916949e-002
1.992190e+003;3.912602e-002
1.994119e+003;3.912091e-002
1.996047e+003;3.913138e-002
1.997976e+003;3.915147e-002
1.999904e+003;3.924681e-002
2.001833e+003;3.941926e-002
2.003761e+003;3.947655e-002
2.005690e+003;3.958292e-002
2.007618e+003;3.959036e-002
2.009547e+003;3.965784e-002
2.011476e+003;3.986296e-002
2.013404e+003;3.970489e-002
2.015333e+003;3.953251e-002
2.017261e+003;3.957552e-002
2.019190e+003;3.964837e-002
2.021118e+003;3.967690e-002
2.023047e+003;3.961297e-002
2.024975e+003;3.972356e-002
2.026904e+003;3.980536e-002
2.028833e+003;3.959642e-002
2.030761e+003;3.957352e-002
2.032690e+003;3.983394e-002
2.034618e+003;4.003192e-002
2.036547e+003;4.003795e-002
2.038475e+003;3.991203e-002
2.040404e+003;3.992943e-002
2.042332e+003;4.012196e-002
2.044261e+003;3.994836e-002
2.046189e+003;3.975555e-002
2.048118e+003;3.977428e-002
2.050047e+003;3.987673e-002
2.051975e+003;3.993641e-002
2.053904e+003;4.016895e-002
2.055832e+003;4.035151e-002
2.057761e+003;4.043806e-002
2.059689e+003;4.058206e-002
2.061618e+003;4.054751e-002
2.063546e+003;4.042326e-002
2.065475e+003;4.032395e-002
2.067404e+003;4.039209e-002
2.069332e+003;4.045257e-002
2.071260e+003;4.026640e-002
2.073189e+003;4.012352e-002
2.075118e+003;4.014962e-002
2.077046e+003;4.026404e-002
2.078975e+003;4.031061e-002
2.080903e+003;4.037111e-002
2.082832e+003;4.034904e-002
2.084760e+003;4.014598e-002
2.086689e+003;4.014929e-002
2.088617e+003;4.032941e-002
2.090546e+003;4.034955e-002
2.092475e+003;4.028454e-002
2.094403e+003;4.026244e-002
2.096332e+003;4.014944e-002
2.098260e+003;4.013464e-002
2.100189e+003;4.023983e-002
2.102117e+003;4.011200e-002
2.104046e+003;4.006654e-002
2.105974e+003;4.026760e-002
2.107903e+003;4.034279e-002
2.109832e+003;4.031835e-002
2.111760e+003;4.018505e-002
2.113688e+003;4.006251e-002
2.115617e+003;4.011418e-002
2.117546e+003;4.019585e-002
2.119474e+003;4.028520e-002
2.121403e+003;4.026255e-002
2.123331e+003;4.030672e-002
2.125260e+003;4.043973e-002
2.127188e+003;4.055420e-002
2.129117e+003;4.055791e-002
2.131045e+003;4.041562e-002
2.132974e+003;4.026201e-002
2.134903e+003;4.034479e-002
2.136831e+003;4.039675e-002
2.138760e+003;4.034915e-002
2.140688e+003;4.023296e-002
2.142617e+003;4.013628e-002
2.144545e+003;4.003439e-002
2.146474e+003;3.995708e-002
2.148402e+003;3.988981e-002
2.150331e+003;4.008878e-002
2.152260e+003;4.036184e-002
2.154188e+003;4.030178e-002
2.156117e+003;4.025477e-002
2.158045e+003;4.014027e-002
2.159974e+003;4.016056e-002
2.161902e+003;4.026484e-002
2.163831e+003;4.015765e-002
2.165759e+003;3.999170e-002
2.167688e+003;3.990154e-002
2.169616e+003;3.998549e-002
2.171545e+003;4.027157e-002
2.173474e+003;4.035300e-002
2.175402e+003;4.021446e-002
2.177331e+003;4.022961e-002
2.179259e+003;4.026775e-002
2.181188e+003;4.009002e-002
2.183116e+003;4.003679e-002
2.185045e+003;4.007254e-002
2.186973e+003;4.020254e-002
2.188902e+003;4.021646e-002
2.190831e+003;4.024895e-002
2.192759e+003;4.032999e-002
2.194688e+003;4.032163e-002
2.196616e+003;4.028265e-002
2.198545e+003;4.012269e-002
2.200473e+003;4.004325e-002
2.202402e+003;4.005292e-002
2.204330e+003;4.021413e-002
2.206259e+003;4.028672e-002
2.208188e+003;4.019661e-002
2.210116e+003;4.013414e-002
2.212044e+003;4.019116e-002
2.213973e+003;4.016114e-002
2.215902e+003;4.004427e-002
2.217830e+003;3.997974e-002
2.219759e+003;4.019908e-002
2.221687e+003;4.033094e-002
2.223616e+003;4.030327e-002
2.225544e+003;4.042431e-002
2.227473e+003;4.052433e-002
2.229401e+003;4.044784e-002
2.231330e+003;4.030516e-002
2.233259e+003;4.033559e-002
2.235187e+003;4.051946e-002
2.237116e+003;4.047494e-002
2.239044e+003;4.045130e-002
2.240973e+003;4.046785e-002
2.242901e+003;4.044093e-002
2.244830e+003;4.053419e-002
2.246758e+003;4.052710e-002
2.248687e+003;4.041577e-002
2.250615e+003;4.029803e-002
2.252544e+003;4.023677e-002
2.254473e+003;4.021369e-002
2.256401e+003;4.024187e-002
2.258330e+003;4.032734e-002
2.260258e+003;4.028749e-002
2.262187e+003;4.030134e-002
2.264115e+003;4.038868e-002
2.266044e+003;4.053321e-002
2.267972e+003;4.063154e-002
2.269901e+003;4.051062e-002
2.271830e+003;4.033373e-002
2.273758e+003;4.057391e-002
2.275687e+003;4.082209e-002
2.277615e+003;4.065275e-002
2.279544e+003;4.035755e-002
2.281472e+003;4.038900e-002
2.283401e+003;4.055463e-002
2.285329e+003;4.035977e-002
2.287258e+003;4.026062e-002
2.289187e+003;4.039697e-002
2.291115e+003;4.045112e-002
2.293043e+003;4.065734e-002
2.294972e+003;4.075461e-002
2.296901e+003;4.071305e-002
2.298829e+003;4.065515e-002
2.300758e+003;4.060233e-002
2.302686e+003;4.066462e-002
2.304615e+003;4.084586e-002
2.306543e+003;4.079683e-002
2.308472e+003;4.064482e-002
2.310400e+003;4.068248e-002
2.312329e+003;4.068343e-002
2.314258e+003;4.094703e-002
2.316186e+003;4.096181e-002
2.318115e+003;4.048487e-002
2.320043e+003;4.035889e-002
2.321972e+003;4.042417e-002
2.323900e+003;4.031185e-002
2.325829e+003;4.037617e-002
2.327757e+003;4.047476e-002
2.329686e+003;4.032552e-002
2.331615e+003;4.031148e-002
2.333543e+003;4.039868e-002
2.335472e+003;4.029832e-002
2.337400e+003;4.035486e-002
2.339329e+003;4.033046e-002
2.341257e+003;4.027953e-002
2.343186e+003;4.051957e-002
2.345114e+003;4.087618e-002
2.347043e+003;4.118431e-002
2.348971e+003;4.147089e-002
2.350900e+003;4.147114e-002
2.352829e+003;4.117636e-002
2.354757e+003;4.085543e-002
2.356686e+003;4.061189e-002
2.358614e+003;4.064879e-002
2.360543e+003;4.079741e-002
2.362471e+003;4.088801e-002
2.364400e+003;4.091124e-002
2.366328e+003;4.106472e-002
2.368257e+003;4.121239e-002
2.370186e+003;4.146454e-002
2.372114e+003;4.167559e-002
2.374042e+003;4.180158e-002
2.375971e+003;4.195220e-002
2.377900e+003;4.232204e-002
2.379828e+003;4.260302e-002
2.381757e+003;4.253431e-002
2.383685e+003;4.258025e-002
2.385614e+003;4.290228e-002
2.387542e+003;4.312591e-002
2.389471e+003;4.313198e-002
2.391399e+003;4.316349e-002
2.393328e+003;4.322791e-002
2.395257e+003;4.313861e-002
2.397185e+003;4.301121e-002
2.399114e+003;4.315855e-002
2.401042e+003;4.361932e-002
2.402971e+003;4.393970e-002
2.404899e+003;4.393706e-002
2.406828e+003;4.388728e-002
2.408756e+003;4.404347e-002
2.410685e+003;4.408010e-002
2.412614e+003;4.414080e-002
2.414542e+003;4.423739e-002
2.416471e+003;4.430035e-002
2.418399e+003;4.437619e-002
2.420328e+003;4.454427e-002
2.422256e+003;4.471741e-002
2.424185e+003;4.483532e-002
2.426113e+003;4.506176e-002
2.428042e+003;4.539063e-002
2.429970e+003;4.542341e-002
2.431899e+003;4.545026e-002
2.433828e+003;4.560926e-002
2.435756e+003;4.571188e-002
2.437685e+003;4.582019e-002
2.439613e+003;4.603362e-002
2.441542e+003;4.609021e-002
2.443470e+003;4.581309e-002
2.445399e+003;4.572186e-002
2.447327e+003;4.599693e-002
2.449256e+003;4.623393e-002
2.451185e+003;4.638790e-002
2.453113e+003;4.656989e-002
2.455042e+003;4.646006e-002
2.456970e+003;4.653182e-002
2.458899e+003;4.684144e-002
2.460827e+003;4.704086e-002
2.462756e+003;4.711206e-002
2.464684e+003;4.724610e-002
2.466613e+003;4.718722e-002
2.468542e+003;4.734186e-002
2.470470e+003;4.761671e-002
2.472398e+003;4.766844e-002
2.474327e+003;4.760954e-002
2.476256e+003;4.774407e-002
2.478184e+003;4.790494e-002
2.480113e+003;4.787705e-002
2.482041e+003;4.784871e-002
2.483970e+003;4.809034e-002
2.485898e+003;4.848868e-002
2.487827e+003;4.839200e-002
2.489755e+003;4.822032e-002
2.491684e+003;4.831615e-002
2.493613e+003;4.851406e-002
2.495541e+003;4.852092e-002
2.497470e+003;4.846901e-002
2.499398e+003;4.856772e-002
2.501327e+003;4.870484e-002
2.503255e+003;4.875021e-002
2.505184e+003;4.876945e-002
2.507112e+003;4.886014e-002
2.509041e+003;4.892158e-002
2.510969e+003;4.899431e-002
2.512898e+003;4.936271e-002
2.514827e+003;4.962457e-002
2.516755e+003;4.956693e-002
2.518684e+003;4.944568e-002
2.520612e+003;4.946626e-002
2.522541e+003;4.949570e-002
2.524469e+003;4.951263e-002
2.526398e+003;4.977065e-002
2.528326e+003;4.999295e-002
2.530255e+003;4.993477e-002
2.532184e+003;4.993600e-002
2.534112e+003;4.985419e-002
2.536041e+003;4.962684e-002
2.537969e+003;4.980822e-002
2.539898e+003;5.011602e-002
2.541826e+003;5.037455e-002
2.543755e+003;5.048741e-002
2.545683e+003;5.030601e-002
2.547612e+003;5.040963e-002
2.549541e+003;5.075447e-002
2.551469e+003;5.081916e-002
2.553397e+003;5.068688e-002
2.555326e+003;5.066893e-002
2.557255e+003;5.085961e-002
2.559183e+003;5.100775e-002
2.561112e+003;5.096076e-002
2.563040e+003;5.089612e-002
2.564969e+003;5.120790e-002
2.566897e+003;5.145868e-002
2.568826e+003;5.151274e-002
2.570754e+003;5.159340e-002
2.572683e+003;5.163736e-002
2.574612e+003;5.177120e-002
2.576540e+003;5.174932e-002
2.578469e+003;5.181032e-002
2.580397e+003;5.209724e-002
2.582326e+003;5.210407e-002
2.584254e+003;5.224800e-002
2.586183e+003;5.235717e-002
2.588111e+003;5.239511e-002
2.590040e+003;5.258936e-002
2.591969e+003;5.257018e-002
2.593897e+003;5.263462e-002
2.595826e+003;5.262085e-002
2.597754e+003;5.266244e-002
2.599683e+003;5.279574e-002
2.601611e+003;5.296205e-002
2.603540e+003;5.291519e-002
2.605468e+003;5.304647e-002
2.607397e+003;5.328098e-002
2.609325e+003;5.319722e-002
2.611254e+003;5.327146e-002
2.613183e+003;5.316790e-002
2.615111e+003;5.300634e-002
2.617040e+003;5.313278e-002
2.618968e+003;5.357749e-002
2.620897e+003;5.369011e-002
2.622825e+003;5.340427e-002
2.624754e+003;5.338853e-002
2.626682e+003;5.344290e-002
2.628611e+003;5.356295e-002
2.630540e+003;5.382980e-002
2.632468e+003;5.379904e-002
2.634396e+003;5.365187e-002
2.636325e+003;5.376900e-002
2.638254e+003;5.382773e-002
2.640182e+003;5.392751e-002
2.642111e+003;5.393017e-002
2.644039e+003;5.397069e-002
2.645968e+003;5.403936e-002
2.647896e+003;5.411903e-002
2.649825e+003;5.413389e-002
2.651753e+003;5.409325e-002
2.653682e+003;5.413877e-002
2.655611e+003;5.414673e-002
2.657539e+003;5.400281e-002
2.659468e+003;5.399208e-002
2.661396e+003;5.416238e-002
2.663325e+003;5.456915e-002
2.665253e+003;5.500240e-002
2.667182e+003;5.484933e-002
2.669110e+003;5.469120e-002
2.671039e+003;5.474952e-002
2.672968e+003;5.469762e-002
2.674896e+003;5.469480e-002
2.676825e+003;5.490880e-002
2.678753e+003;5.507239e-002
2.680682e+003;5.502711e-002
2.682610e+003;5.502763e-002
2.684539e+003;5.533351e-002
2.686467e+003;5.582016e-002
2.688396e+003;5.602405e-002
2.690324e+003;5.579951e-002
2.692253e+003;5.571392e-002
2.694182e+003;5.562608e-002
2.696110e+003;5.565109e-002
2.698039e+003;5.586341e-002
2.699967e+003;5.597109e-002
2.701896e+003;5.606182e-002
2.703824e+003;5.641268e-002
2.705753e+003;5.650853e-002
2.707681e+003;5.640340e-002
2.709610e+003;5.636797e-002
2.711539e+003;5.652336e-002
2.713467e+003;5.679018e-002
2.715396e+003;5.706477e-002
2.717324e+003;5.721601e-002
2.719253e+003;5.714806e-002
2.721181e+003;5.718665e-002
2.723110e+003;5.734255e-002
2.725038e+003;5.764877e-002
2.726967e+003;5.789600e-002
2.728896e+003;5.795132e-002
2.730824e+003;5.805936e-002
2.732752e+003;5.804042e-002
2.734681e+003;5.813443e-002
2.736610e+003;5.832815e-002
2.738538e+003;5.814299e-002
2.740467e+003;5.790263e-002
2.742395e+003;5.817598e-002
2.744324e+003;5.869181e-002
2.746252e+003;5.883311e-002
2.748181e+003;5.877135e-002
2.750109e+003;5.902499e-002
2.752038e+003;5.939025e-002
2.753967e+003;5.965436e-002
2.755895e+003;5.982637e-002
2.757824e+003;5.976845e-002
2.759752e+003;5.966706e-002
2.761681e+003;5.977735e-002
2.763609e+003;5.999620e-002
2.765538e+003;6.021595e-002
2.767466e+003;6.037009e-002
2.769395e+003;6.026486e-002
2.771323e+003;6.015581e-002
2.773252e+003;6.015889e-002
2.775181e+003;6.045089e-002
2.777109e+003;6.076412e-002
2.779038e+003;6.081130e-002
2.780966e+003;6.087248e-002
2.782895e+003;6.091819e-002
2.784823e+003;6.103806e-002
2.786752e+003;6.124587e-002
2.788680e+003;6.136663e-002
2.790609e+003;6.163122e-002
2.792538e+003;6.216707e-002
2.794466e+003;6.243207e-002
2.796395e+003;6.245992e-002
2.798323e+003;6.234172e-002
2.800252e+003;6.232573e-002
2.802180e+003;6.256878e-002
2.804109e+003;6.295440e-002
2.806037e+003;6.330623e-002
2.807966e+003;6.344978e-002
2.809895e+003;6.346750e-002
2.811823e+003;6.354447e-002
2.813751e+003;6.362203e-002
2.815680e+003;6.379128e-002
2.817609e+003;6.415062e-002
2.819537e+003;6.460255e-002
2.821466e+003;6.487461e-002
2.823394e+003;6.497673e-002
2.825323e+003;6.510863e-002
2.827251e+003;6.519601e-002
2.829180e+003;6.532744e-002
2.831108e+003;6.565634e-002
2.833037e+003;6.606600e-002
2.834966e+003;6.655012e-002
2.836894e+003;6.728516e-002
2.838823e+003;6.771022e-002
2.840751e+003;6.792086e-002
2.842680e+003;6.832933e-002
2.844608e+003;6.922524e-002
2.846537e+003;7.032691e-002
2.848465e+003;7.098647e-002
2.850394e+003;7.144228e-002
2.852323e+003;7.200849e-002
2.854251e+003;7.244016e-002
2.856180e+003;7.268237e-002
2.858108e+003;7.337890e-002
2.860037e+003;7.386740e-002
2.861965e+003;7.430387e-002
2.863894e+003;7.541398e-002
2.865822e+003;7.648540e-002
2.867751e+003;7.749642e-002
2.869679e+003;7.835019e-002
2.871608e+003;7.847470e-002
2.873536e+003;7.846645e-002
2.875465e+003;7.862152e-002
2.877394e+003;7.846593e-002
2.879322e+003;7.835504e-002
2.881251e+003;7.814162e-002
2.883179e+003;7.779837e-002
2.885108e+003;7.752506e-002
2.887036e+003;7.758118e-002
2.888965e+003;7.785116e-002
2.890893e+003;7.799758e-002
2.892822e+003;7.816590e-002
2.894750e+003;7.822119e-002
2.896679e+003;7.854771e-002
2.898608e+003;7.910390e-002
2.900536e+003;7.934305e-002
2.902465e+003;7.945257e-002
2.904393e+003;7.955431e-002
2.906322e+003;8.008438e-002
2.908250e+003;8.119050e-002
2.910179e+003;8.204728e-002
2.912107e+003;8.249811e-002
2.914036e+003;8.308005e-002
2.915965e+003;8.392909e-002
2.917893e+003;8.488895e-002
2.919822e+003;8.573895e-002
2.921750e+003;8.634631e-002
2.923679e+003;8.712412e-002
2.925607e+003;8.778688e-002
2.927536e+003;8.834152e-002
2.929464e+003;8.865274e-002
2.931393e+003;8.886174e-002
2.933322e+003;8.872321e-002
2.935250e+003;8.845240e-002
2.937178e+003;8.870301e-002
2.939107e+003;8.877528e-002
2.941036e+003;8.820153e-002
2.942964e+003;8.773919e-002
2.944893e+003;8.749988e-002
2.946821e+003;8.744747e-002
2.948750e+003;8.742940e-002
2.950678e+003;8.718167e-002
2.952607e+003;8.711607e-002
2.954535e+003;8.704913e-002
2.956464e+003;8.731060e-002
2.958393e+003;8.772674e-002
2.960321e+003;8.773400e-002
2.962250e+003;8.731963e-002
2.964178e+003;8.679928e-002
2.966107e+003;8.648090e-002
2.968035e+003;8.587480e-002
2.969964e+003;8.494995e-002
2.971892e+003;8.409815e-002
2.973821e+003;8.376736e-002
2.975750e+003;8.316644e-002
2.977678e+003;8.220349e-002
2.979607e+003;8.148155e-002
2.981535e+003;8.054977e-002
2.983464e+003;7.958603e-002
2.985392e+003;7.848474e-002
2.987321e+003;7.741871e-002
2.989249e+003;7.687258e-002
2.991178e+003;7.629459e-002
2.993106e+003;7.577270e-002
2.995035e+003;7.533865e-002
2.996964e+003;7.479726e-002
2.998892e+003;7.451870e-002
3.000821e+003;7.466667e-002
3.002749e+003;7.469914e-002
3.004678e+003;7.447819e-002
3.006606e+003;7.426290e-002
3.008535e+003;7.422835e-002
3.010463e+003;7.441664e-002
3.012392e+003;7.460274e-002
3.014321e+003;7.471154e-002
3.016249e+003;7.439005e-002
3.018177e+003;7.432427e-002
3.020106e+003;7.490107e-002
3.022035e+003;7.528786e-002
3.023963e+003;7.562365e-002
3.025892e+003;7.616557e-002
3.027820e+003;7.624862e-002
3.029749e+003;7.608191e-002
3.031677e+003;7.632441e-002
3.033606e+003;7.673702e-002
3.035534e+003;7.692274e-002
3.037463e+003;7.738082e-002
3.039392e+003;7.786337e-002
3.041320e+003;7.801502e-002
3.043249e+003;7.814083e-002
3.045177e+003;7.818759e-002
3.047106e+003;7.852925e-002
3.049034e+003;7.889318e-002
3.050963e+003;7.935307e-002
3.052891e+003;8.002613e-002
3.054820e+003;8.003072e-002
3.056749e+003;8.015472e-002
3.058677e+003;8.003749e-002
3.060606e+003;7.987446e-002
3.062534e+003;8.023685e-002
3.064463e+003;8.025120e-002
3.066391e+003;8.017842e-002
3.068320e+003;8.013144e-002
3.070248e+003;7.954269e-002
3.072177e+003;7.950230e-002
3.074105e+003;7.975911e-002
3.076034e+003;7.961441e-002
3.077963e+003;7.918668e-002
3.079891e+003;7.911957e-002
3.081820e+003;7.928251e-002
3.083748e+003;7.908168e-002
3.085677e+003;7.911452e-002
3.087605e+003;7.907747e-002
3.089534e+003;7.877566e-002
3.091462e+003;7.851325e-002
3.093391e+003;7.827269e-002
3.095320e+003;7.798850e-002
3.097248e+003;7.781962e-002
3.099177e+003;7.769930e-002
3.101105e+003;7.764746e-002
3.103034e+003;7.794742e-002
3.104962e+003;7.817974e-002
3.106891e+003;7.769482e-002
3.108819e+003;7.761704e-002
3.110748e+003;7.792450e-002
3.112677e+003;7.794730e-002
3.114605e+003;7.786266e-002
3.116533e+003;7.771499e-002
3.118462e+003;7.783971e-002
3.120391e+003;7.800126e-002
3.122319e+003;7.822512e-002
3.124248e+003;7.831079e-002
3.126176e+003;7.815038e-002
3.128105e+003;7.837547e-002
3.130033e+003;7.904702e-002
3.131962e+003;7.935399e-002
3.133890e+003;7.943255e-002
3.135819e+003;7.995471e-002
3.137748e+003;8.050502e-002
3.139676e+003;8.053920e-002
3.141605e+003;8.081761e-002
3.143533e+003;8.139390e-002
3.145462e+003;8.143843e-002
3.147390e+003;8.162408e-002
3.149319e+003;8.232743e-002
3.151247e+003;8.295912e-002
3.153176e+003;8.306593e-002
3.155104e+003;8.339804e-002
3.157033e+003;8.392354e-002
3.158962e+003;8.443028e-002
3.160890e+003;8.497562e-002
3.162819e+003;8.522713e-002
3.164747e+003;8.561040e-002
3.166676e+003;8.661480e-002
3.168604e+003;8.741193e-002
3.170533e+003;8.783381e-002
3.172461e+003;8.786427e-002
3.174390e+003;8.835431e-002
3.176319e+003;8.919851e-002
3.178247e+003;8.973215e-002
3.180176e+003;9.031902e-002
3.182104e+003;9.084206e-002
3.184033e+003;9.071787e-002
3.185961e+003;9.047067e-002
3.187890e+003;9.097454e-002
3.189818e+003;9.176290e-002
3.191747e+003;9.262110e-002
3.193676e+003;9.332053e-002
3.195604e+003;9.344558e-002
3.197532e+003;9.327374e-002
3.199461e+003;9.353500e-002
3.201390e+003;9.421169e-002
3.203318e+003;9.503379e-002
3.205247e+003;9.562858e-002
3.207175e+003;9.558494e-002
3.209104e+003;9.554777e-002
3.211032e+003;9.597916e-002
3.212961e+003;9.651469e-002
3.214889e+003;9.659150e-002
3.216818e+003;9.679567e-002
3.218747e+003;9.726892e-002
3.220675e+003;9.736813e-002
3.222604e+003;9.753694e-002
3.224532e+003;9.800079e-002
3.226461e+003;9.842497e-002
3.228389e+003;9.872786e-002
3.230318e+003;9.914622e-002
3.232246e+003;9.930016e-002
3.234175e+003;9.968485e-002
3.236104e+003;1.000528e-001
3.238032e+003;1.003310e-001
3.239961e+003;1.008232e-001
3.241889e+003;1.011485e-001
3.243818e+003;1.020061e-001
3.245746e+003;1.026584e-001
3.247675e+003;1.028547e-001
3.249603e+003;1.035328e-001
3.251532e+003;1.042837e-001
3.253460e+003;1.046111e-001
3.255389e+003;1.050238e-001
3.257318e+003;1.058618e-001
3.259246e+003;1.067530e-001
3.261175e+003;1.072323e-001
3.263103e+003;1.073315e-001
3.265032e+003;1.073478e-001
3.266960e+003;1.078778e-001
3.268889e+003;1.085012e-001
3.270817e+003;1.089168e-001
3.272746e+003;1.090314e-001
3.274675e+003;1.091241e-001
3.276603e+003;1.093479e-001
3.278531e+003;1.099263e-001
3.280460e+003;1.104494e-001
3.282389e+003;1.103881e-001
3.284317e+003;1.104754e-001
3.286246e+003;1.104534e-001
3.288174e+003;1.099027e-001
3.290103e+003;1.095692e-001
3.292031e+003;1.093562e-001
3.293960e+003;1.089871e-001
3.295888e+003;1.088162e-001
3.297817e+003;1.087901e-001
3.299746e+003;1.088761e-001
3.301674e+003;1.087072e-001
3.303603e+003;1.082783e-001
3.305531e+003;1.073892e-001
3.307460e+003;1.066182e-001
3.309388e+003;1.065242e-001
3.311317e+003;1.059867e-001
3.313245e+003;1.057311e-001
3.315174e+003;1.061056e-001
3.317103e+003;1.057930e-001
3.319031e+003;1.046225e-001
3.320960e+003;1.036536e-001
3.322888e+003;1.028747e-001
3.324817e+003;1.025956e-001
3.326745e+003;1.023756e-001
3.328674e+003;1.015061e-001
3.330602e+003;1.008592e-001
3.332531e+003;1.006122e-001
3.334459e+003;1.003401e-001
3.336388e+003;9.989402e-002
3.338317e+003;9.939666e-002
3.340245e+003;9.863287e-002
3.342174e+003;9.786972e-002
3.344102e+003;9.746731e-002
3.346031e+003;9.689075e-002
3.347959e+003;9.627683e-002
3.349888e+003;9.591436e-002
3.351816e+003;9.539871e-002
3.353745e+003;9.452590e-002
3.355674e+003;9.326348e-002
3.357602e+003;9.180928e-002
3.359531e+003;9.096775e-002
3.361459e+003;9.066480e-002
3.363388e+003;9.013814e-002
3.365316e+003;8.924730e-002
3.367245e+003;8.869297e-002
3.369173e+003;8.816406e-002
3.371102e+003;8.744496e-002
3.373031e+003;8.684780e-002
3.374959e+003;8.614711e-002
3.376887e+003;8.526148e-002
3.378816e+003;8.445197e-002
3.380745e+003;8.330739e-002
3.382673e+003;8.224385e-002
3.384602e+003;8.208960e-002
3.386530e+003;8.206154e-002
3.388459e+003;8.185809e-002
3.390387e+003;8.113717e-002
3.392316e+003;8.032810e-002
3.394244e+003;7.949152e-002
3.396173e+003;7.865754e-002
3.398102e+003;7.793279e-002
3.400030e+003;7.753460e-002
3.401959e+003;7.753452e-002
3.403887e+003;7.700628e-002
3.405816e+003;7.623819e-002
3.407744e+003;7.557676e-002
3.409673e+003;7.499304e-002
3.411601e+003;7.439485e-002
3.413530e+003;7.362226e-002
3.415458e+003;7.260771e-002
3.417387e+003;7.222780e-002
3.419316e+003;7.174478e-002
3.421244e+003;7.065097e-002
3.423173e+003;7.037690e-002
3.425101e+003;6.987979e-002
3.427030e+003;6.881955e-002
3.428958e+003;6.798858e-002
3.430887e+003;6.724589e-002
3.432815e+003;6.681680e-002
3.434744e+003;6.648211e-002
3.436673e+003;6.575148e-002
3.438601e+003;6.499112e-002
3.440530e+003;6.433825e-002
3.442458e+003;6.375942e-002
3.444387e+003;6.299397e-002
3.446315e+003;6.257958e-002
3.448244e+003;6.210529e-002
3.450172e+003;6.149400e-002
3.452101e+003;6.127249e-002
3.454030e+003;6.104870e-002
3.455958e+003;6.045904e-002
3.457886e+003;5.994922e-002
3.459815e+003;5.972975e-002
3.461744e+003;5.968421e-002
3.463672e+003;5.934539e-002
3.465601e+003;5.850949e-002
3.467529e+003;5.814219e-002
3.469458e+003;5.806765e-002
3.471386e+003;5.773884e-002
3.473315e+003;5.727835e-002
3.475243e+003;5.706035e-002
3.477172e+003;5.697726e-002
3.479101e+003;5.644174e-002
3.481029e+003;5.573784e-002
3.482958e+003;5.492749e-002
3.484886e+003;5.410105e-002
3.486815e+003;5.389566e-002
3.488743e+003;5.388321e-002
3.490672e+003;5.388366e-002
3.492600e+003;5.339779e-002
3.494529e+003;5.275111e-002
3.496458e+003;5.246888e-002
3.498386e+003;5.220936e-002
3.500315e+003;5.178945e-002
3.502243e+003;5.087764e-002
3.504172e+003;5.045478e-002
3.506100e+003;5.056517e-002
3.508029e+003;5.011130e-002
3.509957e+003;4.924074e-002
3.511886e+003;4.894599e-002
3.513814e+003;4.931594e-002
3.515743e+003;4.932596e-002
3.517672e+003;4.898823e-002
3.519600e+003;4.827897e-002
3.521529e+003;4.743987e-002
3.523457e+003;4.686395e-002
3.525386e+003;4.694299e-002
3.527314e+003;4.722682e-002
3.529243e+003;4.677254e-002
3.531171e+003;4.591122e-002
3.533100e+003;4.558184e-002
3.535029e+003;4.575613e-002
3.536957e+003;4.532450e-002
3.538885e+003;4.455624e-002
3.540814e+003;4.430456e-002
3.542743e+003;4.428930e-002
3.544671e+003;4.423709e-002
3.546600e+003;4.436009e-002
3.548528e+003;4.384534e-002
3.550457e+003;4.313162e-002
3.552385e+003;4.331324e-002
3.554314e+003;4.311076e-002
3.556242e+003;4.258076e-002
3.558171e+003;4.209283e-002
3.560100e+003;4.151077e-002
3.562028e+003;4.101956e-002
3.563957e+003;4.048127e-002
3.565885e+003;3.973111e-002
3.567814e+003;3.984302e-002
3.569742e+003;3.990589e-002
3.571671e+003;3.945743e-002
3.573599e+003;3.925751e-002
3.575528e+003;3.904096e-002
3.577457e+003;3.907232e-002
3.579385e+003;3.879623e-002
3.581314e+003;3.791886e-002
3.583242e+003;3.714976e-002
3.585171e+003;3.700751e-002
3.587099e+003;3.715821e-002
3.589028e+003;3.686317e-002
3.590956e+003;3.655654e-002
3.592885e+003;3.639751e-002
3.594813e+003;3.598112e-002
3.596742e+003;3.548725e-002
3.598671e+003;3.515203e-002
3.600599e+003;3.500561e-002
3.602528e+003;3.499714e-002
3.604456e+003;3.475905e-002
3.606385e+003;3.424383e-002
3.608313e+003;3.338891e-002
3.610242e+003;3.296056e-002
3.612170e+003;3.298233e-002
3.614099e+003;3.309013e-002
3.616028e+003;3.281653e-002
3.617956e+003;3.243662e-002
3.619885e+003;3.224986e-002
3.621813e+003;3.173244e-002
3.623742e+003;3.081233e-002
3.625670e+003;2.994479e-002
3.627599e+003;2.927908e-002
3.629527e+003;2.917042e-002
3.631456e+003;2.955550e-002
3.633385e+003;2.944698e-002
3.635313e+003;2.919268e-002
3.637241e+003;2.889988e-002
3.639170e+003;2.854086e-002
3.641099e+003;2.821792e-002
3.643027e+003;2.747910e-002
3.644956e+003;2.656330e-002
3.646884e+003;2.584255e-002
3.648813e+003;2.533203e-002
3.650741e+003;2.561312e-002
3.652670e+003;2.535019e-002
3.654598e+003;2.402930e-002
3.656527e+003;2.345883e-002
3.658456e+003;2.308328e-002
3.660384e+003;2.222447e-002
3.662313e+003;2.213363e-002
3.664241e+003;2.206219e-002
3.666170e+003;2.131250e-002
3.668098e+003;2.078541e-002
3.670027e+003;2.018930e-002
3.671955e+003;1.996752e-002
3.673884e+003;1.928246e-002
3.675813e+003;1.810808e-002
3.677741e+003;1.789986e-002
3.679669e+003;1.843198e-002
3.681598e+003;1.871639e-002
3.683527e+003;1.776232e-002
3.685455e+003;1.674590e-002
3.687384e+003;1.564145e-002
3.689312e+003;1.485378e-002
3.691241e+003;1.507279e-002
3.693169e+003;1.546304e-002
3.695098e+003;1.571012e-002
3.697026e+003;1.573537e-002
3.698955e+003;1.537755e-002
3.700884e+003;1.509375e-002
3.702812e+003;1.544865e-002
3.704741e+003;1.546784e-002
3.706669e+003;1.498656e-002
3.708598e+003;1.453558e-002
3.710526e+003;1.376068e-002
3.712455e+003;1.343422e-002
3.714383e+003;1.348180e-002
3.716312e+003;1.349937e-002
3.718240e+003;1.397713e-002
3.720169e+003;1.392703e-002
3.722098e+003;1.357912e-002
3.724026e+003;1.381705e-002
3.725955e+003;1.382410e-002
3.727883e+003;1.368135e-002
3.729812e+003;1.351741e-002
3.731740e+003;1.327080e-002
3.733669e+003;1.311624e-002
3.735597e+003;1.309315e-002
3.737526e+003;1.328303e-002
3.739455e+003;1.365666e-002
3.741383e+003;1.340278e-002
3.743312e+003;1.238993e-002
3.745240e+003;1.270097e-002
3.747169e+003;1.281483e-002
3.749097e+003;1.185592e-002
3.751026e+003;1.186845e-002
3.752954e+003;1.267569e-002
3.754883e+003;1.329047e-002
3.756812e+003;1.308421e-002
3.758740e+003;1.295774e-002
3.760668e+003;1.309493e-002
3.762597e+003;1.347219e-002
3.764526e+003;1.344578e-002
3.766454e+003;1.348641e-002
3.768383e+003;1.329310e-002
3.770311e+003;1.323821e-002
3.772240e+003;1.348098e-002
3.774168e+003;1.312423e-002
3.776097e+003;1.261098e-002
3.778025e+003;1.289371e-002
3.779954e+003;1.338214e-002
3.781883e+003;1.328610e-002
3.783811e+003;1.290750e-002
3.785740e+003;1.308411e-002
3.787668e+003;1.366818e-002
3.789597e+003;1.368504e-002
3.791525e+003;1.329239e-002
3.793454e+003;1.381243e-002
3.795382e+003;1.406312e-002
3.797311e+003;1.350853e-002
3.799240e+003;1.305641e-002
3.801168e+003;1.285780e-002
3.803097e+003;1.296409e-002
3.805025e+003;1.279170e-002
3.806954e+003;1.257694e-002
3.808882e+003;1.301339e-002
3.810811e+003;1.323079e-002
3.812739e+003;1.265621e-002
3.814668e+003;1.225399e-002
3.816596e+003;1.285708e-002
3.818525e+003;1.319237e-002
3.820454e+003;1.287511e-002
3.822382e+003;1.346403e-002
3.824311e+003;1.370087e-002
3.826239e+003;1.311030e-002
3.828168e+003;1.316135e-002
3.830096e+003;1.332108e-002
3.832025e+003;1.322130e-002
3.833953e+003;1.323732e-002
3.835882e+003;1.314875e-002
3.837811e+003;1.255200e-002
3.839739e+003;1.263912e-002
3.841667e+003;1.345244e-002
3.843596e+003;1.380645e-002
3.845525e+003;1.379615e-002
3.847453e+003;1.388027e-002
3.849382e+003;1.304648e-002
3.851310e+003;1.213560e-002
3.853239e+003;1.210031e-002
3.855167e+003;1.296495e-002
3.857096e+003;1.420781e-002
3.859024e+003;1.430649e-002
3.860953e+003;1.343713e-002
3.862882e+003;1.332536e-002
3.864810e+003;1.353437e-002
3.866739e+003;1.352517e-002
3.868667e+003;1.291879e-002
3.870596e+003;1.323694e-002
3.872524e+003;1.362640e-002
3.874453e+003;1.362346e-002
3.876381e+003;1.477212e-002
3.878310e+003;1.536221e-002
3.880239e+003;1.513626e-002
3.882167e+003;1.475110e-002
3.884096e+003;1.412566e-002
3.886024e+003;1.371373e-002
3.887953e+003;1.409779e-002
3.889881e+003;1.382492e-002
3.891810e+003;1.384250e-002
3.893738e+003;1.424952e-002
3.895667e+003;1.476684e-002
3.897595e+003;1.443380e-002
3.899524e+003;1.346621e-002
3.901453e+003;1.357112e-002
3.903381e+003;1.416437e-002
3.905310e+003;1.445668e-002
3.907238e+003;1.439458e-002
3.909167e+003;1.444178e-002
3.911095e+003;1.444452e-002
3.913024e+003;1.434957e-002
3.914952e+003;1.441893e-002
3.916881e+003;1.416502e-002
3.918810e+003;1.434183e-002
3.920738e+003;1.486122e-002
3.922667e+003;1.447744e-002
3.924595e+003;1.382064e-002
3.926524e+003;1.400950e-002
3.928452e+003;1.421531e-002
3.930381e+003;1.441458e-002
3.932309e+003;1.466483e-002
3.934238e+003;1.502384e-002
3.936167e+003;1.507873e-002
3.938095e+003;1.467275e-002
3.940023e+003;1.405104e-002
3.941952e+003;1.381082e-002
3.943881e+003;1.443150e-002
3.945809e+003;1.444304e-002
3.947738e+003;1.468166e-002
3.949666e+003;1.506305e-002
3.951595e+003;1.500522e-002
3.953523e+003;1.490302e-002
3.955452e+003;1.523192e-002
3.957380e+003;1.573911e-002
3.959309e+003;1.546094e-002
3.961238e+003;1.477383e-002
3.963166e+003;1.460760e-002
3.965095e+003;1.455319e-002
3.967023e+003;1.443866e-002
3.968952e+003;1.492099e-002
3.970880e+003;1.513128e-002
3.972809e+003;1.455493e-002
3.974737e+003;1.431060e-002
3.976666e+003;1.425780e-002
3.978594e+003;1.415342e-002
3.980523e+003;1.422028e-002
3.982452e+003;1.462467e-002
3.984380e+003;1.468793e-002
3.986309e+003;1.454918e-002
3.988237e+003;1.451197e-002
3.990166e+003;1.444637e-002
3.992094e+003;1.435403e-002
3.994023e+003;1.414975e-002
3.995951e+003;1.416369e-002
3.997880e+003;1.425790e-002
3.999809e+003;1.409779e-002
4.001737e+003;0.000000e+000
