3.992094e+002;0.000000e+000
4.011380e+002;0.000000e+000
4.030665e+002;0.000000e+000
4.049951e+002;0.000000e+000
4.069236e+002;0.000000e+000
4.088522e+002;0.000000e+000
4.107807e+002;0.000000e+000
4.127093e+002;0.000000e+000
4.146378e+002;0.000000e+000
4.165664e+002;0.000000e+000
4.184949e+002;0.000000e+000
4.204235e+002;0.000000e+000
4.223520e+002;0.000000e+000
4.242806e+002;0.000000e+000
4.262091e+002;0.000000e+000
4.281377e+002;0.000000e+000
4.300662e+002;0.000000e+000
4.319948e+002;0.000000e+000
4.339233e+002;0.000000e+000
4.358519e+002;0.000000e+000
4.377804e+002;0.000000e+000
4.397090e+002;0.000000e+000
4.416375e+002;0.000000e+000
4.435660e+002;0.000000e+000
4.454946e+002;0.000000e+000
4.474232e+002;0.000000e+000
4.493517e+002;0.000000e+000
4.512802e+002;0.000000e+000
4.532088e+002;0.000000e+000
4.551373e+002;0.000000e+000
4.570659e+002;0.000000e+000
4.589944e+002;0.000000e+000
4.609230e+002;0.000000e+000
4.628515e+002;0.000000e+000
4.647801e+002;0.000000e+000
4.667086e+002;0.000000e+000
4.686372e+002;0.000000e+000
4.705657e+002;0.000000e+000
4.724943e+002;0.000000e+000
4.744228e+002;0.000000e+000
4.763513e+002;0.000000e+000
4.782799e+002;0.000000e+000
4.802085e+002;0.000000e+000
4.821370e+002;0.000000e+000
4.840656e+002;0.000000e+000
4.859941e+002;0.000000e+000
4.879226e+002;0.000000e+000
4.898512e+002;0.000000e+000
4.917798e+002;0.000000e+000
4.937083e+002;0.000000e+000
4.956368e+002;0.000000e+000
4.975654e+002;0.000000e+000
4.994939e+002;0.000000e+000
5.014225e+002;0.000000e+000
5.033510e+002;0.000000e+000
5.052796e+002;0.000000e+000
5.072081e+002;0.000000e+000
5.091367e+002;0.000000e+000
5.110652e+002;0.000000e+000
5.129938e+002;0.000000e+000
5.149223e+002;0.000000e+000
5.168509e+002;0.000000e+000
5.187794e+002;0.000000e+000
5.207079e+002;0.000000e+000
5.226365e+002;0.000000e+000
5.245651e+002;0.000000e+000
5.264936e+002;0.000000e+000
5.284222e+002;0.000000e+000
5.303507e+002;0.000000e+000
5.322792e+002;0.000000e+000
5.342078e+002;0.000000e+000
5.361364e+002;0.000000e+000
5.380649e+002;0.000000e+000
5.399935e+002;0.000000e+000
5.419220e+002;0.000000e+000
5.438505e+002;0.000000e+000
5.457791e+002;0.000000e+000
5.477076e+002;0.000000e+000
5.496362e+002;0.000000e+000
5.515648e+002;0.000000e+000
5.534933e+002;0.000000e+000
5.554218e+002;0.000000e+000
5.573504e+002;0.000000e+000
5.592789e+002;0.000000e+000
5.612075e+002;0.000000e+000
5.631360e+002;0.000000e+000
5.650646e+002;0.000000e+000
5.669931e+002;0.000000e+000
5.689217e+002;0.000000e+000
5.708502e+002;0.000000e+000
5.727787e+002;0.000000e+000
5.747073e+002;0.000000e+000
5.766359e+002;0.000000e+000
5.785644e+002;0.000000e+000
5.804930e+002;0.000000e+000
5.824215e+002;0.000000e+000
5.843500e+002;0.000000e+000
5.862786e+002;0.000000e+000
5.882072e+002;0.000000e+000
5.901357e+002;0.000000e+000
5.920643e+002;0.000000e+000
5.939928e+002;0.000000e+000
5.959213e+002;0.000000e+000
5.978499e+002;0.000000e+000
5.997784e+002;1.157142e-001
6.017070e+002;1.232573e-001
6.036355e+002;1.285281e-001
6.055641e+002;1.281154e-001
6.074926e+002;1.262745e-001
6.094211e+002;1.303068e-001
6.113497e+002;1.292512e-001
6.132783e+002;1.276112e-001
6.152068e+002;1.321303e-001
6.171354e+002;1.352835e-001
6.190639e+002;1.344370e-001
6.209924e+002;1.321398e-001
6.229210e+002;1.280273e-001
6.248495e+002;1.318731e-001
6.267781e+002;1.368186e-001
6.287067e+002;1.357061e-001
6.306352e+002;1.346777e-001
6.325637e+002;1.368127e-001
6.344923e+002;1.384561e-001
6.364208e+002;1.374555e-001
6.383494e+002;1.379319e-001
6.402780e+002;1.402723e-001
6.422065e+002;1.410157e-001
6.441350e+002;1.412679e-001
6.460636e+002;1.429564e-001
6.479921e+002;1.438976e-001
6.499207e+002;1.428206e-001
6.518492e+002;1.408509e-001
6.537778e+002;1.396714e-001
6.557063e+002;1.434617e-001
6.576349e+002;1.457781e-001
6.595634e+002;1.452432e-001
6.614919e+002;1.458641e-001
6.634205e+002;1.498630e-001
6.653491e+002;1.530766e-001
6.672776e+002;1.510654e-001
6.692062e+002;1.476388e-001
6.711347e+002;1.473664e-001
6.730632e+002;1.467887e-001
6.749918e+002;1.463605e-001
6.769203e+002;1.458554e-001
6.788489e+002;1.467502e-001
6.807775e+002;1.470205e-001
6.827060e+002;1.464024e-001
6.846345e+002;1.474309e-001
6.865631e+002;1.491540e-001
6.884916e+002;1.491419e-001
6.904202e+002;1.496196e-001
6.923488e+002;1.502330e-001
6.942773e+002;1.500303e-001
6.962058e+002;1.505148e-001
6.981344e+002;1.515360e-001
7.000629e+002;1.510493e-001
7.019915e+002;1.501040e-001
7.039200e+002;1.489622e-001
7.058486e+002;1.471015e-001
7.077771e+002;1.457074e-001
7.097057e+002;1.459912e-001
7.116342e+002;1.456382e-001
7.135627e+002;1.435357e-001
7.154913e+002;1.419955e-001
7.174199e+002;1.409131e-001
7.193484e+002;1.389801e-001
7.212770e+002;1.385392e-001
7.232055e+002;1.380688e-001
7.251340e+002;1.372736e-001
7.270626e+002;1.367874e-001
7.289911e+002;1.370088e-001
7.309197e+002;1.374367e-001
7.328483e+002;1.374079e-001
7.347768e+002;1.373929e-001
7.367053e+002;1.384462e-001
7.386339e+002;1.394747e-001
7.405624e+002;1.399819e-001
7.424910e+002;1.404191e-001
7.444196e+002;1.399214e-001
7.463481e+002;1.378670e-001
7.482766e+002;1.369000e-001
7.502052e+002;1.357463e-001
7.521337e+002;1.342013e-001
7.540623e+002;1.327018e-001
7.559908e+002;1.312537e-001
7.579194e+002;1.300089e-001
7.598479e+002;1.294542e-001
7.617765e+002;1.275020e-001
7.637050e+002;1.248423e-001
7.656335e+002;1.239868e-001
7.675621e+002;1.238571e-001
7.694907e+002;1.223673e-001
7.714192e+002;1.213596e-001
7.733478e+002;1.213069e-001
7.752763e+002;1.199026e-001
7.772048e+002;1.178050e-001
7.791334e+002;1.171348e-001
7.810620e+002;1.170824e-001
7.829905e+002;1.164626e-001
7.849191e+002;1.152085e-001
7.868476e+002;1.141947e-001
7.887761e+002;1.136727e-001
7.907047e+002;1.133845e-001
7.926332e+002;1.125409e-001
7.945618e+002;1.111691e-001
7.964903e+002;1.102989e-001
7.984189e+002;1.102676e-001
8.003474e+002;1.095854e-001
8.022759e+002;1.086152e-001
8.042045e+002;1.088745e-001
8.061331e+002;1.086338e-001
8.080616e+002;1.074838e-001
8.099902e+002;1.072194e-001
8.119187e+002;1.075366e-001
8.138472e+002;1.077768e-001
8.157758e+002;1.082437e-001
8.177043e+002;1.086171e-001
8.196329e+002;1.086576e-001
8.215615e+002;1.087983e-001
8.234900e+002;1.087226e-001
8.254185e+002;1.087005e-001
8.273471e+002;1.090298e-001
8.292756e+002;1.091569e-001
8.312042e+002;1.083314e-001
8.331328e+002;1.060725e-001
8.350613e+002;1.037976e-001
8.369898e+002;1.023125e-001
8.389184e+002;1.009145e-001
8.408469e+002;1.000629e-001
8.427755e+002;9.858207e-002
8.447040e+002;9.656452e-002
8.466326e+002;9.563243e-002
8.485611e+002;9.518658e-002
8.504897e+002;9.437052e-002
8.524182e+002;9.413674e-002
8.543467e+002;9.372355e-002
8.562753e+002;9.304142e-002
8.582039e+002;9.268734e-002
8.601324e+002;9.220672e-002
8.620610e+002;9.179098e-002
8.639895e+002;9.146336e-002
8.659180e+002;9.125592e-002
8.678466e+002;9.175865e-002
8.697751e+002;9.208915e-002
8.717037e+002;9.226827e-002
8.736323e+002;9.254278e-002
8.755608e+002;9.269103e-002
8.774893e+002;9.324893e-002
8.794179e+002;9.404120e-002
8.813464e+002;9.454040e-002
8.832750e+002;9.521917e-002
8.852036e+002;9.556317e-002
8.871321e+002;9.524074e-002
8.890606e+002;9.457789e-002
8.909892e+002;9.400290e-002
8.929177e+002;9.354766e-002
8.948463e+002;9.359065e-002
8.967748e+002;9.403885e-002
8.987034e+002;9.437497e-002
9.006319e+002;9.467319e-002
9.025605e+002;9.499470e-002
9.044890e+002;9.519375e-002
9.064175e+002;9.501570e-002
9.083461e+002;9.465407e-002
9.102747e+002;9.468423e-002
9.122032e+002;9.529471e-002
9.141318e+002;9.602433e-002
9.160603e+002;9.648929e-002
9.179888e+002;9.717148e-002
9.199174e+002;9.781942e-002
9.218459e+002;9.810365e-002
9.237745e+002;9.836289e-002
9.257031e+002;9.875540e-002
9.276316e+002;9.925068e-002
9.295601e+002;9.972024e-002
9.314887e+002;9.991696e-002
9.334172e+002;9.988234e-002
9.353458e+002;9.991925e-002
9.372744e+002;1.002143e-001
9.392029e+002;1.005028e-001
9.411314e+002;1.005601e-001
9.430600e+002;1.004622e-001
9.449885e+002;1.005931e-001
9.469171e+002;1.006282e-001
9.488456e+002;1.005007e-001
9.507742e+002;1.007134e-001
9.527027e+002;1.012956e-001
9.546313e+002;1.018427e-001
9.565598e+002;1.021748e-001
9.584883e+002;1.028115e-001
9.604169e+002;1.033834e-001
9.623455e+002;1.040900e-001
9.642740e+002;1.052170e-001
9.662026e+002;1.059762e-001
9.681311e+002;1.067182e-001
9.700596e+002;1.073502e-001
9.719882e+002;1.076681e-001
9.739167e+002;1.081613e-001
9.758453e+002;1.087066e-001
9.777739e+002;1.092626e-001
9.797024e+002;1.099831e-001
9.816309e+002;1.104615e-001
9.835595e+002;1.108008e-001
9.854880e+002;1.119668e-001
9.874166e+002;1.140139e-001
9.893452e+002;1.160241e-001
9.912737e+002;1.175553e-001
9.932022e+002;1.183588e-001
9.951307e+002;1.189383e-001
9.970593e+002;1.194345e-001
9.989879e+002;1.200742e-001
1.000916e+003;1.210217e-001
1.002845e+003;1.226309e-001
1.004773e+003;1.244327e-001
1.006702e+003;1.263583e-001
1.008631e+003;1.283311e-001
1.010559e+003;1.302465e-001
1.012488e+003;1.320827e-001
1.014416e+003;1.337295e-001
1.016345e+003;1.353437e-001
1.018273e+003;1.366939e-001
1.020202e+003;1.382535e-001
1.022130e+003;1.403935e-001
1.024059e+003;1.426749e-001
1.025988e+003;1.456517e-001
1.027916e+003;1.493498e-001
1.029845e+003;1.529767e-001
1.031773e+003;1.562561e-001
1.033702e+003;1.594129e-001
1.035630e+003;1.617607e-001
1.037559e+003;1.636996e-001
1.039487e+003;1.658696e-001
1.041416e+003;1.680472e-001
1.043344e+003;1.698233e-001
1.045273e+003;1.704858e-001
1.047202e+003;1.692282e-001
1.049130e+003;1.663242e-001
1.051059e+003;1.632177e-001
1.052987e+003;1.607019e-001
1.054916e+003;1.590938e-001
1.056844e+003;1.586115e-001
1.058773e+003;1.585508e-001
1.060701e+003;1.587546e-001
1.062630e+003;1.594025e-001
1.064558e+003;1.600313e-001
1.066487e+003;1.607300e-001
1.068416e+003;1.612572e-001
1.070344e+003;1.612881e-001
1.072273e+003;1.613929e-001
1.074201e+003;1.613882e-001
1.076130e+003;1.617446e-001
1.078058e+003;1.618769e-001
1.079987e+003;1.617047e-001
1.081915e+003;1.612204e-001
1.083844e+003;1.607442e-001
1.085773e+003;1.607424e-001
1.087701e+003;1.604311e-001
1.089630e+003;1.602068e-001
1.091558e+003;1.603520e-001
1.093487e+003;1.598884e-001
1.095415e+003;1.591001e-001
1.097344e+003;1.589325e-001
1.099272e+003;1.585044e-001
1.101201e+003;1.580338e-001
1.103129e+003;1.579986e-001
1.105058e+003;1.573002e-001
1.106987e+003;1.556475e-001
1.108915e+003;1.538692e-001
1.110844e+003;1.532150e-001
1.112772e+003;1.529067e-001
1.114701e+003;1.522838e-001
1.116629e+003;1.516554e-001
1.118558e+003;1.516970e-001
1.120486e+003;1.518141e-001
1.122415e+003;1.514716e-001
1.124344e+003;1.514733e-001
1.126272e+003;1.519113e-001
1.128201e+003;1.518387e-001
1.130129e+003;1.514170e-001
1.132058e+003;1.513445e-001
1.133986e+003;1.518657e-001
1.135915e+003;1.530066e-001
1.137843e+003;1.546996e-001
1.139772e+003;1.563539e-001
1.141700e+003;1.578606e-001
1.143629e+003;1.592817e-001
1.145557e+003;1.605465e-001
1.147486e+003;1.623813e-001
1.149415e+003;1.643572e-001
1.151343e+003;1.649684e-001
1.153272e+003;1.650283e-001
1.155200e+003;1.653017e-001
1.157129e+003;1.654715e-001
1.159057e+003;1.654388e-001
1.160986e+003;1.654524e-001
1.162914e+003;1.664609e-001
1.164843e+003;1.681005e-001
1.166771e+003;1.695788e-001
1.168700e+003;1.710320e-001
1.170629e+003;1.722791e-001
1.172557e+003;1.735537e-001
1.174486e+003;1.746682e-001
1.176414e+003;1.753232e-001
1.178343e+003;1.758988e-001
1.180271e+003;1.765816e-001
1.182200e+003;1.775804e-001
1.184128e+003;1.782771e-001
1.186057e+003;1.792286e-001
1.187986e+003;1.806709e-001
1.189914e+003;1.819382e-001
1.191843e+003;1.833143e-001
1.193771e+003;1.846050e-001
1.195700e+003;1.859227e-001
1.197628e+003;1.872658e-001
1.199557e+003;1.883947e-001
1.201485e+003;1.893122e-001
1.203414e+003;1.900988e-001
1.205343e+003;1.911189e-001
1.207271e+003;1.923531e-001
1.209200e+003;1.939348e-001
1.211128e+003;1.951723e-001
1.213057e+003;1.963762e-001
1.214985e+003;1.977957e-001
1.216914e+003;1.989841e-001
1.218842e+003;1.998414e-001
1.220771e+003;2.004812e-001
1.222699e+003;2.011621e-001
1.224628e+003;2.017300e-001
1.226557e+003;2.021342e-001
1.228485e+003;2.025461e-001
1.230414e+003;2.027343e-001
1.232342e+003;2.025089e-001
1.234271e+003;2.020721e-001
1.236199e+003;2.015395e-001
1.238128e+003;2.004942e-001
1.240056e+003;1.991049e-001
1.241985e+003;1.976537e-001
1.243913e+003;1.963430e-001
1.245842e+003;1.946661e-001
1.247771e+003;1.931435e-001
1.249699e+003;1.924303e-001
1.251628e+003;1.917877e-001
1.253556e+003;1.907730e-001
1.255485e+003;1.894681e-001
1.257413e+003;1.882010e-001
1.259342e+003;1.866044e-001
1.261270e+003;1.843039e-001
1.263199e+003;1.817299e-001
1.265127e+003;1.797518e-001
1.267056e+003;1.783902e-001
1.268985e+003;1.775017e-001
1.270913e+003;1.768212e-001
1.272842e+003;1.763340e-001
1.274770e+003;1.760866e-001
1.276699e+003;1.758403e-001
1.278627e+003;1.754301e-001
1.280556e+003;1.747149e-001
1.282484e+003;1.738139e-001
1.284413e+003;1.728212e-001
1.286342e+003;1.720929e-001
1.288270e+003;1.711811e-001
1.290199e+003;1.700676e-001
1.292127e+003;1.691099e-001
1.294056e+003;1.682515e-001
1.295984e+003;1.673695e-001
1.297913e+003;1.665502e-001
1.299841e+003;1.653163e-001
1.301770e+003;1.639888e-001
1.303698e+003;1.630741e-001
1.305627e+003;1.624860e-001
1.307556e+003;1.621764e-001
1.309484e+003;1.623955e-001
1.311413e+003;1.629619e-001
1.313341e+003;1.635964e-001
1.315270e+003;1.641926e-001
1.317198e+003;1.647901e-001
1.319127e+003;1.657346e-001
1.321055e+003;1.666231e-001
1.322984e+003;1.670516e-001
1.324912e+003;1.672625e-001
1.326841e+003;1.670471e-001
1.328770e+003;1.663490e-001
1.330698e+003;1.657733e-001
1.332627e+003;1.650859e-001
1.334555e+003;1.639944e-001
1.336484e+003;1.626076e-001
1.338412e+003;1.609276e-001
1.340341e+003;1.594335e-001
1.342269e+003;1.582636e-001
1.344198e+003;1.570370e-001
1.346126e+003;1.559668e-001
1.348055e+003;1.548314e-001
1.349984e+003;1.537385e-001
1.351912e+003;1.529659e-001
1.353841e+003;1.523788e-001
1.355769e+003;1.520950e-001
1.357698e+003;1.523414e-001
1.359626e+003;1.531305e-001
1.361555e+003;1.539854e-001
1.363483e+003;1.551424e-001
1.365412e+003;1.565816e-001
1.367341e+003;1.578526e-001
1.369269e+003;1.588075e-001
1.371198e+003;1.594252e-001
1.373126e+003;1.595165e-001
1.375055e+003;1.594476e-001
1.376983e+003;1.599068e-001
1.378912e+003;1.609242e-001
1.380840e+003;1.620875e-001
1.382769e+003;1.634542e-001
1.384698e+003;1.645474e-001
1.386626e+003;1.649881e-001
1.388555e+003;1.651840e-001
1.390483e+003;1.649837e-001
1.392412e+003;1.640712e-001
1.394340e+003;1.632156e-001
1.396269e+003;1.629044e-001
1.398197e+003;1.630520e-001
1.400126e+003;1.634038e-001
1.402054e+003;1.636721e-001
1.403983e+003;1.636645e-001
1.405911e+003;1.638156e-001
1.407840e+003;1.639627e-001
1.409769e+003;1.640229e-001
1.411697e+003;1.641971e-001
1.413626e+003;1.647996e-001
1.415554e+003;1.653608e-001
1.417483e+003;1.651893e-001
1.419411e+003;1.651804e-001
1.421340e+003;1.659180e-001
1.423268e+003;1.665233e-001
1.425197e+003;1.675023e-001
1.427125e+003;1.689272e-001
1.429054e+003;1.706652e-001
1.430983e+003;1.732255e-001
1.432911e+003;1.761859e-001
1.434840e+003;1.790451e-001
1.436768e+003;1.814951e-001
1.438697e+003;1.834701e-001
1.440625e+003;1.849276e-001
1.442554e+003;1.859728e-001
1.444482e+003;1.865114e-001
1.446411e+003;1.867452e-001
1.448340e+003;1.872142e-001
1.450268e+003;1.880226e-001
1.452197e+003;1.884467e-001
1.454125e+003;1.885539e-001
1.456054e+003;1.882000e-001
1.457982e+003;1.877214e-001
1.459911e+003;1.871417e-001
1.461839e+003;1.859107e-001
1.463768e+003;1.841864e-001
1.465697e+003;1.830347e-001
1.467625e+003;1.825349e-001
1.469554e+003;1.819979e-001
1.471482e+003;1.816443e-001
1.473411e+003;1.817419e-001
1.475339e+003;1.821976e-001
1.477268e+003;1.831144e-001
1.479196e+003;1.853206e-001
1.481125e+003;1.891658e-001
1.483053e+003;1.943684e-001
1.484982e+003;2.000350e-001
1.486911e+003;2.063158e-001
1.488839e+003;2.133071e-001
1.490768e+003;2.209497e-001
1.492696e+003;2.290247e-001
1.494625e+003;2.363044e-001
1.496553e+003;2.432825e-001
1.498482e+003;2.498383e-001
1.500410e+003;2.550448e-001
1.502339e+003;2.591390e-001
1.504267e+003;2.623660e-001
1.506196e+003;2.648703e-001
1.508125e+003;2.678796e-001
1.510053e+003;2.711755e-001
1.511982e+003;2.732756e-001
1.513910e+003;2.736873e-001
1.515839e+003;2.722425e-001
1.517767e+003;2.687564e-001
1.519696e+003;2.637731e-001
1.521624e+003;2.582524e-001
1.523553e+003;2.539403e-001
1.525481e+003;2.506278e-001
1.527410e+003;2.475582e-001
1.529339e+003;2.443859e-001
1.531267e+003;2.409721e-001
1.533196e+003;2.373613e-001
1.535124e+003;2.338165e-001
1.537053e+003;2.298250e-001
1.538981e+003;2.251348e-001
1.540910e+003;2.209062e-001
1.542838e+003;2.171018e-001
1.544767e+003;2.132944e-001
1.546695e+003;2.089449e-001
1.548624e+003;2.037659e-001
1.550553e+003;1.985646e-001
1.552481e+003;1.936303e-001
1.554410e+003;1.887342e-001
1.556338e+003;1.839339e-001
1.558267e+003;1.787186e-001
1.560195e+003;1.744755e-001
1.562124e+003;1.710704e-001
1.564052e+003;1.676353e-001
1.565981e+003;1.646891e-001
1.567910e+003;1.615702e-001
1.569838e+003;1.588783e-001
1.571767e+003;1.575495e-001
1.573695e+003;1.567519e-001
1.575624e+003;1.561827e-001
1.577552e+003;1.564316e-001
1.579481e+003;1.575208e-001
1.581409e+003;1.589910e-001
1.583338e+003;1.607600e-001
1.585266e+003;1.629734e-001
1.587195e+003;1.657253e-001
1.589124e+003;1.688815e-001
1.591052e+003;1.720845e-001
1.592981e+003;1.758108e-001
1.594909e+003;1.796919e-001
1.596838e+003;1.835758e-001
1.598766e+003;1.880213e-001
1.600695e+003;1.930109e-001
1.602623e+003;1.985163e-001
1.604552e+003;2.050406e-001
1.606480e+003;2.124333e-001
1.608409e+003;2.202532e-001
1.610338e+003;2.279094e-001
1.612266e+003;2.351061e-001
1.614195e+003;2.416515e-001
1.616123e+003;2.477740e-001
1.618052e+003;2.541155e-001
1.619980e+003;2.604313e-001
1.621909e+003;2.667614e-001
1.623837e+003;2.730777e-001
1.625766e+003;2.789869e-001
1.627694e+003;2.844200e-001
1.629623e+003;2.891647e-001
1.631552e+003;2.931236e-001
1.633480e+003;2.961446e-001
1.635409e+003;2.980976e-001
1.637337e+003;2.995863e-001
1.639266e+003;3.005111e-001
1.641194e+003;3.001469e-001
1.643123e+003;2.984757e-001
1.645051e+003;2.955899e-001
1.646980e+003;2.920327e-001
1.648909e+003;2.881303e-001
1.650837e+003;2.832516e-001
1.652766e+003;2.773679e-001
1.654694e+003;2.716900e-001
1.656623e+003;2.661434e-001
1.658551e+003;2.598455e-001
1.660480e+003;2.529968e-001
1.662408e+003;2.458948e-001
1.664337e+003;2.387751e-001
1.666266e+003;2.315952e-001
1.668194e+003;2.242546e-001
1.670123e+003;2.171632e-001
1.672051e+003;2.101793e-001
1.673980e+003;2.030123e-001
1.675908e+003;1.959012e-001
1.677837e+003;1.893808e-001
1.679765e+003;1.825139e-001
1.681694e+003;1.756109e-001
1.683622e+003;1.683878e-001
1.685551e+003;1.615470e-001
1.687479e+003;1.553433e-001
1.689408e+003;1.489609e-001
1.691337e+003;1.422995e-001
1.693265e+003;1.355449e-001
1.695194e+003;1.284084e-001
1.697122e+003;1.216790e-001
1.699051e+003;1.148501e-001
1.700979e+003;1.081577e-001
1.702908e+003;1.022783e-001
1.704836e+003;9.632489e-002
1.706765e+003;9.087139e-002
1.708693e+003;8.621156e-002
1.710622e+003;8.222967e-002
1.712551e+003;7.837778e-002
1.714479e+003;7.479431e-002
1.716408e+003;7.172457e-002
1.718336e+003;6.934424e-002
1.720265e+003;6.773381e-002
1.722193e+003;6.586888e-002
1.724122e+003;6.372466e-002
1.726050e+003;6.188779e-002
1.727979e+003;6.019334e-002
1.729908e+003;5.864357e-002
1.731836e+003;5.687399e-002
1.733765e+003;5.488542e-002
1.735693e+003;5.368126e-002
1.737622e+003;5.246644e-002
1.739550e+003;5.075447e-002
1.741479e+003;4.928980e-002
1.743407e+003;4.797972e-002
1.745336e+003;4.651600e-002
1.747265e+003;4.493882e-002
1.749193e+003;4.358317e-002
1.751122e+003;4.245717e-002
1.753050e+003;4.134845e-002
1.754979e+003;4.019687e-002
1.756907e+003;3.902157e-002
1.758836e+003;3.809791e-002
1.760764e+003;3.717124e-002
1.762693e+003;3.643462e-002
1.764621e+003;3.588639e-002
1.766550e+003;3.525012e-002
1.768479e+003;3.454424e-002
1.770407e+003;3.374792e-002
1.772336e+003;3.295585e-002
1.774264e+003;3.271559e-002
1.776193e+003;3.272792e-002
1.778121e+003;3.263000e-002
1.780050e+003;3.232256e-002
1.781978e+003;3.208387e-002
1.783907e+003;3.171615e-002
1.785835e+003;3.155457e-002
1.787764e+003;3.149560e-002
1.789693e+003;3.114333e-002
1.791621e+003;3.055452e-002
1.793550e+003;3.031495e-002
1.795478e+003;3.021246e-002
1.797407e+003;2.997141e-002
1.799335e+003;2.978890e-002
1.801264e+003;2.971279e-002
1.803192e+003;2.954245e-002
1.805121e+003;2.934154e-002
1.807049e+003;2.912340e-002
1.808978e+003;2.897093e-002
1.810907e+003;2.883189e-002
1.812835e+003;2.871697e-002
1.814764e+003;2.850640e-002
1.816692e+003;2.826131e-002
1.818621e+003;2.808655e-002
1.820549e+003;2.800667e-002
1.822478e+003;2.794953e-002
1.824406e+003;2.793249e-002
1.826335e+003;2.787787e-002
1.828264e+003;2.774201e-002
1.830192e+003;2.757943e-002
1.832121e+003;2.748404e-002
1.834049e+003;2.713490e-002
1.835978e+003;2.701080e-002
1.837906e+003;2.708831e-002
1.839835e+003;2.707392e-002
1.841763e+003;2.681378e-002
1.843692e+003;2.652618e-002
1.845620e+003;2.645257e-002
1.847549e+003;2.641081e-002
1.849478e+003;2.639443e-002
1.851406e+003;2.656538e-002
1.853335e+003;2.649617e-002
1.855263e+003;2.636479e-002
1.857192e+003;2.629818e-002
1.859120e+003;2.624612e-002
1.861049e+003;2.612167e-002
1.862977e+003;2.612871e-002
1.864906e+003;2.617858e-002
1.866834e+003;2.618044e-002
1.868763e+003;2.596237e-002
1.870692e+003;2.603100e-002
1.872620e+003;2.602907e-002
1.874549e+003;2.608874e-002
1.876477e+003;2.618548e-002
1.878406e+003;2.629726e-002
1.880334e+003;2.623756e-002
1.882263e+003;2.625316e-002
1.884191e+003;2.623116e-002
1.886120e+003;2.617344e-002
1.888048e+003;2.632374e-002
1.889977e+003;2.652786e-002
1.891906e+003;2.641204e-002
1.893834e+003;2.630420e-002
1.895763e+003;2.619600e-002
1.897691e+003;2.630170e-002
1.899620e+003;2.651490e-002
1.901548e+003;2.650842e-002
1.903477e+003;2.650652e-002
1.905405e+003;2.648930e-002
1.907334e+003;2.626361e-002
1.909262e+003;2.612474e-002
1.911191e+003;2.607512e-002
1.913120e+003;2.619786e-002
1.915048e+003;2.634514e-002
1.916977e+003;2.632757e-002
1.918905e+003;2.631807e-002
1.920834e+003;2.643644e-002
1.922762e+003;2.636757e-002
1.924691e+003;2.626129e-002
1.926619e+003;2.628287e-002
1.928548e+003;2.649472e-002
1.930477e+003;2.650515e-002
1.932405e+003;2.650712e-002
1.934334e+003;2.641475e-002
1.936262e+003;2.631677e-002
1.938191e+003;2.623422e-002
1.940119e+003;2.641757e-002
1.942048e+003;2.670633e-002
1.943976e+003;2.669076e-002
1.945905e+003;2.664312e-002
1.947833e+003;2.688988e-002
1.949762e+003;2.684853e-002
1.951691e+003;2.661258e-002
1.953619e+003;2.661586e-002
1.955548e+003;2.679739e-002
1.957476e+003;2.695326e-002
1.959405e+003;2.691730e-002
1.961333e+003;2.688494e-002
1.963262e+003;2.698238e-002
1.965190e+003;2.693179e-002
1.967119e+003;2.691522e-002
1.969047e+003;2.681522e-002
1.970976e+003;2.667790e-002
1.972905e+003;2.662044e-002
1.974833e+003;2.687215e-002
1.976762e+003;2.695968e-002
1.978690e+003;2.677896e-002
1.980619e+003;2.679838e-002
1.982547e+003;2.702833e-002
1.984476e+003;2.710453e-002
1.986404e+003;2.709265e-002
1.988333e+003;2.699458e-002
1.990261e+003;2.688501e-002
1.992190e+003;2.664932e-002
1.994119e+003;2.666423e-002
1.996047e+003;2.691269e-002
1.997976e+003;2.716555e-002
1.999904e+003;2.731556e-002
2.001833e+003;2.725011e-002
2.003761e+003;2.713571e-002
2.005690e+003;2.706158e-002
2.007618e+003;2.689791e-002
2.009547e+003;2.694889e-002
2.011476e+003;2.712538e-002
2.013404e+003;2.733437e-002
2.015333e+003;2.737699e-002
2.017261e+003;2.727953e-002
2.019190e+003;2.738042e-002
2.021118e+003;2.753893e-002
2.023047e+003;2.736697e-002
2.024975e+003;2.730889e-002
2.026904e+003;2.748521e-002
2.028833e+003;2.747843e-002
2.030761e+003;2.743847e-002
2.032690e+003;2.754264e-002
2.034618e+003;2.760146e-002
2.036547e+003;2.757004e-002
2.038475e+003;2.747310e-002
2.040404e+003;2.731884e-002
2.042332e+003;2.729351e-002
2.044261e+003;2.743318e-002
2.046189e+003;2.749082e-002
2.048118e+003;2.752757e-002
2.050047e+003;2.768080e-002
2.051975e+003;2.762356e-002
2.053904e+003;2.749220e-002
2.055832e+003;2.763236e-002
2.057761e+003;2.780064e-002
2.059689e+003;2.778411e-002
2.061618e+003;2.783657e-002
2.063546e+003;2.783099e-002
2.065475e+003;2.767424e-002
2.067404e+003;2.768176e-002
2.069332e+003;2.778729e-002
2.071260e+003;2.785060e-002
2.073189e+003;2.777104e-002
2.075118e+003;2.771549e-002
2.077046e+003;2.777613e-002
2.078975e+003;2.796985e-002
2.080903e+003;2.812055e-002
2.082832e+003;2.810408e-002
2.084760e+003;2.793688e-002
2.086689e+003;2.779888e-002
2.088617e+003;2.765715e-002
2.090546e+003;2.757060e-002
2.092475e+003;2.779192e-002
2.094403e+003;2.797430e-002
2.096332e+003;2.799215e-002
2.098260e+003;2.783293e-002
2.100189e+003;2.760584e-002
2.102117e+003;2.771202e-002
2.104046e+003;2.791052e-002
2.105974e+003;2.818737e-002
2.107903e+003;2.818232e-002
2.109832e+003;2.797882e-002
2.111760e+003;2.790539e-002
2.113688e+003;2.800003e-002
2.115617e+003;2.806036e-002
2.117546e+003;2.790688e-002
2.119474e+003;2.776960e-002
2.121403e+003;2.798568e-002
2.123331e+003;2.798536e-002
2.125260e+003;2.790642e-002
2.127188e+003;2.784159e-002
2.129117e+003;2.760513e-002
2.131045e+003;2.764913e-002
2.132974e+003;2.807686e-002
2.134903e+003;2.827425e-002
2.136831e+003;2.816464e-002
2.138760e+003;2.793822e-002
2.140688e+003;2.784890e-002
2.142617e+003;2.789108e-002
2.144545e+003;2.789451e-002
2.146474e+003;2.786105e-002
2.148402e+003;2.774826e-002
2.150331e+003;2.769168e-002
2.152260e+003;2.761844e-002
2.154188e+003;2.754751e-002
2.156117e+003;2.755291e-002
2.158045e+003;2.768006e-002
2.159974e+003;2.792614e-002
2.161902e+003;2.791292e-002
2.163831e+003;2.783311e-002
2.165759e+003;2.784745e-002
2.167688e+003;2.795228e-002
2.169616e+003;2.803155e-002
2.171545e+003;2.795179e-002
2.173474e+003;2.785113e-002
2.175402e+003;2.777306e-002
2.177331e+003;2.785049e-002
2.179259e+003;2.780866e-002
2.181188e+003;2.759853e-002
2.183116e+003;2.778016e-002
2.185045e+003;2.792886e-002
2.186973e+003;2.789487e-002
2.188902e+003;2.798335e-002
2.190831e+003;2.794617e-002
2.192759e+003;2.785060e-002
2.194688e+003;2.802473e-002
2.196616e+003;2.814643e-002
2.198545e+003;2.814944e-002
2.200473e+003;2.790289e-002
2.202402e+003;2.772693e-002
2.204330e+003;2.777398e-002
2.206259e+003;2.775017e-002
2.208188e+003;2.784833e-002
2.210116e+003;2.803000e-002
2.212044e+003;2.811154e-002
2.213973e+003;2.804820e-002
2.215902e+003;2.765873e-002
2.217830e+003;2.758469e-002
2.219759e+003;2.775374e-002
2.221687e+003;2.784858e-002
2.223616e+003;2.791426e-002
2.225544e+003;2.796020e-002
2.227473e+003;2.798865e-002
2.229401e+003;2.795631e-002
2.231330e+003;2.791818e-002
2.233259e+003;2.767307e-002
2.235187e+003;2.760824e-002
2.237116e+003;2.779383e-002
2.239044e+003;2.791977e-002
2.240973e+003;2.784614e-002
2.242901e+003;2.778182e-002
2.244830e+003;2.796228e-002
2.246758e+003;2.819190e-002
2.248687e+003;2.802148e-002
2.250615e+003;2.784049e-002
2.252544e+003;2.785261e-002
2.254473e+003;2.789437e-002
2.256401e+003;2.798239e-002
2.258330e+003;2.808036e-002
2.260258e+003;2.811034e-002
2.262187e+003;2.795734e-002
2.264115e+003;2.781527e-002
2.266044e+003;2.778620e-002
2.267972e+003;2.805067e-002
2.269901e+003;2.825650e-002
2.271830e+003;2.824292e-002
2.273758e+003;2.804548e-002
2.275687e+003;2.786275e-002
2.277615e+003;2.800416e-002
2.279544e+003;2.841937e-002
2.281472e+003;2.856185e-002
2.283401e+003;2.833688e-002
2.285329e+003;2.824313e-002
2.287258e+003;2.821163e-002
2.289187e+003;2.817464e-002
2.291115e+003;2.841035e-002
2.293043e+003;2.878137e-002
2.294972e+003;2.869934e-002
2.296901e+003;2.849398e-002
2.298829e+003;2.852904e-002
2.300758e+003;2.829395e-002
2.302686e+003;2.815810e-002
2.304615e+003;2.817231e-002
2.306543e+003;2.812536e-002
2.308472e+003;2.807973e-002
2.310400e+003;2.793921e-002
2.312329e+003;2.772018e-002
2.314258e+003;2.749438e-002
2.316186e+003;2.748556e-002
2.318115e+003;2.726560e-002
2.320043e+003;2.697949e-002
2.321972e+003;2.670679e-002
2.323900e+003;2.631599e-002
2.325829e+003;2.589449e-002
2.327757e+003;2.559024e-002
2.329686e+003;2.539090e-002
2.331615e+003;2.535244e-002
2.333543e+003;2.557168e-002
2.335472e+003;2.584627e-002
2.337400e+003;2.598186e-002
2.339329e+003;2.584001e-002
2.341257e+003;2.592080e-002
2.343186e+003;2.642630e-002
2.345114e+003;2.712682e-002
2.347043e+003;2.809404e-002
2.348971e+003;2.870791e-002
2.350900e+003;2.806446e-002
2.352829e+003;2.697843e-002
2.354757e+003;2.591721e-002
2.356686e+003;2.524532e-002
2.358614e+003;2.487706e-002
2.360543e+003;2.465978e-002
2.362471e+003;2.482871e-002
2.364400e+003;2.528286e-002
2.366328e+003;2.596614e-002
2.368257e+003;2.642591e-002
2.370186e+003;2.677325e-002
2.372114e+003;2.764871e-002
2.374042e+003;2.865443e-002
2.375971e+003;2.925955e-002
2.377900e+003;2.983898e-002
2.379828e+003;3.034682e-002
2.381757e+003;3.068039e-002
2.383685e+003;3.094691e-002
2.385614e+003;3.104698e-002
2.387542e+003;3.122600e-002
2.389471e+003;3.143141e-002
2.391399e+003;3.161019e-002
2.393328e+003;3.185526e-002
2.395257e+003;3.199059e-002
2.397185e+003;3.202241e-002
2.399114e+003;3.204017e-002
2.401042e+003;3.225236e-002
2.402971e+003;3.239381e-002
2.404899e+003;3.249989e-002
2.406828e+003;3.265883e-002
2.408756e+003;3.282904e-002
2.410685e+003;3.297844e-002
2.412614e+003;3.317009e-002
2.414542e+003;3.331954e-002
2.416471e+003;3.343522e-002
2.418399e+003;3.351685e-002
2.420328e+003;3.370731e-002
2.422256e+003;3.384666e-002
2.424185e+003;3.387403e-002
2.426113e+003;3.434599e-002
2.428042e+003;3.476551e-002
2.429970e+003;3.467474e-002
2.431899e+003;3.472875e-002
2.433828e+003;3.507562e-002
2.435756e+003;3.498773e-002
2.437685e+003;3.479495e-002
2.439613e+003;3.510037e-002
2.441542e+003;3.536128e-002
2.443470e+003;3.542793e-002
2.445399e+003;3.567465e-002
2.447327e+003;3.593203e-002
2.449256e+003;3.599538e-002
2.451185e+003;3.601644e-002
2.453113e+003;3.612488e-002
2.455042e+003;3.622989e-002
2.456970e+003;3.624502e-002
2.458899e+003;3.657507e-002
2.460827e+003;3.686703e-002
2.462756e+003;3.683936e-002
2.464684e+003;3.705326e-002
2.466613e+003;3.744171e-002
2.468542e+003;3.752356e-002
2.470470e+003;3.760166e-002
2.472398e+003;3.786832e-002
2.474327e+003;3.787721e-002
2.476256e+003;3.790653e-002
2.478184e+003;3.829307e-002
2.480113e+003;3.840947e-002
2.482041e+003;3.827020e-002
2.483970e+003;3.848375e-002
2.485898e+003;3.859433e-002
2.487827e+003;3.856315e-002
2.489755e+003;3.876627e-002
2.491684e+003;3.891052e-002
2.493613e+003;3.902715e-002
2.495541e+003;3.919470e-002
2.497470e+003;3.947100e-002
2.499398e+003;3.974734e-002
2.501327e+003;3.987491e-002
2.503255e+003;3.991785e-002
2.505184e+003;3.995857e-002
2.507112e+003;3.993728e-002
2.509041e+003;3.984633e-002
2.510969e+003;3.983743e-002
2.512898e+003;4.002890e-002
2.514827e+003;4.014606e-002
2.516755e+003;4.039137e-002
2.518684e+003;4.072935e-002
2.520612e+003;4.073128e-002
2.522541e+003;4.062965e-002
2.524469e+003;4.063667e-002
2.526398e+003;4.066676e-002
2.528326e+003;4.078817e-002
2.530255e+003;4.115170e-002
2.532184e+003;4.159441e-002
2.534112e+003;4.163554e-002
2.536041e+003;4.147362e-002
2.537969e+003;4.155529e-002
2.539898e+003;4.164003e-002
2.541826e+003;4.188932e-002
2.543755e+003;4.201618e-002
2.545683e+003;4.202826e-002
2.547612e+003;4.228052e-002
2.549541e+003;4.245575e-002
2.551469e+003;4.244161e-002
2.553397e+003;4.252832e-002
2.555326e+003;4.266025e-002
2.557255e+003;4.265039e-002
2.559183e+003;4.280321e-002
2.561112e+003;4.283414e-002
2.563040e+003;4.294046e-002
2.564969e+003;4.339338e-002
2.566897e+003;4.346475e-002
2.568826e+003;4.348551e-002
2.570754e+003;4.364530e-002
2.572683e+003;4.353086e-002
2.574612e+003;4.371843e-002
2.576540e+003;4.395176e-002
2.578469e+003;4.395946e-002
2.580397e+003;4.435535e-002
2.582326e+003;4.466658e-002
2.584254e+003;4.441763e-002
2.586183e+003;4.428229e-002
2.588111e+003;4.467282e-002
2.590040e+003;4.485307e-002
2.591969e+003;4.476336e-002
2.593897e+003;4.488396e-002
2.595826e+003;4.517575e-002
2.597754e+003;4.540431e-002
2.599683e+003;4.551023e-002
2.601611e+003;4.576312e-002
2.603540e+003;4.578735e-002
2.605468e+003;4.549669e-002
2.607397e+003;4.572958e-002
2.609325e+003;4.613059e-002
2.611254e+003;4.616707e-002
2.613183e+003;4.610955e-002
2.615111e+003;4.611228e-002
2.617040e+003;4.617658e-002
2.618968e+003;4.618093e-002
2.620897e+003;4.619751e-002
2.622825e+003;4.625538e-002
2.624754e+003;4.637127e-002
2.626682e+003;4.660578e-002
2.628611e+003;4.687318e-002
2.630540e+003;4.703351e-002
2.632468e+003;4.705984e-002
2.634396e+003;4.717318e-002
2.636325e+003;4.727115e-002
2.638254e+003;4.716166e-002
2.640182e+003;4.692124e-002
2.642111e+003;4.712040e-002
2.644039e+003;4.746101e-002
2.645968e+003;4.762392e-002
2.647896e+003;4.749564e-002
2.649825e+003;4.741655e-002
2.651753e+003;4.759856e-002
2.653682e+003;4.763346e-002
2.655611e+003;4.753334e-002
2.657539e+003;4.769226e-002
2.659468e+003;4.788707e-002
2.661396e+003;4.799293e-002
2.663325e+003;4.815553e-002
2.665253e+003;4.841945e-002
2.667182e+003;4.846961e-002
2.669110e+003;4.832200e-002
2.671039e+003;4.815338e-002
2.672968e+003;4.825550e-002
2.674896e+003;4.850576e-002
2.676825e+003;4.854152e-002
2.678753e+003;4.874532e-002
2.680682e+003;4.914318e-002
2.682610e+003;4.934303e-002
2.684539e+003;4.950108e-002
2.686467e+003;4.959653e-002
2.688396e+003;4.960310e-002
2.690324e+003;4.954160e-002
2.692253e+003;4.983156e-002
2.694182e+003;5.032380e-002
2.696110e+003;5.033905e-002
2.698039e+003;5.031479e-002
2.699967e+003;5.032432e-002
2.701896e+003;5.053100e-002
2.703824e+003;5.077704e-002
2.705753e+003;5.079406e-002
2.707681e+003;5.092090e-002
2.709610e+003;5.131323e-002
2.711539e+003;5.160952e-002
2.713467e+003;5.158407e-002
2.715396e+003;5.165684e-002
2.717324e+003;5.187652e-002
2.719253e+003;5.208177e-002
2.721181e+003;5.222353e-002
2.723110e+003;5.256722e-002
2.725038e+003;5.280835e-002
2.726967e+003;5.276892e-002
2.728896e+003;5.276151e-002
2.730824e+003;5.292739e-002
2.732752e+003;5.332952e-002
2.734681e+003;5.379394e-002
2.736610e+003;5.400667e-002
2.738538e+003;5.415104e-002
2.740467e+003;5.439644e-002
2.742395e+003;5.440282e-002
2.744324e+003;5.449875e-002
2.746252e+003;5.469890e-002
2.748181e+003;5.479147e-002
2.750109e+003;5.508777e-002
2.752038e+003;5.522611e-002
2.753967e+003;5.524598e-002
2.755895e+003;5.519627e-002
2.757824e+003;5.526923e-002
2.759752e+003;5.575238e-002
2.761681e+003;5.616305e-002
2.763609e+003;5.626020e-002
2.765538e+003;5.640317e-002
2.767466e+003;5.672489e-002
2.769395e+003;5.692763e-002
2.771323e+003;5.690613e-002
2.773252e+003;5.703526e-002
2.775181e+003;5.734894e-002
2.777109e+003;5.755049e-002
2.779038e+003;5.767954e-002
2.780966e+003;5.769997e-002
2.782895e+003;5.763546e-002
2.784823e+003;5.814125e-002
2.786752e+003;5.842017e-002
2.788680e+003;5.829044e-002
2.790609e+003;5.850881e-002
2.792538e+003;5.895803e-002
2.794466e+003;5.904044e-002
2.796395e+003;5.913087e-002
2.798323e+003;5.928192e-002
2.800252e+003;5.951845e-002
2.802180e+003;5.990350e-002
2.804109e+003;6.026813e-002
2.806037e+003;6.053906e-002
2.807966e+003;6.101648e-002
2.809895e+003;6.141125e-002
2.811823e+003;6.152890e-002
2.813751e+003;6.159949e-002
2.815680e+003;6.199674e-002
2.817609e+003;6.247033e-002
2.819537e+003;6.258030e-002
2.821466e+003;6.252757e-002
2.823394e+003;6.268652e-002
2.825323e+003;6.307998e-002
2.827251e+003;6.332119e-002
2.829180e+003;6.377128e-002
2.831108e+003;6.408080e-002
2.833037e+003;6.420474e-002
2.834966e+003;6.472206e-002
2.836894e+003;6.520090e-002
2.838823e+003;6.553461e-002
2.840751e+003;6.600039e-002
2.842680e+003;6.674358e-002
2.844608e+003;6.751808e-002
2.846537e+003;6.798173e-002
2.848465e+003;6.834169e-002
2.850394e+003;6.925882e-002
2.852323e+003;7.017590e-002
2.854251e+003;7.058088e-002
2.856180e+003;7.135734e-002
2.858108e+003;7.224827e-002
2.860037e+003;7.288527e-002
2.861965e+003;7.373678e-002
2.863894e+003;7.474215e-002
2.865822e+003;7.577933e-002
2.867751e+003;7.674893e-002
2.869679e+003;7.751266e-002
2.871608e+003;7.821691e-002
2.873536e+003;7.864690e-002
2.875465e+003;7.892151e-002
2.877394e+003;7.898605e-002
2.879322e+003;7.892120e-002
2.881251e+003;7.861048e-002
2.883179e+003;7.809212e-002
2.885108e+003;7.787717e-002
2.887036e+003;7.803755e-002
2.888965e+003;7.814697e-002
2.890893e+003;7.822889e-002
2.892822e+003;7.864615e-002
2.894750e+003;7.885119e-002
2.896679e+003;7.901920e-002
2.898608e+003;7.971766e-002
2.900536e+003;7.996064e-002
2.902465e+003;8.026189e-002
2.904393e+003;8.093548e-002
2.906322e+003;8.173105e-002
2.908250e+003;8.215568e-002
2.910179e+003;8.242600e-002
2.912107e+003;8.311605e-002
2.914036e+003;8.427802e-002
2.915965e+003;8.512771e-002
2.917893e+003;8.571137e-002
2.919822e+003;8.642599e-002
2.921750e+003;8.763263e-002
2.923679e+003;8.842003e-002
2.925607e+003;8.869931e-002
2.927536e+003;8.932064e-002
2.929464e+003;9.023760e-002
2.931393e+003;9.087956e-002
2.933322e+003;9.096637e-002
2.935250e+003;9.075610e-002
2.937178e+003;9.078942e-002
2.939107e+003;9.071494e-002
2.941036e+003;9.011779e-002
2.942964e+003;8.999475e-002
2.944893e+003;8.998451e-002
2.946821e+003;8.975019e-002
2.948750e+003;8.977725e-002
2.950678e+003;8.974971e-002
2.952607e+003;8.973007e-002
2.954535e+003;8.987349e-002
2.956464e+003;9.012399e-002
2.958393e+003;9.041698e-002
2.960321e+003;9.044289e-002
2.962250e+003;9.004094e-002
2.964178e+003;8.940168e-002
2.966107e+003;8.904970e-002
2.968035e+003;8.873105e-002
2.969964e+003;8.804717e-002
2.971892e+003;8.696234e-002
2.973821e+003;8.586398e-002
2.975750e+003;8.522882e-002
2.977678e+003;8.456967e-002
2.979607e+003;8.385963e-002
2.981535e+003;8.325031e-002
2.983464e+003;8.228630e-002
2.985392e+003;8.124898e-002
2.987321e+003;8.028034e-002
2.989249e+003;7.955945e-002
2.991178e+003;7.925078e-002
2.993106e+003;7.872863e-002
2.995035e+003;7.766462e-002
2.996964e+003;7.701107e-002
2.998892e+003;7.691613e-002
3.000821e+003;7.698452e-002
3.002749e+003;7.705863e-002
3.004678e+003;7.693468e-002
3.006606e+003;7.703493e-002
3.008535e+003;7.744069e-002
3.010463e+003;7.767992e-002
3.012392e+003;7.760563e-002
3.014321e+003;7.775806e-002
3.016249e+003;7.783245e-002
3.018177e+003;7.804703e-002
3.020106e+003;7.824278e-002
3.022035e+003;7.846887e-002
3.023963e+003;7.901999e-002
3.025892e+003;7.921587e-002
3.027820e+003;7.933406e-002
3.029749e+003;7.976173e-002
3.031677e+003;8.015826e-002
3.033606e+003;8.034616e-002
3.035534e+003;8.067571e-002
3.037463e+003;8.135678e-002
3.039392e+003;8.173545e-002
3.041320e+003;8.185694e-002
3.043249e+003;8.201607e-002
3.045177e+003;8.252179e-002
3.047106e+003;8.277630e-002
3.049034e+003;8.298823e-002
3.050963e+003;8.317643e-002
3.052891e+003;8.331345e-002
3.054820e+003;8.343935e-002
3.056749e+003;8.350223e-002
3.058677e+003;8.358252e-002
3.060606e+003;8.373437e-002
3.062534e+003;8.384734e-002
3.064463e+003;8.415084e-002
3.066391e+003;8.428104e-002
3.068320e+003;8.410744e-002
3.070248e+003;8.393794e-002
3.072177e+003;8.368970e-002
3.074105e+003;8.348059e-002
3.076034e+003;8.350079e-002
3.077963e+003;8.349734e-002
3.079891e+003;8.335600e-002
3.081820e+003;8.315280e-002
3.083748e+003;8.304302e-002
3.085677e+003;8.275497e-002
3.087605e+003;8.269384e-002
3.089534e+003;8.271801e-002
3.091462e+003;8.259139e-002
3.093391e+003;8.217742e-002
3.095320e+003;8.196337e-002
3.097248e+003;8.208847e-002
3.099177e+003;8.209036e-002
3.101105e+003;8.186805e-002
3.103034e+003;8.171374e-002
3.104962e+003;8.157462e-002
3.106891e+003;8.154380e-002
3.108819e+003;8.155695e-002
3.110748e+003;8.167962e-002
3.112677e+003;8.225082e-002
3.114605e+003;8.248549e-002
3.116533e+003;8.241519e-002
3.118462e+003;8.202288e-002
3.120391e+003;8.176197e-002
3.122319e+003;8.223756e-002
3.124248e+003;8.273850e-002
3.126176e+003;8.305599e-002
3.128105e+003;8.329824e-002
3.130033e+003;8.347180e-002
3.131962e+003;8.351886e-002
3.133890e+003;8.388660e-002
3.135819e+003;8.429842e-002
3.137748e+003;8.467057e-002
3.139676e+003;8.496143e-002
3.141605e+003;8.530858e-002
3.143533e+003;8.597790e-002
3.145462e+003;8.687487e-002
3.147390e+003;8.753664e-002
3.149319e+003;8.787275e-002
3.151247e+003;8.817872e-002
3.153176e+003;8.882170e-002
3.155104e+003;8.977041e-002
3.157033e+003;9.046778e-002
3.158962e+003;9.080518e-002
3.160890e+003;9.121377e-002
3.162819e+003;9.154075e-002
3.164747e+003;9.192555e-002
3.166676e+003;9.243627e-002
3.168604e+003;9.349370e-002
3.170533e+003;9.412424e-002
3.172461e+003;9.433692e-002
3.174390e+003;9.489101e-002
3.176319e+003;9.542500e-002
3.178247e+003;9.591510e-002
3.180176e+003;9.671767e-002
3.182104e+003;9.747332e-002
3.184033e+003;9.811001e-002
3.185961e+003;9.844027e-002
3.187890e+003;9.865075e-002
3.189818e+003;9.900820e-002
3.191747e+003;9.943153e-002
3.193676e+003;1.003240e-001
3.195604e+003;1.013273e-001
3.197532e+003;1.014857e-001
3.199461e+003;1.010996e-001
3.201390e+003;1.014960e-001
3.203318e+003;1.021277e-001
3.205247e+003;1.019862e-001
3.207175e+003;1.023486e-001
3.209104e+003;1.026784e-001
3.211032e+003;1.029964e-001
3.212961e+003;1.035469e-001
3.214889e+003;1.037752e-001
3.216818e+003;1.035672e-001
3.218747e+003;1.039363e-001
3.220675e+003;1.048320e-001
3.222604e+003;1.050801e-001
3.224532e+003;1.048521e-001
3.226461e+003;1.051988e-001
3.228389e+003;1.057368e-001
3.230318e+003;1.059733e-001
3.232246e+003;1.062145e-001
3.234175e+003;1.069298e-001
3.236104e+003;1.072029e-001
3.238032e+003;1.070821e-001
3.239961e+003;1.074708e-001
3.241889e+003;1.078372e-001
3.243818e+003;1.080319e-001
3.245746e+003;1.086716e-001
3.247675e+003;1.091724e-001
3.249603e+003;1.096923e-001
3.251532e+003;1.100376e-001
3.253460e+003;1.105137e-001
3.255389e+003;1.111492e-001
3.257318e+003;1.115645e-001
3.259246e+003;1.118235e-001
3.261175e+003;1.126290e-001
3.263103e+003;1.133479e-001
3.265032e+003;1.139952e-001
3.266960e+003;1.146764e-001
3.268889e+003;1.147235e-001
3.270817e+003;1.150999e-001
3.272746e+003;1.157991e-001
3.274675e+003;1.158067e-001
3.276603e+003;1.158809e-001
3.278531e+003;1.163728e-001
3.280460e+003;1.162423e-001
3.282389e+003;1.159019e-001
3.284317e+003;1.162691e-001
3.286246e+003;1.161556e-001
3.288174e+003;1.156672e-001
3.290103e+003;1.155570e-001
3.292031e+003;1.158480e-001
3.293960e+003;1.160740e-001
3.295888e+003;1.151605e-001
3.297817e+003;1.146626e-001
3.299746e+003;1.146936e-001
3.301674e+003;1.142508e-001
3.303603e+003;1.139335e-001
3.305531e+003;1.139801e-001
3.307460e+003;1.140141e-001
3.309388e+003;1.135972e-001
3.311317e+003;1.129068e-001
3.313245e+003;1.119901e-001
3.315174e+003;1.117969e-001
3.317103e+003;1.119589e-001
3.319031e+003;1.114493e-001
3.320960e+003;1.108094e-001
3.322888e+003;1.100456e-001
3.324817e+003;1.093136e-001
3.326745e+003;1.090229e-001
3.328674e+003;1.087673e-001
3.330602e+003;1.078529e-001
3.332531e+003;1.071673e-001
3.334459e+003;1.067014e-001
3.336388e+003;1.060622e-001
3.338317e+003;1.052799e-001
3.340245e+003;1.044784e-001
3.342174e+003;1.039088e-001
3.344102e+003;1.034198e-001
3.346031e+003;1.024667e-001
3.347959e+003;1.015927e-001
3.349888e+003;1.008264e-001
3.351816e+003;9.970044e-002
3.353745e+003;9.872973e-002
3.355674e+003;9.829906e-002
3.357602e+003;9.795769e-002
3.359531e+003;9.704617e-002
3.361459e+003;9.594014e-002
3.363388e+003;9.501858e-002
3.365316e+003;9.436607e-002
3.367245e+003;9.332270e-002
3.369173e+003;9.257189e-002
3.371102e+003;9.205622e-002
3.373031e+003;9.176040e-002
3.374959e+003;9.116264e-002
3.376887e+003;9.012183e-002
3.378816e+003;8.919746e-002
3.380745e+003;8.838470e-002
3.382673e+003;8.779439e-002
3.384602e+003;8.748168e-002
3.386530e+003;8.680648e-002
3.388459e+003;8.610514e-002
3.390387e+003;8.557420e-002
3.392316e+003;8.501615e-002
3.394244e+003;8.451182e-002
3.396173e+003;8.406317e-002
3.398102e+003;8.315516e-002
3.400030e+003;8.221763e-002
3.401959e+003;8.133189e-002
3.403887e+003;8.044879e-002
3.405816e+003;7.967148e-002
3.407744e+003;7.926637e-002
3.409673e+003;7.835218e-002
3.411601e+003;7.741876e-002
3.413530e+003;7.652994e-002
3.415458e+003;7.558154e-002
3.417387e+003;7.509324e-002
3.419316e+003;7.447174e-002
3.421244e+003;7.352436e-002
3.423173e+003;7.270344e-002
3.425101e+003;7.161433e-002
3.427030e+003;7.085914e-002
3.428958e+003;7.059277e-002
3.430887e+003;7.009766e-002
3.432815e+003;6.898259e-002
3.434744e+003;6.782962e-002
3.436673e+003;6.718153e-002
3.438601e+003;6.702623e-002
3.440530e+003;6.704846e-002
3.442458e+003;6.613074e-002
3.444387e+003;6.471098e-002
3.446315e+003;6.380171e-002
3.448244e+003;6.353534e-002
3.450172e+003;6.322873e-002
3.452101e+003;6.198138e-002
3.454030e+003;6.129470e-002
3.455958e+003;6.140609e-002
3.457886e+003;6.086832e-002
3.459815e+003;5.990258e-002
3.461744e+003;5.935352e-002
3.463672e+003;5.898286e-002
3.465601e+003;5.848810e-002
3.467529e+003;5.811382e-002
3.469458e+003;5.786856e-002
3.471386e+003;5.769324e-002
3.473315e+003;5.710769e-002
3.475243e+003;5.637390e-002
3.477172e+003;5.585023e-002
3.479101e+003;5.544124e-002
3.481029e+003;5.463836e-002
3.482958e+003;5.419583e-002
3.484886e+003;5.413426e-002
3.486815e+003;5.361614e-002
3.488743e+003;5.272428e-002
3.490672e+003;5.203112e-002
3.492600e+003;5.182615e-002
3.494529e+003;5.169345e-002
3.496458e+003;5.129451e-002
3.498386e+003;5.055858e-002
3.500315e+003;4.993447e-002
3.502243e+003;4.957061e-002
3.504172e+003;4.934715e-002
3.506100e+003;4.899112e-002
3.508029e+003;4.850484e-002
3.509957e+003;4.785522e-002
3.511886e+003;4.768656e-002
3.513814e+003;4.747912e-002
3.515743e+003;4.698485e-002
3.517672e+003;4.634908e-002
3.519600e+003;4.605333e-002
3.521529e+003;4.561798e-002
3.523457e+003;4.525006e-002
3.525386e+003;4.476453e-002
3.527314e+003;4.446204e-002
3.529243e+003;4.467576e-002
3.531171e+003;4.445338e-002
3.533100e+003;4.360525e-002
3.535029e+003;4.255624e-002
3.536957e+003;4.189513e-002
3.538885e+003;4.182850e-002
3.540814e+003;4.199176e-002
3.542743e+003;4.182824e-002
3.544671e+003;4.166242e-002
3.546600e+003;4.139973e-002
3.548528e+003;4.055522e-002
3.550457e+003;4.026168e-002
3.552385e+003;4.011197e-002
3.554314e+003;3.992940e-002
3.556242e+003;3.968478e-002
3.558171e+003;3.924391e-002
3.560100e+003;3.869958e-002
3.562028e+003;3.831822e-002
3.563957e+003;3.807784e-002
3.565885e+003;3.749524e-002
3.567814e+003;3.713370e-002
3.569742e+003;3.701703e-002
3.571671e+003;3.688798e-002
3.573599e+003;3.632200e-002
3.575528e+003;3.563315e-002
3.577457e+003;3.515472e-002
3.579385e+003;3.464025e-002
3.581314e+003;3.420081e-002
3.583242e+003;3.368615e-002
3.585171e+003;3.332773e-002
3.587099e+003;3.279184e-002
3.589028e+003;3.220832e-002
3.590956e+003;3.220950e-002
3.592885e+003;3.194975e-002
3.594813e+003;3.126541e-002
3.596742e+003;3.081269e-002
3.598671e+003;3.098734e-002
3.600599e+003;3.065219e-002
3.602528e+003;2.974533e-002
3.604456e+003;2.915944e-002
3.606385e+003;2.856889e-002
3.608313e+003;2.771831e-002
3.610242e+003;2.708577e-002
3.612170e+003;2.696024e-002
3.614099e+003;2.679365e-002
3.616028e+003;2.614624e-002
3.617956e+003;2.521501e-002
3.619885e+003;2.441394e-002
3.621813e+003;2.382704e-002
3.623742e+003;2.337878e-002
3.625670e+003;2.307192e-002
3.627599e+003;2.262968e-002
3.629527e+003;2.175469e-002
3.631456e+003;2.128191e-002
3.633385e+003;2.111748e-002
3.635313e+003;2.043748e-002
3.637241e+003;1.916858e-002
3.639170e+003;1.858882e-002
3.641099e+003;1.845556e-002
3.643027e+003;1.763417e-002
3.644956e+003;1.671161e-002
3.646884e+003;1.621776e-002
3.648813e+003;1.565203e-002
3.650741e+003;1.454551e-002
3.652670e+003;1.386470e-002
3.654598e+003;1.364541e-002
3.656527e+003;1.330797e-002
3.658456e+003;1.275570e-002
3.660384e+003;1.195076e-002
3.662313e+003;1.140753e-002
3.664241e+003;1.118570e-002
3.666170e+003;1.017857e-002
3.668098e+003;8.598552e-003
3.670027e+003;8.119918e-003
3.671955e+003;8.371633e-003
3.673884e+003;7.665822e-003
3.675813e+003;6.601278e-003
3.677741e+003;6.222102e-003
3.679669e+003;5.859813e-003
3.681598e+003;5.449273e-003
3.683527e+003;5.184994e-003
3.685455e+003;4.688937e-003
3.687384e+003;3.287880e-003
3.689312e+003;2.482026e-003
3.691241e+003;2.876527e-003
3.693169e+003;3.267214e-003
3.695098e+003;3.050671e-003
3.697026e+003;2.450736e-003
3.698955e+003;2.570444e-003
3.700884e+003;2.776043e-003
3.702812e+003;1.928602e-003
3.704741e+003;1.131509e-003
3.706669e+003;1.241217e-003
3.708598e+003;1.445423e-003
3.710526e+003;1.389476e-003
3.712455e+003;1.344771e-003
3.714383e+003;1.068627e-003
3.716312e+003;1.087992e-003
3.718240e+003;1.499116e-003
3.720169e+003;1.310372e-003
3.722098e+003;1.029534e-003
3.724026e+003;1.168585e-003
3.725955e+003;1.084671e-003
3.727883e+003;7.143275e-004
3.729812e+003;4.839603e-004
3.731740e+003;2.223200e-004
3.733669e+003;3.154180e-004
3.735597e+003;3.544801e-004
3.737526e+003;6.164322e-004
3.739455e+003;4.079722e-004
3.741383e+003;-2.993954e-004
3.743312e+003;-1.092413e-003
3.745240e+003;-1.029711e-003
3.747169e+003;-7.359458e-004
3.749097e+003;-8.710812e-004
3.751026e+003;-3.391270e-004
3.752954e+003;3.088528e-004
3.754883e+003;8.784761e-004
3.756812e+003;4.054848e-004
3.758740e+003;-5.084092e-004
3.760668e+003;-4.985467e-004
3.762597e+003;1.498580e-004
3.764526e+003;3.958339e-004
3.766454e+003;-9.425612e-005
3.768383e+003;-1.960099e-004
3.770311e+003;1.416048e-004
3.772240e+003;4.943098e-004
3.774168e+003;1.094337e-003
3.776097e+003;1.309641e-003
3.778025e+003;4.421337e-004
3.779954e+003;1.333187e-004
3.781883e+003;3.112070e-004
3.783811e+003;2.137672e-004
3.785740e+003;-9.442175e-005
3.787668e+003;-2.621436e-004
3.789597e+003;-2.771110e-004
3.791525e+003;-2.245907e-004
3.793454e+003;-4.147395e-004
3.795382e+003;-2.938989e-004
3.797311e+003;5.435726e-004
3.799240e+003;1.048864e-003
3.801168e+003;8.936492e-004
3.803097e+003;6.763946e-004
3.805025e+003;3.753057e-004
3.806954e+003;3.534521e-004
3.808882e+003;3.833975e-004
3.810811e+003;1.106691e-005
3.812739e+003;-2.416456e-004
3.814668e+003;-4.832892e-004
3.816596e+003;-2.999251e-004
3.818525e+003;1.239390e-004
3.820454e+003;7.985377e-006
3.822382e+003;-2.630709e-004
3.824311e+003;8.065574e-005
3.826239e+003;1.168795e-004
3.828168e+003;-6.010099e-005
3.830096e+003;3.903365e-005
3.832025e+003;1.346113e-004
3.833953e+003;5.694171e-004
3.835882e+003;9.179208e-004
3.837811e+003;6.530325e-004
3.839739e+003;-1.496407e-004
3.841667e+003;-1.465934e-004
3.843596e+003;3.022876e-004
3.845525e+003;7.395847e-004
3.847453e+003;6.831645e-004
3.849382e+003;3.229782e-004
3.851310e+003;-5.981874e-004
3.853239e+003;-1.016588e-003
3.855167e+003;-1.558677e-004
3.857096e+003;3.670483e-004
3.859024e+003;5.606583e-004
3.860953e+003;1.175362e-003
3.862882e+003;1.443063e-003
3.864810e+003;1.025150e-003
3.866739e+003;4.702940e-004
3.868667e+003;2.826590e-004
3.870596e+003;4.949732e-004
3.872524e+003;7.904356e-004
3.874453e+003;7.277359e-004
3.876381e+003;1.005389e-003
3.878310e+003;1.271058e-003
3.880239e+003;1.253346e-003
3.882167e+003;1.170578e-003
3.884096e+003;6.275812e-004
3.886024e+003;5.273832e-004
3.887953e+003;8.306358e-004
3.889881e+003;9.100183e-004
3.891810e+003;1.051588e-003
3.893738e+003;9.377441e-004
3.895667e+003;1.105764e-003
3.897595e+003;8.925204e-004
3.899524e+003;7.953152e-004
3.901453e+003;1.273816e-003
3.903381e+003;1.689041e-003
3.905310e+003;1.445789e-003
3.907238e+003;1.533630e-003
3.909167e+003;1.893624e-003
3.911095e+003;1.935957e-003
3.913024e+003;1.617298e-003
3.914952e+003;1.448748e-003
3.916881e+003;1.570607e-003
3.918810e+003;1.758134e-003
3.920738e+003;2.014876e-003
3.922667e+003;2.278265e-003
3.924595e+003;2.285592e-003
3.926524e+003;2.661746e-003
3.928452e+003;2.593409e-003
3.930381e+003;2.134430e-003
3.932309e+003;2.002759e-003
3.934238e+003;2.277265e-003
3.936167e+003;2.133531e-003
3.938095e+003;1.982088e-003
3.940023e+003;1.931430e-003
3.941952e+003;1.974832e-003
3.943881e+003;2.030455e-003
3.945809e+003;1.828902e-003
3.947738e+003;2.335958e-003
3.949666e+003;2.924827e-003
3.951595e+003;2.716590e-003
3.953523e+003;2.479460e-003
3.955452e+003;1.837453e-003
3.957380e+003;1.480265e-003
3.959309e+003;1.001636e-003
3.961238e+003;7.816391e-004
3.963166e+003;1.479168e-003
3.965095e+003;2.164598e-003
3.967023e+003;2.275833e-003
3.968952e+003;2.190406e-003
3.970880e+003;1.909199e-003
3.972809e+003;1.744993e-003
3.974737e+003;1.432624e-003
3.976666e+003;1.292592e-003
3.978594e+003;1.505301e-003
3.980523e+003;1.307613e-003
3.982452e+003;1.317584e-003
3.984380e+003;1.441401e-003
3.986309e+003;9.305718e-004
3.988237e+003;1.169050e-003
3.990166e+003;1.698587e-003
3.992094e+003;1.839583e-003
3.994023e+003;1.402673e-003
3.995951e+003;5.999747e-004
3.997880e+003;1.972917e-004
3.999809e+003;6.129150e-004
4.001737e+003;0.000000e+000
