3.992094e+002;0.000000e+000
4.011380e+002;0.000000e+000
4.030665e+002;0.000000e+000
4.049951e+002;0.000000e+000
4.069236e+002;0.000000e+000
4.088522e+002;0.000000e+000
4.107807e+002;0.000000e+000
4.127093e+002;0.000000e+000
4.146378e+002;0.000000e+000
4.165664e+002;0.000000e+000
4.184949e+002;0.000000e+000
4.204235e+002;0.000000e+000
4.223520e+002;0.000000e+000
4.242806e+002;0.000000e+000
4.262091e+002;0.000000e+000
4.281377e+002;0.000000e+000
4.300662e+002;0.000000e+000
4.319948e+002;0.000000e+000
4.339233e+002;0.000000e+000
4.358519e+002;0.000000e+000
4.377804e+002;0.000000e+000
4.397090e+002;0.000000e+000
4.416375e+002;0.000000e+000
4.435660e+002;0.000000e+000
4.454946e+002;0.000000e+000
4.474232e+002;0.000000e+000
4.493517e+002;0.000000e+000
4.512802e+002;0.000000e+000
4.532088e+002;0.000000e+000
4.551373e+002;0.000000e+000
4.570659e+002;0.000000e+000
4.589944e+002;0.000000e+000
4.609230e+002;0.000000e+000
4.628515e+002;0.000000e+000
4.647801e+002;0.000000e+000
4.667086e+002;0.000000e+000
4.686372e+002;0.000000e+000
4.705657e+002;0.000000e+000
4.724943e+002;0.000000e+000
4.744228e+002;0.000000e+000
4.763513e+002;0.000000e+000
4.782799e+002;0.000000e+000
4.802085e+002;0.000000e+000
4.821370e+002;0.000000e+000
4.840656e+002;0.000000e+000
4.859941e+002;0.000000e+000
4.879226e+002;0.000000e+000
4.898512e+002;0.000000e+000
4.917798e+002;0.000000e+000
4.937083e+002;0.000000e+000
4.956368e+002;0.000000e+000
4.975654e+002;0.000000e+000
4.994939e+002;0.000000e+000
5.014225e+002;0.000000e+000
5.033510e+002;0.000000e+000
5.052796e+002;0.000000e+000
5.072081e+002;0.000000e+000
5.091367e+002;0.000000e+000
5.110652e+002;0.000000e+000
5.129938e+002;0.000000e+000
5.149223e+002;0.000000e+000
5.168509e+002;0.000000e+000
5.187794e+002;0.000000e+000
5.207079e+002;0.000000e+000
5.226365e+002;0.000000e+000
5.245651e+002;0.000000e+000
5.264936e+002;0.000000e+000
5.284222e+002;0.000000e+000
5.303507e+002;0.000000e+000
5.322792e+002;0.000000e+000
5.342078e+002;0.000000e+000
5.361364e+002;0.000000e+000
5.380649e+002;0.000000e+000
5.399935e+002;0.000000e+000
5.419220e+002;0.000000e+000
5.438505e+002;0.000000e+000
5.457791e+002;0.000000e+000
5.477076e+002;0.000000e+000
5.496362e+002;0.000000e+000
5.515648e+002;0.000000e+000
5.534933e+002;0.000000e+000
5.554218e+002;0.000000e+000
5.573504e+002;0.000000e+000
5.592789e+002;0.000000e+000
5.612075e+002;0.000000e+000
5.631360e+002;0.000000e+000
5.650646e+002;0.000000e+000
5.669931e+002;0.000000e+000
5.689217e+002;0.000000e+000
5.708502e+002;0.000000e+000
5.727787e+002;0.000000e+000
5.747073e+002;0.000000e+000
5.766359e+002;0.000000e+000
5.785644e+002;0.000000e+000
5.804930e+002;0.000000e+000
5.824215e+002;0.000000e+000
5.843500e+002;0.000000e+000
5.862786e+002;0.000000e+000
5.882072e+002;0.000000e+000
5.901357e+002;0.000000e+000
5.920643e+002;0.000000e+000
5.939928e+002;0.000000e+000
5.959213e+002;0.000000e+000
5.978499e+002;0.000000e+000
5.997784e+002;1.442425e-001
6.017070e+002;1.421163e-001
6.036355e+002;1.350879e-001
6.055641e+002;1.336957e-001
6.074926e+002;1.376336e-001
6.094211e+002;1.362445e-001
6.113497e+002;1.372232e-001
6.132783e+002;1.396607e-001
6.152068e+002;1.366651e-001
6.171354e+002;1.333255e-001
6.190639e+002;1.317450e-001
6.209924e+002;1.297155e-001
6.229210e+002;1.329646e-001
6.248495e+002;1.372809e-001
6.267781e+002;1.361972e-001
6.287067e+002;1.330998e-001
6.306352e+002;1.339830e-001
6.325637e+002;1.370313e-001
6.344923e+002;1.326512e-001
6.364208e+002;1.267481e-001
6.383494e+002;1.272619e-001
6.402780e+002;1.237561e-001
6.422065e+002;1.226638e-001
6.441350e+002;1.273028e-001
6.460636e+002;1.311895e-001
6.479921e+002;1.315041e-001
6.499207e+002;1.292563e-001
6.518492e+002;1.242284e-001
6.537778e+002;1.224779e-001
6.557063e+002;1.235282e-001
6.576349e+002;1.244642e-001
6.595634e+002;1.243220e-001
6.614919e+002;1.236896e-001
6.634205e+002;1.246527e-001
6.653491e+002;1.244859e-001
6.672776e+002;1.231392e-001
6.692062e+002;1.240722e-001
6.711347e+002;1.230694e-001
6.730632e+002;1.205121e-001
6.749918e+002;1.187401e-001
6.769203e+002;1.185320e-001
6.788489e+002;1.187273e-001
6.807775e+002;1.188924e-001
6.827060e+002;1.183232e-001
6.846345e+002;1.172799e-001
6.865631e+002;1.170892e-001
6.884916e+002;1.164232e-001
6.904202e+002;1.158475e-001
6.923488e+002;1.154935e-001
6.942773e+002;1.149156e-001
6.962058e+002;1.146392e-001
6.981344e+002;1.144353e-001
7.000629e+002;1.144072e-001
7.019915e+002;1.140963e-001
7.039200e+002;1.128392e-001
7.058486e+002;1.113954e-001
7.077771e+002;1.104519e-001
7.097057e+002;1.099339e-001
7.116342e+002;1.087426e-001
7.135627e+002;1.076086e-001
7.154913e+002;1.070259e-001
7.174199e+002;1.062981e-001
7.193484e+002;1.049396e-001
7.212770e+002;1.044492e-001
7.232055e+002;1.040108e-001
7.251340e+002;1.035840e-001
7.270626e+002;1.033009e-001
7.289911e+002;1.034078e-001
7.309197e+002;1.036940e-001
7.328483e+002;1.026699e-001
7.347768e+002;1.019698e-001
7.367053e+002;1.028058e-001
7.386339e+002;1.023994e-001
7.405624e+002;1.012791e-001
7.424910e+002;1.016145e-001
7.444196e+002;1.020829e-001
7.463481e+002;1.016879e-001
7.482766e+002;1.010586e-001
7.502052e+002;1.008439e-001
7.521337e+002;1.000192e-001
7.540623e+002;9.910992e-002
7.559908e+002;9.857654e-002
7.579194e+002;9.771090e-002
7.598479e+002;9.683684e-002
7.617765e+002;9.616861e-002
7.637050e+002;9.563696e-002
7.656335e+002;9.477036e-002
7.675621e+002;9.384136e-002
7.694907e+002;9.279929e-002
7.714192e+002;9.147473e-002
7.733478e+002;9.021762e-002
7.752763e+002;8.976221e-002
7.772048e+002;8.980499e-002
7.791334e+002;8.916259e-002
7.810620e+002;8.800444e-002
7.829905e+002;8.729926e-002
7.849191e+002;8.648575e-002
7.868476e+002;8.589309e-002
7.887761e+002;8.592108e-002
7.907047e+002;8.611383e-002
7.926332e+002;8.579324e-002
7.945618e+002;8.443865e-002
7.964903e+002;8.372328e-002
7.984189e+002;8.403699e-002
8.003474e+002;8.415317e-002
8.022759e+002;8.364823e-002
8.042045e+002;8.285505e-002
8.061331e+002;8.219648e-002
8.080616e+002;8.232522e-002
8.099902e+002;8.280809e-002
8.119187e+002;8.288712e-002
8.138472e+002;8.262326e-002
8.157758e+002;8.284470e-002
8.177043e+002;8.298466e-002
8.196329e+002;8.318610e-002
8.215615e+002;8.388717e-002
8.234900e+002;8.468639e-002
8.254185e+002;8.456106e-002
8.273471e+002;8.408508e-002
8.292756e+002;8.402485e-002
8.312042e+002;8.388250e-002
8.331328e+002;8.324606e-002
8.350613e+002;8.278163e-002
8.369898e+002;8.197437e-002
8.389184e+002;8.082727e-002
8.408469e+002;8.039300e-002
8.427755e+002;8.015053e-002
8.447040e+002;7.949992e-002
8.466326e+002;7.886060e-002
8.485611e+002;7.848276e-002
8.504897e+002;7.784113e-002
8.524182e+002;7.689058e-002
8.543467e+002;7.644138e-002
8.562753e+002;7.630596e-002
8.582039e+002;7.575933e-002
8.601324e+002;7.504708e-002
8.620610e+002;7.462426e-002
8.639895e+002;7.413786e-002
8.659180e+002;7.393472e-002
8.678466e+002;7.431350e-002
8.697751e+002;7.447827e-002
8.717037e+002;7.460777e-002
8.736323e+002;7.489610e-002
8.755608e+002;7.512306e-002
8.774893e+002;7.489236e-002
8.794179e+002;7.498525e-002
8.813464e+002;7.543128e-002
8.832750e+002;7.557546e-002
8.852036e+002;7.559758e-002
8.871321e+002;7.593326e-002
8.890606e+002;7.614128e-002
8.909892e+002;7.583674e-002
8.929177e+002;7.538099e-002
8.948463e+002;7.494926e-002
8.967748e+002;7.463028e-002
8.987034e+002;7.450616e-002
9.006319e+002;7.462591e-002
9.025605e+002;7.471216e-002
9.044890e+002;7.443622e-002
9.064175e+002;7.446899e-002
9.083461e+002;7.494142e-002
9.102747e+002;7.507768e-002
9.122032e+002;7.518928e-002
9.141318e+002;7.530682e-002
9.160603e+002;7.529436e-002
9.179888e+002;7.547843e-002
9.199174e+002;7.565887e-002
9.218459e+002;7.578533e-002
9.237745e+002;7.609545e-002
9.257031e+002;7.612727e-002
9.276316e+002;7.597245e-002
9.295601e+002;7.606426e-002
9.314887e+002;7.653942e-002
9.334172e+002;7.682568e-002
9.353458e+002;7.666891e-002
9.372744e+002;7.661945e-002
9.392029e+002;7.653566e-002
9.411314e+002;7.597052e-002
9.430600e+002;7.568474e-002
9.449885e+002;7.579728e-002
9.469171e+002;7.564569e-002
9.488456e+002;7.562811e-002
9.507742e+002;7.615352e-002
9.527027e+002;7.649880e-002
9.546313e+002;7.620213e-002
9.565598e+002;7.610441e-002
9.584883e+002;7.663721e-002
9.604169e+002;7.687642e-002
9.623455e+002;7.702424e-002
9.642740e+002;7.735596e-002
9.662026e+002;7.793949e-002
9.681311e+002;7.838032e-002
9.700596e+002;7.847939e-002
9.719882e+002;7.855862e-002
9.739167e+002;7.869472e-002
9.758453e+002;7.889087e-002
9.777739e+002;7.907791e-002
9.797024e+002;7.920910e-002
9.816309e+002;7.934006e-002
9.835595e+002;7.973103e-002
9.854880e+002;8.042486e-002
9.874166e+002;8.117771e-002
9.893452e+002;8.178753e-002
9.912737e+002;8.244912e-002
9.932022e+002;8.275625e-002
9.951307e+002;8.330326e-002
9.970593e+002;8.403663e-002
9.989879e+002;8.430027e-002
1.000916e+003;8.476525e-002
1.002845e+003;8.556093e-002
1.004773e+003;8.655660e-002
1.006702e+003;8.791433e-002
1.008631e+003;8.899370e-002
1.010559e+003;8.990838e-002
1.012488e+003;9.120081e-002
1.014416e+003;9.256812e-002
1.016345e+003;9.365773e-002
1.018273e+003;9.474234e-002
1.020202e+003;9.601177e-002
1.022130e+003;9.718142e-002
1.024059e+003;9.887823e-002
1.025988e+003;1.008001e-001
1.027916e+003;1.025581e-001
1.029845e+003;1.045785e-001
1.031773e+003;1.065026e-001
1.033702e+003;1.083521e-001
1.035630e+003;1.102914e-001
1.037559e+003;1.119818e-001
1.039487e+003;1.134534e-001
1.041416e+003;1.146014e-001
1.043344e+003;1.155927e-001
1.045273e+003;1.164089e-001
1.047202e+003;1.166147e-001
1.049130e+003;1.161086e-001
1.051059e+003;1.149391e-001
1.052987e+003;1.136820e-001
1.054916e+003;1.127936e-001
1.056844e+003;1.125059e-001
1.058773e+003;1.123254e-001
1.060701e+003;1.121204e-001
1.062630e+003;1.118611e-001
1.064558e+003;1.119118e-001
1.066487e+003;1.122202e-001
1.068416e+003;1.128807e-001
1.070344e+003;1.136993e-001
1.072273e+003;1.139352e-001
1.074201e+003;1.138530e-001
1.076130e+003;1.138320e-001
1.078058e+003;1.138621e-001
1.079987e+003;1.138067e-001
1.081915e+003;1.138942e-001
1.083844e+003;1.137612e-001
1.085773e+003;1.132143e-001
1.087701e+003;1.130030e-001
1.089630e+003;1.128343e-001
1.091558e+003;1.124294e-001
1.093487e+003;1.124077e-001
1.095415e+003;1.125568e-001
1.097344e+003;1.127315e-001
1.099272e+003;1.126424e-001
1.101201e+003;1.120274e-001
1.103129e+003;1.116174e-001
1.105058e+003;1.113477e-001
1.106987e+003;1.106650e-001
1.108915e+003;1.096581e-001
1.110844e+003;1.091302e-001
1.112772e+003;1.083497e-001
1.114701e+003;1.078322e-001
1.116629e+003;1.078499e-001
1.118558e+003;1.078228e-001
1.120486e+003;1.074984e-001
1.122415e+003;1.069886e-001
1.124344e+003;1.069311e-001
1.126272e+003;1.072078e-001
1.128201e+003;1.073066e-001
1.130129e+003;1.073353e-001
1.132058e+003;1.071245e-001
1.133986e+003;1.071056e-001
1.135915e+003;1.078559e-001
1.137843e+003;1.090471e-001
1.139772e+003;1.100620e-001
1.141700e+003;1.108563e-001
1.143629e+003;1.115632e-001
1.145557e+003;1.124483e-001
1.147486e+003;1.131695e-001
1.149415e+003;1.136462e-001
1.151343e+003;1.141643e-001
1.153272e+003;1.145335e-001
1.155200e+003;1.148112e-001
1.157129e+003;1.148100e-001
1.159057e+003;1.146800e-001
1.160986e+003;1.148466e-001
1.162914e+003;1.149264e-001
1.164843e+003;1.152503e-001
1.166771e+003;1.158068e-001
1.168700e+003;1.163940e-001
1.170629e+003;1.170034e-001
1.172557e+003;1.173233e-001
1.174486e+003;1.175220e-001
1.176414e+003;1.180649e-001
1.178343e+003;1.186099e-001
1.180271e+003;1.187379e-001
1.182200e+003;1.187890e-001
1.184128e+003;1.192642e-001
1.186057e+003;1.197629e-001
1.187986e+003;1.202717e-001
1.189914e+003;1.208639e-001
1.191843e+003;1.213134e-001
1.193771e+003;1.217548e-001
1.195700e+003;1.220527e-001
1.197628e+003;1.226112e-001
1.199557e+003;1.231500e-001
1.201485e+003;1.234856e-001
1.203414e+003;1.241665e-001
1.205343e+003;1.250521e-001
1.207271e+003;1.255727e-001
1.209200e+003;1.257411e-001
1.211128e+003;1.259860e-001
1.213057e+003;1.265068e-001
1.214985e+003;1.271673e-001
1.216914e+003;1.277695e-001
1.218842e+003;1.284000e-001
1.220771e+003;1.290405e-001
1.222699e+003;1.294717e-001
1.224628e+003;1.296459e-001
1.226557e+003;1.299084e-001
1.228485e+003;1.302504e-001
1.230414e+003;1.304709e-001
1.232342e+003;1.304591e-001
1.234271e+003;1.302448e-001
1.236199e+003;1.299225e-001
1.238128e+003;1.296525e-001
1.240056e+003;1.291872e-001
1.241985e+003;1.287571e-001
1.243913e+003;1.283783e-001
1.245842e+003;1.279572e-001
1.247771e+003;1.273958e-001
1.249699e+003;1.268933e-001
1.251628e+003;1.266033e-001
1.253556e+003;1.262630e-001
1.255485e+003;1.257081e-001
1.257413e+003;1.251580e-001
1.259342e+003;1.247249e-001
1.261270e+003;1.242755e-001
1.263199e+003;1.234204e-001
1.265127e+003;1.223318e-001
1.267056e+003;1.216836e-001
1.268985e+003;1.213285e-001
1.270913e+003;1.210649e-001
1.272842e+003;1.209327e-001
1.274770e+003;1.209175e-001
1.276699e+003;1.208241e-001
1.278627e+003;1.208929e-001
1.280556e+003;1.209512e-001
1.282484e+003;1.208286e-001
1.284413e+003;1.204103e-001
1.286342e+003;1.198018e-001
1.288270e+003;1.192880e-001
1.290199e+003;1.188189e-001
1.292127e+003;1.183269e-001
1.294056e+003;1.179048e-001
1.295984e+003;1.174983e-001
1.297913e+003;1.168938e-001
1.299841e+003;1.163388e-001
1.301770e+003;1.159049e-001
1.303698e+003;1.156204e-001
1.305627e+003;1.153860e-001
1.307556e+003;1.151123e-001
1.309484e+003;1.149407e-001
1.311413e+003;1.150423e-001
1.313341e+003;1.152335e-001
1.315270e+003;1.154513e-001
1.317198e+003;1.158755e-001
1.319127e+003;1.163167e-001
1.321055e+003;1.164789e-001
1.322984e+003;1.165182e-001
1.324912e+003;1.167867e-001
1.326841e+003;1.169616e-001
1.328770e+003;1.166897e-001
1.330698e+003;1.162338e-001
1.332627e+003;1.158240e-001
1.334555e+003;1.153359e-001
1.336484e+003;1.145841e-001
1.338412e+003;1.137920e-001
1.340341e+003;1.129475e-001
1.342269e+003;1.122925e-001
1.344198e+003;1.118036e-001
1.346126e+003;1.113888e-001
1.348055e+003;1.110428e-001
1.349984e+003;1.104492e-001
1.351912e+003;1.097817e-001
1.353841e+003;1.093284e-001
1.355769e+003;1.089936e-001
1.357698e+003;1.089649e-001
1.359626e+003;1.091315e-001
1.361555e+003;1.095642e-001
1.363483e+003;1.102590e-001
1.365412e+003;1.108994e-001
1.367341e+003;1.115066e-001
1.369269e+003;1.120669e-001
1.371198e+003;1.124003e-001
1.373126e+003;1.123828e-001
1.375055e+003;1.124011e-001
1.376983e+003;1.129954e-001
1.378912e+003;1.136406e-001
1.380840e+003;1.142112e-001
1.382769e+003;1.150531e-001
1.384698e+003;1.158505e-001
1.386626e+003;1.161633e-001
1.388555e+003;1.163249e-001
1.390483e+003;1.162807e-001
1.392412e+003;1.156606e-001
1.394340e+003;1.152182e-001
1.396269e+003;1.152179e-001
1.398197e+003;1.149733e-001
1.400126e+003;1.147915e-001
1.402054e+003;1.147175e-001
1.403983e+003;1.145345e-001
1.405911e+003;1.145884e-001
1.407840e+003;1.146634e-001
1.409769e+003;1.147291e-001
1.411697e+003;1.145047e-001
1.413626e+003;1.142749e-001
1.415554e+003;1.142447e-001
1.417483e+003;1.139607e-001
1.419411e+003;1.137585e-001
1.421340e+003;1.144083e-001
1.423268e+003;1.151253e-001
1.425197e+003;1.158112e-001
1.427125e+003;1.166361e-001
1.429054e+003;1.173418e-001
1.430983e+003;1.183258e-001
1.432911e+003;1.197453e-001
1.434840e+003;1.210840e-001
1.436768e+003;1.223461e-001
1.438697e+003;1.239548e-001
1.440625e+003;1.251763e-001
1.442554e+003;1.257011e-001
1.444482e+003;1.259661e-001
1.446411e+003;1.263767e-001
1.448340e+003;1.267130e-001
1.450268e+003;1.271385e-001
1.452197e+003;1.276126e-001
1.454125e+003;1.277347e-001
1.456054e+003;1.271976e-001
1.457982e+003;1.272107e-001
1.459911e+003;1.276231e-001
1.461839e+003;1.275352e-001
1.463768e+003;1.269623e-001
1.465697e+003;1.263878e-001
1.467625e+003;1.261110e-001
1.469554e+003;1.257418e-001
1.471482e+003;1.251733e-001
1.473411e+003;1.250680e-001
1.475339e+003;1.256823e-001
1.477268e+003;1.265962e-001
1.479196e+003;1.279463e-001
1.481125e+003;1.293254e-001
1.483053e+003;1.309931e-001
1.484982e+003;1.331832e-001
1.486911e+003;1.357386e-001
1.488839e+003;1.384750e-001
1.490768e+003;1.417145e-001
1.492696e+003;1.450932e-001
1.494625e+003;1.479654e-001
1.496553e+003;1.506102e-001
1.498482e+003;1.530545e-001
1.500410e+003;1.550867e-001
1.502339e+003;1.567406e-001
1.504267e+003;1.574014e-001
1.506196e+003;1.576140e-001
1.508125e+003;1.590132e-001
1.510053e+003;1.605926e-001
1.511982e+003;1.610399e-001
1.513910e+003;1.611687e-001
1.515839e+003;1.605830e-001
1.517767e+003;1.590597e-001
1.519696e+003;1.568015e-001
1.521624e+003;1.545844e-001
1.523553e+003;1.531043e-001
1.525481e+003;1.515194e-001
1.527410e+003;1.502277e-001
1.529339e+003;1.490202e-001
1.531267e+003;1.475308e-001
1.533196e+003;1.458998e-001
1.535124e+003;1.442272e-001
1.537053e+003;1.418335e-001
1.538981e+003;1.391927e-001
1.540910e+003;1.377169e-001
1.542838e+003;1.366890e-001
1.544767e+003;1.351647e-001
1.546695e+003;1.335450e-001
1.548624e+003;1.316755e-001
1.550553e+003;1.293366e-001
1.552481e+003;1.270341e-001
1.554410e+003;1.250124e-001
1.556338e+003;1.227708e-001
1.558267e+003;1.197798e-001
1.560195e+003;1.181469e-001
1.562124e+003;1.174191e-001
1.564052e+003;1.159887e-001
1.565981e+003;1.147018e-001
1.567910e+003;1.133202e-001
1.569838e+003;1.120440e-001
1.571767e+003;1.115753e-001
1.573695e+003;1.107816e-001
1.575624e+003;1.098239e-001
1.577552e+003;1.102709e-001
1.579481e+003;1.110554e-001
1.581409e+003;1.115331e-001
1.583338e+003;1.120789e-001
1.585266e+003;1.127094e-001
1.587195e+003;1.137687e-001
1.589124e+003;1.151927e-001
1.591052e+003;1.167110e-001
1.592981e+003;1.183240e-001
1.594909e+003;1.199978e-001
1.596838e+003;1.218834e-001
1.598766e+003;1.239210e-001
1.600695e+003;1.262236e-001
1.602623e+003;1.288969e-001
1.604552e+003;1.318603e-001
1.606480e+003;1.351094e-001
1.608409e+003;1.383492e-001
1.610338e+003;1.415819e-001
1.612266e+003;1.449701e-001
1.614195e+003;1.480765e-001
1.616123e+003;1.504028e-001
1.618052e+003;1.533233e-001
1.619980e+003;1.567838e-001
1.621909e+003;1.595052e-001
1.623837e+003;1.620271e-001
1.625766e+003;1.648355e-001
1.627694e+003;1.672310e-001
1.629623e+003;1.693881e-001
1.631552e+003;1.710887e-001
1.633480e+003;1.719148e-001
1.635409e+003;1.724848e-001
1.637337e+003;1.736210e-001
1.639266e+003;1.742664e-001
1.641194e+003;1.740437e-001
1.643123e+003;1.732376e-001
1.645051e+003;1.715902e-001
1.646980e+003;1.699946e-001
1.648909e+003;1.686892e-001
1.650837e+003;1.661223e-001
1.652766e+003;1.629003e-001
1.654694e+003;1.614195e-001
1.656623e+003;1.600055e-001
1.658551e+003;1.574483e-001
1.660480e+003;1.542980e-001
1.662408e+003;1.509736e-001
1.664337e+003;1.482259e-001
1.666266e+003;1.452973e-001
1.668194e+003;1.417837e-001
1.670123e+003;1.383498e-001
1.672051e+003;1.352160e-001
1.673980e+003;1.318171e-001
1.675908e+003;1.287232e-001
1.677837e+003;1.258621e-001
1.679765e+003;1.226834e-001
1.681694e+003;1.192217e-001
1.683622e+003;1.149473e-001
1.685551e+003;1.116243e-001
1.687479e+003;1.092589e-001
1.689408e+003;1.062544e-001
1.691337e+003;1.030548e-001
1.693265e+003;9.936367e-002
1.695194e+003;9.489064e-002
1.697122e+003;9.107840e-002
1.699051e+003;8.709550e-002
1.700979e+003;8.328263e-002
1.702908e+003;8.033228e-002
1.704836e+003;7.683743e-002
1.706765e+003;7.355933e-002
1.708693e+003;7.058548e-002
1.710622e+003;6.775940e-002
1.712551e+003;6.494644e-002
1.714479e+003;6.212196e-002
1.716408e+003;5.935208e-002
1.718336e+003;5.752340e-002
1.720265e+003;5.651807e-002
1.722193e+003;5.525042e-002
1.724122e+003;5.384806e-002
1.726050e+003;5.257339e-002
1.727979e+003;5.133717e-002
1.729908e+003;5.003827e-002
1.731836e+003;4.802898e-002
1.733765e+003;4.608715e-002
1.735693e+003;4.556679e-002
1.737622e+003;4.472619e-002
1.739550e+003;4.331950e-002
1.741479e+003;4.219178e-002
1.743407e+003;4.082558e-002
1.745336e+003;3.968235e-002
1.747265e+003;3.868756e-002
1.749193e+003;3.755495e-002
1.751122e+003;3.642306e-002
1.753050e+003;3.563879e-002
1.754979e+003;3.476591e-002
1.756907e+003;3.394045e-002
1.758836e+003;3.342062e-002
1.760764e+003;3.285749e-002
1.762693e+003;3.216961e-002
1.764621e+003;3.171408e-002
1.766550e+003;3.110585e-002
1.768479e+003;3.064781e-002
1.770407e+003;3.017574e-002
1.772336e+003;2.958707e-002
1.774264e+003;2.958753e-002
1.776193e+003;2.963698e-002
1.778121e+003;2.938444e-002
1.780050e+003;2.894061e-002
1.781978e+003;2.883448e-002
1.783907e+003;2.889443e-002
1.785835e+003;2.868359e-002
1.787764e+003;2.859401e-002
1.789693e+003;2.843263e-002
1.791621e+003;2.800632e-002
1.793550e+003;2.789826e-002
1.795478e+003;2.807273e-002
1.797407e+003;2.781983e-002
1.799335e+003;2.748701e-002
1.801264e+003;2.732343e-002
1.803192e+003;2.733257e-002
1.805121e+003;2.741295e-002
1.807049e+003;2.738507e-002
1.808978e+003;2.711554e-002
1.810907e+003;2.709110e-002
1.812835e+003;2.711751e-002
1.814764e+003;2.695492e-002
1.816692e+003;2.672050e-002
1.818621e+003;2.658112e-002
1.820549e+003;2.652484e-002
1.822478e+003;2.647447e-002
1.824406e+003;2.641426e-002
1.826335e+003;2.647620e-002
1.828264e+003;2.635926e-002
1.830192e+003;2.602502e-002
1.832121e+003;2.570693e-002
1.834049e+003;2.566008e-002
1.835978e+003;2.579806e-002
1.837906e+003;2.580285e-002
1.839835e+003;2.568742e-002
1.841763e+003;2.547350e-002
1.843692e+003;2.502867e-002
1.845620e+003;2.505053e-002
1.847549e+003;2.529424e-002
1.849478e+003;2.535100e-002
1.851406e+003;2.526372e-002
1.853335e+003;2.514539e-002
1.855263e+003;2.502519e-002
1.857192e+003;2.500178e-002
1.859120e+003;2.501838e-002
1.861049e+003;2.498911e-002
1.862977e+003;2.504678e-002
1.864906e+003;2.497262e-002
1.866834e+003;2.467834e-002
1.868763e+003;2.447648e-002
1.870692e+003;2.458913e-002
1.872620e+003;2.473940e-002
1.874549e+003;2.459715e-002
1.876477e+003;2.458043e-002
1.878406e+003;2.459214e-002
1.880334e+003;2.454863e-002
1.882263e+003;2.453201e-002
1.884191e+003;2.446242e-002
1.886120e+003;2.450032e-002
1.888048e+003;2.462093e-002
1.889977e+003;2.458018e-002
1.891906e+003;2.460441e-002
1.893834e+003;2.466021e-002
1.895763e+003;2.463169e-002
1.897691e+003;2.461328e-002
1.899620e+003;2.471842e-002
1.901548e+003;2.471958e-002
1.903477e+003;2.460708e-002
1.905405e+003;2.459915e-002
1.907334e+003;2.467185e-002
1.909262e+003;2.446077e-002
1.911191e+003;2.428186e-002
1.913120e+003;2.431568e-002
1.915048e+003;2.435468e-002
1.916977e+003;2.417388e-002
1.918905e+003;2.406313e-002
1.920834e+003;2.422440e-002
1.922762e+003;2.444416e-002
1.924691e+003;2.455448e-002
1.926619e+003;2.448128e-002
1.928548e+003;2.436607e-002
1.930477e+003;2.450421e-002
1.932405e+003;2.452202e-002
1.934334e+003;2.441019e-002
1.936262e+003;2.437896e-002
1.938191e+003;2.421676e-002
1.940119e+003;2.412908e-002
1.942048e+003;2.427156e-002
1.943976e+003;2.431413e-002
1.945905e+003;2.422909e-002
1.947833e+003;2.433964e-002
1.949762e+003;2.462913e-002
1.951691e+003;2.469275e-002
1.953619e+003;2.452773e-002
1.955548e+003;2.448384e-002
1.957476e+003;2.427951e-002
1.959405e+003;2.436169e-002
1.961333e+003;2.456202e-002
1.963262e+003;2.441272e-002
1.965190e+003;2.431273e-002
1.967119e+003;2.436509e-002
1.969047e+003;2.436607e-002
1.970976e+003;2.440189e-002
1.972905e+003;2.453685e-002
1.974833e+003;2.440974e-002
1.976762e+003;2.436526e-002
1.978690e+003;2.451017e-002
1.980619e+003;2.443641e-002
1.982547e+003;2.437711e-002
1.984476e+003;2.449046e-002
1.986404e+003;2.469384e-002
1.988333e+003;2.469075e-002
1.990261e+003;2.453464e-002
1.992190e+003;2.441040e-002
1.994119e+003;2.449138e-002
1.996047e+003;2.446603e-002
1.997976e+003;2.443424e-002
1.999904e+003;2.443333e-002
2.001833e+003;2.443490e-002
2.003761e+003;2.448023e-002
2.005690e+003;2.464008e-002
2.007618e+003;2.484285e-002
2.009547e+003;2.483555e-002
2.011476e+003;2.476353e-002
2.013404e+003;2.460981e-002
2.015333e+003;2.459526e-002
2.017261e+003;2.479339e-002
2.019190e+003;2.488527e-002
2.021118e+003;2.505299e-002
2.023047e+003;2.513159e-002
2.024975e+003;2.495802e-002
2.026904e+003;2.483706e-002
2.028833e+003;2.473158e-002
2.030761e+003;2.475894e-002
2.032690e+003;2.485099e-002
2.034618e+003;2.489612e-002
2.036547e+003;2.483450e-002
2.038475e+003;2.485025e-002
2.040404e+003;2.483524e-002
2.042332e+003;2.488783e-002
2.044261e+003;2.489682e-002
2.046189e+003;2.476623e-002
2.048118e+003;2.468444e-002
2.050047e+003;2.472895e-002
2.051975e+003;2.493640e-002
2.053904e+003;2.508374e-002
2.055832e+003;2.514795e-002
2.057761e+003;2.512653e-002
2.059689e+003;2.510063e-002
2.061618e+003;2.504418e-002
2.063546e+003;2.500178e-002
2.065475e+003;2.498686e-002
2.067404e+003;2.518218e-002
2.069332e+003;2.528813e-002
2.071260e+003;2.503330e-002
2.073189e+003;2.494310e-002
2.075118e+003;2.493594e-002
2.077046e+003;2.498729e-002
2.078975e+003;2.501407e-002
2.080903e+003;2.500603e-002
2.082832e+003;2.504594e-002
2.084760e+003;2.509610e-002
2.086689e+003;2.519163e-002
2.088617e+003;2.514967e-002
2.090546e+003;2.514455e-002
2.092475e+003;2.524851e-002
2.094403e+003;2.514054e-002
2.096332e+003;2.509448e-002
2.098260e+003;2.521010e-002
2.100189e+003;2.521336e-002
2.102117e+003;2.491661e-002
2.104046e+003;2.473975e-002
2.105974e+003;2.483443e-002
2.107903e+003;2.498500e-002
2.109832e+003;2.503474e-002
2.111760e+003;2.486022e-002
2.113688e+003;2.484510e-002
2.115617e+003;2.499090e-002
2.117546e+003;2.508950e-002
2.119474e+003;2.502596e-002
2.121403e+003;2.490096e-002
2.123331e+003;2.489292e-002
2.125260e+003;2.509266e-002
2.127188e+003;2.525459e-002
2.129117e+003;2.532880e-002
2.131045e+003;2.532287e-002
2.132974e+003;2.537907e-002
2.134903e+003;2.556321e-002
2.136831e+003;2.542565e-002
2.138760e+003;2.515697e-002
2.140688e+003;2.517428e-002
2.142617e+003;2.516614e-002
2.144545e+003;2.507016e-002
2.146474e+003;2.497244e-002
2.148402e+003;2.494363e-002
2.150331e+003;2.508107e-002
2.152260e+003;2.536382e-002
2.154188e+003;2.541883e-002
2.156117e+003;2.527812e-002
2.158045e+003;2.521140e-002
2.159974e+003;2.528648e-002
2.161902e+003;2.531184e-002
2.163831e+003;2.526632e-002
2.165759e+003;2.532476e-002
2.167688e+003;2.532065e-002
2.169616e+003;2.528279e-002
2.171545e+003;2.536442e-002
2.173474e+003;2.556181e-002
2.175402e+003;2.567266e-002
2.177331e+003;2.554378e-002
2.179259e+003;2.538901e-002
2.181188e+003;2.541940e-002
2.183116e+003;2.559277e-002
2.185045e+003;2.549567e-002
2.186973e+003;2.550305e-002
2.188902e+003;2.559895e-002
2.190831e+003;2.555952e-002
2.192759e+003;2.543232e-002
2.194688e+003;2.543218e-002
2.196616e+003;2.553323e-002
2.198545e+003;2.550463e-002
2.200473e+003;2.545614e-002
2.202402e+003;2.540959e-002
2.204330e+003;2.547438e-002
2.206259e+003;2.555587e-002
2.208188e+003;2.565934e-002
2.210116e+003;2.565561e-002
2.212044e+003;2.564862e-002
2.213973e+003;2.567769e-002
2.215902e+003;2.546324e-002
2.217830e+003;2.536291e-002
2.219759e+003;2.551535e-002
2.221687e+003;2.568183e-002
2.223616e+003;2.572202e-002
2.225544e+003;2.582004e-002
2.227473e+003;2.607069e-002
2.229401e+003;2.624541e-002
2.231330e+003;2.606840e-002
2.233259e+003;2.593891e-002
2.235187e+003;2.617949e-002
2.237116e+003;2.615876e-002
2.239044e+003;2.589241e-002
2.240973e+003;2.581878e-002
2.242901e+003;2.582721e-002
2.244830e+003;2.595442e-002
2.246758e+003;2.620434e-002
2.248687e+003;2.610271e-002
2.250615e+003;2.587392e-002
2.252544e+003;2.576617e-002
2.254473e+003;2.568862e-002
2.256401e+003;2.583358e-002
2.258330e+003;2.589910e-002
2.260258e+003;2.575819e-002
2.262187e+003;2.580102e-002
2.264115e+003;2.591225e-002
2.266044e+003;2.589125e-002
2.267972e+003;2.589692e-002
2.269901e+003;2.592885e-002
2.271830e+003;2.578892e-002
2.273758e+003;2.586825e-002
2.275687e+003;2.619807e-002
2.277615e+003;2.621976e-002
2.279544e+003;2.589379e-002
2.281472e+003;2.589379e-002
2.283401e+003;2.588925e-002
2.285329e+003;2.580721e-002
2.287258e+003;2.594345e-002
2.289187e+003;2.600124e-002
2.291115e+003;2.607379e-002
2.293043e+003;2.626153e-002
2.294972e+003;2.624397e-002
2.296901e+003;2.618189e-002
2.298829e+003;2.594749e-002
2.300758e+003;2.577546e-002
2.302686e+003;2.588091e-002
2.304615e+003;2.597300e-002
2.306543e+003;2.604205e-002
2.308472e+003;2.612660e-002
2.310400e+003;2.604036e-002
2.312329e+003;2.589593e-002
2.314258e+003;2.595182e-002
2.316186e+003;2.593824e-002
2.318115e+003;2.572072e-002
2.320043e+003;2.577535e-002
2.321972e+003;2.587335e-002
2.323900e+003;2.567252e-002
2.325829e+003;2.557354e-002
2.327757e+003;2.553682e-002
2.329686e+003;2.536786e-002
2.331615e+003;2.533453e-002
2.333543e+003;2.552803e-002
2.335472e+003;2.574381e-002
2.337400e+003;2.565575e-002
2.339329e+003;2.524532e-002
2.341257e+003;2.499911e-002
2.343186e+003;2.517327e-002
2.345114e+003;2.570929e-002
2.347043e+003;2.617083e-002
2.348971e+003;2.637496e-002
2.350900e+003;2.612161e-002
2.352829e+003;2.579100e-002
2.354757e+003;2.573752e-002
2.356686e+003;2.578316e-002
2.358614e+003;2.592716e-002
2.360543e+003;2.582672e-002
2.362471e+003;2.565842e-002
2.364400e+003;2.561365e-002
2.366328e+003;2.567983e-002
2.368257e+003;2.581522e-002
2.370186e+003;2.612635e-002
2.372114e+003;2.629406e-002
2.374042e+003;2.650730e-002
2.375971e+003;2.672613e-002
2.377900e+003;2.704081e-002
2.379828e+003;2.729389e-002
2.381757e+003;2.721095e-002
2.383685e+003;2.703044e-002
2.385614e+003;2.709586e-002
2.387542e+003;2.721039e-002
2.389471e+003;2.725163e-002
2.391399e+003;2.745023e-002
2.393328e+003;2.749029e-002
2.395257e+003;2.757692e-002
2.397185e+003;2.771799e-002
2.399114e+003;2.770281e-002
2.401042e+003;2.791536e-002
2.402971e+003;2.787508e-002
2.404899e+003;2.756764e-002
2.406828e+003;2.773805e-002
2.408756e+003;2.809266e-002
2.410685e+003;2.823892e-002
2.412614e+003;2.812985e-002
2.414542e+003;2.814502e-002
2.416471e+003;2.841035e-002
2.418399e+003;2.859578e-002
2.420328e+003;2.852660e-002
2.422256e+003;2.829002e-002
2.424185e+003;2.832210e-002
2.426113e+003;2.872713e-002
2.428042e+003;2.881624e-002
2.429970e+003;2.849695e-002
2.431899e+003;2.850137e-002
2.433828e+003;2.868759e-002
2.435756e+003;2.879741e-002
2.437685e+003;2.905215e-002
2.439613e+003;2.930641e-002
2.441542e+003;2.925317e-002
2.443470e+003;2.905637e-002
2.445399e+003;2.912556e-002
2.447327e+003;2.922968e-002
2.449256e+003;2.920919e-002
2.451185e+003;2.925424e-002
2.453113e+003;2.954011e-002
2.455042e+003;2.967316e-002
2.456970e+003;2.985913e-002
2.458899e+003;3.001973e-002
2.460827e+003;2.987088e-002
2.462756e+003;2.965471e-002
2.464684e+003;2.978198e-002
2.466613e+003;2.990489e-002
2.468542e+003;3.006081e-002
2.470470e+003;3.028397e-002
2.472398e+003;3.039924e-002
2.474327e+003;3.023548e-002
2.476256e+003;3.045326e-002
2.478184e+003;3.079152e-002
2.480113e+003;3.076215e-002
2.482041e+003;3.081504e-002
2.483970e+003;3.098780e-002
2.485898e+003;3.104164e-002
2.487827e+003;3.095161e-002
2.489755e+003;3.093133e-002
2.491684e+003;3.080931e-002
2.493613e+003;3.096677e-002
2.495541e+003;3.118495e-002
2.497470e+003;3.119289e-002
2.499398e+003;3.141022e-002
2.501327e+003;3.163842e-002
2.503255e+003;3.154858e-002
2.505184e+003;3.136484e-002
2.507112e+003;3.144687e-002
2.509041e+003;3.158404e-002
2.510969e+003;3.175119e-002
2.512898e+003;3.202458e-002
2.514827e+003;3.201392e-002
2.516755e+003;3.206493e-002
2.518684e+003;3.210866e-002
2.520612e+003;3.203603e-002
2.522541e+003;3.191213e-002
2.524469e+003;3.215408e-002
2.526398e+003;3.238500e-002
2.528326e+003;3.245804e-002
2.530255e+003;3.263432e-002
2.532184e+003;3.271059e-002
2.534112e+003;3.267790e-002
2.536041e+003;3.262489e-002
2.537969e+003;3.267086e-002
2.539898e+003;3.267029e-002
2.541826e+003;3.272063e-002
2.543755e+003;3.257485e-002
2.545683e+003;3.235633e-002
2.547612e+003;3.267261e-002
2.549541e+003;3.298988e-002
2.551469e+003;3.297000e-002
2.553397e+003;3.299538e-002
2.555326e+003;3.306714e-002
2.557255e+003;3.324645e-002
2.559183e+003;3.342019e-002
2.561112e+003;3.319716e-002
2.563040e+003;3.302177e-002
2.564969e+003;3.341110e-002
2.566897e+003;3.357717e-002
2.568826e+003;3.346302e-002
2.570754e+003;3.355973e-002
2.572683e+003;3.376704e-002
2.574612e+003;3.389746e-002
2.576540e+003;3.392931e-002
2.578469e+003;3.396048e-002
2.580397e+003;3.399226e-002
2.582326e+003;3.404393e-002
2.584254e+003;3.415858e-002
2.586183e+003;3.428083e-002
2.588111e+003;3.437464e-002
2.590040e+003;3.444472e-002
2.591969e+003;3.439365e-002
2.593897e+003;3.428514e-002
2.595826e+003;3.433641e-002
2.597754e+003;3.466864e-002
2.599683e+003;3.504232e-002
2.601611e+003;3.516629e-002
2.603540e+003;3.498722e-002
2.605468e+003;3.490334e-002
2.607397e+003;3.517139e-002
2.609325e+003;3.531560e-002
2.611254e+003;3.531484e-002
2.613183e+003;3.516360e-002
2.615111e+003;3.504885e-002
2.617040e+003;3.514800e-002
2.618968e+003;3.539421e-002
2.620897e+003;3.544497e-002
2.622825e+003;3.535118e-002
2.624754e+003;3.534805e-002
2.626682e+003;3.535751e-002
2.628611e+003;3.539112e-002
2.630540e+003;3.568789e-002
2.632468e+003;3.587139e-002
2.634396e+003;3.582889e-002
2.636325e+003;3.581608e-002
2.638254e+003;3.595517e-002
2.640182e+003;3.613647e-002
2.642111e+003;3.593908e-002
2.644039e+003;3.587991e-002
2.645968e+003;3.592512e-002
2.647896e+003;3.606018e-002
2.649825e+003;3.621001e-002
2.651753e+003;3.615823e-002
2.653682e+003;3.621919e-002
2.655611e+003;3.627398e-002
2.657539e+003;3.630298e-002
2.659468e+003;3.640324e-002
2.661396e+003;3.661955e-002
2.663325e+003;3.688852e-002
2.665253e+003;3.694700e-002
2.667182e+003;3.682544e-002
2.669110e+003;3.694740e-002
2.671039e+003;3.694227e-002
2.672968e+003;3.678988e-002
2.674896e+003;3.704788e-002
2.676825e+003;3.736168e-002
2.678753e+003;3.739768e-002
2.680682e+003;3.710270e-002
2.682610e+003;3.706343e-002
2.684539e+003;3.750445e-002
2.686467e+003;3.779276e-002
2.688396e+003;3.793354e-002
2.690324e+003;3.797770e-002
2.692253e+003;3.819668e-002
2.694182e+003;3.811857e-002
2.696110e+003;3.790668e-002
2.698039e+003;3.816231e-002
2.699967e+003;3.833139e-002
2.701896e+003;3.852086e-002
2.703824e+003;3.888979e-002
2.705753e+003;3.907051e-002
2.707681e+003;3.881370e-002
2.709610e+003;3.869027e-002
2.711539e+003;3.885243e-002
2.713467e+003;3.912464e-002
2.715396e+003;3.960376e-002
2.717324e+003;3.986572e-002
2.719253e+003;3.975816e-002
2.721181e+003;3.988693e-002
2.723110e+003;4.014555e-002
2.725038e+003;4.006989e-002
2.726967e+003;3.993789e-002
2.728896e+003;4.014983e-002
2.730824e+003;4.055540e-002
2.732752e+003;4.077888e-002
2.734681e+003;4.092234e-002
2.736610e+003;4.090836e-002
2.738538e+003;4.089096e-002
2.740467e+003;4.088852e-002
2.742395e+003;4.104156e-002
2.744324e+003;4.129671e-002
2.746252e+003;4.146159e-002
2.748181e+003;4.170192e-002
2.750109e+003;4.190147e-002
2.752038e+003;4.218550e-002
2.753967e+003;4.240175e-002
2.755895e+003;4.256589e-002
2.757824e+003;4.272975e-002
2.759752e+003;4.259966e-002
2.761681e+003;4.240241e-002
2.763609e+003;4.260492e-002
2.765538e+003;4.289606e-002
2.767466e+003;4.300158e-002
2.769395e+003;4.301238e-002
2.771323e+003;4.315603e-002
2.773252e+003;4.321858e-002
2.775181e+003;4.330137e-002
2.777109e+003;4.346354e-002
2.779038e+003;4.358643e-002
2.780966e+003;4.365277e-002
2.782895e+003;4.384007e-002
2.784823e+003;4.418603e-002
2.786752e+003;4.421075e-002
2.788680e+003;4.407537e-002
2.790609e+003;4.436621e-002
2.792538e+003;4.492530e-002
2.794466e+003;4.518097e-002
2.796395e+003;4.522458e-002
2.798323e+003;4.532862e-002
2.800252e+003;4.555387e-002
2.802180e+003;4.579906e-002
2.804109e+003;4.598993e-002
2.806037e+003;4.630440e-002
2.807966e+003;4.677918e-002
2.809895e+003;4.688407e-002
2.811823e+003;4.685159e-002
2.813751e+003;4.692338e-002
2.815680e+003;4.707550e-002
2.817609e+003;4.735923e-002
2.819537e+003;4.743066e-002
2.821466e+003;4.733942e-002
2.823394e+003;4.750810e-002
2.825323e+003;4.806636e-002
2.827251e+003;4.866088e-002
2.829180e+003;4.879896e-002
2.831108e+003;4.904476e-002
2.833037e+003;4.951898e-002
2.834966e+003;4.972922e-002
2.836894e+003;5.009925e-002
2.838823e+003;5.077190e-002
2.840751e+003;5.126662e-002
2.842680e+003;5.173828e-002
2.844608e+003;5.224498e-002
2.846537e+003;5.276521e-002
2.848465e+003;5.323947e-002
2.850394e+003;5.372445e-002
2.852323e+003;5.455067e-002
2.854251e+003;5.525877e-002
2.856180e+003;5.543996e-002
2.858108e+003;5.600626e-002
2.860037e+003;5.680389e-002
2.861965e+003;5.743573e-002
2.863894e+003;5.808121e-002
2.865822e+003;5.863655e-002
2.867751e+003;5.952905e-002
2.869679e+003;6.036487e-002
2.871608e+003;6.094781e-002
2.873536e+003;6.158406e-002
2.875465e+003;6.197847e-002
2.877394e+003;6.202372e-002
2.879322e+003;6.199525e-002
2.881251e+003;6.196636e-002
2.883179e+003;6.184466e-002
2.885108e+003;6.183343e-002
2.887036e+003;6.187446e-002
2.888965e+003;6.189035e-002
2.890893e+003;6.183407e-002
2.892822e+003;6.191011e-002
2.894750e+003;6.216902e-002
2.896679e+003;6.253847e-002
2.898608e+003;6.285222e-002
2.900536e+003;6.307212e-002
2.902465e+003;6.329623e-002
2.904393e+003;6.371196e-002
2.906322e+003;6.431866e-002
2.908250e+003;6.472717e-002
2.910179e+003;6.520849e-002
2.912107e+003;6.565750e-002
2.914036e+003;6.568101e-002
2.915965e+003;6.626816e-002
2.917893e+003;6.761125e-002
2.919822e+003;6.847035e-002
2.921750e+003;6.878581e-002
2.923679e+003;6.929827e-002
2.925607e+003;6.970356e-002
2.927536e+003;7.032298e-002
2.929464e+003;7.084533e-002
2.931393e+003;7.079751e-002
2.933322e+003;7.085212e-002
2.935250e+003;7.109047e-002
2.937178e+003;7.142795e-002
2.939107e+003;7.177617e-002
2.941036e+003;7.156592e-002
2.942964e+003;7.111884e-002
2.944893e+003;7.104906e-002
2.946821e+003;7.132246e-002
2.948750e+003;7.139823e-002
2.950678e+003;7.105000e-002
2.952607e+003;7.086339e-002
2.954535e+003;7.090767e-002
2.956464e+003;7.107978e-002
2.958393e+003;7.140311e-002
2.960321e+003;7.145529e-002
2.962250e+003;7.099795e-002
2.964178e+003;7.083765e-002
2.966107e+003;7.101484e-002
2.968035e+003;7.078496e-002
2.969964e+003;7.029976e-002
2.971892e+003;7.020818e-002
2.973821e+003;7.032111e-002
2.975750e+003;6.986270e-002
2.977678e+003;6.894779e-002
2.979607e+003;6.837144e-002
2.981535e+003;6.797909e-002
2.983464e+003;6.708164e-002
2.985392e+003;6.629001e-002
2.987321e+003;6.576377e-002
2.989249e+003;6.549203e-002
2.991178e+003;6.497642e-002
2.993106e+003;6.432980e-002
2.995035e+003;6.386988e-002
2.996964e+003;6.332598e-002
2.998892e+003;6.308135e-002
3.000821e+003;6.310741e-002
3.002749e+003;6.279440e-002
3.004678e+003;6.249742e-002
3.006606e+003;6.249547e-002
3.008535e+003;6.233564e-002
3.010463e+003;6.221877e-002
3.012392e+003;6.240943e-002
3.014321e+003;6.240568e-002
3.016249e+003;6.230015e-002
3.018177e+003;6.234903e-002
3.020106e+003;6.245353e-002
3.022035e+003;6.257755e-002
3.023963e+003;6.310051e-002
3.025892e+003;6.352702e-002
3.027820e+003;6.343073e-002
3.029749e+003;6.332993e-002
3.031677e+003;6.326323e-002
3.033606e+003;6.334672e-002
3.035534e+003;6.386109e-002
3.037463e+003;6.461289e-002
3.039392e+003;6.475956e-002
3.041320e+003;6.465084e-002
3.043249e+003;6.481552e-002
3.045177e+003;6.505447e-002
3.047106e+003;6.561071e-002
3.049034e+003;6.582658e-002
3.050963e+003;6.575078e-002
3.052891e+003;6.589452e-002
3.054820e+003;6.571636e-002
3.056749e+003;6.586085e-002
3.058677e+003;6.627422e-002
3.060606e+003;6.642145e-002
3.062534e+003;6.648682e-002
3.064463e+003;6.642821e-002
3.066391e+003;6.631170e-002
3.068320e+003;6.630440e-002
3.070248e+003;6.582704e-002
3.072177e+003;6.587797e-002
3.074105e+003;6.618711e-002
3.076034e+003;6.588797e-002
3.077963e+003;6.566150e-002
3.079891e+003;6.576366e-002
3.081820e+003;6.583784e-002
3.083748e+003;6.558127e-002
3.085677e+003;6.539461e-002
3.087605e+003;6.540343e-002
3.089534e+003;6.564717e-002
3.091462e+003;6.577136e-002
3.093391e+003;6.542912e-002
3.095320e+003;6.538641e-002
3.097248e+003;6.533194e-002
3.099177e+003;6.491035e-002
3.101105e+003;6.422199e-002
3.103034e+003;6.405946e-002
3.104962e+003;6.470483e-002
3.106891e+003;6.486007e-002
3.108819e+003;6.487665e-002
3.110748e+003;6.517676e-002
3.112677e+003;6.520067e-002
3.114605e+003;6.526393e-002
3.116533e+003;6.522943e-002
3.118462e+003;6.506232e-002
3.120391e+003;6.505782e-002
3.122319e+003;6.533333e-002
3.124248e+003;6.541865e-002
3.126176e+003;6.548298e-002
3.128105e+003;6.573964e-002
3.130033e+003;6.628248e-002
3.131962e+003;6.657356e-002
3.133890e+003;6.662984e-002
3.135819e+003;6.677936e-002
3.137748e+003;6.695776e-002
3.139676e+003;6.727847e-002
3.141605e+003;6.765872e-002
3.143533e+003;6.805745e-002
3.145462e+003;6.829679e-002
3.147390e+003;6.828903e-002
3.149319e+003;6.846880e-002
3.151247e+003;6.907275e-002
3.153176e+003;6.985083e-002
3.155104e+003;7.062489e-002
3.157033e+003;7.075890e-002
3.158962e+003;7.062481e-002
3.160890e+003;7.088516e-002
3.162819e+003;7.106612e-002
3.164747e+003;7.160093e-002
3.166676e+003;7.249920e-002
3.168604e+003;7.301826e-002
3.170533e+003;7.288214e-002
3.172461e+003;7.272181e-002
3.174390e+003;7.328781e-002
3.176319e+003;7.410080e-002
3.178247e+003;7.463174e-002
3.180176e+003;7.522891e-002
3.182104e+003;7.522639e-002
3.184033e+003;7.491268e-002
3.185961e+003;7.486544e-002
3.187890e+003;7.545399e-002
3.189818e+003;7.618532e-002
3.191747e+003;7.668002e-002
3.193676e+003;7.675846e-002
3.195604e+003;7.665104e-002
3.197532e+003;7.672631e-002
3.199461e+003;7.685404e-002
3.201390e+003;7.687140e-002
3.203318e+003;7.728454e-002
3.205247e+003;7.799591e-002
3.207175e+003;7.811739e-002
3.209104e+003;7.793362e-002
3.211032e+003;7.825036e-002
3.212961e+003;7.904257e-002
3.214889e+003;7.922927e-002
3.216818e+003;7.898009e-002
3.218747e+003;7.919396e-002
3.220675e+003;7.917248e-002
3.222604e+003;7.898259e-002
3.224532e+003;7.916966e-002
3.226461e+003;7.944246e-002
3.228389e+003;7.960569e-002
3.230318e+003;8.005287e-002
3.232246e+003;8.018257e-002
3.234175e+003;8.024319e-002
3.236104e+003;8.041406e-002
3.238032e+003;8.079985e-002
3.239961e+003;8.084203e-002
3.241889e+003;8.091452e-002
3.243818e+003;8.155403e-002
3.245746e+003;8.177125e-002
3.247675e+003;8.167107e-002
3.249603e+003;8.212771e-002
3.251532e+003;8.267063e-002
3.253460e+003;8.279895e-002
3.255389e+003;8.325730e-002
3.257318e+003;8.352774e-002
3.259246e+003;8.307423e-002
3.261175e+003;8.296376e-002
3.263103e+003;8.373084e-002
3.265032e+003;8.417002e-002
3.266960e+003;8.417151e-002
3.268889e+003;8.403583e-002
3.270817e+003;8.412401e-002
3.272746e+003;8.454777e-002
3.274675e+003;8.483916e-002
3.276603e+003;8.468997e-002
3.278531e+003;8.486909e-002
3.280460e+003;8.517303e-002
3.282389e+003;8.536847e-002
3.284317e+003;8.542114e-002
3.286246e+003;8.587399e-002
3.288174e+003;8.604725e-002
3.290103e+003;8.570476e-002
3.292031e+003;8.492791e-002
3.293960e+003;8.454234e-002
3.295888e+003;8.470121e-002
3.297817e+003;8.497771e-002
3.299746e+003;8.491087e-002
3.301674e+003;8.446715e-002
3.303603e+003;8.409188e-002
3.305531e+003;8.375374e-002
3.307460e+003;8.351979e-002
3.309388e+003;8.365948e-002
3.311317e+003;8.343224e-002
3.313245e+003;8.304351e-002
3.315174e+003;8.246875e-002
3.317103e+003;8.206157e-002
3.319031e+003;8.188002e-002
3.320960e+003;8.171869e-002
3.322888e+003;8.143579e-002
3.324817e+003;8.168418e-002
3.326745e+003;8.150746e-002
3.328674e+003;8.073808e-002
3.330602e+003;8.031367e-002
3.332531e+003;7.988107e-002
3.334459e+003;7.952788e-002
3.336388e+003;7.931723e-002
3.338317e+003;7.926521e-002
3.340245e+003;7.878277e-002
3.342174e+003;7.820109e-002
3.344102e+003;7.818565e-002
3.346031e+003;7.802870e-002
3.347959e+003;7.749123e-002
3.349888e+003;7.680155e-002
3.351816e+003;7.626161e-002
3.353745e+003;7.553859e-002
3.355674e+003;7.521307e-002
3.357602e+003;7.537208e-002
3.359531e+003;7.505066e-002
3.361459e+003;7.421647e-002
3.363388e+003;7.338200e-002
3.365316e+003;7.277764e-002
3.367245e+003;7.238865e-002
3.369173e+003;7.191280e-002
3.371102e+003;7.154119e-002
3.373031e+003;7.153466e-002
3.374959e+003;7.130185e-002
3.376887e+003;7.054919e-002
3.378816e+003;7.014541e-002
3.380745e+003;6.978752e-002
3.382673e+003;6.909248e-002
3.384602e+003;6.835430e-002
3.386530e+003;6.800273e-002
3.388459e+003;6.799103e-002
3.390387e+003;6.782594e-002
3.392316e+003;6.724593e-002
3.394244e+003;6.644393e-002
3.396173e+003;6.591542e-002
3.398102e+003;6.548499e-002
3.400030e+003;6.483749e-002
3.401959e+003;6.416826e-002
3.403887e+003;6.382865e-002
3.405816e+003;6.368211e-002
3.407744e+003;6.371315e-002
3.409673e+003;6.333775e-002
3.411601e+003;6.256729e-002
3.413530e+003;6.199300e-002
3.415458e+003;6.154291e-002
3.417387e+003;6.154474e-002
3.419316e+003;6.104759e-002
3.421244e+003;5.927801e-002
3.423173e+003;5.855969e-002
3.425101e+003;5.895340e-002
3.427030e+003;5.841498e-002
3.428958e+003;5.768007e-002
3.430887e+003;5.688698e-002
3.432815e+003;5.629656e-002
3.434744e+003;5.582118e-002
3.436673e+003;5.529339e-002
3.438601e+003;5.481267e-002
3.440530e+003;5.394004e-002
3.442458e+003;5.330558e-002
3.444387e+003;5.286029e-002
3.446315e+003;5.248133e-002
3.448244e+003;5.247093e-002
3.450172e+003;5.172144e-002
3.452101e+003;5.072341e-002
3.454030e+003;5.042292e-002
3.455958e+003;5.044179e-002
3.457886e+003;5.042497e-002
3.459815e+003;4.997198e-002
3.461744e+003;4.953413e-002
3.463672e+003;4.903270e-002
3.465601e+003;4.840230e-002
3.467529e+003;4.799697e-002
3.469458e+003;4.753135e-002
3.471386e+003;4.693114e-002
3.473315e+003;4.679642e-002
3.475243e+003;4.724111e-002
3.477172e+003;4.742660e-002
3.479101e+003;4.675162e-002
3.481029e+003;4.577457e-002
3.482958e+003;4.508046e-002
3.484886e+003;4.445980e-002
3.486815e+003;4.435997e-002
3.488743e+003;4.434930e-002
3.490672e+003;4.401685e-002
3.492600e+003;4.342517e-002
3.494529e+003;4.288655e-002
3.496458e+003;4.290820e-002
3.498386e+003;4.294408e-002
3.500315e+003;4.218674e-002
3.502243e+003;4.123243e-002
3.504172e+003;4.050444e-002
3.506100e+003;4.061164e-002
3.508029e+003;4.064402e-002
3.509957e+003;4.016463e-002
3.511886e+003;3.964532e-002
3.513814e+003;3.927876e-002
3.515743e+003;3.875395e-002
3.517672e+003;3.856526e-002
3.519600e+003;3.855171e-002
3.521529e+003;3.786138e-002
3.523457e+003;3.682530e-002
3.525386e+003;3.646677e-002
3.527314e+003;3.625013e-002
3.529243e+003;3.604653e-002
3.531171e+003;3.643066e-002
3.533100e+003;3.645805e-002
3.535029e+003;3.601971e-002
3.536957e+003;3.553856e-002
3.538885e+003;3.502213e-002
3.540814e+003;3.458044e-002
3.542743e+003;3.446912e-002
3.544671e+003;3.413016e-002
3.546600e+003;3.376647e-002
3.548528e+003;3.315260e-002
3.550457e+003;3.250582e-002
3.552385e+003;3.233859e-002
3.554314e+003;3.232535e-002
3.556242e+003;3.208808e-002
3.558171e+003;3.186741e-002
3.560100e+003;3.149717e-002
3.562028e+003;3.079135e-002
3.563957e+003;3.007789e-002
3.565885e+003;2.932009e-002
3.567814e+003;2.918743e-002
3.569742e+003;2.921111e-002
3.571671e+003;2.901797e-002
3.573599e+003;2.866958e-002
3.575528e+003;2.816474e-002
3.577457e+003;2.770698e-002
3.579385e+003;2.734816e-002
3.581314e+003;2.703538e-002
3.583242e+003;2.662709e-002
3.585171e+003;2.630202e-002
3.587099e+003;2.607428e-002
3.589028e+003;2.558373e-002
3.590956e+003;2.538093e-002
3.592885e+003;2.533379e-002
3.594813e+003;2.470755e-002
3.596742e+003;2.431112e-002
3.598671e+003;2.375239e-002
3.600599e+003;2.315226e-002
3.602528e+003;2.318801e-002
3.604456e+003;2.307157e-002
3.606385e+003;2.244614e-002
3.608313e+003;2.170279e-002
3.610242e+003;2.165148e-002
3.612170e+003;2.159771e-002
3.614099e+003;2.152198e-002
3.616028e+003;2.128528e-002
3.617956e+003;2.105067e-002
3.619885e+003;2.039365e-002
3.621813e+003;1.975990e-002
3.623742e+003;1.923733e-002
3.625670e+003;1.829449e-002
3.627599e+003;1.735013e-002
3.629527e+003;1.749417e-002
3.631456e+003;1.790010e-002
3.633385e+003;1.733641e-002
3.635313e+003;1.708082e-002
3.637241e+003;1.706401e-002
3.639170e+003;1.675627e-002
3.641099e+003;1.616091e-002
3.643027e+003;1.586027e-002
3.644956e+003;1.529733e-002
3.646884e+003;1.431553e-002
3.648813e+003;1.371835e-002
3.650741e+003;1.418128e-002
3.652670e+003;1.443034e-002
3.654598e+003;1.323479e-002
3.656527e+003;1.231381e-002
3.658456e+003;1.215291e-002
3.660384e+003;1.201183e-002
3.662313e+003;1.223136e-002
3.664241e+003;1.214951e-002
3.666170e+003;1.167215e-002
3.668098e+003;1.105802e-002
3.670027e+003;1.051427e-002
3.671955e+003;1.071124e-002
3.673884e+003;9.956084e-003
3.675813e+003;9.247932e-003
3.677741e+003;1.004641e-002
3.679669e+003;1.083195e-002
3.681598e+003;1.081106e-002
3.683527e+003;9.887742e-003
3.685455e+003;9.212664e-003
3.687384e+003;8.361433e-003
3.689312e+003;8.364608e-003
3.691241e+003;8.738223e-003
3.693169e+003;8.742448e-003
3.695098e+003;8.949164e-003
3.697026e+003;8.847840e-003
3.698955e+003;8.367107e-003
3.700884e+003;8.196187e-003
3.702812e+003;8.852473e-003
3.704741e+003;8.951532e-003
3.706669e+003;8.612173e-003
3.708598e+003;8.351502e-003
3.710526e+003;7.910593e-003
3.712455e+003;7.894295e-003
3.714383e+003;8.178191e-003
3.716312e+003;8.226915e-003
3.718240e+003;8.336809e-003
3.720169e+003;8.311545e-003
3.722098e+003;7.790079e-003
3.724026e+003;7.760968e-003
3.725955e+003;7.785357e-003
3.727883e+003;7.818417e-003
3.729812e+003;7.848409e-003
3.731740e+003;7.738538e-003
3.733669e+003;7.821116e-003
3.735597e+003;7.984700e-003
3.737526e+003;7.856607e-003
3.739455e+003;7.673478e-003
3.741383e+003;7.836837e-003
3.743312e+003;6.938867e-003
3.745240e+003;6.855817e-003
3.747169e+003;7.290467e-003
3.749097e+003;6.790115e-003
3.751026e+003;6.598183e-003
3.752954e+003;7.075108e-003
3.754883e+003;7.797434e-003
3.756812e+003;8.118163e-003
3.758740e+003;8.248392e-003
3.760668e+003;7.971200e-003
3.762597e+003;7.836736e-003
3.764526e+003;7.648117e-003
3.766454e+003;7.988513e-003
3.768383e+003;8.070363e-003
3.770311e+003;7.824287e-003
3.772240e+003;7.975318e-003
3.774168e+003;8.295874e-003
3.776097e+003;8.266965e-003
3.778025e+003;8.300704e-003
3.779954e+003;8.059156e-003
3.781883e+003;7.925541e-003
3.783811e+003;8.039781e-003
3.785740e+003;8.576078e-003
3.787668e+003;9.005349e-003
3.789597e+003;8.563168e-003
3.791525e+003;8.282162e-003
3.793454e+003;8.932895e-003
3.795382e+003;9.087593e-003
3.797311e+003;8.866202e-003
3.799240e+003;8.343733e-003
3.801168e+003;7.665046e-003
3.803097e+003;7.718232e-003
3.805025e+003;7.454660e-003
3.806954e+003;7.435143e-003
3.808882e+003;8.864274e-003
3.810811e+003;9.468096e-003
3.812739e+003;8.601087e-003
3.814668e+003;7.530171e-003
3.816596e+003;7.990403e-003
3.818525e+003;8.941588e-003
3.820454e+003;8.282702e-003
3.822382e+003;8.242381e-003
3.824311e+003;8.420042e-003
3.826239e+003;8.062093e-003
3.828168e+003;8.058379e-003
3.830096e+003;7.904553e-003
3.832025e+003;8.151552e-003
3.833953e+003;8.273382e-003
3.835882e+003;7.962290e-003
3.837811e+003;7.983383e-003
3.839739e+003;8.140175e-003
3.841667e+003;8.258928e-003
3.843596e+003;8.248358e-003
3.845525e+003;8.186665e-003
3.847453e+003;8.818725e-003
3.849382e+003;8.633161e-003
3.851310e+003;7.381082e-003
3.853239e+003;6.769316e-003
3.855167e+003;7.876244e-003
3.857096e+003;9.335097e-003
3.859024e+003;9.251181e-003
3.860953e+003;8.600411e-003
3.862882e+003;8.910843e-003
3.864810e+003;9.154828e-003
3.866739e+003;8.753909e-003
3.868667e+003;7.800874e-003
3.870596e+003;7.884274e-003
3.872524e+003;8.733726e-003
3.874453e+003;9.278904e-003
3.876381e+003;9.888691e-003
3.878310e+003;1.011345e-002
3.880239e+003;1.029890e-002
3.882167e+003;1.036545e-002
3.884096e+003;9.766171e-003
3.886024e+003;8.894576e-003
3.887953e+003;9.175370e-003
3.889881e+003;9.299857e-003
3.891810e+003;9.044998e-003
3.893738e+003;9.543688e-003
3.895667e+003;9.888759e-003
3.897595e+003;9.041277e-003
3.899524e+003;8.239037e-003
3.901453e+003;8.376194e-003
3.903381e+003;8.353832e-003
3.905310e+003;8.977713e-003
3.907238e+003;9.819106e-003
3.909167e+003;9.798602e-003
3.911095e+003;9.169346e-003
3.913024e+003;9.185894e-003
3.914952e+003;9.195810e-003
3.916881e+003;8.996858e-003
3.918810e+003;9.630032e-003
3.920738e+003;9.958559e-003
3.922667e+003;9.492987e-003
3.924595e+003;8.971759e-003
3.926524e+003;9.160277e-003
3.928452e+003;9.657066e-003
3.930381e+003;9.852254e-003
3.932309e+003;1.002786e-002
3.934238e+003;1.022810e-002
3.936167e+003;9.949439e-003
3.938095e+003;9.668992e-003
3.940023e+003;9.042495e-003
3.941952e+003;8.422608e-003
3.943881e+003;9.312754e-003
3.945809e+003;9.923573e-003
3.947738e+003;9.871980e-003
3.949666e+003;1.054900e-002
3.951595e+003;1.100487e-002
3.953523e+003;1.048644e-002
3.955452e+003;9.905098e-003
3.957380e+003;9.994531e-003
3.959309e+003;9.866286e-003
3.961238e+003;9.386525e-003
3.963166e+003;9.175641e-003
3.965095e+003;9.114662e-003
3.967023e+003;9.291834e-003
3.968952e+003;1.005034e-002
3.970880e+003;1.028306e-002
3.972809e+003;1.020802e-002
3.974737e+003;9.652764e-003
3.976666e+003;8.482105e-003
3.978594e+003;8.220161e-003
3.980523e+003;8.983971e-003
3.982452e+003;9.961712e-003
3.984380e+003;1.024452e-002
3.986309e+003;1.005831e-002
3.988237e+003;9.612484e-003
3.990166e+003;9.406738e-003
3.992094e+003;9.413578e-003
3.994023e+003;9.221870e-003
3.995951e+003;9.106000e-003
3.997880e+003;9.202613e-003
3.999809e+003;9.182138e-003
4.001737e+003;0.000000e+000
