3.992094e+002;0.000000e+000
4.011380e+002;0.000000e+000
4.030665e+002;0.000000e+000
4.049951e+002;0.000000e+000
4.069236e+002;0.000000e+000
4.088522e+002;0.000000e+000
4.107807e+002;0.000000e+000
4.127093e+002;0.000000e+000
4.146378e+002;0.000000e+000
4.165664e+002;0.000000e+000
4.184949e+002;0.000000e+000
4.204235e+002;0.000000e+000
4.223520e+002;0.000000e+000
4.242806e+002;0.000000e+000
4.262091e+002;0.000000e+000
4.281377e+002;0.000000e+000
4.300662e+002;0.000000e+000
4.319948e+002;0.000000e+000
4.339233e+002;0.000000e+000
4.358519e+002;0.000000e+000
4.377804e+002;0.000000e+000
4.397090e+002;0.000000e+000
4.416375e+002;0.000000e+000
4.435660e+002;0.000000e+000
4.454946e+002;0.000000e+000
4.474232e+002;0.000000e+000
4.493517e+002;0.000000e+000
4.512802e+002;0.000000e+000
4.532088e+002;0.000000e+000
4.551373e+002;0.000000e+000
4.570659e+002;0.000000e+000
4.589944e+002;0.000000e+000
4.609230e+002;0.000000e+000
4.628515e+002;0.000000e+000
4.647801e+002;0.000000e+000
4.667086e+002;0.000000e+000
4.686372e+002;0.000000e+000
4.705657e+002;0.000000e+000
4.724943e+002;0.000000e+000
4.744228e+002;0.000000e+000
4.763513e+002;0.000000e+000
4.782799e+002;0.000000e+000
4.802085e+002;0.000000e+000
4.821370e+002;0.000000e+000
4.840656e+002;0.000000e+000
4.859941e+002;0.000000e+000
4.879226e+002;0.000000e+000
4.898512e+002;0.000000e+000
4.917798e+002;0.000000e+000
4.937083e+002;0.000000e+000
4.956368e+002;0.000000e+000
4.975654e+002;0.000000e+000
4.994939e+002;0.000000e+000
5.014225e+002;0.000000e+000
5.033510e+002;0.000000e+000
5.052796e+002;0.000000e+000
5.072081e+002;0.000000e+000
5.091367e+002;0.000000e+000
5.110652e+002;0.000000e+000
5.129938e+002;0.000000e+000
5.149223e+002;0.000000e+000
5.168509e+002;0.000000e+000
5.187794e+002;0.000000e+000
5.207079e+002;0.000000e+000
5.226365e+002;0.000000e+000
5.245651e+002;0.000000e+000
5.264936e+002;0.000000e+000
5.284222e+002;0.000000e+000
5.303507e+002;0.000000e+000
5.322792e+002;0.000000e+000
5.342078e+002;0.000000e+000
5.361364e+002;0.000000e+000
5.380649e+002;0.000000e+000
5.399935e+002;0.000000e+000
5.419220e+002;0.000000e+000
5.438505e+002;0.000000e+000
5.457791e+002;0.000000e+000
5.477076e+002;0.000000e+000
5.496362e+002;0.000000e+000
5.515648e+002;0.000000e+000
5.534933e+002;0.000000e+000
5.554218e+002;0.000000e+000
5.573504e+002;0.000000e+000
5.592789e+002;0.000000e+000
5.612075e+002;0.000000e+000
5.631360e+002;0.000000e+000
5.650646e+002;0.000000e+000
5.669931e+002;0.000000e+000
5.689217e+002;0.000000e+000
5.708502e+002;0.000000e+000
5.727787e+002;0.000000e+000
5.747073e+002;0.000000e+000
5.766359e+002;0.000000e+000
5.785644e+002;0.000000e+000
5.804930e+002;0.000000e+000
5.824215e+002;0.000000e+000
5.843500e+002;0.000000e+000
5.862786e+002;0.000000e+000
5.882072e+002;0.000000e+000
5.901357e+002;0.000000e+000
5.920643e+002;0.000000e+000
5.939928e+002;0.000000e+000
5.959213e+002;0.000000e+000
5.978499e+002;0.000000e+000
5.997784e+002;2.344627e-001
6.017070e+002;2.335341e-001
6.036355e+002;2.339091e-001
6.055641e+002;2.319316e-001
6.074926e+002;2.324582e-001
6.094211e+002;2.329329e-001
6.113497e+002;2.291748e-001
6.132783e+002;2.260484e-001
6.152068e+002;2.255545e-001
6.171354e+002;2.234806e-001
6.190639e+002;2.229723e-001
6.209924e+002;2.250971e-001
6.229210e+002;2.245123e-001
6.248495e+002;2.227159e-001
6.267781e+002;2.227412e-001
6.287067e+002;2.215537e-001
6.306352e+002;2.174418e-001
6.325637e+002;2.168033e-001
6.344923e+002;2.197215e-001
6.364208e+002;2.196099e-001
6.383494e+002;2.162798e-001
6.402780e+002;2.157465e-001
6.422065e+002;2.156396e-001
6.441350e+002;2.139773e-001
6.460636e+002;2.142505e-001
6.479921e+002;2.138651e-001
6.499207e+002;2.134028e-001
6.518492e+002;2.102918e-001
6.537778e+002;2.073427e-001
6.557063e+002;2.064196e-001
6.576349e+002;2.077216e-001
6.595634e+002;2.105866e-001
6.614919e+002;2.108172e-001
6.634205e+002;2.091066e-001
6.653491e+002;2.079996e-001
6.672776e+002;2.071385e-001
6.692062e+002;2.069968e-001
6.711347e+002;2.052963e-001
6.730632e+002;2.036251e-001
6.749918e+002;2.041773e-001
6.769203e+002;2.038167e-001
6.788489e+002;2.014825e-001
6.807775e+002;1.995520e-001
6.827060e+002;1.986677e-001
6.846345e+002;1.981602e-001
6.865631e+002;1.979835e-001
6.884916e+002;1.971244e-001
6.904202e+002;1.977473e-001
6.923488e+002;1.992726e-001
6.942773e+002;1.978553e-001
6.962058e+002;1.964785e-001
6.981344e+002;1.962418e-001
7.000629e+002;1.955144e-001
7.019915e+002;1.940458e-001
7.039200e+002;1.926591e-001
7.058486e+002;1.910366e-001
7.077771e+002;1.894281e-001
7.097057e+002;1.878660e-001
7.116342e+002;1.863560e-001
7.135627e+002;1.849044e-001
7.154913e+002;1.839051e-001
7.174199e+002;1.838140e-001
7.193484e+002;1.833794e-001
7.212770e+002;1.822426e-001
7.232055e+002;1.816846e-001
7.251340e+002;1.813745e-001
7.270626e+002;1.803198e-001
7.289911e+002;1.790182e-001
7.309197e+002;1.776901e-001
7.328483e+002;1.770442e-001
7.347768e+002;1.769187e-001
7.367053e+002;1.762286e-001
7.386339e+002;1.763142e-001
7.405624e+002;1.769997e-001
7.424910e+002;1.769214e-001
7.444196e+002;1.755284e-001
7.463481e+002;1.743748e-001
7.482766e+002;1.740595e-001
7.502052e+002;1.730219e-001
7.521337e+002;1.718781e-001
7.540623e+002;1.711596e-001
7.559908e+002;1.700781e-001
7.579194e+002;1.687686e-001
7.598479e+002;1.679730e-001
7.617765e+002;1.670173e-001
7.637050e+002;1.669178e-001
7.656335e+002;1.671868e-001
7.675621e+002;1.655315e-001
7.694907e+002;1.642224e-001
7.714192e+002;1.634803e-001
7.733478e+002;1.626675e-001
7.752763e+002;1.618544e-001
7.772048e+002;1.617051e-001
7.791334e+002;1.616154e-001
7.810620e+002;1.613973e-001
7.829905e+002;1.606852e-001
7.849191e+002;1.599628e-001
7.868476e+002;1.599730e-001
7.887761e+002;1.600295e-001
7.907047e+002;1.594527e-001
7.926332e+002;1.589586e-001
7.945618e+002;1.580648e-001
7.964903e+002;1.569018e-001
7.984189e+002;1.562466e-001
8.003474e+002;1.562659e-001
8.022759e+002;1.559870e-001
8.042045e+002;1.550453e-001
8.061331e+002;1.554686e-001
8.080616e+002;1.560468e-001
8.099902e+002;1.561132e-001
8.119187e+002;1.555203e-001
8.138472e+002;1.544206e-001
8.157758e+002;1.539597e-001
8.177043e+002;1.544718e-001
8.196329e+002;1.545170e-001
8.215615e+002;1.542510e-001
8.234900e+002;1.543422e-001
8.254185e+002;1.542307e-001
8.273471e+002;1.541160e-001
8.292756e+002;1.537315e-001
8.312042e+002;1.531270e-001
8.331328e+002;1.522181e-001
8.350613e+002;1.510008e-001
8.369898e+002;1.497030e-001
8.389184e+002;1.490161e-001
8.408469e+002;1.487233e-001
8.427755e+002;1.486394e-001
8.447040e+002;1.484166e-001
8.466326e+002;1.479193e-001
8.485611e+002;1.475075e-001
8.504897e+002;1.472522e-001
8.524182e+002;1.468556e-001
8.543467e+002;1.467364e-001
8.562753e+002;1.461580e-001
8.582039e+002;1.456944e-001
8.601324e+002;1.451926e-001
8.620610e+002;1.445585e-001
8.639895e+002;1.447559e-001
8.659180e+002;1.450559e-001
8.678466e+002;1.448960e-001
8.697751e+002;1.447078e-001
8.717037e+002;1.447192e-001
8.736323e+002;1.444526e-001
8.755608e+002;1.442399e-001
8.774893e+002;1.445507e-001
8.794179e+002;1.450389e-001
8.813464e+002;1.452244e-001
8.832750e+002;1.448583e-001
8.852036e+002;1.447404e-001
8.871321e+002;1.446946e-001
8.890606e+002;1.442789e-001
8.909892e+002;1.439617e-001
8.929177e+002;1.436822e-001
8.948463e+002;1.433359e-001
8.967748e+002;1.432109e-001
8.987034e+002;1.431869e-001
9.006319e+002;1.428528e-001
9.025605e+002;1.424025e-001
9.044890e+002;1.427145e-001
9.064175e+002;1.428967e-001
9.083461e+002;1.425957e-001
9.102747e+002;1.423538e-001
9.122032e+002;1.422289e-001
9.141318e+002;1.421983e-001
9.160603e+002;1.426181e-001
9.179888e+002;1.430016e-001
9.199174e+002;1.428623e-001
9.218459e+002;1.427711e-001
9.237745e+002;1.430786e-001
9.257031e+002;1.434596e-001
9.276316e+002;1.433457e-001
9.295601e+002;1.429397e-001
9.314887e+002;1.426923e-001
9.334172e+002;1.423975e-001
9.353458e+002;1.420212e-001
9.372744e+002;1.417911e-001
9.392029e+002;1.414471e-001
9.411314e+002;1.408978e-001
9.430600e+002;1.405565e-001
9.449885e+002;1.402555e-001
9.469171e+002;1.397046e-001
9.488456e+002;1.392102e-001
9.507742e+002;1.393590e-001
9.527027e+002;1.398474e-001
9.546313e+002;1.398215e-001
9.565598e+002;1.395560e-001
9.584883e+002;1.397084e-001
9.604169e+002;1.399771e-001
9.623455e+002;1.400948e-001
9.642740e+002;1.400792e-001
9.662026e+002;1.403270e-001
9.681311e+002;1.406290e-001
9.700596e+002;1.410062e-001
9.719882e+002;1.410753e-001
9.739167e+002;1.407378e-001
9.758453e+002;1.404536e-001
9.777739e+002;1.404316e-001
9.797024e+002;1.406156e-001
9.816309e+002;1.410114e-001
9.835595e+002;1.416289e-001
9.854880e+002;1.422406e-001
9.874166e+002;1.428445e-001
9.893452e+002;1.435042e-001
9.912737e+002;1.439175e-001
9.932022e+002;1.442355e-001
9.951307e+002;1.443114e-001
9.970593e+002;1.441476e-001
9.989879e+002;1.443440e-001
1.000916e+003;1.449933e-001
1.002845e+003;1.459306e-001
1.004773e+003;1.470918e-001
1.006702e+003;1.484043e-001
1.008631e+003;1.499151e-001
1.010559e+003;1.513597e-001
1.012488e+003;1.526751e-001
1.014416e+003;1.542853e-001
1.016345e+003;1.559809e-001
1.018273e+003;1.576152e-001
1.020202e+003;1.595867e-001
1.022130e+003;1.611706e-001
1.024059e+003;1.622646e-001
1.025988e+003;1.632449e-001
1.027916e+003;1.645078e-001
1.029845e+003;1.661858e-001
1.031773e+003;1.678561e-001
1.033702e+003;1.693514e-001
1.035630e+003;1.706651e-001
1.037559e+003;1.723259e-001
1.039487e+003;1.743479e-001
1.041416e+003;1.755545e-001
1.043344e+003;1.760440e-001
1.045273e+003;1.758688e-001
1.047202e+003;1.749795e-001
1.049130e+003;1.739885e-001
1.051059e+003;1.728767e-001
1.052987e+003;1.714122e-001
1.054916e+003;1.708631e-001
1.056844e+003;1.711108e-001
1.058773e+003;1.711296e-001
1.060701e+003;1.709980e-001
1.062630e+003;1.713206e-001
1.064558e+003;1.720981e-001
1.066487e+003;1.724920e-001
1.068416e+003;1.727138e-001
1.070344e+003;1.732309e-001
1.072273e+003;1.734520e-001
1.074201e+003;1.740359e-001
1.076130e+003;1.743954e-001
1.078058e+003;1.739422e-001
1.079987e+003;1.734011e-001
1.081915e+003;1.731033e-001
1.083844e+003;1.727287e-001
1.085773e+003;1.724679e-001
1.087701e+003;1.727088e-001
1.089630e+003;1.727922e-001
1.091558e+003;1.723823e-001
1.093487e+003;1.722952e-001
1.095415e+003;1.718293e-001
1.097344e+003;1.711076e-001
1.099272e+003;1.711731e-001
1.101201e+003;1.715630e-001
1.103129e+003;1.711816e-001
1.105058e+003;1.705587e-001
1.106987e+003;1.701516e-001
1.108915e+003;1.696063e-001
1.110844e+003;1.692819e-001
1.112772e+003;1.690176e-001
1.114701e+003;1.684474e-001
1.116629e+003;1.678421e-001
1.118558e+003;1.679877e-001
1.120486e+003;1.684533e-001
1.122415e+003;1.684447e-001
1.124344e+003;1.679759e-001
1.126272e+003;1.679849e-001
1.128201e+003;1.682385e-001
1.130129e+003;1.681914e-001
1.132058e+003;1.683649e-001
1.133986e+003;1.687043e-001
1.135915e+003;1.691322e-001
1.137843e+003;1.701993e-001
1.139772e+003;1.712229e-001
1.141700e+003;1.717151e-001
1.143629e+003;1.724623e-001
1.145557e+003;1.733184e-001
1.147486e+003;1.739597e-001
1.149415e+003;1.745353e-001
1.151343e+003;1.754897e-001
1.153272e+003;1.762060e-001
1.155200e+003;1.764677e-001
1.157129e+003;1.764867e-001
1.159057e+003;1.769537e-001
1.160986e+003;1.774805e-001
1.162914e+003;1.780275e-001
1.164843e+003;1.786516e-001
1.166771e+003;1.792333e-001
1.168700e+003;1.799591e-001
1.170629e+003;1.805225e-001
1.172557e+003;1.809663e-001
1.174486e+003;1.816021e-001
1.176414e+003;1.820628e-001
1.178343e+003;1.822544e-001
1.180271e+003;1.826251e-001
1.182200e+003;1.832217e-001
1.184128e+003;1.839077e-001
1.186057e+003;1.846937e-001
1.187986e+003;1.853049e-001
1.189914e+003;1.858012e-001
1.191843e+003;1.860809e-001
1.193771e+003;1.864984e-001
1.195700e+003;1.872298e-001
1.197628e+003;1.878939e-001
1.199557e+003;1.880774e-001
1.201485e+003;1.883632e-001
1.203414e+003;1.891225e-001
1.205343e+003;1.897392e-001
1.207271e+003;1.902687e-001
1.209200e+003;1.912198e-001
1.211128e+003;1.920232e-001
1.213057e+003;1.926955e-001
1.214985e+003;1.937685e-001
1.216914e+003;1.948656e-001
1.218842e+003;1.958553e-001
1.220771e+003;1.969954e-001
1.222699e+003;1.978470e-001
1.224628e+003;1.984504e-001
1.226557e+003;1.991716e-001
1.228485e+003;1.999054e-001
1.230414e+003;2.000443e-001
1.232342e+003;1.998751e-001
1.234271e+003;1.997127e-001
1.236199e+003;1.992145e-001
1.238128e+003;1.985699e-001
1.240056e+003;1.980484e-001
1.241985e+003;1.977770e-001
1.243913e+003;1.972387e-001
1.245842e+003;1.962824e-001
1.247771e+003;1.952192e-001
1.249699e+003;1.944200e-001
1.251628e+003;1.938017e-001
1.253556e+003;1.930125e-001
1.255485e+003;1.921682e-001
1.257413e+003;1.914711e-001
1.259342e+003;1.907923e-001
1.261270e+003;1.898925e-001
1.263199e+003;1.885730e-001
1.265127e+003;1.872665e-001
1.267056e+003;1.864290e-001
1.268985e+003;1.858518e-001
1.270913e+003;1.850990e-001
1.272842e+003;1.845996e-001
1.274770e+003;1.840561e-001
1.276699e+003;1.833216e-001
1.278627e+003;1.827863e-001
1.280556e+003;1.823847e-001
1.282484e+003;1.821551e-001
1.284413e+003;1.818678e-001
1.286342e+003;1.814124e-001
1.288270e+003;1.808854e-001
1.290199e+003;1.807710e-001
1.292127e+003;1.807585e-001
1.294056e+003;1.807169e-001
1.295984e+003;1.807149e-001
1.297913e+003;1.804707e-001
1.299841e+003;1.800147e-001
1.301770e+003;1.794819e-001
1.303698e+003;1.790284e-001
1.305627e+003;1.786149e-001
1.307556e+003;1.781820e-001
1.309484e+003;1.779000e-001
1.311413e+003;1.776159e-001
1.313341e+003;1.774083e-001
1.315270e+003;1.774098e-001
1.317198e+003;1.774818e-001
1.319127e+003;1.774893e-001
1.321055e+003;1.776361e-001
1.322984e+003;1.776195e-001
1.324912e+003;1.774836e-001
1.326841e+003;1.774345e-001
1.328770e+003;1.773904e-001
1.330698e+003;1.771973e-001
1.332627e+003;1.767035e-001
1.334555e+003;1.758794e-001
1.336484e+003;1.749181e-001
1.338412e+003;1.741139e-001
1.340341e+003;1.736687e-001
1.342269e+003;1.733684e-001
1.344198e+003;1.727806e-001
1.346126e+003;1.721522e-001
1.348055e+003;1.716455e-001
1.349984e+003;1.710519e-001
1.351912e+003;1.705406e-001
1.353841e+003;1.701350e-001
1.355769e+003;1.698132e-001
1.357698e+003;1.696462e-001
1.359626e+003;1.696413e-001
1.361555e+003;1.700694e-001
1.363483e+003;1.711183e-001
1.365412e+003;1.724696e-001
1.367341e+003;1.734476e-001
1.369269e+003;1.740383e-001
1.371198e+003;1.741848e-001
1.373126e+003;1.740664e-001
1.375055e+003;1.744595e-001
1.376983e+003;1.753386e-001
1.378912e+003;1.760709e-001
1.380840e+003;1.768521e-001
1.382769e+003;1.774523e-001
1.384698e+003;1.777207e-001
1.386626e+003;1.776491e-001
1.388555e+003;1.777587e-001
1.390483e+003;1.776783e-001
1.392412e+003;1.769533e-001
1.394340e+003;1.762840e-001
1.396269e+003;1.763036e-001
1.398197e+003;1.762358e-001
1.400126e+003;1.763387e-001
1.402054e+003;1.764963e-001
1.403983e+003;1.762883e-001
1.405911e+003;1.762312e-001
1.407840e+003;1.764850e-001
1.409769e+003;1.765077e-001
1.411697e+003;1.763380e-001
1.413626e+003;1.762815e-001
1.415554e+003;1.760580e-001
1.417483e+003;1.751721e-001
1.419411e+003;1.748229e-001
1.421340e+003;1.760555e-001
1.423268e+003;1.768235e-001
1.425197e+003;1.775554e-001
1.427125e+003;1.784656e-001
1.429054e+003;1.792551e-001
1.430983e+003;1.806809e-001
1.432911e+003;1.825049e-001
1.434840e+003;1.830785e-001
1.436768e+003;1.836066e-001
1.438697e+003;1.858151e-001
1.440625e+003;1.873740e-001
1.442554e+003;1.880384e-001
1.444482e+003;1.885175e-001
1.446411e+003;1.886775e-001
1.448340e+003;1.888801e-001
1.450268e+003;1.894851e-001
1.452197e+003;1.895481e-001
1.454125e+003;1.884333e-001
1.456054e+003;1.857819e-001
1.457982e+003;1.856647e-001
1.459911e+003;1.875107e-001
1.461839e+003;1.874202e-001
1.463768e+003;1.859772e-001
1.465697e+003;1.854758e-001
1.467625e+003;1.856096e-001
1.469554e+003;1.845496e-001
1.471482e+003;1.821545e-001
1.473411e+003;1.813536e-001
1.475339e+003;1.822491e-001
1.477268e+003;1.835226e-001
1.479196e+003;1.852697e-001
1.481125e+003;1.874671e-001
1.483053e+003;1.903538e-001
1.484982e+003;1.933452e-001
1.486911e+003;1.966535e-001
1.488839e+003;2.004772e-001
1.490768e+003;2.052523e-001
1.492696e+003;2.104721e-001
1.494625e+003;2.142765e-001
1.496553e+003;2.180637e-001
1.498482e+003;2.227832e-001
1.500410e+003;2.271371e-001
1.502339e+003;2.303796e-001
1.504267e+003;2.311396e-001
1.506196e+003;2.315096e-001
1.508125e+003;2.352285e-001
1.510053e+003;2.392091e-001
1.511982e+003;2.412624e-001
1.513910e+003;2.421891e-001
1.515839e+003;2.412804e-001
1.517767e+003;2.394940e-001
1.519696e+003;2.366216e-001
1.521624e+003;2.343137e-001
1.523553e+003;2.341382e-001
1.525481e+003;2.334710e-001
1.527410e+003;2.329204e-001
1.529339e+003;2.320981e-001
1.531267e+003;2.301524e-001
1.533196e+003;2.278202e-001
1.535124e+003;2.264736e-001
1.537053e+003;2.233005e-001
1.538981e+003;2.178921e-001
1.540910e+003;2.151492e-001
1.542838e+003;2.144886e-001
1.544767e+003;2.130013e-001
1.546695e+003;2.105460e-001
1.548624e+003;2.071958e-001
1.550553e+003;2.036527e-001
1.552481e+003;1.996894e-001
1.554410e+003;1.954296e-001
1.556338e+003;1.903669e-001
1.558267e+003;1.842277e-001
1.560195e+003;1.820459e-001
1.562124e+003;1.825485e-001
1.564052e+003;1.808767e-001
1.565981e+003;1.785590e-001
1.567910e+003;1.761137e-001
1.569838e+003;1.740390e-001
1.571767e+003;1.735075e-001
1.573695e+003;1.722555e-001
1.575624e+003;1.700906e-001
1.577552e+003;1.708048e-001
1.579481e+003;1.726446e-001
1.581409e+003;1.733712e-001
1.583338e+003;1.741415e-001
1.585266e+003;1.752800e-001
1.587195e+003;1.768352e-001
1.589124e+003;1.787793e-001
1.591052e+003;1.807290e-001
1.592981e+003;1.828273e-001
1.594909e+003;1.853581e-001
1.596838e+003;1.880485e-001
1.598766e+003;1.911328e-001
1.600695e+003;1.945004e-001
1.602623e+003;1.983597e-001
1.604552e+003;2.024933e-001
1.606480e+003;2.068956e-001
1.608409e+003;2.116841e-001
1.610338e+003;2.169015e-001
1.612266e+003;2.219744e-001
1.614195e+003;2.258315e-001
1.616123e+003;2.289178e-001
1.618052e+003;2.343628e-001
1.619980e+003;2.399789e-001
1.621909e+003;2.438501e-001
1.623837e+003;2.478707e-001
1.625766e+003;2.516126e-001
1.627694e+003;2.543025e-001
1.629623e+003;2.568554e-001
1.631552e+003;2.586207e-001
1.633480e+003;2.585063e-001
1.635409e+003;2.579285e-001
1.637337e+003;2.593733e-001
1.639266e+003;2.607184e-001
1.641194e+003;2.606395e-001
1.643123e+003;2.594230e-001
1.645051e+003;2.567714e-001
1.646980e+003;2.547694e-001
1.648909e+003;2.535869e-001
1.650837e+003;2.491009e-001
1.652766e+003;2.425940e-001
1.654694e+003;2.409950e-001
1.656623e+003;2.399055e-001
1.658551e+003;2.360110e-001
1.660480e+003;2.312675e-001
1.662408e+003;2.261776e-001
1.664337e+003;2.218314e-001
1.666266e+003;2.173166e-001
1.668194e+003;2.119810e-001
1.670123e+003;2.072387e-001
1.672051e+003;2.032075e-001
1.673980e+003;1.983142e-001
1.675908e+003;1.938518e-001
1.677837e+003;1.904213e-001
1.679765e+003;1.860248e-001
1.681694e+003;1.804347e-001
1.683622e+003;1.735741e-001
1.685551e+003;1.696090e-001
1.687479e+003;1.674400e-001
1.689408e+003;1.637638e-001
1.691337e+003;1.593077e-001
1.693265e+003;1.535593e-001
1.695194e+003;1.466288e-001
1.697122e+003;1.418581e-001
1.699051e+003;1.366771e-001
1.700979e+003;1.323583e-001
1.702908e+003;1.301268e-001
1.704836e+003;1.263349e-001
1.706765e+003;1.231604e-001
1.708693e+003;1.205116e-001
1.710622e+003;1.177025e-001
1.712551e+003;1.146240e-001
1.714479e+003;1.113922e-001
1.716408e+003;1.080716e-001
1.718336e+003;1.069239e-001
1.720265e+003;1.075426e-001
1.722193e+003;1.071339e-001
1.724122e+003;1.061864e-001
1.726050e+003;1.053283e-001
1.727979e+003;1.041754e-001
1.729908e+003;1.031316e-001
1.731836e+003;1.012436e-001
1.733765e+003;9.906142e-002
1.735693e+003;9.972749e-002
1.737622e+003;1.003076e-001
1.739550e+003;9.921212e-002
1.741479e+003;9.851039e-002
1.743407e+003;9.765198e-002
1.745336e+003;9.669200e-002
1.747265e+003;9.569008e-002
1.749193e+003;9.451491e-002
1.751122e+003;9.355066e-002
1.753050e+003;9.356693e-002
1.754979e+003;9.312135e-002
1.756907e+003;9.257697e-002
1.758836e+003;9.243233e-002
1.760764e+003;9.148131e-002
1.762693e+003;9.099256e-002
1.764621e+003;9.123228e-002
1.766550e+003;9.063598e-002
1.768479e+003;8.989644e-002
1.770407e+003;8.888646e-002
1.772336e+003;8.805452e-002
1.774264e+003;8.878645e-002
1.776193e+003;8.930025e-002
1.778121e+003;8.905649e-002
1.780050e+003;8.884312e-002
1.781978e+003;8.877552e-002
1.783907e+003;8.844428e-002
1.785835e+003;8.846763e-002
1.787764e+003;8.864570e-002
1.789693e+003;8.785158e-002
1.791621e+003;8.693413e-002
1.793550e+003;8.709781e-002
1.795478e+003;8.755200e-002
1.797407e+003;8.747025e-002
1.799335e+003;8.713222e-002
1.801264e+003;8.695671e-002
1.803192e+003;8.708266e-002
1.805121e+003;8.701630e-002
1.807049e+003;8.684136e-002
1.808978e+003;8.652955e-002
1.810907e+003;8.638754e-002
1.812835e+003;8.650358e-002
1.814764e+003;8.649202e-002
1.816692e+003;8.636507e-002
1.818621e+003;8.632565e-002
1.820549e+003;8.625109e-002
1.822478e+003;8.603865e-002
1.824406e+003;8.561403e-002
1.826335e+003;8.556416e-002
1.828264e+003;8.528709e-002
1.830192e+003;8.501595e-002
1.832121e+003;8.519391e-002
1.834049e+003;8.518528e-002
1.835978e+003;8.515549e-002
1.837906e+003;8.524536e-002
1.839835e+003;8.512038e-002
1.841763e+003;8.455079e-002
1.843692e+003;8.369978e-002
1.845620e+003;8.377396e-002
1.847549e+003;8.430406e-002
1.849478e+003;8.467882e-002
1.851406e+003;8.467983e-002
1.853335e+003;8.453791e-002
1.855263e+003;8.447439e-002
1.857192e+003;8.447263e-002
1.859120e+003;8.455925e-002
1.861049e+003;8.449344e-002
1.862977e+003;8.426427e-002
1.864906e+003;8.403474e-002
1.866834e+003;8.368616e-002
1.868763e+003;8.340687e-002
1.870692e+003;8.364189e-002
1.872620e+003;8.390152e-002
1.874549e+003;8.408931e-002
1.876477e+003;8.417006e-002
1.878406e+003;8.419677e-002
1.880334e+003;8.410145e-002
1.882263e+003;8.394838e-002
1.884191e+003;8.401801e-002
1.886120e+003;8.401331e-002
1.888048e+003;8.372127e-002
1.889977e+003;8.364888e-002
1.891906e+003;8.384436e-002
1.893834e+003;8.369693e-002
1.895763e+003;8.367933e-002
1.897691e+003;8.375611e-002
1.899620e+003;8.370625e-002
1.901548e+003;8.362418e-002
1.903477e+003;8.363160e-002
1.905405e+003;8.355802e-002
1.907334e+003;8.356352e-002
1.909262e+003;8.348862e-002
1.911191e+003;8.340699e-002
1.913120e+003;8.341478e-002
1.915048e+003;8.319554e-002
1.916977e+003;8.268963e-002
1.918905e+003;8.277991e-002
1.920834e+003;8.305229e-002
1.922762e+003;8.301884e-002
1.924691e+003;8.310638e-002
1.926619e+003;8.316295e-002
1.928548e+003;8.320215e-002
1.930477e+003;8.327873e-002
1.932405e+003;8.344891e-002
1.934334e+003;8.345401e-002
1.936262e+003;8.334083e-002
1.938191e+003;8.332542e-002
1.940119e+003;8.330265e-002
1.942048e+003;8.304499e-002
1.943976e+003;8.294427e-002
1.945905e+003;8.303789e-002
1.947833e+003;8.330025e-002
1.949762e+003;8.355384e-002
1.951691e+003;8.353424e-002
1.953619e+003;8.348304e-002
1.955548e+003;8.355934e-002
1.957476e+003;8.352027e-002
1.959405e+003;8.324084e-002
1.961333e+003;8.322110e-002
1.963262e+003;8.336773e-002
1.965190e+003;8.319136e-002
1.967119e+003;8.284670e-002
1.969047e+003;8.283520e-002
1.970976e+003;8.283099e-002
1.972905e+003;8.293059e-002
1.974833e+003;8.317138e-002
1.976762e+003;8.333573e-002
1.978690e+003;8.335841e-002
1.980619e+003;8.328985e-002
1.982547e+003;8.313274e-002
1.984476e+003;8.315023e-002
1.986404e+003;8.326541e-002
1.988333e+003;8.325445e-002
1.990261e+003;8.305860e-002
1.992190e+003;8.300199e-002
1.994119e+003;8.313791e-002
1.996047e+003;8.306614e-002
1.997976e+003;8.304595e-002
1.999904e+003;8.314485e-002
2.001833e+003;8.331698e-002
2.003761e+003;8.336616e-002
2.005690e+003;8.335304e-002
2.007618e+003;8.334544e-002
2.009547e+003;8.328604e-002
2.011476e+003;8.328704e-002
2.013404e+003;8.321648e-002
2.015333e+003;8.299954e-002
2.017261e+003;8.292775e-002
2.019190e+003;8.326693e-002
2.021118e+003;8.339427e-002
2.023047e+003;8.339896e-002
2.024975e+003;8.365346e-002
2.026904e+003;8.369420e-002
2.028833e+003;8.348674e-002
2.030761e+003;8.350866e-002
2.032690e+003;8.356594e-002
2.034618e+003;8.340760e-002
2.036547e+003;8.349296e-002
2.038475e+003;8.358899e-002
2.040404e+003;8.360031e-002
2.042332e+003;8.356429e-002
2.044261e+003;8.355147e-002
2.046189e+003;8.366921e-002
2.048118e+003;8.370239e-002
2.050047e+003;8.380944e-002
2.051975e+003;8.391345e-002
2.053904e+003;8.376941e-002
2.055832e+003;8.375571e-002
2.057761e+003;8.389553e-002
2.059689e+003;8.402549e-002
2.061618e+003;8.400298e-002
2.063546e+003;8.392945e-002
2.065475e+003;8.386201e-002
2.067404e+003;8.378581e-002
2.069332e+003;8.368459e-002
2.071260e+003;8.389006e-002
2.073189e+003;8.413338e-002
2.075118e+003;8.389790e-002
2.077046e+003;8.378512e-002
2.078975e+003;8.381591e-002
2.080903e+003;8.404154e-002
2.082832e+003;8.416938e-002
2.084760e+003;8.385400e-002
2.086689e+003;8.364526e-002
2.088617e+003;8.374582e-002
2.090546e+003;8.384858e-002
2.092475e+003;8.393170e-002
2.094403e+003;8.393890e-002
2.096332e+003;8.379782e-002
2.098260e+003;8.373638e-002
2.100189e+003;8.371834e-002
2.102117e+003;8.366001e-002
2.104046e+003;8.380132e-002
2.105974e+003;8.400957e-002
2.107903e+003;8.409530e-002
2.109832e+003;8.388797e-002
2.111760e+003;8.371067e-002
2.113688e+003;8.368343e-002
2.115617e+003;8.347987e-002
2.117546e+003;8.346842e-002
2.119474e+003;8.363406e-002
2.121403e+003;8.365097e-002
2.123331e+003;8.356007e-002
2.125260e+003;8.361711e-002
2.127188e+003;8.367933e-002
2.129117e+003;8.350742e-002
2.131045e+003;8.348104e-002
2.132974e+003;8.355633e-002
2.134903e+003;8.371814e-002
2.136831e+003;8.394665e-002
2.138760e+003;8.371541e-002
2.140688e+003;8.336993e-002
2.142617e+003;8.333220e-002
2.144545e+003;8.334926e-002
2.146474e+003;8.336551e-002
2.148402e+003;8.328130e-002
2.150331e+003;8.337776e-002
2.152260e+003;8.355344e-002
2.154188e+003;8.345979e-002
2.156117e+003;8.315958e-002
2.158045e+003;8.310702e-002
2.159974e+003;8.311488e-002
2.161902e+003;8.324353e-002
2.163831e+003;8.334123e-002
2.165759e+003;8.332032e-002
2.167688e+003;8.335344e-002
2.169616e+003;8.330169e-002
2.171545e+003;8.324056e-002
2.173474e+003;8.318025e-002
2.175402e+003;8.313382e-002
2.177331e+003;8.300476e-002
2.179259e+003;8.295863e-002
2.181188e+003;8.300348e-002
2.183116e+003;8.298077e-002
2.185045e+003;8.297765e-002
2.186973e+003;8.303797e-002
2.188902e+003;8.322804e-002
2.190831e+003;8.325248e-002
2.192759e+003;8.314525e-002
2.194688e+003;8.306854e-002
2.196616e+003;8.322299e-002
2.198545e+003;8.341426e-002
2.200473e+003;8.349023e-002
2.202402e+003;8.353392e-002
2.204330e+003;8.333176e-002
2.206259e+003;8.313101e-002
2.208188e+003;8.318771e-002
2.210116e+003;8.322716e-002
2.212044e+003;8.328034e-002
2.213973e+003;8.338226e-002
2.215902e+003;8.329792e-002
2.217830e+003;8.305510e-002
2.219759e+003;8.298623e-002
2.221687e+003;8.290176e-002
2.223616e+003;8.290060e-002
2.225544e+003;8.313719e-002
2.227473e+003;8.334697e-002
2.229401e+003;8.344032e-002
2.231330e+003;8.331750e-002
2.233259e+003;8.311059e-002
2.235187e+003;8.305105e-002
2.237116e+003;8.309586e-002
2.239044e+003;8.298542e-002
2.240973e+003;8.285276e-002
2.242901e+003;8.285011e-002
2.244830e+003;8.282806e-002
2.246758e+003;8.274751e-002
2.248687e+003;8.263187e-002
2.250615e+003;8.276182e-002
2.252544e+003;8.299497e-002
2.254473e+003;8.302987e-002
2.256401e+003;8.282951e-002
2.258330e+003;8.264650e-002
2.260258e+003;8.282100e-002
2.262187e+003;8.307580e-002
2.264115e+003;8.296721e-002
2.266044e+003;8.287197e-002
2.267972e+003;8.289687e-002
2.269901e+003;8.280019e-002
2.271830e+003;8.268061e-002
2.273758e+003;8.278769e-002
2.275687e+003;8.275260e-002
2.277615e+003;8.269332e-002
2.279544e+003;8.265471e-002
2.281472e+003;8.262707e-002
2.283401e+003;8.262911e-002
2.285329e+003;8.267432e-002
2.287258e+003;8.262698e-002
2.289187e+003;8.274126e-002
2.291115e+003;8.296693e-002
2.293043e+003;8.298350e-002
2.294972e+003;8.286162e-002
2.296901e+003;8.278083e-002
2.298829e+003;8.277954e-002
2.300758e+003;8.287754e-002
2.302686e+003;8.283471e-002
2.304615e+003;8.271156e-002
2.306543e+003;8.270358e-002
2.308472e+003;8.290794e-002
2.310400e+003;8.296376e-002
2.312329e+003;8.279181e-002
2.314258e+003;8.269732e-002
2.316186e+003;8.251934e-002
2.318115e+003;8.238073e-002
2.320043e+003;8.228217e-002
2.321972e+003;8.235870e-002
2.323900e+003;8.248878e-002
2.325829e+003;8.234825e-002
2.327757e+003;8.215052e-002
2.329686e+003;8.221310e-002
2.331615e+003;8.242948e-002
2.333543e+003;8.238102e-002
2.335472e+003;8.233516e-002
2.337400e+003;8.247864e-002
2.339329e+003;8.263187e-002
2.341257e+003;8.284057e-002
2.343186e+003;8.296032e-002
2.345114e+003;8.281242e-002
2.347043e+003;8.270482e-002
2.348971e+003;8.297335e-002
2.350900e+003;8.305815e-002
2.352829e+003;8.277112e-002
2.354757e+003;8.268365e-002
2.356686e+003;8.276932e-002
2.358614e+003;8.271063e-002
2.360543e+003;8.257344e-002
2.362471e+003;8.268919e-002
2.364400e+003;8.293645e-002
2.366328e+003;8.299372e-002
2.368257e+003;8.313173e-002
2.370186e+003;8.353075e-002
2.372114e+003;8.375037e-002
2.374042e+003;8.384838e-002
2.375971e+003;8.379489e-002
2.377900e+003;8.365928e-002
2.379828e+003;8.378544e-002
2.381757e+003;8.417171e-002
2.383685e+003;8.438626e-002
2.385614e+003;8.446385e-002
2.387542e+003;8.459669e-002
2.389471e+003;8.463312e-002
2.391399e+003;8.450611e-002
2.393328e+003;8.447556e-002
2.395257e+003;8.484021e-002
2.397185e+003;8.501358e-002
2.399114e+003;8.500596e-002
2.401042e+003;8.524442e-002
2.402971e+003;8.553039e-002
2.404899e+003;8.547059e-002
2.406828e+003;8.534092e-002
2.408756e+003;8.558998e-002
2.410685e+003;8.571102e-002
2.412614e+003;8.561125e-002
2.414542e+003;8.576837e-002
2.416471e+003;8.595137e-002
2.418399e+003;8.614473e-002
2.420328e+003;8.643137e-002
2.422256e+003;8.649630e-002
2.424185e+003;8.649736e-002
2.426113e+003;8.652105e-002
2.428042e+003;8.675902e-002
2.429970e+003;8.697359e-002
2.431899e+003;8.707092e-002
2.433828e+003;8.703954e-002
2.435756e+003;8.720982e-002
2.437685e+003;8.730343e-002
2.439613e+003;8.728006e-002
2.441542e+003;8.747495e-002
2.443470e+003;8.752634e-002
2.445399e+003;8.753518e-002
2.447327e+003;8.775991e-002
2.449256e+003;8.789048e-002
2.451185e+003;8.785608e-002
2.453113e+003;8.785892e-002
2.455042e+003;8.810318e-002
2.456970e+003;8.834632e-002
2.458899e+003;8.850935e-002
2.460827e+003;8.844850e-002
2.462756e+003;8.850870e-002
2.464684e+003;8.871987e-002
2.466613e+003;8.896694e-002
2.468542e+003;8.897430e-002
2.470470e+003;8.874711e-002
2.472398e+003;8.903677e-002
2.474327e+003;8.931591e-002
2.476256e+003;8.915075e-002
2.478184e+003;8.907529e-002
2.480113e+003;8.950517e-002
2.482041e+003;8.980288e-002
2.483970e+003;8.985687e-002
2.485898e+003;8.986384e-002
2.487827e+003;8.962709e-002
2.489755e+003;8.943523e-002
2.491684e+003;8.979754e-002
2.493613e+003;9.005659e-002
2.495541e+003;9.014001e-002
2.497470e+003;9.056495e-002
2.499398e+003;9.067954e-002
2.501327e+003;9.055695e-002
2.503255e+003;9.061536e-002
2.505184e+003;9.072253e-002
2.507112e+003;9.066582e-002
2.509041e+003;9.086297e-002
2.510969e+003;9.113709e-002
2.512898e+003;9.117690e-002
2.514827e+003;9.123486e-002
2.516755e+003;9.143150e-002
2.518684e+003;9.152745e-002
2.520612e+003;9.145310e-002
2.522541e+003;9.129602e-002
2.524469e+003;9.145166e-002
2.526398e+003;9.174109e-002
2.528326e+003;9.172709e-002
2.530255e+003;9.173671e-002
2.532184e+003;9.195503e-002
2.534112e+003;9.216916e-002
2.536041e+003;9.221496e-002
2.537969e+003;9.232552e-002
2.539898e+003;9.239597e-002
2.541826e+003;9.227613e-002
2.543755e+003;9.250788e-002
2.545683e+003;9.261642e-002
2.547612e+003;9.256148e-002
2.549541e+003;9.251810e-002
2.551469e+003;9.247193e-002
2.553397e+003;9.249509e-002
2.555326e+003;9.270465e-002
2.557255e+003;9.303197e-002
2.559183e+003;9.315288e-002
2.561112e+003;9.338157e-002
2.563040e+003;9.353980e-002
2.564969e+003;9.361687e-002
2.566897e+003;9.363212e-002
2.568826e+003;9.359911e-002
2.570754e+003;9.359061e-002
2.572683e+003;9.367011e-002
2.574612e+003;9.381899e-002
2.576540e+003;9.386443e-002
2.578469e+003;9.386990e-002
2.580397e+003;9.409744e-002
2.582326e+003;9.433132e-002
2.584254e+003;9.436743e-002
2.586183e+003;9.433804e-002
2.588111e+003;9.440903e-002
2.590040e+003;9.459437e-002
2.591969e+003;9.464011e-002
2.593897e+003;9.481821e-002
2.595826e+003;9.521830e-002
2.597754e+003;9.519206e-002
2.599683e+003;9.491055e-002
2.601611e+003;9.497112e-002
2.603540e+003;9.537973e-002
2.605468e+003;9.556780e-002
2.607397e+003;9.556689e-002
2.609325e+003;9.565014e-002
2.611254e+003;9.570317e-002
2.613183e+003;9.596093e-002
2.615111e+003;9.625024e-002
2.617040e+003;9.621906e-002
2.618968e+003;9.600089e-002
2.620897e+003;9.591163e-002
2.622825e+003;9.594259e-002
2.624754e+003;9.621286e-002
2.626682e+003;9.648002e-002
2.628611e+003;9.643910e-002
2.630540e+003;9.625450e-002
2.632468e+003;9.623266e-002
2.634396e+003;9.659130e-002
2.636325e+003;9.684221e-002
2.638254e+003;9.688094e-002
2.640182e+003;9.683307e-002
2.642111e+003;9.678561e-002
2.644039e+003;9.680279e-002
2.645968e+003;9.673916e-002
2.647896e+003;9.698366e-002
2.649825e+003;9.715188e-002
2.651753e+003;9.717824e-002
2.653682e+003;9.723248e-002
2.655611e+003;9.713845e-002
2.657539e+003;9.712017e-002
2.659468e+003;9.738616e-002
2.661396e+003;9.767915e-002
2.663325e+003;9.748220e-002
2.665253e+003;9.737049e-002
2.667182e+003;9.744006e-002
2.669110e+003;9.762286e-002
2.671039e+003;9.800100e-002
2.672968e+003;9.836151e-002
2.674896e+003;9.855970e-002
2.676825e+003;9.856547e-002
2.678753e+003;9.835349e-002
2.680682e+003;9.819249e-002
2.682610e+003;9.817646e-002
2.684539e+003;9.836613e-002
2.686467e+003;9.857604e-002
2.688396e+003;9.880360e-002
2.690324e+003;9.898534e-002
2.692253e+003;9.887662e-002
2.694182e+003;9.863242e-002
2.696110e+003;9.886193e-002
2.698039e+003;9.912599e-002
2.699967e+003;9.931061e-002
2.701896e+003;9.945769e-002
2.703824e+003;9.937875e-002
2.705753e+003;9.930257e-002
2.707681e+003;9.951298e-002
2.709610e+003;9.970277e-002
2.711539e+003;9.996650e-002
2.713467e+003;1.002323e-001
2.715396e+003;1.000789e-001
2.717324e+003;9.979858e-002
2.719253e+003;9.987780e-002
2.721181e+003;1.002137e-001
2.723110e+003;1.006193e-001
2.725038e+003;1.010072e-001
2.726967e+003;1.010116e-001
2.728896e+003;1.007732e-001
2.730824e+003;1.010532e-001
2.732752e+003;1.015327e-001
2.734681e+003;1.017215e-001
2.736610e+003;1.017381e-001
2.738538e+003;1.018210e-001
2.740467e+003;1.021648e-001
2.742395e+003;1.022325e-001
2.744324e+003;1.022805e-001
2.746252e+003;1.025791e-001
2.748181e+003;1.023790e-001
2.750109e+003;1.023312e-001
2.752038e+003;1.024376e-001
2.753967e+003;1.025016e-001
2.755895e+003;1.027841e-001
2.757824e+003;1.030183e-001
2.759752e+003;1.030639e-001
2.761681e+003;1.031780e-001
2.763609e+003;1.034019e-001
2.765538e+003;1.035101e-001
2.767466e+003;1.034683e-001
2.769395e+003;1.037489e-001
2.771323e+003;1.039381e-001
2.773252e+003;1.038397e-001
2.775181e+003;1.039569e-001
2.777109e+003;1.042156e-001
2.779038e+003;1.042460e-001
2.780966e+003;1.043142e-001
2.782895e+003;1.044606e-001
2.784823e+003;1.044282e-001
2.786752e+003;1.047247e-001
2.788680e+003;1.053214e-001
2.790609e+003;1.056784e-001
2.792538e+003;1.056991e-001
2.794466e+003;1.055921e-001
2.796395e+003;1.056167e-001
2.798323e+003;1.056105e-001
2.800252e+003;1.057997e-001
2.802180e+003;1.061156e-001
2.804109e+003;1.062226e-001
2.806037e+003;1.064430e-001
2.807966e+003;1.068000e-001
2.809895e+003;1.070730e-001
2.811823e+003;1.073548e-001
2.813751e+003;1.075084e-001
2.815680e+003;1.077484e-001
2.817609e+003;1.080312e-001
2.819537e+003;1.080308e-001
2.821466e+003;1.080073e-001
2.823394e+003;1.080128e-001
2.825323e+003;1.081686e-001
2.827251e+003;1.084145e-001
2.829180e+003;1.086620e-001
2.831108e+003;1.086981e-001
2.833037e+003;1.087644e-001
2.834966e+003;1.092707e-001
2.836894e+003;1.097901e-001
2.838823e+003;1.102900e-001
2.840751e+003;1.107718e-001
2.842680e+003;1.109852e-001
2.844608e+003;1.114622e-001
2.846537e+003;1.121307e-001
2.848465e+003;1.125622e-001
2.850394e+003;1.128929e-001
2.852323e+003;1.131529e-001
2.854251e+003;1.135382e-001
2.856180e+003;1.143949e-001
2.858108e+003;1.150363e-001
2.860037e+003;1.152927e-001
2.861965e+003;1.155842e-001
2.863894e+003;1.161103e-001
2.865822e+003;1.168045e-001
2.867751e+003;1.175747e-001
2.869679e+003;1.181189e-001
2.871608e+003;1.185455e-001
2.873536e+003;1.187329e-001
2.875465e+003;1.186690e-001
2.877394e+003;1.184526e-001
2.879322e+003;1.181515e-001
2.881251e+003;1.180984e-001
2.883179e+003;1.181177e-001
2.885108e+003;1.178673e-001
2.887036e+003;1.178260e-001
2.888965e+003;1.180703e-001
2.890893e+003;1.180029e-001
2.892822e+003;1.180544e-001
2.894750e+003;1.184522e-001
2.896679e+003;1.185278e-001
2.898608e+003;1.187014e-001
2.900536e+003;1.193156e-001
2.902465e+003;1.198020e-001
2.904393e+003;1.200898e-001
2.906322e+003;1.206090e-001
2.908250e+003;1.208667e-001
2.910179e+003;1.210568e-001
2.912107e+003;1.220115e-001
2.914036e+003;1.227879e-001
2.915965e+003;1.230593e-001
2.917893e+003;1.236457e-001
2.919822e+003;1.242800e-001
2.921750e+003;1.246026e-001
2.923679e+003;1.249912e-001
2.925607e+003;1.255920e-001
2.927536e+003;1.260781e-001
2.929464e+003;1.263502e-001
2.931393e+003;1.263523e-001
2.933322e+003;1.261484e-001
2.935250e+003;1.258732e-001
2.937178e+003;1.256893e-001
2.939107e+003;1.251578e-001
2.941036e+003;1.244633e-001
2.942964e+003;1.242456e-001
2.944893e+003;1.243955e-001
2.946821e+003;1.244638e-001
2.948750e+003;1.244196e-001
2.950678e+003;1.244019e-001
2.952607e+003;1.241662e-001
2.954535e+003;1.240090e-001
2.956464e+003;1.242462e-001
2.958393e+003;1.244404e-001
2.960321e+003;1.243167e-001
2.962250e+003;1.241341e-001
2.964178e+003;1.240747e-001
2.966107e+003;1.237314e-001
2.968035e+003;1.231790e-001
2.969964e+003;1.227856e-001
2.971892e+003;1.221652e-001
2.973821e+003;1.213536e-001
2.975750e+003;1.205808e-001
2.977678e+003;1.200271e-001
2.979607e+003;1.193560e-001
2.981535e+003;1.186785e-001
2.983464e+003;1.183202e-001
2.985392e+003;1.178900e-001
2.987321e+003;1.172658e-001
2.989249e+003;1.165353e-001
2.991178e+003;1.161837e-001
2.993106e+003;1.162213e-001
2.995035e+003;1.161280e-001
2.996964e+003;1.155368e-001
2.998892e+003;1.153638e-001
3.000821e+003;1.154942e-001
3.002749e+003;1.155303e-001
3.004678e+003;1.154944e-001
3.006606e+003;1.151744e-001
3.008535e+003;1.150018e-001
3.010463e+003;1.150292e-001
3.012392e+003;1.151745e-001
3.014321e+003;1.149803e-001
3.016249e+003;1.150371e-001
3.018177e+003;1.154774e-001
3.020106e+003;1.156633e-001
3.022035e+003;1.161125e-001
3.023963e+003;1.167088e-001
3.025892e+003;1.166304e-001
3.027820e+003;1.164595e-001
3.029749e+003;1.166114e-001
3.031677e+003;1.171111e-001
3.033606e+003;1.174246e-001
3.035534e+003;1.173480e-001
3.037463e+003;1.175729e-001
3.039392e+003;1.180311e-001
3.041320e+003;1.182611e-001
3.043249e+003;1.186350e-001
3.045177e+003;1.190537e-001
3.047106e+003;1.192300e-001
3.049034e+003;1.191199e-001
3.050963e+003;1.189643e-001
3.052891e+003;1.191434e-001
3.054820e+003;1.192720e-001
3.056749e+003;1.196079e-001
3.058677e+003;1.201394e-001
3.060606e+003;1.201609e-001
3.062534e+003;1.199334e-001
3.064463e+003;1.197555e-001
3.066391e+003;1.196883e-001
3.068320e+003;1.198607e-001
3.070248e+003;1.199567e-001
3.072177e+003;1.197100e-001
3.074105e+003;1.195984e-001
3.076034e+003;1.193234e-001
3.077963e+003;1.192678e-001
3.079891e+003;1.195808e-001
3.081820e+003;1.195503e-001
3.083748e+003;1.190205e-001
3.085677e+003;1.185032e-001
3.087605e+003;1.186375e-001
3.089534e+003;1.189222e-001
3.091462e+003;1.186612e-001
3.093391e+003;1.184350e-001
3.095320e+003;1.185484e-001
3.097248e+003;1.186996e-001
3.099177e+003;1.185755e-001
3.101105e+003;1.182131e-001
3.103034e+003;1.182992e-001
3.104962e+003;1.184053e-001
3.106891e+003;1.182816e-001
3.108819e+003;1.181241e-001
3.110748e+003;1.181246e-001
3.112677e+003;1.186035e-001
3.114605e+003;1.190948e-001
3.116533e+003;1.193296e-001
3.118462e+003;1.194299e-001
3.120391e+003;1.192318e-001
3.122319e+003;1.189459e-001
3.124248e+003;1.190358e-001
3.126176e+003;1.192442e-001
3.128105e+003;1.195003e-001
3.130033e+003;1.198986e-001
3.131962e+003;1.202603e-001
3.133890e+003;1.205304e-001
3.135819e+003;1.206236e-001
3.137748e+003;1.206058e-001
3.139676e+003;1.208038e-001
3.141605e+003;1.214927e-001
3.143533e+003;1.219830e-001
3.145462e+003;1.216355e-001
3.147390e+003;1.216177e-001
3.149319e+003;1.222652e-001
3.151247e+003;1.231939e-001
3.153176e+003;1.238268e-001
3.155104e+003;1.241744e-001
3.157033e+003;1.242554e-001
3.158962e+003;1.245226e-001
3.160890e+003;1.251862e-001
3.162819e+003;1.254447e-001
3.164747e+003;1.254045e-001
3.166676e+003;1.258461e-001
3.168604e+003;1.263651e-001
3.170533e+003;1.264240e-001
3.172461e+003;1.266148e-001
3.174390e+003;1.271557e-001
3.176319e+003;1.276086e-001
3.178247e+003;1.280684e-001
3.180176e+003;1.286073e-001
3.182104e+003;1.287781e-001
3.184033e+003;1.290062e-001
3.185961e+003;1.291443e-001
3.187890e+003;1.293781e-001
3.189818e+003;1.299449e-001
3.191747e+003;1.299941e-001
3.193676e+003;1.301244e-001
3.195604e+003;1.307522e-001
3.197532e+003;1.314438e-001
3.199461e+003;1.321159e-001
3.201390e+003;1.323805e-001
3.203318e+003;1.322629e-001
3.205247e+003;1.326500e-001
3.207175e+003;1.329121e-001
3.209104e+003;1.326817e-001
3.211032e+003;1.328604e-001
3.212961e+003;1.330183e-001
3.214889e+003;1.330854e-001
3.216818e+003;1.335448e-001
3.218747e+003;1.341044e-001
3.220675e+003;1.345951e-001
3.222604e+003;1.348260e-001
3.224532e+003;1.346724e-001
3.226461e+003;1.347870e-001
3.228389e+003;1.351993e-001
3.230318e+003;1.354124e-001
3.232246e+003;1.356758e-001
3.234175e+003;1.359380e-001
3.236104e+003;1.362739e-001
3.238032e+003;1.364751e-001
3.239961e+003;1.370034e-001
3.241889e+003;1.374885e-001
3.243818e+003;1.377877e-001
3.245746e+003;1.380858e-001
3.247675e+003;1.383761e-001
3.249603e+003;1.386733e-001
3.251532e+003;1.388603e-001
3.253460e+003;1.393616e-001
3.255389e+003;1.398574e-001
3.257318e+003;1.397834e-001
3.259246e+003;1.398810e-001
3.261175e+003;1.406789e-001
3.263103e+003;1.413988e-001
3.265032e+003;1.414877e-001
3.266960e+003;1.414553e-001
3.268889e+003;1.418471e-001
3.270817e+003;1.421314e-001
3.272746e+003;1.421221e-001
3.274675e+003;1.422802e-001
3.276603e+003;1.427868e-001
3.278531e+003;1.430974e-001
3.280460e+003;1.430855e-001
3.282389e+003;1.429223e-001
3.284317e+003;1.431050e-001
3.286246e+003;1.433265e-001
3.288174e+003;1.427236e-001
3.290103e+003;1.418973e-001
3.292031e+003;1.419351e-001
3.293960e+003;1.422529e-001
3.295888e+003;1.421231e-001
3.297817e+003;1.417371e-001
3.299746e+003;1.416543e-001
3.301674e+003;1.413617e-001
3.303603e+003;1.407822e-001
3.305531e+003;1.405980e-001
3.307460e+003;1.402407e-001
3.309388e+003;1.397552e-001
3.311317e+003;1.396611e-001
3.313245e+003;1.394615e-001
3.315174e+003;1.384970e-001
3.317103e+003;1.380078e-001
3.319031e+003;1.376309e-001
3.320960e+003;1.371566e-001
3.322888e+003;1.368911e-001
3.324817e+003;1.364590e-001
3.326745e+003;1.361241e-001
3.328674e+003;1.356665e-001
3.330602e+003;1.353375e-001
3.332531e+003;1.347906e-001
3.334459e+003;1.340590e-001
3.336388e+003;1.337499e-001
3.338317e+003;1.337131e-001
3.340245e+003;1.330438e-001
3.342174e+003;1.323098e-001
3.344102e+003;1.320072e-001
3.346031e+003;1.316039e-001
3.347959e+003;1.311020e-001
3.349888e+003;1.306380e-001
3.351816e+003;1.297808e-001
3.353745e+003;1.289594e-001
3.355674e+003;1.287777e-001
3.357602e+003;1.286150e-001
3.359531e+003;1.280850e-001
3.361459e+003;1.270835e-001
3.363388e+003;1.264973e-001
3.365316e+003;1.265586e-001
3.367245e+003;1.256465e-001
3.369173e+003;1.247883e-001
3.371102e+003;1.244526e-001
3.373031e+003;1.243112e-001
3.374959e+003;1.242125e-001
3.376887e+003;1.237494e-001
3.378816e+003;1.229171e-001
3.380745e+003;1.221865e-001
3.382673e+003;1.219337e-001
3.384602e+003;1.215577e-001
3.386530e+003;1.212842e-001
3.388459e+003;1.211453e-001
3.390387e+003;1.205639e-001
3.392316e+003;1.200004e-001
3.394244e+003;1.197981e-001
3.396173e+003;1.196950e-001
3.398102e+003;1.190732e-001
3.400030e+003;1.185452e-001
3.401959e+003;1.181823e-001
3.403887e+003;1.173148e-001
3.405816e+003;1.165407e-001
3.407744e+003;1.162794e-001
3.409673e+003;1.163634e-001
3.411601e+003;1.160124e-001
3.413530e+003;1.155812e-001
3.415458e+003;1.154998e-001
3.417387e+003;1.148311e-001
3.419316e+003;1.139468e-001
3.421244e+003;1.133559e-001
3.423173e+003;1.135892e-001
3.425101e+003;1.136857e-001
3.427030e+003;1.127394e-001
3.428958e+003;1.117164e-001
3.430887e+003;1.109778e-001
3.432815e+003;1.103567e-001
3.434744e+003;1.103082e-001
3.436673e+003;1.104395e-001
3.438601e+003;1.099988e-001
3.440530e+003;1.093013e-001
3.442458e+003;1.088122e-001
3.444387e+003;1.085837e-001
3.446315e+003;1.082297e-001
3.448244e+003;1.077862e-001
3.450172e+003;1.072688e-001
3.452101e+003;1.069461e-001
3.454030e+003;1.068015e-001
3.455958e+003;1.065330e-001
3.457886e+003;1.065195e-001
3.459815e+003;1.067532e-001
3.461744e+003;1.060908e-001
3.463672e+003;1.050474e-001
3.465601e+003;1.048643e-001
3.467529e+003;1.042500e-001
3.469458e+003;1.033735e-001
3.471386e+003;1.035636e-001
3.473315e+003;1.040523e-001
3.475243e+003;1.040341e-001
3.477172e+003;1.033857e-001
3.479101e+003;1.024406e-001
3.481029e+003;1.016927e-001
3.482958e+003;1.017610e-001
3.484886e+003;1.020486e-001
3.486815e+003;1.016722e-001
3.488743e+003;1.011025e-001
3.490672e+003;1.007188e-001
3.492600e+003;1.004529e-001
3.494529e+003;1.000776e-001
3.496458e+003;9.986537e-002
3.498386e+003;9.984452e-002
3.500315e+003;9.958869e-002
3.502243e+003;9.947665e-002
3.504172e+003;9.932477e-002
3.506100e+003;9.867354e-002
3.508029e+003;9.849963e-002
3.509957e+003;9.848520e-002
3.511886e+003;9.805859e-002
3.513814e+003;9.770177e-002
3.515743e+003;9.769227e-002
3.517672e+003;9.735457e-002
3.519600e+003;9.693756e-002
3.521529e+003;9.668820e-002
3.523457e+003;9.629205e-002
3.525386e+003;9.638218e-002
3.527314e+003;9.651586e-002
3.529243e+003;9.646728e-002
3.531171e+003;9.621322e-002
3.533100e+003;9.579099e-002
3.535029e+003;9.505652e-002
3.536957e+003;9.461736e-002
3.538885e+003;9.440165e-002
3.540814e+003;9.412029e-002
3.542743e+003;9.350101e-002
3.544671e+003;9.310608e-002
3.546600e+003;9.273061e-002
3.548528e+003;9.246935e-002
3.550457e+003;9.235855e-002
3.552385e+003;9.211852e-002
3.554314e+003;9.248218e-002
3.556242e+003;9.295054e-002
3.558171e+003;9.252536e-002
3.560100e+003;9.155961e-002
3.562028e+003;9.105875e-002
3.563957e+003;9.010429e-002
3.565885e+003;8.938788e-002
3.567814e+003;8.946168e-002
3.569742e+003;8.993789e-002
3.571671e+003;9.002744e-002
3.573599e+003;8.963182e-002
3.575528e+003;8.928148e-002
3.577457e+003;8.910055e-002
3.579385e+003;8.887723e-002
3.581314e+003;8.897739e-002
3.583242e+003;8.896340e-002
3.585171e+003;8.805707e-002
3.587099e+003;8.702157e-002
3.589028e+003;8.688369e-002
3.590956e+003;8.717807e-002
3.592885e+003;8.696675e-002
3.594813e+003;8.642700e-002
3.596742e+003;8.572151e-002
3.598671e+003;8.551493e-002
3.600599e+003;8.550497e-002
3.602528e+003;8.566851e-002
3.604456e+003;8.544333e-002
3.606385e+003;8.470315e-002
3.608313e+003;8.370958e-002
3.610242e+003;8.286402e-002
3.612170e+003;8.219460e-002
3.614099e+003;8.272430e-002
3.616028e+003;8.317756e-002
3.617956e+003;8.248990e-002
3.619885e+003;8.187313e-002
3.621813e+003;8.188074e-002
3.623742e+003;8.189707e-002
3.625670e+003;8.111265e-002
3.627599e+003;7.927325e-002
3.629527e+003;7.879151e-002
3.631456e+003;7.956243e-002
3.633385e+003;7.988223e-002
3.635313e+003;7.977331e-002
3.637241e+003;7.939921e-002
3.639170e+003;7.888503e-002
3.641099e+003;7.834178e-002
3.643027e+003;7.776995e-002
3.644956e+003;7.684502e-002
3.646884e+003;7.515477e-002
3.648813e+003;7.373097e-002
3.650741e+003;7.421231e-002
3.652670e+003;7.531170e-002
3.654598e+003;7.466113e-002
3.656527e+003;7.418880e-002
3.658456e+003;7.455281e-002
3.660384e+003;7.419100e-002
3.662313e+003;7.371499e-002
3.664241e+003;7.320803e-002
3.666170e+003;7.245880e-002
3.668098e+003;7.078616e-002
3.670027e+003;6.907861e-002
3.671955e+003;6.960044e-002
3.673884e+003;6.891393e-002
3.675813e+003;6.813729e-002
3.677741e+003;6.960461e-002
3.679669e+003;6.995159e-002
3.681598e+003;6.946328e-002
3.683527e+003;6.838311e-002
3.685455e+003;6.684378e-002
3.687384e+003;6.545420e-002
3.689312e+003;6.583761e-002
3.691241e+003;6.658627e-002
3.693169e+003;6.716977e-002
3.695098e+003;6.733925e-002
3.697026e+003;6.724415e-002
3.698955e+003;6.728771e-002
3.700884e+003;6.681135e-002
3.702812e+003;6.655958e-002
3.704741e+003;6.650822e-002
3.706669e+003;6.662559e-002
3.708598e+003;6.632197e-002
3.710526e+003;6.485061e-002
3.712455e+003;6.416088e-002
3.714383e+003;6.553102e-002
3.716312e+003;6.616408e-002
3.718240e+003;6.555696e-002
3.720169e+003;6.512856e-002
3.722098e+003;6.537142e-002
3.724026e+003;6.548078e-002
3.725955e+003;6.523706e-002
3.727883e+003;6.532081e-002
3.729812e+003;6.455149e-002
3.731740e+003;6.355532e-002
3.733669e+003;6.328952e-002
3.735597e+003;6.275894e-002
3.737526e+003;6.315086e-002
3.739455e+003;6.452081e-002
3.741383e+003;6.462350e-002
3.743312e+003;6.201658e-002
3.745240e+003;6.209467e-002
3.747169e+003;6.289721e-002
3.749097e+003;6.193575e-002
3.751026e+003;6.205740e-002
3.752954e+003;6.365141e-002
3.754883e+003;6.493513e-002
3.756812e+003;6.474333e-002
3.758740e+003;6.422641e-002
3.760668e+003;6.451881e-002
3.762597e+003;6.508095e-002
3.764526e+003;6.486741e-002
3.766454e+003;6.485480e-002
3.768383e+003;6.443233e-002
3.770311e+003;6.436477e-002
3.772240e+003;6.474244e-002
3.774168e+003;6.508595e-002
3.776097e+003;6.519994e-002
3.778025e+003;6.501460e-002
3.779954e+003;6.509573e-002
3.781883e+003;6.583656e-002
3.783811e+003;6.546129e-002
3.785740e+003;6.492005e-002
3.787668e+003;6.502383e-002
3.789597e+003;6.537292e-002
3.791525e+003;6.573012e-002
3.793454e+003;6.566629e-002
3.795382e+003;6.478537e-002
3.797311e+003;6.452231e-002
3.799240e+003;6.372404e-002
3.801168e+003;6.309338e-002
3.803097e+003;6.433741e-002
3.805025e+003;6.442749e-002
3.806954e+003;6.402428e-002
3.808882e+003;6.481337e-002
3.810811e+003;6.569219e-002
3.812739e+003;6.535371e-002
3.814668e+003;6.335634e-002
3.816596e+003;6.343164e-002
3.818525e+003;6.477175e-002
3.820454e+003;6.427175e-002
3.822382e+003;6.452393e-002
3.824311e+003;6.503415e-002
3.826239e+003;6.511598e-002
3.828168e+003;6.574345e-002
3.830096e+003;6.585781e-002
3.832025e+003;6.509854e-002
3.833953e+003;6.472210e-002
3.835882e+003;6.395037e-002
3.837811e+003;6.340542e-002
3.839739e+003;6.419346e-002
3.841667e+003;6.493090e-002
3.843596e+003;6.573182e-002
3.845525e+003;6.667102e-002
3.847453e+003;6.627487e-002
3.849382e+003;6.517241e-002
3.851310e+003;6.331306e-002
3.853239e+003;6.135694e-002
3.855167e+003;6.309629e-002
3.857096e+003;6.580865e-002
3.859024e+003;6.610841e-002
3.860953e+003;6.526459e-002
3.862882e+003;6.476575e-002
3.864810e+003;6.494722e-002
3.866739e+003;6.535964e-002
3.868667e+003;6.507137e-002
3.870596e+003;6.561950e-002
3.872524e+003;6.596433e-002
3.874453e+003;6.587358e-002
3.876381e+003;6.625754e-002
3.878310e+003;6.585858e-002
3.880239e+003;6.523051e-002
3.882167e+003;6.594546e-002
3.884096e+003;6.590585e-002
3.886024e+003;6.581370e-002
3.887953e+003;6.656843e-002
3.889881e+003;6.594585e-002
3.891810e+003;6.578567e-002
3.893738e+003;6.661211e-002
3.895667e+003;6.707847e-002
3.897595e+003;6.671054e-002
3.899524e+003;6.564710e-002
3.901453e+003;6.533849e-002
3.903381e+003;6.577931e-002
3.905310e+003;6.644898e-002
3.907238e+003;6.715581e-002
3.909167e+003;6.749121e-002
3.911095e+003;6.768916e-002
3.913024e+003;6.766012e-002
3.914952e+003;6.752926e-002
3.916881e+003;6.748266e-002
3.918810e+003;6.720284e-002
3.920738e+003;6.733669e-002
3.922667e+003;6.794116e-002
3.924595e+003;6.810094e-002
3.926524e+003;6.793895e-002
3.928452e+003;6.791179e-002
3.930381e+003;6.796405e-002
3.932309e+003;6.806908e-002
3.934238e+003;6.835309e-002
3.936167e+003;6.846061e-002
3.938095e+003;6.851096e-002
3.940023e+003;6.812074e-002
3.941952e+003;6.809078e-002
3.943881e+003;6.832060e-002
3.945809e+003;6.775027e-002
3.947738e+003;6.713404e-002
3.949666e+003;6.763382e-002
3.951595e+003;6.854255e-002
3.953523e+003;6.867771e-002
3.955452e+003;6.799351e-002
3.957380e+003;6.713478e-002
3.959309e+003;6.721956e-002
3.961238e+003;6.817950e-002
3.963166e+003;6.855512e-002
3.965095e+003;6.836097e-002
3.967023e+003;6.797386e-002
3.968952e+003;6.765710e-002
3.970880e+003;6.792233e-002
3.972809e+003;6.827798e-002
3.974737e+003;6.808799e-002
3.976666e+003;6.795259e-002
3.978594e+003;6.812299e-002
3.980523e+003;6.803451e-002
3.982452e+003;6.814520e-002
3.984380e+003;6.792965e-002
3.986309e+003;6.764475e-002
3.988237e+003;6.782339e-002
3.990166e+003;6.807334e-002
3.992094e+003;6.817470e-002
3.994023e+003;6.806539e-002
3.995951e+003;6.810698e-002
3.997880e+003;6.835694e-002
3.999809e+003;6.791446e-002
4.001737e+003;0.000000e+000
