3.992094e+002;0.000000e+000
4.011380e+002;0.000000e+000
4.030665e+002;0.000000e+000
4.049951e+002;0.000000e+000
4.069236e+002;0.000000e+000
4.088522e+002;0.000000e+000
4.107807e+002;0.000000e+000
4.127093e+002;0.000000e+000
4.146378e+002;0.000000e+000
4.165664e+002;0.000000e+000
4.184949e+002;0.000000e+000
4.204235e+002;0.000000e+000
4.223520e+002;0.000000e+000
4.242806e+002;0.000000e+000
4.262091e+002;0.000000e+000
4.281377e+002;0.000000e+000
4.300662e+002;0.000000e+000
4.319948e+002;0.000000e+000
4.339233e+002;0.000000e+000
4.358519e+002;0.000000e+000
4.377804e+002;0.000000e+000
4.397090e+002;0.000000e+000
4.416375e+002;0.000000e+000
4.435660e+002;0.000000e+000
4.454946e+002;0.000000e+000
4.474232e+002;0.000000e+000
4.493517e+002;0.000000e+000
4.512802e+002;0.000000e+000
4.532088e+002;0.000000e+000
4.551373e+002;0.000000e+000
4.570659e+002;0.000000e+000
4.589944e+002;0.000000e+000
4.609230e+002;0.000000e+000
4.628515e+002;0.000000e+000
4.647801e+002;0.000000e+000
4.667086e+002;0.000000e+000
4.686372e+002;0.000000e+000
4.705657e+002;0.000000e+000
4.724943e+002;0.000000e+000
4.744228e+002;0.000000e+000
4.763513e+002;0.000000e+000
4.782799e+002;0.000000e+000
4.802085e+002;0.000000e+000
4.821370e+002;0.000000e+000
4.840656e+002;0.000000e+000
4.859941e+002;0.000000e+000
4.879226e+002;0.000000e+000
4.898512e+002;0.000000e+000
4.917798e+002;0.000000e+000
4.937083e+002;0.000000e+000
4.956368e+002;0.000000e+000
4.975654e+002;0.000000e+000
4.994939e+002;0.000000e+000
5.014225e+002;0.000000e+000
5.033510e+002;0.000000e+000
5.052796e+002;0.000000e+000
5.072081e+002;0.000000e+000
5.091367e+002;0.000000e+000
5.110652e+002;0.000000e+000
5.129938e+002;0.000000e+000
5.149223e+002;0.000000e+000
5.168509e+002;0.000000e+000
5.187794e+002;0.000000e+000
5.207079e+002;0.000000e+000
5.226365e+002;0.000000e+000
5.245651e+002;0.000000e+000
5.264936e+002;0.000000e+000
5.284222e+002;0.000000e+000
5.303507e+002;0.000000e+000
5.322792e+002;0.000000e+000
5.342078e+002;0.000000e+000
5.361364e+002;0.000000e+000
5.380649e+002;0.000000e+000
5.399935e+002;0.000000e+000
5.419220e+002;0.000000e+000
5.438505e+002;0.000000e+000
5.457791e+002;0.000000e+000
5.477076e+002;0.000000e+000
5.496362e+002;0.000000e+000
5.515648e+002;0.000000e+000
5.534933e+002;0.000000e+000
5.554218e+002;0.000000e+000
5.573504e+002;0.000000e+000
5.592789e+002;0.000000e+000
5.612075e+002;0.000000e+000
5.631360e+002;0.000000e+000
5.650646e+002;0.000000e+000
5.669931e+002;0.000000e+000
5.689217e+002;0.000000e+000
5.708502e+002;0.000000e+000
5.727787e+002;0.000000e+000
5.747073e+002;0.000000e+000
5.766359e+002;0.000000e+000
5.785644e+002;0.000000e+000
5.804930e+002;0.000000e+000
5.824215e+002;0.000000e+000
5.843500e+002;0.000000e+000
5.862786e+002;0.000000e+000
5.882072e+002;0.000000e+000
5.901357e+002;0.000000e+000
5.920643e+002;0.000000e+000
5.939928e+002;0.000000e+000
5.959213e+002;0.000000e+000
5.978499e+002;0.000000e+000
5.997784e+002;2.223147e-001
6.017070e+002;2.234789e-001
6.036355e+002;2.298155e-001
6.055641e+002;2.366181e-001
6.074926e+002;2.359541e-001
6.094211e+002;2.323748e-001
6.113497e+002;2.341307e-001
6.132783e+002;2.345440e-001
6.152068e+002;2.327213e-001
6.171354e+002;2.282899e-001
6.190639e+002;2.262556e-001
6.209924e+002;2.271194e-001
6.229210e+002;2.270087e-001
6.248495e+002;2.241839e-001
6.267781e+002;2.205927e-001
6.287067e+002;2.180482e-001
6.306352e+002;2.163441e-001
6.325637e+002;2.156141e-001
6.344923e+002;2.088086e-001
6.364208e+002;2.078261e-001
6.383494e+002;2.137519e-001
6.402780e+002;2.138840e-001
6.422065e+002;2.111622e-001
6.441350e+002;2.110294e-001
6.460636e+002;2.165168e-001
6.479921e+002;2.179420e-001
6.499207e+002;2.149705e-001
6.518492e+002;2.090850e-001
6.537778e+002;2.016309e-001
6.557063e+002;1.986296e-001
6.576349e+002;1.991946e-001
6.595634e+002;2.007035e-001
6.614919e+002;2.039534e-001
6.634205e+002;2.054524e-001
6.653491e+002;2.048428e-001
6.672776e+002;2.030172e-001
6.692062e+002;2.015259e-001
6.711347e+002;1.998861e-001
6.730632e+002;1.978067e-001
6.749918e+002;1.963426e-001
6.769203e+002;1.949378e-001
6.788489e+002;1.942880e-001
6.807775e+002;1.936594e-001
6.827060e+002;1.928794e-001
6.846345e+002;1.922707e-001
6.865631e+002;1.921495e-001
6.884916e+002;1.910532e-001
6.904202e+002;1.903881e-001
6.923488e+002;1.899735e-001
6.942773e+002;1.888672e-001
6.962058e+002;1.885683e-001
6.981344e+002;1.886085e-001
7.000629e+002;1.878637e-001
7.019915e+002;1.861075e-001
7.039200e+002;1.838129e-001
7.058486e+002;1.809032e-001
7.077771e+002;1.784577e-001
7.097057e+002;1.770119e-001
7.116342e+002;1.751976e-001
7.135627e+002;1.737432e-001
7.154913e+002;1.724724e-001
7.174199e+002;1.714597e-001
7.193484e+002;1.702561e-001
7.212770e+002;1.684093e-001
7.232055e+002;1.663330e-001
7.251340e+002;1.659347e-001
7.270626e+002;1.662416e-001
7.289911e+002;1.658827e-001
7.309197e+002;1.652303e-001
7.328483e+002;1.643036e-001
7.347768e+002;1.635455e-001
7.367053e+002;1.641649e-001
7.386339e+002;1.647129e-001
7.405624e+002;1.645453e-001
7.424910e+002;1.648992e-001
7.444196e+002;1.640303e-001
7.463481e+002;1.616098e-001
7.482766e+002;1.595513e-001
7.502052e+002;1.582618e-001
7.521337e+002;1.576527e-001
7.540623e+002;1.569777e-001
7.559908e+002;1.554656e-001
7.579194e+002;1.537721e-001
7.598479e+002;1.526905e-001
7.617765e+002;1.515519e-001
7.637050e+002;1.495984e-001
7.656335e+002;1.478306e-001
7.675621e+002;1.470941e-001
7.694907e+002;1.460565e-001
7.714192e+002;1.448873e-001
7.733478e+002;1.435568e-001
7.752763e+002;1.423517e-001
7.772048e+002;1.417047e-001
7.791334e+002;1.409334e-001
7.810620e+002;1.394646e-001
7.829905e+002;1.383660e-001
7.849191e+002;1.374209e-001
7.868476e+002;1.365843e-001
7.887761e+002;1.364137e-001
7.907047e+002;1.360364e-001
7.926332e+002;1.353904e-001
7.945618e+002;1.343340e-001
7.964903e+002;1.335001e-001
7.984189e+002;1.331200e-001
8.003474e+002;1.331031e-001
8.022759e+002;1.329444e-001
8.042045e+002;1.327875e-001
8.061331e+002;1.323172e-001
8.080616e+002;1.317454e-001
8.099902e+002;1.313862e-001
8.119187e+002;1.309925e-001
8.138472e+002;1.305681e-001
8.157758e+002;1.307744e-001
8.177043e+002;1.312351e-001
8.196329e+002;1.314187e-001
8.215615e+002;1.317723e-001
8.234900e+002;1.322187e-001
8.254185e+002;1.324273e-001
8.273471e+002;1.323689e-001
8.292756e+002;1.318283e-001
8.312042e+002;1.305111e-001
8.331328e+002;1.289893e-001
8.350613e+002;1.275568e-001
8.369898e+002;1.261028e-001
8.389184e+002;1.250717e-001
8.408469e+002;1.237394e-001
8.427755e+002;1.220587e-001
8.447040e+002;1.215230e-001
8.466326e+002;1.214876e-001
8.485611e+002;1.203713e-001
8.504897e+002;1.191864e-001
8.524182e+002;1.193765e-001
8.543467e+002;1.195648e-001
8.562753e+002;1.190698e-001
8.582039e+002;1.181762e-001
8.601324e+002;1.171564e-001
8.620610e+002;1.166803e-001
8.639895e+002;1.167396e-001
8.659180e+002;1.172463e-001
8.678466e+002;1.175391e-001
8.697751e+002;1.176078e-001
8.717037e+002;1.180037e-001
8.736323e+002;1.182328e-001
8.755608e+002;1.181331e-001
8.774893e+002;1.182765e-001
8.794179e+002;1.185074e-001
8.813464e+002;1.186571e-001
8.832750e+002;1.188541e-001
8.852036e+002;1.191503e-001
8.871321e+002;1.196263e-001
8.890606e+002;1.194337e-001
8.909892e+002;1.187696e-001
8.929177e+002;1.181541e-001
8.948463e+002;1.175742e-001
8.967748e+002;1.174681e-001
8.987034e+002;1.176257e-001
9.006319e+002;1.176430e-001
9.025605e+002;1.175008e-001
9.044890e+002;1.176754e-001
9.064175e+002;1.179886e-001
9.083461e+002;1.180280e-001
9.102747e+002;1.180115e-001
9.122032e+002;1.181063e-001
9.141318e+002;1.182694e-001
9.160603e+002;1.184767e-001
9.179888e+002;1.190535e-001
9.199174e+002;1.193733e-001
9.218459e+002;1.198089e-001
9.237745e+002;1.203461e-001
9.257031e+002;1.203973e-001
9.276316e+002;1.204905e-001
9.295601e+002;1.205337e-001
9.314887e+002;1.204159e-001
9.334172e+002;1.205174e-001
9.353458e+002;1.205953e-001
9.372744e+002;1.203491e-001
9.392029e+002;1.200535e-001
9.411314e+002;1.195779e-001
9.430600e+002;1.192838e-001
9.449885e+002;1.192880e-001
9.469171e+002;1.193030e-001
9.488456e+002;1.193899e-001
9.507742e+002;1.197047e-001
9.527027e+002;1.200108e-001
9.546313e+002;1.199443e-001
9.565598e+002;1.203010e-001
9.584883e+002;1.210827e-001
9.604169e+002;1.214646e-001
9.623455e+002;1.216839e-001
9.642740e+002;1.221845e-001
9.662026e+002;1.227365e-001
9.681311e+002;1.236731e-001
9.700596e+002;1.245012e-001
9.719882e+002;1.247741e-001
9.739167e+002;1.248355e-001
9.758453e+002;1.251992e-001
9.777739e+002;1.259205e-001
9.797024e+002;1.266551e-001
9.816309e+002;1.271991e-001
9.835595e+002;1.279398e-001
9.854880e+002;1.292369e-001
9.874166e+002;1.308080e-001
9.893452e+002;1.324597e-001
9.912737e+002;1.342277e-001
9.932022e+002;1.352122e-001
9.951307e+002;1.358367e-001
9.970593e+002;1.367958e-001
9.989879e+002;1.381491e-001
1.000916e+003;1.395603e-001
1.002845e+003;1.409449e-001
1.004773e+003;1.426539e-001
1.006702e+003;1.444481e-001
1.008631e+003;1.461395e-001
1.010559e+003;1.478498e-001
1.012488e+003;1.495286e-001
1.014416e+003;1.509913e-001
1.016345e+003;1.523562e-001
1.018273e+003;1.537798e-001
1.020202e+003;1.554441e-001
1.022130e+003;1.573194e-001
1.024059e+003;1.591843e-001
1.025988e+003;1.618381e-001
1.027916e+003;1.651134e-001
1.029845e+003;1.683361e-001
1.031773e+003;1.716628e-001
1.033702e+003;1.750859e-001
1.035630e+003;1.783120e-001
1.037559e+003;1.813192e-001
1.039487e+003;1.837235e-001
1.041416e+003;1.857093e-001
1.043344e+003;1.867403e-001
1.045273e+003;1.862127e-001
1.047202e+003;1.841595e-001
1.049130e+003;1.816079e-001
1.051059e+003;1.789536e-001
1.052987e+003;1.763933e-001
1.054916e+003;1.749506e-001
1.056844e+003;1.746505e-001
1.058773e+003;1.745622e-001
1.060701e+003;1.746590e-001
1.062630e+003;1.748198e-001
1.064558e+003;1.750241e-001
1.066487e+003;1.758184e-001
1.068416e+003;1.766307e-001
1.070344e+003;1.770353e-001
1.072273e+003;1.771228e-001
1.074201e+003;1.770345e-001
1.076130e+003;1.764683e-001
1.078058e+003;1.762888e-001
1.079987e+003;1.762844e-001
1.081915e+003;1.759969e-001
1.083844e+003;1.758070e-001
1.085773e+003;1.754748e-001
1.087701e+003;1.750360e-001
1.089630e+003;1.743868e-001
1.091558e+003;1.736608e-001
1.093487e+003;1.735735e-001
1.095415e+003;1.738379e-001
1.097344e+003;1.742042e-001
1.099272e+003;1.736609e-001
1.101201e+003;1.725949e-001
1.103129e+003;1.715348e-001
1.105058e+003;1.706568e-001
1.106987e+003;1.696078e-001
1.108915e+003;1.684586e-001
1.110844e+003;1.676415e-001
1.112772e+003;1.666616e-001
1.114701e+003;1.662280e-001
1.116629e+003;1.660629e-001
1.118558e+003;1.659666e-001
1.120486e+003;1.659269e-001
1.122415e+003;1.656066e-001
1.124344e+003;1.653535e-001
1.126272e+003;1.652293e-001
1.128201e+003;1.651563e-001
1.130129e+003;1.654406e-001
1.132058e+003;1.655219e-001
1.133986e+003;1.653973e-001
1.135915e+003;1.664427e-001
1.137843e+003;1.682844e-001
1.139772e+003;1.694904e-001
1.141700e+003;1.706909e-001
1.143629e+003;1.722301e-001
1.145557e+003;1.738196e-001
1.147486e+003;1.754037e-001
1.149415e+003;1.767666e-001
1.151343e+003;1.775306e-001
1.153272e+003;1.780242e-001
1.155200e+003;1.783107e-001
1.157129e+003;1.781610e-001
1.159057e+003;1.781569e-001
1.160986e+003;1.793751e-001
1.162914e+003;1.806786e-001
1.164843e+003;1.816931e-001
1.166771e+003;1.828443e-001
1.168700e+003;1.840669e-001
1.170629e+003;1.854899e-001
1.172557e+003;1.866369e-001
1.174486e+003;1.871939e-001
1.176414e+003;1.876333e-001
1.178343e+003;1.881315e-001
1.180271e+003;1.888862e-001
1.182200e+003;1.896600e-001
1.184128e+003;1.905055e-001
1.186057e+003;1.914116e-001
1.187986e+003;1.926359e-001
1.189914e+003;1.941285e-001
1.191843e+003;1.954147e-001
1.193771e+003;1.963772e-001
1.195700e+003;1.971855e-001
1.197628e+003;1.981665e-001
1.199557e+003;1.990486e-001
1.201485e+003;2.003338e-001
1.203414e+003;2.015745e-001
1.205343e+003;2.024214e-001
1.207271e+003;2.032849e-001
1.209200e+003;2.043723e-001
1.211128e+003;2.058052e-001
1.213057e+003;2.071136e-001
1.214985e+003;2.082159e-001
1.216914e+003;2.093723e-001
1.218842e+003;2.103061e-001
1.220771e+003;2.111944e-001
1.222699e+003;2.117315e-001
1.224628e+003;2.119249e-001
1.226557e+003;2.124040e-001
1.228485e+003;2.127282e-001
1.230414e+003;2.127339e-001
1.232342e+003;2.126783e-001
1.234271e+003;2.123031e-001
1.236199e+003;2.114949e-001
1.238128e+003;2.104600e-001
1.240056e+003;2.092215e-001
1.241985e+003;2.079791e-001
1.243913e+003;2.068014e-001
1.245842e+003;2.055077e-001
1.247771e+003;2.040743e-001
1.249699e+003;2.028550e-001
1.251628e+003;2.018240e-001
1.253556e+003;2.007664e-001
1.255485e+003;1.996918e-001
1.257413e+003;1.984010e-001
1.259342e+003;1.968158e-001
1.261270e+003;1.953470e-001
1.263199e+003;1.940228e-001
1.265127e+003;1.923516e-001
1.267056e+003;1.909066e-001
1.268985e+003;1.895686e-001
1.270913e+003;1.884581e-001
1.272842e+003;1.878300e-001
1.274770e+003;1.874345e-001
1.276699e+003;1.868885e-001
1.278627e+003;1.864528e-001
1.280556e+003;1.858181e-001
1.282484e+003;1.849950e-001
1.284413e+003;1.838014e-001
1.286342e+003;1.824310e-001
1.288270e+003;1.812390e-001
1.290199e+003;1.801174e-001
1.292127e+003;1.791721e-001
1.294056e+003;1.780763e-001
1.295984e+003;1.771687e-001
1.297913e+003;1.761816e-001
1.299841e+003;1.747809e-001
1.301770e+003;1.734830e-001
1.303698e+003;1.727078e-001
1.305627e+003;1.721979e-001
1.307556e+003;1.717718e-001
1.309484e+003;1.714499e-001
1.311413e+003;1.717447e-001
1.313341e+003;1.723283e-001
1.315270e+003;1.729232e-001
1.317198e+003;1.735855e-001
1.319127e+003;1.740642e-001
1.321055e+003;1.745518e-001
1.322984e+003;1.748768e-001
1.324912e+003;1.750335e-001
1.326841e+003;1.749870e-001
1.328770e+003;1.744804e-001
1.330698e+003;1.735351e-001
1.332627e+003;1.724706e-001
1.334555e+003;1.712222e-001
1.336484e+003;1.697251e-001
1.338412e+003;1.679851e-001
1.340341e+003;1.662740e-001
1.342269e+003;1.651844e-001
1.344198e+003;1.642951e-001
1.346126e+003;1.631973e-001
1.348055e+003;1.621170e-001
1.349984e+003;1.610355e-001
1.351912e+003;1.602630e-001
1.353841e+003;1.596048e-001
1.355769e+003;1.592571e-001
1.357698e+003;1.595480e-001
1.359626e+003;1.598013e-001
1.361555e+003;1.602764e-001
1.363483e+003;1.613937e-001
1.365412e+003;1.627810e-001
1.367341e+003;1.638912e-001
1.369269e+003;1.646947e-001
1.371198e+003;1.649727e-001
1.373126e+003;1.647084e-001
1.375055e+003;1.647875e-001
1.376983e+003;1.656130e-001
1.378912e+003;1.663878e-001
1.380840e+003;1.674210e-001
1.382769e+003;1.686870e-001
1.384698e+003;1.696997e-001
1.386626e+003;1.702232e-001
1.388555e+003;1.702998e-001
1.390483e+003;1.699842e-001
1.392412e+003;1.692776e-001
1.394340e+003;1.687753e-001
1.396269e+003;1.687360e-001
1.398197e+003;1.690275e-001
1.400126e+003;1.696324e-001
1.402054e+003;1.702145e-001
1.403983e+003;1.705072e-001
1.405911e+003;1.707166e-001
1.407840e+003;1.710803e-001
1.409769e+003;1.715639e-001
1.411697e+003;1.718585e-001
1.413626e+003;1.720968e-001
1.415554e+003;1.724176e-001
1.417483e+003;1.724137e-001
1.419411e+003;1.722587e-001
1.421340e+003;1.728442e-001
1.423268e+003;1.738703e-001
1.425197e+003;1.751297e-001
1.427125e+003;1.766894e-001
1.429054e+003;1.784334e-001
1.430983e+003;1.805443e-001
1.432911e+003;1.830837e-001
1.434840e+003;1.857204e-001
1.436768e+003;1.879517e-001
1.438697e+003;1.899469e-001
1.440625e+003;1.916266e-001
1.442554e+003;1.924380e-001
1.444482e+003;1.926393e-001
1.446411e+003;1.929235e-001
1.448340e+003;1.934007e-001
1.450268e+003;1.938166e-001
1.452197e+003;1.939991e-001
1.454125e+003;1.940574e-001
1.456054e+003;1.933955e-001
1.457982e+003;1.924449e-001
1.459911e+003;1.914198e-001
1.461839e+003;1.899663e-001
1.463768e+003;1.883743e-001
1.465697e+003;1.869599e-001
1.467625e+003;1.857470e-001
1.469554e+003;1.846499e-001
1.471482e+003;1.837148e-001
1.473411e+003;1.833243e-001
1.475339e+003;1.836196e-001
1.477268e+003;1.848460e-001
1.479196e+003;1.873662e-001
1.481125e+003;1.905720e-001
1.483053e+003;1.949775e-001
1.484982e+003;2.008124e-001
1.486911e+003;2.074760e-001
1.488839e+003;2.146768e-001
1.490768e+003;2.226259e-001
1.492696e+003;2.306957e-001
1.494625e+003;2.383704e-001
1.496553e+003;2.459445e-001
1.498482e+003;2.528980e-001
1.500410e+003;2.586947e-001
1.502339e+003;2.633816e-001
1.504267e+003;2.672308e-001
1.506196e+003;2.705112e-001
1.508125e+003;2.742346e-001
1.510053e+003;2.776184e-001
1.511982e+003;2.798131e-001
1.513910e+003;2.808126e-001
1.515839e+003;2.796555e-001
1.517767e+003;2.761578e-001
1.519696e+003;2.716365e-001
1.521624e+003;2.672844e-001
1.523553e+003;2.640299e-001
1.525481e+003;2.613532e-001
1.527410e+003;2.590321e-001
1.529339e+003;2.563363e-001
1.531267e+003;2.528935e-001
1.533196e+003;2.491486e-001
1.535124e+003;2.452014e-001
1.537053e+003;2.405888e-001
1.538981e+003;2.358008e-001
1.540910e+003;2.315382e-001
1.542838e+003;2.271565e-001
1.544767e+003;2.221406e-001
1.546695e+003;2.169654e-001
1.548624e+003;2.113632e-001
1.550553e+003;2.053940e-001
1.552481e+003;1.995717e-001
1.554410e+003;1.938348e-001
1.556338e+003;1.885339e-001
1.558267e+003;1.828656e-001
1.560195e+003;1.779816e-001
1.562124e+003;1.744396e-001
1.564052e+003;1.708760e-001
1.565981e+003;1.672695e-001
1.567910e+003;1.643499e-001
1.569838e+003;1.621030e-001
1.571767e+003;1.603551e-001
1.573695e+003;1.588939e-001
1.575624e+003;1.580228e-001
1.577552e+003;1.583437e-001
1.579481e+003;1.591684e-001
1.581409e+003;1.603121e-001
1.583338e+003;1.617683e-001
1.585266e+003;1.637829e-001
1.587195e+003;1.663881e-001
1.589124e+003;1.694227e-001
1.591052e+003;1.729961e-001
1.592981e+003;1.767007e-001
1.594909e+003;1.803118e-001
1.596838e+003;1.843507e-001
1.598766e+003;1.889697e-001
1.600695e+003;1.941657e-001
1.602623e+003;2.001791e-001
1.604552e+003;2.072234e-001
1.606480e+003;2.149623e-001
1.608409e+003;2.227380e-001
1.610338e+003;2.305033e-001
1.612266e+003;2.385789e-001
1.614195e+003;2.460051e-001
1.616123e+003;2.524060e-001
1.618052e+003;2.592580e-001
1.619980e+003;2.665618e-001
1.621909e+003;2.735893e-001
1.623837e+003;2.804967e-001
1.625766e+003;2.869760e-001
1.627694e+003;2.927258e-001
1.629623e+003;2.977820e-001
1.631552e+003;3.020042e-001
1.633480e+003;3.049380e-001
1.635409e+003;3.067310e-001
1.637337e+003;3.081861e-001
1.639266e+003;3.096370e-001
1.641194e+003;3.101111e-001
1.643123e+003;3.091663e-001
1.645051e+003;3.067391e-001
1.646980e+003;3.034869e-001
1.648909e+003;3.000593e-001
1.650837e+003;2.956435e-001
1.652766e+003;2.897332e-001
1.654694e+003;2.839486e-001
1.656623e+003;2.782331e-001
1.658551e+003;2.717783e-001
1.660480e+003;2.645612e-001
1.662408e+003;2.569991e-001
1.664337e+003;2.498245e-001
1.666266e+003;2.426478e-001
1.668194e+003;2.350426e-001
1.670123e+003;2.274072e-001
1.672051e+003;2.202748e-001
1.673980e+003;2.131782e-001
1.675908e+003;2.059984e-001
1.677837e+003;1.990378e-001
1.679765e+003;1.922957e-001
1.681694e+003;1.853849e-001
1.683622e+003;1.780881e-001
1.685551e+003;1.714235e-001
1.687479e+003;1.654926e-001
1.689408e+003;1.590833e-001
1.691337e+003;1.524659e-001
1.693265e+003;1.455868e-001
1.695194e+003;1.381327e-001
1.697122e+003;1.313233e-001
1.699051e+003;1.246698e-001
1.700979e+003;1.180675e-001
1.702908e+003;1.127612e-001
1.704836e+003;1.075213e-001
1.706765e+003;1.024929e-001
1.708693e+003;9.813256e-002
1.710622e+003;9.440124e-002
1.712551e+003;9.116869e-002
1.714479e+003;8.821541e-002
1.716408e+003;8.552058e-002
1.718336e+003;8.379236e-002
1.720265e+003;8.245845e-002
1.722193e+003;8.089704e-002
1.724122e+003;7.933056e-002
1.726050e+003;7.796550e-002
1.727979e+003;7.668409e-002
1.729908e+003;7.539872e-002
1.731836e+003;7.377577e-002
1.733765e+003;7.195840e-002
1.735693e+003;7.091519e-002
1.737622e+003;6.997479e-002
1.739550e+003;6.862861e-002
1.741479e+003;6.733754e-002
1.743407e+003;6.602376e-002
1.745336e+003;6.473806e-002
1.747265e+003;6.356192e-002
1.749193e+003;6.242722e-002
1.751122e+003;6.130970e-002
1.753050e+003;6.037808e-002
1.754979e+003;5.953715e-002
1.756907e+003;5.873850e-002
1.758836e+003;5.800853e-002
1.760764e+003;5.748164e-002
1.762693e+003;5.690760e-002
1.764621e+003;5.631128e-002
1.766550e+003;5.569297e-002
1.768479e+003;5.532756e-002
1.770407e+003;5.478151e-002
1.772336e+003;5.424575e-002
1.774264e+003;5.418254e-002
1.776193e+003;5.391063e-002
1.778121e+003;5.351711e-002
1.780050e+003;5.322610e-002
1.781978e+003;5.309702e-002
1.783907e+003;5.301484e-002
1.785835e+003;5.288275e-002
1.787764e+003;5.270240e-002
1.789693e+003;5.224262e-002
1.791621e+003;5.184280e-002
1.793550e+003;5.171259e-002
1.795478e+003;5.164493e-002
1.797407e+003;5.127586e-002
1.799335e+003;5.096531e-002
1.801264e+003;5.083726e-002
1.803192e+003;5.100715e-002
1.805121e+003;5.089258e-002
1.807049e+003;5.048864e-002
1.808978e+003;5.041053e-002
1.810907e+003;5.045217e-002
1.812835e+003;5.031896e-002
1.814764e+003;5.013874e-002
1.816692e+003;4.997429e-002
1.818621e+003;4.984416e-002
1.820549e+003;4.967706e-002
1.822478e+003;4.960088e-002
1.824406e+003;4.961417e-002
1.826335e+003;4.975995e-002
1.828264e+003;4.959846e-002
1.830192e+003;4.919669e-002
1.832121e+003;4.897039e-002
1.834049e+003;4.907707e-002
1.835978e+003;4.907047e-002
1.837906e+003;4.905459e-002
1.839835e+003;4.907770e-002
1.841763e+003;4.905088e-002
1.843692e+003;4.889933e-002
1.845620e+003;4.880756e-002
1.847549e+003;4.870747e-002
1.849478e+003;4.867823e-002
1.851406e+003;4.862771e-002
1.853335e+003;4.871792e-002
1.855263e+003;4.871963e-002
1.857192e+003;4.866859e-002
1.859120e+003;4.866559e-002
1.861049e+003;4.864139e-002
1.862977e+003;4.862705e-002
1.864906e+003;4.866181e-002
1.866834e+003;4.847828e-002
1.868763e+003;4.829301e-002
1.870692e+003;4.838326e-002
1.872620e+003;4.856597e-002
1.874549e+003;4.855864e-002
1.876477e+003;4.840359e-002
1.878406e+003;4.838419e-002
1.880334e+003;4.847435e-002
1.882263e+003;4.849217e-002
1.884191e+003;4.836485e-002
1.886120e+003;4.838552e-002
1.888048e+003;4.852018e-002
1.889977e+003;4.854111e-002
1.891906e+003;4.857020e-002
1.893834e+003;4.855853e-002
1.895763e+003;4.862834e-002
1.897691e+003;4.862808e-002
1.899620e+003;4.869146e-002
1.901548e+003;4.864205e-002
1.903477e+003;4.845894e-002
1.905405e+003;4.849309e-002
1.907334e+003;4.873898e-002
1.909262e+003;4.858661e-002
1.911191e+003;4.831800e-002
1.913120e+003;4.838104e-002
1.915048e+003;4.848061e-002
1.916977e+003;4.840278e-002
1.918905e+003;4.835007e-002
1.920834e+003;4.837585e-002
1.922762e+003;4.854548e-002
1.924691e+003;4.862078e-002
1.926619e+003;4.858584e-002
1.928548e+003;4.847638e-002
1.930477e+003;4.861933e-002
1.932405e+003;4.871103e-002
1.934334e+003;4.868167e-002
1.936262e+003;4.867026e-002
1.938191e+003;4.846479e-002
1.940119e+003;4.836674e-002
1.942048e+003;4.860444e-002
1.943976e+003;4.883682e-002
1.945905e+003;4.870573e-002
1.947833e+003;4.856768e-002
1.949762e+003;4.858217e-002
1.951691e+003;4.852399e-002
1.953619e+003;4.858295e-002
1.955548e+003;4.890419e-002
1.957476e+003;4.893519e-002
1.959405e+003;4.893627e-002
1.961333e+003;4.894535e-002
1.963262e+003;4.884631e-002
1.965190e+003;4.884927e-002
1.967119e+003;4.881661e-002
1.969047e+003;4.866789e-002
1.970976e+003;4.869361e-002
1.972905e+003;4.888264e-002
1.974833e+003;4.880993e-002
1.976762e+003;4.876359e-002
1.978690e+003;4.890916e-002
1.980619e+003;4.896649e-002
1.982547e+003;4.879418e-002
1.984476e+003;4.873461e-002
1.986404e+003;4.887975e-002
1.988333e+003;4.902673e-002
1.990261e+003;4.916333e-002
1.992190e+003;4.909988e-002
1.994119e+003;4.899935e-002
1.996047e+003;4.893642e-002
1.997976e+003;4.890475e-002
1.999904e+003;4.881872e-002
2.001833e+003;4.886292e-002
2.003761e+003;4.907050e-002
2.005690e+003;4.930773e-002
2.007618e+003;4.925800e-002
2.009547e+003;4.920062e-002
2.011476e+003;4.927099e-002
2.013404e+003;4.920656e-002
2.015333e+003;4.923647e-002
2.017261e+003;4.928394e-002
2.019190e+003;4.940180e-002
2.021118e+003;4.953907e-002
2.023047e+003;4.965395e-002
2.024975e+003;4.970682e-002
2.026904e+003;4.971670e-002
2.028833e+003;4.974238e-002
2.030761e+003;4.971466e-002
2.032690e+003;4.970036e-002
2.034618e+003;4.988407e-002
2.036547e+003;4.983505e-002
2.038475e+003;4.975995e-002
2.040404e+003;4.991031e-002
2.042332e+003;5.007411e-002
2.044261e+003;4.994522e-002
2.046189e+003;4.958268e-002
2.048118e+003;4.941257e-002
2.050047e+003;4.949797e-002
2.051975e+003;4.957685e-002
2.053904e+003;4.981558e-002
2.055832e+003;4.997298e-002
2.057761e+003;4.996718e-002
2.059689e+003;4.999730e-002
2.061618e+003;4.985791e-002
2.063546e+003;4.962821e-002
2.065475e+003;4.962491e-002
2.067404e+003;4.984620e-002
2.069332e+003;5.004202e-002
2.071260e+003;4.999849e-002
2.073189e+003;4.988972e-002
2.075118e+003;4.983030e-002
2.077046e+003;4.993942e-002
2.078975e+003;5.004407e-002
2.080903e+003;5.007091e-002
2.082832e+003;4.997845e-002
2.084760e+003;4.983163e-002
2.086689e+003;4.974227e-002
2.088617e+003;4.975140e-002
2.090546e+003;5.001827e-002
2.092475e+003;5.010721e-002
2.094403e+003;4.986003e-002
2.096332e+003;4.970890e-002
2.098260e+003;4.977760e-002
2.100189e+003;4.985883e-002
2.102117e+003;4.972391e-002
2.104046e+003;4.981907e-002
2.105974e+003;5.004913e-002
2.107903e+003;4.993812e-002
2.109832e+003;4.962732e-002
2.111760e+003;4.956262e-002
2.113688e+003;4.967625e-002
2.115617e+003;4.970326e-002
2.117546e+003;4.973168e-002
2.119474e+003;4.977474e-002
2.121403e+003;4.971395e-002
2.123331e+003;4.973238e-002
2.125260e+003;4.986961e-002
2.127188e+003;4.999956e-002
2.129117e+003;4.997473e-002
2.131045e+003;5.000581e-002
2.132974e+003;4.995351e-002
2.134903e+003;5.005679e-002
2.136831e+003;5.010639e-002
2.138760e+003;5.012636e-002
2.140688e+003;5.023987e-002
2.142617e+003;5.012048e-002
2.144545e+003;4.981491e-002
2.146474e+003;4.963731e-002
2.148402e+003;4.958320e-002
2.150331e+003;4.964345e-002
2.152260e+003;4.986367e-002
2.154188e+003;4.996157e-002
2.156117e+003;4.994101e-002
2.158045e+003;4.983509e-002
2.159974e+003;4.972343e-002
2.161902e+003;4.970533e-002
2.163831e+003;4.980176e-002
2.165759e+003;4.970288e-002
2.167688e+003;4.956749e-002
2.169616e+003;4.965648e-002
2.171545e+003;4.980841e-002
2.173474e+003;4.983706e-002
2.175402e+003;4.992418e-002
2.177331e+003;5.001871e-002
2.179259e+003;4.997406e-002
2.181188e+003;4.987820e-002
2.183116e+003;4.992492e-002
2.185045e+003;4.994209e-002
2.186973e+003;5.002894e-002
2.188902e+003;5.010483e-002
2.190831e+003;5.007485e-002
2.192759e+003;4.998310e-002
2.194688e+003;4.994708e-002
2.196616e+003;5.011420e-002
2.198545e+003;5.006088e-002
2.200473e+003;5.008973e-002
2.202402e+003;5.018348e-002
2.204330e+003;5.017113e-002
2.206259e+003;5.025122e-002
2.208188e+003;5.016016e-002
2.210116e+003;4.996804e-002
2.212044e+003;4.996518e-002
2.213973e+003;5.006868e-002
2.215902e+003;5.009215e-002
2.217830e+003;5.003042e-002
2.219759e+003;5.009676e-002
2.221687e+003;5.022692e-002
2.223616e+003;5.026647e-002
2.225544e+003;5.036870e-002
2.227473e+003;5.055453e-002
2.229401e+003;5.068431e-002
2.231330e+003;5.045429e-002
2.233259e+003;5.030318e-002
2.235187e+003;5.040506e-002
2.237116e+003;5.046743e-002
2.239044e+003;5.052597e-002
2.240973e+003;5.049773e-002
2.242901e+003;5.055356e-002
2.244830e+003;5.062447e-002
2.246758e+003;5.048086e-002
2.248687e+003;5.036644e-002
2.250615e+003;5.033652e-002
2.252544e+003;5.016373e-002
2.254473e+003;5.010628e-002
2.256401e+003;5.026565e-002
2.258330e+003;5.035501e-002
2.260258e+003;5.038671e-002
2.262187e+003;5.041246e-002
2.264115e+003;5.049843e-002
2.266044e+003;5.062690e-002
2.267972e+003;5.067950e-002
2.269901e+003;5.055728e-002
2.271830e+003;5.026777e-002
2.273758e+003;5.040078e-002
2.275687e+003;5.079044e-002
2.277615e+003;5.087269e-002
2.279544e+003;5.063654e-002
2.281472e+003;5.052322e-002
2.283401e+003;5.060951e-002
2.285329e+003;5.060564e-002
2.287258e+003;5.062001e-002
2.289187e+003;5.075972e-002
2.291115e+003;5.089113e-002
2.293043e+003;5.102232e-002
2.294972e+003;5.100954e-002
2.296901e+003;5.080944e-002
2.298829e+003;5.066793e-002
2.300758e+003;5.088397e-002
2.302686e+003;5.104635e-002
2.304615e+003;5.098680e-002
2.306543e+003;5.091806e-002
2.308472e+003;5.108888e-002
2.310400e+003;5.116298e-002
2.312329e+003;5.104959e-002
2.314258e+003;5.123549e-002
2.316186e+003;5.128448e-002
2.318115e+003;5.082937e-002
2.320043e+003;5.076676e-002
2.321972e+003;5.111280e-002
2.323900e+003;5.104680e-002
2.325829e+003;5.103312e-002
2.327757e+003;5.108370e-002
2.329686e+003;5.076821e-002
2.331615e+003;5.069645e-002
2.333543e+003;5.082713e-002
2.335472e+003;5.094500e-002
2.337400e+003;5.100044e-002
2.339329e+003;5.084300e-002
2.341257e+003;5.080080e-002
2.343186e+003;5.118724e-002
2.345114e+003;5.161310e-002
2.347043e+003;5.189720e-002
2.348971e+003;5.196337e-002
2.350900e+003;5.166613e-002
2.352829e+003;5.132509e-002
2.354757e+003;5.138479e-002
2.356686e+003;5.169655e-002
2.358614e+003;5.176952e-002
2.360543e+003;5.160164e-002
2.362471e+003;5.164385e-002
2.364400e+003;5.169390e-002
2.366328e+003;5.178094e-002
2.368257e+003;5.194799e-002
2.370186e+003;5.214274e-002
2.372114e+003;5.232592e-002
2.374042e+003;5.267913e-002
2.375971e+003;5.307332e-002
2.377900e+003;5.336114e-002
2.379828e+003;5.358889e-002
2.381757e+003;5.356497e-002
2.383685e+003;5.352382e-002
2.385614e+003;5.363432e-002
2.387542e+003;5.392244e-002
2.389471e+003;5.430928e-002
2.391399e+003;5.463832e-002
2.393328e+003;5.463577e-002
2.395257e+003;5.463099e-002
2.397185e+003;5.466703e-002
2.399114e+003;5.469457e-002
2.401042e+003;5.497321e-002
2.402971e+003;5.519947e-002
2.404899e+003;5.520191e-002
2.406828e+003;5.522005e-002
2.408756e+003;5.529674e-002
2.410685e+003;5.534172e-002
2.412614e+003;5.526615e-002
2.414542e+003;5.530272e-002
2.416471e+003;5.556424e-002
2.418399e+003;5.591994e-002
2.420328e+003;5.594998e-002
2.422256e+003;5.574247e-002
2.424185e+003;5.586632e-002
2.426113e+003;5.634345e-002
2.428042e+003;5.664871e-002
2.429970e+003;5.660477e-002
2.431899e+003;5.663504e-002
2.433828e+003;5.691629e-002
2.435756e+003;5.724875e-002
2.437685e+003;5.742601e-002
2.439613e+003;5.753044e-002
2.441542e+003;5.746784e-002
2.443470e+003;5.722857e-002
2.445399e+003;5.725605e-002
2.447327e+003;5.757810e-002
2.449256e+003;5.762449e-002
2.451185e+003;5.766769e-002
2.453113e+003;5.801255e-002
2.455042e+003;5.828760e-002
2.456970e+003;5.849500e-002
2.458899e+003;5.841294e-002
2.460827e+003;5.841672e-002
2.462756e+003;5.876032e-002
2.464684e+003;5.908641e-002
2.466613e+003;5.893033e-002
2.468542e+003;5.882727e-002
2.470470e+003;5.915220e-002
2.472398e+003;5.937149e-002
2.474327e+003;5.934573e-002
2.476256e+003;5.944166e-002
2.478184e+003;5.962882e-002
2.480113e+003;5.969211e-002
2.482041e+003;5.969283e-002
2.483970e+003;5.990741e-002
2.485898e+003;6.022592e-002
2.487827e+003;6.037835e-002
2.489755e+003;6.009443e-002
2.491684e+003;5.970648e-002
2.493613e+003;5.997767e-002
2.495541e+003;6.035855e-002
2.497470e+003;6.053152e-002
2.499398e+003;6.068402e-002
2.501327e+003;6.088330e-002
2.503255e+003;6.105282e-002
2.505184e+003;6.103558e-002
2.507112e+003;6.100473e-002
2.509041e+003;6.092447e-002
2.510969e+003;6.082041e-002
2.512898e+003;6.091536e-002
2.514827e+003;6.107791e-002
2.516755e+003;6.140507e-002
2.518684e+003;6.163519e-002
2.520612e+003;6.146350e-002
2.522541e+003;6.131859e-002
2.524469e+003;6.143873e-002
2.526398e+003;6.162702e-002
2.528326e+003;6.179392e-002
2.530255e+003;6.191725e-002
2.532184e+003;6.190476e-002
2.534112e+003;6.185509e-002
2.536041e+003;6.179270e-002
2.537969e+003;6.193854e-002
2.539898e+003;6.230868e-002
2.541826e+003;6.247110e-002
2.543755e+003;6.236727e-002
2.545683e+003;6.226274e-002
2.547612e+003;6.236815e-002
2.549541e+003;6.241122e-002
2.551469e+003;6.255807e-002
2.553397e+003;6.288300e-002
2.555326e+003;6.303385e-002
2.557255e+003;6.295264e-002
2.559183e+003;6.301906e-002
2.561112e+003;6.300473e-002
2.563040e+003;6.296627e-002
2.564969e+003;6.330075e-002
2.566897e+003;6.333963e-002
2.568826e+003;6.328500e-002
2.570754e+003;6.346378e-002
2.572683e+003;6.382800e-002
2.574612e+003;6.405205e-002
2.576540e+003;6.408346e-002
2.578469e+003;6.401461e-002
2.580397e+003;6.410565e-002
2.582326e+003;6.437829e-002
2.584254e+003;6.444701e-002
2.586183e+003;6.434064e-002
2.588111e+003;6.446212e-002
2.590040e+003;6.457998e-002
2.591969e+003;6.440412e-002
2.593897e+003;6.444743e-002
2.595826e+003;6.453426e-002
2.597754e+003;6.465714e-002
2.599683e+003;6.483391e-002
2.601611e+003;6.506359e-002
2.603540e+003;6.515717e-002
2.605468e+003;6.529355e-002
2.607397e+003;6.545825e-002
2.609325e+003;6.525762e-002
2.611254e+003;6.518535e-002
2.613183e+003;6.511367e-002
2.615111e+003;6.519085e-002
2.617040e+003;6.530768e-002
2.618968e+003;6.545162e-002
2.620897e+003;6.565765e-002
2.622825e+003;6.558347e-002
2.624754e+003;6.542847e-002
2.626682e+003;6.517588e-002
2.628611e+003;6.520614e-002
2.630540e+003;6.571616e-002
2.632468e+003;6.579457e-002
2.634396e+003;6.567750e-002
2.636325e+003;6.591087e-002
2.638254e+003;6.611654e-002
2.640182e+003;6.602183e-002
2.642111e+003;6.582388e-002
2.644039e+003;6.604999e-002
2.645968e+003;6.607314e-002
2.647896e+003;6.589433e-002
2.649825e+003;6.586560e-002
2.651753e+003;6.606863e-002
2.653682e+003;6.624624e-002
2.655611e+003;6.617114e-002
2.657539e+003;6.618392e-002
2.659468e+003;6.640504e-002
2.661396e+003;6.697350e-002
2.663325e+003;6.726214e-002
2.665253e+003;6.710685e-002
2.667182e+003;6.698208e-002
2.669110e+003;6.706629e-002
2.671039e+003;6.708957e-002
2.672968e+003;6.703442e-002
2.674896e+003;6.713407e-002
2.676825e+003;6.741083e-002
2.678753e+003;6.744733e-002
2.680682e+003;6.723696e-002
2.682610e+003;6.719836e-002
2.684539e+003;6.741741e-002
2.686467e+003;6.766620e-002
2.688396e+003;6.770143e-002
2.690324e+003;6.757730e-002
2.692253e+003;6.769431e-002
2.694182e+003;6.778663e-002
2.696110e+003;6.773811e-002
2.698039e+003;6.775887e-002
2.699967e+003;6.769218e-002
2.701896e+003;6.775712e-002
2.703824e+003;6.826732e-002
2.705753e+003;6.862652e-002
2.707681e+003;6.842613e-002
2.709610e+003;6.820521e-002
2.711539e+003;6.839820e-002
2.713467e+003;6.884155e-002
2.715396e+003;6.932928e-002
2.717324e+003;6.943700e-002
2.719253e+003;6.924110e-002
2.721181e+003;6.926356e-002
2.723110e+003;6.976845e-002
2.725038e+003;7.005363e-002
2.726967e+003;7.007968e-002
2.728896e+003;7.022384e-002
2.730824e+003;7.044914e-002
2.732752e+003;7.068758e-002
2.734681e+003;7.094387e-002
2.736610e+003;7.111662e-002
2.738538e+003;7.090345e-002
2.740467e+003;7.072002e-002
2.742395e+003;7.095998e-002
2.744324e+003;7.112388e-002
2.746252e+003;7.097387e-002
2.748181e+003;7.120951e-002
2.750109e+003;7.162996e-002
2.752038e+003;7.186659e-002
2.753967e+003;7.210124e-002
2.755895e+003;7.243288e-002
2.757824e+003;7.249521e-002
2.759752e+003;7.221273e-002
2.761681e+003;7.211547e-002
2.763609e+003;7.234634e-002
2.765538e+003;7.268640e-002
2.767466e+003;7.291718e-002
2.769395e+003;7.281795e-002
2.771323e+003;7.266932e-002
2.773252e+003;7.279762e-002
2.775181e+003;7.301273e-002
2.777109e+003;7.325581e-002
2.779038e+003;7.355984e-002
2.780966e+003;7.360596e-002
2.782895e+003;7.371911e-002
2.784823e+003;7.397781e-002
2.786752e+003;7.408469e-002
2.788680e+003;7.415000e-002
2.790609e+003;7.420091e-002
2.792538e+003;7.444078e-002
2.794466e+003;7.491937e-002
2.796395e+003;7.507729e-002
2.798323e+003;7.489552e-002
2.800252e+003;7.499699e-002
2.802180e+003;7.519105e-002
2.804109e+003;7.567461e-002
2.806037e+003;7.620901e-002
2.807966e+003;7.642353e-002
2.809895e+003;7.661906e-002
2.811823e+003;7.680868e-002
2.813751e+003;7.669132e-002
2.815680e+003;7.655504e-002
2.817609e+003;7.678673e-002
2.819537e+003;7.712087e-002
2.821466e+003;7.734645e-002
2.823394e+003;7.746909e-002
2.825323e+003;7.775850e-002
2.827251e+003;7.810187e-002
2.829180e+003;7.832797e-002
2.831108e+003;7.867446e-002
2.833037e+003;7.926804e-002
2.834966e+003;7.968879e-002
2.836894e+003;7.995602e-002
2.838823e+003;8.051722e-002
2.840751e+003;8.117604e-002
2.842680e+003;8.161884e-002
2.844608e+003;8.230203e-002
2.846537e+003;8.327616e-002
2.848465e+003;8.408657e-002
2.850394e+003;8.450446e-002
2.852323e+003;8.506544e-002
2.854251e+003;8.552922e-002
2.856180e+003;8.588465e-002
2.858108e+003;8.683517e-002
2.860037e+003;8.756144e-002
2.861965e+003;8.804543e-002
2.863894e+003;8.900467e-002
2.865822e+003;8.967716e-002
2.867751e+003;9.008774e-002
2.869679e+003;9.078419e-002
2.871608e+003;9.122428e-002
2.873536e+003;9.167798e-002
2.875465e+003;9.202649e-002
2.877394e+003;9.186119e-002
2.879322e+003;9.163632e-002
2.881251e+003;9.143531e-002
2.883179e+003;9.110084e-002
2.885108e+003;9.077529e-002
2.887036e+003;9.064525e-002
2.888965e+003;9.079734e-002
2.890893e+003;9.087212e-002
2.892822e+003;9.128531e-002
2.894750e+003;9.162569e-002
2.896679e+003;9.168870e-002
2.898608e+003;9.194766e-002
2.900536e+003;9.254397e-002
2.902465e+003;9.321009e-002
2.904393e+003;9.358452e-002
2.906322e+003;9.407617e-002
2.908250e+003;9.505466e-002
2.910179e+003;9.571192e-002
2.912107e+003;9.595928e-002
2.914036e+003;9.616497e-002
2.915965e+003;9.685845e-002
2.917893e+003;9.792049e-002
2.919822e+003;9.910826e-002
2.921750e+003;1.004753e-001
2.923679e+003;1.014383e-001
2.925607e+003;1.016825e-001
2.927536e+003;1.019561e-001
2.929464e+003;1.022915e-001
2.931393e+003;1.022726e-001
2.933322e+003;1.024669e-001
2.935250e+003;1.024954e-001
2.937178e+003;1.021033e-001
2.939107e+003;1.019389e-001
2.941036e+003;1.015780e-001
2.942964e+003;1.012727e-001
2.944893e+003;1.013661e-001
2.946821e+003;1.014318e-001
2.948750e+003;1.012025e-001
2.950678e+003;1.010168e-001
2.952607e+003;1.010720e-001
2.954535e+003;1.011650e-001
2.956464e+003;1.015144e-001
2.958393e+003;1.016417e-001
2.960321e+003;1.013276e-001
2.962250e+003;1.008866e-001
2.964178e+003;1.006401e-001
2.966107e+003;1.003586e-001
2.968035e+003;9.961570e-002
2.969964e+003;9.867837e-002
2.971892e+003;9.781431e-002
2.973821e+003;9.718408e-002
2.975750e+003;9.645019e-002
2.977678e+003;9.553663e-002
2.979607e+003;9.473076e-002
2.981535e+003;9.376281e-002
2.983464e+003;9.278694e-002
2.985392e+003;9.173102e-002
2.987321e+003;9.061475e-002
2.989249e+003;9.001880e-002
2.991178e+003;8.936159e-002
2.993106e+003;8.872642e-002
2.995035e+003;8.834920e-002
2.996964e+003;8.802408e-002
2.998892e+003;8.766276e-002
3.000821e+003;8.755747e-002
3.002749e+003;8.747329e-002
3.004678e+003;8.722452e-002
3.006606e+003;8.735383e-002
3.008535e+003;8.732864e-002
3.010463e+003;8.742113e-002
3.012392e+003;8.779459e-002
3.014321e+003;8.797612e-002
3.016249e+003;8.807964e-002
3.018177e+003;8.820596e-002
3.020106e+003;8.857971e-002
3.022035e+003;8.896909e-002
3.023963e+003;8.903388e-002
3.025892e+003;8.919840e-002
3.027820e+003;8.944944e-002
3.029749e+003;8.979791e-002
3.031677e+003;9.013940e-002
3.033606e+003;9.028765e-002
3.035534e+003;9.058119e-002
3.037463e+003;9.107759e-002
3.039392e+003;9.163796e-002
3.041320e+003;9.176925e-002
3.043249e+003;9.184915e-002
3.045177e+003;9.217186e-002
3.047106e+003;9.263065e-002
3.049034e+003;9.276647e-002
3.050963e+003;9.265949e-002
3.052891e+003;9.294927e-002
3.054820e+003;9.317698e-002
3.056749e+003;9.370217e-002
3.058677e+003;9.421498e-002
3.060606e+003;9.402288e-002
3.062534e+003;9.382923e-002
3.064463e+003;9.388854e-002
3.066391e+003;9.410860e-002
3.068320e+003;9.436821e-002
3.070248e+003;9.377836e-002
3.072177e+003;9.360368e-002
3.074105e+003;9.372775e-002
3.076034e+003;9.317522e-002
3.077963e+003;9.281427e-002
3.079891e+003;9.279018e-002
3.081820e+003;9.279916e-002
3.083748e+003;9.264083e-002
3.085677e+003;9.221381e-002
3.087605e+003;9.195139e-002
3.089534e+003;9.178615e-002
3.091462e+003;9.157365e-002
3.093391e+003;9.150717e-002
3.095320e+003;9.142586e-002
3.097248e+003;9.139993e-002
3.099177e+003;9.161083e-002
3.101105e+003;9.160212e-002
3.103034e+003;9.155708e-002
3.104962e+003;9.150831e-002
3.106891e+003;9.131610e-002
3.108819e+003;9.124152e-002
3.110748e+003;9.133622e-002
3.112677e+003;9.120780e-002
3.114605e+003;9.083067e-002
3.116533e+003;9.093977e-002
3.118462e+003;9.145968e-002
3.120391e+003;9.154967e-002
3.122319e+003;9.145518e-002
3.124248e+003;9.157115e-002
3.126176e+003;9.168580e-002
3.128105e+003;9.181026e-002
3.130033e+003;9.218247e-002
3.131962e+003;9.270617e-002
3.133890e+003;9.335261e-002
3.135819e+003;9.380538e-002
3.137748e+003;9.396274e-002
3.139676e+003;9.430192e-002
3.141605e+003;9.461851e-002
3.143533e+003;9.492911e-002
3.145462e+003;9.541865e-002
3.147390e+003;9.560409e-002
3.149319e+003;9.579958e-002
3.151247e+003;9.645445e-002
3.153176e+003;9.694464e-002
3.155104e+003;9.752487e-002
3.157033e+003;9.786960e-002
3.158962e+003;9.829549e-002
3.160890e+003;9.881180e-002
3.162819e+003;9.930357e-002
3.164747e+003;1.000696e-001
3.166676e+003;1.007373e-001
3.168604e+003;1.011927e-001
3.170533e+003;1.017453e-001
3.172461e+003;1.021027e-001
3.174390e+003;1.025465e-001
3.176319e+003;1.034025e-001
3.178247e+003;1.041754e-001
3.180176e+003;1.049515e-001
3.182104e+003;1.052163e-001
3.184033e+003;1.050565e-001
3.185961e+003;1.053576e-001
3.187890e+003;1.059701e-001
3.189818e+003;1.064544e-001
3.191747e+003;1.073985e-001
3.193676e+003;1.078633e-001
3.195604e+003;1.077474e-001
3.197532e+003;1.078932e-001
3.199461e+003;1.084712e-001
3.201390e+003;1.089074e-001
3.203318e+003;1.094827e-001
3.205247e+003;1.103911e-001
3.207175e+003;1.104596e-001
3.209104e+003;1.103736e-001
3.211032e+003;1.106757e-001
3.212961e+003;1.108993e-001
3.214889e+003;1.111256e-001
3.216818e+003;1.113943e-001
3.218747e+003;1.116104e-001
3.220675e+003;1.117717e-001
3.222604e+003;1.120471e-001
3.224532e+003;1.122647e-001
3.226461e+003;1.123573e-001
3.228389e+003;1.127983e-001
3.230318e+003;1.133070e-001
3.232246e+003;1.134725e-001
3.234175e+003;1.133644e-001
3.236104e+003;1.137418e-001
3.238032e+003;1.148533e-001
3.239961e+003;1.154686e-001
3.241889e+003;1.158081e-001
3.243818e+003;1.166005e-001
3.245746e+003;1.167413e-001
3.247675e+003;1.165585e-001
3.249603e+003;1.174621e-001
3.251532e+003;1.186295e-001
3.253460e+003;1.191012e-001
3.255389e+003;1.194195e-001
3.257318e+003;1.197246e-001
3.259246e+003;1.203207e-001
3.261175e+003;1.207024e-001
3.263103e+003;1.212395e-001
3.265032e+003;1.219477e-001
3.266960e+003;1.224464e-001
3.268889e+003;1.227851e-001
3.270817e+003;1.230523e-001
3.272746e+003;1.232160e-001
3.274675e+003;1.234761e-001
3.276603e+003;1.237682e-001
3.278531e+003;1.239321e-001
3.280460e+003;1.242118e-001
3.282389e+003;1.243624e-001
3.284317e+003;1.244824e-001
3.286246e+003;1.246524e-001
3.288174e+003;1.243156e-001
3.290103e+003;1.238681e-001
3.292031e+003;1.240043e-001
3.293960e+003;1.237945e-001
3.295888e+003;1.230389e-001
3.297817e+003;1.226542e-001
3.299746e+003;1.224108e-001
3.301674e+003;1.219479e-001
3.303603e+003;1.215232e-001
3.305531e+003;1.213366e-001
3.307460e+003;1.210143e-001
3.309388e+003;1.205145e-001
3.311317e+003;1.202191e-001
3.313245e+003;1.201757e-001
3.315174e+003;1.195294e-001
3.317103e+003;1.188026e-001
3.319031e+003;1.183279e-001
3.320960e+003;1.174203e-001
3.322888e+003;1.162669e-001
3.324817e+003;1.159616e-001
3.326745e+003;1.156238e-001
3.328674e+003;1.146458e-001
3.330602e+003;1.140032e-001
3.332531e+003;1.138295e-001
3.334459e+003;1.132640e-001
3.336388e+003;1.124957e-001
3.338317e+003;1.119573e-001
3.340245e+003;1.114357e-001
3.342174e+003;1.106939e-001
3.344102e+003;1.100451e-001
3.346031e+003;1.093529e-001
3.347959e+003;1.085915e-001
3.349888e+003;1.078776e-001
3.351816e+003;1.072313e-001
3.353745e+003;1.064060e-001
3.355674e+003;1.054228e-001
3.357602e+003;1.047330e-001
3.359531e+003;1.045117e-001
3.361459e+003;1.039811e-001
3.363388e+003;1.027273e-001
3.365316e+003;1.013954e-001
3.367245e+003;1.003888e-001
3.369173e+003;9.989510e-002
3.371102e+003;9.948719e-002
3.373031e+003;9.886567e-002
3.374959e+003;9.811325e-002
3.376887e+003;9.716377e-002
3.378816e+003;9.622666e-002
3.380745e+003;9.540618e-002
3.382673e+003;9.481982e-002
3.384602e+003;9.436896e-002
3.386530e+003;9.394978e-002
3.388459e+003;9.361880e-002
3.390387e+003;9.320540e-002
3.392316e+003;9.256016e-002
3.394244e+003;9.178566e-002
3.396173e+003;9.099513e-002
3.398102e+003;9.050251e-002
3.400030e+003;9.016696e-002
3.401959e+003;8.971822e-002
3.403887e+003;8.875507e-002
3.405816e+003;8.784841e-002
3.407744e+003;8.742721e-002
3.409673e+003;8.671403e-002
3.411601e+003;8.571259e-002
3.413530e+003;8.489487e-002
3.415458e+003;8.443374e-002
3.417387e+003;8.449242e-002
3.419316e+003;8.389986e-002
3.421244e+003;8.257220e-002
3.423173e+003;8.177569e-002
3.425101e+003;8.141744e-002
3.427030e+003;8.052608e-002
3.428958e+003;7.969569e-002
3.430887e+003;7.911265e-002
3.432815e+003;7.857224e-002
3.434744e+003;7.776214e-002
3.436673e+003;7.688156e-002
3.438601e+003;7.627045e-002
3.440530e+003;7.550737e-002
3.442458e+003;7.489300e-002
3.444387e+003;7.451690e-002
3.446315e+003;7.415724e-002
3.448244e+003;7.345502e-002
3.450172e+003;7.256659e-002
3.452101e+003;7.217032e-002
3.454030e+003;7.176753e-002
3.455958e+003;7.135738e-002
3.457886e+003;7.138374e-002
3.459815e+003;7.101671e-002
3.461744e+003;7.083929e-002
3.463672e+003;7.079042e-002
3.465601e+003;7.008407e-002
3.467529e+003;6.901755e-002
3.469458e+003;6.808384e-002
3.471386e+003;6.770712e-002
3.473315e+003;6.773679e-002
3.475243e+003;6.794561e-002
3.477172e+003;6.765419e-002
3.479101e+003;6.658747e-002
3.481029e+003;6.561788e-002
3.482958e+003;6.539781e-002
3.484886e+003;6.517950e-002
3.486815e+003;6.470383e-002
3.488743e+003;6.443644e-002
3.490672e+003;6.426145e-002
3.492600e+003;6.377738e-002
3.494529e+003;6.302071e-002
3.496458e+003;6.275799e-002
3.498386e+003;6.293812e-002
3.500315e+003;6.253304e-002
3.502243e+003;6.191695e-002
3.504172e+003;6.159678e-002
3.506100e+003;6.102487e-002
3.508029e+003;6.031012e-002
3.509957e+003;6.024895e-002
3.511886e+003;6.008560e-002
3.513814e+003;5.972766e-002
3.515743e+003;5.954638e-002
3.517672e+003;5.943159e-002
3.519600e+003;5.892904e-002
3.521529e+003;5.780061e-002
3.523457e+003;5.674166e-002
3.525386e+003;5.638310e-002
3.527314e+003;5.670881e-002
3.529243e+003;5.681269e-002
3.531171e+003;5.666067e-002
3.533100e+003;5.649675e-002
3.535029e+003;5.623935e-002
3.536957e+003;5.587807e-002
3.538885e+003;5.553533e-002
3.540814e+003;5.526027e-002
3.542743e+003;5.506972e-002
3.544671e+003;5.444751e-002
3.546600e+003;5.419046e-002
3.548528e+003;5.369322e-002
3.550457e+003;5.311068e-002
3.552385e+003;5.288491e-002
3.554314e+003;5.265366e-002
3.556242e+003;5.270127e-002
3.558171e+003;5.227640e-002
3.560100e+003;5.170745e-002
3.562028e+003;5.128809e-002
3.563957e+003;5.065787e-002
3.565885e+003;5.001540e-002
3.567814e+003;4.996737e-002
3.569742e+003;4.998652e-002
3.571671e+003;4.989675e-002
3.573599e+003;4.964081e-002
3.575528e+003;4.909121e-002
3.577457e+003;4.867545e-002
3.579385e+003;4.836518e-002
3.581314e+003;4.763668e-002
3.583242e+003;4.722334e-002
3.585171e+003;4.691604e-002
3.587099e+003;4.665643e-002
3.589028e+003;4.650756e-002
3.590956e+003;4.635970e-002
3.592885e+003;4.629500e-002
3.594813e+003;4.556458e-002
3.596742e+003;4.505205e-002
3.598671e+003;4.461623e-002
3.600599e+003;4.412239e-002
3.602528e+003;4.393505e-002
3.604456e+003;4.351910e-002
3.606385e+003;4.317971e-002
3.608313e+003;4.289035e-002
3.610242e+003;4.275074e-002
3.612170e+003;4.244333e-002
3.614099e+003;4.204775e-002
3.616028e+003;4.160327e-002
3.617956e+003;4.145474e-002
3.619885e+003;4.114839e-002
3.621813e+003;4.062052e-002
3.623742e+003;3.983507e-002
3.625670e+003;3.863670e-002
3.627599e+003;3.786344e-002
3.629527e+003;3.773584e-002
3.631456e+003;3.822124e-002
3.633385e+003;3.822728e-002
3.635313e+003;3.752204e-002
3.637241e+003;3.685516e-002
3.639170e+003;3.635355e-002
3.641099e+003;3.594884e-002
3.643027e+003;3.541840e-002
3.644956e+003;3.460620e-002
3.646884e+003;3.391293e-002
3.648813e+003;3.328570e-002
3.650741e+003;3.330505e-002
3.652670e+003;3.322792e-002
3.654598e+003;3.227448e-002
3.656527e+003;3.118128e-002
3.658456e+003;3.069699e-002
3.660384e+003;3.013848e-002
3.662313e+003;2.996257e-002
3.664241e+003;2.950666e-002
3.666170e+003;2.870565e-002
3.668098e+003;2.763652e-002
3.670027e+003;2.674044e-002
3.671955e+003;2.656576e-002
3.673884e+003;2.570120e-002
3.675813e+003;2.471004e-002
3.677741e+003;2.485401e-002
3.679669e+003;2.492857e-002
3.681598e+003;2.458751e-002
3.683527e+003;2.375333e-002
3.685455e+003;2.298070e-002
3.687384e+003;2.201252e-002
3.689312e+003;2.141966e-002
3.691241e+003;2.141200e-002
3.693169e+003;2.156554e-002
3.695098e+003;2.132113e-002
3.697026e+003;2.113846e-002
3.698955e+003;2.088313e-002
3.700884e+003;2.036872e-002
3.702812e+003;2.050205e-002
3.704741e+003;2.053019e-002
3.706669e+003;2.026838e-002
3.708598e+003;2.024897e-002
3.710526e+003;1.974460e-002
3.712455e+003;1.897003e-002
3.714383e+003;1.885952e-002
3.716312e+003;1.893130e-002
3.718240e+003;1.903081e-002
3.720169e+003;1.899730e-002
3.722098e+003;1.904923e-002
3.724026e+003;1.936348e-002
3.725955e+003;1.933840e-002
3.727883e+003;1.931859e-002
3.729812e+003;1.902095e-002
3.731740e+003;1.847765e-002
3.733669e+003;1.855334e-002
3.735597e+003;1.887437e-002
3.737526e+003;1.862988e-002
3.739455e+003;1.821953e-002
3.741383e+003;1.840032e-002
3.743312e+003;1.825208e-002
3.745240e+003;1.875479e-002
3.747169e+003;1.876952e-002
3.749097e+003;1.776805e-002
3.751026e+003;1.739179e-002
3.752954e+003;1.771631e-002
3.754883e+003;1.840478e-002
3.756812e+003;1.867802e-002
3.758740e+003;1.876382e-002
3.760668e+003;1.872528e-002
3.762597e+003;1.840810e-002
3.764526e+003;1.794982e-002
3.766454e+003;1.793128e-002
3.768383e+003;1.775562e-002
3.770311e+003;1.773363e-002
3.772240e+003;1.811802e-002
3.774168e+003;1.833451e-002
3.776097e+003;1.811585e-002
3.778025e+003;1.783881e-002
3.779954e+003;1.776014e-002
3.781883e+003;1.806887e-002
3.783811e+003;1.824890e-002
3.785740e+003;1.849138e-002
3.787668e+003;1.885817e-002
3.789597e+003;1.833537e-002
3.791525e+003;1.789039e-002
3.793454e+003;1.820198e-002
3.795382e+003;1.842898e-002
3.797311e+003;1.862953e-002
3.799240e+003;1.839939e-002
3.801168e+003;1.758562e-002
3.803097e+003;1.745036e-002
3.805025e+003;1.744425e-002
3.806954e+003;1.745636e-002
3.808882e+003;1.848294e-002
3.810811e+003;1.918288e-002
3.812739e+003;1.840111e-002
3.814668e+003;1.732486e-002
3.816596e+003;1.765239e-002
3.818525e+003;1.836181e-002
3.820454e+003;1.809395e-002
3.822382e+003;1.817282e-002
3.824311e+003;1.821528e-002
3.826239e+003;1.817921e-002
3.828168e+003;1.822617e-002
3.830096e+003;1.822541e-002
3.832025e+003;1.851517e-002
3.833953e+003;1.877509e-002
3.835882e+003;1.865523e-002
3.837811e+003;1.845646e-002
3.839739e+003;1.843897e-002
3.841667e+003;1.888852e-002
3.843596e+003;1.914483e-002
3.845525e+003;1.885935e-002
3.847453e+003;1.885219e-002
3.849382e+003;1.856777e-002
3.851310e+003;1.774444e-002
3.853239e+003;1.760747e-002
3.855167e+003;1.885713e-002
3.857096e+003;1.971603e-002
3.859024e+003;1.962492e-002
3.860953e+003;1.957348e-002
3.862882e+003;1.957508e-002
3.864810e+003;1.934724e-002
3.866739e+003;1.912959e-002
3.868667e+003;1.843973e-002
3.870596e+003;1.836433e-002
3.872524e+003;1.880980e-002
3.874453e+003;1.912959e-002
3.876381e+003;2.033035e-002
3.878310e+003;2.099193e-002
3.880239e+003;2.068657e-002
3.882167e+003;2.057903e-002
3.884096e+003;2.030487e-002
3.886024e+003;1.953553e-002
3.887953e+003;1.948538e-002
3.889881e+003;1.946740e-002
3.891810e+003;1.958551e-002
3.893738e+003;2.003649e-002
3.895667e+003;2.072275e-002
3.897595e+003;2.063859e-002
3.899524e+003;1.969159e-002
3.901453e+003;1.932181e-002
3.903381e+003;1.960509e-002
3.905310e+003;2.012610e-002
3.907238e+003;2.057393e-002
3.909167e+003;2.076529e-002
3.911095e+003;2.017483e-002
3.913024e+003;1.948372e-002
3.914952e+003;1.967120e-002
3.916881e+003;2.017854e-002
3.918810e+003;2.091668e-002
3.920738e+003;2.126256e-002
3.922667e+003;2.053102e-002
3.924595e+003;1.994136e-002
3.926524e+003;1.995867e-002
3.928452e+003;2.010739e-002
3.930381e+003;2.025973e-002
3.932309e+003;2.031417e-002
3.934238e+003;2.080304e-002
3.936167e+003;2.121935e-002
3.938095e+003;2.116984e-002
3.940023e+003;2.020176e-002
3.941952e+003;1.937454e-002
3.943881e+003;1.961556e-002
3.945809e+003;1.980085e-002
3.947738e+003;2.002782e-002
3.949666e+003;2.092398e-002
3.951595e+003;2.176378e-002
3.953523e+003;2.112399e-002
3.955452e+003;2.038504e-002
3.957380e+003;2.069651e-002
3.959309e+003;2.067392e-002
3.961238e+003;2.013810e-002
3.963166e+003;1.970802e-002
3.965095e+003;1.945139e-002
3.967023e+003;1.998056e-002
3.968952e+003;2.099022e-002
3.970880e+003;2.112364e-002
3.972809e+003;2.048041e-002
3.974737e+003;2.015456e-002
3.976666e+003;2.026484e-002
3.978594e+003;1.999885e-002
3.980523e+003;1.999562e-002
3.982452e+003;2.036556e-002
3.984380e+003;2.043596e-002
3.986309e+003;2.031191e-002
3.988237e+003;1.995312e-002
3.990166e+003;1.982475e-002
3.992094e+003;1.970022e-002
3.994023e+003;1.959047e-002
3.995951e+003;2.005131e-002
3.997880e+003;2.059258e-002
3.999809e+003;2.035407e-002
4.001737e+003;0.000000e+000
