3.992094e+002;0.000000e+000
4.011380e+002;0.000000e+000
4.030665e+002;0.000000e+000
4.049951e+002;0.000000e+000
4.069236e+002;0.000000e+000
4.088522e+002;0.000000e+000
4.107807e+002;0.000000e+000
4.127093e+002;0.000000e+000
4.146378e+002;0.000000e+000
4.165664e+002;0.000000e+000
4.184949e+002;0.000000e+000
4.204235e+002;0.000000e+000
4.223520e+002;0.000000e+000
4.242806e+002;0.000000e+000
4.262091e+002;0.000000e+000
4.281377e+002;0.000000e+000
4.300662e+002;0.000000e+000
4.319948e+002;0.000000e+000
4.339233e+002;0.000000e+000
4.358519e+002;0.000000e+000
4.377804e+002;0.000000e+000
4.397090e+002;0.000000e+000
4.416375e+002;0.000000e+000
4.435660e+002;0.000000e+000
4.454946e+002;0.000000e+000
4.474232e+002;0.000000e+000
4.493517e+002;0.000000e+000
4.512802e+002;0.000000e+000
4.532088e+002;0.000000e+000
4.551373e+002;0.000000e+000
4.570659e+002;0.000000e+000
4.589944e+002;0.000000e+000
4.609230e+002;0.000000e+000
4.628515e+002;0.000000e+000
4.647801e+002;0.000000e+000
4.667086e+002;0.000000e+000
4.686372e+002;0.000000e+000
4.705657e+002;0.000000e+000
4.724943e+002;0.000000e+000
4.744228e+002;0.000000e+000
4.763513e+002;0.000000e+000
4.782799e+002;0.000000e+000
4.802085e+002;0.000000e+000
4.821370e+002;0.000000e+000
4.840656e+002;0.000000e+000
4.859941e+002;0.000000e+000
4.879226e+002;0.000000e+000
4.898512e+002;0.000000e+000
4.917798e+002;0.000000e+000
4.937083e+002;0.000000e+000
4.956368e+002;0.000000e+000
4.975654e+002;0.000000e+000
4.994939e+002;0.000000e+000
5.014225e+002;0.000000e+000
5.033510e+002;0.000000e+000
5.052796e+002;0.000000e+000
5.072081e+002;0.000000e+000
5.091367e+002;0.000000e+000
5.110652e+002;0.000000e+000
5.129938e+002;0.000000e+000
5.149223e+002;0.000000e+000
5.168509e+002;0.000000e+000
5.187794e+002;0.000000e+000
5.207079e+002;0.000000e+000
5.226365e+002;0.000000e+000
5.245651e+002;0.000000e+000
5.264936e+002;0.000000e+000
5.284222e+002;0.000000e+000
5.303507e+002;0.000000e+000
5.322792e+002;0.000000e+000
5.342078e+002;0.000000e+000
5.361364e+002;0.000000e+000
5.380649e+002;0.000000e+000
5.399935e+002;0.000000e+000
5.419220e+002;0.000000e+000
5.438505e+002;0.000000e+000
5.457791e+002;0.000000e+000
5.477076e+002;0.000000e+000
5.496362e+002;0.000000e+000
5.515648e+002;0.000000e+000
5.534933e+002;0.000000e+000
5.554218e+002;0.000000e+000
5.573504e+002;0.000000e+000
5.592789e+002;0.000000e+000
5.612075e+002;0.000000e+000
5.631360e+002;0.000000e+000
5.650646e+002;0.000000e+000
5.669931e+002;0.000000e+000
5.689217e+002;0.000000e+000
5.708502e+002;0.000000e+000
5.727787e+002;0.000000e+000
5.747073e+002;0.000000e+000
5.766359e+002;0.000000e+000
5.785644e+002;0.000000e+000
5.804930e+002;0.000000e+000
5.824215e+002;0.000000e+000
5.843500e+002;0.000000e+000
5.862786e+002;0.000000e+000
5.882072e+002;0.000000e+000
5.901357e+002;0.000000e+000
5.920643e+002;0.000000e+000
5.939928e+002;0.000000e+000
5.959213e+002;0.000000e+000
5.978499e+002;0.000000e+000
5.997784e+002;1.916790e-001
6.017070e+002;2.053811e-001
6.036355e+002;2.075310e-001
6.055641e+002;2.003068e-001
6.074926e+002;1.993032e-001
6.094211e+002;1.972441e-001
6.113497e+002;1.943094e-001
6.132783e+002;1.976214e-001
6.152068e+002;2.005447e-001
6.171354e+002;2.000425e-001
6.190639e+002;1.972817e-001
6.209924e+002;1.969363e-001
6.229210e+002;1.981261e-001
6.248495e+002;1.976730e-001
6.267781e+002;1.987211e-001
6.287067e+002;1.979107e-001
6.306352e+002;1.919944e-001
6.325637e+002;1.884598e-001
6.344923e+002;1.922236e-001
6.364208e+002;1.945728e-001
6.383494e+002;1.937988e-001
6.402780e+002;1.950505e-001
6.422065e+002;1.944116e-001
6.441350e+002;1.922104e-001
6.460636e+002;1.960112e-001
6.479921e+002;1.989837e-001
6.499207e+002;1.957732e-001
6.518492e+002;1.924242e-001
6.537778e+002;1.902103e-001
6.557063e+002;1.868684e-001
6.576349e+002;1.864045e-001
6.595634e+002;1.875194e-001
6.614919e+002;1.888824e-001
6.634205e+002;1.897247e-001
6.653491e+002;1.892750e-001
6.672776e+002;1.872533e-001
6.692062e+002;1.864338e-001
6.711347e+002;1.861282e-001
6.730632e+002;1.842503e-001
6.749918e+002;1.825627e-001
6.769203e+002;1.813222e-001
6.788489e+002;1.800052e-001
6.807775e+002;1.790300e-001
6.827060e+002;1.777386e-001
6.846345e+002;1.772872e-001
6.865631e+002;1.771285e-001
6.884916e+002;1.763680e-001
6.904202e+002;1.762777e-001
6.923488e+002;1.767944e-001
6.942773e+002;1.763055e-001
6.962058e+002;1.753306e-001
6.981344e+002;1.734425e-001
7.000629e+002;1.723879e-001
7.019915e+002;1.726968e-001
7.039200e+002;1.724012e-001
7.058486e+002;1.707601e-001
7.077771e+002;1.689489e-001
7.097057e+002;1.674583e-001
7.116342e+002;1.665898e-001
7.135627e+002;1.654327e-001
7.154913e+002;1.646453e-001
7.174199e+002;1.636054e-001
7.193484e+002;1.619213e-001
7.212770e+002;1.594340e-001
7.232055e+002;1.586699e-001
7.251340e+002;1.587615e-001
7.270626e+002;1.580696e-001
7.289911e+002;1.574585e-001
7.309197e+002;1.571776e-001
7.328483e+002;1.580371e-001
7.347768e+002;1.580229e-001
7.367053e+002;1.573553e-001
7.386339e+002;1.570005e-001
7.405624e+002;1.570492e-001
7.424910e+002;1.573140e-001
7.444196e+002;1.563238e-001
7.463481e+002;1.553587e-001
7.482766e+002;1.547025e-001
7.502052e+002;1.536032e-001
7.521337e+002;1.525848e-001
7.540623e+002;1.514479e-001
7.559908e+002;1.507356e-001
7.579194e+002;1.501260e-001
7.598479e+002;1.494189e-001
7.617765e+002;1.477271e-001
7.637050e+002;1.468956e-001
7.656335e+002;1.468358e-001
7.675621e+002;1.454996e-001
7.694907e+002;1.440048e-001
7.714192e+002;1.431566e-001
7.733478e+002;1.429262e-001
7.752763e+002;1.422115e-001
7.772048e+002;1.413630e-001
7.791334e+002;1.415373e-001
7.810620e+002;1.412526e-001
7.829905e+002;1.407011e-001
7.849191e+002;1.401490e-001
7.868476e+002;1.400390e-001
7.887761e+002;1.401273e-001
7.907047e+002;1.393465e-001
7.926332e+002;1.385150e-001
7.945618e+002;1.376315e-001
7.964903e+002;1.368972e-001
7.984189e+002;1.368180e-001
8.003474e+002;1.366289e-001
8.022759e+002;1.360262e-001
8.042045e+002;1.351108e-001
8.061331e+002;1.351985e-001
8.080616e+002;1.357347e-001
8.099902e+002;1.355022e-001
8.119187e+002;1.345714e-001
8.138472e+002;1.341243e-001
8.157758e+002;1.345922e-001
8.177043e+002;1.350012e-001
8.196329e+002;1.352889e-001
8.215615e+002;1.356474e-001
8.234900e+002;1.359101e-001
8.254185e+002;1.356779e-001
8.273471e+002;1.352269e-001
8.292756e+002;1.346054e-001
8.312042e+002;1.339683e-001
8.331328e+002;1.332680e-001
8.350613e+002;1.322740e-001
8.369898e+002;1.307799e-001
8.389184e+002;1.296810e-001
8.408469e+002;1.293210e-001
8.427755e+002;1.288536e-001
8.447040e+002;1.280899e-001
8.466326e+002;1.280348e-001
8.485611e+002;1.276203e-001
8.504897e+002;1.273567e-001
8.524182e+002;1.274986e-001
8.543467e+002;1.274919e-001
8.562753e+002;1.268705e-001
8.582039e+002;1.260720e-001
8.601324e+002;1.254177e-001
8.620610e+002;1.253252e-001
8.639895e+002;1.256101e-001
8.659180e+002;1.256749e-001
8.678466e+002;1.253960e-001
8.697751e+002;1.251664e-001
8.717037e+002;1.253288e-001
8.736323e+002;1.254304e-001
8.755608e+002;1.255797e-001
8.774893e+002;1.260225e-001
8.794179e+002;1.264186e-001
8.813464e+002;1.266159e-001
8.832750e+002;1.262900e-001
8.852036e+002;1.258306e-001
8.871321e+002;1.257963e-001
8.890606e+002;1.254671e-001
8.909892e+002;1.249601e-001
8.929177e+002;1.244695e-001
8.948463e+002;1.243216e-001
8.967748e+002;1.244444e-001
8.987034e+002;1.244021e-001
9.006319e+002;1.243031e-001
9.025605e+002;1.239373e-001
9.044890e+002;1.241188e-001
9.064175e+002;1.243366e-001
9.083461e+002;1.239967e-001
9.102747e+002;1.237339e-001
9.122032e+002;1.234624e-001
9.141318e+002;1.233854e-001
9.160603e+002;1.240184e-001
9.179888e+002;1.245960e-001
9.199174e+002;1.245217e-001
9.218459e+002;1.242281e-001
9.237745e+002;1.244632e-001
9.257031e+002;1.246582e-001
9.276316e+002;1.240007e-001
9.295601e+002;1.235165e-001
9.314887e+002;1.235865e-001
9.334172e+002;1.233652e-001
9.353458e+002;1.229644e-001
9.372744e+002;1.228445e-001
9.392029e+002;1.227901e-001
9.411314e+002;1.224547e-001
9.430600e+002;1.222170e-001
9.449885e+002;1.221834e-001
9.469171e+002;1.220044e-001
9.488456e+002;1.217706e-001
9.507742e+002;1.217662e-001
9.527027e+002;1.219666e-001
9.546313e+002;1.220903e-001
9.565598e+002;1.221252e-001
9.584883e+002;1.223428e-001
9.604169e+002;1.226109e-001
9.623455e+002;1.228003e-001
9.642740e+002;1.227110e-001
9.662026e+002;1.229131e-001
9.681311e+002;1.233852e-001
9.700596e+002;1.237334e-001
9.719882e+002;1.238878e-001
9.739167e+002;1.238473e-001
9.758453e+002;1.237942e-001
9.777739e+002;1.240984e-001
9.797024e+002;1.247110e-001
9.816309e+002;1.252319e-001
9.835595e+002;1.260504e-001
9.854880e+002;1.269177e-001
9.874166e+002;1.275190e-001
9.893452e+002;1.284084e-001
9.912737e+002;1.292158e-001
9.932022e+002;1.294074e-001
9.951307e+002;1.288835e-001
9.970593e+002;1.284671e-001
9.989879e+002;1.286755e-001
1.000916e+003;1.290108e-001
1.002845e+003;1.297288e-001
1.004773e+003;1.307968e-001
1.006702e+003;1.318077e-001
1.008631e+003;1.329101e-001
1.010559e+003;1.347809e-001
1.012488e+003;1.367877e-001
1.014416e+003;1.386619e-001
1.016345e+003;1.402490e-001
1.018273e+003;1.419314e-001
1.020202e+003;1.437547e-001
1.022130e+003;1.455883e-001
1.024059e+003;1.470565e-001
1.025988e+003;1.482418e-001
1.027916e+003;1.497300e-001
1.029845e+003;1.516558e-001
1.031773e+003;1.538622e-001
1.033702e+003;1.559487e-001
1.035630e+003;1.576485e-001
1.037559e+003;1.593381e-001
1.039487e+003;1.610680e-001
1.041416e+003;1.623432e-001
1.043344e+003;1.632289e-001
1.045273e+003;1.631015e-001
1.047202e+003;1.616032e-001
1.049130e+003;1.594909e-001
1.051059e+003;1.569941e-001
1.052987e+003;1.546227e-001
1.054916e+003;1.534167e-001
1.056844e+003;1.529764e-001
1.058773e+003;1.527985e-001
1.060701e+003;1.528130e-001
1.062630e+003;1.533868e-001
1.064558e+003;1.543049e-001
1.066487e+003;1.548923e-001
1.068416e+003;1.554605e-001
1.070344e+003;1.562200e-001
1.072273e+003;1.564713e-001
1.074201e+003;1.564598e-001
1.076130e+003;1.564644e-001
1.078058e+003;1.568191e-001
1.079987e+003;1.567013e-001
1.081915e+003;1.560125e-001
1.083844e+003;1.558378e-001
1.085773e+003;1.561882e-001
1.087701e+003;1.561771e-001
1.089630e+003;1.558677e-001
1.091558e+003;1.557819e-001
1.093487e+003;1.558000e-001
1.095415e+003;1.555299e-001
1.097344e+003;1.554307e-001
1.099272e+003;1.559779e-001
1.101201e+003;1.561918e-001
1.103129e+003;1.556453e-001
1.105058e+003;1.551701e-001
1.106987e+003;1.550600e-001
1.108915e+003;1.550768e-001
1.110844e+003;1.547815e-001
1.112772e+003;1.544264e-001
1.114701e+003;1.540888e-001
1.116629e+003;1.537794e-001
1.118558e+003;1.538511e-001
1.120486e+003;1.544752e-001
1.122415e+003;1.546219e-001
1.124344e+003;1.541208e-001
1.126272e+003;1.541698e-001
1.128201e+003;1.544058e-001
1.130129e+003;1.545664e-001
1.132058e+003;1.553277e-001
1.133986e+003;1.561477e-001
1.135915e+003;1.570461e-001
1.137843e+003;1.581182e-001
1.139772e+003;1.593198e-001
1.141700e+003;1.603950e-001
1.143629e+003;1.611121e-001
1.145557e+003;1.619265e-001
1.147486e+003;1.628963e-001
1.149415e+003;1.640605e-001
1.151343e+003;1.651991e-001
1.153272e+003;1.659889e-001
1.155200e+003;1.664743e-001
1.157129e+003;1.666118e-001
1.159057e+003;1.666039e-001
1.160986e+003;1.669292e-001
1.162914e+003;1.680095e-001
1.164843e+003;1.692376e-001
1.166771e+003;1.699704e-001
1.168700e+003;1.702512e-001
1.170629e+003;1.708782e-001
1.172557e+003;1.718528e-001
1.174486e+003;1.723494e-001
1.176414e+003;1.727524e-001
1.178343e+003;1.729267e-001
1.180271e+003;1.731258e-001
1.182200e+003;1.737930e-001
1.184128e+003;1.749025e-001
1.186057e+003;1.760998e-001
1.187986e+003;1.768112e-001
1.189914e+003;1.771016e-001
1.191843e+003;1.770391e-001
1.193771e+003;1.770862e-001
1.195700e+003;1.774164e-001
1.197628e+003;1.776100e-001
1.199557e+003;1.775698e-001
1.201485e+003;1.778084e-001
1.203414e+003;1.784144e-001
1.205343e+003;1.788005e-001
1.207271e+003;1.792500e-001
1.209200e+003;1.800876e-001
1.211128e+003;1.805902e-001
1.213057e+003;1.814614e-001
1.214985e+003;1.827088e-001
1.216914e+003;1.835168e-001
1.218842e+003;1.842334e-001
1.220771e+003;1.851763e-001
1.222699e+003;1.862811e-001
1.224628e+003;1.871143e-001
1.226557e+003;1.875477e-001
1.228485e+003;1.881975e-001
1.230414e+003;1.884157e-001
1.232342e+003;1.880077e-001
1.234271e+003;1.877814e-001
1.236199e+003;1.874696e-001
1.238128e+003;1.867993e-001
1.240056e+003;1.859404e-001
1.241985e+003;1.851293e-001
1.243913e+003;1.843837e-001
1.245842e+003;1.836189e-001
1.247771e+003;1.828487e-001
1.249699e+003;1.821802e-001
1.251628e+003;1.814137e-001
1.253556e+003;1.805007e-001
1.255485e+003;1.798752e-001
1.257413e+003;1.791645e-001
1.259342e+003;1.776859e-001
1.261270e+003;1.761769e-001
1.263199e+003;1.749956e-001
1.265127e+003;1.736119e-001
1.267056e+003;1.726021e-001
1.268985e+003;1.718888e-001
1.270913e+003;1.711616e-001
1.272842e+003;1.708173e-001
1.274770e+003;1.705242e-001
1.276699e+003;1.702211e-001
1.278627e+003;1.700115e-001
1.280556e+003;1.698954e-001
1.282484e+003;1.696857e-001
1.284413e+003;1.693496e-001
1.286342e+003;1.689959e-001
1.288270e+003;1.685341e-001
1.290199e+003;1.685277e-001
1.292127e+003;1.688152e-001
1.294056e+003;1.687975e-001
1.295984e+003;1.686243e-001
1.297913e+003;1.685047e-001
1.299841e+003;1.680468e-001
1.301770e+003;1.674513e-001
1.303698e+003;1.667036e-001
1.305627e+003;1.659540e-001
1.307556e+003;1.655602e-001
1.309484e+003;1.653842e-001
1.311413e+003;1.652458e-001
1.313341e+003;1.653496e-001
1.315270e+003;1.657381e-001
1.317198e+003;1.661732e-001
1.319127e+003;1.666739e-001
1.321055e+003;1.671171e-001
1.322984e+003;1.672928e-001
1.324912e+003;1.672158e-001
1.326841e+003;1.671349e-001
1.328770e+003;1.669346e-001
1.330698e+003;1.663749e-001
1.332627e+003;1.655394e-001
1.334555e+003;1.646002e-001
1.336484e+003;1.634485e-001
1.338412e+003;1.622807e-001
1.340341e+003;1.614177e-001
1.342269e+003;1.606859e-001
1.344198e+003;1.598691e-001
1.346126e+003;1.589753e-001
1.348055e+003;1.582163e-001
1.349984e+003;1.575605e-001
1.351912e+003;1.568271e-001
1.353841e+003;1.562333e-001
1.355769e+003;1.558452e-001
1.357698e+003;1.558093e-001
1.359626e+003;1.559598e-001
1.361555e+003;1.564043e-001
1.363483e+003;1.574551e-001
1.365412e+003;1.588067e-001
1.367341e+003;1.596556e-001
1.369269e+003;1.603414e-001
1.371198e+003;1.608568e-001
1.373126e+003;1.606819e-001
1.375055e+003;1.610044e-001
1.376983e+003;1.621010e-001
1.378912e+003;1.628160e-001
1.380840e+003;1.634786e-001
1.382769e+003;1.643102e-001
1.384698e+003;1.648106e-001
1.386626e+003;1.648602e-001
1.388555e+003;1.650660e-001
1.390483e+003;1.650442e-001
1.392412e+003;1.643573e-001
1.394340e+003;1.634761e-001
1.396269e+003;1.633104e-001
1.398197e+003;1.631533e-001
1.400126e+003;1.633125e-001
1.402054e+003;1.635832e-001
1.403983e+003;1.631780e-001
1.405911e+003;1.630107e-001
1.407840e+003;1.631616e-001
1.409769e+003;1.630476e-001
1.411697e+003;1.628622e-001
1.413626e+003;1.629304e-001
1.415554e+003;1.626087e-001
1.417483e+003;1.612891e-001
1.419411e+003;1.607247e-001
1.421340e+003;1.621316e-001
1.423268e+003;1.629353e-001
1.425197e+003;1.633888e-001
1.427125e+003;1.640133e-001
1.429054e+003;1.646294e-001
1.430983e+003;1.661555e-001
1.432911e+003;1.682976e-001
1.434840e+003;1.693204e-001
1.436768e+003;1.700753e-001
1.438697e+003;1.722313e-001
1.440625e+003;1.736945e-001
1.442554e+003;1.743455e-001
1.444482e+003;1.747006e-001
1.446411e+003;1.746492e-001
1.448340e+003;1.748714e-001
1.450268e+003;1.756830e-001
1.452197e+003;1.759501e-001
1.454125e+003;1.753607e-001
1.456054e+003;1.733869e-001
1.457982e+003;1.734190e-001
1.459911e+003;1.749912e-001
1.461839e+003;1.749787e-001
1.463768e+003;1.734385e-001
1.465697e+003;1.726590e-001
1.467625e+003;1.726639e-001
1.469554e+003;1.716550e-001
1.471482e+003;1.696915e-001
1.473411e+003;1.691734e-001
1.475339e+003;1.701427e-001
1.477268e+003;1.715477e-001
1.479196e+003;1.733999e-001
1.481125e+003;1.756530e-001
1.483053e+003;1.787364e-001
1.484982e+003;1.818679e-001
1.486911e+003;1.849850e-001
1.488839e+003;1.888204e-001
1.490768e+003;1.937717e-001
1.492696e+003;1.989662e-001
1.494625e+003;2.028126e-001
1.496553e+003;2.067602e-001
1.498482e+003;2.116269e-001
1.500410e+003;2.157591e-001
1.502339e+003;2.187107e-001
1.504267e+003;2.192913e-001
1.506196e+003;2.194907e-001
1.508125e+003;2.230460e-001
1.510053e+003;2.268033e-001
1.511982e+003;2.286422e-001
1.513910e+003;2.292000e-001
1.515839e+003;2.280666e-001
1.517767e+003;2.262989e-001
1.519696e+003;2.234205e-001
1.521624e+003;2.207444e-001
1.523553e+003;2.202852e-001
1.525481e+003;2.195531e-001
1.527410e+003;2.188080e-001
1.529339e+003;2.179955e-001
1.531267e+003;2.162047e-001
1.533196e+003;2.138093e-001
1.535124e+003;2.123495e-001
1.537053e+003;2.092592e-001
1.538981e+003;2.040468e-001
1.540910e+003;2.014844e-001
1.542838e+003;2.006920e-001
1.544767e+003;1.990616e-001
1.546695e+003;1.969224e-001
1.548624e+003;1.937529e-001
1.550553e+003;1.902385e-001
1.552481e+003;1.862467e-001
1.554410e+003;1.819923e-001
1.556338e+003;1.773262e-001
1.558267e+003;1.714778e-001
1.560195e+003;1.694011e-001
1.562124e+003;1.698292e-001
1.564052e+003;1.679763e-001
1.565981e+003;1.654819e-001
1.567910e+003;1.630134e-001
1.569838e+003;1.611809e-001
1.571767e+003;1.608149e-001
1.573695e+003;1.595488e-001
1.575624e+003;1.575909e-001
1.577552e+003;1.586254e-001
1.579481e+003;1.606233e-001
1.581409e+003;1.617257e-001
1.583338e+003;1.630184e-001
1.585266e+003;1.642331e-001
1.587195e+003;1.656926e-001
1.589124e+003;1.677204e-001
1.591052e+003;1.699337e-001
1.592981e+003;1.719067e-001
1.594909e+003;1.739239e-001
1.596838e+003;1.765110e-001
1.598766e+003;1.797255e-001
1.600695e+003;1.832768e-001
1.602623e+003;1.873002e-001
1.604552e+003;1.917719e-001
1.606480e+003;1.963240e-001
1.608409e+003;2.011900e-001
1.610338e+003;2.063619e-001
1.612266e+003;2.112909e-001
1.614195e+003;2.150320e-001
1.616123e+003;2.178974e-001
1.618052e+003;2.230349e-001
1.619980e+003;2.285444e-001
1.621909e+003;2.322115e-001
1.623837e+003;2.359368e-001
1.625766e+003;2.398490e-001
1.627694e+003;2.427843e-001
1.629623e+003;2.453896e-001
1.631552e+003;2.472654e-001
1.633480e+003;2.473702e-001
1.635409e+003;2.469423e-001
1.637337e+003;2.483919e-001
1.639266e+003;2.496905e-001
1.641194e+003;2.496600e-001
1.643123e+003;2.481785e-001
1.645051e+003;2.450583e-001
1.646980e+003;2.427047e-001
1.648909e+003;2.413126e-001
1.650837e+003;2.363960e-001
1.652766e+003;2.299068e-001
1.654694e+003;2.286627e-001
1.656623e+003;2.276482e-001
1.658551e+003;2.239601e-001
1.660480e+003;2.192280e-001
1.662408e+003;2.139795e-001
1.664337e+003;2.095334e-001
1.666266e+003;2.049682e-001
1.668194e+003;1.993704e-001
1.670123e+003;1.945206e-001
1.672051e+003;1.907925e-001
1.673980e+003;1.857820e-001
1.675908e+003;1.809286e-001
1.677837e+003;1.774302e-001
1.679765e+003;1.732700e-001
1.681694e+003;1.676771e-001
1.683622e+003;1.604290e-001
1.685551e+003;1.564152e-001
1.687479e+003;1.541905e-001
1.689408e+003;1.502674e-001
1.691337e+003;1.457912e-001
1.693265e+003;1.400642e-001
1.695194e+003;1.329047e-001
1.697122e+003;1.281164e-001
1.699051e+003;1.228957e-001
1.700979e+003;1.183612e-001
1.702908e+003;1.162950e-001
1.704836e+003;1.126106e-001
1.706765e+003;1.092930e-001
1.708693e+003;1.064494e-001
1.710622e+003;1.036360e-001
1.712551e+003;1.004831e-001
1.714479e+003;9.702653e-002
1.716408e+003;9.352353e-002
1.718336e+003;9.244684e-002
1.720265e+003;9.301654e-002
1.722193e+003;9.239839e-002
1.724122e+003;9.129435e-002
1.726050e+003;9.032359e-002
1.727979e+003;8.917598e-002
1.729908e+003;8.802509e-002
1.731836e+003;8.578384e-002
1.733765e+003;8.330940e-002
1.735693e+003;8.408569e-002
1.737622e+003;8.465048e-002
1.739550e+003;8.342526e-002
1.741479e+003;8.282569e-002
1.743407e+003;8.215561e-002
1.745336e+003;8.122685e-002
1.747265e+003;8.009450e-002
1.749193e+003;7.884058e-002
1.751122e+003;7.778105e-002
1.753050e+003;7.791352e-002
1.754979e+003;7.775501e-002
1.756907e+003;7.734305e-002
1.758836e+003;7.706536e-002
1.760764e+003;7.604089e-002
1.762693e+003;7.556348e-002
1.764621e+003;7.589952e-002
1.766550e+003;7.529401e-002
1.768479e+003;7.443800e-002
1.770407e+003;7.348241e-002
1.772336e+003;7.275958e-002
1.774264e+003;7.352664e-002
1.776193e+003;7.404127e-002
1.778121e+003;7.387780e-002
1.780050e+003;7.368043e-002
1.781978e+003;7.369622e-002
1.783907e+003;7.341535e-002
1.785835e+003;7.326851e-002
1.787764e+003;7.332645e-002
1.789693e+003;7.259671e-002
1.791621e+003;7.156334e-002
1.793550e+003;7.171527e-002
1.795478e+003;7.223445e-002
1.797407e+003;7.219821e-002
1.799335e+003;7.194221e-002
1.801264e+003;7.176006e-002
1.803192e+003;7.179985e-002
1.805121e+003;7.168932e-002
1.807049e+003;7.159839e-002
1.808978e+003;7.138433e-002
1.810907e+003;7.120787e-002
1.812835e+003;7.126889e-002
1.814764e+003;7.128362e-002
1.816692e+003;7.110795e-002
1.818621e+003;7.098905e-002
1.820549e+003;7.071379e-002
1.822478e+003;7.040850e-002
1.824406e+003;7.004891e-002
1.826335e+003;6.989153e-002
1.828264e+003;6.965692e-002
1.830192e+003;6.958228e-002
1.832121e+003;7.011445e-002
1.834049e+003;7.034589e-002
1.835978e+003;7.015751e-002
1.837906e+003;7.020137e-002
1.839835e+003;7.010031e-002
1.841763e+003;6.938724e-002
1.843692e+003;6.849312e-002
1.845620e+003;6.868687e-002
1.847549e+003;6.917119e-002
1.849478e+003;6.932318e-002
1.851406e+003;6.936093e-002
1.853335e+003;6.940186e-002
1.855263e+003;6.931813e-002
1.857192e+003;6.929462e-002
1.859120e+003;6.931043e-002
1.861049e+003;6.922381e-002
1.862977e+003;6.915154e-002
1.864906e+003;6.906804e-002
1.866834e+003;6.857891e-002
1.868763e+003;6.824243e-002
1.870692e+003;6.869537e-002
1.872620e+003;6.903324e-002
1.874549e+003;6.908261e-002
1.876477e+003;6.913572e-002
1.878406e+003;6.915662e-002
1.880334e+003;6.916214e-002
1.882263e+003;6.903681e-002
1.884191e+003;6.879652e-002
1.886120e+003;6.859908e-002
1.888048e+003;6.852117e-002
1.889977e+003;6.864584e-002
1.891906e+003;6.892186e-002
1.893834e+003;6.889565e-002
1.895763e+003;6.884854e-002
1.897691e+003;6.876826e-002
1.899620e+003;6.868546e-002
1.901548e+003;6.874679e-002
1.903477e+003;6.871815e-002
1.905405e+003;6.855566e-002
1.907334e+003;6.854162e-002
1.909262e+003;6.850930e-002
1.911191e+003;6.844114e-002
1.913120e+003;6.852540e-002
1.915048e+003;6.848036e-002
1.916977e+003;6.806140e-002
1.918905e+003;6.805718e-002
1.920834e+003;6.833425e-002
1.922762e+003;6.825259e-002
1.924691e+003;6.835255e-002
1.926619e+003;6.849591e-002
1.928548e+003;6.851873e-002
1.930477e+003;6.860901e-002
1.932405e+003;6.860622e-002
1.934334e+003;6.851159e-002
1.936262e+003;6.841527e-002
1.938191e+003;6.827658e-002
1.940119e+003;6.813276e-002
1.942048e+003;6.799211e-002
1.943976e+003;6.811171e-002
1.945905e+003;6.823626e-002
1.947833e+003;6.820846e-002
1.949762e+003;6.831843e-002
1.951691e+003;6.844064e-002
1.953619e+003;6.844952e-002
1.955548e+003;6.847888e-002
1.957476e+003;6.852276e-002
1.959405e+003;6.840999e-002
1.961333e+003;6.825561e-002
1.963262e+003;6.843171e-002
1.965190e+003;6.853607e-002
1.967119e+003;6.836749e-002
1.969047e+003;6.846581e-002
1.970976e+003;6.857669e-002
1.972905e+003;6.871562e-002
1.974833e+003;6.875014e-002
1.976762e+003;6.850829e-002
1.978690e+003;6.834724e-002
1.980619e+003;6.831971e-002
1.982547e+003;6.819885e-002
1.984476e+003;6.826147e-002
1.986404e+003;6.845029e-002
1.988333e+003;6.839079e-002
1.990261e+003;6.812210e-002
1.992190e+003;6.814338e-002
1.994119e+003;6.844424e-002
1.996047e+003;6.839297e-002
1.997976e+003;6.824146e-002
1.999904e+003;6.838075e-002
2.001833e+003;6.865682e-002
2.003761e+003;6.866482e-002
2.005690e+003;6.842124e-002
2.007618e+003;6.848548e-002
2.009547e+003;6.858884e-002
2.011476e+003;6.873228e-002
2.013404e+003;6.877385e-002
2.015333e+003;6.862617e-002
2.017261e+003;6.845421e-002
2.019190e+003;6.854728e-002
2.021118e+003;6.860370e-002
2.023047e+003;6.863649e-002
2.024975e+003;6.868776e-002
2.026904e+003;6.868240e-002
2.028833e+003;6.858569e-002
2.030761e+003;6.852365e-002
2.032690e+003;6.859978e-002
2.034618e+003;6.870965e-002
2.036547e+003;6.884754e-002
2.038475e+003;6.880755e-002
2.040404e+003;6.864099e-002
2.042332e+003;6.866284e-002
2.044261e+003;6.882447e-002
2.046189e+003;6.888042e-002
2.048118e+003;6.884392e-002
2.050047e+003;6.888194e-002
2.051975e+003;6.903686e-002
2.053904e+003;6.902897e-002
2.055832e+003;6.885328e-002
2.057761e+003;6.884062e-002
2.059689e+003;6.891285e-002
2.061618e+003;6.892298e-002
2.063546e+003;6.895032e-002
2.065475e+003;6.893735e-002
2.067404e+003;6.889024e-002
2.069332e+003;6.894217e-002
2.071260e+003;6.910549e-002
2.073189e+003;6.911649e-002
2.075118e+003;6.899090e-002
2.077046e+003;6.901448e-002
2.078975e+003;6.893424e-002
2.080903e+003;6.889133e-002
2.082832e+003;6.891926e-002
2.084760e+003;6.870294e-002
2.086689e+003;6.849704e-002
2.088617e+003;6.868861e-002
2.090546e+003;6.886210e-002
2.092475e+003;6.890026e-002
2.094403e+003;6.889296e-002
2.096332e+003;6.880883e-002
2.098260e+003;6.871069e-002
2.100189e+003;6.867716e-002
2.102117e+003;6.881341e-002
2.104046e+003;6.885138e-002
2.105974e+003;6.855585e-002
2.107903e+003;6.836795e-002
2.109832e+003;6.830066e-002
2.111760e+003;6.830594e-002
2.113688e+003;6.852579e-002
2.115617e+003;6.857184e-002
2.117546e+003;6.850798e-002
2.119474e+003;6.851698e-002
2.121403e+003;6.847085e-002
2.123331e+003;6.839991e-002
2.125260e+003;6.837745e-002
2.127188e+003;6.860331e-002
2.129117e+003;6.856862e-002
2.131045e+003;6.842411e-002
2.132974e+003;6.839987e-002
2.134903e+003;6.856668e-002
2.136831e+003;6.856265e-002
2.138760e+003;6.841329e-002
2.140688e+003;6.830935e-002
2.142617e+003;6.826096e-002
2.144545e+003;6.819478e-002
2.146474e+003;6.819808e-002
2.148402e+003;6.824305e-002
2.150331e+003;6.828136e-002
2.152260e+003;6.823537e-002
2.154188e+003;6.823440e-002
2.156117e+003;6.824219e-002
2.158045e+003;6.821878e-002
2.159974e+003;6.815066e-002
2.161902e+003;6.805164e-002
2.163831e+003;6.794670e-002
2.165759e+003;6.807400e-002
2.167688e+003;6.825042e-002
2.169616e+003;6.826720e-002
2.171545e+003;6.814993e-002
2.173474e+003;6.820405e-002
2.175402e+003;6.819901e-002
2.177331e+003;6.802947e-002
2.179259e+003;6.804683e-002
2.181188e+003;6.797130e-002
2.183116e+003;6.780166e-002
2.185045e+003;6.790362e-002
2.186973e+003;6.799579e-002
2.188902e+003;6.788843e-002
2.190831e+003;6.774488e-002
2.192759e+003;6.775658e-002
2.194688e+003;6.779945e-002
2.196616e+003;6.780022e-002
2.198545e+003;6.787325e-002
2.200473e+003;6.805202e-002
2.202402e+003;6.797099e-002
2.204330e+003;6.782924e-002
2.206259e+003;6.778935e-002
2.208188e+003;6.759317e-002
2.210116e+003;6.736749e-002
2.212044e+003;6.755678e-002
2.213973e+003;6.804559e-002
2.215902e+003;6.800114e-002
2.217830e+003;6.769694e-002
2.219759e+003;6.766549e-002
2.221687e+003;6.755865e-002
2.223616e+003;6.751215e-002
2.225544e+003;6.755206e-002
2.227473e+003;6.750248e-002
2.229401e+003;6.766612e-002
2.231330e+003;6.777474e-002
2.233259e+003;6.750766e-002
2.235187e+003;6.730268e-002
2.237116e+003;6.724439e-002
2.239044e+003;6.719379e-002
2.240973e+003;6.722362e-002
2.242901e+003;6.716876e-002
2.244830e+003;6.715395e-002
2.246758e+003;6.716242e-002
2.248687e+003;6.718416e-002
2.250615e+003;6.732435e-002
2.252544e+003;6.743974e-002
2.254473e+003;6.735139e-002
2.256401e+003;6.716161e-002
2.258330e+003;6.707035e-002
2.260258e+003;6.721143e-002
2.262187e+003;6.730690e-002
2.264115e+003;6.711768e-002
2.266044e+003;6.699689e-002
2.267972e+003;6.704491e-002
2.269901e+003;6.707526e-002
2.271830e+003;6.722597e-002
2.273758e+003;6.726578e-002
2.275687e+003;6.696105e-002
2.277615e+003;6.677680e-002
2.279544e+003;6.675745e-002
2.281472e+003;6.674640e-002
2.283401e+003;6.683021e-002
2.285329e+003;6.693623e-002
2.287258e+003;6.700291e-002
2.289187e+003;6.696425e-002
2.291115e+003;6.704046e-002
2.293043e+003;6.708702e-002
2.294972e+003;6.707069e-002
2.296901e+003;6.696716e-002
2.298829e+003;6.689128e-002
2.300758e+003;6.713624e-002
2.302686e+003;6.730605e-002
2.304615e+003;6.715685e-002
2.306543e+003;6.700991e-002
2.308472e+003;6.705476e-002
2.310400e+003;6.701289e-002
2.312329e+003;6.689978e-002
2.314258e+003;6.677604e-002
2.316186e+003;6.677642e-002
2.318115e+003;6.667913e-002
2.320043e+003;6.650629e-002
2.321972e+003;6.658766e-002
2.323900e+003;6.649671e-002
2.325829e+003;6.633127e-002
2.327757e+003;6.633729e-002
2.329686e+003;6.633405e-002
2.331615e+003;6.643111e-002
2.333543e+003;6.650960e-002
2.335472e+003;6.661636e-002
2.337400e+003;6.669250e-002
2.339329e+003;6.670826e-002
2.341257e+003;6.679779e-002
2.343186e+003;6.690338e-002
2.345114e+003;6.678925e-002
2.347043e+003;6.674686e-002
2.348971e+003;6.692657e-002
2.350900e+003;6.697813e-002
2.352829e+003;6.670838e-002
2.354757e+003;6.665345e-002
2.356686e+003;6.682132e-002
2.358614e+003;6.662764e-002
2.360543e+003;6.634165e-002
2.362471e+003;6.634092e-002
2.364400e+003;6.648833e-002
2.366328e+003;6.672008e-002
2.368257e+003;6.708485e-002
2.370186e+003;6.723684e-002
2.372114e+003;6.728288e-002
2.374042e+003;6.739655e-002
2.375971e+003;6.744694e-002
2.377900e+003;6.771727e-002
2.379828e+003;6.810880e-002
2.381757e+003;6.840957e-002
2.383685e+003;6.849076e-002
2.385614e+003;6.834127e-002
2.387542e+003;6.829853e-002
2.389471e+003;6.818904e-002
2.391399e+003;6.811310e-002
2.393328e+003;6.821610e-002
2.395257e+003;6.852505e-002
2.397185e+003;6.867351e-002
2.399114e+003;6.868520e-002
2.401042e+003;6.883519e-002
2.402971e+003;6.903724e-002
2.404899e+003;6.895890e-002
2.406828e+003;6.884710e-002
2.408756e+003;6.920946e-002
2.410685e+003;6.942558e-002
2.412614e+003;6.935408e-002
2.414542e+003;6.931416e-002
2.416471e+003;6.943070e-002
2.418399e+003;6.966695e-002
2.420328e+003;6.997211e-002
2.422256e+003;6.995814e-002
2.424185e+003;7.011592e-002
2.426113e+003;7.013983e-002
2.428042e+003;7.009603e-002
2.429970e+003;7.031075e-002
2.431899e+003;7.058477e-002
2.433828e+003;7.067983e-002
2.435756e+003;7.076214e-002
2.437685e+003;7.094305e-002
2.439613e+003;7.104551e-002
2.441542e+003;7.104368e-002
2.443470e+003;7.095901e-002
2.445399e+003;7.092760e-002
2.447327e+003;7.104910e-002
2.449256e+003;7.103065e-002
2.451185e+003;7.095982e-002
2.453113e+003;7.119425e-002
2.455042e+003;7.149884e-002
2.456970e+003;7.166501e-002
2.458899e+003;7.160843e-002
2.460827e+003;7.149388e-002
2.462756e+003;7.166001e-002
2.464684e+003;7.198221e-002
2.466613e+003;7.222944e-002
2.468542e+003;7.226039e-002
2.470470e+003;7.214320e-002
2.472398e+003;7.232743e-002
2.474327e+003;7.261120e-002
2.476256e+003;7.258801e-002
2.478184e+003;7.257650e-002
2.480113e+003;7.284217e-002
2.482041e+003;7.288516e-002
2.483970e+003;7.294437e-002
2.485898e+003;7.307816e-002
2.487827e+003;7.302469e-002
2.489755e+003;7.293019e-002
2.491684e+003;7.302441e-002
2.493613e+003;7.324580e-002
2.495541e+003;7.336113e-002
2.497470e+003;7.345568e-002
2.499398e+003;7.354238e-002
2.501327e+003;7.354289e-002
2.503255e+003;7.366779e-002
2.505184e+003;7.373811e-002
2.507112e+003;7.384096e-002
2.509041e+003;7.416133e-002
2.510969e+003;7.436509e-002
2.512898e+003;7.418267e-002
2.514827e+003;7.424010e-002
2.516755e+003;7.449349e-002
2.518684e+003;7.443745e-002
2.520612e+003;7.435706e-002
2.522541e+003;7.442592e-002
2.524469e+003;7.453416e-002
2.526398e+003;7.465015e-002
2.528326e+003;7.463755e-002
2.530255e+003;7.465042e-002
2.532184e+003;7.478635e-002
2.534112e+003;7.500190e-002
2.536041e+003;7.516410e-002
2.537969e+003;7.514402e-002
2.539898e+003;7.523896e-002
2.541826e+003;7.548486e-002
2.543755e+003;7.559860e-002
2.545683e+003;7.528298e-002
2.547612e+003;7.506480e-002
2.549541e+003;7.518683e-002
2.551469e+003;7.554451e-002
2.553397e+003;7.573728e-002
2.555326e+003;7.579286e-002
2.557255e+003;7.581748e-002
2.559183e+003;7.582944e-002
2.561112e+003;7.616372e-002
2.563040e+003;7.626118e-002
2.564969e+003;7.624151e-002
2.566897e+003;7.604291e-002
2.568826e+003;7.595098e-002
2.570754e+003;7.629036e-002
2.572683e+003;7.669595e-002
2.574612e+003;7.684648e-002
2.576540e+003;7.689168e-002
2.578469e+003;7.680535e-002
2.580397e+003;7.679677e-002
2.582326e+003;7.700977e-002
2.584254e+003;7.717295e-002
2.586183e+003;7.726245e-002
2.588111e+003;7.720414e-002
2.590040e+003;7.713345e-002
2.591969e+003;7.717711e-002
2.593897e+003;7.752866e-002
2.595826e+003;7.780875e-002
2.597754e+003;7.777379e-002
2.599683e+003;7.780395e-002
2.601611e+003;7.792835e-002
2.603540e+003;7.787685e-002
2.605468e+003;7.809296e-002
2.607397e+003;7.846319e-002
2.609325e+003;7.864876e-002
2.611254e+003;7.852754e-002
2.613183e+003;7.842521e-002
2.615111e+003;7.858598e-002
2.617040e+003;7.869697e-002
2.618968e+003;7.860727e-002
2.620897e+003;7.856704e-002
2.622825e+003;7.851579e-002
2.624754e+003;7.861005e-002
2.626682e+003;7.867692e-002
2.628611e+003;7.859305e-002
2.630540e+003;7.866004e-002
2.632468e+003;7.906471e-002
2.634396e+003;7.944302e-002
2.636325e+003;7.938820e-002
2.638254e+003;7.933152e-002
2.640182e+003;7.938072e-002
2.642111e+003;7.924983e-002
2.644039e+003;7.935256e-002
2.645968e+003;7.948360e-002
2.647896e+003;7.961815e-002
2.649825e+003;7.973988e-002
2.651753e+003;7.967224e-002
2.653682e+003;7.955132e-002
2.655611e+003;7.946772e-002
2.657539e+003;7.946020e-002
2.659468e+003;7.958702e-002
2.661396e+003;7.980183e-002
2.663325e+003;7.988366e-002
2.665253e+003;8.012427e-002
2.667182e+003;8.012168e-002
2.669110e+003;8.015806e-002
2.671039e+003;8.039963e-002
2.672968e+003;8.067371e-002
2.674896e+003;8.084359e-002
2.676825e+003;8.074533e-002
2.678753e+003;8.068899e-002
2.680682e+003;8.062165e-002
2.682610e+003;8.052380e-002
2.684539e+003;8.062141e-002
2.686467e+003;8.088167e-002
2.688396e+003;8.113350e-002
2.690324e+003;8.124039e-002
2.692253e+003;8.104392e-002
2.694182e+003;8.094718e-002
2.696110e+003;8.139250e-002
2.698039e+003;8.175785e-002
2.699967e+003;8.169845e-002
2.701896e+003;8.169857e-002
2.703824e+003;8.177733e-002
2.705753e+003;8.170158e-002
2.707681e+003;8.191439e-002
2.709610e+003;8.220633e-002
2.711539e+003;8.226103e-002
2.713467e+003;8.251102e-002
2.715396e+003;8.271508e-002
2.717324e+003;8.259929e-002
2.719253e+003;8.277814e-002
2.721181e+003;8.333613e-002
2.723110e+003;8.352436e-002
2.725038e+003;8.338081e-002
2.726967e+003;8.357935e-002
2.728896e+003;8.376897e-002
2.730824e+003;8.387358e-002
2.732752e+003;8.400221e-002
2.734681e+003;8.412212e-002
2.736610e+003;8.426528e-002
2.738538e+003;8.446135e-002
2.740467e+003;8.454137e-002
2.742395e+003;8.455868e-002
2.744324e+003;8.476198e-002
2.746252e+003;8.483203e-002
2.748181e+003;8.457845e-002
2.750109e+003;8.452805e-002
2.752038e+003;8.480496e-002
2.753967e+003;8.516226e-002
2.755895e+003;8.531366e-002
2.757824e+003;8.538472e-002
2.759752e+003;8.574076e-002
2.761681e+003;8.608340e-002
2.763609e+003;8.610886e-002
2.765538e+003;8.598113e-002
2.767466e+003;8.601570e-002
2.769395e+003;8.628621e-002
2.771323e+003;8.634324e-002
2.773252e+003;8.630536e-002
2.775181e+003;8.646206e-002
2.777109e+003;8.684662e-002
2.779038e+003;8.716065e-002
2.780966e+003;8.716252e-002
2.782895e+003;8.688507e-002
2.784823e+003;8.666520e-002
2.786752e+003;8.693732e-002
2.788680e+003;8.740784e-002
2.790609e+003;8.770091e-002
2.792538e+003;8.786427e-002
2.794466e+003;8.784577e-002
2.796395e+003;8.794216e-002
2.798323e+003;8.802230e-002
2.800252e+003;8.817571e-002
2.802180e+003;8.846491e-002
2.804109e+003;8.863600e-002
2.806037e+003;8.881105e-002
2.807966e+003;8.899488e-002
2.809895e+003;8.925487e-002
2.811823e+003;8.956951e-002
2.813751e+003;8.967915e-002
2.815680e+003;8.977876e-002
2.817609e+003;8.994828e-002
2.819537e+003;9.028638e-002
2.821466e+003;9.039465e-002
2.823394e+003;9.046260e-002
2.825323e+003;9.071796e-002
2.827251e+003;9.093099e-002
2.829180e+003;9.095194e-002
2.831108e+003;9.111257e-002
2.833037e+003;9.127574e-002
2.834966e+003;9.152059e-002
2.836894e+003;9.184591e-002
2.838823e+003;9.230667e-002
2.840751e+003;9.264493e-002
2.842680e+003;9.290084e-002
2.844608e+003;9.322549e-002
2.846537e+003;9.346119e-002
2.848465e+003;9.374464e-002
2.850394e+003;9.413312e-002
2.852323e+003;9.464204e-002
2.854251e+003;9.544077e-002
2.856180e+003;9.615513e-002
2.858108e+003;9.646657e-002
2.860037e+003;9.685327e-002
2.861965e+003;9.753723e-002
2.863894e+003;9.818136e-002
2.865822e+003;9.882125e-002
2.867751e+003;9.930465e-002
2.869679e+003;9.978986e-002
2.871608e+003;1.005043e-001
2.873536e+003;1.007797e-001
2.875465e+003;1.006930e-001
2.877394e+003;1.005839e-001
2.879322e+003;1.004545e-001
2.881251e+003;1.003429e-001
2.883179e+003;1.003131e-001
2.885108e+003;1.003866e-001
2.887036e+003;1.004173e-001
2.888965e+003;1.005583e-001
2.890893e+003;1.003911e-001
2.892822e+003;1.005056e-001
2.894750e+003;1.009633e-001
2.896679e+003;1.009065e-001
2.898608e+003;1.009606e-001
2.900536e+003;1.013088e-001
2.902465e+003;1.016923e-001
2.904393e+003;1.022217e-001
2.906322e+003;1.029880e-001
2.908250e+003;1.031753e-001
2.910179e+003;1.033646e-001
2.912107e+003;1.038229e-001
2.914036e+003;1.039585e-001
2.915965e+003;1.043001e-001
2.917893e+003;1.051677e-001
2.919822e+003;1.057426e-001
2.921750e+003;1.060288e-001
2.923679e+003;1.064416e-001
2.925607e+003;1.066942e-001
2.927536e+003;1.072355e-001
2.929464e+003;1.079588e-001
2.931393e+003;1.083968e-001
2.933322e+003;1.085427e-001
2.935250e+003;1.084015e-001
2.937178e+003;1.082843e-001
2.939107e+003;1.079539e-001
2.941036e+003;1.076080e-001
2.942964e+003;1.074666e-001
2.944893e+003;1.074957e-001
2.946821e+003;1.073819e-001
2.948750e+003;1.075016e-001
2.950678e+003;1.075826e-001
2.952607e+003;1.073708e-001
2.954535e+003;1.072782e-001
2.956464e+003;1.075250e-001
2.958393e+003;1.077767e-001
2.960321e+003;1.076009e-001
2.962250e+003;1.073822e-001
2.964178e+003;1.067616e-001
2.966107e+003;1.063911e-001
2.968035e+003;1.065349e-001
2.969964e+003;1.063402e-001
2.971892e+003;1.059112e-001
2.973821e+003;1.052571e-001
2.975750e+003;1.043035e-001
2.977678e+003;1.037358e-001
2.979607e+003;1.032299e-001
2.981535e+003;1.028262e-001
2.983464e+003;1.022673e-001
2.985392e+003;1.013269e-001
2.987321e+003;1.008068e-001
2.989249e+003;1.006077e-001
2.991178e+003;1.004049e-001
2.993106e+003;1.004009e-001
2.995035e+003;9.999032e-002
2.996964e+003;9.902309e-002
2.998892e+003;9.881192e-002
3.000821e+003;9.888939e-002
3.002749e+003;9.892484e-002
3.004678e+003;9.912578e-002
3.006606e+003;9.867459e-002
3.008535e+003;9.820986e-002
3.010463e+003;9.836064e-002
3.012392e+003;9.863483e-002
3.014321e+003;9.863857e-002
3.016249e+003;9.853289e-002
3.018177e+003;9.892983e-002
3.020106e+003;9.927347e-002
3.022035e+003;9.951115e-002
3.023963e+003;9.999921e-002
3.025892e+003;1.001745e-001
3.027820e+003;1.003137e-001
3.029749e+003;1.005764e-001
3.031677e+003;1.006589e-001
3.033606e+003;1.009009e-001
3.035534e+003;1.011965e-001
3.037463e+003;1.014615e-001
3.039392e+003;1.013191e-001
3.041320e+003;1.013720e-001
3.043249e+003;1.017766e-001
3.045177e+003;1.023618e-001
3.047106e+003;1.027602e-001
3.049034e+003;1.026420e-001
3.050963e+003;1.027467e-001
3.052891e+003;1.029330e-001
3.054820e+003;1.029473e-001
3.056749e+003;1.030365e-001
3.058677e+003;1.030658e-001
3.060606e+003;1.031912e-001
3.062534e+003;1.031236e-001
3.064463e+003;1.029706e-001
3.066391e+003;1.030763e-001
3.068320e+003;1.030465e-001
3.070248e+003;1.030072e-001
3.072177e+003;1.030419e-001
3.074105e+003;1.028918e-001
3.076034e+003;1.027719e-001
3.077963e+003;1.030111e-001
3.079891e+003;1.031012e-001
3.081820e+003;1.029216e-001
3.083748e+003;1.028185e-001
3.085677e+003;1.023981e-001
3.087605e+003;1.020032e-001
3.089534e+003;1.020695e-001
3.091462e+003;1.020940e-001
3.093391e+003;1.020131e-001
3.095320e+003;1.020665e-001
3.097248e+003;1.021021e-001
3.099177e+003;1.018961e-001
3.101105e+003;1.017053e-001
3.103034e+003;1.018756e-001
3.104962e+003;1.020279e-001
3.106891e+003;1.023076e-001
3.108819e+003;1.023551e-001
3.110748e+003;1.020478e-001
3.112677e+003;1.018643e-001
3.114605e+003;1.019211e-001
3.116533e+003;1.021498e-001
3.118462e+003;1.025830e-001
3.120391e+003;1.029847e-001
3.122319e+003;1.029654e-001
3.124248e+003;1.028087e-001
3.126176e+003;1.027927e-001
3.128105e+003;1.028316e-001
3.130033e+003;1.028916e-001
3.131962e+003;1.032706e-001
3.133890e+003;1.038160e-001
3.135819e+003;1.042575e-001
3.137748e+003;1.042279e-001
3.139676e+003;1.044318e-001
3.141605e+003;1.050256e-001
3.143533e+003;1.052549e-001
3.145462e+003;1.050357e-001
3.147390e+003;1.050429e-001
3.149319e+003;1.058747e-001
3.151247e+003;1.068500e-001
3.153176e+003;1.073771e-001
3.155104e+003;1.073442e-001
3.157033e+003;1.073908e-001
3.158962e+003;1.079643e-001
3.160890e+003;1.085265e-001
3.162819e+003;1.087190e-001
3.164747e+003;1.090459e-001
3.166676e+003;1.093569e-001
3.168604e+003;1.096731e-001
3.170533e+003;1.099803e-001
3.172461e+003;1.105777e-001
3.174390e+003;1.114410e-001
3.176319e+003;1.117530e-001
3.178247e+003;1.117906e-001
3.180176e+003;1.119132e-001
3.182104e+003;1.119924e-001
3.184033e+003;1.121579e-001
3.185961e+003;1.124635e-001
3.187890e+003;1.132535e-001
3.189818e+003;1.137166e-001
3.191747e+003;1.137156e-001
3.193676e+003;1.139538e-001
3.195604e+003;1.143436e-001
3.197532e+003;1.148311e-001
3.199461e+003;1.155888e-001
3.201390e+003;1.160206e-001
3.203318e+003;1.160263e-001
3.205247e+003;1.160138e-001
3.207175e+003;1.160478e-001
3.209104e+003;1.162455e-001
3.211032e+003;1.166335e-001
3.212961e+003;1.168428e-001
3.214889e+003;1.169025e-001
3.216818e+003;1.173290e-001
3.218747e+003;1.178362e-001
3.220675e+003;1.179227e-001
3.222604e+003;1.176897e-001
3.224532e+003;1.177655e-001
3.226461e+003;1.176991e-001
3.228389e+003;1.178399e-001
3.230318e+003;1.186099e-001
3.232246e+003;1.194058e-001
3.234175e+003;1.197313e-001
3.236104e+003;1.196408e-001
3.238032e+003;1.197881e-001
3.239961e+003;1.206111e-001
3.241889e+003;1.208093e-001
3.243818e+003;1.206611e-001
3.245746e+003;1.210323e-001
3.247675e+003;1.215824e-001
3.249603e+003;1.221422e-001
3.251532e+003;1.224478e-001
3.253460e+003;1.228973e-001
3.255389e+003;1.229945e-001
3.257318e+003;1.227063e-001
3.259246e+003;1.230062e-001
3.261175e+003;1.236845e-001
3.263103e+003;1.241913e-001
3.265032e+003;1.245135e-001
3.266960e+003;1.249884e-001
3.268889e+003;1.255750e-001
3.270817e+003;1.256303e-001
3.272746e+003;1.256614e-001
3.274675e+003;1.258396e-001
3.276603e+003;1.262156e-001
3.278531e+003;1.263151e-001
3.280460e+003;1.259978e-001
3.282389e+003;1.259381e-001
3.284317e+003;1.261755e-001
3.286246e+003;1.262538e-001
3.288174e+003;1.263555e-001
3.290103e+003;1.263926e-001
3.292031e+003;1.263599e-001
3.293960e+003;1.258457e-001
3.295888e+003;1.254352e-001
3.297817e+003;1.255220e-001
3.299746e+003;1.252792e-001
3.301674e+003;1.248782e-001
3.303603e+003;1.247027e-001
3.305531e+003;1.245840e-001
3.307460e+003;1.242250e-001
3.309388e+003;1.238887e-001
3.311317e+003;1.234470e-001
3.313245e+003;1.231389e-001
3.315174e+003;1.229723e-001
3.317103e+003;1.231986e-001
3.319031e+003;1.230764e-001
3.320960e+003;1.223224e-001
3.322888e+003;1.218747e-001
3.324817e+003;1.212364e-001
3.326745e+003;1.204764e-001
3.328674e+003;1.200184e-001
3.330602e+003;1.198668e-001
3.332531e+003;1.196687e-001
3.334459e+003;1.191918e-001
3.336388e+003;1.187196e-001
3.338317e+003;1.185092e-001
3.340245e+003;1.183269e-001
3.342174e+003;1.181020e-001
3.344102e+003;1.177304e-001
3.346031e+003;1.169857e-001
3.347959e+003;1.164479e-001
3.349888e+003;1.162396e-001
3.351816e+003;1.157793e-001
3.353745e+003;1.148307e-001
3.355674e+003;1.144723e-001
3.357602e+003;1.142788e-001
3.359531e+003;1.135829e-001
3.361459e+003;1.127145e-001
3.363388e+003;1.122171e-001
3.365316e+003;1.124127e-001
3.367245e+003;1.119266e-001
3.369173e+003;1.108115e-001
3.371102e+003;1.101303e-001
3.373031e+003;1.102998e-001
3.374959e+003;1.100696e-001
3.376887e+003;1.094735e-001
3.378816e+003;1.089339e-001
3.380745e+003;1.083293e-001
3.382673e+003;1.079766e-001
3.384602e+003;1.074752e-001
3.386530e+003;1.068665e-001
3.388459e+003;1.065647e-001
3.390387e+003;1.063902e-001
3.392316e+003;1.060475e-001
3.394244e+003;1.054112e-001
3.396173e+003;1.047389e-001
3.398102e+003;1.045141e-001
3.400030e+003;1.044881e-001
3.401959e+003;1.040486e-001
3.403887e+003;1.031713e-001
3.405816e+003;1.021808e-001
3.407744e+003;1.017764e-001
3.409673e+003;1.016723e-001
3.411601e+003;1.014792e-001
3.413530e+003;1.013721e-001
3.415458e+003;1.010912e-001
3.417387e+003;1.000522e-001
3.419316e+003;9.917823e-002
3.421244e+003;9.914776e-002
3.423173e+003;9.934843e-002
3.425101e+003;9.900224e-002
3.427030e+003;9.840490e-002
3.428958e+003;9.784499e-002
3.430887e+003;9.699128e-002
3.432815e+003;9.645561e-002
3.434744e+003;9.616650e-002
3.436673e+003;9.574427e-002
3.438601e+003;9.532711e-002
3.440530e+003;9.479967e-002
3.442458e+003;9.427488e-002
3.444387e+003;9.382450e-002
3.446315e+003;9.343502e-002
3.448244e+003;9.324429e-002
3.450172e+003;9.332824e-002
3.452101e+003;9.313580e-002
3.454030e+003;9.242278e-002
3.455958e+003;9.202542e-002
3.457886e+003;9.197427e-002
3.459815e+003;9.187007e-002
3.461744e+003;9.110644e-002
3.463672e+003;9.030005e-002
3.465601e+003;9.000914e-002
3.467529e+003;8.964359e-002
3.469458e+003;8.968774e-002
3.471386e+003;8.994693e-002
3.473315e+003;8.958767e-002
3.475243e+003;8.911052e-002
3.477172e+003;8.898320e-002
3.479101e+003;8.845475e-002
3.481029e+003;8.764710e-002
3.482958e+003;8.754665e-002
3.484886e+003;8.777346e-002
3.486815e+003;8.739739e-002
3.488743e+003;8.660683e-002
3.490672e+003;8.599526e-002
3.492600e+003;8.610946e-002
3.494529e+003;8.619791e-002
3.496458e+003;8.553519e-002
3.498386e+003;8.493556e-002
3.500315e+003;8.457100e-002
3.502243e+003;8.433033e-002
3.504172e+003;8.411645e-002
3.506100e+003;8.368226e-002
3.508029e+003;8.381630e-002
3.509957e+003;8.420996e-002
3.511886e+003;8.405641e-002
3.513814e+003;8.368604e-002
3.515743e+003;8.389806e-002
3.517672e+003;8.346995e-002
3.519600e+003;8.261752e-002
3.521529e+003;8.237353e-002
3.523457e+003;8.221038e-002
3.525386e+003;8.181757e-002
3.527314e+003;8.135394e-002
3.529243e+003;8.085445e-002
3.531171e+003;8.055950e-002
3.533100e+003;8.079394e-002
3.535029e+003;8.046458e-002
3.536957e+003;8.028229e-002
3.538885e+003;8.011559e-002
3.540814e+003;7.988462e-002
3.542743e+003;7.932710e-002
3.544671e+003;7.882639e-002
3.546600e+003;7.829197e-002
3.548528e+003;7.790734e-002
3.550457e+003;7.791293e-002
3.552385e+003;7.785521e-002
3.554314e+003;7.803295e-002
3.556242e+003;7.810489e-002
3.558171e+003;7.730556e-002
3.560100e+003;7.650643e-002
3.562028e+003;7.653851e-002
3.563957e+003;7.624806e-002
3.565885e+003;7.550000e-002
3.567814e+003;7.517498e-002
3.569742e+003;7.492540e-002
3.571671e+003;7.524349e-002
3.573599e+003;7.553016e-002
3.575528e+003;7.507993e-002
3.577457e+003;7.499864e-002
3.579385e+003;7.456996e-002
3.581314e+003;7.426742e-002
3.583242e+003;7.427996e-002
3.585171e+003;7.348928e-002
3.587099e+003;7.256369e-002
3.589028e+003;7.255152e-002
3.590956e+003;7.298283e-002
3.592885e+003;7.294865e-002
3.594813e+003;7.262883e-002
3.596742e+003;7.184505e-002
3.598671e+003;7.112119e-002
3.600599e+003;7.079084e-002
3.602528e+003;7.115986e-002
3.604456e+003;7.099221e-002
3.606385e+003;7.008813e-002
3.608313e+003;6.942192e-002
3.610242e+003;6.878480e-002
3.612170e+003;6.802377e-002
3.614099e+003;6.836190e-002
3.616028e+003;6.846861e-002
3.617956e+003;6.777490e-002
3.619885e+003;6.754138e-002
3.621813e+003;6.758183e-002
3.623742e+003;6.788398e-002
3.625670e+003;6.738208e-002
3.627599e+003;6.523594e-002
3.629527e+003;6.476006e-002
3.631456e+003;6.559876e-002
3.633385e+003;6.550910e-002
3.635313e+003;6.512979e-002
3.637241e+003;6.519332e-002
3.639170e+003;6.492517e-002
3.641099e+003;6.408561e-002
3.643027e+003;6.352368e-002
3.644956e+003;6.265750e-002
3.646884e+003;6.064653e-002
3.648813e+003;5.931102e-002
3.650741e+003;5.958568e-002
3.652670e+003;6.006552e-002
3.654598e+003;5.972929e-002
3.656527e+003;5.968900e-002
3.658456e+003;5.949934e-002
3.660384e+003;5.918710e-002
3.662313e+003;5.944493e-002
3.664241e+003;5.935105e-002
3.666170e+003;5.830534e-002
3.668098e+003;5.633942e-002
3.670027e+003;5.473614e-002
3.671955e+003;5.498551e-002
3.673884e+003;5.404960e-002
3.675813e+003;5.328476e-002
3.677741e+003;5.480155e-002
3.679669e+003;5.570156e-002
3.681598e+003;5.555950e-002
3.683527e+003;5.447760e-002
3.685455e+003;5.303052e-002
3.687384e+003;5.141411e-002
3.689312e+003;5.166942e-002
3.691241e+003;5.272836e-002
3.693169e+003;5.358784e-002
3.695098e+003;5.375828e-002
3.697026e+003;5.354660e-002
3.698955e+003;5.327292e-002
3.700884e+003;5.269009e-002
3.702812e+003;5.236450e-002
3.704741e+003;5.232581e-002
3.706669e+003;5.263088e-002
3.708598e+003;5.193704e-002
3.710526e+003;5.060054e-002
3.712455e+003;5.057723e-002
3.714383e+003;5.205451e-002
3.716312e+003;5.245676e-002
3.718240e+003;5.173226e-002
3.720169e+003;5.111698e-002
3.722098e+003;5.113368e-002
3.724026e+003;5.120152e-002
3.725955e+003;5.118079e-002
3.727883e+003;5.168363e-002
3.729812e+003;5.138580e-002
3.731740e+003;5.007181e-002
3.733669e+003;4.923502e-002
3.735597e+003;4.895481e-002
3.737526e+003;4.964088e-002
3.739455e+003;5.047078e-002
3.741383e+003;4.995414e-002
3.743312e+003;4.715630e-002
3.745240e+003;4.763398e-002
3.747169e+003;4.889232e-002
3.749097e+003;4.765753e-002
3.751026e+003;4.754632e-002
3.752954e+003;4.910979e-002
3.754883e+003;5.043449e-002
3.756812e+003;5.070833e-002
3.758740e+003;5.053349e-002
3.760668e+003;5.027956e-002
3.762597e+003;4.994075e-002
3.764526e+003;4.954609e-002
3.766454e+003;5.029656e-002
3.768383e+003;5.016024e-002
3.770311e+003;5.003994e-002
3.772240e+003;5.059019e-002
3.774168e+003;5.102124e-002
3.776097e+003;5.097567e-002
3.778025e+003;5.092153e-002
3.779954e+003;5.113837e-002
3.781883e+003;5.150639e-002
3.783811e+003;5.135712e-002
3.785740e+003;5.154172e-002
3.787668e+003;5.142798e-002
3.789597e+003;5.102861e-002
3.791525e+003;5.121371e-002
3.793454e+003;5.100353e-002
3.795382e+003;5.029682e-002
3.797311e+003;4.987898e-002
3.799240e+003;4.869231e-002
3.801168e+003;4.844797e-002
3.803097e+003;5.017939e-002
3.805025e+003;5.017906e-002
3.806954e+003;4.960129e-002
3.808882e+003;5.083533e-002
3.810811e+003;5.180946e-002
3.812739e+003;5.112775e-002
3.814668e+003;4.910430e-002
3.816596e+003;4.933554e-002
3.818525e+003;5.032629e-002
3.820454e+003;4.958279e-002
3.822382e+003;4.997730e-002
3.824311e+003;5.078396e-002
3.826239e+003;5.101013e-002
3.828168e+003;5.146801e-002
3.830096e+003;5.120771e-002
3.832025e+003;5.049378e-002
3.833953e+003;4.995871e-002
3.835882e+003;4.882343e-002
3.837811e+003;4.874906e-002
3.839739e+003;5.012762e-002
3.841667e+003;5.055240e-002
3.843596e+003;5.092950e-002
3.845525e+003;5.178132e-002
3.847453e+003;5.168013e-002
3.849382e+003;5.101609e-002
3.851310e+003;4.874172e-002
3.853239e+003;4.696495e-002
3.855167e+003;4.919417e-002
3.857096e+003;5.129619e-002
3.859024e+003;5.095230e-002
3.860953e+003;5.043795e-002
3.862882e+003;5.049921e-002
3.864810e+003;5.037842e-002
3.866739e+003;5.035103e-002
3.868667e+003;4.989459e-002
3.870596e+003;5.069540e-002
3.872524e+003;5.169185e-002
3.874453e+003;5.194847e-002
3.876381e+003;5.220880e-002
3.878310e+003;5.159792e-002
3.880239e+003;5.122482e-002
3.882167e+003;5.216508e-002
3.884096e+003;5.204651e-002
3.886024e+003;5.166274e-002
3.887953e+003;5.189160e-002
3.889881e+003;5.086345e-002
3.891810e+003;5.123840e-002
3.893738e+003;5.261053e-002
3.895667e+003;5.289308e-002
3.897595e+003;5.250470e-002
3.899524e+003;5.177392e-002
3.901453e+003;5.160601e-002
3.903381e+003;5.176037e-002
3.905310e+003;5.260155e-002
3.907238e+003;5.342364e-002
3.909167e+003;5.349870e-002
3.911095e+003;5.368681e-002
3.913024e+003;5.366506e-002
3.914952e+003;5.319034e-002
3.916881e+003;5.268941e-002
3.918810e+003;5.259579e-002
3.920738e+003;5.281595e-002
3.922667e+003;5.356377e-002
3.924595e+003;5.369820e-002
3.926524e+003;5.330963e-002
3.928452e+003;5.346449e-002
3.930381e+003;5.370124e-002
3.932309e+003;5.379008e-002
3.934238e+003;5.371680e-002
3.936167e+003;5.360478e-002
3.938095e+003;5.423363e-002
3.940023e+003;5.444980e-002
3.941952e+003;5.412072e-002
3.943881e+003;5.390560e-002
3.945809e+003;5.341952e-002
3.947738e+003;5.296119e-002
3.949666e+003;5.335339e-002
3.951595e+003;5.396900e-002
3.953523e+003;5.386183e-002
3.955452e+003;5.349428e-002
3.957380e+003;5.325052e-002
3.959309e+003;5.333885e-002
3.961238e+003;5.375483e-002
3.963166e+003;5.411689e-002
3.965095e+003;5.413415e-002
3.967023e+003;5.368092e-002
3.968952e+003;5.362277e-002
3.970880e+003;5.410364e-002
3.972809e+003;5.431029e-002
3.974737e+003;5.381854e-002
3.976666e+003;5.314974e-002
3.978594e+003;5.296149e-002
3.980523e+003;5.323105e-002
3.982452e+003;5.330866e-002
3.984380e+003;5.296917e-002
3.986309e+003;5.311364e-002
3.988237e+003;5.335605e-002
3.990166e+003;5.314098e-002
3.992094e+003;5.323760e-002
3.994023e+003;5.332121e-002
3.995951e+003;5.298343e-002
3.997880e+003;5.308013e-002
3.999809e+003;5.327775e-002
4.001737e+003;0.000000e+000
