3.992094e+002;0.000000e+000
4.011380e+002;0.000000e+000
4.030665e+002;0.000000e+000
4.049951e+002;0.000000e+000
4.069236e+002;0.000000e+000
4.088522e+002;0.000000e+000
4.107807e+002;0.000000e+000
4.127093e+002;0.000000e+000
4.146378e+002;0.000000e+000
4.165664e+002;0.000000e+000
4.184949e+002;0.000000e+000
4.204235e+002;0.000000e+000
4.223520e+002;0.000000e+000
4.242806e+002;0.000000e+000
4.262091e+002;0.000000e+000
4.281377e+002;0.000000e+000
4.300662e+002;0.000000e+000
4.319948e+002;0.000000e+000
4.339233e+002;0.000000e+000
4.358519e+002;0.000000e+000
4.377804e+002;0.000000e+000
4.397090e+002;0.000000e+000
4.416375e+002;0.000000e+000
4.435660e+002;0.000000e+000
4.454946e+002;0.000000e+000
4.474232e+002;0.000000e+000
4.493517e+002;0.000000e+000
4.512802e+002;0.000000e+000
4.532088e+002;0.000000e+000
4.551373e+002;0.000000e+000
4.570659e+002;0.000000e+000
4.589944e+002;0.000000e+000
4.609230e+002;0.000000e+000
4.628515e+002;0.000000e+000
4.647801e+002;0.000000e+000
4.667086e+002;0.000000e+000
4.686372e+002;0.000000e+000
4.705657e+002;0.000000e+000
4.724943e+002;0.000000e+000
4.744228e+002;0.000000e+000
4.763513e+002;0.000000e+000
4.782799e+002;0.000000e+000
4.802085e+002;0.000000e+000
4.821370e+002;0.000000e+000
4.840656e+002;0.000000e+000
4.859941e+002;0.000000e+000
4.879226e+002;0.000000e+000
4.898512e+002;0.000000e+000
4.917798e+002;0.000000e+000
4.937083e+002;0.000000e+000
4.956368e+002;0.000000e+000
4.975654e+002;0.000000e+000
4.994939e+002;0.000000e+000
5.014225e+002;0.000000e+000
5.033510e+002;0.000000e+000
5.052796e+002;0.000000e+000
5.072081e+002;0.000000e+000
5.091367e+002;0.000000e+000
5.110652e+002;0.000000e+000
5.129938e+002;0.000000e+000
5.149223e+002;0.000000e+000
5.168509e+002;0.000000e+000
5.187794e+002;0.000000e+000
5.207079e+002;0.000000e+000
5.226365e+002;0.000000e+000
5.245651e+002;0.000000e+000
5.264936e+002;0.000000e+000
5.284222e+002;0.000000e+000
5.303507e+002;0.000000e+000
5.322792e+002;0.000000e+000
5.342078e+002;0.000000e+000
5.361364e+002;0.000000e+000
5.380649e+002;0.000000e+000
5.399935e+002;0.000000e+000
5.419220e+002;0.000000e+000
5.438505e+002;0.000000e+000
5.457791e+002;0.000000e+000
5.477076e+002;0.000000e+000
5.496362e+002;0.000000e+000
5.515648e+002;0.000000e+000
5.534933e+002;0.000000e+000
5.554218e+002;0.000000e+000
5.573504e+002;0.000000e+000
5.592789e+002;0.000000e+000
5.612075e+002;0.000000e+000
5.631360e+002;0.000000e+000
5.650646e+002;0.000000e+000
5.669931e+002;0.000000e+000
5.689217e+002;0.000000e+000
5.708502e+002;0.000000e+000
5.727787e+002;0.000000e+000
5.747073e+002;0.000000e+000
5.766359e+002;0.000000e+000
5.785644e+002;0.000000e+000
5.804930e+002;0.000000e+000
5.824215e+002;0.000000e+000
5.843500e+002;0.000000e+000
5.862786e+002;0.000000e+000
5.882072e+002;0.000000e+000
5.901357e+002;0.000000e+000
5.920643e+002;0.000000e+000
5.939928e+002;0.000000e+000
5.959213e+002;0.000000e+000
5.978499e+002;0.000000e+000
5.997784e+002;2.279059e-001
6.017070e+002;2.184417e-001
6.036355e+002;2.125342e-001
6.055641e+002;2.089032e-001
6.074926e+002;2.124777e-001
6.094211e+002;2.188599e-001
6.113497e+002;2.164034e-001
6.132783e+002;2.127831e-001
6.152068e+002;2.134597e-001
6.171354e+002;2.141160e-001
6.190639e+002;2.156862e-001
6.209924e+002;2.176244e-001
6.229210e+002;2.172807e-001
6.248495e+002;2.127712e-001
6.267781e+002;2.079450e-001
6.287067e+002;2.079390e-001
6.306352e+002;2.104285e-001
6.325637e+002;2.102552e-001
6.344923e+002;2.079168e-001
6.364208e+002;2.086305e-001
6.383494e+002;2.097746e-001
6.402780e+002;2.074617e-001
6.422065e+002;2.054749e-001
6.441350e+002;2.054866e-001
6.460636e+002;2.045466e-001
6.479921e+002;2.042201e-001
6.499207e+002;2.002751e-001
6.518492e+002;1.992248e-001
6.537778e+002;1.990251e-001
6.557063e+002;1.974432e-001
6.576349e+002;1.979642e-001
6.595634e+002;1.998018e-001
6.614919e+002;2.012711e-001
6.634205e+002;1.996423e-001
6.653491e+002;1.987536e-001
6.672776e+002;1.995226e-001
6.692062e+002;1.961593e-001
6.711347e+002;1.915959e-001
6.730632e+002;1.905340e-001
6.749918e+002;1.893409e-001
6.769203e+002;1.880797e-001
6.788489e+002;1.878137e-001
6.807775e+002;1.885761e-001
6.827060e+002;1.880620e-001
6.846345e+002;1.873190e-001
6.865631e+002;1.866455e-001
6.884916e+002;1.852726e-001
6.904202e+002;1.842023e-001
6.923488e+002;1.842112e-001
6.942773e+002;1.835279e-001
6.962058e+002;1.830370e-001
6.981344e+002;1.827310e-001
7.000629e+002;1.821048e-001
7.019915e+002;1.812957e-001
7.039200e+002;1.786325e-001
7.058486e+002;1.755089e-001
7.077771e+002;1.729552e-001
7.097057e+002;1.711500e-001
7.116342e+002;1.694518e-001
7.135627e+002;1.663696e-001
7.154913e+002;1.641114e-001
7.174199e+002;1.630390e-001
7.193484e+002;1.615660e-001
7.212770e+002;1.606074e-001
7.232055e+002;1.591735e-001
7.251340e+002;1.572441e-001
7.270626e+002;1.562494e-001
7.289911e+002;1.555065e-001
7.309197e+002;1.546732e-001
7.328483e+002;1.542717e-001
7.347768e+002;1.540786e-001
7.367053e+002;1.531499e-001
7.386339e+002;1.517785e-001
7.405624e+002;1.512451e-001
7.424910e+002;1.508848e-001
7.444196e+002;1.502771e-001
7.463481e+002;1.499243e-001
7.482766e+002;1.483665e-001
7.502052e+002;1.465252e-001
7.521337e+002;1.455806e-001
7.540623e+002;1.440108e-001
7.559908e+002;1.420500e-001
7.579194e+002;1.413229e-001
7.598479e+002;1.402566e-001
7.617765e+002;1.389104e-001
7.637050e+002;1.378411e-001
7.656335e+002;1.371820e-001
7.675621e+002;1.364278e-001
7.694907e+002;1.349785e-001
7.714192e+002;1.342409e-001
7.733478e+002;1.335987e-001
7.752763e+002;1.327173e-001
7.772048e+002;1.311988e-001
7.791334e+002;1.299042e-001
7.810620e+002;1.292952e-001
7.829905e+002;1.287342e-001
7.849191e+002;1.281416e-001
7.868476e+002;1.273867e-001
7.887761e+002;1.263283e-001
7.907047e+002;1.252978e-001
7.926332e+002;1.243784e-001
7.945618e+002;1.229469e-001
7.964903e+002;1.222353e-001
7.984189e+002;1.221137e-001
8.003474e+002;1.220483e-001
8.022759e+002;1.216606e-001
8.042045e+002;1.213176e-001
8.061331e+002;1.204678e-001
8.080616e+002;1.192474e-001
8.099902e+002;1.189106e-001
8.119187e+002;1.182918e-001
8.138472e+002;1.171072e-001
8.157758e+002;1.167520e-001
8.177043e+002;1.164166e-001
8.196329e+002;1.157362e-001
8.215615e+002;1.155931e-001
8.234900e+002;1.153825e-001
8.254185e+002;1.149726e-001
8.273471e+002;1.148891e-001
8.292756e+002;1.146004e-001
8.312042e+002;1.144012e-001
8.331328e+002;1.137472e-001
8.350613e+002;1.130220e-001
8.369898e+002;1.126750e-001
8.389184e+002;1.114977e-001
8.408469e+002;1.107453e-001
8.427755e+002;1.103378e-001
8.447040e+002;1.098997e-001
8.466326e+002;1.096914e-001
8.485611e+002;1.097148e-001
8.504897e+002;1.092831e-001
8.524182e+002;1.078939e-001
8.543467e+002;1.069650e-001
8.562753e+002;1.066291e-001
8.582039e+002;1.063751e-001
8.601324e+002;1.057028e-001
8.620610e+002;1.050670e-001
8.639895e+002;1.050227e-001
8.659180e+002;1.047823e-001
8.678466e+002;1.044791e-001
8.697751e+002;1.045083e-001
8.717037e+002;1.045719e-001
8.736323e+002;1.049795e-001
8.755608e+002;1.050940e-001
8.774893e+002;1.047468e-001
8.794179e+002;1.046309e-001
8.813464e+002;1.045775e-001
8.832750e+002;1.042086e-001
8.852036e+002;1.037749e-001
8.871321e+002;1.033423e-001
8.890606e+002;1.029565e-001
8.909892e+002;1.029090e-001
8.929177e+002;1.027354e-001
8.948463e+002;1.022192e-001
8.967748e+002;1.019565e-001
8.987034e+002;1.015580e-001
9.006319e+002;1.015767e-001
9.025605e+002;1.016222e-001
9.044890e+002;1.014320e-001
9.064175e+002;1.017080e-001
9.083461e+002;1.019225e-001
9.102747e+002;1.019106e-001
9.122032e+002;1.022301e-001
9.141318e+002;1.024305e-001
9.160603e+002;1.023304e-001
9.179888e+002;1.026217e-001
9.199174e+002;1.033473e-001
9.218459e+002;1.036651e-001
9.237745e+002;1.039050e-001
9.257031e+002;1.040787e-001
9.276316e+002;1.039868e-001
9.295601e+002;1.042538e-001
9.314887e+002;1.044261e-001
9.334172e+002;1.041310e-001
9.353458e+002;1.037777e-001
9.372744e+002;1.031329e-001
9.392029e+002;1.026193e-001
9.411314e+002;1.022938e-001
9.430600e+002;1.018244e-001
9.449885e+002;1.016434e-001
9.469171e+002;1.016725e-001
9.488456e+002;1.015517e-001
9.507742e+002;1.015772e-001
9.527027e+002;1.017089e-001
9.546313e+002;1.019394e-001
9.565598e+002;1.020419e-001
9.584883e+002;1.020968e-001
9.604169e+002;1.024450e-001
9.623455e+002;1.028335e-001
9.642740e+002;1.029486e-001
9.662026e+002;1.031916e-001
9.681311e+002;1.036849e-001
9.700596e+002;1.038930e-001
9.719882e+002;1.040214e-001
9.739167e+002;1.045805e-001
9.758453e+002;1.053191e-001
9.777739e+002;1.057548e-001
9.797024e+002;1.061215e-001
9.816309e+002;1.065070e-001
9.835595e+002;1.068870e-001
9.854880e+002;1.075689e-001
9.874166e+002;1.080568e-001
9.893452e+002;1.082706e-001
9.912737e+002;1.083353e-001
9.932022e+002;1.085905e-001
9.951307e+002;1.092518e-001
9.970593e+002;1.098549e-001
9.989879e+002;1.104756e-001
1.000916e+003;1.114686e-001
1.002845e+003;1.120876e-001
1.004773e+003;1.127214e-001
1.006702e+003;1.137378e-001
1.008631e+003;1.146391e-001
1.010559e+003;1.157858e-001
1.012488e+003;1.171198e-001
1.014416e+003;1.185658e-001
1.016345e+003;1.197347e-001
1.018273e+003;1.207444e-001
1.020202e+003;1.218171e-001
1.022130e+003;1.231984e-001
1.024059e+003;1.244609e-001
1.025988e+003;1.256436e-001
1.027916e+003;1.275323e-001
1.029845e+003;1.293505e-001
1.031773e+003;1.315780e-001
1.033702e+003;1.343511e-001
1.035630e+003;1.368333e-001
1.037559e+003;1.386420e-001
1.039487e+003;1.395745e-001
1.041416e+003;1.394068e-001
1.043344e+003;1.386904e-001
1.045273e+003;1.372689e-001
1.047202e+003;1.357359e-001
1.049130e+003;1.347807e-001
1.051059e+003;1.341733e-001
1.052987e+003;1.341066e-001
1.054916e+003;1.343046e-001
1.056844e+003;1.346039e-001
1.058773e+003;1.350984e-001
1.060701e+003;1.353095e-001
1.062630e+003;1.355023e-001
1.064558e+003;1.362744e-001
1.066487e+003;1.367508e-001
1.068416e+003;1.370942e-001
1.070344e+003;1.376952e-001
1.072273e+003;1.380771e-001
1.074201e+003;1.381686e-001
1.076130e+003;1.380828e-001
1.078058e+003;1.380146e-001
1.079987e+003;1.380372e-001
1.081915e+003;1.377965e-001
1.083844e+003;1.367655e-001
1.085773e+003;1.354751e-001
1.087701e+003;1.345844e-001
1.089630e+003;1.340393e-001
1.091558e+003;1.338987e-001
1.093487e+003;1.334354e-001
1.095415e+003;1.327636e-001
1.097344e+003;1.325975e-001
1.099272e+003;1.325040e-001
1.101201e+003;1.325078e-001
1.103129e+003;1.325101e-001
1.105058e+003;1.326534e-001
1.106987e+003;1.329188e-001
1.108915e+003;1.328973e-001
1.110844e+003;1.327474e-001
1.112772e+003;1.324766e-001
1.114701e+003;1.321562e-001
1.116629e+003;1.321170e-001
1.118558e+003;1.322022e-001
1.120486e+003;1.326194e-001
1.122415e+003;1.327563e-001
1.124344e+003;1.323312e-001
1.126272e+003;1.324338e-001
1.128201e+003;1.327670e-001
1.130129e+003;1.329578e-001
1.132058e+003;1.330345e-001
1.133986e+003;1.326364e-001
1.135915e+003;1.324821e-001
1.137843e+003;1.332130e-001
1.139772e+003;1.339635e-001
1.141700e+003;1.349107e-001
1.143629e+003;1.359273e-001
1.145557e+003;1.369047e-001
1.147486e+003;1.380470e-001
1.149415e+003;1.396629e-001
1.151343e+003;1.413041e-001
1.153272e+003;1.425926e-001
1.155200e+003;1.435769e-001
1.157129e+003;1.446368e-001
1.159057e+003;1.460526e-001
1.160986e+003;1.469141e-001
1.162914e+003;1.474859e-001
1.164843e+003;1.482320e-001
1.166771e+003;1.492357e-001
1.168700e+003;1.505933e-001
1.170629e+003;1.516503e-001
1.172557e+003;1.521971e-001
1.174486e+003;1.524884e-001
1.176414e+003;1.523125e-001
1.178343e+003;1.524688e-001
1.180271e+003;1.524746e-001
1.182200e+003;1.530130e-001
1.184128e+003;1.539108e-001
1.186057e+003;1.545124e-001
1.187986e+003;1.551557e-001
1.189914e+003;1.557460e-001
1.191843e+003;1.561330e-001
1.193771e+003;1.567771e-001
1.195700e+003;1.579403e-001
1.197628e+003;1.591570e-001
1.199557e+003;1.600559e-001
1.201485e+003;1.609352e-001
1.203414e+003;1.618772e-001
1.205343e+003;1.629197e-001
1.207271e+003;1.641289e-001
1.209200e+003;1.655054e-001
1.211128e+003;1.670358e-001
1.213057e+003;1.686185e-001
1.214985e+003;1.702032e-001
1.216914e+003;1.719072e-001
1.218842e+003;1.735588e-001
1.220771e+003;1.749986e-001
1.222699e+003;1.763853e-001
1.224628e+003;1.773820e-001
1.226557e+003;1.783068e-001
1.228485e+003;1.795142e-001
1.230414e+003;1.800224e-001
1.232342e+003;1.801892e-001
1.234271e+003;1.801658e-001
1.236199e+003;1.798630e-001
1.238128e+003;1.797379e-001
1.240056e+003;1.794525e-001
1.241985e+003;1.786294e-001
1.243913e+003;1.774822e-001
1.245842e+003;1.763705e-001
1.247771e+003;1.751442e-001
1.249699e+003;1.739057e-001
1.251628e+003;1.726746e-001
1.253556e+003;1.715981e-001
1.255485e+003;1.707089e-001
1.257413e+003;1.698756e-001
1.259342e+003;1.688396e-001
1.261270e+003;1.674228e-001
1.263199e+003;1.660590e-001
1.265127e+003;1.650618e-001
1.267056e+003;1.640517e-001
1.268985e+003;1.627664e-001
1.270913e+003;1.619006e-001
1.272842e+003;1.611586e-001
1.274770e+003;1.603703e-001
1.276699e+003;1.595910e-001
1.278627e+003;1.589530e-001
1.280556e+003;1.584677e-001
1.282484e+003;1.577998e-001
1.284413e+003;1.569995e-001
1.286342e+003;1.562187e-001
1.288270e+003;1.556737e-001
1.290199e+003;1.553125e-001
1.292127e+003;1.548898e-001
1.294056e+003;1.544880e-001
1.295984e+003;1.543204e-001
1.297913e+003;1.544500e-001
1.299841e+003;1.544639e-001
1.301770e+003;1.541154e-001
1.303698e+003;1.536856e-001
1.305627e+003;1.531322e-001
1.307556e+003;1.525828e-001
1.309484e+003;1.520747e-001
1.311413e+003;1.515930e-001
1.313341e+003;1.506641e-001
1.315270e+003;1.496115e-001
1.317198e+003;1.486725e-001
1.319127e+003;1.476727e-001
1.321055e+003;1.467309e-001
1.322984e+003;1.458582e-001
1.324912e+003;1.452508e-001
1.326841e+003;1.448786e-001
1.328770e+003;1.444415e-001
1.330698e+003;1.442363e-001
1.332627e+003;1.441567e-001
1.334555e+003;1.439653e-001
1.336484e+003;1.437335e-001
1.338412e+003;1.433166e-001
1.340341e+003;1.431730e-001
1.342269e+003;1.433645e-001
1.344198e+003;1.431692e-001
1.346126e+003;1.426612e-001
1.348055e+003;1.422526e-001
1.349984e+003;1.420503e-001
1.351912e+003;1.418920e-001
1.353841e+003;1.418281e-001
1.355769e+003;1.419718e-001
1.357698e+003;1.421276e-001
1.359626e+003;1.425939e-001
1.361555e+003;1.435559e-001
1.363483e+003;1.450967e-001
1.365412e+003;1.470262e-001
1.367341e+003;1.486969e-001
1.369269e+003;1.497662e-001
1.371198e+003;1.506080e-001
1.373126e+003;1.515880e-001
1.375055e+003;1.527992e-001
1.376983e+003;1.543017e-001
1.378912e+003;1.559708e-001
1.380840e+003;1.576960e-001
1.382769e+003;1.594875e-001
1.384698e+003;1.610810e-001
1.386626e+003;1.619351e-001
1.388555e+003;1.624019e-001
1.390483e+003;1.626064e-001
1.392412e+003;1.621671e-001
1.394340e+003;1.613293e-001
1.396269e+003;1.605445e-001
1.398197e+003;1.597262e-001
1.400126e+003;1.590052e-001
1.402054e+003;1.584626e-001
1.403983e+003;1.576621e-001
1.405911e+003;1.567290e-001
1.407840e+003;1.558261e-001
1.409769e+003;1.551365e-001
1.411697e+003;1.545145e-001
1.413626e+003;1.538183e-001
1.415554e+003;1.532926e-001
1.417483e+003;1.526543e-001
1.419411e+003;1.522488e-001
1.421340e+003;1.527915e-001
1.423268e+003;1.535587e-001
1.425197e+003;1.541462e-001
1.427125e+003;1.550172e-001
1.429054e+003;1.563153e-001
1.430983e+003;1.583582e-001
1.432911e+003;1.608248e-001
1.434840e+003;1.626227e-001
1.436768e+003;1.642260e-001
1.438697e+003;1.665085e-001
1.440625e+003;1.685050e-001
1.442554e+003;1.697987e-001
1.444482e+003;1.704561e-001
1.446411e+003;1.708236e-001
1.448340e+003;1.709748e-001
1.450268e+003;1.710314e-001
1.452197e+003;1.707266e-001
1.454125e+003;1.695348e-001
1.456054e+003;1.669721e-001
1.457982e+003;1.653445e-001
1.459911e+003;1.649686e-001
1.461839e+003;1.643646e-001
1.463768e+003;1.633849e-001
1.465697e+003;1.628803e-001
1.467625e+003;1.627561e-001
1.469554e+003;1.620733e-001
1.471482e+003;1.606883e-001
1.473411e+003;1.599485e-001
1.475339e+003;1.603441e-001
1.477268e+003;1.616977e-001
1.479196e+003;1.642343e-001
1.481125e+003;1.674205e-001
1.483053e+003;1.715341e-001
1.484982e+003;1.768587e-001
1.486911e+003;1.830311e-001
1.488839e+003;1.898824e-001
1.490768e+003;1.974162e-001
1.492696e+003;2.052220e-001
1.494625e+003;2.122133e-001
1.496553e+003;2.188905e-001
1.498482e+003;2.256843e-001
1.500410e+003;2.321661e-001
1.502339e+003;2.379509e-001
1.504267e+003;2.424024e-001
1.506196e+003;2.463315e-001
1.508125e+003;2.513938e-001
1.510053e+003;2.560610e-001
1.511982e+003;2.593331e-001
1.513910e+003;2.613781e-001
1.515839e+003;2.612713e-001
1.517767e+003;2.595471e-001
1.519696e+003;2.570709e-001
1.521624e+003;2.548148e-001
1.523553e+003;2.538151e-001
1.525481e+003;2.525265e-001
1.527410e+003;2.511313e-001
1.529339e+003;2.498684e-001
1.531267e+003;2.479675e-001
1.533196e+003;2.453194e-001
1.535124e+003;2.428611e-001
1.537053e+003;2.392699e-001
1.538981e+003;2.338531e-001
1.540910e+003;2.290185e-001
1.542838e+003;2.250462e-001
1.544767e+003;2.206914e-001
1.546695e+003;2.156143e-001
1.548624e+003;2.097091e-001
1.550553e+003;2.035543e-001
1.552481e+003;1.972727e-001
1.554410e+003;1.907901e-001
1.556338e+003;1.845679e-001
1.558267e+003;1.782831e-001
1.560195e+003;1.741711e-001
1.562124e+003;1.715608e-001
1.564052e+003;1.682950e-001
1.565981e+003;1.651284e-001
1.567910e+003;1.619035e-001
1.569838e+003;1.594092e-001
1.571767e+003;1.580406e-001
1.573695e+003;1.562293e-001
1.575624e+003;1.540020e-001
1.577552e+003;1.535501e-001
1.579481e+003;1.538685e-001
1.581409e+003;1.537197e-001
1.583338e+003;1.540021e-001
1.585266e+003;1.545864e-001
1.587195e+003;1.554026e-001
1.589124e+003;1.569224e-001
1.591052e+003;1.591391e-001
1.592981e+003;1.615369e-001
1.594909e+003;1.644414e-001
1.596838e+003;1.679017e-001
1.598766e+003;1.718111e-001
1.600695e+003;1.761456e-001
1.602623e+003;1.812329e-001
1.604552e+003;1.871507e-001
1.606480e+003;1.935977e-001
1.608409e+003;2.006855e-001
1.610338e+003;2.084903e-001
1.612266e+003;2.162708e-001
1.614195e+003;2.234000e-001
1.616123e+003;2.300415e-001
1.618052e+003;2.376036e-001
1.619980e+003;2.455724e-001
1.621909e+003;2.529486e-001
1.623837e+003;2.601840e-001
1.625766e+003;2.668111e-001
1.627694e+003;2.725485e-001
1.629623e+003;2.775504e-001
1.631552e+003;2.812537e-001
1.633480e+003;2.833077e-001
1.635409e+003;2.842487e-001
1.637337e+003;2.860024e-001
1.639266e+003;2.874874e-001
1.641194e+003;2.875123e-001
1.643123e+003;2.858237e-001
1.645051e+003;2.828968e-001
1.646980e+003;2.801226e-001
1.648909e+003;2.769525e-001
1.650837e+003;2.711419e-001
1.652766e+003;2.634205e-001
1.654694e+003;2.577718e-001
1.656623e+003;2.522026e-001
1.658551e+003;2.448604e-001
1.660480e+003;2.367280e-001
1.662408e+003;2.286916e-001
1.664337e+003;2.214198e-001
1.666266e+003;2.140249e-001
1.668194e+003;2.061853e-001
1.670123e+003;1.989610e-001
1.672051e+003;1.924265e-001
1.673980e+003;1.852470e-001
1.675908e+003;1.783837e-001
1.677837e+003;1.724834e-001
1.679765e+003;1.661306e-001
1.681694e+003;1.591594e-001
1.683622e+003;1.514203e-001
1.685551e+003;1.452061e-001
1.687479e+003;1.400792e-001
1.689408e+003;1.339107e-001
1.691337e+003;1.275372e-001
1.693265e+003;1.207054e-001
1.695194e+003;1.128663e-001
1.697122e+003;1.060313e-001
1.699051e+003;9.917387e-002
1.700979e+003;9.251650e-002
1.702908e+003;8.751126e-002
1.704836e+003;8.223508e-002
1.706765e+003;7.745709e-002
1.708693e+003;7.338106e-002
1.710622e+003;6.994607e-002
1.712551e+003;6.656379e-002
1.714479e+003;6.328876e-002
1.716408e+003;6.024103e-002
1.718336e+003;5.863090e-002
1.720265e+003;5.839508e-002
1.722193e+003;5.777790e-002
1.724122e+003;5.666773e-002
1.726050e+003;5.574176e-002
1.727979e+003;5.465933e-002
1.729908e+003;5.352891e-002
1.731836e+003;5.212683e-002
1.733765e+003;5.087489e-002
1.735693e+003;5.095435e-002
1.737622e+003;5.076262e-002
1.739550e+003;5.000462e-002
1.741479e+003;4.976597e-002
1.743407e+003;4.935164e-002
1.745336e+003;4.878369e-002
1.747265e+003;4.823087e-002
1.749193e+003;4.784808e-002
1.751122e+003;4.770764e-002
1.753050e+003;4.815250e-002
1.754979e+003;4.842756e-002
1.756907e+003;4.831422e-002
1.758836e+003;4.823276e-002
1.760764e+003;4.821106e-002
1.762693e+003;4.829008e-002
1.764621e+003;4.855008e-002
1.766550e+003;4.851558e-002
1.768479e+003;4.826649e-002
1.770407e+003;4.783066e-002
1.772336e+003;4.749213e-002
1.774264e+003;4.794542e-002
1.776193e+003;4.847746e-002
1.778121e+003;4.850839e-002
1.780050e+003;4.833285e-002
1.781978e+003;4.825053e-002
1.783907e+003;4.821910e-002
1.785835e+003;4.823942e-002
1.787764e+003;4.822176e-002
1.789693e+003;4.791486e-002
1.791621e+003;4.762389e-002
1.793550e+003;4.779714e-002
1.795478e+003;4.825986e-002
1.797407e+003;4.818255e-002
1.799335e+003;4.805970e-002
1.801264e+003;4.817056e-002
1.803192e+003;4.837811e-002
1.805121e+003;4.838763e-002
1.807049e+003;4.809989e-002
1.808978e+003;4.800803e-002
1.810907e+003;4.818951e-002
1.812835e+003;4.833789e-002
1.814764e+003;4.834855e-002
1.816692e+003;4.840259e-002
1.818621e+003;4.838463e-002
1.820549e+003;4.831711e-002
1.822478e+003;4.837693e-002
1.824406e+003;4.834011e-002
1.826335e+003;4.842567e-002
1.828264e+003;4.838563e-002
1.830192e+003;4.828789e-002
1.832121e+003;4.848820e-002
1.834049e+003;4.862919e-002
1.835978e+003;4.855801e-002
1.837906e+003;4.852985e-002
1.839835e+003;4.858328e-002
1.841763e+003;4.829530e-002
1.843692e+003;4.781050e-002
1.845620e+003;4.806699e-002
1.847549e+003;4.843204e-002
1.849478e+003;4.855249e-002
1.851406e+003;4.865539e-002
1.853335e+003;4.878232e-002
1.855263e+003;4.864179e-002
1.857192e+003;4.849650e-002
1.859120e+003;4.849291e-002
1.861049e+003;4.849268e-002
1.862977e+003;4.865028e-002
1.864906e+003;4.863386e-002
1.866834e+003;4.831196e-002
1.868763e+003;4.823961e-002
1.870692e+003;4.861040e-002
1.872620e+003;4.886692e-002
1.874549e+003;4.887163e-002
1.876477e+003;4.893534e-002
1.878406e+003;4.895355e-002
1.880334e+003;4.897918e-002
1.882263e+003;4.896000e-002
1.884191e+003;4.906783e-002
1.886120e+003;4.920871e-002
1.888048e+003;4.901594e-002
1.889977e+003;4.887627e-002
1.891906e+003;4.910693e-002
1.893834e+003;4.912942e-002
1.895763e+003;4.902799e-002
1.897691e+003;4.912652e-002
1.899620e+003;4.896234e-002
1.901548e+003;4.893620e-002
1.903477e+003;4.925833e-002
1.905405e+003;4.939694e-002
1.907334e+003;4.906078e-002
1.909262e+003;4.889333e-002
1.911191e+003;4.909043e-002
1.913120e+003;4.928479e-002
1.915048e+003;4.922193e-002
1.916977e+003;4.901787e-002
1.918905e+003;4.907989e-002
1.920834e+003;4.909926e-002
1.922762e+003;4.900807e-002
1.924691e+003;4.916289e-002
1.926619e+003;4.911176e-002
1.928548e+003;4.886981e-002
1.930477e+003;4.898218e-002
1.932405e+003;4.912764e-002
1.934334e+003;4.919799e-002
1.936262e+003;4.931460e-002
1.938191e+003;4.945775e-002
1.940119e+003;4.942923e-002
1.942048e+003;4.919335e-002
1.943976e+003;4.934897e-002
1.945905e+003;4.962844e-002
1.947833e+003;4.960893e-002
1.949762e+003;4.963048e-002
1.951691e+003;4.969363e-002
1.953619e+003;4.954587e-002
1.955548e+003;4.948775e-002
1.957476e+003;4.962112e-002
1.959405e+003;4.965340e-002
1.961333e+003;4.970645e-002
1.963262e+003;4.988600e-002
1.965190e+003;4.993157e-002
1.967119e+003;4.972317e-002
1.969047e+003;4.961443e-002
1.970976e+003;4.967390e-002
1.972905e+003;4.964162e-002
1.974833e+003;4.966870e-002
1.976762e+003;4.981089e-002
1.978690e+003;4.991366e-002
1.980619e+003;4.985828e-002
1.982547e+003;4.960021e-002
1.984476e+003;4.961009e-002
1.986404e+003;4.994551e-002
1.988333e+003;4.987872e-002
1.990261e+003;4.969014e-002
1.992190e+003;4.980417e-002
1.994119e+003;5.001473e-002
1.996047e+003;5.019553e-002
1.997976e+003;5.025430e-002
1.999904e+003;5.016890e-002
2.001833e+003;5.024255e-002
2.003761e+003;5.045191e-002
2.005690e+003;5.053238e-002
2.007618e+003;5.046174e-002
2.009547e+003;5.023068e-002
2.011476e+003;5.017407e-002
2.013404e+003;5.037953e-002
2.015333e+003;5.027960e-002
2.017261e+003;5.035974e-002
2.019190e+003;5.056629e-002
2.021118e+003;5.059968e-002
2.023047e+003;5.060113e-002
2.024975e+003;5.071451e-002
2.026904e+003;5.084803e-002
2.028833e+003;5.074478e-002
2.030761e+003;5.055732e-002
2.032690e+003;5.063203e-002
2.034618e+003;5.083365e-002
2.036547e+003;5.089619e-002
2.038475e+003;5.097533e-002
2.040404e+003;5.088435e-002
2.042332e+003;5.076992e-002
2.044261e+003;5.083968e-002
2.046189e+003;5.071622e-002
2.048118e+003;5.070982e-002
2.050047e+003;5.094310e-002
2.051975e+003;5.119235e-002
2.053904e+003;5.114068e-002
2.055832e+003;5.095566e-002
2.057761e+003;5.104930e-002
2.059689e+003;5.108716e-002
2.061618e+003;5.107702e-002
2.063546e+003;5.121230e-002
2.065475e+003;5.139218e-002
2.067404e+003;5.148517e-002
2.069332e+003;5.148073e-002
2.071260e+003;5.144033e-002
2.073189e+003;5.154941e-002
2.075118e+003;5.159527e-002
2.077046e+003;5.156553e-002
2.078975e+003;5.172518e-002
2.080903e+003;5.192763e-002
2.082832e+003;5.181032e-002
2.084760e+003;5.155836e-002
2.086689e+003;5.144368e-002
2.088617e+003;5.148095e-002
2.090546e+003;5.160523e-002
2.092475e+003;5.178624e-002
2.094403e+003;5.191289e-002
2.096332e+003;5.193843e-002
2.098260e+003;5.188507e-002
2.100189e+003;5.182365e-002
2.102117e+003;5.177482e-002
2.104046e+003;5.178975e-002
2.105974e+003;5.168961e-002
2.107903e+003;5.161874e-002
2.109832e+003;5.170543e-002
2.111760e+003;5.188159e-002
2.113688e+003;5.200972e-002
2.115617e+003;5.188522e-002
2.117546e+003;5.164378e-002
2.119474e+003;5.149654e-002
2.121403e+003;5.172521e-002
2.123331e+003;5.191546e-002
2.125260e+003;5.188234e-002
2.127188e+003;5.167811e-002
2.129117e+003;5.145801e-002
2.131045e+003;5.159448e-002
2.132974e+003;5.171588e-002
2.134903e+003;5.172932e-002
2.136831e+003;5.153732e-002
2.138760e+003;5.136115e-002
2.140688e+003;5.159273e-002
2.142617e+003;5.174533e-002
2.144545e+003;5.158680e-002
2.146474e+003;5.149173e-002
2.148402e+003;5.142444e-002
2.150331e+003;5.142899e-002
2.152260e+003;5.146749e-002
2.154188e+003;5.156896e-002
2.156117e+003;5.170069e-002
2.158045e+003;5.177609e-002
2.159974e+003;5.170875e-002
2.161902e+003;5.152579e-002
2.163831e+003;5.143585e-002
2.165759e+003;5.143097e-002
2.167688e+003;5.155616e-002
2.169616e+003;5.168841e-002
2.171545e+003;5.170931e-002
2.173474e+003;5.168442e-002
2.175402e+003;5.173200e-002
2.177331e+003;5.166677e-002
2.179259e+003;5.153105e-002
2.181188e+003;5.151680e-002
2.183116e+003;5.169867e-002
2.185045e+003;5.182189e-002
2.186973e+003;5.176134e-002
2.188902e+003;5.164262e-002
2.190831e+003;5.155769e-002
2.192759e+003;5.157407e-002
2.194688e+003;5.171771e-002
2.196616e+003;5.177385e-002
2.198545e+003;5.166643e-002
2.200473e+003;5.176810e-002
2.202402e+003;5.194907e-002
2.204330e+003;5.184500e-002
2.206259e+003;5.154392e-002
2.208188e+003;5.160874e-002
2.210116e+003;5.173230e-002
2.212044e+003;5.159594e-002
2.213973e+003;5.152934e-002
2.215902e+003;5.162866e-002
2.217830e+003;5.148326e-002
2.219759e+003;5.108944e-002
2.221687e+003;5.103964e-002
2.223616e+003;5.119694e-002
2.225544e+003;5.118900e-002
2.227473e+003;5.124559e-002
2.229401e+003;5.136842e-002
2.231330e+003;5.133907e-002
2.233259e+003;5.111511e-002
2.235187e+003;5.092473e-002
2.237116e+003;5.093289e-002
2.239044e+003;5.111564e-002
2.240973e+003;5.115850e-002
2.242901e+003;5.117338e-002
2.244830e+003;5.113323e-002
2.246758e+003;5.104933e-002
2.248687e+003;5.103692e-002
2.250615e+003;5.109477e-002
2.252544e+003;5.102548e-002
2.254473e+003;5.103033e-002
2.256401e+003;5.100409e-002
2.258330e+003;5.066029e-002
2.260258e+003;5.052906e-002
2.262187e+003;5.075722e-002
2.264115e+003;5.088800e-002
2.266044e+003;5.080352e-002
2.267972e+003;5.082061e-002
2.269901e+003;5.074665e-002
2.271830e+003;5.072792e-002
2.273758e+003;5.078873e-002
2.275687e+003;5.078017e-002
2.277615e+003;5.090003e-002
2.279544e+003;5.110908e-002
2.281472e+003;5.115015e-002
2.283401e+003;5.088193e-002
2.285329e+003;5.070863e-002
2.287258e+003;5.082281e-002
2.289187e+003;5.087407e-002
2.291115e+003;5.060378e-002
2.293043e+003;5.058308e-002
2.294972e+003;5.073149e-002
2.296901e+003;5.075700e-002
2.298829e+003;5.066901e-002
2.300758e+003;5.044108e-002
2.302686e+003;5.042054e-002
2.304615e+003;5.051689e-002
2.306543e+003;5.054753e-002
2.308472e+003;5.063296e-002
2.310400e+003;5.070322e-002
2.312329e+003;5.064577e-002
2.314258e+003;5.050167e-002
2.316186e+003;5.026063e-002
2.318115e+003;5.002425e-002
2.320043e+003;5.019014e-002
2.321972e+003;5.030508e-002
2.323900e+003;5.021283e-002
2.325829e+003;5.015919e-002
2.327757e+003;5.012963e-002
2.329686e+003;5.006604e-002
2.331615e+003;5.013696e-002
2.333543e+003;5.030367e-002
2.335472e+003;5.044343e-002
2.337400e+003;5.046668e-002
2.339329e+003;5.038162e-002
2.341257e+003;5.030389e-002
2.343186e+003;5.036227e-002
2.345114e+003;5.047785e-002
2.347043e+003;5.060638e-002
2.348971e+003;5.039136e-002
2.350900e+003;5.008456e-002
2.352829e+003;5.024805e-002
2.354757e+003;5.036260e-002
2.356686e+003;5.021383e-002
2.358614e+003;5.017987e-002
2.360543e+003;5.031929e-002
2.362471e+003;5.035505e-002
2.364400e+003;5.038065e-002
2.366328e+003;5.042709e-002
2.368257e+003;5.042199e-002
2.370186e+003;5.031892e-002
2.372114e+003;5.031316e-002
2.374042e+003;5.043859e-002
2.375971e+003;5.052910e-002
2.377900e+003;5.054466e-002
2.379828e+003;5.038984e-002
2.381757e+003;5.027714e-002
2.383685e+003;5.036030e-002
2.385614e+003;5.064659e-002
2.387542e+003;5.066968e-002
2.389471e+003;5.071168e-002
2.391399e+003;5.082024e-002
2.393328e+003;5.075853e-002
2.395257e+003;5.065497e-002
2.397185e+003;5.058285e-002
2.399114e+003;5.046717e-002
2.401042e+003;5.020208e-002
2.402971e+003;5.043818e-002
2.404899e+003;5.093088e-002
2.406828e+003;5.107397e-002
2.408756e+003;5.093423e-002
2.410685e+003;5.081257e-002
2.412614e+003;5.088062e-002
2.414542e+003;5.111668e-002
2.416471e+003;5.130592e-002
2.418399e+003;5.142112e-002
2.420328e+003;5.138248e-002
2.422256e+003;5.133329e-002
2.424185e+003;5.148185e-002
2.426113e+003;5.155139e-002
2.428042e+003;5.140754e-002
2.429970e+003;5.144962e-002
2.431899e+003;5.168464e-002
2.433828e+003;5.165520e-002
2.435756e+003;5.143503e-002
2.437685e+003;5.131677e-002
2.439613e+003;5.152329e-002
2.441542e+003;5.175996e-002
2.443470e+003;5.186371e-002
2.445399e+003;5.191016e-002
2.447327e+003;5.185479e-002
2.449256e+003;5.186976e-002
2.451185e+003;5.190235e-002
2.453113e+003;5.187752e-002
2.455042e+003;5.201618e-002
2.456970e+003;5.220406e-002
2.458899e+003;5.224146e-002
2.460827e+003;5.208768e-002
2.462756e+003;5.185527e-002
2.464684e+003;5.213172e-002
2.466613e+003;5.235415e-002
2.468542e+003;5.238472e-002
2.470470e+003;5.225760e-002
2.472398e+003;5.229371e-002
2.474327e+003;5.262037e-002
2.476256e+003;5.279963e-002
2.478184e+003;5.279477e-002
2.480113e+003;5.268395e-002
2.482041e+003;5.250612e-002
2.483970e+003;5.241736e-002
2.485898e+003;5.273506e-002
2.487827e+003;5.312147e-002
2.489755e+003;5.311319e-002
2.491684e+003;5.301454e-002
2.493613e+003;5.308013e-002
2.495541e+003;5.310619e-002
2.497470e+003;5.303801e-002
2.499398e+003;5.293245e-002
2.501327e+003;5.282133e-002
2.503255e+003;5.287275e-002
2.505184e+003;5.278867e-002
2.507112e+003;5.278377e-002
2.509041e+003;5.320513e-002
2.510969e+003;5.335050e-002
2.512898e+003;5.310076e-002
2.514827e+003;5.312630e-002
2.516755e+003;5.342990e-002
2.518684e+003;5.339367e-002
2.520612e+003;5.326318e-002
2.522541e+003;5.319240e-002
2.524469e+003;5.337130e-002
2.526398e+003;5.350601e-002
2.528326e+003;5.351621e-002
2.530255e+003;5.351980e-002
2.532184e+003;5.333900e-002
2.534112e+003;5.292968e-002
2.536041e+003;5.314146e-002
2.537969e+003;5.358802e-002
2.539898e+003;5.346389e-002
2.541826e+003;5.340390e-002
2.543755e+003;5.362922e-002
2.545683e+003;5.368437e-002
2.547612e+003;5.351362e-002
2.549541e+003;5.357318e-002
2.551469e+003;5.366071e-002
2.553397e+003;5.384056e-002
2.555326e+003;5.394105e-002
2.557255e+003;5.388062e-002
2.559183e+003;5.388141e-002
2.561112e+003;5.385020e-002
2.563040e+003;5.379413e-002
2.564969e+003;5.417424e-002
2.566897e+003;5.441352e-002
2.568826e+003;5.406645e-002
2.570754e+003;5.376075e-002
2.572683e+003;5.393430e-002
2.574612e+003;5.441191e-002
2.576540e+003;5.465602e-002
2.578469e+003;5.446517e-002
2.580397e+003;5.447020e-002
2.582326e+003;5.448169e-002
2.584254e+003;5.442122e-002
2.586183e+003;5.449296e-002
2.588111e+003;5.446750e-002
2.590040e+003;5.453421e-002
2.591969e+003;5.469446e-002
2.593897e+003;5.461484e-002
2.595826e+003;5.463265e-002
2.597754e+003;5.465828e-002
2.599683e+003;5.467616e-002
2.601611e+003;5.495096e-002
2.603540e+003;5.508710e-002
2.605468e+003;5.526043e-002
2.607397e+003;5.534277e-002
2.609325e+003;5.539795e-002
2.611254e+003;5.562593e-002
2.613183e+003;5.590792e-002
2.615111e+003;5.578282e-002
2.617040e+003;5.532971e-002
2.618968e+003;5.516294e-002
2.620897e+003;5.536938e-002
2.622825e+003;5.538937e-002
2.624754e+003;5.540529e-002
2.626682e+003;5.558936e-002
2.628611e+003;5.575893e-002
2.630540e+003;5.587419e-002
2.632468e+003;5.567866e-002
2.634396e+003;5.567629e-002
2.636325e+003;5.572348e-002
2.638254e+003;5.578723e-002
2.640182e+003;5.610887e-002
2.642111e+003;5.634572e-002
2.644039e+003;5.631659e-002
2.645968e+003;5.624742e-002
2.647896e+003;5.638148e-002
2.649825e+003;5.628691e-002
2.651753e+003;5.615932e-002
2.653682e+003;5.619809e-002
2.655611e+003;5.631595e-002
2.657539e+003;5.635488e-002
2.659468e+003;5.627597e-002
2.661396e+003;5.612505e-002
2.663325e+003;5.633051e-002
2.665253e+003;5.632237e-002
2.667182e+003;5.639469e-002
2.669110e+003;5.677704e-002
2.671039e+003;5.692075e-002
2.672968e+003;5.698927e-002
2.674896e+003;5.701758e-002
2.676825e+003;5.705177e-002
2.678753e+003;5.709496e-002
2.680682e+003;5.713389e-002
2.682610e+003;5.731563e-002
2.684539e+003;5.732535e-002
2.686467e+003;5.727658e-002
2.688396e+003;5.751667e-002
2.690324e+003;5.754118e-002
2.692253e+003;5.774213e-002
2.694182e+003;5.785383e-002
2.696110e+003;5.789645e-002
2.698039e+003;5.805178e-002
2.699967e+003;5.797320e-002
2.701896e+003;5.803084e-002
2.703824e+003;5.797381e-002
2.705753e+003;5.806386e-002
2.707681e+003;5.820186e-002
2.709610e+003;5.814678e-002
2.711539e+003;5.849542e-002
2.713467e+003;5.871218e-002
2.715396e+003;5.873448e-002
2.717324e+003;5.886598e-002
2.719253e+003;5.903448e-002
2.721181e+003;5.937282e-002
2.723110e+003;5.975705e-002
2.725038e+003;5.979511e-002
2.726967e+003;5.998311e-002
2.728896e+003;5.993761e-002
2.730824e+003;5.976070e-002
2.732752e+003;5.981933e-002
2.734681e+003;5.979865e-002
2.736610e+003;6.002351e-002
2.738538e+003;6.030742e-002
2.740467e+003;6.011426e-002
2.742395e+003;6.015376e-002
2.744324e+003;6.054652e-002
2.746252e+003;6.048775e-002
2.748181e+003;6.043021e-002
2.750109e+003;6.080997e-002
2.752038e+003;6.119166e-002
2.753967e+003;6.115542e-002
2.755895e+003;6.106091e-002
2.757824e+003;6.133015e-002
2.759752e+003;6.151645e-002
2.761681e+003;6.166406e-002
2.763609e+003;6.172414e-002
2.765538e+003;6.168923e-002
2.767466e+003;6.186686e-002
2.769395e+003;6.181776e-002
2.771323e+003;6.193754e-002
2.773252e+003;6.258876e-002
2.775181e+003;6.284873e-002
2.777109e+003;6.267048e-002
2.779038e+003;6.254544e-002
2.780966e+003;6.276886e-002
2.782895e+003;6.316485e-002
2.784823e+003;6.325249e-002
2.786752e+003;6.318340e-002
2.788680e+003;6.311254e-002
2.790609e+003;6.307028e-002
2.792538e+003;6.348932e-002
2.794466e+003;6.400547e-002
2.796395e+003;6.404226e-002
2.798323e+003;6.386193e-002
2.800252e+003;6.399856e-002
2.802180e+003;6.434290e-002
2.804109e+003;6.460027e-002
2.806037e+003;6.484418e-002
2.807966e+003;6.504720e-002
2.809895e+003;6.543675e-002
2.811823e+003;6.574689e-002
2.813751e+003;6.562416e-002
2.815680e+003;6.561414e-002
2.817609e+003;6.569654e-002
2.819537e+003;6.561183e-002
2.821466e+003;6.582962e-002
2.823394e+003;6.642794e-002
2.825323e+003;6.689862e-002
2.827251e+003;6.692007e-002
2.829180e+003;6.684443e-002
2.831108e+003;6.723212e-002
2.833037e+003;6.770867e-002
2.834966e+003;6.802125e-002
2.836894e+003;6.826309e-002
2.838823e+003;6.885635e-002
2.840751e+003;6.913657e-002
2.842680e+003;6.917694e-002
2.844608e+003;6.990376e-002
2.846537e+003;7.082290e-002
2.848465e+003;7.167271e-002
2.850394e+003;7.200192e-002
2.852323e+003;7.199367e-002
2.854251e+003;7.260227e-002
2.856180e+003;7.340734e-002
2.858108e+003;7.371734e-002
2.860037e+003;7.398127e-002
2.861965e+003;7.445294e-002
2.863894e+003;7.535631e-002
2.865822e+003;7.617121e-002
2.867751e+003;7.679875e-002
2.869679e+003;7.737080e-002
2.871608e+003;7.806737e-002
2.873536e+003;7.886255e-002
2.875465e+003;7.901681e-002
2.877394e+003;7.848684e-002
2.879322e+003;7.799912e-002
2.881251e+003;7.802542e-002
2.883179e+003;7.808197e-002
2.885108e+003;7.797161e-002
2.887036e+003;7.790690e-002
2.888965e+003;7.800412e-002
2.890893e+003;7.793386e-002
2.892822e+003;7.774138e-002
2.894750e+003;7.813297e-002
2.896679e+003;7.846077e-002
2.898608e+003;7.882787e-002
2.900536e+003;7.943975e-002
2.902465e+003;7.969365e-002
2.904393e+003;7.980788e-002
2.906322e+003;8.052440e-002
2.908250e+003;8.160385e-002
2.910179e+003;8.271592e-002
2.912107e+003;8.404588e-002
2.914036e+003;8.525914e-002
2.915965e+003;8.585477e-002
2.917893e+003;8.647682e-002
2.919822e+003;8.696108e-002
2.921750e+003;8.685517e-002
2.923679e+003;8.690122e-002
2.925607e+003;8.708991e-002
2.927536e+003;8.747661e-002
2.929464e+003;8.797519e-002
2.931393e+003;8.809364e-002
2.933322e+003;8.800083e-002
2.935250e+003;8.773433e-002
2.937178e+003;8.752999e-002
2.939107e+003;8.713555e-002
2.941036e+003;8.674566e-002
2.942964e+003;8.642106e-002
2.944893e+003;8.613661e-002
2.946821e+003;8.599078e-002
2.948750e+003;8.605755e-002
2.950678e+003;8.634963e-002
2.952607e+003;8.665121e-002
2.954535e+003;8.672082e-002
2.956464e+003;8.673045e-002
2.958393e+003;8.695614e-002
2.960321e+003;8.718390e-002
2.962250e+003;8.717738e-002
2.964178e+003;8.721654e-002
2.966107e+003;8.692279e-002
2.968035e+003;8.613504e-002
2.969964e+003;8.520330e-002
2.971892e+003;8.409562e-002
2.973821e+003;8.316182e-002
2.975750e+003;8.251161e-002
2.977678e+003;8.169654e-002
2.979607e+003;8.084088e-002
2.981535e+003;8.012323e-002
2.983464e+003;7.912084e-002
2.985392e+003;7.814448e-002
2.987321e+003;7.753741e-002
2.989249e+003;7.683466e-002
2.991178e+003;7.628341e-002
2.993106e+003;7.587896e-002
2.995035e+003;7.558919e-002
2.996964e+003;7.542904e-002
2.998892e+003;7.507736e-002
3.000821e+003;7.487713e-002
3.002749e+003;7.460517e-002
3.004678e+003;7.419226e-002
3.006606e+003;7.444118e-002
3.008535e+003;7.500565e-002
3.010463e+003;7.504751e-002
3.012392e+003;7.511490e-002
3.014321e+003;7.524227e-002
3.016249e+003;7.517324e-002
3.018177e+003;7.531202e-002
3.020106e+003;7.566155e-002
3.022035e+003;7.604662e-002
3.023963e+003;7.614681e-002
3.025892e+003;7.637430e-002
3.027820e+003;7.682785e-002
3.029749e+003;7.741302e-002
3.031677e+003;7.775322e-002
3.033606e+003;7.768978e-002
3.035534e+003;7.795908e-002
3.037463e+003;7.857054e-002
3.039392e+003;7.888182e-002
3.041320e+003;7.897636e-002
3.043249e+003;7.917276e-002
3.045177e+003;7.952105e-002
3.047106e+003;7.977129e-002
3.049034e+003;7.990274e-002
3.050963e+003;8.014798e-002
3.052891e+003;8.049852e-002
3.054820e+003;8.097493e-002
3.056749e+003;8.119197e-002
3.058677e+003;8.100914e-002
3.060606e+003;8.103685e-002
3.062534e+003;8.142400e-002
3.064463e+003;8.149502e-002
3.066391e+003;8.125462e-002
3.068320e+003;8.126193e-002
3.070248e+003;8.141085e-002
3.072177e+003;8.132785e-002
3.074105e+003;8.106728e-002
3.076034e+003;8.132365e-002
3.077963e+003;8.142200e-002
3.079891e+003;8.102947e-002
3.081820e+003;8.037921e-002
3.083748e+003;7.961333e-002
3.085677e+003;7.944922e-002
3.087605e+003;7.985861e-002
3.089534e+003;8.028660e-002
3.091462e+003;8.025332e-002
3.093391e+003;7.993619e-002
3.095320e+003;7.966094e-002
3.097248e+003;7.941139e-002
3.099177e+003;7.928140e-002
3.101105e+003;7.911710e-002
3.103034e+003;7.923567e-002
3.104962e+003;7.926987e-002
3.106891e+003;7.929254e-002
3.108819e+003;7.912243e-002
3.110748e+003;7.877912e-002
3.112677e+003;7.896161e-002
3.114605e+003;7.932924e-002
3.116533e+003;7.941764e-002
3.118462e+003;7.940331e-002
3.120391e+003;7.946040e-002
3.122319e+003;7.945289e-002
3.124248e+003;7.967367e-002
3.126176e+003;8.029485e-002
3.128105e+003;8.105506e-002
3.130033e+003;8.150738e-002
3.131962e+003;8.160724e-002
3.133890e+003;8.178173e-002
3.135819e+003;8.222467e-002
3.137748e+003;8.260117e-002
3.139676e+003;8.299998e-002
3.141605e+003;8.322001e-002
3.143533e+003;8.343622e-002
3.145462e+003;8.369950e-002
3.147390e+003;8.416712e-002
3.149319e+003;8.459322e-002
3.151247e+003;8.494563e-002
3.153176e+003;8.533003e-002
3.155104e+003;8.563397e-002
3.157033e+003;8.620077e-002
3.158962e+003;8.694473e-002
3.160890e+003;8.759416e-002
3.162819e+003;8.838055e-002
3.164747e+003;8.895697e-002
3.166676e+003;8.909636e-002
3.168604e+003;8.967984e-002
3.170533e+003;9.039465e-002
3.172461e+003;9.116251e-002
3.174390e+003;9.177322e-002
3.176319e+003;9.179536e-002
3.178247e+003;9.222221e-002
3.180176e+003;9.289875e-002
3.182104e+003;9.339599e-002
3.184033e+003;9.362140e-002
3.185961e+003;9.427624e-002
3.187890e+003;9.491938e-002
3.189818e+003;9.512684e-002
3.191747e+003;9.565497e-002
3.193676e+003;9.622517e-002
3.195604e+003;9.647890e-002
3.197532e+003;9.706366e-002
3.199461e+003;9.771890e-002
3.201390e+003;9.817085e-002
3.203318e+003;9.848773e-002
3.205247e+003;9.847435e-002
3.207175e+003;9.868756e-002
3.209104e+003;9.893753e-002
3.211032e+003;9.897398e-002
3.212961e+003;9.927984e-002
3.214889e+003;9.956682e-002
3.216818e+003;9.981025e-002
3.218747e+003;1.001983e-001
3.220675e+003;1.007026e-001
3.222604e+003;1.007731e-001
3.224532e+003;1.008346e-001
3.226461e+003;1.013826e-001
3.228389e+003;1.018446e-001
3.230318e+003;1.020927e-001
3.232246e+003;1.024812e-001
3.234175e+003;1.026909e-001
3.236104e+003;1.033185e-001
3.238032e+003;1.042101e-001
3.239961e+003;1.047272e-001
3.241889e+003;1.045069e-001
3.243818e+003;1.049576e-001
3.245746e+003;1.056118e-001
3.247675e+003;1.057459e-001
3.249603e+003;1.061696e-001
3.251532e+003;1.070089e-001
3.253460e+003;1.077105e-001
3.255389e+003;1.081206e-001
3.257318e+003;1.090164e-001
3.259246e+003;1.102052e-001
3.261175e+003;1.107591e-001
3.263103e+003;1.110973e-001
3.265032e+003;1.114372e-001
3.266960e+003;1.118554e-001
3.268889e+003;1.123140e-001
3.270817e+003;1.126103e-001
3.272746e+003;1.129326e-001
3.274675e+003;1.133738e-001
3.276603e+003;1.140064e-001
3.278531e+003;1.140908e-001
3.280460e+003;1.139504e-001
3.282389e+003;1.140317e-001
3.284317e+003;1.138060e-001
3.286246e+003;1.136605e-001
3.288174e+003;1.138966e-001
3.290103e+003;1.139744e-001
3.292031e+003;1.136080e-001
3.293960e+003;1.133662e-001
3.295888e+003;1.134875e-001
3.297817e+003;1.132420e-001
3.299746e+003;1.127942e-001
3.301674e+003;1.120990e-001
3.303603e+003;1.117685e-001
3.305531e+003;1.116318e-001
3.307460e+003;1.114275e-001
3.309388e+003;1.107370e-001
3.311317e+003;1.099327e-001
3.313245e+003;1.090384e-001
3.315174e+003;1.084326e-001
3.317103e+003;1.081685e-001
3.319031e+003;1.077007e-001
3.320960e+003;1.069880e-001
3.322888e+003;1.062364e-001
3.324817e+003;1.055250e-001
3.326745e+003;1.048712e-001
3.328674e+003;1.041511e-001
3.330602e+003;1.034186e-001
3.332531e+003;1.026899e-001
3.334459e+003;1.022999e-001
3.336388e+003;1.020112e-001
3.338317e+003;1.012307e-001
3.340245e+003;1.004489e-001
3.342174e+003;9.944574e-002
3.344102e+003;9.824816e-002
3.346031e+003;9.781506e-002
3.347959e+003;9.825531e-002
3.349888e+003;9.764414e-002
3.351816e+003;9.611854e-002
3.353745e+003;9.513295e-002
3.355674e+003;9.477700e-002
3.357602e+003;9.444814e-002
3.359531e+003;9.359455e-002
3.361459e+003;9.252646e-002
3.363388e+003;9.179094e-002
3.365316e+003;9.129304e-002
3.367245e+003;9.053557e-002
3.369173e+003;8.998460e-002
3.371102e+003;8.963259e-002
3.373031e+003;8.912630e-002
3.374959e+003;8.855449e-002
3.376887e+003;8.787563e-002
3.378816e+003;8.742183e-002
3.380745e+003;8.701561e-002
3.382673e+003;8.595367e-002
3.384602e+003;8.526108e-002
3.386530e+003;8.501378e-002
3.388459e+003;8.430293e-002
3.390387e+003;8.355843e-002
3.392316e+003;8.291142e-002
3.394244e+003;8.193903e-002
3.396173e+003;8.143723e-002
3.398102e+003;8.129956e-002
3.400030e+003;8.054913e-002
3.401959e+003;7.967160e-002
3.403887e+003;7.922263e-002
3.405816e+003;7.884034e-002
3.407744e+003;7.851368e-002
3.409673e+003;7.823075e-002
3.411601e+003;7.738688e-002
3.413530e+003;7.652808e-002
3.415458e+003;7.594356e-002
3.417387e+003;7.545166e-002
3.419316e+003;7.525405e-002
3.421244e+003;7.494362e-002
3.423173e+003;7.410996e-002
3.425101e+003;7.305809e-002
3.427030e+003;7.236779e-002
3.428958e+003;7.214943e-002
3.430887e+003;7.227600e-002
3.432815e+003;7.181635e-002
3.434744e+003;7.063581e-002
3.436673e+003;6.967154e-002
3.438601e+003;6.927044e-002
3.440530e+003;6.882603e-002
3.442458e+003;6.812737e-002
3.444387e+003;6.771108e-002
3.446315e+003;6.778481e-002
3.448244e+003;6.769303e-002
3.450172e+003;6.708024e-002
3.452101e+003;6.635983e-002
3.454030e+003;6.545801e-002
3.455958e+003;6.499840e-002
3.457886e+003;6.476979e-002
3.459815e+003;6.375766e-002
3.461744e+003;6.271936e-002
3.463672e+003;6.256592e-002
3.465601e+003;6.303956e-002
3.467529e+003;6.322493e-002
3.469458e+003;6.260545e-002
3.471386e+003;6.177437e-002
3.473315e+003;6.137946e-002
3.475243e+003;6.100923e-002
3.477172e+003;6.059250e-002
3.479101e+003;6.017853e-002
3.481029e+003;5.954083e-002
3.482958e+003;5.922879e-002
3.484886e+003;5.924224e-002
3.486815e+003;5.877993e-002
3.488743e+003;5.842836e-002
3.490672e+003;5.805125e-002
3.492600e+003;5.771129e-002
3.494529e+003;5.731741e-002
3.496458e+003;5.688759e-002
3.498386e+003;5.646524e-002
3.500315e+003;5.577352e-002
3.502243e+003;5.532997e-002
3.504172e+003;5.500409e-002
3.506100e+003;5.464392e-002
3.508029e+003;5.392293e-002
3.509957e+003;5.328809e-002
3.511886e+003;5.316232e-002
3.513814e+003;5.259430e-002
3.515743e+003;5.237979e-002
3.517672e+003;5.259976e-002
3.519600e+003;5.230649e-002
3.521529e+003;5.183787e-002
3.523457e+003;5.153273e-002
3.525386e+003;5.147349e-002
3.527314e+003;5.149020e-002
3.529243e+003;5.147770e-002
3.531171e+003;5.075097e-002
3.533100e+003;5.006824e-002
3.535029e+003;4.971366e-002
3.536957e+003;4.928476e-002
3.538885e+003;4.868101e-002
3.540814e+003;4.852488e-002
3.542743e+003;4.867937e-002
3.544671e+003;4.835407e-002
3.546600e+003;4.785589e-002
3.548528e+003;4.790454e-002
3.550457e+003;4.736315e-002
3.552385e+003;4.658265e-002
3.554314e+003;4.620352e-002
3.556242e+003;4.585470e-002
3.558171e+003;4.539453e-002
3.560100e+003;4.503882e-002
3.562028e+003;4.453234e-002
3.563957e+003;4.382885e-002
3.565885e+003;4.362112e-002
3.567814e+003;4.343893e-002
3.569742e+003;4.357031e-002
3.571671e+003;4.373606e-002
3.573599e+003;4.347676e-002
3.575528e+003;4.272273e-002
3.577457e+003;4.220401e-002
3.579385e+003;4.193370e-002
3.581314e+003;4.152087e-002
3.583242e+003;4.116401e-002
3.585171e+003;4.059323e-002
3.587099e+003;3.987429e-002
3.589028e+003;4.011680e-002
3.590956e+003;4.050978e-002
3.592885e+003;3.977802e-002
3.594813e+003;3.945808e-002
3.596742e+003;3.963868e-002
3.598671e+003;3.952652e-002
3.600599e+003;3.913838e-002
3.602528e+003;3.873809e-002
3.604456e+003;3.853509e-002
3.606385e+003;3.798934e-002
3.608313e+003;3.732774e-002
3.610242e+003;3.726639e-002
3.612170e+003;3.717560e-002
3.614099e+003;3.659115e-002
3.616028e+003;3.614360e-002
3.617956e+003;3.595881e-002
3.619885e+003;3.552382e-002
3.621813e+003;3.536142e-002
3.623742e+003;3.493907e-002
3.625670e+003;3.415823e-002
3.627599e+003;3.317131e-002
3.629527e+003;3.283590e-002
3.631456e+003;3.345307e-002
3.633385e+003;3.378681e-002
3.635313e+003;3.394005e-002
3.637241e+003;3.381464e-002
3.639170e+003;3.375440e-002
3.641099e+003;3.336043e-002
3.643027e+003;3.297511e-002
3.644956e+003;3.271088e-002
3.646884e+003;3.160346e-002
3.648813e+003;3.067989e-002
3.650741e+003;3.128859e-002
3.652670e+003;3.192996e-002
3.654598e+003;3.120823e-002
3.656527e+003;3.077552e-002
3.658456e+003;3.101089e-002
3.660384e+003;3.067374e-002
3.662313e+003;3.069731e-002
3.664241e+003;3.106399e-002
3.666170e+003;3.045830e-002
3.668098e+003;2.912964e-002
3.670027e+003;2.849345e-002
3.671955e+003;2.873142e-002
3.673884e+003;2.791529e-002
3.675813e+003;2.756156e-002
3.677741e+003;2.823114e-002
3.679669e+003;2.821541e-002
3.681598e+003;2.815255e-002
3.683527e+003;2.803360e-002
3.685455e+003;2.760739e-002
3.687384e+003;2.667469e-002
3.689312e+003;2.671905e-002
3.691241e+003;2.697124e-002
3.693169e+003;2.706359e-002
3.695098e+003;2.724245e-002
3.697026e+003;2.731355e-002
3.698955e+003;2.742330e-002
3.700884e+003;2.707974e-002
3.702812e+003;2.700255e-002
3.704741e+003;2.690578e-002
3.706669e+003;2.643310e-002
3.708598e+003;2.550143e-002
3.710526e+003;2.551904e-002
3.712455e+003;2.629022e-002
3.714383e+003;2.641000e-002
3.716312e+003;2.615032e-002
3.718240e+003;2.599347e-002
3.720169e+003;2.566570e-002
3.722098e+003;2.578224e-002
3.724026e+003;2.601507e-002
3.725955e+003;2.560879e-002
3.727883e+003;2.547635e-002
3.729812e+003;2.550997e-002
3.731740e+003;2.488327e-002
3.733669e+003;2.454887e-002
3.735597e+003;2.428358e-002
3.737526e+003;2.477707e-002
3.739455e+003;2.551292e-002
3.741383e+003;2.541890e-002
3.743312e+003;2.397093e-002
3.745240e+003;2.386436e-002
3.747169e+003;2.466767e-002
3.749097e+003;2.414901e-002
3.751026e+003;2.384745e-002
3.752954e+003;2.435366e-002
3.754883e+003;2.523450e-002
3.756812e+003;2.523931e-002
3.758740e+003;2.518675e-002
3.760668e+003;2.574874e-002
3.762597e+003;2.565048e-002
3.764526e+003;2.472618e-002
3.766454e+003;2.473498e-002
3.768383e+003;2.481840e-002
3.770311e+003;2.460501e-002
3.772240e+003;2.488762e-002
3.774168e+003;2.500901e-002
3.776097e+003;2.527211e-002
3.778025e+003;2.534917e-002
3.779954e+003;2.524121e-002
3.781883e+003;2.500789e-002
3.783811e+003;2.484738e-002
3.785740e+003;2.496082e-002
3.787668e+003;2.532357e-002
3.789597e+003;2.520336e-002
3.791525e+003;2.513124e-002
3.793454e+003;2.484952e-002
3.795382e+003;2.440771e-002
3.797311e+003;2.453674e-002
3.799240e+003;2.436396e-002
3.801168e+003;2.404450e-002
3.803097e+003;2.450203e-002
3.805025e+003;2.452976e-002
3.806954e+003;2.419648e-002
3.808882e+003;2.494949e-002
3.810811e+003;2.542140e-002
3.812739e+003;2.464867e-002
3.814668e+003;2.349104e-002
3.816596e+003;2.382809e-002
3.818525e+003;2.429560e-002
3.820454e+003;2.411794e-002
3.822382e+003;2.445800e-002
3.824311e+003;2.520009e-002
3.826239e+003;2.542428e-002
3.828168e+003;2.516168e-002
3.830096e+003;2.484741e-002
3.832025e+003;2.508718e-002
3.833953e+003;2.523784e-002
3.835882e+003;2.426893e-002
3.837811e+003;2.375743e-002
3.839739e+003;2.430162e-002
3.841667e+003;2.484352e-002
3.843596e+003;2.500052e-002
3.845525e+003;2.538367e-002
3.847453e+003;2.545973e-002
3.849382e+003;2.451956e-002
3.851310e+003;2.314607e-002
3.853239e+003;2.263303e-002
3.855167e+003;2.394477e-002
3.857096e+003;2.505124e-002
3.859024e+003;2.554536e-002
3.860953e+003;2.604230e-002
3.862882e+003;2.594658e-002
3.864810e+003;2.569667e-002
3.866739e+003;2.539554e-002
3.868667e+003;2.379628e-002
3.870596e+003;2.336690e-002
3.872524e+003;2.450130e-002
3.874453e+003;2.541124e-002
3.876381e+003;2.544817e-002
3.878310e+003;2.506545e-002
3.880239e+003;2.504158e-002
3.882167e+003;2.469121e-002
3.884096e+003;2.415269e-002
3.886024e+003;2.468802e-002
3.887953e+003;2.534724e-002
3.889881e+003;2.518095e-002
3.891810e+003;2.525427e-002
3.893738e+003;2.560159e-002
3.895667e+003;2.558092e-002
3.897595e+003;2.498167e-002
3.899524e+003;2.462735e-002
3.901453e+003;2.473680e-002
3.903381e+003;2.441528e-002
3.905310e+003;2.482745e-002
3.907238e+003;2.544494e-002
3.909167e+003;2.557773e-002
3.911095e+003;2.554279e-002
3.913024e+003;2.588313e-002
3.914952e+003;2.586576e-002
3.916881e+003;2.529930e-002
3.918810e+003;2.522941e-002
3.920738e+003;2.533656e-002
3.922667e+003;2.556420e-002
3.924595e+003;2.541170e-002
3.926524e+003;2.488138e-002
3.928452e+003;2.449821e-002
3.930381e+003;2.488727e-002
3.932309e+003;2.542540e-002
3.934238e+003;2.536361e-002
3.936167e+003;2.515648e-002
3.938095e+003;2.539048e-002
3.940023e+003;2.572529e-002
3.941952e+003;2.579152e-002
3.943881e+003;2.613719e-002
3.945809e+003;2.600508e-002
3.947738e+003;2.555495e-002
3.949666e+003;2.582387e-002
3.951595e+003;2.584227e-002
3.953523e+003;2.555625e-002
3.955452e+003;2.563326e-002
3.957380e+003;2.564317e-002
3.959309e+003;2.548633e-002
3.961238e+003;2.544188e-002
3.963166e+003;2.597053e-002
3.965095e+003;2.578080e-002
3.967023e+003;2.508430e-002
3.968952e+003;2.552976e-002
3.970880e+003;2.544634e-002
3.972809e+003;2.505152e-002
3.974737e+003;2.496279e-002
3.976666e+003;2.444458e-002
3.978594e+003;2.446049e-002
3.980523e+003;2.422380e-002
3.982452e+003;2.396473e-002
3.984380e+003;2.453019e-002
3.986309e+003;2.500333e-002
3.988237e+003;2.542526e-002
3.990166e+003;2.577338e-002
3.992094e+003;2.529452e-002
3.994023e+003;2.530885e-002
3.995951e+003;2.538061e-002
3.997880e+003;2.493243e-002
3.999809e+003;2.467897e-002
4.001737e+003;0.000000e+000
