3.992094e+002;0.000000e+000
4.011380e+002;0.000000e+000
4.030665e+002;0.000000e+000
4.049951e+002;0.000000e+000
4.069236e+002;0.000000e+000
4.088522e+002;0.000000e+000
4.107807e+002;0.000000e+000
4.127093e+002;0.000000e+000
4.146378e+002;0.000000e+000
4.165664e+002;0.000000e+000
4.184949e+002;0.000000e+000
4.204235e+002;0.000000e+000
4.223520e+002;0.000000e+000
4.242806e+002;0.000000e+000
4.262091e+002;0.000000e+000
4.281377e+002;0.000000e+000
4.300662e+002;0.000000e+000
4.319948e+002;0.000000e+000
4.339233e+002;0.000000e+000
4.358519e+002;0.000000e+000
4.377804e+002;0.000000e+000
4.397090e+002;0.000000e+000
4.416375e+002;0.000000e+000
4.435660e+002;0.000000e+000
4.454946e+002;0.000000e+000
4.474232e+002;0.000000e+000
4.493517e+002;0.000000e+000
4.512802e+002;0.000000e+000
4.532088e+002;0.000000e+000
4.551373e+002;0.000000e+000
4.570659e+002;0.000000e+000
4.589944e+002;0.000000e+000
4.609230e+002;0.000000e+000
4.628515e+002;0.000000e+000
4.647801e+002;0.000000e+000
4.667086e+002;0.000000e+000
4.686372e+002;0.000000e+000
4.705657e+002;0.000000e+000
4.724943e+002;0.000000e+000
4.744228e+002;0.000000e+000
4.763513e+002;0.000000e+000
4.782799e+002;0.000000e+000
4.802085e+002;0.000000e+000
4.821370e+002;0.000000e+000
4.840656e+002;0.000000e+000
4.859941e+002;0.000000e+000
4.879226e+002;0.000000e+000
4.898512e+002;0.000000e+000
4.917798e+002;0.000000e+000
4.937083e+002;0.000000e+000
4.956368e+002;0.000000e+000
4.975654e+002;0.000000e+000
4.994939e+002;0.000000e+000
5.014225e+002;0.000000e+000
5.033510e+002;0.000000e+000
5.052796e+002;0.000000e+000
5.072081e+002;0.000000e+000
5.091367e+002;0.000000e+000
5.110652e+002;0.000000e+000
5.129938e+002;0.000000e+000
5.149223e+002;0.000000e+000
5.168509e+002;0.000000e+000
5.187794e+002;0.000000e+000
5.207079e+002;0.000000e+000
5.226365e+002;0.000000e+000
5.245651e+002;0.000000e+000
5.264936e+002;0.000000e+000
5.284222e+002;0.000000e+000
5.303507e+002;0.000000e+000
5.322792e+002;0.000000e+000
5.342078e+002;0.000000e+000
5.361364e+002;0.000000e+000
5.380649e+002;0.000000e+000
5.399935e+002;0.000000e+000
5.419220e+002;0.000000e+000
5.438505e+002;0.000000e+000
5.457791e+002;0.000000e+000
5.477076e+002;0.000000e+000
5.496362e+002;0.000000e+000
5.515648e+002;0.000000e+000
5.534933e+002;0.000000e+000
5.554218e+002;0.000000e+000
5.573504e+002;0.000000e+000
5.592789e+002;0.000000e+000
5.612075e+002;0.000000e+000
5.631360e+002;0.000000e+000
5.650646e+002;0.000000e+000
5.669931e+002;0.000000e+000
5.689217e+002;0.000000e+000
5.708502e+002;0.000000e+000
5.727787e+002;0.000000e+000
5.747073e+002;0.000000e+000
5.766359e+002;0.000000e+000
5.785644e+002;0.000000e+000
5.804930e+002;0.000000e+000
5.824215e+002;0.000000e+000
5.843500e+002;0.000000e+000
5.862786e+002;0.000000e+000
5.882072e+002;0.000000e+000
5.901357e+002;0.000000e+000
5.920643e+002;0.000000e+000
5.939928e+002;0.000000e+000
5.959213e+002;0.000000e+000
5.978499e+002;0.000000e+000
5.997784e+002;2.151979e-001
6.017070e+002;2.075994e-001
6.036355e+002;2.053963e-001
6.055641e+002;2.131101e-001
6.074926e+002;2.156436e-001
6.094211e+002;2.138190e-001
6.113497e+002;2.196653e-001
6.132783e+002;2.201548e-001
6.152068e+002;2.134283e-001
6.171354e+002;2.125315e-001
6.190639e+002;2.124058e-001
6.209924e+002;2.084455e-001
6.229210e+002;2.079719e-001
6.248495e+002;2.063261e-001
6.267781e+002;2.041046e-001
6.287067e+002;2.071243e-001
6.306352e+002;2.098061e-001
6.325637e+002;2.086892e-001
6.344923e+002;2.022415e-001
6.364208e+002;2.010165e-001
6.383494e+002;2.019498e-001
6.402780e+002;1.975915e-001
6.422065e+002;1.970956e-001
6.441350e+002;1.973882e-001
6.460636e+002;1.996493e-001
6.479921e+002;2.024821e-001
6.499207e+002;2.003817e-001
6.518492e+002;1.958451e-001
6.537778e+002;1.905149e-001
6.557063e+002;1.875546e-001
6.576349e+002;1.890085e-001
6.595634e+002;1.910405e-001
6.614919e+002;1.897927e-001
6.634205e+002;1.875010e-001
6.653491e+002;1.861878e-001
6.672776e+002;1.847131e-001
6.692062e+002;1.847722e-001
6.711347e+002;1.844279e-001
6.730632e+002;1.817516e-001
6.749918e+002;1.780912e-001
6.769203e+002;1.767870e-001
6.788489e+002;1.773672e-001
6.807775e+002;1.764205e-001
6.827060e+002;1.750115e-001
6.846345e+002;1.746108e-001
6.865631e+002;1.748471e-001
6.884916e+002;1.745480e-001
6.904202e+002;1.736726e-001
6.923488e+002;1.726111e-001
6.942773e+002;1.717089e-001
6.962058e+002;1.712120e-001
6.981344e+002;1.702957e-001
7.000629e+002;1.692080e-001
7.019915e+002;1.683727e-001
7.039200e+002;1.678159e-001
7.058486e+002;1.657572e-001
7.077771e+002;1.633954e-001
7.097057e+002;1.615857e-001
7.116342e+002;1.597008e-001
7.135627e+002;1.578446e-001
7.154913e+002;1.561417e-001
7.174199e+002;1.560509e-001
7.193484e+002;1.556413e-001
7.212770e+002;1.542556e-001
7.232055e+002;1.533466e-001
7.251340e+002;1.524370e-001
7.270626e+002;1.516397e-001
7.289911e+002;1.518205e-001
7.309197e+002;1.521289e-001
7.328483e+002;1.514709e-001
7.347768e+002;1.506510e-001
7.367053e+002;1.511079e-001
7.386339e+002;1.514175e-001
7.405624e+002;1.505889e-001
7.424910e+002;1.505540e-001
7.444196e+002;1.505261e-001
7.463481e+002;1.488125e-001
7.482766e+002;1.467932e-001
7.502052e+002;1.449762e-001
7.521337e+002;1.437800e-001
7.540623e+002;1.428066e-001
7.559908e+002;1.416210e-001
7.579194e+002;1.398128e-001
7.598479e+002;1.381778e-001
7.617765e+002;1.374083e-001
7.637050e+002;1.362209e-001
7.656335e+002;1.349737e-001
7.675621e+002;1.333277e-001
7.694907e+002;1.318614e-001
7.714192e+002;1.307622e-001
7.733478e+002;1.293017e-001
7.752763e+002;1.281751e-001
7.772048e+002;1.277167e-001
7.791334e+002;1.266110e-001
7.810620e+002;1.254533e-001
7.829905e+002;1.249838e-001
7.849191e+002;1.242146e-001
7.868476e+002;1.233690e-001
7.887761e+002;1.224435e-001
7.907047e+002;1.213674e-001
7.926332e+002;1.209102e-001
7.945618e+002;1.200399e-001
7.964903e+002;1.189910e-001
7.984189e+002;1.179259e-001
8.003474e+002;1.174187e-001
8.022759e+002;1.172156e-001
8.042045e+002;1.169810e-001
8.061331e+002;1.164288e-001
8.080616e+002;1.157996e-001
8.099902e+002;1.156074e-001
8.119187e+002;1.154219e-001
8.138472e+002;1.152836e-001
8.157758e+002;1.157140e-001
8.177043e+002;1.156005e-001
8.196329e+002;1.157286e-001
8.215615e+002;1.163059e-001
8.234900e+002;1.168493e-001
8.254185e+002;1.167424e-001
8.273471e+002;1.159027e-001
8.292756e+002;1.152561e-001
8.312042e+002;1.146137e-001
8.331328e+002;1.132187e-001
8.350613e+002;1.118186e-001
8.369898e+002;1.107281e-001
8.389184e+002;1.095384e-001
8.408469e+002;1.083749e-001
8.427755e+002;1.074983e-001
8.447040e+002;1.068698e-001
8.466326e+002;1.069072e-001
8.485611e+002;1.065346e-001
8.504897e+002;1.051515e-001
8.524182e+002;1.042209e-001
8.543467e+002;1.037964e-001
8.562753e+002;1.031489e-001
8.582039e+002;1.023958e-001
8.601324e+002;1.016391e-001
8.620610e+002;1.016810e-001
8.639895e+002;1.019797e-001
8.659180e+002;1.017418e-001
8.678466e+002;1.019270e-001
8.697751e+002;1.025564e-001
8.717037e+002;1.028995e-001
8.736323e+002;1.030316e-001
8.755608e+002;1.034409e-001
8.774893e+002;1.033824e-001
8.794179e+002;1.035045e-001
8.813464e+002;1.038925e-001
8.832750e+002;1.041322e-001
8.852036e+002;1.045172e-001
8.871321e+002;1.049806e-001
8.890606e+002;1.049061e-001
8.909892e+002;1.043106e-001
8.929177e+002;1.037795e-001
8.948463e+002;1.033925e-001
8.967748e+002;1.032900e-001
8.987034e+002;1.032875e-001
9.006319e+002;1.034136e-001
9.025605e+002;1.034727e-001
9.044890e+002;1.036085e-001
9.064175e+002;1.039193e-001
9.083461e+002;1.042224e-001
9.102747e+002;1.041214e-001
9.122032e+002;1.042685e-001
9.141318e+002;1.048367e-001
9.160603e+002;1.051019e-001
9.179888e+002;1.056799e-001
9.199174e+002;1.062576e-001
9.218459e+002;1.067852e-001
9.237745e+002;1.073260e-001
9.257031e+002;1.073606e-001
9.276316e+002;1.074475e-001
9.295601e+002;1.077179e-001
9.314887e+002;1.078440e-001
9.334172e+002;1.078599e-001
9.353458e+002;1.078480e-001
9.372744e+002;1.077694e-001
9.392029e+002;1.076190e-001
9.411314e+002;1.071525e-001
9.430600e+002;1.070518e-001
9.449885e+002;1.069351e-001
9.469171e+002;1.064943e-001
9.488456e+002;1.064508e-001
9.507742e+002;1.065785e-001
9.527027e+002;1.065695e-001
9.546313e+002;1.067470e-001
9.565598e+002;1.072185e-001
9.584883e+002;1.077892e-001
9.604169e+002;1.080729e-001
9.623455e+002;1.083415e-001
9.642740e+002;1.088253e-001
9.662026e+002;1.094677e-001
9.681311e+002;1.102998e-001
9.700596e+002;1.113798e-001
9.719882e+002;1.122662e-001
9.739167e+002;1.124502e-001
9.758453e+002;1.129225e-001
9.777739e+002;1.139810e-001
9.797024e+002;1.150786e-001
9.816309e+002;1.160237e-001
9.835595e+002;1.172834e-001
9.854880e+002;1.189753e-001
9.874166e+002;1.212014e-001
9.893452e+002;1.235821e-001
9.912737e+002;1.257940e-001
9.932022e+002;1.272777e-001
9.951307e+002;1.284807e-001
9.970593e+002;1.295358e-001
9.989879e+002;1.307909e-001
1.000916e+003;1.323961e-001
1.002845e+003;1.340147e-001
1.004773e+003;1.355757e-001
1.006702e+003;1.368246e-001
1.008631e+003;1.379535e-001
1.010559e+003;1.391430e-001
1.012488e+003;1.402941e-001
1.014416e+003;1.409545e-001
1.016345e+003;1.415209e-001
1.018273e+003;1.422053e-001
1.020202e+003;1.429196e-001
1.022130e+003;1.440191e-001
1.024059e+003;1.456822e-001
1.025988e+003;1.480763e-001
1.027916e+003;1.511728e-001
1.029845e+003;1.547353e-001
1.031773e+003;1.581035e-001
1.033702e+003;1.615686e-001
1.035630e+003;1.649639e-001
1.037559e+003;1.676979e-001
1.039487e+003;1.696406e-001
1.041416e+003;1.710537e-001
1.043344e+003;1.715845e-001
1.045273e+003;1.708357e-001
1.047202e+003;1.686391e-001
1.049130e+003;1.657831e-001
1.051059e+003;1.628069e-001
1.052987e+003;1.595121e-001
1.054916e+003;1.570404e-001
1.056844e+003;1.562781e-001
1.058773e+003;1.560756e-001
1.060701e+003;1.561785e-001
1.062630e+003;1.562147e-001
1.064558e+003;1.560773e-001
1.066487e+003;1.566814e-001
1.068416e+003;1.573583e-001
1.070344e+003;1.573003e-001
1.072273e+003;1.571874e-001
1.074201e+003;1.574018e-001
1.076130e+003;1.573414e-001
1.078058e+003;1.576120e-001
1.079987e+003;1.576502e-001
1.081915e+003;1.575069e-001
1.083844e+003;1.576565e-001
1.085773e+003;1.574966e-001
1.087701e+003;1.572447e-001
1.089630e+003;1.572647e-001
1.091558e+003;1.569428e-001
1.093487e+003;1.566210e-001
1.095415e+003;1.568467e-001
1.097344e+003;1.575380e-001
1.099272e+003;1.576104e-001
1.101201e+003;1.565841e-001
1.103129e+003;1.557773e-001
1.105058e+003;1.554815e-001
1.106987e+003;1.550364e-001
1.108915e+003;1.542764e-001
1.110844e+003;1.535753e-001
1.112772e+003;1.528850e-001
1.114701e+003;1.525782e-001
1.116629e+003;1.525585e-001
1.118558e+003;1.526107e-001
1.120486e+003;1.530122e-001
1.122415e+003;1.534269e-001
1.124344e+003;1.536912e-001
1.126272e+003;1.539803e-001
1.128201e+003;1.543488e-001
1.130129e+003;1.545566e-001
1.132058e+003;1.546782e-001
1.133986e+003;1.556180e-001
1.135915e+003;1.576264e-001
1.137843e+003;1.596932e-001
1.139772e+003;1.612145e-001
1.141700e+003;1.624506e-001
1.143629e+003;1.636881e-001
1.145557e+003;1.655580e-001
1.147486e+003;1.679792e-001
1.149415e+003;1.699827e-001
1.151343e+003;1.710877e-001
1.153272e+003;1.719434e-001
1.155200e+003;1.731354e-001
1.157129e+003;1.737313e-001
1.159057e+003;1.739045e-001
1.160986e+003;1.750183e-001
1.162914e+003;1.762594e-001
1.164843e+003;1.772591e-001
1.166771e+003;1.786872e-001
1.168700e+003;1.808218e-001
1.170629e+003;1.826127e-001
1.172557e+003;1.833089e-001
1.174486e+003;1.839602e-001
1.176414e+003;1.850903e-001
1.178343e+003;1.863154e-001
1.180271e+003;1.874588e-001
1.182200e+003;1.886532e-001
1.184128e+003;1.900367e-001
1.186057e+003;1.914144e-001
1.187986e+003;1.927226e-001
1.189914e+003;1.939254e-001
1.191843e+003;1.951061e-001
1.193771e+003;1.962707e-001
1.195700e+003;1.972015e-001
1.197628e+003;1.985476e-001
1.199557e+003;1.997239e-001
1.201485e+003;2.004790e-001
1.203414e+003;2.013086e-001
1.205343e+003;2.019921e-001
1.207271e+003;2.029814e-001
1.209200e+003;2.041654e-001
1.211128e+003;2.052038e-001
1.213057e+003;2.060053e-001
1.214985e+003;2.065079e-001
1.216914e+003;2.066568e-001
1.218842e+003;2.067685e-001
1.220771e+003;2.070456e-001
1.222699e+003;2.073819e-001
1.224628e+003;2.069359e-001
1.226557e+003;2.063229e-001
1.228485e+003;2.058263e-001
1.230414e+003;2.052970e-001
1.232342e+003;2.047096e-001
1.234271e+003;2.038445e-001
1.236199e+003;2.028606e-001
1.238128e+003;2.016614e-001
1.240056e+003;2.004085e-001
1.241985e+003;1.993309e-001
1.243913e+003;1.979034e-001
1.245842e+003;1.965413e-001
1.247771e+003;1.952785e-001
1.249699e+003;1.940722e-001
1.251628e+003;1.930264e-001
1.253556e+003;1.918500e-001
1.255485e+003;1.905693e-001
1.257413e+003;1.890892e-001
1.259342e+003;1.873814e-001
1.261270e+003;1.857294e-001
1.263199e+003;1.836545e-001
1.265127e+003;1.812152e-001
1.267056e+003;1.792917e-001
1.268985e+003;1.776748e-001
1.270913e+003;1.760460e-001
1.272842e+003;1.746889e-001
1.274770e+003;1.735726e-001
1.276699e+003;1.725053e-001
1.278627e+003;1.714935e-001
1.280556e+003;1.705242e-001
1.282484e+003;1.693653e-001
1.284413e+003;1.679752e-001
1.286342e+003;1.663329e-001
1.288270e+003;1.649498e-001
1.290199e+003;1.640602e-001
1.292127e+003;1.634885e-001
1.294056e+003;1.626183e-001
1.295984e+003;1.615339e-001
1.297913e+003;1.604980e-001
1.299841e+003;1.592699e-001
1.301770e+003;1.580529e-001
1.303698e+003;1.574057e-001
1.305627e+003;1.569374e-001
1.307556e+003;1.564664e-001
1.309484e+003;1.562468e-001
1.311413e+003;1.564600e-001
1.313341e+003;1.570498e-001
1.315270e+003;1.575526e-001
1.317198e+003;1.581142e-001
1.319127e+003;1.588642e-001
1.321055e+003;1.594367e-001
1.322984e+003;1.596937e-001
1.324912e+003;1.599387e-001
1.326841e+003;1.599842e-001
1.328770e+003;1.596246e-001
1.330698e+003;1.589757e-001
1.332627e+003;1.580818e-001
1.334555e+003;1.571491e-001
1.336484e+003;1.559576e-001
1.338412e+003;1.544414e-001
1.340341e+003;1.530961e-001
1.342269e+003;1.520509e-001
1.344198e+003;1.507623e-001
1.346126e+003;1.497272e-001
1.348055e+003;1.491870e-001
1.349984e+003;1.482459e-001
1.351912e+003;1.473157e-001
1.353841e+003;1.467553e-001
1.355769e+003;1.462786e-001
1.357698e+003;1.461390e-001
1.359626e+003;1.464489e-001
1.361555e+003;1.469915e-001
1.363483e+003;1.476846e-001
1.365412e+003;1.488106e-001
1.367341e+003;1.501188e-001
1.369269e+003;1.510704e-001
1.371198e+003;1.514054e-001
1.373126e+003;1.514400e-001
1.375055e+003;1.515007e-001
1.376983e+003;1.521432e-001
1.378912e+003;1.530838e-001
1.380840e+003;1.541106e-001
1.382769e+003;1.551676e-001
1.384698e+003;1.560984e-001
1.386626e+003;1.565878e-001
1.388555e+003;1.566937e-001
1.390483e+003;1.568127e-001
1.392412e+003;1.564128e-001
1.394340e+003;1.558744e-001
1.396269e+003;1.555488e-001
1.398197e+003;1.555151e-001
1.400126e+003;1.561617e-001
1.402054e+003;1.569408e-001
1.403983e+003;1.573148e-001
1.405911e+003;1.575529e-001
1.407840e+003;1.578073e-001
1.409769e+003;1.582875e-001
1.411697e+003;1.586813e-001
1.413626e+003;1.590981e-001
1.415554e+003;1.596131e-001
1.417483e+003;1.595328e-001
1.419411e+003;1.594646e-001
1.421340e+003;1.604602e-001
1.423268e+003;1.616830e-001
1.425197e+003;1.627971e-001
1.427125e+003;1.639652e-001
1.429054e+003;1.653319e-001
1.430983e+003;1.672930e-001
1.432911e+003;1.698126e-001
1.434840e+003;1.721892e-001
1.436768e+003;1.740670e-001
1.438697e+003;1.760278e-001
1.440625e+003;1.777150e-001
1.442554e+003;1.786488e-001
1.444482e+003;1.791402e-001
1.446411e+003;1.795813e-001
1.448340e+003;1.800752e-001
1.450268e+003;1.804285e-001
1.452197e+003;1.806684e-001
1.454125e+003;1.807434e-001
1.456054e+003;1.800269e-001
1.457982e+003;1.794867e-001
1.459911e+003;1.790027e-001
1.461839e+003;1.778074e-001
1.463768e+003;1.762485e-001
1.465697e+003;1.751666e-001
1.467625e+003;1.745452e-001
1.469554e+003;1.737574e-001
1.471482e+003;1.727929e-001
1.473411e+003;1.723726e-001
1.475339e+003;1.729982e-001
1.477268e+003;1.745617e-001
1.479196e+003;1.770116e-001
1.481125e+003;1.800097e-001
1.483053e+003;1.840131e-001
1.484982e+003;1.890174e-001
1.486911e+003;1.944449e-001
1.488839e+003;2.004849e-001
1.490768e+003;2.072217e-001
1.492696e+003;2.139904e-001
1.494625e+003;2.202913e-001
1.496553e+003;2.263838e-001
1.498482e+003;2.321327e-001
1.500410e+003;2.368904e-001
1.502339e+003;2.405083e-001
1.504267e+003;2.430641e-001
1.506196e+003;2.449696e-001
1.508125e+003;2.476736e-001
1.510053e+003;2.503934e-001
1.511982e+003;2.519535e-001
1.513910e+003;2.526087e-001
1.515839e+003;2.514058e-001
1.517767e+003;2.481014e-001
1.519696e+003;2.437275e-001
1.521624e+003;2.396434e-001
1.523553e+003;2.365191e-001
1.525481e+003;2.334224e-001
1.527410e+003;2.307069e-001
1.529339e+003;2.280004e-001
1.531267e+003;2.249404e-001
1.533196e+003;2.214812e-001
1.535124e+003;2.180547e-001
1.537053e+003;2.141657e-001
1.538981e+003;2.096281e-001
1.540910e+003;2.059971e-001
1.542838e+003;2.031318e-001
1.544767e+003;1.994863e-001
1.546695e+003;1.954789e-001
1.548624e+003;1.911474e-001
1.550553e+003;1.862502e-001
1.552481e+003;1.814315e-001
1.554410e+003;1.769380e-001
1.556338e+003;1.723673e-001
1.558267e+003;1.671622e-001
1.560195e+003;1.631963e-001
1.562124e+003;1.605278e-001
1.564052e+003;1.573010e-001
1.565981e+003;1.542026e-001
1.567910e+003;1.517860e-001
1.569838e+003;1.497726e-001
1.571767e+003;1.484358e-001
1.573695e+003;1.474899e-001
1.575624e+003;1.468007e-001
1.577552e+003;1.473006e-001
1.579481e+003;1.485186e-001
1.581409e+003;1.498064e-001
1.583338e+003;1.513337e-001
1.585266e+003;1.534642e-001
1.587195e+003;1.561396e-001
1.589124e+003;1.590971e-001
1.591052e+003;1.624293e-001
1.592981e+003;1.661078e-001
1.594909e+003;1.699523e-001
1.596838e+003;1.739110e-001
1.598766e+003;1.780780e-001
1.600695e+003;1.830261e-001
1.602623e+003;1.887425e-001
1.604552e+003;1.949954e-001
1.606480e+003;2.016717e-001
1.608409e+003;2.084568e-001
1.610338e+003;2.152500e-001
1.612266e+003;2.219223e-001
1.614195e+003;2.278783e-001
1.616123e+003;2.331687e-001
1.618052e+003;2.390711e-001
1.619980e+003;2.451998e-001
1.621909e+003;2.507516e-001
1.623837e+003;2.561979e-001
1.625766e+003;2.613495e-001
1.627694e+003;2.662072e-001
1.629623e+003;2.707238e-001
1.631552e+003;2.741697e-001
1.633480e+003;2.764982e-001
1.635409e+003;2.783384e-001
1.637337e+003;2.799463e-001
1.639266e+003;2.809856e-001
1.641194e+003;2.811654e-001
1.643123e+003;2.801278e-001
1.645051e+003;2.776320e-001
1.646980e+003;2.744730e-001
1.648909e+003;2.715456e-001
1.650837e+003;2.674345e-001
1.652766e+003;2.620065e-001
1.654694e+003;2.575296e-001
1.656623e+003;2.531161e-001
1.658551e+003;2.476816e-001
1.660480e+003;2.415211e-001
1.662408e+003;2.350641e-001
1.664337e+003;2.289740e-001
1.666266e+003;2.226962e-001
1.668194e+003;2.159885e-001
1.670123e+003;2.093448e-001
1.672051e+003;2.029988e-001
1.673980e+003;1.962476e-001
1.675908e+003;1.898984e-001
1.677837e+003;1.838841e-001
1.679765e+003;1.775449e-001
1.681694e+003;1.710586e-001
1.683622e+003;1.641145e-001
1.685551e+003;1.581478e-001
1.687479e+003;1.529411e-001
1.689408e+003;1.469425e-001
1.691337e+003;1.409328e-001
1.693265e+003;1.347663e-001
1.695194e+003;1.277439e-001
1.697122e+003;1.213390e-001
1.699051e+003;1.150640e-001
1.700979e+003;1.089012e-001
1.702908e+003;1.040127e-001
1.704836e+003;9.893470e-002
1.706765e+003;9.419350e-002
1.708693e+003;8.988653e-002
1.710622e+003;8.599001e-002
1.712551e+003;8.259444e-002
1.714479e+003;7.942866e-002
1.716408e+003;7.637197e-002
1.718336e+003;7.432812e-002
1.720265e+003;7.296323e-002
1.722193e+003;7.138952e-002
1.724122e+003;6.965975e-002
1.726050e+003;6.808179e-002
1.727979e+003;6.655483e-002
1.729908e+003;6.496611e-002
1.731836e+003;6.277667e-002
1.733765e+003;6.059548e-002
1.735693e+003;5.959465e-002
1.737622e+003;5.839690e-002
1.739550e+003;5.657280e-002
1.741479e+003;5.498330e-002
1.743407e+003;5.336448e-002
1.745336e+003;5.196039e-002
1.747265e+003;5.058710e-002
1.749193e+003;4.909332e-002
1.751122e+003;4.766811e-002
1.753050e+003;4.650051e-002
1.754979e+003;4.531630e-002
1.756907e+003;4.417880e-002
1.758836e+003;4.310396e-002
1.760764e+003;4.201559e-002
1.762693e+003;4.112875e-002
1.764621e+003;4.058774e-002
1.766550e+003;3.965911e-002
1.768479e+003;3.877087e-002
1.770407e+003;3.792472e-002
1.772336e+003;3.730958e-002
1.774264e+003;3.725842e-002
1.776193e+003;3.699340e-002
1.778121e+003;3.644352e-002
1.780050e+003;3.595884e-002
1.781978e+003;3.564570e-002
1.783907e+003;3.551562e-002
1.785835e+003;3.536261e-002
1.787764e+003;3.516446e-002
1.789693e+003;3.489867e-002
1.791621e+003;3.447525e-002
1.793550e+003;3.413794e-002
1.795478e+003;3.389437e-002
1.797407e+003;3.346821e-002
1.799335e+003;3.315371e-002
1.801264e+003;3.298344e-002
1.803192e+003;3.299714e-002
1.805121e+003;3.280238e-002
1.807049e+003;3.253360e-002
1.808978e+003;3.244048e-002
1.810907e+003;3.237832e-002
1.812835e+003;3.210435e-002
1.814764e+003;3.184510e-002
1.816692e+003;3.162046e-002
1.818621e+003;3.147434e-002
1.820549e+003;3.138421e-002
1.822478e+003;3.122593e-002
1.824406e+003;3.101862e-002
1.826335e+003;3.097001e-002
1.828264e+003;3.084570e-002
1.830192e+003;3.074152e-002
1.832121e+003;3.050309e-002
1.834049e+003;3.039082e-002
1.835978e+003;3.043229e-002
1.837906e+003;3.045706e-002
1.839835e+003;3.031463e-002
1.841763e+003;3.008823e-002
1.843692e+003;2.986925e-002
1.845620e+003;2.989278e-002
1.847549e+003;2.981733e-002
1.849478e+003;2.971279e-002
1.851406e+003;2.967671e-002
1.853335e+003;2.956093e-002
1.855263e+003;2.936214e-002
1.857192e+003;2.923272e-002
1.859120e+003;2.920685e-002
1.861049e+003;2.932187e-002
1.862977e+003;2.952028e-002
1.864906e+003;2.962048e-002
1.866834e+003;2.933349e-002
1.868763e+003;2.900865e-002
1.870692e+003;2.923428e-002
1.872620e+003;2.951539e-002
1.874549e+003;2.939164e-002
1.876477e+003;2.921720e-002
1.878406e+003;2.920504e-002
1.880334e+003;2.918385e-002
1.882263e+003;2.913531e-002
1.884191e+003;2.900600e-002
1.886120e+003;2.909931e-002
1.888048e+003;2.939110e-002
1.889977e+003;2.947815e-002
1.891906e+003;2.948588e-002
1.893834e+003;2.948042e-002
1.895763e+003;2.944078e-002
1.897691e+003;2.933048e-002
1.899620e+003;2.942823e-002
1.901548e+003;2.952968e-002
1.903477e+003;2.939085e-002
1.905405e+003;2.930411e-002
1.907334e+003;2.944103e-002
1.909262e+003;2.931169e-002
1.911191e+003;2.917457e-002
1.913120e+003;2.930857e-002
1.915048e+003;2.938880e-002
1.916977e+003;2.928015e-002
1.918905e+003;2.919966e-002
1.920834e+003;2.924846e-002
1.922762e+003;2.942103e-002
1.924691e+003;2.948702e-002
1.926619e+003;2.946414e-002
1.928548e+003;2.954245e-002
1.930477e+003;2.974320e-002
1.932405e+003;2.968629e-002
1.934334e+003;2.950773e-002
1.936262e+003;2.945698e-002
1.938191e+003;2.937706e-002
1.940119e+003;2.925626e-002
1.942048e+003;2.937458e-002
1.943976e+003;2.964180e-002
1.945905e+003;2.964169e-002
1.947833e+003;2.966067e-002
1.949762e+003;2.964964e-002
1.951691e+003;2.962474e-002
1.953619e+003;2.962853e-002
1.955548e+003;2.972017e-002
1.957476e+003;2.974813e-002
1.959405e+003;2.974983e-002
1.961333e+003;2.971744e-002
1.963262e+003;2.973277e-002
1.965190e+003;2.982279e-002
1.967119e+003;2.987323e-002
1.969047e+003;2.975526e-002
1.970976e+003;2.967642e-002
1.972905e+003;2.977329e-002
1.974833e+003;2.974699e-002
1.976762e+003;2.979022e-002
1.978690e+003;2.996665e-002
1.980619e+003;2.995441e-002
1.982547e+003;2.965844e-002
1.984476e+003;2.971215e-002
1.986404e+003;3.001508e-002
1.988333e+003;3.003358e-002
1.990261e+003;2.994280e-002
1.992190e+003;2.991642e-002
1.994119e+003;3.000198e-002
1.996047e+003;3.003024e-002
1.997976e+003;3.002541e-002
1.999904e+003;3.000351e-002
2.001833e+003;3.009391e-002
2.003761e+003;3.009366e-002
2.005690e+003;3.012985e-002
2.007618e+003;3.017808e-002
2.009547e+003;3.010953e-002
2.011476e+003;3.011110e-002
2.013404e+003;3.002268e-002
2.015333e+003;3.009661e-002
2.017261e+003;3.030806e-002
2.019190e+003;3.043812e-002
2.021118e+003;3.050223e-002
2.023047e+003;3.047184e-002
2.024975e+003;3.045717e-002
2.026904e+003;3.045034e-002
2.028833e+003;3.044626e-002
2.030761e+003;3.042724e-002
2.032690e+003;3.043023e-002
2.034618e+003;3.042443e-002
2.036547e+003;3.041669e-002
2.038475e+003;3.054169e-002
2.040404e+003;3.065695e-002
2.042332e+003;3.065169e-002
2.044261e+003;3.043218e-002
2.046189e+003;3.026582e-002
2.048118e+003;3.031229e-002
2.050047e+003;3.042898e-002
2.051975e+003;3.046097e-002
2.053904e+003;3.054578e-002
2.055832e+003;3.062097e-002
2.057761e+003;3.063505e-002
2.059689e+003;3.064966e-002
2.061618e+003;3.063213e-002
2.063546e+003;3.061816e-002
2.065475e+003;3.060031e-002
2.067404e+003;3.087377e-002
2.069332e+003;3.098783e-002
2.071260e+003;3.068316e-002
2.073189e+003;3.060255e-002
2.075118e+003;3.059470e-002
2.077046e+003;3.054414e-002
2.078975e+003;3.054869e-002
2.080903e+003;3.063747e-002
2.082832e+003;3.050661e-002
2.084760e+003;3.033535e-002
2.086689e+003;3.035159e-002
2.088617e+003;3.055559e-002
2.090546e+003;3.051020e-002
2.092475e+003;3.036157e-002
2.094403e+003;3.027243e-002
2.096332e+003;3.024642e-002
2.098260e+003;3.031773e-002
2.100189e+003;3.030376e-002
2.102117e+003;3.018451e-002
2.104046e+003;3.018927e-002
2.105974e+003;3.032774e-002
2.107903e+003;3.049694e-002
2.109832e+003;3.043154e-002
2.111760e+003;3.037788e-002
2.113688e+003;3.041224e-002
2.115617e+003;3.040371e-002
2.117546e+003;3.028284e-002
2.119474e+003;3.011088e-002
2.121403e+003;3.011472e-002
2.123331e+003;3.031289e-002
2.125260e+003;3.042177e-002
2.127188e+003;3.041768e-002
2.129117e+003;3.029243e-002
2.131045e+003;3.024248e-002
2.132974e+003;3.033066e-002
2.134903e+003;3.041860e-002
2.136831e+003;3.036974e-002
2.138760e+003;3.028390e-002
2.140688e+003;3.034004e-002
2.142617e+003;3.013326e-002
2.144545e+003;2.994266e-002
2.146474e+003;2.986815e-002
2.148402e+003;2.975033e-002
2.150331e+003;2.981474e-002
2.152260e+003;3.012680e-002
2.154188e+003;3.016409e-002
2.156117e+003;3.012893e-002
2.158045e+003;3.015656e-002
2.159974e+003;3.013851e-002
2.161902e+003;3.010115e-002
2.163831e+003;2.995874e-002
2.165759e+003;2.995980e-002
2.167688e+003;3.004263e-002
2.169616e+003;2.993747e-002
2.171545e+003;2.986151e-002
2.173474e+003;2.995934e-002
2.175402e+003;3.004256e-002
2.177331e+003;3.006223e-002
2.179259e+003;3.005677e-002
2.181188e+003;3.008773e-002
2.183116e+003;3.025069e-002
2.185045e+003;3.031140e-002
2.186973e+003;3.031570e-002
2.188902e+003;3.027815e-002
2.190831e+003;3.025800e-002
2.192759e+003;3.016501e-002
2.194688e+003;3.021889e-002
2.196616e+003;3.046239e-002
2.198545e+003;3.030000e-002
2.200473e+003;3.014700e-002
2.202402e+003;3.013656e-002
2.204330e+003;3.016210e-002
2.206259e+003;3.022319e-002
2.208188e+003;3.030117e-002
2.210116e+003;3.029815e-002
2.212044e+003;3.042426e-002
2.213973e+003;3.052022e-002
2.215902e+003;3.023850e-002
2.217830e+003;3.009885e-002
2.219759e+003;3.027204e-002
2.221687e+003;3.045997e-002
2.223616e+003;3.041882e-002
2.225544e+003;3.045606e-002
2.227473e+003;3.054642e-002
2.229401e+003;3.072580e-002
2.231330e+003;3.058286e-002
2.233259e+003;3.040109e-002
2.235187e+003;3.054788e-002
2.237116e+003;3.063583e-002
2.239044e+003;3.054450e-002
2.240973e+003;3.051290e-002
2.242901e+003;3.066367e-002
2.244830e+003;3.078064e-002
2.246758e+003;3.062833e-002
2.248687e+003;3.052257e-002
2.250615e+003;3.059253e-002
2.252544e+003;3.058133e-002
2.254473e+003;3.048030e-002
2.256401e+003;3.049896e-002
2.258330e+003;3.052452e-002
2.260258e+003;3.053081e-002
2.262187e+003;3.081222e-002
2.264115e+003;3.100726e-002
2.266044e+003;3.100058e-002
2.267972e+003;3.083542e-002
2.269901e+003;3.069667e-002
2.271830e+003;3.069628e-002
2.273758e+003;3.070051e-002
2.275687e+003;3.085328e-002
2.277615e+003;3.097965e-002
2.279544e+003;3.087370e-002
2.281472e+003;3.078320e-002
2.283401e+003;3.086242e-002
2.285329e+003;3.087843e-002
2.287258e+003;3.094567e-002
2.289187e+003;3.117274e-002
2.291115e+003;3.130978e-002
2.293043e+003;3.121115e-002
2.294972e+003;3.114280e-002
2.296901e+003;3.121663e-002
2.298829e+003;3.098695e-002
2.300758e+003;3.084395e-002
2.302686e+003;3.113301e-002
2.304615e+003;3.137609e-002
2.306543e+003;3.130390e-002
2.308472e+003;3.121087e-002
2.310400e+003;3.115732e-002
2.312329e+003;3.099641e-002
2.314258e+003;3.109909e-002
2.316186e+003;3.120182e-002
2.318115e+003;3.107656e-002
2.320043e+003;3.104695e-002
2.321972e+003;3.120503e-002
2.323900e+003;3.115597e-002
2.325829e+003;3.110169e-002
2.327757e+003;3.104791e-002
2.329686e+003;3.095759e-002
2.331615e+003;3.114159e-002
2.333543e+003;3.141631e-002
2.335472e+003;3.157449e-002
2.337400e+003;3.158560e-002
2.339329e+003;3.130380e-002
2.341257e+003;3.118730e-002
2.343186e+003;3.138400e-002
2.345114e+003;3.165111e-002
2.347043e+003;3.210792e-002
2.348971e+003;3.260550e-002
2.350900e+003;3.262846e-002
2.352829e+003;3.218309e-002
2.354757e+003;3.199384e-002
2.356686e+003;3.190964e-002
2.358614e+003;3.197540e-002
2.360543e+003;3.209165e-002
2.362471e+003;3.220204e-002
2.364400e+003;3.221942e-002
2.366328e+003;3.238175e-002
2.368257e+003;3.269887e-002
2.370186e+003;3.298391e-002
2.372114e+003;3.304018e-002
2.374042e+003;3.324889e-002
2.375971e+003;3.347788e-002
2.377900e+003;3.382696e-002
2.379828e+003;3.434161e-002
2.381757e+003;3.441244e-002
2.383685e+003;3.428772e-002
2.385614e+003;3.447493e-002
2.387542e+003;3.461711e-002
2.389471e+003;3.472247e-002
2.391399e+003;3.499810e-002
2.393328e+003;3.501233e-002
2.395257e+003;3.509677e-002
2.397185e+003;3.507770e-002
2.399114e+003;3.511409e-002
2.401042e+003;3.539184e-002
2.402971e+003;3.562585e-002
2.404899e+003;3.570897e-002
2.406828e+003;3.580597e-002
2.408756e+003;3.595927e-002
2.410685e+003;3.612103e-002
2.412614e+003;3.636375e-002
2.414542e+003;3.653149e-002
2.416471e+003;3.669433e-002
2.418399e+003;3.677517e-002
2.420328e+003;3.692485e-002
2.422256e+003;3.706733e-002
2.424185e+003;3.721149e-002
2.426113e+003;3.755665e-002
2.428042e+003;3.785567e-002
2.429970e+003;3.800825e-002
2.431899e+003;3.793405e-002
2.433828e+003;3.785697e-002
2.435756e+003;3.813640e-002
2.437685e+003;3.856315e-002
2.439613e+003;3.877084e-002
2.441542e+003;3.869357e-002
2.443470e+003;3.862417e-002
2.445399e+003;3.881377e-002
2.447327e+003;3.899021e-002
2.449256e+003;3.898145e-002
2.451185e+003;3.918407e-002
2.453113e+003;3.966329e-002
2.455042e+003;3.986453e-002
2.456970e+003;3.994444e-002
2.458899e+003;3.995029e-002
2.460827e+003;4.001230e-002
2.462756e+003;3.998327e-002
2.464684e+003;4.014093e-002
2.466613e+003;4.055849e-002
2.468542e+003;4.082347e-002
2.470470e+003;4.088878e-002
2.472398e+003;4.106465e-002
2.474327e+003;4.124260e-002
2.476256e+003;4.135144e-002
2.478184e+003;4.155809e-002
2.480113e+003;4.171180e-002
2.482041e+003;4.195599e-002
2.483970e+003;4.224790e-002
2.485898e+003;4.237647e-002
2.487827e+003;4.247745e-002
2.489755e+003;4.251611e-002
2.491684e+003;4.225254e-002
2.493613e+003;4.215786e-002
2.495541e+003;4.235148e-002
2.497470e+003;4.263620e-002
2.499398e+003;4.301695e-002
2.501327e+003;4.329728e-002
2.503255e+003;4.315087e-002
2.505184e+003;4.305280e-002
2.507112e+003;4.321568e-002
2.509041e+003;4.332173e-002
2.510969e+003;4.352196e-002
2.512898e+003;4.379121e-002
2.514827e+003;4.390733e-002
2.516755e+003;4.422095e-002
2.518684e+003;4.429576e-002
2.520612e+003;4.426175e-002
2.522541e+003;4.433843e-002
2.524469e+003;4.453921e-002
2.526398e+003;4.467569e-002
2.528326e+003;4.472453e-002
2.530255e+003;4.481317e-002
2.532184e+003;4.482466e-002
2.534112e+003;4.467550e-002
2.536041e+003;4.470569e-002
2.537969e+003;4.502860e-002
2.539898e+003;4.518116e-002
2.541826e+003;4.519333e-002
2.543755e+003;4.505859e-002
2.545683e+003;4.512042e-002
2.547612e+003;4.514163e-002
2.549541e+003;4.517399e-002
2.551469e+003;4.542326e-002
2.553397e+003;4.558015e-002
2.555326e+003;4.558869e-002
2.557255e+003;4.583916e-002
2.559183e+003;4.623326e-002
2.561112e+003;4.617039e-002
2.563040e+003;4.591332e-002
2.564969e+003;4.609124e-002
2.566897e+003;4.626396e-002
2.568826e+003;4.648558e-002
2.570754e+003;4.686060e-002
2.572683e+003;4.685174e-002
2.574612e+003;4.687747e-002
2.576540e+003;4.717015e-002
2.578469e+003;4.724769e-002
2.580397e+003;4.741115e-002
2.582326e+003;4.765598e-002
2.584254e+003;4.766867e-002
2.586183e+003;4.777173e-002
2.588111e+003;4.796822e-002
2.590040e+003;4.799290e-002
2.591969e+003;4.799104e-002
2.593897e+003;4.817648e-002
2.595826e+003;4.826482e-002
2.597754e+003;4.835878e-002
2.599683e+003;4.852755e-002
2.601611e+003;4.869620e-002
2.603540e+003;4.873119e-002
2.605468e+003;4.864591e-002
2.607397e+003;4.872037e-002
2.609325e+003;4.896119e-002
2.611254e+003;4.904331e-002
2.613183e+003;4.906134e-002
2.615111e+003;4.934322e-002
2.617040e+003;4.925596e-002
2.618968e+003;4.931200e-002
2.620897e+003;4.965634e-002
2.622825e+003;4.970422e-002
2.624754e+003;4.963315e-002
2.626682e+003;4.941654e-002
2.628611e+003;4.935714e-002
2.630540e+003;4.968260e-002
2.632468e+003;4.985746e-002
2.634396e+003;4.986415e-002
2.636325e+003;4.999198e-002
2.638254e+003;5.000592e-002
2.640182e+003;5.005221e-002
2.642111e+003;5.017043e-002
2.644039e+003;5.026892e-002
2.645968e+003;5.018854e-002
2.647896e+003;5.008895e-002
2.649825e+003;5.025337e-002
2.651753e+003;5.045470e-002
2.653682e+003;5.069079e-002
2.655611e+003;5.078140e-002
2.657539e+003;5.070386e-002
2.659468e+003;5.067857e-002
2.661396e+003;5.086136e-002
2.663325e+003;5.100961e-002
2.665253e+003;5.110863e-002
2.667182e+003;5.119064e-002
2.669110e+003;5.125058e-002
2.671039e+003;5.115657e-002
2.672968e+003;5.115824e-002
2.674896e+003;5.137916e-002
2.676825e+003;5.169360e-002
2.678753e+003;5.186177e-002
2.680682e+003;5.162758e-002
2.682610e+003;5.167307e-002
2.684539e+003;5.207767e-002
2.686467e+003;5.245665e-002
2.688396e+003;5.249479e-002
2.690324e+003;5.227461e-002
2.692253e+003;5.233430e-002
2.694182e+003;5.256771e-002
2.696110e+003;5.266936e-002
2.698039e+003;5.295637e-002
2.699967e+003;5.303105e-002
2.701896e+003;5.305186e-002
2.703824e+003;5.323258e-002
2.705753e+003;5.337010e-002
2.707681e+003;5.341345e-002
2.709610e+003;5.358596e-002
2.711539e+003;5.371572e-002
2.713467e+003;5.403287e-002
2.715396e+003;5.427417e-002
2.717324e+003;5.451389e-002
2.719253e+003;5.480222e-002
2.721181e+003;5.487564e-002
2.723110e+003;5.499518e-002
2.725038e+003;5.524613e-002
2.726967e+003;5.535489e-002
2.728896e+003;5.534533e-002
2.730824e+003;5.556726e-002
2.732752e+003;5.594067e-002
2.734681e+003;5.633674e-002
2.736610e+003;5.631086e-002
2.738538e+003;5.602088e-002
2.740467e+003;5.610891e-002
2.742395e+003;5.642562e-002
2.744324e+003;5.669892e-002
2.746252e+003;5.669318e-002
2.748181e+003;5.686058e-002
2.750109e+003;5.705566e-002
2.752038e+003;5.741273e-002
2.753967e+003;5.790024e-002
2.755895e+003;5.815988e-002
2.757824e+003;5.807231e-002
2.759752e+003;5.798324e-002
2.761681e+003;5.807091e-002
2.763609e+003;5.815742e-002
2.765538e+003;5.832648e-002
2.767466e+003;5.860951e-002
2.769395e+003;5.872576e-002
2.771323e+003;5.853197e-002
2.773252e+003;5.855078e-002
2.775181e+003;5.882408e-002
2.777109e+003;5.916598e-002
2.779038e+003;5.959047e-002
2.780966e+003;5.989646e-002
2.782895e+003;5.994328e-002
2.784823e+003;6.002279e-002
2.786752e+003;6.017651e-002
2.788680e+003;6.035329e-002
2.790609e+003;6.059795e-002
2.792538e+003;6.093858e-002
2.794466e+003;6.130184e-002
2.796395e+003;6.153936e-002
2.798323e+003;6.149515e-002
2.800252e+003;6.164585e-002
2.802180e+003;6.184924e-002
2.804109e+003;6.209528e-002
2.806037e+003;6.273571e-002
2.807966e+003;6.321149e-002
2.809895e+003;6.317925e-002
2.811823e+003;6.300090e-002
2.813751e+003;6.317918e-002
2.815680e+003;6.365357e-002
2.817609e+003;6.426495e-002
2.819537e+003;6.462277e-002
2.821466e+003;6.457224e-002
2.823394e+003;6.481498e-002
2.825323e+003;6.531080e-002
2.827251e+003;6.557399e-002
2.829180e+003;6.574349e-002
2.831108e+003;6.627669e-002
2.833037e+003;6.704517e-002
2.834966e+003;6.742840e-002
2.836894e+003;6.773938e-002
2.838823e+003;6.794782e-002
2.840751e+003;6.834891e-002
2.842680e+003;6.895898e-002
2.844608e+003;6.977137e-002
2.846537e+003;7.076468e-002
2.848465e+003;7.152158e-002
2.850394e+003;7.200583e-002
2.852323e+003;7.263204e-002
2.854251e+003;7.339550e-002
2.856180e+003;7.389155e-002
2.858108e+003;7.456256e-002
2.860037e+003;7.530997e-002
2.861965e+003;7.605277e-002
2.863894e+003;7.671121e-002
2.865822e+003;7.726815e-002
2.867751e+003;7.818609e-002
2.869679e+003;7.920016e-002
2.871608e+003;7.971901e-002
2.873536e+003;8.003183e-002
2.875465e+003;8.041377e-002
2.877394e+003;8.049525e-002
2.879322e+003;8.035912e-002
2.881251e+003;8.019847e-002
2.883179e+003;7.987637e-002
2.885108e+003;7.960680e-002
2.887036e+003;7.961003e-002
2.888965e+003;7.972255e-002
2.890893e+003;7.994412e-002
2.892822e+003;8.004203e-002
2.894750e+003;8.011781e-002
2.896679e+003;8.069326e-002
2.898608e+003;8.126100e-002
2.900536e+003;8.146769e-002
2.902465e+003;8.168362e-002
2.904393e+003;8.200835e-002
2.906322e+003;8.243378e-002
2.908250e+003;8.348867e-002
2.910179e+003;8.425175e-002
2.912107e+003;8.461750e-002
2.914036e+003;8.523954e-002
2.915965e+003;8.610009e-002
2.917893e+003;8.714247e-002
2.919822e+003;8.807237e-002
2.921750e+003;8.848298e-002
2.923679e+003;8.894791e-002
2.925607e+003;8.989880e-002
2.927536e+003;9.076006e-002
2.929464e+003;9.103554e-002
2.931393e+003;9.121013e-002
2.933322e+003;9.154075e-002
2.935250e+003;9.131312e-002
2.937178e+003;9.093499e-002
2.939107e+003;9.115070e-002
2.941036e+003;9.099272e-002
2.942964e+003;9.029119e-002
2.944893e+003;8.973101e-002
2.946821e+003;8.968429e-002
2.948750e+003;8.947822e-002
2.950678e+003;8.923465e-002
2.952607e+003;8.937314e-002
2.954535e+003;8.950952e-002
2.956464e+003;8.973928e-002
2.958393e+003;8.998688e-002
2.960321e+003;9.005516e-002
2.962250e+003;8.976983e-002
2.964178e+003;8.949357e-002
2.966107e+003;8.918139e-002
2.968035e+003;8.844781e-002
2.969964e+003;8.778352e-002
2.971892e+003;8.744371e-002
2.973821e+003;8.701407e-002
2.975750e+003;8.608029e-002
2.977678e+003;8.506726e-002
2.979607e+003;8.413032e-002
2.981535e+003;8.336323e-002
2.983464e+003;8.262254e-002
2.985392e+003;8.197165e-002
2.987321e+003;8.111972e-002
2.989249e+003;8.031889e-002
2.991178e+003;7.966973e-002
2.993106e+003;7.885861e-002
2.995035e+003;7.823401e-002
2.996964e+003;7.838694e-002
2.998892e+003;7.860770e-002
3.000821e+003;7.845426e-002
3.002749e+003;7.797454e-002
3.004678e+003;7.742287e-002
3.006606e+003;7.720038e-002
3.008535e+003;7.744382e-002
3.010463e+003;7.758598e-002
3.012392e+003;7.789235e-002
3.014321e+003;7.800737e-002
3.016249e+003;7.782750e-002
3.018177e+003;7.791062e-002
3.020106e+003;7.846113e-002
3.022035e+003;7.889338e-002
3.023963e+003;7.921841e-002
3.025892e+003;7.951459e-002
3.027820e+003;7.941509e-002
3.029749e+003;7.952554e-002
3.031677e+003;7.982413e-002
3.033606e+003;8.017237e-002
3.035534e+003;8.057294e-002
3.037463e+003;8.097672e-002
3.039392e+003;8.124806e-002
3.041320e+003;8.132374e-002
3.043249e+003;8.141580e-002
3.045177e+003;8.169374e-002
3.047106e+003;8.223864e-002
3.049034e+003;8.275308e-002
3.050963e+003;8.297893e-002
3.052891e+003;8.326741e-002
3.054820e+003;8.333120e-002
3.056749e+003;8.344513e-002
3.058677e+003;8.371979e-002
3.060606e+003;8.375836e-002
3.062534e+003;8.355690e-002
3.064463e+003;8.333172e-002
3.066391e+003;8.350834e-002
3.068320e+003;8.352264e-002
3.070248e+003;8.284181e-002
3.072177e+003;8.256374e-002
3.074105e+003;8.288656e-002
3.076034e+003;8.284145e-002
3.077963e+003;8.270137e-002
3.079891e+003;8.257520e-002
3.081820e+003;8.261260e-002
3.083748e+003;8.241975e-002
3.085677e+003;8.205997e-002
3.087605e+003;8.180369e-002
3.089534e+003;8.173545e-002
3.091462e+003;8.196329e-002
3.093391e+003;8.169146e-002
3.095320e+003;8.121914e-002
3.097248e+003;8.121918e-002
3.099177e+003;8.135602e-002
3.101105e+003;8.117536e-002
3.103034e+003;8.108074e-002
3.104962e+003;8.120256e-002
3.106891e+003;8.125941e-002
3.108819e+003;8.123108e-002
3.110748e+003;8.103789e-002
3.112677e+003;8.094558e-002
3.114605e+003;8.118434e-002
3.116533e+003;8.120396e-002
3.118462e+003;8.120484e-002
3.120391e+003;8.182357e-002
3.122319e+003;8.223396e-002
3.124248e+003;8.232106e-002
3.126176e+003;8.207919e-002
3.128105e+003;8.204117e-002
3.130033e+003;8.246189e-002
3.131962e+003;8.296473e-002
3.133890e+003;8.349898e-002
3.135819e+003;8.405400e-002
3.137748e+003;8.438940e-002
3.139676e+003;8.441909e-002
3.141605e+003;8.464899e-002
3.143533e+003;8.515706e-002
3.145462e+003;8.548601e-002
3.147390e+003;8.571473e-002
3.149319e+003;8.631317e-002
3.151247e+003;8.719747e-002
3.153176e+003;8.765250e-002
3.155104e+003;8.816130e-002
3.157033e+003;8.853653e-002
3.158962e+003;8.869695e-002
3.160890e+003;8.920722e-002
3.162819e+003;8.940046e-002
3.164747e+003;9.001362e-002
3.166676e+003;9.108993e-002
3.168604e+003;9.176229e-002
3.170533e+003;9.194356e-002
3.172461e+003;9.215879e-002
3.174390e+003;9.280208e-002
3.176319e+003;9.367574e-002
3.178247e+003;9.439535e-002
3.180176e+003;9.501310e-002
3.182104e+003;9.528489e-002
3.184033e+003;9.535839e-002
3.185961e+003;9.573126e-002
3.187890e+003;9.625925e-002
3.189818e+003;9.670413e-002
3.191747e+003;9.745122e-002
3.193676e+003;9.800660e-002
3.195604e+003;9.817596e-002
3.197532e+003;9.842418e-002
3.199461e+003;9.884600e-002
3.201390e+003;9.911396e-002
3.203318e+003;9.944528e-002
3.205247e+003;1.001403e-001
3.207175e+003;1.003911e-001
3.209104e+003;9.999554e-002
3.211032e+003;9.997894e-002
3.212961e+003;1.005440e-001
3.214889e+003;1.008671e-001
3.216818e+003;1.008683e-001
3.218747e+003;1.012923e-001
3.220675e+003;1.017795e-001
3.222604e+003;1.018912e-001
3.224532e+003;1.016479e-001
3.226461e+003;1.016389e-001
3.228389e+003;1.017596e-001
3.230318e+003;1.023051e-001
3.232246e+003;1.027754e-001
3.234175e+003;1.029473e-001
3.236104e+003;1.031857e-001
3.238032e+003;1.037524e-001
3.239961e+003;1.045155e-001
3.241889e+003;1.049427e-001
3.243818e+003;1.054013e-001
3.245746e+003;1.057989e-001
3.247675e+003;1.061431e-001
3.249603e+003;1.065450e-001
3.251532e+003;1.070097e-001
3.253460e+003;1.074000e-001
3.255389e+003;1.078285e-001
3.257318e+003;1.081003e-001
3.259246e+003;1.081771e-001
3.261175e+003;1.083667e-001
3.263103e+003;1.088783e-001
3.265032e+003;1.093527e-001
3.266960e+003;1.099610e-001
3.268889e+003;1.103617e-001
3.270817e+003;1.107795e-001
3.272746e+003;1.112196e-001
3.274675e+003;1.110354e-001
3.276603e+003;1.105887e-001
3.278531e+003;1.110491e-001
3.280460e+003;1.116633e-001
3.282389e+003;1.115328e-001
3.284317e+003;1.114994e-001
3.286246e+003;1.118670e-001
3.288174e+003;1.118974e-001
3.290103e+003;1.115462e-001
3.292031e+003;1.111670e-001
3.293960e+003;1.109575e-001
3.295888e+003;1.108414e-001
3.297817e+003;1.103546e-001
3.299746e+003;1.101165e-001
3.301674e+003;1.099770e-001
3.303603e+003;1.097828e-001
3.305531e+003;1.094760e-001
3.307460e+003;1.091757e-001
3.309388e+003;1.086067e-001
3.311317e+003;1.078611e-001
3.313245e+003;1.077005e-001
3.315174e+003;1.075171e-001
3.317103e+003;1.071516e-001
3.319031e+003;1.063211e-001
3.320960e+003;1.056001e-001
3.322888e+003;1.050193e-001
3.324817e+003;1.046504e-001
3.326745e+003;1.040117e-001
3.328674e+003;1.036673e-001
3.330602e+003;1.036239e-001
3.332531e+003;1.030319e-001
3.334459e+003;1.025436e-001
3.336388e+003;1.023591e-001
3.338317e+003;1.016162e-001
3.340245e+003;1.006063e-001
3.342174e+003;1.003250e-001
3.344102e+003;1.001025e-001
3.346031e+003;9.915080e-002
3.347959e+003;9.821513e-002
3.349888e+003;9.784058e-002
3.351816e+003;9.733745e-002
3.353745e+003;9.649165e-002
3.355674e+003;9.535406e-002
3.357602e+003;9.467978e-002
3.359531e+003;9.418387e-002
3.361459e+003;9.326327e-002
3.363388e+003;9.241835e-002
3.365316e+003;9.152893e-002
3.367245e+003;9.082724e-002
3.369173e+003;9.044219e-002
3.371102e+003;8.959512e-002
3.373031e+003;8.873256e-002
3.374959e+003;8.795170e-002
3.376887e+003;8.707436e-002
3.378816e+003;8.627190e-002
3.380745e+003;8.563675e-002
3.382673e+003;8.499109e-002
3.384602e+003;8.444429e-002
3.386530e+003;8.387177e-002
3.388459e+003;8.370923e-002
3.390387e+003;8.332485e-002
3.392316e+003;8.220877e-002
3.394244e+003;8.132505e-002
3.396173e+003;8.096666e-002
3.398102e+003;8.021505e-002
3.400030e+003;7.928912e-002
3.401959e+003;7.867382e-002
3.403887e+003;7.787748e-002
3.405816e+003;7.711683e-002
3.407744e+003;7.656325e-002
3.409673e+003;7.579425e-002
3.411601e+003;7.538154e-002
3.413530e+003;7.504766e-002
3.415458e+003;7.448570e-002
3.417387e+003;7.391268e-002
3.419316e+003;7.296405e-002
3.421244e+003;7.193153e-002
3.423173e+003;7.120460e-002
3.425101e+003;7.084506e-002
3.427030e+003;7.024226e-002
3.428958e+003;6.922808e-002
3.430887e+003;6.816229e-002
3.432815e+003;6.759089e-002
3.434744e+003;6.713868e-002
3.436673e+003;6.610678e-002
3.438601e+003;6.519852e-002
3.440530e+003;6.454761e-002
3.442458e+003;6.412993e-002
3.444387e+003;6.361497e-002
3.446315e+003;6.292020e-002
3.448244e+003;6.240063e-002
3.450172e+003;6.162710e-002
3.452101e+003;6.125315e-002
3.454030e+003;6.092501e-002
3.455958e+003;6.038136e-002
3.457886e+003;6.004067e-002
3.459815e+003;5.969614e-002
3.461744e+003;5.954099e-002
3.463672e+003;5.966816e-002
3.465601e+003;5.919826e-002
3.467529e+003;5.855912e-002
3.469458e+003;5.793602e-002
3.471386e+003;5.702011e-002
3.473315e+003;5.672814e-002
3.475243e+003;5.677817e-002
3.477172e+003;5.664697e-002
3.479101e+003;5.614869e-002
3.481029e+003;5.513597e-002
3.482958e+003;5.440008e-002
3.484886e+003;5.412593e-002
3.486815e+003;5.369389e-002
3.488743e+003;5.312825e-002
3.490672e+003;5.266903e-002
3.492600e+003;5.222270e-002
3.494529e+003;5.177348e-002
3.496458e+003;5.135354e-002
3.498386e+003;5.109297e-002
3.500315e+003;5.082415e-002
3.502243e+003;5.018832e-002
3.504172e+003;4.934236e-002
3.506100e+003;4.919828e-002
3.508029e+003;4.896086e-002
3.509957e+003;4.856886e-002
3.511886e+003;4.836448e-002
3.513814e+003;4.815631e-002
3.515743e+003;4.746071e-002
3.517672e+003;4.739762e-002
3.519600e+003;4.722575e-002
3.521529e+003;4.607776e-002
3.523457e+003;4.514075e-002
3.525386e+003;4.469405e-002
3.527314e+003;4.452041e-002
3.529243e+003;4.422539e-002
3.531171e+003;4.390469e-002
3.533100e+003;4.415932e-002
3.535029e+003;4.438541e-002
3.536957e+003;4.394230e-002
3.538885e+003;4.320273e-002
3.540814e+003;4.276847e-002
3.542743e+003;4.266468e-002
3.544671e+003;4.226715e-002
3.546600e+003;4.190647e-002
3.548528e+003;4.137601e-002
3.550457e+003;4.056304e-002
3.552385e+003;4.028196e-002
3.554314e+003;3.999228e-002
3.556242e+003;3.960652e-002
3.558171e+003;3.951244e-002
3.560100e+003;3.912877e-002
3.562028e+003;3.869053e-002
3.563957e+003;3.824487e-002
3.565885e+003;3.724210e-002
3.567814e+003;3.656595e-002
3.569742e+003;3.654515e-002
3.571671e+003;3.640133e-002
3.573599e+003;3.630006e-002
3.575528e+003;3.593538e-002
3.577457e+003;3.553694e-002
3.579385e+003;3.492624e-002
3.581314e+003;3.423996e-002
3.583242e+003;3.345952e-002
3.585171e+003;3.286152e-002
3.587099e+003;3.268594e-002
3.589028e+003;3.212636e-002
3.590956e+003;3.165353e-002
3.592885e+003;3.186627e-002
3.594813e+003;3.131509e-002
3.596742e+003;3.023157e-002
3.598671e+003;2.975342e-002
3.600599e+003;2.958395e-002
3.602528e+003;2.945599e-002
3.604456e+003;2.883600e-002
3.606385e+003;2.793825e-002
3.608313e+003;2.693627e-002
3.610242e+003;2.663446e-002
3.612170e+003;2.653618e-002
3.614099e+003;2.626791e-002
3.616028e+003;2.582092e-002
3.617956e+003;2.550245e-002
3.619885e+003;2.508858e-002
3.621813e+003;2.469840e-002
3.623742e+003;2.393455e-002
3.625670e+003;2.257641e-002
3.627599e+003;2.134438e-002
3.629527e+003;2.102615e-002
3.631456e+003;2.140588e-002
3.633385e+003;2.064626e-002
3.635313e+003;1.972581e-002
3.637241e+003;1.945509e-002
3.639170e+003;1.894528e-002
3.641099e+003;1.810925e-002
3.643027e+003;1.714352e-002
3.644956e+003;1.602337e-002
3.646884e+003;1.512068e-002
3.648813e+003;1.420877e-002
3.650741e+003;1.391509e-002
3.652670e+003;1.403739e-002
3.654598e+003;1.284145e-002
3.656527e+003;1.160640e-002
3.658456e+003;1.130243e-002
3.660384e+003;1.057867e-002
3.662313e+003;9.755191e-003
3.664241e+003;8.941622e-003
3.666170e+003;8.373593e-003
3.668098e+003;7.451694e-003
3.670027e+003;6.228757e-003
3.671955e+003;6.088245e-003
3.673884e+003;5.802321e-003
3.675813e+003;5.053837e-003
3.677741e+003;4.816399e-003
3.679669e+003;4.667468e-003
3.681598e+003;4.495521e-003
3.683527e+003;3.810181e-003
3.685455e+003;2.796918e-003
3.687384e+003;1.599705e-003
3.689312e+003;1.004094e-003
3.691241e+003;1.111145e-003
3.693169e+003;1.272719e-003
3.695098e+003;1.422452e-003
3.697026e+003;1.530072e-003
3.698955e+003;9.887178e-004
3.700884e+003;1.519462e-004
3.702812e+003;2.812334e-004
3.704741e+003;5.953627e-004
3.706669e+003;3.896654e-004
3.708598e+003;2.464878e-004
3.710526e+003;-2.579050e-004
3.712455e+003;-5.678773e-004
3.714383e+003;-4.394663e-004
3.716312e+003;-4.924239e-004
3.718240e+003;-4.583001e-004
3.720169e+003;-6.017279e-004
3.722098e+003;-1.149620e-003
3.724026e+003;-1.259287e-003
3.725955e+003;-1.163169e-003
3.727883e+003;-1.045676e-003
3.729812e+003;-8.491238e-004
3.731740e+003;-1.054601e-003
3.733669e+003;-1.364996e-003
3.735597e+003;-1.446804e-003
3.737526e+003;-1.740749e-003
3.739455e+003;-1.904999e-003
3.741383e+003;-1.758239e-003
3.743312e+003;-2.450789e-003
3.745240e+003;-2.350551e-003
3.747169e+003;-2.086500e-003
3.749097e+003;-2.526299e-003
3.751026e+003;-2.600609e-003
3.752954e+003;-2.410525e-003
3.754883e+003;-2.027206e-003
3.756812e+003;-1.653253e-003
3.758740e+003;-1.167035e-003
3.760668e+003;-1.655002e-003
3.762597e+003;-2.359910e-003
3.764526e+003;-2.672404e-003
3.766454e+003;-2.297556e-003
3.768383e+003;-2.234632e-003
3.770311e+003;-2.456950e-003
3.772240e+003;-2.306521e-003
3.774168e+003;-1.848881e-003
3.776097e+003;-1.623545e-003
3.778025e+003;-1.676094e-003
3.779954e+003;-1.861089e-003
3.781883e+003;-2.298940e-003
3.783811e+003;-2.309982e-003
3.785740e+003;-1.619253e-003
3.787668e+003;-1.064220e-003
3.789597e+003;-1.474378e-003
3.791525e+003;-1.858812e-003
3.793454e+003;-1.821034e-003
3.795382e+003;-1.560391e-003
3.797311e+003;-1.325457e-003
3.799240e+003;-1.747316e-003
3.801168e+003;-2.580089e-003
3.803097e+003;-2.483900e-003
3.805025e+003;-2.537828e-003
3.806954e+003;-2.920862e-003
3.808882e+003;-2.320627e-003
3.810811e+003;-2.092237e-003
3.812739e+003;-3.002838e-003
3.814668e+003;-3.807394e-003
3.816596e+003;-2.813950e-003
3.818525e+003;-2.217326e-003
3.820454e+003;-2.429010e-003
3.822382e+003;-2.029416e-003
3.824311e+003;-2.074563e-003
3.826239e+003;-2.461135e-003
3.828168e+003;-2.302236e-003
3.830096e+003;-2.273957e-003
3.832025e+003;-1.984891e-003
3.833953e+003;-1.742300e-003
3.835882e+003;-2.294161e-003
3.837811e+003;-2.561084e-003
3.839739e+003;-2.504622e-003
3.841667e+003;-2.129959e-003
3.843596e+003;-1.334145e-003
3.845525e+003;-1.210619e-003
3.847453e+003;-1.516446e-003
3.849382e+003;-2.149874e-003
3.851310e+003;-2.921487e-003
3.853239e+003;-3.044264e-003
3.855167e+003;-2.071727e-003
3.857096e+003;-1.067161e-003
3.859024e+003;-1.341875e-003
3.860953e+003;-1.913048e-003
3.862882e+003;-1.651603e-003
3.864810e+003;-1.567423e-003
3.866739e+003;-1.631995e-003
3.868667e+003;-2.420707e-003
3.870596e+003;-2.476685e-003
3.872524e+003;-1.966915e-003
3.874453e+003;-1.607798e-003
3.876381e+003;-5.827018e-004
3.878310e+003;-4.107672e-004
3.880239e+003;-1.001150e-003
3.882167e+003;-1.540383e-003
3.884096e+003;-1.828524e-003
3.886024e+003;-1.515455e-003
3.887953e+003;-1.202359e-003
3.889881e+003;-1.691904e-003
3.891810e+003;-1.840171e-003
3.893738e+003;-1.210454e-003
3.895667e+003;-6.564853e-004
3.897595e+003;-1.539393e-003
3.899524e+003;-1.859604e-003
3.901453e+003;-1.362057e-003
3.903381e+003;-1.399148e-003
3.905310e+003;-1.376193e-003
3.907238e+003;-9.087767e-004
3.909167e+003;-4.428425e-004
3.911095e+003;-7.274116e-004
3.913024e+003;-8.574902e-004
3.914952e+003;-1.087488e-003
3.916881e+003;-1.409882e-003
3.918810e+003;-8.952860e-004
3.920738e+003;-3.220428e-004
3.922667e+003;-5.772419e-004
3.924595e+003;-1.007827e-003
3.926524e+003;-8.763389e-004
3.928452e+003;-9.488824e-004
3.930381e+003;-1.148034e-003
3.932309e+003;-1.144002e-003
3.934238e+003;-8.451884e-004
3.936167e+003;-5.970955e-004
3.938095e+003;-6.171467e-004
3.940023e+003;-1.222977e-003
3.941952e+003;-1.177213e-003
3.943881e+003;-7.525175e-004
3.945809e+003;-1.147968e-003
3.947738e+003;-1.290870e-003
3.949666e+003;-5.979558e-004
3.951595e+003;-1.687851e-004
3.953523e+003;-4.426439e-004
3.955452e+003;-3.183346e-004
3.957380e+003;2.015017e-004
3.959309e+003;-5.388227e-004
3.961238e+003;-1.470944e-003
3.963166e+003;-1.426263e-003
3.965095e+003;-1.361330e-003
3.967023e+003;-1.614665e-003
3.968952e+003;-1.037975e-003
3.970880e+003;-5.705246e-004
3.972809e+003;-9.549326e-004
3.974737e+003;-1.449149e-003
3.976666e+003;-1.892859e-003
3.978594e+003;-2.132069e-003
3.980523e+003;-1.886657e-003
3.982452e+003;-1.663981e-003
3.984380e+003;-1.755665e-003
3.986309e+003;-1.658336e-003
3.988237e+003;-1.766654e-003
3.990166e+003;-1.886096e-003
3.992094e+003;-2.100283e-003
3.994023e+003;-2.630251e-003
3.995951e+003;-2.201667e-003
3.997880e+003;-1.439473e-003
3.999809e+003;-1.512417e-003
4.001737e+003;0.000000e+000
