3.992094e+002;0.000000e+000
4.011380e+002;0.000000e+000
4.030665e+002;0.000000e+000
4.049951e+002;0.000000e+000
4.069236e+002;0.000000e+000
4.088522e+002;0.000000e+000
4.107807e+002;0.000000e+000
4.127093e+002;0.000000e+000
4.146378e+002;0.000000e+000
4.165664e+002;0.000000e+000
4.184949e+002;0.000000e+000
4.204235e+002;0.000000e+000
4.223520e+002;0.000000e+000
4.242806e+002;0.000000e+000
4.262091e+002;0.000000e+000
4.281377e+002;0.000000e+000
4.300662e+002;0.000000e+000
4.319948e+002;0.000000e+000
4.339233e+002;0.000000e+000
4.358519e+002;0.000000e+000
4.377804e+002;0.000000e+000
4.397090e+002;0.000000e+000
4.416375e+002;0.000000e+000
4.435660e+002;0.000000e+000
4.454946e+002;0.000000e+000
4.474232e+002;0.000000e+000
4.493517e+002;0.000000e+000
4.512802e+002;0.000000e+000
4.532088e+002;0.000000e+000
4.551373e+002;0.000000e+000
4.570659e+002;0.000000e+000
4.589944e+002;0.000000e+000
4.609230e+002;0.000000e+000
4.628515e+002;0.000000e+000
4.647801e+002;0.000000e+000
4.667086e+002;0.000000e+000
4.686372e+002;0.000000e+000
4.705657e+002;0.000000e+000
4.724943e+002;0.000000e+000
4.744228e+002;0.000000e+000
4.763513e+002;0.000000e+000
4.782799e+002;0.000000e+000
4.802085e+002;0.000000e+000
4.821370e+002;0.000000e+000
4.840656e+002;0.000000e+000
4.859941e+002;0.000000e+000
4.879226e+002;0.000000e+000
4.898512e+002;0.000000e+000
4.917798e+002;0.000000e+000
4.937083e+002;0.000000e+000
4.956368e+002;0.000000e+000
4.975654e+002;0.000000e+000
4.994939e+002;0.000000e+000
5.014225e+002;0.000000e+000
5.033510e+002;0.000000e+000
5.052796e+002;0.000000e+000
5.072081e+002;0.000000e+000
5.091367e+002;0.000000e+000
5.110652e+002;0.000000e+000
5.129938e+002;0.000000e+000
5.149223e+002;0.000000e+000
5.168509e+002;0.000000e+000
5.187794e+002;0.000000e+000
5.207079e+002;0.000000e+000
5.226365e+002;0.000000e+000
5.245651e+002;0.000000e+000
5.264936e+002;0.000000e+000
5.284222e+002;0.000000e+000
5.303507e+002;0.000000e+000
5.322792e+002;0.000000e+000
5.342078e+002;0.000000e+000
5.361364e+002;0.000000e+000
5.380649e+002;0.000000e+000
5.399935e+002;0.000000e+000
5.419220e+002;0.000000e+000
5.438505e+002;0.000000e+000
5.457791e+002;0.000000e+000
5.477076e+002;0.000000e+000
5.496362e+002;0.000000e+000
5.515648e+002;0.000000e+000
5.534933e+002;0.000000e+000
5.554218e+002;0.000000e+000
5.573504e+002;0.000000e+000
5.592789e+002;0.000000e+000
5.612075e+002;0.000000e+000
5.631360e+002;0.000000e+000
5.650646e+002;0.000000e+000
5.669931e+002;0.000000e+000
5.689217e+002;0.000000e+000
5.708502e+002;0.000000e+000
5.727787e+002;0.000000e+000
5.747073e+002;0.000000e+000
5.766359e+002;0.000000e+000
5.785644e+002;0.000000e+000
5.804930e+002;0.000000e+000
5.824215e+002;0.000000e+000
5.843500e+002;0.000000e+000
5.862786e+002;0.000000e+000
5.882072e+002;0.000000e+000
5.901357e+002;0.000000e+000
5.920643e+002;0.000000e+000
5.939928e+002;0.000000e+000
5.959213e+002;0.000000e+000
5.978499e+002;0.000000e+000
5.997784e+002;2.587828e-001
6.017070e+002;2.629425e-001
6.036355e+002;2.589293e-001
6.055641e+002;2.559122e-001
6.074926e+002;2.542475e-001
6.094211e+002;2.529311e-001
6.113497e+002;2.556610e-001
6.132783e+002;2.594063e-001
6.152068e+002;2.597276e-001
6.171354e+002;2.555567e-001
6.190639e+002;2.523389e-001
6.209924e+002;2.519745e-001
6.229210e+002;2.487521e-001
6.248495e+002;2.494094e-001
6.267781e+002;2.512863e-001
6.287067e+002;2.496962e-001
6.306352e+002;2.474353e-001
6.325637e+002;2.455376e-001
6.344923e+002;2.458545e-001
6.364208e+002;2.427837e-001
6.383494e+002;2.405961e-001
6.402780e+002;2.422163e-001
6.422065e+002;2.425112e-001
6.441350e+002;2.411130e-001
6.460636e+002;2.409211e-001
6.479921e+002;2.405027e-001
6.499207e+002;2.374648e-001
6.518492e+002;2.320782e-001
6.537778e+002;2.304748e-001
6.557063e+002;2.302072e-001
6.576349e+002;2.314808e-001
6.595634e+002;2.332444e-001
6.614919e+002;2.328572e-001
6.634205e+002;2.317554e-001
6.653491e+002;2.321859e-001
6.672776e+002;2.301669e-001
6.692062e+002;2.284274e-001
6.711347e+002;2.270163e-001
6.730632e+002;2.239189e-001
6.749918e+002;2.223425e-001
6.769203e+002;2.202409e-001
6.788489e+002;2.171049e-001
6.807775e+002;2.161408e-001
6.827060e+002;2.157775e-001
6.846345e+002;2.158726e-001
6.865631e+002;2.151153e-001
6.884916e+002;2.140231e-001
6.904202e+002;2.142016e-001
6.923488e+002;2.137823e-001
6.942773e+002;2.118185e-001
6.962058e+002;2.109749e-001
6.981344e+002;2.101082e-001
7.000629e+002;2.093625e-001
7.019915e+002;2.084966e-001
7.039200e+002;2.060881e-001
7.058486e+002;2.025274e-001
7.077771e+002;1.997701e-001
7.097057e+002;1.973656e-001
7.116342e+002;1.946543e-001
7.135627e+002;1.921093e-001
7.154913e+002;1.905115e-001
7.174199e+002;1.892679e-001
7.193484e+002;1.881604e-001
7.212770e+002;1.855363e-001
7.232055e+002;1.840327e-001
7.251340e+002;1.841764e-001
7.270626e+002;1.835725e-001
7.289911e+002;1.822144e-001
7.309197e+002;1.808614e-001
7.328483e+002;1.805798e-001
7.347768e+002;1.799202e-001
7.367053e+002;1.788965e-001
7.386339e+002;1.784600e-001
7.405624e+002;1.791406e-001
7.424910e+002;1.792095e-001
7.444196e+002;1.779981e-001
7.463481e+002;1.770054e-001
7.482766e+002;1.752464e-001
7.502052e+002;1.726368e-001
7.521337e+002;1.707604e-001
7.540623e+002;1.697665e-001
7.559908e+002;1.685445e-001
7.579194e+002;1.670558e-001
7.598479e+002;1.658677e-001
7.617765e+002;1.642978e-001
7.637050e+002;1.625216e-001
7.656335e+002;1.607722e-001
7.675621e+002;1.587599e-001
7.694907e+002;1.571372e-001
7.714192e+002;1.555246e-001
7.733478e+002;1.543476e-001
7.752763e+002;1.531648e-001
7.772048e+002;1.521113e-001
7.791334e+002;1.516610e-001
7.810620e+002;1.511893e-001
7.829905e+002;1.500026e-001
7.849191e+002;1.486790e-001
7.868476e+002;1.478920e-001
7.887761e+002;1.475384e-001
7.907047e+002;1.472567e-001
7.926332e+002;1.466044e-001
7.945618e+002;1.452051e-001
7.964903e+002;1.441700e-001
7.984189e+002;1.440330e-001
8.003474e+002;1.439685e-001
8.022759e+002;1.434028e-001
8.042045e+002;1.424602e-001
8.061331e+002;1.419492e-001
8.080616e+002;1.416748e-001
8.099902e+002;1.413013e-001
8.119187e+002;1.408867e-001
8.138472e+002;1.402118e-001
8.157758e+002;1.397370e-001
8.177043e+002;1.395768e-001
8.196329e+002;1.397438e-001
8.215615e+002;1.400335e-001
8.234900e+002;1.404122e-001
8.254185e+002;1.408349e-001
8.273471e+002;1.407499e-001
8.292756e+002;1.402206e-001
8.312042e+002;1.396456e-001
8.331328e+002;1.381710e-001
8.350613e+002;1.357627e-001
8.369898e+002;1.337445e-001
8.389184e+002;1.325966e-001
8.408469e+002;1.316041e-001
8.427755e+002;1.306273e-001
8.447040e+002;1.298212e-001
8.466326e+002;1.291042e-001
8.485611e+002;1.282265e-001
8.504897e+002;1.276164e-001
8.524182e+002;1.268286e-001
8.543467e+002;1.260547e-001
8.562753e+002;1.254263e-001
8.582039e+002;1.248375e-001
8.601324e+002;1.243166e-001
8.620610e+002;1.236942e-001
8.639895e+002;1.231846e-001
8.659180e+002;1.228403e-001
8.678466e+002;1.230091e-001
8.697751e+002;1.238001e-001
8.717037e+002;1.241775e-001
8.736323e+002;1.241213e-001
8.755608e+002;1.242996e-001
8.774893e+002;1.247959e-001
8.794179e+002;1.251797e-001
8.813464e+002;1.254996e-001
8.832750e+002;1.254696e-001
8.852036e+002;1.251614e-001
8.871321e+002;1.244515e-001
8.890606e+002;1.237225e-001
8.909892e+002;1.236347e-001
8.929177e+002;1.235040e-001
8.948463e+002;1.231561e-001
8.967748e+002;1.228493e-001
8.987034e+002;1.226208e-001
9.006319e+002;1.222958e-001
9.025605e+002;1.219892e-001
9.044890e+002;1.221451e-001
9.064175e+002;1.224719e-001
9.083461e+002;1.227281e-001
9.102747e+002;1.227350e-001
9.122032e+002;1.223001e-001
9.141318e+002;1.221613e-001
9.160603e+002;1.227286e-001
9.179888e+002;1.235799e-001
9.199174e+002;1.239527e-001
9.218459e+002;1.237888e-001
9.237745e+002;1.242189e-001
9.257031e+002;1.247985e-001
9.276316e+002;1.247357e-001
9.295601e+002;1.245726e-001
9.314887e+002;1.244807e-001
9.334172e+002;1.241186e-001
9.353458e+002;1.237633e-001
9.372744e+002;1.236581e-001
9.392029e+002;1.237331e-001
9.411314e+002;1.235178e-001
9.430600e+002;1.231630e-001
9.449885e+002;1.230492e-001
9.469171e+002;1.228685e-001
9.488456e+002;1.230043e-001
9.507742e+002;1.234666e-001
9.527027e+002;1.236925e-001
9.546313e+002;1.238769e-001
9.565598e+002;1.243214e-001
9.584883e+002;1.248916e-001
9.604169e+002;1.253807e-001
9.623455e+002;1.257538e-001
9.642740e+002;1.260350e-001
9.662026e+002;1.263205e-001
9.681311e+002;1.269384e-001
9.700596e+002;1.275605e-001
9.719882e+002;1.280524e-001
9.739167e+002;1.283974e-001
9.758453e+002;1.284783e-001
9.777739e+002;1.290714e-001
9.797024e+002;1.296744e-001
9.816309e+002;1.302845e-001
9.835595e+002;1.313148e-001
9.854880e+002;1.325291e-001
9.874166e+002;1.339386e-001
9.893452e+002;1.351183e-001
9.912737e+002;1.359593e-001
9.932022e+002;1.365150e-001
9.951307e+002;1.363743e-001
9.970593e+002;1.360122e-001
9.989879e+002;1.360819e-001
1.000916e+003;1.366867e-001
1.002845e+003;1.379785e-001
1.004773e+003;1.395928e-001
1.006702e+003;1.413022e-001
1.008631e+003;1.430934e-001
1.010559e+003;1.453044e-001
1.012488e+003;1.479283e-001
1.014416e+003;1.506218e-001
1.016345e+003;1.532507e-001
1.018273e+003;1.558916e-001
1.020202e+003;1.586364e-001
1.022130e+003;1.613081e-001
1.024059e+003;1.635117e-001
1.025988e+003;1.656175e-001
1.027916e+003;1.682638e-001
1.029845e+003;1.714805e-001
1.031773e+003;1.747277e-001
1.033702e+003;1.774990e-001
1.035630e+003;1.799063e-001
1.037559e+003;1.827087e-001
1.039487e+003;1.858793e-001
1.041416e+003;1.880651e-001
1.043344e+003;1.896453e-001
1.045273e+003;1.899744e-001
1.047202e+003;1.883650e-001
1.049130e+003;1.856878e-001
1.051059e+003;1.824202e-001
1.052987e+003;1.794366e-001
1.054916e+003;1.777485e-001
1.056844e+003;1.769344e-001
1.058773e+003;1.771233e-001
1.060701e+003;1.780066e-001
1.062630e+003;1.786802e-001
1.064558e+003;1.791776e-001
1.066487e+003;1.798243e-001
1.068416e+003;1.806560e-001
1.070344e+003;1.815107e-001
1.072273e+003;1.819853e-001
1.074201e+003;1.822721e-001
1.076130e+003;1.822892e-001
1.078058e+003;1.820819e-001
1.079987e+003;1.816079e-001
1.081915e+003;1.810707e-001
1.083844e+003;1.805823e-001
1.085773e+003;1.798886e-001
1.087701e+003;1.794835e-001
1.089630e+003;1.789697e-001
1.091558e+003;1.786008e-001
1.093487e+003;1.785047e-001
1.095415e+003;1.780394e-001
1.097344e+003;1.775588e-001
1.099272e+003;1.771789e-001
1.101201e+003;1.769342e-001
1.103129e+003;1.765416e-001
1.105058e+003;1.760245e-001
1.106987e+003;1.753512e-001
1.108915e+003;1.745471e-001
1.110844e+003;1.734280e-001
1.112772e+003;1.724651e-001
1.114701e+003;1.721000e-001
1.116629e+003;1.715212e-001
1.118558e+003;1.712762e-001
1.120486e+003;1.713878e-001
1.122415e+003;1.710528e-001
1.124344e+003;1.707593e-001
1.126272e+003;1.708913e-001
1.128201e+003;1.707225e-001
1.130129e+003;1.706982e-001
1.132058e+003;1.710589e-001
1.133986e+003;1.713430e-001
1.135915e+003;1.722734e-001
1.137843e+003;1.737554e-001
1.139772e+003;1.753327e-001
1.141700e+003;1.766630e-001
1.143629e+003;1.774905e-001
1.145557e+003;1.782296e-001
1.147486e+003;1.797107e-001
1.149415e+003;1.818412e-001
1.151343e+003;1.836931e-001
1.153272e+003;1.844273e-001
1.155200e+003;1.848549e-001
1.157129e+003;1.852812e-001
1.159057e+003;1.856106e-001
1.160986e+003;1.862237e-001
1.162914e+003;1.873392e-001
1.164843e+003;1.888609e-001
1.166771e+003;1.903887e-001
1.168700e+003;1.915894e-001
1.170629e+003;1.927563e-001
1.172557e+003;1.938843e-001
1.174486e+003;1.949035e-001
1.176414e+003;1.956166e-001
1.178343e+003;1.961593e-001
1.180271e+003;1.967093e-001
1.182200e+003;1.973744e-001
1.184128e+003;1.983254e-001
1.186057e+003;1.995462e-001
1.187986e+003;2.006473e-001
1.189914e+003;2.012166e-001
1.191843e+003;2.016294e-001
1.193771e+003;2.021938e-001
1.195700e+003;2.029240e-001
1.197628e+003;2.038172e-001
1.199557e+003;2.046783e-001
1.201485e+003;2.054918e-001
1.203414e+003;2.062891e-001
1.205343e+003;2.071789e-001
1.207271e+003;2.085334e-001
1.209200e+003;2.100041e-001
1.211128e+003;2.115548e-001
1.213057e+003;2.135220e-001
1.214985e+003;2.154722e-001
1.216914e+003;2.174039e-001
1.218842e+003;2.194298e-001
1.220771e+003;2.211324e-001
1.222699e+003;2.227149e-001
1.224628e+003;2.242655e-001
1.226557e+003;2.256572e-001
1.228485e+003;2.267947e-001
1.230414e+003;2.271506e-001
1.232342e+003;2.273451e-001
1.234271e+003;2.273045e-001
1.236199e+003;2.263817e-001
1.238128e+003;2.254985e-001
1.240056e+003;2.243937e-001
1.241985e+003;2.230453e-001
1.243913e+003;2.218360e-001
1.245842e+003;2.202048e-001
1.247771e+003;2.183583e-001
1.249699e+003;2.171106e-001
1.251628e+003;2.160192e-001
1.253556e+003;2.144615e-001
1.255485e+003;2.128715e-001
1.257413e+003;2.111763e-001
1.259342e+003;2.092659e-001
1.261270e+003;2.073921e-001
1.263199e+003;2.052367e-001
1.265127e+003;2.029181e-001
1.267056e+003;2.011194e-001
1.268985e+003;2.000404e-001
1.270913e+003;1.990000e-001
1.272842e+003;1.979435e-001
1.274770e+003;1.970581e-001
1.276699e+003;1.962748e-001
1.278627e+003;1.957980e-001
1.280556e+003;1.954501e-001
1.282484e+003;1.951203e-001
1.284413e+003;1.946952e-001
1.286342e+003;1.940710e-001
1.288270e+003;1.936955e-001
1.290199e+003;1.938524e-001
1.292127e+003;1.941102e-001
1.294056e+003;1.941644e-001
1.295984e+003;1.941216e-001
1.297913e+003;1.938368e-001
1.299841e+003;1.929732e-001
1.301770e+003;1.920876e-001
1.303698e+003;1.915138e-001
1.305627e+003;1.910247e-001
1.307556e+003;1.905867e-001
1.309484e+003;1.903812e-001
1.311413e+003;1.906125e-001
1.313341e+003;1.910481e-001
1.315270e+003;1.915083e-001
1.317198e+003;1.921840e-001
1.319127e+003;1.928434e-001
1.321055e+003;1.934524e-001
1.322984e+003;1.936734e-001
1.324912e+003;1.936121e-001
1.326841e+003;1.937744e-001
1.328770e+003;1.938276e-001
1.330698e+003;1.932784e-001
1.332627e+003;1.923050e-001
1.334555e+003;1.909786e-001
1.336484e+003;1.896180e-001
1.338412e+003;1.884422e-001
1.340341e+003;1.872073e-001
1.342269e+003;1.859088e-001
1.344198e+003;1.846349e-001
1.346126e+003;1.835699e-001
1.348055e+003;1.825247e-001
1.349984e+003;1.815074e-001
1.351912e+003;1.805872e-001
1.353841e+003;1.798118e-001
1.355769e+003;1.794201e-001
1.357698e+003;1.795728e-001
1.359626e+003;1.800558e-001
1.361555e+003;1.808251e-001
1.363483e+003;1.823373e-001
1.365412e+003;1.844847e-001
1.367341e+003;1.863866e-001
1.369269e+003;1.876615e-001
1.371198e+003;1.883841e-001
1.373126e+003;1.887098e-001
1.375055e+003;1.894430e-001
1.376983e+003;1.907252e-001
1.378912e+003;1.920760e-001
1.380840e+003;1.936878e-001
1.382769e+003;1.952962e-001
1.384698e+003;1.964837e-001
1.386626e+003;1.968993e-001
1.388555e+003;1.971452e-001
1.390483e+003;1.970930e-001
1.392412e+003;1.962907e-001
1.394340e+003;1.951223e-001
1.396269e+003;1.947408e-001
1.398197e+003;1.946339e-001
1.400126e+003;1.944784e-001
1.402054e+003;1.942244e-001
1.403983e+003;1.937936e-001
1.405911e+003;1.934860e-001
1.407840e+003;1.933317e-001
1.409769e+003;1.933070e-001
1.411697e+003;1.931966e-001
1.413626e+003;1.929687e-001
1.415554e+003;1.925927e-001
1.417483e+003;1.918935e-001
1.419411e+003;1.916963e-001
1.421340e+003;1.928950e-001
1.423268e+003;1.937883e-001
1.425197e+003;1.945002e-001
1.427125e+003;1.958110e-001
1.429054e+003;1.975419e-001
1.430983e+003;2.000642e-001
1.432911e+003;2.032306e-001
1.434840e+003;2.059122e-001
1.436768e+003;2.081416e-001
1.438697e+003;2.109786e-001
1.440625e+003;2.130287e-001
1.442554e+003;2.141435e-001
1.444482e+003;2.148215e-001
1.446411e+003;2.152926e-001
1.448340e+003;2.157258e-001
1.450268e+003;2.162853e-001
1.452197e+003;2.167888e-001
1.454125e+003;2.164007e-001
1.456054e+003;2.143723e-001
1.457982e+003;2.137143e-001
1.459911e+003;2.141755e-001
1.461839e+003;2.131728e-001
1.463768e+003;2.111073e-001
1.465697e+003;2.095141e-001
1.467625e+003;2.087417e-001
1.469554e+003;2.076416e-001
1.471482e+003;2.057992e-001
1.473411e+003;2.048999e-001
1.475339e+003;2.056283e-001
1.477268e+003;2.072666e-001
1.479196e+003;2.099139e-001
1.481125e+003;2.137092e-001
1.483053e+003;2.189151e-001
1.484982e+003;2.250583e-001
1.486911e+003;2.320725e-001
1.488839e+003;2.400578e-001
1.490768e+003;2.491646e-001
1.492696e+003;2.587714e-001
1.494625e+003;2.674605e-001
1.496553e+003;2.762311e-001
1.498482e+003;2.853008e-001
1.500410e+003;2.929765e-001
1.502339e+003;2.991350e-001
1.504267e+003;3.036013e-001
1.506196e+003;3.079721e-001
1.508125e+003;3.141008e-001
1.510053e+003;3.198676e-001
1.511982e+003;3.240509e-001
1.513910e+003;3.259063e-001
1.515839e+003;3.244827e-001
1.517767e+003;3.212745e-001
1.519696e+003;3.164340e-001
1.521624e+003;3.115601e-001
1.523553e+003;3.089204e-001
1.525481e+003;3.062532e-001
1.527410e+003;3.039447e-001
1.529339e+003;3.016934e-001
1.531267e+003;2.983804e-001
1.533196e+003;2.942633e-001
1.535124e+003;2.904013e-001
1.537053e+003;2.853930e-001
1.538981e+003;2.783658e-001
1.540910e+003;2.726769e-001
1.542838e+003;2.686146e-001
1.544767e+003;2.637476e-001
1.546695e+003;2.582923e-001
1.548624e+003;2.523617e-001
1.550553e+003;2.458796e-001
1.552481e+003;2.387742e-001
1.554410e+003;2.315392e-001
1.556338e+003;2.241808e-001
1.558267e+003;2.158842e-001
1.560195e+003;2.105404e-001
1.562124e+003;2.074911e-001
1.564052e+003;2.030792e-001
1.565981e+003;1.985717e-001
1.567910e+003;1.941879e-001
1.569838e+003;1.907756e-001
1.571767e+003;1.892205e-001
1.573695e+003;1.874073e-001
1.575624e+003;1.849397e-001
1.577552e+003;1.850406e-001
1.579481e+003;1.865734e-001
1.581409e+003;1.879533e-001
1.583338e+003;1.898401e-001
1.585266e+003;1.920478e-001
1.587195e+003;1.947588e-001
1.589124e+003;1.981790e-001
1.591052e+003;2.021729e-001
1.592981e+003;2.066384e-001
1.594909e+003;2.113917e-001
1.596838e+003;2.164648e-001
1.598766e+003;2.220007e-001
1.600695e+003;2.283522e-001
1.602623e+003;2.358975e-001
1.604552e+003;2.443595e-001
1.606480e+003;2.535935e-001
1.608409e+003;2.635968e-001
1.610338e+003;2.738713e-001
1.612266e+003;2.838918e-001
1.614195e+003;2.928910e-001
1.616123e+003;3.009962e-001
1.618052e+003;3.105724e-001
1.619980e+003;3.203400e-001
1.621909e+003;3.288479e-001
1.623837e+003;3.373833e-001
1.625766e+003;3.451990e-001
1.627694e+003;3.512006e-001
1.629623e+003;3.558896e-001
1.631552e+003;3.595448e-001
1.633480e+003;3.611304e-001
1.635409e+003;3.614850e-001
1.637337e+003;3.627810e-001
1.639266e+003;3.634568e-001
1.641194e+003;3.621315e-001
1.643123e+003;3.596298e-001
1.645051e+003;3.554579e-001
1.646980e+003;3.504593e-001
1.648909e+003;3.455457e-001
1.650837e+003;3.378114e-001
1.652766e+003;3.279166e-001
1.654694e+003;3.218328e-001
1.656623e+003;3.160757e-001
1.658551e+003;3.076115e-001
1.660480e+003;2.980787e-001
1.662408e+003;2.883828e-001
1.664337e+003;2.797098e-001
1.666266e+003;2.712034e-001
1.668194e+003;2.617117e-001
1.670123e+003;2.527165e-001
1.672051e+003;2.448864e-001
1.673980e+003;2.364548e-001
1.675908e+003;2.280561e-001
1.677837e+003;2.206410e-001
1.679765e+003;2.126703e-001
1.681694e+003;2.038312e-001
1.683622e+003;1.940354e-001
1.685551e+003;1.865617e-001
1.687479e+003;1.806862e-001
1.689408e+003;1.734230e-001
1.691337e+003;1.655076e-001
1.693265e+003;1.568198e-001
1.695194e+003;1.469664e-001
1.697122e+003;1.387610e-001
1.699051e+003;1.305932e-001
1.700979e+003;1.231079e-001
1.702908e+003;1.177374e-001
1.704836e+003;1.114879e-001
1.706765e+003;1.061213e-001
1.708693e+003;1.013899e-001
1.710622e+003;9.665789e-002
1.712551e+003;9.201973e-002
1.714479e+003;8.753113e-002
1.716408e+003;8.325662e-002
1.718336e+003;8.109799e-002
1.720265e+003;8.035082e-002
1.722193e+003;7.880073e-002
1.724122e+003;7.697183e-002
1.726050e+003;7.549325e-002
1.727979e+003;7.399345e-002
1.729908e+003;7.248237e-002
1.731836e+003;7.011153e-002
1.733765e+003;6.759484e-002
1.735693e+003;6.758594e-002
1.737622e+003;6.757908e-002
1.739550e+003;6.612835e-002
1.741479e+003;6.521430e-002
1.743407e+003;6.432781e-002
1.745336e+003;6.296141e-002
1.747265e+003;6.163836e-002
1.749193e+003;6.054131e-002
1.751122e+003;5.960476e-002
1.753050e+003;5.944394e-002
1.754979e+003;5.883794e-002
1.756907e+003;5.806614e-002
1.758836e+003;5.767863e-002
1.760764e+003;5.689419e-002
1.762693e+003;5.642736e-002
1.764621e+003;5.648872e-002
1.766550e+003;5.583851e-002
1.768479e+003;5.511520e-002
1.770407e+003;5.428033e-002
1.772336e+003;5.363983e-002
1.774264e+003;5.412676e-002
1.776193e+003;5.442160e-002
1.778121e+003;5.408041e-002
1.780050e+003;5.373053e-002
1.781978e+003;5.371178e-002
1.783907e+003;5.357637e-002
1.785835e+003;5.342263e-002
1.787764e+003;5.337336e-002
1.789693e+003;5.267378e-002
1.791621e+003;5.181357e-002
1.793550e+003;5.187066e-002
1.795478e+003;5.219587e-002
1.797407e+003;5.208544e-002
1.799335e+003;5.180550e-002
1.801264e+003;5.161329e-002
1.803192e+003;5.171864e-002
1.805121e+003;5.162340e-002
1.807049e+003;5.143160e-002
1.808978e+003;5.105481e-002
1.810907e+003;5.090353e-002
1.812835e+003;5.102772e-002
1.814764e+003;5.096471e-002
1.816692e+003;5.082806e-002
1.818621e+003;5.078821e-002
1.820549e+003;5.058974e-002
1.822478e+003;5.036074e-002
1.824406e+003;4.997317e-002
1.826335e+003;4.980833e-002
1.828264e+003;4.960741e-002
1.830192e+003;4.950294e-002
1.832121e+003;4.983628e-002
1.834049e+003;4.993079e-002
1.835978e+003;4.982847e-002
1.837906e+003;4.970808e-002
1.839835e+003;4.953410e-002
1.841763e+003;4.914307e-002
1.843692e+003;4.847935e-002
1.845620e+003;4.851843e-002
1.847549e+003;4.884979e-002
1.849478e+003;4.905258e-002
1.851406e+003;4.909892e-002
1.853335e+003;4.916285e-002
1.855263e+003;4.921276e-002
1.857192e+003;4.904773e-002
1.859120e+003;4.882102e-002
1.861049e+003;4.874228e-002
1.862977e+003;4.876107e-002
1.864906e+003;4.861548e-002
1.866834e+003;4.831234e-002
1.868763e+003;4.829052e-002
1.870692e+003;4.869335e-002
1.872620e+003;4.891657e-002
1.874549e+003;4.888502e-002
1.876477e+003;4.882677e-002
1.878406e+003;4.897996e-002
1.880334e+003;4.908690e-002
1.882263e+003;4.900414e-002
1.884191e+003;4.898370e-002
1.886120e+003;4.893890e-002
1.888048e+003;4.881816e-002
1.889977e+003;4.881768e-002
1.891906e+003;4.895055e-002
1.893834e+003;4.889933e-002
1.895763e+003;4.899646e-002
1.897691e+003;4.905830e-002
1.899620e+003;4.914018e-002
1.901548e+003;4.903062e-002
1.903477e+003;4.884631e-002
1.905405e+003;4.896026e-002
1.907334e+003;4.904053e-002
1.909262e+003;4.873434e-002
1.911191e+003;4.868675e-002
1.913120e+003;4.886051e-002
1.915048e+003;4.872400e-002
1.916977e+003;4.846149e-002
1.918905e+003;4.850347e-002
1.920834e+003;4.860214e-002
1.922762e+003;4.855145e-002
1.924691e+003;4.861737e-002
1.926619e+003;4.880015e-002
1.928548e+003;4.893360e-002
1.930477e+003;4.900314e-002
1.932405e+003;4.899724e-002
1.934334e+003;4.901553e-002
1.936262e+003;4.902684e-002
1.938191e+003;4.905006e-002
1.940119e+003;4.898011e-002
1.942048e+003;4.890119e-002
1.943976e+003;4.907362e-002
1.945905e+003;4.925866e-002
1.947833e+003;4.911261e-002
1.949762e+003;4.904001e-002
1.951691e+003;4.909543e-002
1.953619e+003;4.909799e-002
1.955548e+003;4.915632e-002
1.957476e+003;4.932165e-002
1.959405e+003;4.931393e-002
1.961333e+003;4.926301e-002
1.963262e+003;4.920975e-002
1.965190e+003;4.910957e-002
1.967119e+003;4.906850e-002
1.969047e+003;4.920931e-002
1.970976e+003;4.928405e-002
1.972905e+003;4.938661e-002
1.974833e+003;4.935870e-002
1.976762e+003;4.930239e-002
1.978690e+003;4.936520e-002
1.980619e+003;4.937113e-002
1.982547e+003;4.933913e-002
1.984476e+003;4.944019e-002
1.986404e+003;4.952303e-002
1.988333e+003;4.950977e-002
1.990261e+003;4.933431e-002
1.992190e+003;4.921996e-002
1.994119e+003;4.946867e-002
1.996047e+003;4.962502e-002
1.997976e+003;4.947795e-002
1.999904e+003;4.950298e-002
2.001833e+003;4.969259e-002
2.003761e+003;4.976697e-002
2.005690e+003;4.967955e-002
2.007618e+003;4.964162e-002
2.009547e+003;4.973060e-002
2.011476e+003;4.996127e-002
2.013404e+003;4.977389e-002
2.015333e+003;4.949559e-002
2.017261e+003;4.964987e-002
2.019190e+003;5.004065e-002
2.021118e+003;5.022227e-002
2.023047e+003;5.020591e-002
2.024975e+003;5.025601e-002
2.026904e+003;5.019196e-002
2.028833e+003;5.007924e-002
2.030761e+003;5.011037e-002
2.032690e+003;5.002287e-002
2.034618e+003;4.989522e-002
2.036547e+003;5.007158e-002
2.038475e+003;5.013707e-002
2.040404e+003;5.012699e-002
2.042332e+003;5.044350e-002
2.044261e+003;5.064331e-002
2.046189e+003;5.060262e-002
2.048118e+003;5.057697e-002
2.050047e+003;5.056342e-002
2.051975e+003;5.051976e-002
2.053904e+003;5.050409e-002
2.055832e+003;5.052635e-002
2.057761e+003;5.063289e-002
2.059689e+003;5.080199e-002
2.061618e+003;5.097093e-002
2.063546e+003;5.093364e-002
2.065475e+003;5.085023e-002
2.067404e+003;5.078020e-002
2.069332e+003;5.072605e-002
2.071260e+003;5.100797e-002
2.073189e+003;5.117301e-002
2.075118e+003;5.110912e-002
2.077046e+003;5.121405e-002
2.078975e+003;5.116018e-002
2.080903e+003;5.121807e-002
2.082832e+003;5.126915e-002
2.084760e+003;5.091165e-002
2.086689e+003;5.062839e-002
2.088617e+003;5.090670e-002
2.090546e+003;5.112988e-002
2.092475e+003;5.117695e-002
2.094403e+003;5.117230e-002
2.096332e+003;5.101676e-002
2.098260e+003;5.086479e-002
2.100189e+003;5.077547e-002
2.102117e+003;5.071387e-002
2.104046e+003;5.075097e-002
2.105974e+003;5.074981e-002
2.107903e+003;5.080385e-002
2.109832e+003;5.073152e-002
2.111760e+003;5.063412e-002
2.113688e+003;5.068896e-002
2.115617e+003;5.068807e-002
2.117546e+003;5.070274e-002
2.119474e+003;5.073179e-002
2.121403e+003;5.060944e-002
2.123331e+003;5.056997e-002
2.125260e+003;5.075771e-002
2.127188e+003;5.087410e-002
2.129117e+003;5.072642e-002
2.131045e+003;5.066126e-002
2.132974e+003;5.075208e-002
2.134903e+003;5.092373e-002
2.136831e+003;5.093971e-002
2.138760e+003;5.060530e-002
2.140688e+003;5.037135e-002
2.142617e+003;5.039947e-002
2.144545e+003;5.032026e-002
2.146474e+003;5.017095e-002
2.148402e+003;5.003518e-002
2.150331e+003;5.009471e-002
2.152260e+003;5.017095e-002
2.154188e+003;5.025973e-002
2.156117e+003;5.021874e-002
2.158045e+003;5.030452e-002
2.159974e+003;5.035992e-002
2.161902e+003;5.032305e-002
2.163831e+003;5.018389e-002
2.165759e+003;5.012226e-002
2.167688e+003;5.020669e-002
2.169616e+003;5.019107e-002
2.171545e+003;5.010605e-002
2.173474e+003;5.016779e-002
2.175402e+003;5.025363e-002
2.177331e+003;5.020308e-002
2.179259e+003;5.013052e-002
2.181188e+003;4.995443e-002
2.183116e+003;4.978314e-002
2.185045e+003;4.981160e-002
2.186973e+003;4.996324e-002
2.188902e+003;5.009865e-002
2.190831e+003;5.006649e-002
2.192759e+003;5.005489e-002
2.194688e+003;5.015369e-002
2.196616e+003;5.025456e-002
2.198545e+003;5.020877e-002
2.200473e+003;5.014183e-002
2.202402e+003;5.000559e-002
2.204330e+003;4.979585e-002
2.206259e+003;4.977604e-002
2.208188e+003;4.979447e-002
2.210116e+003;4.972380e-002
2.212044e+003;4.989719e-002
2.213973e+003;5.014231e-002
2.215902e+003;4.999555e-002
2.217830e+003;4.975720e-002
2.219759e+003;4.974617e-002
2.221687e+003;4.970485e-002
2.223616e+003;4.962483e-002
2.225544e+003;4.981038e-002
2.227473e+003;5.002905e-002
2.229401e+003;5.010304e-002
2.231330e+003;5.012710e-002
2.233259e+003;4.983446e-002
2.235187e+003;4.946781e-002
2.237116e+003;4.936824e-002
2.239044e+003;4.945671e-002
2.240973e+003;4.966142e-002
2.242901e+003;4.963379e-002
2.244830e+003;4.948125e-002
2.246758e+003;4.957358e-002
2.248687e+003;4.967977e-002
2.250615e+003;4.978098e-002
2.252544e+003;4.977950e-002
2.254473e+003;4.959690e-002
2.256401e+003;4.943124e-002
2.258330e+003;4.938524e-002
2.260258e+003;4.945252e-002
2.262187e+003;4.951835e-002
2.264115e+003;4.952794e-002
2.266044e+003;4.941101e-002
2.267972e+003;4.939278e-002
2.269901e+003;4.951245e-002
2.271830e+003;4.955672e-002
2.273758e+003;4.965634e-002
2.275687e+003;4.967955e-002
2.277615e+003;4.962450e-002
2.279544e+003;4.960396e-002
2.281472e+003;4.960857e-002
2.283401e+003;4.961399e-002
2.285329e+003;4.967145e-002
2.287258e+003;4.966644e-002
2.289187e+003;4.967461e-002
2.291115e+003;4.974973e-002
2.293043e+003;4.977378e-002
2.294972e+003;4.984063e-002
2.296901e+003;4.981944e-002
2.298829e+003;4.971563e-002
2.300758e+003;4.982327e-002
2.302686e+003;4.986051e-002
2.304615e+003;4.965407e-002
2.306543e+003;4.953109e-002
2.308472e+003;4.953135e-002
2.310400e+003;4.943057e-002
2.312329e+003;4.924898e-002
2.314258e+003;4.928594e-002
2.316186e+003;4.937132e-002
2.318115e+003;4.925017e-002
2.320043e+003;4.909043e-002
2.321972e+003;4.915788e-002
2.323900e+003;4.922408e-002
2.325829e+003;4.911287e-002
2.327757e+003;4.898793e-002
2.329686e+003;4.894936e-002
2.331615e+003;4.895310e-002
2.333543e+003;4.906880e-002
2.335472e+003;4.909962e-002
2.337400e+003;4.927952e-002
2.339329e+003;4.945129e-002
2.341257e+003;4.946726e-002
2.343186e+003;4.942122e-002
2.345114e+003;4.928862e-002
2.347043e+003;4.936813e-002
2.348971e+003;4.962353e-002
2.350900e+003;4.964649e-002
2.352829e+003;4.938290e-002
2.354757e+003;4.935974e-002
2.356686e+003;4.946885e-002
2.358614e+003;4.926624e-002
2.360543e+003;4.915710e-002
2.362471e+003;4.943882e-002
2.364400e+003;4.956325e-002
2.366328e+003;4.958765e-002
2.368257e+003;4.986987e-002
2.370186e+003;5.005065e-002
2.372114e+003;5.019386e-002
2.374042e+003;5.045243e-002
2.375971e+003;5.059871e-002
2.377900e+003;5.072322e-002
2.379828e+003;5.108653e-002
2.381757e+003;5.128470e-002
2.383685e+003;5.134604e-002
2.385614e+003;5.154184e-002
2.387542e+003;5.162284e-002
2.389471e+003;5.164456e-002
2.391399e+003;5.167632e-002
2.393328e+003;5.178281e-002
2.395257e+003;5.199400e-002
2.397185e+003;5.201447e-002
2.399114e+003;5.195803e-002
2.401042e+003;5.229105e-002
2.402971e+003;5.261240e-002
2.404899e+003;5.248925e-002
2.406828e+003;5.216721e-002
2.408756e+003;5.226250e-002
2.410685e+003;5.257212e-002
2.412614e+003;5.270554e-002
2.414542e+003;5.277905e-002
2.416471e+003;5.312911e-002
2.418399e+003;5.342716e-002
2.420328e+003;5.353525e-002
2.422256e+003;5.368400e-002
2.424185e+003;5.407944e-002
2.426113e+003;5.416737e-002
2.428042e+003;5.411948e-002
2.429970e+003;5.417477e-002
2.431899e+003;5.433237e-002
2.433828e+003;5.453962e-002
2.435756e+003;5.476328e-002
2.437685e+003;5.481635e-002
2.439613e+003;5.474482e-002
2.441542e+003;5.481128e-002
2.443470e+003;5.484617e-002
2.445399e+003;5.508180e-002
2.447327e+003;5.541790e-002
2.449256e+003;5.545878e-002
2.451185e+003;5.521866e-002
2.453113e+003;5.526870e-002
2.455042e+003;5.568958e-002
2.456970e+003;5.587954e-002
2.458899e+003;5.585712e-002
2.460827e+003;5.570522e-002
2.462756e+003;5.590151e-002
2.464684e+003;5.636149e-002
2.466613e+003;5.649562e-002
2.468542e+003;5.622392e-002
2.470470e+003;5.614360e-002
2.472398e+003;5.665437e-002
2.474327e+003;5.702895e-002
2.476256e+003;5.705846e-002
2.478184e+003;5.706397e-002
2.480113e+003;5.737696e-002
2.482041e+003;5.753002e-002
2.483970e+003;5.748732e-002
2.485898e+003;5.752306e-002
2.487827e+003;5.747987e-002
2.489755e+003;5.743542e-002
2.491684e+003;5.767927e-002
2.493613e+003;5.798335e-002
2.495541e+003;5.816773e-002
2.497470e+003;5.829041e-002
2.499398e+003;5.834301e-002
2.501327e+003;5.847469e-002
2.503255e+003;5.860102e-002
2.505184e+003;5.864345e-002
2.507112e+003;5.883813e-002
2.509041e+003;5.914905e-002
2.510969e+003;5.917646e-002
2.512898e+003;5.900992e-002
2.514827e+003;5.912764e-002
2.516755e+003;5.913531e-002
2.518684e+003;5.915763e-002
2.520612e+003;5.942848e-002
2.522541e+003;5.938467e-002
2.524469e+003;5.925477e-002
2.526398e+003;5.930015e-002
2.528326e+003;5.937407e-002
2.530255e+003;5.971530e-002
2.532184e+003;5.998086e-002
2.534112e+003;5.981538e-002
2.536041e+003;5.978807e-002
2.537969e+003;5.994686e-002
2.539898e+003;6.024008e-002
2.541826e+003;6.038128e-002
2.543755e+003;6.034248e-002
2.545683e+003;6.041555e-002
2.547612e+003;6.047972e-002
2.549541e+003;6.049534e-002
2.551469e+003;6.057178e-002
2.553397e+003;6.070345e-002
2.555326e+003;6.078599e-002
2.557255e+003;6.101895e-002
2.559183e+003;6.110122e-002
2.561112e+003;6.116091e-002
2.563040e+003;6.124823e-002
2.564969e+003;6.140438e-002
2.566897e+003;6.134427e-002
2.568826e+003;6.113814e-002
2.570754e+003;6.130409e-002
2.572683e+003;6.173934e-002
2.574612e+003;6.186739e-002
2.576540e+003;6.179973e-002
2.578469e+003;6.190128e-002
2.580397e+003;6.221934e-002
2.582326e+003;6.240977e-002
2.584254e+003;6.235683e-002
2.586183e+003;6.244401e-002
2.588111e+003;6.259871e-002
2.590040e+003;6.278479e-002
2.591969e+003;6.314484e-002
2.593897e+003;6.353607e-002
2.595826e+003;6.365345e-002
2.597754e+003;6.339997e-002
2.599683e+003;6.339618e-002
2.601611e+003;6.365407e-002
2.603540e+003;6.374449e-002
2.605468e+003;6.379312e-002
2.607397e+003;6.394754e-002
2.609325e+003;6.427970e-002
2.611254e+003;6.449094e-002
2.613183e+003;6.445923e-002
2.615111e+003;6.449317e-002
2.617040e+003;6.447788e-002
2.618968e+003;6.446942e-002
2.620897e+003;6.458417e-002
2.622825e+003;6.470783e-002
2.624754e+003;6.495680e-002
2.626682e+003;6.503545e-002
2.628611e+003;6.474544e-002
2.630540e+003;6.460866e-002
2.632468e+003;6.490728e-002
2.634396e+003;6.529374e-002
2.636325e+003;6.543817e-002
2.638254e+003;6.552309e-002
2.640182e+003;6.565118e-002
2.642111e+003;6.561306e-002
2.644039e+003;6.553272e-002
2.645968e+003;6.551087e-002
2.647896e+003;6.570383e-002
2.649825e+003;6.580310e-002
2.651753e+003;6.584146e-002
2.653682e+003;6.587423e-002
2.655611e+003;6.596676e-002
2.657539e+003;6.602604e-002
2.659468e+003;6.606438e-002
2.661396e+003;6.627896e-002
2.663325e+003;6.628457e-002
2.665253e+003;6.611461e-002
2.667182e+003;6.597096e-002
2.669110e+003;6.625373e-002
2.671039e+003;6.677190e-002
2.672968e+003;6.712804e-002
2.674896e+003;6.729379e-002
2.676825e+003;6.730423e-002
2.678753e+003;6.725816e-002
2.680682e+003;6.717750e-002
2.682610e+003;6.715368e-002
2.684539e+003;6.747767e-002
2.686467e+003;6.779686e-002
2.688396e+003;6.782575e-002
2.690324e+003;6.793155e-002
2.692253e+003;6.803408e-002
2.694182e+003;6.806621e-002
2.696110e+003;6.829590e-002
2.698039e+003;6.835550e-002
2.699967e+003;6.849281e-002
2.701896e+003;6.860277e-002
2.703824e+003;6.856909e-002
2.705753e+003;6.853362e-002
2.707681e+003;6.888857e-002
2.709610e+003;6.912612e-002
2.711539e+003;6.918173e-002
2.713467e+003;6.941585e-002
2.715396e+003;6.941041e-002
2.717324e+003;6.948549e-002
2.719253e+003;6.989033e-002
2.721181e+003;7.045332e-002
2.723110e+003;7.070829e-002
2.725038e+003;7.076436e-002
2.726967e+003;7.093501e-002
2.728896e+003;7.100146e-002
2.730824e+003;7.112180e-002
2.732752e+003;7.142802e-002
2.734681e+003;7.161265e-002
2.736610e+003;7.151986e-002
2.738538e+003;7.172360e-002
2.740467e+003;7.207979e-002
2.742395e+003;7.207890e-002
2.744324e+003;7.195785e-002
2.746252e+003;7.215580e-002
2.748181e+003;7.239581e-002
2.750109e+003;7.272220e-002
2.752038e+003;7.302485e-002
2.753967e+003;7.309259e-002
2.755895e+003;7.300258e-002
2.757824e+003;7.297742e-002
2.759752e+003;7.333645e-002
2.761681e+003;7.405844e-002
2.763609e+003;7.428318e-002
2.765538e+003;7.400178e-002
2.767466e+003;7.402952e-002
2.769395e+003;7.434696e-002
2.771323e+003;7.441192e-002
2.773252e+003;7.450085e-002
2.775181e+003;7.470847e-002
2.777109e+003;7.486772e-002
2.779038e+003;7.511975e-002
2.780966e+003;7.539328e-002
2.782895e+003;7.547314e-002
2.784823e+003;7.553536e-002
2.786752e+003;7.575101e-002
2.788680e+003;7.615716e-002
2.790609e+003;7.646952e-002
2.792538e+003;7.662835e-002
2.794466e+003;7.660609e-002
2.796395e+003;7.691234e-002
2.798323e+003;7.727994e-002
2.800252e+003;7.750712e-002
2.802180e+003;7.797593e-002
2.804109e+003;7.844648e-002
2.806037e+003;7.857840e-002
2.807966e+003;7.864499e-002
2.809895e+003;7.892533e-002
2.811823e+003;7.919602e-002
2.813751e+003;7.907608e-002
2.815680e+003;7.915813e-002
2.817609e+003;7.951161e-002
2.819537e+003;7.969911e-002
2.821466e+003;7.994699e-002
2.823394e+003;8.036250e-002
2.825323e+003;8.069785e-002
2.827251e+003;8.072131e-002
2.829180e+003;8.085692e-002
2.831108e+003;8.106428e-002
2.833037e+003;8.131558e-002
2.834966e+003;8.188698e-002
2.836894e+003;8.246230e-002
2.838823e+003;8.289859e-002
2.840751e+003;8.340289e-002
2.842680e+003;8.384806e-002
2.844608e+003;8.417272e-002
2.846537e+003;8.460357e-002
2.848465e+003;8.534919e-002
2.850394e+003;8.603145e-002
2.852323e+003;8.667462e-002
2.854251e+003;8.757823e-002
2.856180e+003;8.853519e-002
2.858108e+003;8.935507e-002
2.860037e+003;9.020220e-002
2.861965e+003;9.106063e-002
2.863894e+003;9.191564e-002
2.865822e+003;9.269243e-002
2.867751e+003;9.368750e-002
2.869679e+003;9.467793e-002
2.871608e+003;9.551908e-002
2.873536e+003;9.611437e-002
2.875465e+003;9.614037e-002
2.877394e+003;9.578793e-002
2.879322e+003;9.576843e-002
2.881251e+003;9.576327e-002
2.883179e+003;9.535364e-002
2.885108e+003;9.526975e-002
2.887036e+003;9.537985e-002
2.888965e+003;9.501887e-002
2.890893e+003;9.461892e-002
2.892822e+003;9.507062e-002
2.894750e+003;9.570272e-002
2.896679e+003;9.577083e-002
2.898608e+003;9.592750e-002
2.900536e+003;9.634300e-002
2.902465e+003;9.671200e-002
2.904393e+003;9.712192e-002
2.906322e+003;9.795400e-002
2.908250e+003;9.879362e-002
2.910179e+003;9.943040e-002
2.912107e+003;1.003267e-001
2.914036e+003;1.010578e-001
2.915965e+003;1.015543e-001
2.917893e+003;1.027896e-001
2.919822e+003;1.040041e-001
2.921750e+003;1.047490e-001
2.923679e+003;1.054989e-001
2.925607e+003;1.062529e-001
2.927536e+003;1.068462e-001
2.929464e+003;1.074172e-001
2.931393e+003;1.080500e-001
2.933322e+003;1.084607e-001
2.935250e+003;1.084841e-001
2.937178e+003;1.084778e-001
2.939107e+003;1.081178e-001
2.941036e+003;1.077722e-001
2.942964e+003;1.076757e-001
2.944893e+003;1.073634e-001
2.946821e+003;1.070481e-001
2.948750e+003;1.071360e-001
2.950678e+003;1.069606e-001
2.952607e+003;1.065688e-001
2.954535e+003;1.068681e-001
2.956464e+003;1.077077e-001
2.958393e+003;1.080289e-001
2.960321e+003;1.077002e-001
2.962250e+003;1.075954e-001
2.964178e+003;1.074223e-001
2.966107e+003;1.069079e-001
2.968035e+003;1.062032e-001
2.969964e+003;1.056718e-001
2.971892e+003;1.050886e-001
2.973821e+003;1.041325e-001
2.975750e+003;1.031565e-001
2.977678e+003;1.025116e-001
2.979607e+003;1.016102e-001
2.981535e+003;1.002714e-001
2.983464e+003;9.915809e-002
2.985392e+003;9.850428e-002
2.987321e+003;9.766463e-002
2.989249e+003;9.680723e-002
2.991178e+003;9.630909e-002
2.993106e+003;9.591254e-002
2.995035e+003;9.533416e-002
2.996964e+003;9.451660e-002
2.998892e+003;9.408469e-002
3.000821e+003;9.400643e-002
3.002749e+003;9.394118e-002
3.004678e+003;9.389763e-002
3.006606e+003;9.379880e-002
3.008535e+003;9.387496e-002
3.010463e+003;9.388039e-002
3.012392e+003;9.384198e-002
3.014321e+003;9.384794e-002
3.016249e+003;9.397500e-002
3.018177e+003;9.446437e-002
3.020106e+003;9.490544e-002
3.022035e+003;9.519845e-002
3.023963e+003;9.584308e-002
3.025892e+003;9.654528e-002
3.027820e+003;9.689511e-002
3.029749e+003;9.701125e-002
3.031677e+003;9.733566e-002
3.033606e+003;9.759311e-002
3.035534e+003;9.793278e-002
3.037463e+003;9.847373e-002
3.039392e+003;9.851700e-002
3.041320e+003;9.872453e-002
3.043249e+003;9.944140e-002
3.045177e+003;9.988730e-002
3.047106e+003;1.001467e-001
3.049034e+003;1.003338e-001
3.050963e+003;1.006318e-001
3.052891e+003;1.011406e-001
3.054820e+003;1.013663e-001
3.056749e+003;1.017763e-001
3.058677e+003;1.021194e-001
3.060606e+003;1.021047e-001
3.062534e+003;1.020699e-001
3.064463e+003;1.018850e-001
3.066391e+003;1.019106e-001
3.068320e+003;1.019945e-001
3.070248e+003;1.018038e-001
3.072177e+003;1.015583e-001
3.074105e+003;1.017112e-001
3.076034e+003;1.016951e-001
3.077963e+003;1.015621e-001
3.079891e+003;1.016797e-001
3.081820e+003;1.018247e-001
3.083748e+003;1.015570e-001
3.085677e+003;1.008197e-001
3.087605e+003;1.004760e-001
3.089534e+003;1.003897e-001
3.091462e+003;9.984031e-002
3.093391e+003;9.970044e-002
3.095320e+003;9.985740e-002
3.097248e+003;9.979066e-002
3.099177e+003;9.964329e-002
3.101105e+003;9.956240e-002
3.103034e+003;9.965654e-002
3.104962e+003;9.971857e-002
3.106891e+003;9.968943e-002
3.108819e+003;9.965775e-002
3.110748e+003;9.951577e-002
3.112677e+003;9.955869e-002
3.114605e+003;9.987155e-002
3.116533e+003;9.991641e-002
3.118462e+003;9.997785e-002
3.120391e+003;1.003046e-001
3.122319e+003;1.006983e-001
3.124248e+003;1.006955e-001
3.126176e+003;1.008362e-001
3.128105e+003;1.012347e-001
3.130033e+003;1.014863e-001
3.131962e+003;1.017917e-001
3.133890e+003;1.023414e-001
3.135819e+003;1.027911e-001
3.137748e+003;1.031109e-001
3.139676e+003;1.036247e-001
3.141605e+003;1.043358e-001
3.143533e+003;1.048659e-001
3.145462e+003;1.049047e-001
3.147390e+003;1.052110e-001
3.149319e+003;1.062642e-001
3.151247e+003;1.072290e-001
3.153176e+003;1.078645e-001
3.155104e+003;1.084155e-001
3.157033e+003;1.089866e-001
3.158962e+003;1.094297e-001
3.160890e+003;1.101898e-001
3.162819e+003;1.108397e-001
3.164747e+003;1.111703e-001
3.166676e+003;1.117291e-001
3.168604e+003;1.128181e-001
3.170533e+003;1.134783e-001
3.172461e+003;1.137616e-001
3.174390e+003;1.147855e-001
3.176319e+003;1.161353e-001
3.178247e+003;1.168829e-001
3.180176e+003;1.172464e-001
3.182104e+003;1.175700e-001
3.184033e+003;1.181584e-001
3.185961e+003;1.187011e-001
3.187890e+003;1.193562e-001
3.189818e+003;1.200233e-001
3.191747e+003;1.202326e-001
3.193676e+003;1.208192e-001
3.195604e+003;1.216203e-001
3.197532e+003;1.222758e-001
3.199461e+003;1.229016e-001
3.201390e+003;1.236116e-001
3.203318e+003;1.241618e-001
3.205247e+003;1.244835e-001
3.207175e+003;1.246556e-001
3.209104e+003;1.249731e-001
3.211032e+003;1.256061e-001
3.212961e+003;1.259881e-001
3.214889e+003;1.263202e-001
3.216818e+003;1.269643e-001
3.218747e+003;1.274035e-001
3.220675e+003;1.275936e-001
3.222604e+003;1.276466e-001
3.224532e+003;1.278679e-001
3.226461e+003;1.284381e-001
3.228389e+003;1.291922e-001
3.230318e+003;1.299664e-001
3.232246e+003;1.305697e-001
3.234175e+003;1.308698e-001
3.236104e+003;1.308091e-001
3.238032e+003;1.314097e-001
3.239961e+003;1.323537e-001
3.241889e+003;1.329449e-001
3.243818e+003;1.336271e-001
3.245746e+003;1.339903e-001
3.247675e+003;1.344222e-001
3.249603e+003;1.351371e-001
3.251532e+003;1.358320e-001
3.253460e+003;1.365941e-001
3.255389e+003;1.376436e-001
3.257318e+003;1.383278e-001
3.259246e+003;1.385694e-001
3.261175e+003;1.391985e-001
3.263103e+003;1.400165e-001
3.265032e+003;1.407541e-001
3.266960e+003;1.414406e-001
3.268889e+003;1.416256e-001
3.270817e+003;1.417884e-001
3.272746e+003;1.422280e-001
3.274675e+003;1.426959e-001
3.276603e+003;1.432782e-001
3.278531e+003;1.435008e-001
3.280460e+003;1.434723e-001
3.282389e+003;1.433169e-001
3.284317e+003;1.434125e-001
3.286246e+003;1.434357e-001
3.288174e+003;1.432566e-001
3.290103e+003;1.430153e-001
3.292031e+003;1.426212e-001
3.293960e+003;1.419915e-001
3.295888e+003;1.415851e-001
3.297817e+003;1.412224e-001
3.299746e+003;1.410264e-001
3.301674e+003;1.408757e-001
3.303603e+003;1.402312e-001
3.305531e+003;1.399224e-001
3.307460e+003;1.391767e-001
3.309388e+003;1.383810e-001
3.311317e+003;1.379448e-001
3.313245e+003;1.376229e-001
3.315174e+003;1.368700e-001
3.317103e+003;1.362984e-001
3.319031e+003;1.359827e-001
3.320960e+003;1.352388e-001
3.322888e+003;1.341231e-001
3.324817e+003;1.327208e-001
3.326745e+003;1.318866e-001
3.328674e+003;1.317053e-001
3.330602e+003;1.316113e-001
3.332531e+003;1.310152e-001
3.334459e+003;1.298720e-001
3.336388e+003;1.293699e-001
3.338317e+003;1.289334e-001
3.340245e+003;1.277933e-001
3.342174e+003;1.267901e-001
3.344102e+003;1.259805e-001
3.346031e+003;1.250857e-001
3.347959e+003;1.242835e-001
3.349888e+003;1.231358e-001
3.351816e+003;1.219984e-001
3.353745e+003;1.214008e-001
3.355674e+003;1.209751e-001
3.357602e+003;1.203630e-001
3.359531e+003;1.190656e-001
3.361459e+003;1.175341e-001
3.363388e+003;1.169071e-001
3.365316e+003;1.165893e-001
3.367245e+003;1.156968e-001
3.369173e+003;1.145865e-001
3.371102e+003;1.138235e-001
3.373031e+003;1.131780e-001
3.374959e+003;1.126274e-001
3.376887e+003;1.121339e-001
3.378816e+003;1.114304e-001
3.380745e+003;1.105933e-001
3.382673e+003;1.100070e-001
3.384602e+003;1.094791e-001
3.386530e+003;1.086944e-001
3.388459e+003;1.080543e-001
3.390387e+003;1.069913e-001
3.392316e+003;1.060510e-001
3.394244e+003;1.056399e-001
3.396173e+003;1.049591e-001
3.398102e+003;1.042745e-001
3.400030e+003;1.039824e-001
3.401959e+003;1.031757e-001
3.403887e+003;1.019870e-001
3.405816e+003;1.010704e-001
3.407744e+003;1.003182e-001
3.409673e+003;9.973537e-002
3.411601e+003;9.920118e-002
3.413530e+003;9.884837e-002
3.415458e+003;9.829029e-002
3.417387e+003;9.694485e-002
3.419316e+003;9.572977e-002
3.421244e+003;9.530412e-002
3.423173e+003;9.531609e-002
3.425101e+003;9.457423e-002
3.427030e+003;9.365436e-002
3.428958e+003;9.295698e-002
3.430887e+003;9.172987e-002
3.432815e+003;9.086980e-002
3.434744e+003;9.055846e-002
3.436673e+003;8.993834e-002
3.438601e+003;8.894063e-002
3.440530e+003;8.804920e-002
3.442458e+003;8.739986e-002
3.444387e+003;8.676606e-002
3.446315e+003;8.596852e-002
3.448244e+003;8.539343e-002
3.450172e+003;8.546172e-002
3.452101e+003;8.553115e-002
3.454030e+003;8.476987e-002
3.455958e+003;8.350256e-002
3.457886e+003;8.272009e-002
3.459815e+003;8.266382e-002
3.461744e+003;8.222159e-002
3.463672e+003;8.113558e-002
3.465601e+003;8.032507e-002
3.467529e+003;7.983826e-002
3.469458e+003;7.947163e-002
3.471386e+003;7.953087e-002
3.473315e+003;7.961970e-002
3.475243e+003;7.919101e-002
3.477172e+003;7.853107e-002
3.479101e+003;7.734811e-002
3.481029e+003;7.643297e-002
3.482958e+003;7.652093e-002
3.484886e+003;7.671374e-002
3.486815e+003;7.603556e-002
3.488743e+003;7.507307e-002
3.490672e+003;7.464086e-002
3.492600e+003;7.434539e-002
3.494529e+003;7.413755e-002
3.496458e+003;7.354179e-002
3.498386e+003;7.280733e-002
3.500315e+003;7.237393e-002
3.502243e+003;7.190178e-002
3.504172e+003;7.114788e-002
3.506100e+003;7.050285e-002
3.508029e+003;7.061444e-002
3.509957e+003;7.069097e-002
3.511886e+003;7.016417e-002
3.513814e+003;6.938681e-002
3.515743e+003;6.919035e-002
3.517672e+003;6.900287e-002
3.519600e+003;6.852373e-002
3.521529e+003;6.794651e-002
3.523457e+003;6.756666e-002
3.525386e+003;6.723816e-002
3.527314e+003;6.655417e-002
3.529243e+003;6.583621e-002
3.531171e+003;6.560455e-002
3.533100e+003;6.526609e-002
3.535029e+003;6.471387e-002
3.536957e+003;6.442649e-002
3.538885e+003;6.415562e-002
3.540814e+003;6.376019e-002
3.542743e+003;6.296493e-002
3.544671e+003;6.226465e-002
3.546600e+003;6.159174e-002
3.548528e+003;6.129901e-002
3.550457e+003;6.104947e-002
3.552385e+003;6.075501e-002
3.554314e+003;6.080970e-002
3.556242e+003;6.058142e-002
3.558171e+003;5.957568e-002
3.560100e+003;5.879184e-002
3.562028e+003;5.863037e-002
3.563957e+003;5.789017e-002
3.565885e+003;5.693321e-002
3.567814e+003;5.633644e-002
3.569742e+003;5.621777e-002
3.571671e+003;5.601851e-002
3.573599e+003;5.597297e-002
3.575528e+003;5.585128e-002
3.577457e+003;5.535398e-002
3.579385e+003;5.485256e-002
3.581314e+003;5.438701e-002
3.583242e+003;5.413858e-002
3.585171e+003;5.365419e-002
3.587099e+003;5.271351e-002
3.589028e+003;5.217372e-002
3.590956e+003;5.219023e-002
3.592885e+003;5.194959e-002
3.594813e+003;5.148882e-002
3.596742e+003;5.085402e-002
3.598671e+003;5.030601e-002
3.600599e+003;4.987218e-002
3.602528e+003;4.962770e-002
3.604456e+003;4.934556e-002
3.606385e+003;4.888609e-002
3.608313e+003;4.810978e-002
3.610242e+003;4.747690e-002
3.612170e+003;4.657903e-002
3.614099e+003;4.623820e-002
3.616028e+003;4.588703e-002
3.617956e+003;4.500390e-002
3.619885e+003;4.473746e-002
3.621813e+003;4.459189e-002
3.623742e+003;4.427345e-002
3.625670e+003;4.373506e-002
3.627599e+003;4.201844e-002
3.629527e+003;4.130050e-002
3.631456e+003;4.210813e-002
3.633385e+003;4.209495e-002
3.635313e+003;4.140473e-002
3.637241e+003;4.088638e-002
3.639170e+003;4.019087e-002
3.641099e+003;3.948142e-002
3.643027e+003;3.871353e-002
3.644956e+003;3.759740e-002
3.646884e+003;3.625489e-002
3.648813e+003;3.514129e-002
3.650741e+003;3.505421e-002
3.652670e+003;3.507960e-002
3.654598e+003;3.411213e-002
3.656527e+003;3.354753e-002
3.658456e+003;3.327575e-002
3.660384e+003;3.265654e-002
3.662313e+003;3.201670e-002
3.664241e+003;3.137424e-002
3.666170e+003;3.072647e-002
3.668098e+003;2.965258e-002
3.670027e+003;2.821937e-002
3.671955e+003;2.777228e-002
3.673884e+003;2.664002e-002
3.675813e+003;2.563449e-002
3.677741e+003;2.634916e-002
3.679669e+003;2.666215e-002
3.681598e+003;2.604532e-002
3.683527e+003;2.499469e-002
3.685455e+003;2.363811e-002
3.687384e+003;2.183395e-002
3.689312e+003;2.184883e-002
3.691241e+003;2.241593e-002
3.693169e+003;2.255296e-002
3.695098e+003;2.302601e-002
3.697026e+003;2.307678e-002
3.698955e+003;2.263292e-002
3.700884e+003;2.171547e-002
3.702812e+003;2.144093e-002
3.704741e+003;2.161126e-002
3.706669e+003;2.139310e-002
3.708598e+003;2.051348e-002
3.710526e+003;1.939900e-002
3.712455e+003;1.936272e-002
3.714383e+003;2.035945e-002
3.716312e+003;2.057122e-002
3.718240e+003;2.014147e-002
3.720169e+003;1.972429e-002
3.722098e+003;1.959362e-002
3.724026e+003;1.954194e-002
3.725955e+003;1.941583e-002
3.727883e+003;1.946026e-002
3.729812e+003;1.904861e-002
3.731740e+003;1.817620e-002
3.733669e+003;1.776725e-002
3.735597e+003;1.746505e-002
3.737526e+003;1.780660e-002
3.739455e+003;1.880755e-002
3.741383e+003;1.862825e-002
3.743312e+003;1.645556e-002
3.745240e+003;1.642263e-002
3.747169e+003;1.698806e-002
3.749097e+003;1.599504e-002
3.751026e+003;1.603368e-002
3.752954e+003;1.723139e-002
3.754883e+003;1.820391e-002
3.756812e+003;1.857492e-002
3.758740e+003;1.862950e-002
3.760668e+003;1.821532e-002
3.762597e+003;1.777920e-002
3.764526e+003;1.758800e-002
3.766454e+003;1.800476e-002
3.768383e+003;1.805236e-002
3.770311e+003;1.796097e-002
3.772240e+003;1.810759e-002
3.774168e+003;1.810262e-002
3.776097e+003;1.798629e-002
3.778025e+003;1.814856e-002
3.779954e+003;1.852347e-002
3.781883e+003;1.870677e-002
3.783811e+003;1.839977e-002
3.785740e+003;1.858281e-002
3.787668e+003;1.870929e-002
3.789597e+003;1.849677e-002
3.791525e+003;1.832144e-002
3.793454e+003;1.795583e-002
3.795382e+003;1.746391e-002
3.797311e+003;1.728517e-002
3.799240e+003;1.661338e-002
3.801168e+003;1.641747e-002
3.803097e+003;1.764849e-002
3.805025e+003;1.782490e-002
3.806954e+003;1.765912e-002
3.808882e+003;1.843002e-002
3.810811e+003;1.903030e-002
3.812739e+003;1.868550e-002
3.814668e+003;1.698310e-002
3.816596e+003;1.685577e-002
3.818525e+003;1.768770e-002
3.820454e+003;1.753760e-002
3.822382e+003;1.781244e-002
3.824311e+003;1.825163e-002
3.826239e+003;1.857060e-002
3.828168e+003;1.895463e-002
3.830096e+003;1.843153e-002
3.832025e+003;1.781365e-002
3.833953e+003;1.775514e-002
3.835882e+003;1.710657e-002
3.837811e+003;1.662374e-002
3.839739e+003;1.765926e-002
3.841667e+003;1.848772e-002
3.843596e+003;1.875593e-002
3.845525e+003;1.908219e-002
3.847453e+003;1.893524e-002
3.849382e+003;1.834266e-002
3.851310e+003;1.640298e-002
3.853239e+003;1.515094e-002
3.855167e+003;1.726935e-002
3.857096e+003;1.911630e-002
3.859024e+003;1.892607e-002
3.860953e+003;1.829334e-002
3.862882e+003;1.796488e-002
3.864810e+003;1.830689e-002
3.866739e+003;1.890977e-002
3.868667e+003;1.857060e-002
3.870596e+003;1.857513e-002
3.872524e+003;1.893895e-002
3.874453e+003;1.951262e-002
3.876381e+003;1.969086e-002
3.878310e+003;1.900232e-002
3.880239e+003;1.850220e-002
3.882167e+003;1.897986e-002
3.884096e+003;1.899197e-002
3.886024e+003;1.906703e-002
3.887953e+003;1.948521e-002
3.889881e+003;1.867723e-002
3.891810e+003;1.856738e-002
3.893738e+003;1.932832e-002
3.895667e+003;2.001148e-002
3.897595e+003;1.999892e-002
3.899524e+003;1.909729e-002
3.901453e+003;1.885426e-002
3.903381e+003;1.891479e-002
3.905310e+003;1.938715e-002
3.907238e+003;2.005558e-002
3.909167e+003;2.027588e-002
3.911095e+003;2.039904e-002
3.913024e+003;2.053342e-002
3.914952e+003;2.042255e-002
3.916881e+003;1.984570e-002
3.918810e+003;1.978587e-002
3.920738e+003;2.029966e-002
3.922667e+003;2.079483e-002
3.924595e+003;2.092666e-002
3.926524e+003;2.096773e-002
3.928452e+003;2.124360e-002
3.930381e+003;2.134177e-002
3.932309e+003;2.107174e-002
3.934238e+003;2.112761e-002
3.936167e+003;2.098219e-002
3.938095e+003;2.126374e-002
3.940023e+003;2.157428e-002
3.941952e+003;2.170989e-002
3.943881e+003;2.171606e-002
3.945809e+003;2.115971e-002
3.947738e+003;2.050744e-002
3.949666e+003;2.046697e-002
3.951595e+003;2.104409e-002
3.953523e+003;2.098730e-002
3.955452e+003;2.062187e-002
3.957380e+003;2.038195e-002
3.959309e+003;2.032560e-002
3.961238e+003;2.094707e-002
3.963166e+003;2.112020e-002
3.965095e+003;2.069752e-002
3.967023e+003;2.076150e-002
3.968952e+003;2.075907e-002
3.970880e+003;2.050431e-002
3.972809e+003;2.008348e-002
3.974737e+003;2.001779e-002
3.976666e+003;2.002359e-002
3.978594e+003;2.020738e-002
3.980523e+003;2.039640e-002
3.982452e+003;2.021367e-002
3.984380e+003;1.993082e-002
3.986309e+003;2.029705e-002
3.988237e+003;2.073651e-002
3.990166e+003;2.053818e-002
3.992094e+003;2.066162e-002
3.994023e+003;2.068400e-002
3.995951e+003;2.035719e-002
3.997880e+003;2.036879e-002
3.999809e+003;2.029025e-002
4.001737e+003;0.000000e+000
