3.992094e+002;0.000000e+000
4.011380e+002;0.000000e+000
4.030665e+002;0.000000e+000
4.049951e+002;0.000000e+000
4.069236e+002;0.000000e+000
4.088522e+002;0.000000e+000
4.107807e+002;0.000000e+000
4.127093e+002;0.000000e+000
4.146378e+002;0.000000e+000
4.165664e+002;0.000000e+000
4.184949e+002;0.000000e+000
4.204235e+002;0.000000e+000
4.223520e+002;0.000000e+000
4.242806e+002;0.000000e+000
4.262091e+002;0.000000e+000
4.281377e+002;0.000000e+000
4.300662e+002;0.000000e+000
4.319948e+002;0.000000e+000
4.339233e+002;0.000000e+000
4.358519e+002;0.000000e+000
4.377804e+002;0.000000e+000
4.397090e+002;0.000000e+000
4.416375e+002;0.000000e+000
4.435660e+002;0.000000e+000
4.454946e+002;0.000000e+000
4.474232e+002;0.000000e+000
4.493517e+002;0.000000e+000
4.512802e+002;0.000000e+000
4.532088e+002;0.000000e+000
4.551373e+002;0.000000e+000
4.570659e+002;0.000000e+000
4.589944e+002;0.000000e+000
4.609230e+002;0.000000e+000
4.628515e+002;0.000000e+000
4.647801e+002;0.000000e+000
4.667086e+002;0.000000e+000
4.686372e+002;0.000000e+000
4.705657e+002;0.000000e+000
4.724943e+002;0.000000e+000
4.744228e+002;0.000000e+000
4.763513e+002;0.000000e+000
4.782799e+002;0.000000e+000
4.802085e+002;0.000000e+000
4.821370e+002;0.000000e+000
4.840656e+002;0.000000e+000
4.859941e+002;0.000000e+000
4.879226e+002;0.000000e+000
4.898512e+002;0.000000e+000
4.917798e+002;0.000000e+000
4.937083e+002;0.000000e+000
4.956368e+002;0.000000e+000
4.975654e+002;0.000000e+000
4.994939e+002;0.000000e+000
5.014225e+002;0.000000e+000
5.033510e+002;0.000000e+000
5.052796e+002;0.000000e+000
5.072081e+002;0.000000e+000
5.091367e+002;0.000000e+000
5.110652e+002;0.000000e+000
5.129938e+002;0.000000e+000
5.149223e+002;0.000000e+000
5.168509e+002;0.000000e+000
5.187794e+002;0.000000e+000
5.207079e+002;0.000000e+000
5.226365e+002;0.000000e+000
5.245651e+002;0.000000e+000
5.264936e+002;0.000000e+000
5.284222e+002;0.000000e+000
5.303507e+002;0.000000e+000
5.322792e+002;0.000000e+000
5.342078e+002;0.000000e+000
5.361364e+002;0.000000e+000
5.380649e+002;0.000000e+000
5.399935e+002;0.000000e+000
5.419220e+002;0.000000e+000
5.438505e+002;0.000000e+000
5.457791e+002;0.000000e+000
5.477076e+002;0.000000e+000
5.496362e+002;0.000000e+000
5.515648e+002;0.000000e+000
5.534933e+002;0.000000e+000
5.554218e+002;0.000000e+000
5.573504e+002;0.000000e+000
5.592789e+002;0.000000e+000
5.612075e+002;0.000000e+000
5.631360e+002;0.000000e+000
5.650646e+002;0.000000e+000
5.669931e+002;0.000000e+000
5.689217e+002;0.000000e+000
5.708502e+002;0.000000e+000
5.727787e+002;0.000000e+000
5.747073e+002;0.000000e+000
5.766359e+002;0.000000e+000
5.785644e+002;0.000000e+000
5.804930e+002;0.000000e+000
5.824215e+002;0.000000e+000
5.843500e+002;0.000000e+000
5.862786e+002;0.000000e+000
5.882072e+002;0.000000e+000
5.901357e+002;0.000000e+000
5.920643e+002;0.000000e+000
5.939928e+002;0.000000e+000
5.959213e+002;0.000000e+000
5.978499e+002;0.000000e+000
5.997784e+002;1.633828e-001
6.017070e+002;1.631823e-001
6.036355e+002;1.655330e-001
6.055641e+002;1.681249e-001
6.074926e+002;1.660663e-001
6.094211e+002;1.626566e-001
6.113497e+002;1.601417e-001
6.132783e+002;1.587685e-001
6.152068e+002;1.607644e-001
6.171354e+002;1.631679e-001
6.190639e+002;1.638388e-001
6.209924e+002;1.623371e-001
6.229210e+002;1.625996e-001
6.248495e+002;1.617986e-001
6.267781e+002;1.593716e-001
6.287067e+002;1.575900e-001
6.306352e+002;1.588906e-001
6.325637e+002;1.595428e-001
6.344923e+002;1.559154e-001
6.364208e+002;1.536882e-001
6.383494e+002;1.531384e-001
6.402780e+002;1.488856e-001
6.422065e+002;1.499282e-001
6.441350e+002;1.554838e-001
6.460636e+002;1.576861e-001
6.479921e+002;1.567992e-001
6.499207e+002;1.535936e-001
6.518492e+002;1.499260e-001
6.537778e+002;1.471014e-001
6.557063e+002;1.481043e-001
6.576349e+002;1.497800e-001
6.595634e+002;1.496818e-001
6.614919e+002;1.500069e-001
6.634205e+002;1.512686e-001
6.653491e+002;1.512324e-001
6.672776e+002;1.479979e-001
6.692062e+002;1.460481e-001
6.711347e+002;1.440518e-001
6.730632e+002;1.426854e-001
6.749918e+002;1.410856e-001
6.769203e+002;1.399145e-001
6.788489e+002;1.393996e-001
6.807775e+002;1.390724e-001
6.827060e+002;1.385652e-001
6.846345e+002;1.371882e-001
6.865631e+002;1.363977e-001
6.884916e+002;1.351536e-001
6.904202e+002;1.348166e-001
6.923488e+002;1.355491e-001
6.942773e+002;1.352566e-001
6.962058e+002;1.348742e-001
6.981344e+002;1.342686e-001
7.000629e+002;1.330788e-001
7.019915e+002;1.328313e-001
7.039200e+002;1.326073e-001
7.058486e+002;1.309967e-001
7.077771e+002;1.294661e-001
7.097057e+002;1.276934e-001
7.116342e+002;1.263573e-001
7.135627e+002;1.262842e-001
7.154913e+002;1.254794e-001
7.174199e+002;1.235033e-001
7.193484e+002;1.219492e-001
7.212770e+002;1.214679e-001
7.232055e+002;1.202898e-001
7.251340e+002;1.189892e-001
7.270626e+002;1.186823e-001
7.289911e+002;1.188028e-001
7.309197e+002;1.189808e-001
7.328483e+002;1.188727e-001
7.347768e+002;1.184379e-001
7.367053e+002;1.183378e-001
7.386339e+002;1.182790e-001
7.405624e+002;1.181136e-001
7.424910e+002;1.185685e-001
7.444196e+002;1.186489e-001
7.463481e+002;1.172127e-001
7.482766e+002;1.160618e-001
7.502052e+002;1.150325e-001
7.521337e+002;1.141933e-001
7.540623e+002;1.133438e-001
7.559908e+002;1.120085e-001
7.579194e+002;1.103485e-001
7.598479e+002;1.093796e-001
7.617765e+002;1.087367e-001
7.637050e+002;1.078717e-001
7.656335e+002;1.065646e-001
7.675621e+002;1.050596e-001
7.694907e+002;1.039490e-001
7.714192e+002;1.021668e-001
7.733478e+002;1.002400e-001
7.752763e+002;9.941245e-002
7.772048e+002;9.949894e-002
7.791334e+002;9.861396e-002
7.810620e+002;9.742054e-002
7.829905e+002;9.722362e-002
7.849191e+002;9.661381e-002
7.868476e+002;9.597714e-002
7.887761e+002;9.551954e-002
7.907047e+002;9.536879e-002
7.926332e+002;9.553919e-002
7.945618e+002;9.444695e-002
7.964903e+002;9.277648e-002
7.984189e+002;9.206310e-002
8.003474e+002;9.176040e-002
8.022759e+002;9.136766e-002
8.042045e+002;9.093928e-002
8.061331e+002;9.067333e-002
8.080616e+002;9.099300e-002
8.099902e+002;9.154177e-002
8.119187e+002;9.169603e-002
8.138472e+002;9.114199e-002
8.157758e+002;9.060173e-002
8.177043e+002;9.094802e-002
8.196329e+002;9.127832e-002
8.215615e+002;9.175108e-002
8.234900e+002;9.262007e-002
8.254185e+002;9.301494e-002
8.273471e+002;9.317888e-002
8.292756e+002;9.346563e-002
8.312042e+002;9.301445e-002
8.331328e+002;9.196715e-002
8.350613e+002;9.128761e-002
8.369898e+002;9.041151e-002
8.389184e+002;8.899390e-002
8.408469e+002;8.834457e-002
8.427755e+002;8.747835e-002
8.447040e+002;8.583470e-002
8.466326e+002;8.492883e-002
8.485611e+002;8.428305e-002
8.504897e+002;8.329912e-002
8.524182e+002;8.280092e-002
8.543467e+002;8.208331e-002
8.562753e+002;8.121610e-002
8.582039e+002;8.061579e-002
8.601324e+002;7.998451e-002
8.620610e+002;7.963152e-002
8.639895e+002;7.904066e-002
8.659180e+002;7.882512e-002
8.678466e+002;7.922155e-002
8.697751e+002;7.904825e-002
8.717037e+002;7.873662e-002
8.736323e+002;7.893725e-002
8.755608e+002;7.903772e-002
8.774893e+002;7.891039e-002
8.794179e+002;7.932495e-002
8.813464e+002;8.005247e-002
8.832750e+002;8.034468e-002
8.852036e+002;8.044337e-002
8.871321e+002;8.058068e-002
8.890606e+002;8.026782e-002
8.909892e+002;7.970946e-002
8.929177e+002;7.922358e-002
8.948463e+002;7.883402e-002
8.967748e+002;7.871675e-002
8.987034e+002;7.839258e-002
9.006319e+002;7.813837e-002
9.025605e+002;7.802854e-002
9.044890e+002;7.797676e-002
9.064175e+002;7.813710e-002
9.083461e+002;7.828892e-002
9.102747e+002;7.806884e-002
9.122032e+002;7.804457e-002
9.141318e+002;7.814067e-002
9.160603e+002;7.820684e-002
9.179888e+002;7.856494e-002
9.199174e+002;7.887495e-002
9.218459e+002;7.887816e-002
9.237745e+002;7.918036e-002
9.257031e+002;7.945881e-002
9.276316e+002;7.972661e-002
9.295601e+002;8.001398e-002
9.314887e+002;8.022513e-002
9.334172e+002;8.029130e-002
9.353458e+002;8.025037e-002
9.372744e+002;8.010343e-002
9.392029e+002;7.982340e-002
9.411314e+002;7.933247e-002
9.430600e+002;7.895394e-002
9.449885e+002;7.873817e-002
9.469171e+002;7.880697e-002
9.488456e+002;7.909922e-002
9.507742e+002;7.902524e-002
9.527027e+002;7.889390e-002
9.546313e+002;7.907973e-002
9.565598e+002;7.933140e-002
9.584883e+002;7.961851e-002
9.604169e+002;7.990310e-002
9.623455e+002;8.028640e-002
9.642740e+002;8.039268e-002
9.662026e+002;8.056257e-002
9.681311e+002;8.116697e-002
9.700596e+002;8.174753e-002
9.719882e+002;8.201095e-002
9.739167e+002;8.201495e-002
9.758453e+002;8.207282e-002
9.777739e+002;8.267027e-002
9.797024e+002;8.327829e-002
9.816309e+002;8.329415e-002
9.835595e+002;8.321399e-002
9.854880e+002;8.378991e-002
9.874166e+002;8.496462e-002
9.893452e+002;8.619944e-002
9.912737e+002;8.725077e-002
9.932022e+002;8.773185e-002
9.951307e+002;8.824497e-002
9.970593e+002;8.855899e-002
9.989879e+002;8.880540e-002
1.000916e+003;8.934225e-002
1.002845e+003;9.002027e-002
1.004773e+003;9.127407e-002
1.006702e+003;9.280918e-002
1.008631e+003;9.401038e-002
1.010559e+003;9.528939e-002
1.012488e+003;9.687158e-002
1.014416e+003;9.872823e-002
1.016345e+003;1.005332e-001
1.018273e+003;1.022251e-001
1.020202e+003;1.039719e-001
1.022130e+003;1.057682e-001
1.024059e+003;1.076812e-001
1.025988e+003;1.098923e-001
1.027916e+003;1.127491e-001
1.029845e+003;1.155599e-001
1.031773e+003;1.182167e-001
1.033702e+003;1.212221e-001
1.035630e+003;1.243341e-001
1.037559e+003;1.271690e-001
1.039487e+003;1.292002e-001
1.041416e+003;1.307703e-001
1.043344e+003;1.323066e-001
1.045273e+003;1.333153e-001
1.047202e+003;1.333424e-001
1.049130e+003;1.325102e-001
1.051059e+003;1.306997e-001
1.052987e+003;1.279480e-001
1.054916e+003;1.253670e-001
1.056844e+003;1.239662e-001
1.058773e+003;1.234030e-001
1.060701e+003;1.232169e-001
1.062630e+003;1.230873e-001
1.064558e+003;1.227656e-001
1.066487e+003;1.229116e-001
1.068416e+003;1.237864e-001
1.070344e+003;1.242733e-001
1.072273e+003;1.246074e-001
1.074201e+003;1.251651e-001
1.076130e+003;1.251626e-001
1.078058e+003;1.251577e-001
1.079987e+003;1.256915e-001
1.081915e+003;1.261084e-001
1.083844e+003;1.260868e-001
1.085773e+003;1.261971e-001
1.087701e+003;1.261181e-001
1.089630e+003;1.256862e-001
1.091558e+003;1.253022e-001
1.093487e+003;1.251470e-001
1.095415e+003;1.252048e-001
1.097344e+003;1.254539e-001
1.099272e+003;1.256229e-001
1.101201e+003;1.253422e-001
1.103129e+003;1.248589e-001
1.105058e+003;1.244685e-001
1.106987e+003;1.235702e-001
1.108915e+003;1.224677e-001
1.110844e+003;1.216220e-001
1.112772e+003;1.208318e-001
1.114701e+003;1.199066e-001
1.116629e+003;1.193420e-001
1.118558e+003;1.195604e-001
1.120486e+003;1.196594e-001
1.122415e+003;1.194237e-001
1.124344e+003;1.194815e-001
1.126272e+003;1.196702e-001
1.128201e+003;1.197122e-001
1.130129e+003;1.198935e-001
1.132058e+003;1.199361e-001
1.133986e+003;1.201787e-001
1.135915e+003;1.211897e-001
1.137843e+003;1.226014e-001
1.139772e+003;1.238206e-001
1.141700e+003;1.248956e-001
1.143629e+003;1.258095e-001
1.145557e+003;1.269618e-001
1.147486e+003;1.284289e-001
1.149415e+003;1.295943e-001
1.151343e+003;1.301705e-001
1.153272e+003;1.306414e-001
1.155200e+003;1.311316e-001
1.157129e+003;1.312250e-001
1.159057e+003;1.311255e-001
1.160986e+003;1.315654e-001
1.162914e+003;1.320178e-001
1.164843e+003;1.322651e-001
1.166771e+003;1.330827e-001
1.168700e+003;1.342694e-001
1.170629e+003;1.353483e-001
1.172557e+003;1.358319e-001
1.174486e+003;1.360148e-001
1.176414e+003;1.365436e-001
1.178343e+003;1.372739e-001
1.180271e+003;1.377961e-001
1.182200e+003;1.381117e-001
1.184128e+003;1.386538e-001
1.186057e+003;1.394337e-001
1.187986e+003;1.402093e-001
1.189914e+003;1.406220e-001
1.191843e+003;1.410833e-001
1.193771e+003;1.416821e-001
1.195700e+003;1.422501e-001
1.197628e+003;1.431730e-001
1.199557e+003;1.442378e-001
1.201485e+003;1.450670e-001
1.203414e+003;1.455781e-001
1.205343e+003;1.458558e-001
1.207271e+003;1.464266e-001
1.209200e+003;1.471484e-001
1.211128e+003;1.479788e-001
1.213057e+003;1.487706e-001
1.214985e+003;1.494080e-001
1.216914e+003;1.503436e-001
1.218842e+003;1.510538e-001
1.220771e+003;1.516181e-001
1.222699e+003;1.521017e-001
1.224628e+003;1.524797e-001
1.226557e+003;1.530785e-001
1.228485e+003;1.536204e-001
1.230414e+003;1.536996e-001
1.232342e+003;1.533710e-001
1.234271e+003;1.532729e-001
1.236199e+003;1.528550e-001
1.238128e+003;1.522257e-001
1.240056e+003;1.514456e-001
1.241985e+003;1.507391e-001
1.243913e+003;1.501448e-001
1.245842e+003;1.494646e-001
1.247771e+003;1.487642e-001
1.249699e+003;1.480066e-001
1.251628e+003;1.471664e-001
1.253556e+003;1.464615e-001
1.255485e+003;1.459790e-001
1.257413e+003;1.455047e-001
1.259342e+003;1.448174e-001
1.261270e+003;1.437194e-001
1.263199e+003;1.426013e-001
1.265127e+003;1.412449e-001
1.267056e+003;1.401439e-001
1.268985e+003;1.394210e-001
1.270913e+003;1.388911e-001
1.272842e+003;1.388143e-001
1.274770e+003;1.388357e-001
1.276699e+003;1.386138e-001
1.278627e+003;1.387585e-001
1.280556e+003;1.385159e-001
1.282484e+003;1.381378e-001
1.284413e+003;1.379860e-001
1.286342e+003;1.375389e-001
1.288270e+003;1.370497e-001
1.290199e+003;1.366365e-001
1.292127e+003;1.361808e-001
1.294056e+003;1.356068e-001
1.295984e+003;1.351669e-001
1.297913e+003;1.346409e-001
1.299841e+003;1.338647e-001
1.301770e+003;1.331943e-001
1.303698e+003;1.328104e-001
1.305627e+003;1.323543e-001
1.307556e+003;1.319436e-001
1.309484e+003;1.317584e-001
1.311413e+003;1.317186e-001
1.313341e+003;1.320784e-001
1.315270e+003;1.328411e-001
1.317198e+003;1.334546e-001
1.319127e+003;1.339538e-001
1.321055e+003;1.344739e-001
1.322984e+003;1.347157e-001
1.324912e+003;1.348426e-001
1.326841e+003;1.351105e-001
1.328770e+003;1.349722e-001
1.330698e+003;1.343862e-001
1.332627e+003;1.340023e-001
1.334555e+003;1.334576e-001
1.336484e+003;1.323939e-001
1.338412e+003;1.312207e-001
1.340341e+003;1.303378e-001
1.342269e+003;1.295753e-001
1.344198e+003;1.283952e-001
1.346126e+003;1.273505e-001
1.348055e+003;1.266075e-001
1.349984e+003;1.258079e-001
1.351912e+003;1.250891e-001
1.353841e+003;1.242349e-001
1.355769e+003;1.237050e-001
1.357698e+003;1.236077e-001
1.359626e+003;1.236253e-001
1.361555e+003;1.239956e-001
1.363483e+003;1.247368e-001
1.365412e+003;1.257381e-001
1.367341e+003;1.265444e-001
1.369269e+003;1.271678e-001
1.371198e+003;1.275267e-001
1.373126e+003;1.276231e-001
1.375055e+003;1.278665e-001
1.376983e+003;1.284977e-001
1.378912e+003;1.292121e-001
1.380840e+003;1.298878e-001
1.382769e+003;1.307109e-001
1.384698e+003;1.316255e-001
1.386626e+003;1.321837e-001
1.388555e+003;1.324576e-001
1.390483e+003;1.325361e-001
1.392412e+003;1.322191e-001
1.394340e+003;1.315688e-001
1.396269e+003;1.310862e-001
1.398197e+003;1.308985e-001
1.400126e+003;1.310493e-001
1.402054e+003;1.311702e-001
1.403983e+003;1.310550e-001
1.405911e+003;1.310384e-001
1.407840e+003;1.313449e-001
1.409769e+003;1.315954e-001
1.411697e+003;1.316070e-001
1.413626e+003;1.316190e-001
1.415554e+003;1.316790e-001
1.417483e+003;1.315294e-001
1.419411e+003;1.314506e-001
1.421340e+003;1.323018e-001
1.423268e+003;1.333455e-001
1.425197e+003;1.342528e-001
1.427125e+003;1.351351e-001
1.429054e+003;1.362060e-001
1.430983e+003;1.376349e-001
1.432911e+003;1.393527e-001
1.434840e+003;1.410747e-001
1.436768e+003;1.427229e-001
1.438697e+003;1.446120e-001
1.440625e+003;1.461902e-001
1.442554e+003;1.470988e-001
1.444482e+003;1.476309e-001
1.446411e+003;1.481856e-001
1.448340e+003;1.486361e-001
1.450268e+003;1.489602e-001
1.452197e+003;1.493494e-001
1.454125e+003;1.497466e-001
1.456054e+003;1.494801e-001
1.457982e+003;1.497508e-001
1.459911e+003;1.503717e-001
1.461839e+003;1.501850e-001
1.463768e+003;1.493156e-001
1.465697e+003;1.487241e-001
1.467625e+003;1.483551e-001
1.469554e+003;1.476691e-001
1.471482e+003;1.468976e-001
1.473411e+003;1.469539e-001
1.475339e+003;1.477149e-001
1.477268e+003;1.486448e-001
1.479196e+003;1.500653e-001
1.481125e+003;1.518276e-001
1.483053e+003;1.541421e-001
1.484982e+003;1.570910e-001
1.486911e+003;1.603562e-001
1.488839e+003;1.638780e-001
1.490768e+003;1.679490e-001
1.492696e+003;1.723840e-001
1.494625e+003;1.761846e-001
1.496553e+003;1.797072e-001
1.498482e+003;1.829166e-001
1.500410e+003;1.857336e-001
1.502339e+003;1.879955e-001
1.504267e+003;1.891346e-001
1.506196e+003;1.898401e-001
1.508125e+003;1.915228e-001
1.510053e+003;1.933815e-001
1.511982e+003;1.941184e-001
1.513910e+003;1.944515e-001
1.515839e+003;1.937042e-001
1.517767e+003;1.916176e-001
1.519696e+003;1.884365e-001
1.521624e+003;1.852146e-001
1.523553e+003;1.830535e-001
1.525481e+003;1.809370e-001
1.527410e+003;1.789048e-001
1.529339e+003;1.769565e-001
1.531267e+003;1.748793e-001
1.533196e+003;1.726592e-001
1.535124e+003;1.705983e-001
1.537053e+003;1.678767e-001
1.538981e+003;1.648822e-001
1.540910e+003;1.630611e-001
1.542838e+003;1.618058e-001
1.544767e+003;1.597935e-001
1.546695e+003;1.575447e-001
1.548624e+003;1.550505e-001
1.550553e+003;1.521857e-001
1.552481e+003;1.493182e-001
1.554410e+003;1.464173e-001
1.556338e+003;1.433907e-001
1.558267e+003;1.398328e-001
1.560195e+003;1.375618e-001
1.562124e+003;1.362723e-001
1.564052e+003;1.345279e-001
1.565981e+003;1.326834e-001
1.567910e+003;1.307746e-001
1.569838e+003;1.290291e-001
1.571767e+003;1.281252e-001
1.573695e+003;1.272257e-001
1.575624e+003;1.262523e-001
1.577552e+003;1.267153e-001
1.579481e+003;1.275769e-001
1.581409e+003;1.279867e-001
1.583338e+003;1.285998e-001
1.585266e+003;1.299717e-001
1.587195e+003;1.316731e-001
1.589124e+003;1.334113e-001
1.591052e+003;1.354545e-001
1.592981e+003;1.375403e-001
1.594909e+003;1.395516e-001
1.596838e+003;1.418434e-001
1.598766e+003;1.444626e-001
1.600695e+003;1.475473e-001
1.602623e+003;1.512010e-001
1.604552e+003;1.550639e-001
1.606480e+003;1.591161e-001
1.608409e+003;1.635399e-001
1.610338e+003;1.681093e-001
1.612266e+003;1.724507e-001
1.614195e+003;1.763203e-001
1.616123e+003;1.796888e-001
1.618052e+003;1.836957e-001
1.619980e+003;1.875704e-001
1.621909e+003;1.906774e-001
1.623837e+003;1.942543e-001
1.625766e+003;1.979839e-001
1.627694e+003;2.011593e-001
1.629623e+003;2.041143e-001
1.631552e+003;2.063887e-001
1.633480e+003;2.079654e-001
1.635409e+003;2.091955e-001
1.637337e+003;2.105948e-001
1.639266e+003;2.113930e-001
1.641194e+003;2.113235e-001
1.643123e+003;2.104560e-001
1.645051e+003;2.085772e-001
1.646980e+003;2.064911e-001
1.648909e+003;2.046792e-001
1.650837e+003;2.016265e-001
1.652766e+003;1.976441e-001
1.654694e+003;1.952389e-001
1.656623e+003;1.930903e-001
1.658551e+003;1.896433e-001
1.660480e+003;1.853552e-001
1.662408e+003;1.809229e-001
1.664337e+003;1.771035e-001
1.666266e+003;1.734100e-001
1.668194e+003;1.691257e-001
1.670123e+003;1.645398e-001
1.672051e+003;1.603801e-001
1.673980e+003;1.560601e-001
1.675908e+003;1.519890e-001
1.677837e+003;1.481856e-001
1.679765e+003;1.438756e-001
1.681694e+003;1.390409e-001
1.683622e+003;1.336854e-001
1.685551e+003;1.295991e-001
1.687479e+003;1.264172e-001
1.689408e+003;1.225909e-001
1.691337e+003;1.185579e-001
1.693265e+003;1.141036e-001
1.695194e+003;1.086832e-001
1.697122e+003;1.039378e-001
1.699051e+003;9.927359e-002
1.700979e+003;9.469280e-002
1.702908e+003;9.106091e-002
1.704836e+003;8.690381e-002
1.706765e+003;8.280689e-002
1.708693e+003;7.894218e-002
1.710622e+003;7.529811e-002
1.712551e+003;7.176084e-002
1.714479e+003;6.821816e-002
1.716408e+003;6.493871e-002
1.718336e+003;6.274371e-002
1.720265e+003;6.110217e-002
1.722193e+003;5.914199e-002
1.724122e+003;5.720740e-002
1.726050e+003;5.567760e-002
1.727979e+003;5.406866e-002
1.729908e+003;5.218750e-002
1.731836e+003;4.988225e-002
1.733765e+003;4.779023e-002
1.735693e+003;4.700586e-002
1.737622e+003;4.598083e-002
1.739550e+003;4.417114e-002
1.741479e+003;4.257568e-002
1.743407e+003;4.103453e-002
1.745336e+003;3.970620e-002
1.747265e+003;3.837953e-002
1.749193e+003;3.683788e-002
1.751122e+003;3.549200e-002
1.753050e+003;3.463753e-002
1.754979e+003;3.361823e-002
1.756907e+003;3.251325e-002
1.758836e+003;3.154983e-002
1.760764e+003;3.060785e-002
1.762693e+003;2.986939e-002
1.764621e+003;2.939238e-002
1.766550e+003;2.868589e-002
1.768479e+003;2.804530e-002
1.770407e+003;2.725057e-002
1.772336e+003;2.657281e-002
1.774264e+003;2.656774e-002
1.776193e+003;2.644609e-002
1.778121e+003;2.605095e-002
1.780050e+003;2.546630e-002
1.781978e+003;2.507198e-002
1.783907e+003;2.506980e-002
1.785835e+003;2.502660e-002
1.787764e+003;2.476901e-002
1.789693e+003;2.434445e-002
1.791621e+003;2.399512e-002
1.793550e+003;2.397012e-002
1.795478e+003;2.412652e-002
1.797407e+003;2.380632e-002
1.799335e+003;2.330477e-002
1.801264e+003;2.302238e-002
1.803192e+003;2.318326e-002
1.805121e+003;2.325904e-002
1.807049e+003;2.301927e-002
1.808978e+003;2.272833e-002
1.810907e+003;2.266071e-002
1.812835e+003;2.271782e-002
1.814764e+003;2.273413e-002
1.816692e+003;2.261757e-002
1.818621e+003;2.224933e-002
1.820549e+003;2.196111e-002
1.822478e+003;2.203629e-002
1.824406e+003;2.197048e-002
1.826335e+003;2.187824e-002
1.828264e+003;2.173522e-002
1.830192e+003;2.166991e-002
1.832121e+003;2.155948e-002
1.834049e+003;2.144626e-002
1.835978e+003;2.139289e-002
1.837906e+003;2.132116e-002
1.839835e+003;2.133783e-002
1.841763e+003;2.117297e-002
1.843692e+003;2.079702e-002
1.845620e+003;2.081791e-002
1.847549e+003;2.100469e-002
1.849478e+003;2.104329e-002
1.851406e+003;2.096331e-002
1.853335e+003;2.080989e-002
1.855263e+003;2.068247e-002
1.857192e+003;2.058049e-002
1.859120e+003;2.047715e-002
1.861049e+003;2.047242e-002
1.862977e+003;2.059488e-002
1.864906e+003;2.062142e-002
1.866834e+003;2.037028e-002
1.868763e+003;2.002244e-002
1.870692e+003;2.006644e-002
1.872620e+003;2.025026e-002
1.874549e+003;2.035066e-002
1.876477e+003;2.047670e-002
1.878406e+003;2.034403e-002
1.880334e+003;2.008521e-002
1.882263e+003;2.005152e-002
1.884191e+003;2.000489e-002
1.886120e+003;2.002168e-002
1.888048e+003;2.010534e-002
1.889977e+003;2.014147e-002
1.891906e+003;2.031011e-002
1.893834e+003;2.041130e-002
1.895763e+003;2.030959e-002
1.897691e+003;2.018277e-002
1.899620e+003;2.024800e-002
1.901548e+003;2.024474e-002
1.903477e+003;2.007852e-002
1.905405e+003;1.997363e-002
1.907334e+003;2.007227e-002
1.909262e+003;2.008587e-002
1.911191e+003;1.996093e-002
1.913120e+003;1.994334e-002
1.915048e+003;2.002692e-002
1.916977e+003;1.989290e-002
1.918905e+003;1.976135e-002
1.920834e+003;1.978278e-002
1.922762e+003;1.986782e-002
1.924691e+003;2.008445e-002
1.926619e+003;2.018409e-002
1.928548e+003;2.003320e-002
1.930477e+003;2.004389e-002
1.932405e+003;1.998310e-002
1.934334e+003;1.980630e-002
1.936262e+003;1.980321e-002
1.938191e+003;1.959074e-002
1.940119e+003;1.936078e-002
1.942048e+003;1.944355e-002
1.943976e+003;1.965037e-002
1.945905e+003;1.972488e-002
1.947833e+003;1.983532e-002
1.949762e+003;1.998539e-002
1.951691e+003;1.994320e-002
1.953619e+003;1.987122e-002
1.955548e+003;1.997734e-002
1.957476e+003;1.994195e-002
1.959405e+003;1.991541e-002
1.961333e+003;1.985752e-002
1.963262e+003;1.986266e-002
1.965190e+003;1.997890e-002
1.967119e+003;1.988704e-002
1.969047e+003;1.974675e-002
1.970976e+003;1.974981e-002
1.972905e+003;1.977190e-002
1.974833e+003;1.961459e-002
1.976762e+003;1.957220e-002
1.978690e+003;1.968941e-002
1.980619e+003;1.972630e-002
1.982547e+003;1.953071e-002
1.984476e+003;1.951775e-002
1.986404e+003;1.960873e-002
1.988333e+003;1.951782e-002
1.990261e+003;1.951959e-002
1.992190e+003;1.954971e-002
1.994119e+003;1.962513e-002
1.996047e+003;1.966593e-002
1.997976e+003;1.953078e-002
1.999904e+003;1.936380e-002
2.001833e+003;1.939158e-002
2.003761e+003;1.937800e-002
2.005690e+003;1.944380e-002
2.007618e+003;1.953057e-002
2.009547e+003;1.957365e-002
2.011476e+003;1.960905e-002
2.013404e+003;1.950500e-002
2.015333e+003;1.948798e-002
2.017261e+003;1.952236e-002
2.019190e+003;1.962329e-002
2.021118e+003;1.970955e-002
2.023047e+003;1.959407e-002
2.024975e+003;1.950028e-002
2.026904e+003;1.949269e-002
2.028833e+003;1.950032e-002
2.030761e+003;1.951806e-002
2.032690e+003;1.962423e-002
2.034618e+003;1.961307e-002
2.036547e+003;1.942956e-002
2.038475e+003;1.936761e-002
2.040404e+003;1.932340e-002
2.042332e+003;1.940322e-002
2.044261e+003;1.943624e-002
2.046189e+003;1.915089e-002
2.048118e+003;1.907880e-002
2.050047e+003;1.928235e-002
2.051975e+003;1.939841e-002
2.053904e+003;1.950909e-002
2.055832e+003;1.953879e-002
2.057761e+003;1.952607e-002
2.059689e+003;1.959629e-002
2.061618e+003;1.955074e-002
2.063546e+003;1.944633e-002
2.065475e+003;1.930982e-002
2.067404e+003;1.924657e-002
2.069332e+003;1.932513e-002
2.071260e+003;1.927162e-002
2.073189e+003;1.922261e-002
2.075118e+003;1.926417e-002
2.077046e+003;1.929905e-002
2.078975e+003;1.939505e-002
2.080903e+003;1.943316e-002
2.082832e+003;1.924259e-002
2.084760e+003;1.907693e-002
2.086689e+003;1.917409e-002
2.088617e+003;1.934495e-002
2.090546e+003;1.946521e-002
2.092475e+003;1.941060e-002
2.094403e+003;1.918046e-002
2.096332e+003;1.911120e-002
2.098260e+003;1.919812e-002
2.100189e+003;1.912689e-002
2.102117e+003;1.881789e-002
2.104046e+003;1.870846e-002
2.105974e+003;1.886343e-002
2.107903e+003;1.891161e-002
2.109832e+003;1.875876e-002
2.111760e+003;1.872725e-002
2.113688e+003;1.884322e-002
2.115617e+003;1.882893e-002
2.117546e+003;1.872822e-002
2.119474e+003;1.865056e-002
2.121403e+003;1.869999e-002
2.123331e+003;1.888873e-002
2.125260e+003;1.902687e-002
2.127188e+003;1.910390e-002
2.129117e+003;1.900475e-002
2.131045e+003;1.888233e-002
2.132974e+003;1.881336e-002
2.134903e+003;1.889866e-002
2.136831e+003;1.884135e-002
2.138760e+003;1.875344e-002
2.140688e+003;1.881745e-002
2.142617e+003;1.881520e-002
2.144545e+003;1.877520e-002
2.146474e+003;1.884717e-002
2.148402e+003;1.879644e-002
2.150331e+003;1.877696e-002
2.152260e+003;1.904532e-002
2.154188e+003;1.913316e-002
2.156117e+003;1.890147e-002
2.158045e+003;1.874762e-002
2.159974e+003;1.884430e-002
2.161902e+003;1.895933e-002
2.163831e+003;1.890866e-002
2.165759e+003;1.888918e-002
2.167688e+003;1.888568e-002
2.169616e+003;1.888011e-002
2.171545e+003;1.885821e-002
2.173474e+003;1.897948e-002
2.175402e+003;1.913672e-002
2.177331e+003;1.904376e-002
2.179259e+003;1.889703e-002
2.181188e+003;1.882097e-002
2.183116e+003;1.886326e-002
2.185045e+003;1.875908e-002
2.186973e+003;1.883959e-002
2.188902e+003;1.912509e-002
2.190831e+003;1.915470e-002
2.192759e+003;1.898214e-002
2.194688e+003;1.887153e-002
2.196616e+003;1.882803e-002
2.198545e+003;1.872268e-002
2.200473e+003;1.883461e-002
2.202402e+003;1.886274e-002
2.204330e+003;1.878783e-002
2.206259e+003;1.865872e-002
2.208188e+003;1.872787e-002
2.210116e+003;1.884655e-002
2.212044e+003;1.886471e-002
2.213973e+003;1.893909e-002
2.215902e+003;1.894057e-002
2.217830e+003;1.886239e-002
2.219759e+003;1.880942e-002
2.221687e+003;1.891462e-002
2.223616e+003;1.894369e-002
2.225544e+003;1.901918e-002
2.227473e+003;1.917925e-002
2.229401e+003;1.923012e-002
2.231330e+003;1.902486e-002
2.233259e+003;1.894313e-002
2.235187e+003;1.908164e-002
2.237116e+003;1.910241e-002
2.239044e+003;1.910809e-002
2.240973e+003;1.912336e-002
2.242901e+003;1.913492e-002
2.244830e+003;1.921679e-002
2.246758e+003;1.912294e-002
2.248687e+003;1.889389e-002
2.250615e+003;1.896577e-002
2.252544e+003;1.903715e-002
2.254473e+003;1.888226e-002
2.256401e+003;1.889406e-002
2.258330e+003;1.894279e-002
2.260258e+003;1.896650e-002
2.262187e+003;1.916100e-002
2.264115e+003;1.928249e-002
2.266044e+003;1.917932e-002
2.267972e+003;1.903476e-002
2.269901e+003;1.892531e-002
2.271830e+003;1.890482e-002
2.273758e+003;1.912744e-002
2.275687e+003;1.939913e-002
2.277615e+003;1.924540e-002
2.279544e+003;1.900731e-002
2.281472e+003;1.915328e-002
2.283401e+003;1.938819e-002
2.285329e+003;1.937111e-002
2.287258e+003;1.954180e-002
2.289187e+003;1.965491e-002
2.291115e+003;1.961192e-002
2.293043e+003;1.974516e-002
2.294972e+003;1.967956e-002
2.296901e+003;1.962399e-002
2.298829e+003;1.947599e-002
2.300758e+003;1.937523e-002
2.302686e+003;1.950638e-002
2.304615e+003;1.969846e-002
2.306543e+003;1.981316e-002
2.308472e+003;1.988690e-002
2.310400e+003;1.988701e-002
2.312329e+003;1.967609e-002
2.314258e+003;1.962031e-002
2.316186e+003;1.961761e-002
2.318115e+003;1.949235e-002
2.320043e+003;1.977300e-002
2.321972e+003;2.007470e-002
2.323900e+003;1.983057e-002
2.325829e+003;1.957698e-002
2.327757e+003;1.940897e-002
2.329686e+003;1.937474e-002
2.331615e+003;1.946857e-002
2.333543e+003;1.963338e-002
2.335472e+003;1.987729e-002
2.337400e+003;1.994244e-002
2.339329e+003;1.981712e-002
2.341257e+003;1.956593e-002
2.343186e+003;1.962281e-002
2.345114e+003;2.003153e-002
2.347043e+003;2.033914e-002
2.348971e+003;2.057876e-002
2.350900e+003;2.066471e-002
2.352829e+003;2.045266e-002
2.354757e+003;2.011273e-002
2.356686e+003;2.006287e-002
2.358614e+003;2.024908e-002
2.360543e+003;2.018166e-002
2.362471e+003;1.989186e-002
2.364400e+003;1.982985e-002
2.366328e+003;2.012412e-002
2.368257e+003;2.031417e-002
2.370186e+003;2.052498e-002
2.372114e+003;2.076564e-002
2.374042e+003;2.112409e-002
2.375971e+003;2.138875e-002
2.377900e+003;2.145266e-002
2.379828e+003;2.158869e-002
2.381757e+003;2.183604e-002
2.383685e+003;2.196424e-002
2.385614e+003;2.200673e-002
2.387542e+003;2.202291e-002
2.389471e+003;2.223468e-002
2.391399e+003;2.259795e-002
2.393328e+003;2.269485e-002
2.395257e+003;2.262437e-002
2.397185e+003;2.253439e-002
2.399114e+003;2.255369e-002
2.401042e+003;2.273389e-002
2.402971e+003;2.287916e-002
2.404899e+003;2.287636e-002
2.406828e+003;2.290996e-002
2.408756e+003;2.308915e-002
2.410685e+003;2.309942e-002
2.412614e+003;2.325712e-002
2.414542e+003;2.353137e-002
2.416471e+003;2.371151e-002
2.418399e+003;2.378742e-002
2.420328e+003;2.374395e-002
2.422256e+003;2.368460e-002
2.424185e+003;2.377472e-002
2.426113e+003;2.401263e-002
2.428042e+003;2.414838e-002
2.429970e+003;2.420061e-002
2.431899e+003;2.441482e-002
2.433828e+003;2.445148e-002
2.435756e+003;2.445671e-002
2.437685e+003;2.489906e-002
2.439613e+003;2.537264e-002
2.441542e+003;2.539515e-002
2.443470e+003;2.513064e-002
2.445399e+003;2.502091e-002
2.447327e+003;2.515711e-002
2.449256e+003;2.546802e-002
2.451185e+003;2.584754e-002
2.453113e+003;2.607196e-002
2.455042e+003;2.586899e-002
2.456970e+003;2.567023e-002
2.458899e+003;2.569653e-002
2.460827e+003;2.587567e-002
2.462756e+003;2.603136e-002
2.464684e+003;2.624006e-002
2.466613e+003;2.644662e-002
2.468542e+003;2.652452e-002
2.470470e+003;2.662452e-002
2.472398e+003;2.682780e-002
2.474327e+003;2.701627e-002
2.476256e+003;2.712961e-002
2.478184e+003;2.714612e-002
2.480113e+003;2.710831e-002
2.482041e+003;2.712259e-002
2.483970e+003;2.740628e-002
2.485898e+003;2.768102e-002
2.487827e+003;2.766816e-002
2.489755e+003;2.761276e-002
2.491684e+003;2.776140e-002
2.493613e+003;2.801300e-002
2.495541e+003;2.808655e-002
2.497470e+003;2.815301e-002
2.499398e+003;2.823946e-002
2.501327e+003;2.820943e-002
2.503255e+003;2.829066e-002
2.505184e+003;2.843044e-002
2.507112e+003;2.854157e-002
2.509041e+003;2.855357e-002
2.510969e+003;2.867028e-002
2.512898e+003;2.894858e-002
2.514827e+003;2.901276e-002
2.516755e+003;2.898765e-002
2.518684e+003;2.910707e-002
2.520612e+003;2.927136e-002
2.522541e+003;2.916156e-002
2.524469e+003;2.921933e-002
2.526398e+003;2.936632e-002
2.528326e+003;2.955135e-002
2.530255e+003;2.975058e-002
2.532184e+003;2.965822e-002
2.534112e+003;2.950269e-002
2.536041e+003;2.949333e-002
2.537969e+003;2.974721e-002
2.539898e+003;3.005446e-002
2.541826e+003;3.040304e-002
2.543755e+003;3.023669e-002
2.545683e+003;2.994330e-002
2.547612e+003;3.018444e-002
2.549541e+003;3.022980e-002
2.551469e+003;3.029055e-002
2.553397e+003;3.044554e-002
2.555326e+003;3.052452e-002
2.557255e+003;3.060170e-002
2.559183e+003;3.067349e-002
2.561112e+003;3.067377e-002
2.563040e+003;3.072726e-002
2.564969e+003;3.099367e-002
2.566897e+003;3.097268e-002
2.568826e+003;3.102602e-002
2.570754e+003;3.126331e-002
2.572683e+003;3.126815e-002
2.574612e+003;3.134358e-002
2.576540e+003;3.160353e-002
2.578469e+003;3.171084e-002
2.580397e+003;3.188350e-002
2.582326e+003;3.215308e-002
2.584254e+003;3.220829e-002
2.586183e+003;3.203931e-002
2.588111e+003;3.215854e-002
2.590040e+003;3.251896e-002
2.591969e+003;3.250943e-002
2.593897e+003;3.250050e-002
2.595826e+003;3.246886e-002
2.597754e+003;3.243116e-002
2.599683e+003;3.258446e-002
2.601611e+003;3.292478e-002
2.603540e+003;3.302638e-002
2.605468e+003;3.298341e-002
2.607397e+003;3.305727e-002
2.609325e+003;3.302023e-002
2.611254e+003;3.296511e-002
2.613183e+003;3.298766e-002
2.615111e+003;3.329768e-002
2.617040e+003;3.342928e-002
2.618968e+003;3.356815e-002
2.620897e+003;3.371590e-002
2.622825e+003;3.364408e-002
2.624754e+003;3.373689e-002
2.626682e+003;3.377324e-002
2.628611e+003;3.380243e-002
2.630540e+003;3.399061e-002
2.632468e+003;3.393504e-002
2.634396e+003;3.380809e-002
2.636325e+003;3.398803e-002
2.638254e+003;3.424466e-002
2.640182e+003;3.440473e-002
2.642111e+003;3.424247e-002
2.644039e+003;3.411683e-002
2.645968e+003;3.409934e-002
2.647896e+003;3.421275e-002
2.649825e+003;3.420164e-002
2.651753e+003;3.424652e-002
2.653682e+003;3.438877e-002
2.655611e+003;3.434032e-002
2.657539e+003;3.435266e-002
2.659468e+003;3.446528e-002
2.661396e+003;3.480266e-002
2.663325e+003;3.519456e-002
2.665253e+003;3.547089e-002
2.667182e+003;3.547646e-002
2.669110e+003;3.532286e-002
2.671039e+003;3.511240e-002
2.672968e+003;3.523628e-002
2.674896e+003;3.565883e-002
2.676825e+003;3.583483e-002
2.678753e+003;3.561639e-002
2.680682e+003;3.549138e-002
2.682610e+003;3.570570e-002
2.684539e+003;3.613961e-002
2.686467e+003;3.651549e-002
2.688396e+003;3.648371e-002
2.690324e+003;3.633273e-002
2.692253e+003;3.642464e-002
2.694182e+003;3.661227e-002
2.696110e+003;3.674863e-002
2.698039e+003;3.694956e-002
2.699967e+003;3.707033e-002
2.701896e+003;3.711901e-002
2.703824e+003;3.737099e-002
2.705753e+003;3.772565e-002
2.707681e+003;3.790144e-002
2.709610e+003;3.785096e-002
2.711539e+003;3.773739e-002
2.713467e+003;3.810703e-002
2.715396e+003;3.861447e-002
2.717324e+003;3.876015e-002
2.719253e+003;3.883649e-002
2.721181e+003;3.864580e-002
2.723110e+003;3.862410e-002
2.725038e+003;3.906043e-002
2.726967e+003;3.953744e-002
2.728896e+003;3.963476e-002
2.730824e+003;3.973096e-002
2.732752e+003;4.000369e-002
2.734681e+003;4.034228e-002
2.736610e+003;4.051666e-002
2.738538e+003;4.046439e-002
2.740467e+003;4.051495e-002
2.742395e+003;4.057017e-002
2.744324e+003;4.061215e-002
2.746252e+003;4.065228e-002
2.748181e+003;4.078434e-002
2.750109e+003;4.127721e-002
2.752038e+003;4.170765e-002
2.753967e+003;4.192352e-002
2.755895e+003;4.214804e-002
2.757824e+003;4.217655e-002
2.759752e+003;4.233307e-002
2.761681e+003;4.245005e-002
2.763609e+003;4.256713e-002
2.765538e+003;4.263090e-002
2.767466e+003;4.266161e-002
2.769395e+003;4.281271e-002
2.771323e+003;4.303506e-002
2.773252e+003;4.313993e-002
2.775181e+003;4.350522e-002
2.777109e+003;4.393556e-002
2.779038e+003;4.401787e-002
2.780966e+003;4.404559e-002
2.782895e+003;4.414715e-002
2.784823e+003;4.442941e-002
2.786752e+003;4.461186e-002
2.788680e+003;4.458513e-002
2.790609e+003;4.476530e-002
2.792538e+003;4.525562e-002
2.794466e+003;4.557139e-002
2.796395e+003;4.552793e-002
2.798323e+003;4.569075e-002
2.800252e+003;4.623997e-002
2.802180e+003;4.658169e-002
2.804109e+003;4.677841e-002
2.806037e+003;4.726313e-002
2.807966e+003;4.769825e-002
2.809895e+003;4.783580e-002
2.811823e+003;4.786410e-002
2.813751e+003;4.807480e-002
2.815680e+003;4.809386e-002
2.817609e+003;4.831989e-002
2.819537e+003;4.866021e-002
2.821466e+003;4.867319e-002
2.823394e+003;4.890022e-002
2.825323e+003;4.937778e-002
2.827251e+003;4.977481e-002
2.829180e+003;5.002429e-002
2.831108e+003;5.031211e-002
2.833037e+003;5.107430e-002
2.834966e+003;5.171954e-002
2.836894e+003;5.202403e-002
2.838823e+003;5.249812e-002
2.840751e+003;5.294465e-002
2.842680e+003;5.346872e-002
2.844608e+003;5.400044e-002
2.846537e+003;5.467665e-002
2.848465e+003;5.543597e-002
2.850394e+003;5.596238e-002
2.852323e+003;5.661001e-002
2.854251e+003;5.732875e-002
2.856180e+003;5.778240e-002
2.858108e+003;5.862688e-002
2.860037e+003;5.947190e-002
2.861965e+003;6.006970e-002
2.863894e+003;6.097183e-002
2.865822e+003;6.201944e-002
2.867751e+003;6.328293e-002
2.869679e+003;6.418581e-002
2.871608e+003;6.455206e-002
2.873536e+003;6.490016e-002
2.875465e+003;6.539866e-002
2.877394e+003;6.571987e-002
2.879322e+003;6.597327e-002
2.881251e+003;6.598908e-002
2.883179e+003;6.585426e-002
2.885108e+003;6.579060e-002
2.887036e+003;6.591912e-002
2.888965e+003;6.603229e-002
2.890893e+003;6.607410e-002
2.892822e+003;6.633887e-002
2.894750e+003;6.640165e-002
2.896679e+003;6.636173e-002
2.898608e+003;6.661740e-002
2.900536e+003;6.706873e-002
2.902465e+003;6.745735e-002
2.904393e+003;6.773675e-002
2.906322e+003;6.832017e-002
2.908250e+003;6.904544e-002
2.910179e+003;6.952826e-002
2.912107e+003;6.999110e-002
2.914036e+003;7.043866e-002
2.915965e+003;7.115280e-002
2.917893e+003;7.216613e-002
2.919822e+003;7.282407e-002
2.921750e+003;7.314651e-002
2.923679e+003;7.370917e-002
2.925607e+003;7.454298e-002
2.927536e+003;7.537858e-002
2.929464e+003;7.617240e-002
2.931393e+003;7.650580e-002
2.933322e+003;7.683221e-002
2.935250e+003;7.729079e-002
2.937178e+003;7.755567e-002
2.939107e+003;7.756998e-002
2.941036e+003;7.742735e-002
2.942964e+003;7.745317e-002
2.944893e+003;7.733933e-002
2.946821e+003;7.710896e-002
2.948750e+003;7.708300e-002
2.950678e+003;7.687773e-002
2.952607e+003;7.676988e-002
2.954535e+003;7.689283e-002
2.956464e+003;7.697507e-002
2.958393e+003;7.720181e-002
2.960321e+003;7.723197e-002
2.962250e+003;7.680523e-002
2.964178e+003;7.693963e-002
2.966107e+003;7.708961e-002
2.968035e+003;7.636257e-002
2.969964e+003;7.580438e-002
2.971892e+003;7.572833e-002
2.973821e+003;7.582226e-002
2.975750e+003;7.537740e-002
2.977678e+003;7.443158e-002
2.979607e+003;7.360153e-002
2.981535e+003;7.301309e-002
2.983464e+003;7.227460e-002
2.985392e+003;7.147568e-002
2.987321e+003;7.089116e-002
2.989249e+003;7.069316e-002
2.991178e+003;6.997406e-002
2.993106e+003;6.929275e-002
2.995035e+003;6.901976e-002
2.996964e+003;6.870953e-002
2.998892e+003;6.863940e-002
3.000821e+003;6.856443e-002
3.002749e+003;6.801773e-002
3.004678e+003;6.750879e-002
3.006606e+003;6.761288e-002
3.008535e+003;6.767487e-002
3.010463e+003;6.747779e-002
3.012392e+003;6.754950e-002
3.014321e+003;6.758307e-002
3.016249e+003;6.723947e-002
3.018177e+003;6.730790e-002
3.020106e+003;6.775898e-002
3.022035e+003;6.775073e-002
3.023963e+003;6.791388e-002
3.025892e+003;6.829780e-002
3.027820e+003;6.847357e-002
3.029749e+003;6.866944e-002
3.031677e+003;6.873628e-002
3.033606e+003;6.873883e-002
3.035534e+003;6.906020e-002
3.037463e+003;6.937698e-002
3.039392e+003;6.952254e-002
3.041320e+003;6.955342e-002
3.043249e+003;6.980378e-002
3.045177e+003;7.009424e-002
3.047106e+003;7.045788e-002
3.049034e+003;7.072814e-002
3.050963e+003;7.098628e-002
3.052891e+003;7.146803e-002
3.054820e+003;7.150880e-002
3.056749e+003;7.160746e-002
3.058677e+003;7.181850e-002
3.060606e+003;7.184301e-002
3.062534e+003;7.190487e-002
3.064463e+003;7.187163e-002
3.066391e+003;7.187441e-002
3.068320e+003;7.183230e-002
3.070248e+003;7.161222e-002
3.072177e+003;7.178817e-002
3.074105e+003;7.170300e-002
3.076034e+003;7.118976e-002
3.077963e+003;7.132696e-002
3.079891e+003;7.190686e-002
3.081820e+003;7.181834e-002
3.083748e+003;7.118695e-002
3.085677e+003;7.113512e-002
3.087605e+003;7.131094e-002
3.089534e+003;7.125418e-002
3.091462e+003;7.097801e-002
3.093391e+003;7.070225e-002
3.095320e+003;7.073531e-002
3.097248e+003;7.054213e-002
3.099177e+003;7.046851e-002
3.101105e+003;7.034561e-002
3.103034e+003;6.999928e-002
3.104962e+003;7.017002e-002
3.106891e+003;7.004557e-002
3.108819e+003;6.982561e-002
3.110748e+003;7.047600e-002
3.112677e+003;7.090673e-002
3.114605e+003;7.060700e-002
3.116533e+003;7.051859e-002
3.118462e+003;7.072978e-002
3.120391e+003;7.100423e-002
3.122319e+003;7.124860e-002
3.124248e+003;7.127795e-002
3.126176e+003;7.114460e-002
3.128105e+003;7.124203e-002
3.130033e+003;7.171781e-002
3.131962e+003;7.213421e-002
3.133890e+003;7.228352e-002
3.135819e+003;7.269345e-002
3.137748e+003;7.302810e-002
3.139676e+003;7.291522e-002
3.141605e+003;7.308663e-002
3.143533e+003;7.365217e-002
3.145462e+003;7.412143e-002
3.147390e+003;7.420327e-002
3.149319e+003;7.439119e-002
3.151247e+003;7.498041e-002
3.153176e+003;7.548253e-002
3.155104e+003;7.602577e-002
3.157033e+003;7.679867e-002
3.158962e+003;7.717098e-002
3.160890e+003;7.722480e-002
3.162819e+003;7.751127e-002
3.164747e+003;7.827587e-002
3.166676e+003;7.952550e-002
3.168604e+003;8.031613e-002
3.170533e+003;8.014101e-002
3.172461e+003;7.991815e-002
3.174390e+003;8.048823e-002
3.176319e+003;8.143071e-002
3.178247e+003;8.196693e-002
3.180176e+003;8.262803e-002
3.182104e+003;8.293188e-002
3.184033e+003;8.256607e-002
3.185961e+003;8.275537e-002
3.187890e+003;8.329751e-002
3.189818e+003;8.373678e-002
3.191747e+003;8.416037e-002
3.193676e+003;8.436670e-002
3.195604e+003;8.445137e-002
3.197532e+003;8.452745e-002
3.199461e+003;8.477588e-002
3.201390e+003;8.533455e-002
3.203318e+003;8.581335e-002
3.205247e+003;8.628564e-002
3.207175e+003;8.655943e-002
3.209104e+003;8.643828e-002
3.211032e+003;8.661334e-002
3.212961e+003;8.689976e-002
3.214889e+003;8.682255e-002
3.216818e+003;8.664542e-002
3.218747e+003;8.693198e-002
3.220675e+003;8.723040e-002
3.222604e+003;8.701508e-002
3.224532e+003;8.709028e-002
3.226461e+003;8.783596e-002
3.228389e+003;8.820754e-002
3.230318e+003;8.810788e-002
3.232246e+003;8.832784e-002
3.234175e+003;8.883210e-002
3.236104e+003;8.903128e-002
3.238032e+003;8.913659e-002
3.239961e+003;8.921463e-002
3.241889e+003;8.931860e-002
3.243818e+003;8.972082e-002
3.245746e+003;8.995741e-002
3.247675e+003;9.019388e-002
3.249603e+003;9.097303e-002
3.251532e+003;9.142872e-002
3.253460e+003;9.146406e-002
3.255389e+003;9.174665e-002
3.257318e+003;9.212942e-002
3.259246e+003;9.222446e-002
3.261175e+003;9.194340e-002
3.263103e+003;9.216580e-002
3.265032e+003;9.270260e-002
3.266960e+003;9.309749e-002
3.268889e+003;9.292329e-002
3.270817e+003;9.291755e-002
3.272746e+003;9.347689e-002
3.274675e+003;9.359221e-002
3.276603e+003;9.312402e-002
3.278531e+003;9.332816e-002
3.280460e+003;9.403428e-002
3.282389e+003;9.426327e-002
3.284317e+003;9.418868e-002
3.286246e+003;9.415152e-002
3.288174e+003;9.408222e-002
3.290103e+003;9.390943e-002
3.292031e+003;9.346144e-002
3.293960e+003;9.317768e-002
3.295888e+003;9.306420e-002
3.297817e+003;9.316980e-002
3.299746e+003;9.324823e-002
3.301674e+003;9.284741e-002
3.303603e+003;9.243532e-002
3.305531e+003;9.232822e-002
3.307460e+003;9.202862e-002
3.309388e+003;9.152827e-002
3.311317e+003;9.136640e-002
3.313245e+003;9.170417e-002
3.315174e+003;9.156501e-002
3.317103e+003;9.090296e-002
3.319031e+003;9.041926e-002
3.320960e+003;9.025457e-002
3.322888e+003;8.982790e-002
3.324817e+003;8.949389e-002
3.326745e+003;8.892757e-002
3.328674e+003;8.825934e-002
3.330602e+003;8.807221e-002
3.332531e+003;8.762310e-002
3.334459e+003;8.726154e-002
3.336388e+003;8.725316e-002
3.338317e+003;8.675279e-002
3.340245e+003;8.630726e-002
3.342174e+003;8.605715e-002
3.344102e+003;8.565806e-002
3.346031e+003;8.532321e-002
3.347959e+003;8.502288e-002
3.349888e+003;8.452503e-002
3.351816e+003;8.383656e-002
3.353745e+003;8.304110e-002
3.355674e+003;8.242156e-002
3.357602e+003;8.199034e-002
3.359531e+003;8.175789e-002
3.361459e+003;8.122201e-002
3.363388e+003;8.039723e-002
3.365316e+003;8.000880e-002
3.367245e+003;7.978367e-002
3.369173e+003;7.894190e-002
3.371102e+003;7.818367e-002
3.373031e+003;7.784978e-002
3.374959e+003;7.734618e-002
3.376887e+003;7.652832e-002
3.378816e+003;7.576285e-002
3.380745e+003;7.471237e-002
3.382673e+003;7.410041e-002
3.384602e+003;7.400787e-002
3.386530e+003;7.362465e-002
3.388459e+003;7.327738e-002
3.390387e+003;7.258257e-002
3.392316e+003;7.184841e-002
3.394244e+003;7.151193e-002
3.396173e+003;7.083999e-002
3.398102e+003;7.008365e-002
3.400030e+003;6.996316e-002
3.401959e+003;6.962934e-002
3.403887e+003;6.866191e-002
3.405816e+003;6.820808e-002
3.407744e+003;6.795650e-002
3.409673e+003;6.704645e-002
3.411601e+003;6.630525e-002
3.413530e+003;6.582118e-002
3.415458e+003;6.530460e-002
3.417387e+003;6.496757e-002
3.419316e+003;6.396247e-002
3.421244e+003;6.248422e-002
3.423173e+003;6.219193e-002
3.425101e+003;6.197683e-002
3.427030e+003;6.064786e-002
3.428958e+003;5.984827e-002
3.430887e+003;5.949907e-002
3.432815e+003;5.920498e-002
3.434744e+003;5.854911e-002
3.436673e+003;5.728747e-002
3.438601e+003;5.617030e-002
3.440530e+003;5.567583e-002
3.442458e+003;5.571494e-002
3.444387e+003;5.517250e-002
3.446315e+003;5.442179e-002
3.448244e+003;5.390575e-002
3.450172e+003;5.287833e-002
3.452101e+003;5.213523e-002
3.454030e+003;5.210718e-002
3.455958e+003;5.186838e-002
3.457886e+003;5.166632e-002
3.459815e+003;5.132658e-002
3.461744e+003;5.123948e-002
3.463672e+003;5.104024e-002
3.465601e+003;4.981484e-002
3.467529e+003;4.871099e-002
3.469458e+003;4.820148e-002
3.471386e+003;4.774810e-002
3.473315e+003;4.775513e-002
3.475243e+003;4.799349e-002
3.477172e+003;4.759941e-002
3.479101e+003;4.681502e-002
3.481029e+003;4.583926e-002
3.482958e+003;4.501148e-002
3.484886e+003;4.470121e-002
3.486815e+003;4.455213e-002
3.488743e+003;4.415371e-002
3.490672e+003;4.382445e-002
3.492600e+003;4.323526e-002
3.494529e+003;4.268014e-002
3.496458e+003;4.248662e-002
3.498386e+003;4.210306e-002
3.500315e+003;4.134736e-002
3.502243e+003;4.062270e-002
3.504172e+003;4.037766e-002
3.506100e+003;4.027360e-002
3.508029e+003;3.959182e-002
3.509957e+003;3.888943e-002
3.511886e+003;3.868426e-002
3.513814e+003;3.840961e-002
3.515743e+003;3.810815e-002
3.517672e+003;3.775416e-002
3.519600e+003;3.713550e-002
3.521529e+003;3.650180e-002
3.523457e+003;3.592573e-002
3.525386e+003;3.566616e-002
3.527314e+003;3.555374e-002
3.529243e+003;3.499085e-002
3.531171e+003;3.452558e-002
3.533100e+003;3.413578e-002
3.535029e+003;3.394765e-002
3.536957e+003;3.351163e-002
3.538885e+003;3.287167e-002
3.540814e+003;3.252714e-002
3.542743e+003;3.228926e-002
3.544671e+003;3.182738e-002
3.546600e+003;3.158888e-002
3.548528e+003;3.132855e-002
3.550457e+003;3.076606e-002
3.552385e+003;3.055339e-002
3.554314e+003;3.064099e-002
3.556242e+003;3.045198e-002
3.558171e+003;2.968749e-002
3.560100e+003;2.894989e-002
3.562028e+003;2.816354e-002
3.563957e+003;2.742393e-002
3.565885e+003;2.664887e-002
3.567814e+003;2.632694e-002
3.569742e+003;2.614596e-002
3.571671e+003;2.561674e-002
3.573599e+003;2.501013e-002
3.575528e+003;2.443918e-002
3.577457e+003;2.444903e-002
3.579385e+003;2.436085e-002
3.581314e+003;2.389534e-002
3.583242e+003;2.320336e-002
3.585171e+003;2.239786e-002
3.587099e+003;2.183552e-002
3.589028e+003;2.146721e-002
3.590956e+003;2.128052e-002
3.592885e+003;2.093236e-002
3.594813e+003;2.040039e-002
3.596742e+003;2.013925e-002
3.598671e+003;1.993460e-002
3.600599e+003;1.929735e-002
3.602528e+003;1.896529e-002
3.604456e+003;1.864295e-002
3.606385e+003;1.793577e-002
3.608313e+003;1.713276e-002
3.610242e+003;1.705381e-002
3.612170e+003;1.701518e-002
3.614099e+003;1.644692e-002
3.616028e+003;1.545487e-002
3.617956e+003;1.510260e-002
3.619885e+003;1.507029e-002
3.621813e+003;1.453510e-002
3.623742e+003;1.362691e-002
3.625670e+003;1.238072e-002
3.627599e+003;1.134495e-002
3.629527e+003;1.156999e-002
3.631456e+003;1.171528e-002
3.633385e+003;1.072751e-002
3.635313e+003;1.038316e-002
3.637241e+003;1.026369e-002
3.639170e+003;9.955779e-003
3.641099e+003;9.645073e-003
3.643027e+003;9.224003e-003
3.644956e+003;8.396090e-003
3.646884e+003;7.360019e-003
3.648813e+003;6.792471e-003
3.650741e+003;6.840199e-003
3.652670e+003;6.549473e-003
3.654598e+003;5.402269e-003
3.656527e+003;4.950434e-003
3.658456e+003;5.290297e-003
3.660384e+003;4.930997e-003
3.662313e+003;4.796566e-003
3.664241e+003;4.123028e-003
3.666170e+003;3.346242e-003
3.668098e+003;3.021276e-003
3.670027e+003;2.229937e-003
3.671955e+003;2.371738e-003
3.673884e+003;2.279231e-003
3.675813e+003;1.639881e-003
3.677741e+003;1.902743e-003
3.679669e+003;2.097172e-003
3.681598e+003;2.062614e-003
3.683527e+003;1.343973e-003
3.685455e+003;5.094363e-004
3.687384e+003;-1.772972e-004
3.689312e+003;-3.018125e-004
3.691241e+003;-1.307935e-004
3.693169e+003;-1.409956e-004
3.695098e+003;-6.461089e-006
3.697026e+003;1.181058e-004
3.698955e+003;-1.405981e-004
3.700884e+003;-3.786895e-004
3.702812e+003;7.949583e-005
3.704741e+003;3.164791e-004
3.706669e+003;-1.119124e-004
3.708598e+003;-4.159312e-004
3.710526e+003;-8.931698e-004
3.712455e+003;-1.167762e-003
3.714383e+003;-1.017513e-003
3.716312e+003;-1.054436e-003
3.718240e+003;-8.134405e-004
3.720169e+003;-4.477082e-004
3.722098e+003;-5.888233e-004
3.724026e+003;-6.762360e-004
3.725955e+003;-9.916291e-004
3.727883e+003;-1.213560e-003
3.729812e+003;-1.276434e-003
3.731740e+003;-1.591490e-003
3.733669e+003;-1.508455e-003
3.735597e+003;-1.228990e-003
3.737526e+003;-1.316671e-003
3.739455e+003;-1.356739e-003
3.741383e+003;-1.290210e-003
3.743312e+003;-2.251345e-003
3.745240e+003;-1.903977e-003
3.747169e+003;-1.598885e-003
3.749097e+003;-2.412832e-003
3.751026e+003;-2.604496e-003
3.752954e+003;-2.102493e-003
3.754883e+003;-1.392245e-003
3.756812e+003;-1.301805e-003
3.758740e+003;-1.011067e-003
3.760668e+003;-1.058700e-003
3.762597e+003;-1.426461e-003
3.764526e+003;-1.846539e-003
3.766454e+003;-1.448191e-003
3.768383e+003;-1.192182e-003
3.770311e+003;-1.310295e-003
3.772240e+003;-1.187489e-003
3.774168e+003;-1.008158e-003
3.776097e+003;-1.315250e-003
3.778025e+003;-1.312343e-003
3.779954e+003;-1.011695e-003
3.781883e+003;-8.128783e-004
3.783811e+003;-5.953748e-004
3.785740e+003;-6.951588e-004
3.787668e+003;-9.857446e-004
3.789597e+003;-1.183822e-003
3.791525e+003;-1.099023e-003
3.793454e+003;-9.444852e-004
3.795382e+003;-1.176056e-003
3.797311e+003;-1.426725e-003
3.799240e+003;-1.795000e-003
3.801168e+003;-2.107801e-003
3.803097e+003;-2.175689e-003
3.805025e+003;-2.662129e-003
3.806954e+003;-2.757917e-003
3.808882e+003;-1.746491e-003
3.810811e+003;-1.034504e-003
3.812739e+003;-1.504361e-003
3.814668e+003;-2.661405e-003
3.816596e+003;-2.236116e-003
3.818525e+003;-1.744940e-003
3.820454e+003;-2.500636e-003
3.822382e+003;-2.378035e-003
3.824311e+003;-1.526846e-003
3.826239e+003;-1.552038e-003
3.828168e+003;-1.684379e-003
3.830096e+003;-1.612948e-003
3.832025e+003;-1.428145e-003
3.833953e+003;-1.483327e-003
3.835882e+003;-1.673883e-003
3.837811e+003;-2.052765e-003
3.839739e+003;-2.069979e-003
3.841667e+003;-1.589477e-003
3.843596e+003;-1.515257e-003
3.845525e+003;-1.485638e-003
3.847453e+003;-6.803713e-004
3.849382e+003;-1.104443e-003
3.851310e+003;-2.479815e-003
3.853239e+003;-3.074402e-003
3.855167e+003;-2.284009e-003
3.857096e+003;-9.604869e-004
3.859024e+003;-3.304525e-004
3.860953e+003;-9.590653e-004
3.862882e+003;-1.609647e-003
3.864810e+003;-1.480520e-003
3.866739e+003;-1.085373e-003
3.868667e+003;-1.808496e-003
3.870596e+003;-2.041684e-003
3.872524e+003;-1.381247e-003
3.874453e+003;-9.486179e-004
3.876381e+003;2.965598e-005
3.878310e+003;3.599848e-004
3.880239e+003;-2.553552e-004
3.882167e+003;-7.184803e-004
3.884096e+003;-1.170472e-003
3.886024e+003;-1.340322e-003
3.887953e+003;-1.216236e-003
3.889881e+003;-1.898995e-003
3.891810e+003;-2.167282e-003
3.893738e+003;-1.479595e-003
3.895667e+003;-6.727292e-004
3.897595e+003;-9.726862e-004
3.899524e+003;-1.180749e-003
3.901453e+003;-9.940754e-004
3.903381e+003;-1.456117e-003
3.905310e+003;-1.359051e-003
3.907238e+003;-7.324064e-004
3.909167e+003;-4.711423e-004
3.911095e+003;-6.461961e-004
3.913024e+003;-9.551641e-004
3.914952e+003;-1.139442e-003
3.916881e+003;-1.244717e-003
3.918810e+003;-9.601233e-004
3.920738e+003;-5.295566e-004
3.922667e+003;-5.814112e-004
3.924595e+003;-7.944236e-004
3.926524e+003;-5.700613e-004
3.928452e+003;-1.031198e-003
3.930381e+003;-1.433594e-003
3.932309e+003;-7.815579e-004
3.934238e+003;-1.624921e-004
3.936167e+003;1.027940e-004
3.938095e+003;-3.526349e-004
3.940023e+003;-1.772759e-003
3.941952e+003;-2.182843e-003
3.943881e+003;-1.167299e-003
3.945809e+003;-6.186356e-004
3.947738e+003;-7.452737e-004
3.949666e+003;-2.414469e-004
3.951595e+003;1.728615e-004
3.953523e+003;-9.008211e-005
3.955452e+003;-2.647928e-004
3.957380e+003;-1.629889e-004
3.959309e+003;-5.626490e-004
3.961238e+003;-1.114556e-003
3.963166e+003;-9.827694e-004
3.965095e+003;-1.246468e-003
3.967023e+003;-1.572210e-003
3.968952e+003;-6.593967e-004
3.970880e+003;-1.158543e-004
3.972809e+003;-4.526070e-004
3.974737e+003;-8.047094e-004
3.976666e+003;-1.328761e-003
3.978594e+003;-1.760516e-003
3.980523e+003;-1.520243e-003
3.982452e+003;-1.321593e-003
3.984380e+003;-1.323806e-003
3.986309e+003;-1.031562e-003
3.988237e+003;-6.517212e-004
3.990166e+003;-5.125130e-004
3.992094e+003;-9.340044e-004
3.994023e+003;-1.262987e-003
3.995951e+003;-1.444988e-003
3.997880e+003;-1.329421e-003
3.999809e+003;-1.470019e-003
4.001737e+003;0.000000e+000
