3.992094e+002;0.000000e+000
4.011380e+002;0.000000e+000
4.030665e+002;0.000000e+000
4.049951e+002;0.000000e+000
4.069236e+002;0.000000e+000
4.088522e+002;0.000000e+000
4.107807e+002;0.000000e+000
4.127093e+002;0.000000e+000
4.146378e+002;0.000000e+000
4.165664e+002;0.000000e+000
4.184949e+002;0.000000e+000
4.204235e+002;0.000000e+000
4.223520e+002;0.000000e+000
4.242806e+002;0.000000e+000
4.262091e+002;0.000000e+000
4.281377e+002;0.000000e+000
4.300662e+002;0.000000e+000
4.319948e+002;0.000000e+000
4.339233e+002;0.000000e+000
4.358519e+002;0.000000e+000
4.377804e+002;0.000000e+000
4.397090e+002;0.000000e+000
4.416375e+002;0.000000e+000
4.435660e+002;0.000000e+000
4.454946e+002;0.000000e+000
4.474232e+002;0.000000e+000
4.493517e+002;0.000000e+000
4.512802e+002;0.000000e+000
4.532088e+002;0.000000e+000
4.551373e+002;0.000000e+000
4.570659e+002;0.000000e+000
4.589944e+002;0.000000e+000
4.609230e+002;0.000000e+000
4.628515e+002;0.000000e+000
4.647801e+002;0.000000e+000
4.667086e+002;0.000000e+000
4.686372e+002;0.000000e+000
4.705657e+002;0.000000e+000
4.724943e+002;0.000000e+000
4.744228e+002;0.000000e+000
4.763513e+002;0.000000e+000
4.782799e+002;0.000000e+000
4.802085e+002;0.000000e+000
4.821370e+002;0.000000e+000
4.840656e+002;0.000000e+000
4.859941e+002;0.000000e+000
4.879226e+002;0.000000e+000
4.898512e+002;0.000000e+000
4.917798e+002;0.000000e+000
4.937083e+002;0.000000e+000
4.956368e+002;0.000000e+000
4.975654e+002;0.000000e+000
4.994939e+002;0.000000e+000
5.014225e+002;0.000000e+000
5.033510e+002;0.000000e+000
5.052796e+002;0.000000e+000
5.072081e+002;0.000000e+000
5.091367e+002;0.000000e+000
5.110652e+002;0.000000e+000
5.129938e+002;0.000000e+000
5.149223e+002;0.000000e+000
5.168509e+002;0.000000e+000
5.187794e+002;0.000000e+000
5.207079e+002;0.000000e+000
5.226365e+002;0.000000e+000
5.245651e+002;0.000000e+000
5.264936e+002;0.000000e+000
5.284222e+002;0.000000e+000
5.303507e+002;0.000000e+000
5.322792e+002;0.000000e+000
5.342078e+002;0.000000e+000
5.361364e+002;0.000000e+000
5.380649e+002;0.000000e+000
5.399935e+002;0.000000e+000
5.419220e+002;0.000000e+000
5.438505e+002;0.000000e+000
5.457791e+002;0.000000e+000
5.477076e+002;0.000000e+000
5.496362e+002;0.000000e+000
5.515648e+002;0.000000e+000
5.534933e+002;0.000000e+000
5.554218e+002;0.000000e+000
5.573504e+002;0.000000e+000
5.592789e+002;0.000000e+000
5.612075e+002;0.000000e+000
5.631360e+002;0.000000e+000
5.650646e+002;0.000000e+000
5.669931e+002;0.000000e+000
5.689217e+002;0.000000e+000
5.708502e+002;0.000000e+000
5.727787e+002;0.000000e+000
5.747073e+002;0.000000e+000
5.766359e+002;0.000000e+000
5.785644e+002;0.000000e+000
5.804930e+002;0.000000e+000
5.824215e+002;0.000000e+000
5.843500e+002;0.000000e+000
5.862786e+002;0.000000e+000
5.882072e+002;0.000000e+000
5.901357e+002;0.000000e+000
5.920643e+002;0.000000e+000
5.939928e+002;0.000000e+000
5.959213e+002;0.000000e+000
5.978499e+002;0.000000e+000
5.997784e+002;2.013445e-001
6.017070e+002;1.984528e-001
6.036355e+002;1.983673e-001
6.055641e+002;1.973753e-001
6.074926e+002;1.973778e-001
6.094211e+002;1.992897e-001
6.113497e+002;1.952394e-001
6.132783e+002;1.878508e-001
6.152068e+002;1.912704e-001
6.171354e+002;1.959057e-001
6.190639e+002;1.947485e-001
6.209924e+002;1.954706e-001
6.229210e+002;1.982649e-001
6.248495e+002;1.982248e-001
6.267781e+002;1.973798e-001
6.287067e+002;1.956329e-001
6.306352e+002;1.930871e-001
6.325637e+002;1.908455e-001
6.344923e+002;1.888779e-001
6.364208e+002;1.876862e-001
6.383494e+002;1.876135e-001
6.402780e+002;1.865487e-001
6.422065e+002;1.860727e-001
6.441350e+002;1.848844e-001
6.460636e+002;1.807784e-001
6.479921e+002;1.788023e-001
6.499207e+002;1.789311e-001
6.518492e+002;1.804390e-001
6.537778e+002;1.834527e-001
6.557063e+002;1.832278e-001
6.576349e+002;1.806902e-001
6.595634e+002;1.779227e-001
6.614919e+002;1.800771e-001
6.634205e+002;1.795648e-001
6.653491e+002;1.750633e-001
6.672776e+002;1.732225e-001
6.692062e+002;1.742838e-001
6.711347e+002;1.732601e-001
6.730632e+002;1.709859e-001
6.749918e+002;1.691247e-001
6.769203e+002;1.693324e-001
6.788489e+002;1.694506e-001
6.807775e+002;1.693086e-001
6.827060e+002;1.683767e-001
6.846345e+002;1.683405e-001
6.865631e+002;1.688413e-001
6.884916e+002;1.679249e-001
6.904202e+002;1.667648e-001
6.923488e+002;1.654232e-001
6.942773e+002;1.638450e-001
6.962058e+002;1.637820e-001
6.981344e+002;1.635238e-001
7.000629e+002;1.625701e-001
7.019915e+002;1.613858e-001
7.039200e+002;1.597787e-001
7.058486e+002;1.584231e-001
7.077771e+002;1.566715e-001
7.097057e+002;1.544665e-001
7.116342e+002;1.514139e-001
7.135627e+002;1.483389e-001
7.154913e+002;1.473339e-001
7.174199e+002;1.472529e-001
7.193484e+002;1.462637e-001
7.212770e+002;1.446928e-001
7.232055e+002;1.431686e-001
7.251340e+002;1.421198e-001
7.270626e+002;1.416856e-001
7.289911e+002;1.413776e-001
7.309197e+002;1.412527e-001
7.328483e+002;1.408682e-001
7.347768e+002;1.400554e-001
7.367053e+002;1.386792e-001
7.386339e+002;1.371226e-001
7.405624e+002;1.366893e-001
7.424910e+002;1.376035e-001
7.444196e+002;1.377385e-001
7.463481e+002;1.366946e-001
7.482766e+002;1.351486e-001
7.502052e+002;1.330419e-001
7.521337e+002;1.318226e-001
7.540623e+002;1.311310e-001
7.559908e+002;1.305923e-001
7.579194e+002;1.295498e-001
7.598479e+002;1.275954e-001
7.617765e+002;1.261647e-001
7.637050e+002;1.247084e-001
7.656335e+002;1.236738e-001
7.675621e+002;1.239014e-001
7.694907e+002;1.234033e-001
7.714192e+002;1.224063e-001
7.733478e+002;1.215684e-001
7.752763e+002;1.201377e-001
7.772048e+002;1.184513e-001
7.791334e+002;1.175195e-001
7.810620e+002;1.173947e-001
7.829905e+002;1.173045e-001
7.849191e+002;1.169413e-001
7.868476e+002;1.160669e-001
7.887761e+002;1.151536e-001
7.907047e+002;1.144258e-001
7.926332e+002;1.138337e-001
7.945618e+002;1.125682e-001
7.964903e+002;1.119747e-001
7.984189e+002;1.121677e-001
8.003474e+002;1.117053e-001
8.022759e+002;1.109661e-001
8.042045e+002;1.104766e-001
8.061331e+002;1.102754e-001
8.080616e+002;1.101544e-001
8.099902e+002;1.093881e-001
8.119187e+002;1.082040e-001
8.138472e+002;1.075672e-001
8.157758e+002;1.074805e-001
8.177043e+002;1.076477e-001
8.196329e+002;1.078355e-001
8.215615e+002;1.076086e-001
8.234900e+002;1.075951e-001
8.254185e+002;1.077764e-001
8.273471e+002;1.075346e-001
8.292756e+002;1.072893e-001
8.312042e+002;1.074719e-001
8.331328e+002;1.067796e-001
8.350613e+002;1.056201e-001
8.369898e+002;1.049645e-001
8.389184e+002;1.051138e-001
8.408469e+002;1.044235e-001
8.427755e+002;1.032679e-001
8.447040e+002;1.029590e-001
8.466326e+002;1.026840e-001
8.485611e+002;1.026690e-001
8.504897e+002;1.025978e-001
8.524182e+002;1.021823e-001
8.543467e+002;1.015452e-001
8.562753e+002;1.005065e-001
8.582039e+002;9.982222e-002
8.601324e+002;9.958670e-002
8.620610e+002;9.945965e-002
8.639895e+002;9.961991e-002
8.659180e+002;9.935051e-002
8.678466e+002;9.890932e-002
8.697751e+002;9.898726e-002
8.717037e+002;9.929470e-002
8.736323e+002;9.920080e-002
8.755608e+002;9.893145e-002
8.774893e+002;9.898555e-002
8.794179e+002;9.918502e-002
8.813464e+002;9.937900e-002
8.832750e+002;9.931935e-002
8.852036e+002;9.899858e-002
8.871321e+002;9.878867e-002
8.890606e+002;9.840211e-002
8.909892e+002;9.824658e-002
8.929177e+002;9.846338e-002
8.948463e+002;9.830658e-002
8.967748e+002;9.793589e-002
8.987034e+002;9.780456e-002
9.006319e+002;9.827375e-002
9.025605e+002;9.838475e-002
9.044890e+002;9.773098e-002
9.064175e+002;9.777269e-002
9.083461e+002;9.822390e-002
9.102747e+002;9.870107e-002
9.122032e+002;9.926684e-002
9.141318e+002;9.936534e-002
9.160603e+002;9.951694e-002
9.179888e+002;1.000677e-001
9.199174e+002;1.004850e-001
9.218459e+002;1.005253e-001
9.237745e+002;1.007867e-001
9.257031e+002;1.009121e-001
9.276316e+002;1.008770e-001
9.295601e+002;1.014514e-001
9.314887e+002;1.019463e-001
9.334172e+002;1.016620e-001
9.353458e+002;1.009690e-001
9.372744e+002;1.002924e-001
9.392029e+002;1.000319e-001
9.411314e+002;9.994344e-002
9.430600e+002;9.969781e-002
9.449885e+002;9.950507e-002
9.469171e+002;9.955753e-002
9.488456e+002;9.950965e-002
9.507742e+002;9.949348e-002
9.527027e+002;9.925989e-002
9.546313e+002;9.946132e-002
9.565598e+002;1.000236e-001
9.584883e+002;1.003012e-001
9.604169e+002;1.005969e-001
9.623455e+002;1.011916e-001
9.642740e+002;1.014587e-001
9.662026e+002;1.014670e-001
9.681311e+002;1.016043e-001
9.700596e+002;1.016156e-001
9.719882e+002;1.016678e-001
9.739167e+002;1.022425e-001
9.758453e+002;1.031027e-001
9.777739e+002;1.037083e-001
9.797024e+002;1.039908e-001
9.816309e+002;1.041851e-001
9.835595e+002;1.044523e-001
9.854880e+002;1.051527e-001
9.874166e+002;1.056833e-001
9.893452e+002;1.059252e-001
9.912737e+002;1.061066e-001
9.932022e+002;1.064529e-001
9.951307e+002;1.070110e-001
9.970593e+002;1.074950e-001
9.989879e+002;1.078797e-001
1.000916e+003;1.087937e-001
1.002845e+003;1.098860e-001
1.004773e+003;1.106389e-001
1.006702e+003;1.112583e-001
1.008631e+003;1.122181e-001
1.010559e+003;1.134023e-001
1.012488e+003;1.146606e-001
1.014416e+003;1.157965e-001
1.016345e+003;1.167553e-001
1.018273e+003;1.175497e-001
1.020202e+003;1.181200e-001
1.022130e+003;1.191931e-001
1.024059e+003;1.208229e-001
1.025988e+003;1.221010e-001
1.027916e+003;1.237128e-001
1.029845e+003;1.255978e-001
1.031773e+003;1.273720e-001
1.033702e+003;1.291998e-001
1.035630e+003;1.309579e-001
1.037559e+003;1.324321e-001
1.039487e+003;1.330523e-001
1.041416e+003;1.331790e-001
1.043344e+003;1.331097e-001
1.045273e+003;1.321116e-001
1.047202e+003;1.313300e-001
1.049130e+003;1.309830e-001
1.051059e+003;1.305725e-001
1.052987e+003;1.307148e-001
1.054916e+003;1.310733e-001
1.056844e+003;1.313063e-001
1.058773e+003;1.313839e-001
1.060701e+003;1.317887e-001
1.062630e+003;1.327035e-001
1.064558e+003;1.335324e-001
1.066487e+003;1.335836e-001
1.068416e+003;1.336104e-001
1.070344e+003;1.340466e-001
1.072273e+003;1.344900e-001
1.074201e+003;1.349073e-001
1.076130e+003;1.347747e-001
1.078058e+003;1.344306e-001
1.079987e+003;1.340461e-001
1.081915e+003;1.335831e-001
1.083844e+003;1.328791e-001
1.085773e+003;1.319439e-001
1.087701e+003;1.311766e-001
1.089630e+003;1.304640e-001
1.091558e+003;1.302672e-001
1.093487e+003;1.304720e-001
1.095415e+003;1.303498e-001
1.097344e+003;1.299928e-001
1.099272e+003;1.299751e-001
1.101201e+003;1.298995e-001
1.103129e+003;1.295457e-001
1.105058e+003;1.292586e-001
1.106987e+003;1.294278e-001
1.108915e+003;1.294798e-001
1.110844e+003;1.296662e-001
1.112772e+003;1.296322e-001
1.114701e+003;1.291557e-001
1.116629e+003;1.292733e-001
1.118558e+003;1.300669e-001
1.120486e+003;1.305207e-001
1.122415e+003;1.306200e-001
1.124344e+003;1.307412e-001
1.126272e+003;1.310174e-001
1.128201e+003;1.311299e-001
1.130129e+003;1.313172e-001
1.132058e+003;1.315711e-001
1.133986e+003;1.317301e-001
1.135915e+003;1.317286e-001
1.137843e+003;1.322849e-001
1.139772e+003;1.332541e-001
1.141700e+003;1.341282e-001
1.143629e+003;1.344926e-001
1.145557e+003;1.353284e-001
1.147486e+003;1.368621e-001
1.149415e+003;1.378774e-001
1.151343e+003;1.389184e-001
1.153272e+003;1.402884e-001
1.155200e+003;1.410641e-001
1.157129e+003;1.415784e-001
1.159057e+003;1.425395e-001
1.160986e+003;1.435587e-001
1.162914e+003;1.442831e-001
1.164843e+003;1.450708e-001
1.166771e+003;1.458738e-001
1.168700e+003;1.468827e-001
1.170629e+003;1.480783e-001
1.172557e+003;1.489634e-001
1.174486e+003;1.495676e-001
1.176414e+003;1.499570e-001
1.178343e+003;1.502047e-001
1.180271e+003;1.501763e-001
1.182200e+003;1.506253e-001
1.184128e+003;1.515232e-001
1.186057e+003;1.523586e-001
1.187986e+003;1.532581e-001
1.189914e+003;1.539428e-001
1.191843e+003;1.544566e-001
1.193771e+003;1.553066e-001
1.195700e+003;1.564358e-001
1.197628e+003;1.579280e-001
1.199557e+003;1.591575e-001
1.201485e+003;1.603091e-001
1.203414e+003;1.615141e-001
1.205343e+003;1.628047e-001
1.207271e+003;1.644121e-001
1.209200e+003;1.660728e-001
1.211128e+003;1.676349e-001
1.213057e+003;1.689533e-001
1.214985e+003;1.703861e-001
1.216914e+003;1.718172e-001
1.218842e+003;1.728459e-001
1.220771e+003;1.741451e-001
1.222699e+003;1.753652e-001
1.224628e+003;1.764281e-001
1.226557e+003;1.773462e-001
1.228485e+003;1.780634e-001
1.230414e+003;1.785822e-001
1.232342e+003;1.788032e-001
1.234271e+003;1.786263e-001
1.236199e+003;1.781609e-001
1.238128e+003;1.776748e-001
1.240056e+003;1.771116e-001
1.241985e+003;1.763991e-001
1.243913e+003;1.753448e-001
1.245842e+003;1.743753e-001
1.247771e+003;1.733471e-001
1.249699e+003;1.719403e-001
1.251628e+003;1.705416e-001
1.253556e+003;1.695243e-001
1.255485e+003;1.684689e-001
1.257413e+003;1.670651e-001
1.259342e+003;1.660733e-001
1.261270e+003;1.652226e-001
1.263199e+003;1.640283e-001
1.265127e+003;1.628030e-001
1.267056e+003;1.615408e-001
1.268985e+003;1.604998e-001
1.270913e+003;1.596890e-001
1.272842e+003;1.587039e-001
1.274770e+003;1.579513e-001
1.276699e+003;1.572429e-001
1.278627e+003;1.563998e-001
1.280556e+003;1.557835e-001
1.282484e+003;1.551751e-001
1.284413e+003;1.545331e-001
1.286342e+003;1.536891e-001
1.288270e+003;1.529795e-001
1.290199e+003;1.527073e-001
1.292127e+003;1.523456e-001
1.294056e+003;1.518336e-001
1.295984e+003;1.515922e-001
1.297913e+003;1.517924e-001
1.299841e+003;1.520213e-001
1.301770e+003;1.516996e-001
1.303698e+003;1.513280e-001
1.305627e+003;1.509070e-001
1.307556e+003;1.504346e-001
1.309484e+003;1.500007e-001
1.311413e+003;1.493214e-001
1.313341e+003;1.484209e-001
1.315270e+003;1.475803e-001
1.317198e+003;1.469073e-001
1.319127e+003;1.461663e-001
1.321055e+003;1.455619e-001
1.322984e+003;1.450472e-001
1.324912e+003;1.445336e-001
1.326841e+003;1.444362e-001
1.328770e+003;1.442634e-001
1.330698e+003;1.438485e-001
1.332627e+003;1.436574e-001
1.334555e+003;1.436828e-001
1.336484e+003;1.436460e-001
1.338412e+003;1.433594e-001
1.340341e+003;1.431034e-001
1.342269e+003;1.431993e-001
1.344198e+003;1.432656e-001
1.346126e+003;1.431079e-001
1.348055e+003;1.426462e-001
1.349984e+003;1.420214e-001
1.351912e+003;1.417290e-001
1.353841e+003;1.417842e-001
1.355769e+003;1.418765e-001
1.357698e+003;1.420515e-001
1.359626e+003;1.424302e-001
1.361555e+003;1.434834e-001
1.363483e+003;1.452041e-001
1.365412e+003;1.469550e-001
1.367341e+003;1.481337e-001
1.369269e+003;1.492129e-001
1.371198e+003;1.500827e-001
1.373126e+003;1.507255e-001
1.375055e+003;1.515829e-001
1.376983e+003;1.527055e-001
1.378912e+003;1.540013e-001
1.380840e+003;1.553950e-001
1.382769e+003;1.566848e-001
1.384698e+003;1.578941e-001
1.386626e+003;1.588245e-001
1.388555e+003;1.595048e-001
1.390483e+003;1.596239e-001
1.392412e+003;1.589088e-001
1.394340e+003;1.577838e-001
1.396269e+003;1.571473e-001
1.398197e+003;1.566061e-001
1.400126e+003;1.560554e-001
1.402054e+003;1.556322e-001
1.403983e+003;1.548837e-001
1.405911e+003;1.541847e-001
1.407840e+003;1.535344e-001
1.409769e+003;1.529834e-001
1.411697e+003;1.526457e-001
1.413626e+003;1.523758e-001
1.415554e+003;1.520927e-001
1.417483e+003;1.511154e-001
1.419411e+003;1.505237e-001
1.421340e+003;1.514625e-001
1.423268e+003;1.524209e-001
1.425197e+003;1.533377e-001
1.427125e+003;1.544038e-001
1.429054e+003;1.556605e-001
1.430983e+003;1.574905e-001
1.432911e+003;1.597561e-001
1.434840e+003;1.610112e-001
1.436768e+003;1.620576e-001
1.438697e+003;1.643786e-001
1.440625e+003;1.662002e-001
1.442554e+003;1.671299e-001
1.444482e+003;1.676260e-001
1.446411e+003;1.678987e-001
1.448340e+003;1.682183e-001
1.450268e+003;1.683913e-001
1.452197e+003;1.680305e-001
1.454125e+003;1.667504e-001
1.456054e+003;1.639256e-001
1.457982e+003;1.628444e-001
1.459911e+003;1.635102e-001
1.461839e+003;1.634399e-001
1.463768e+003;1.627916e-001
1.465697e+003;1.629818e-001
1.467625e+003;1.637684e-001
1.469554e+003;1.638249e-001
1.471482e+003;1.631041e-001
1.473411e+003;1.631953e-001
1.475339e+003;1.644771e-001
1.477268e+003;1.664338e-001
1.479196e+003;1.691062e-001
1.481125e+003;1.723211e-001
1.483053e+003;1.766263e-001
1.484982e+003;1.816722e-001
1.486911e+003;1.870710e-001
1.488839e+003;1.930788e-001
1.490768e+003;1.999113e-001
1.492696e+003;2.068705e-001
1.494625e+003;2.125894e-001
1.496553e+003;2.180472e-001
1.498482e+003;2.239647e-001
1.500410e+003;2.292051e-001
1.502339e+003;2.335486e-001
1.504267e+003;2.361008e-001
1.506196e+003;2.379835e-001
1.508125e+003;2.422758e-001
1.510053e+003;2.463974e-001
1.511982e+003;2.485218e-001
1.513910e+003;2.492542e-001
1.515839e+003;2.480519e-001
1.517767e+003;2.453636e-001
1.519696e+003;2.413764e-001
1.521624e+003;2.377788e-001
1.523553e+003;2.363207e-001
1.525481e+003;2.347360e-001
1.527410e+003;2.332242e-001
1.529339e+003;2.317729e-001
1.531267e+003;2.293804e-001
1.533196e+003;2.264461e-001
1.535124e+003;2.243943e-001
1.537053e+003;2.212054e-001
1.538981e+003;2.159203e-001
1.540910e+003;2.117223e-001
1.542838e+003;2.088007e-001
1.544767e+003;2.050733e-001
1.546695e+003;2.006410e-001
1.548624e+003;1.958755e-001
1.550553e+003;1.910946e-001
1.552481e+003;1.861866e-001
1.554410e+003;1.810284e-001
1.556338e+003;1.757972e-001
1.558267e+003;1.699703e-001
1.560195e+003;1.669783e-001
1.562124e+003;1.660724e-001
1.564052e+003;1.638634e-001
1.565981e+003;1.613428e-001
1.567910e+003;1.588363e-001
1.569838e+003;1.569892e-001
1.571767e+003;1.562564e-001
1.573695e+003;1.547065e-001
1.575624e+003;1.525932e-001
1.577552e+003;1.528288e-001
1.579481e+003;1.534750e-001
1.581409e+003;1.532600e-001
1.583338e+003;1.534785e-001
1.585266e+003;1.538886e-001
1.587195e+003;1.544577e-001
1.589124e+003;1.557592e-001
1.591052e+003;1.579236e-001
1.592981e+003;1.600221e-001
1.594909e+003;1.624267e-001
1.596838e+003;1.654025e-001
1.598766e+003;1.687857e-001
1.600695e+003;1.726123e-001
1.602623e+003;1.771282e-001
1.604552e+003;1.825446e-001
1.606480e+003;1.883344e-001
1.608409e+003;1.944385e-001
1.610338e+003;2.009326e-001
1.612266e+003;2.073742e-001
1.614195e+003;2.133650e-001
1.616123e+003;2.186458e-001
1.618052e+003;2.256182e-001
1.619980e+003;2.331251e-001
1.621909e+003;2.392116e-001
1.623837e+003;2.453157e-001
1.625766e+003;2.514643e-001
1.627694e+003;2.567168e-001
1.629623e+003;2.609182e-001
1.631552e+003;2.642043e-001
1.633480e+003;2.658457e-001
1.635409e+003;2.662551e-001
1.637337e+003;2.678635e-001
1.639266e+003;2.690387e-001
1.641194e+003;2.687924e-001
1.643123e+003;2.670967e-001
1.645051e+003;2.637280e-001
1.646980e+003;2.605420e-001
1.648909e+003;2.576317e-001
1.650837e+003;2.517853e-001
1.652766e+003;2.442882e-001
1.654694e+003;2.405851e-001
1.656623e+003;2.371704e-001
1.658551e+003;2.312508e-001
1.660480e+003;2.243703e-001
1.662408e+003;2.175097e-001
1.664337e+003;2.113988e-001
1.666266e+003;2.051840e-001
1.668194e+003;1.980208e-001
1.670123e+003;1.914054e-001
1.672051e+003;1.858023e-001
1.673980e+003;1.794247e-001
1.675908e+003;1.732468e-001
1.677837e+003;1.678153e-001
1.679765e+003;1.617384e-001
1.681694e+003;1.549870e-001
1.683622e+003;1.471625e-001
1.685551e+003;1.415822e-001
1.687479e+003;1.375273e-001
1.689408e+003;1.320268e-001
1.691337e+003;1.263771e-001
1.693265e+003;1.198506e-001
1.695194e+003;1.119085e-001
1.697122e+003;1.056313e-001
1.699051e+003;9.892330e-002
1.700979e+003;9.252613e-002
1.702908e+003;8.819852e-002
1.704836e+003;8.303685e-002
1.706765e+003;7.840019e-002
1.708693e+003;7.434578e-002
1.710622e+003;7.059811e-002
1.712551e+003;6.687385e-002
1.714479e+003;6.323846e-002
1.716408e+003;5.960107e-002
1.718336e+003;5.792466e-002
1.720265e+003;5.798350e-002
1.722193e+003;5.730376e-002
1.724122e+003;5.611494e-002
1.726050e+003;5.507375e-002
1.727979e+003;5.377560e-002
1.729908e+003;5.250903e-002
1.731836e+003;5.069473e-002
1.733765e+003;4.874198e-002
1.735693e+003;4.894662e-002
1.737622e+003;4.898582e-002
1.739550e+003;4.794243e-002
1.741479e+003;4.757708e-002
1.743407e+003;4.717772e-002
1.745336e+003;4.673708e-002
1.747265e+003;4.630495e-002
1.749193e+003;4.595464e-002
1.751122e+003;4.601513e-002
1.753050e+003;4.697337e-002
1.754979e+003;4.769814e-002
1.756907e+003;4.783991e-002
1.758836e+003;4.785918e-002
1.760764e+003;4.774814e-002
1.762693e+003;4.783636e-002
1.764621e+003;4.820840e-002
1.766550e+003;4.812125e-002
1.768479e+003;4.802743e-002
1.770407e+003;4.753272e-002
1.772336e+003;4.685399e-002
1.774264e+003;4.744371e-002
1.776193e+003;4.827908e-002
1.778121e+003;4.844901e-002
1.780050e+003;4.822921e-002
1.781978e+003;4.809120e-002
1.783907e+003;4.801014e-002
1.785835e+003;4.810915e-002
1.787764e+003;4.822402e-002
1.789693e+003;4.775154e-002
1.791621e+003;4.707306e-002
1.793550e+003;4.719172e-002
1.795478e+003;4.779700e-002
1.797407e+003;4.781127e-002
1.799335e+003;4.760887e-002
1.801264e+003;4.755726e-002
1.803192e+003;4.776134e-002
1.805121e+003;4.781190e-002
1.807049e+003;4.768460e-002
1.808978e+003;4.758488e-002
1.810907e+003;4.745735e-002
1.812835e+003;4.751786e-002
1.814764e+003;4.765846e-002
1.816692e+003;4.773238e-002
1.818621e+003;4.775660e-002
1.820549e+003;4.762821e-002
1.822478e+003;4.753172e-002
1.824406e+003;4.726638e-002
1.826335e+003;4.738189e-002
1.828264e+003;4.735554e-002
1.830192e+003;4.723362e-002
1.832121e+003;4.740531e-002
1.834049e+003;4.737483e-002
1.835978e+003;4.733521e-002
1.837906e+003;4.741736e-002
1.839835e+003;4.747003e-002
1.841763e+003;4.704016e-002
1.843692e+003;4.654086e-002
1.845620e+003;4.703289e-002
1.847549e+003;4.743414e-002
1.849478e+003;4.756030e-002
1.851406e+003;4.761209e-002
1.853335e+003;4.747450e-002
1.855263e+003;4.736777e-002
1.857192e+003;4.737183e-002
1.859120e+003;4.727939e-002
1.861049e+003;4.722320e-002
1.862977e+003;4.726531e-002
1.864906e+003;4.719782e-002
1.866834e+003;4.700771e-002
1.868763e+003;4.703148e-002
1.870692e+003;4.732431e-002
1.872620e+003;4.755013e-002
1.874549e+003;4.753460e-002
1.876477e+003;4.764733e-002
1.878406e+003;4.766434e-002
1.880334e+003;4.757860e-002
1.882263e+003;4.755748e-002
1.884191e+003;4.772942e-002
1.886120e+003;4.763642e-002
1.888048e+003;4.741193e-002
1.889977e+003;4.742187e-002
1.891906e+003;4.773782e-002
1.893834e+003;4.768837e-002
1.895763e+003;4.747775e-002
1.897691e+003;4.749124e-002
1.899620e+003;4.746112e-002
1.901548e+003;4.753719e-002
1.903477e+003;4.776216e-002
1.905405e+003;4.792200e-002
1.907334e+003;4.774751e-002
1.909262e+003;4.744811e-002
1.911191e+003;4.740121e-002
1.913120e+003;4.769189e-002
1.915048e+003;4.764326e-002
1.916977e+003;4.726195e-002
1.918905e+003;4.720661e-002
1.920834e+003;4.718301e-002
1.922762e+003;4.706852e-002
1.924691e+003;4.729871e-002
1.926619e+003;4.758991e-002
1.928548e+003;4.755826e-002
1.930477e+003;4.765184e-002
1.932405e+003;4.775283e-002
1.934334e+003;4.774651e-002
1.936262e+003;4.788607e-002
1.938191e+003;4.793599e-002
1.940119e+003;4.777018e-002
1.942048e+003;4.754588e-002
1.943976e+003;4.761472e-002
1.945905e+003;4.772118e-002
1.947833e+003;4.771456e-002
1.949762e+003;4.790620e-002
1.951691e+003;4.817737e-002
1.953619e+003;4.805433e-002
1.955548e+003;4.784583e-002
1.957476e+003;4.784412e-002
1.959405e+003;4.800311e-002
1.961333e+003;4.816715e-002
1.963262e+003;4.829052e-002
1.965190e+003;4.817745e-002
1.967119e+003;4.806351e-002
1.969047e+003;4.804974e-002
1.970976e+003;4.804138e-002
1.972905e+003;4.806295e-002
1.974833e+003;4.811307e-002
1.976762e+003;4.819940e-002
1.978690e+003;4.826712e-002
1.980619e+003;4.817404e-002
1.982547e+003;4.791327e-002
1.984476e+003;4.797125e-002
1.986404e+003;4.828867e-002
1.988333e+003;4.825138e-002
1.990261e+003;4.818370e-002
1.992190e+003;4.836733e-002
1.994119e+003;4.845182e-002
1.996047e+003;4.859151e-002
1.997976e+003;4.878787e-002
1.999904e+003;4.878954e-002
2.001833e+003;4.872478e-002
2.003761e+003;4.875336e-002
2.005690e+003;4.887530e-002
2.007618e+003;4.892077e-002
2.009547e+003;4.889651e-002
2.011476e+003;4.889099e-002
2.013404e+003;4.904713e-002
2.015333e+003;4.896212e-002
2.017261e+003;4.904383e-002
2.019190e+003;4.912040e-002
2.021118e+003;4.910289e-002
2.023047e+003;4.931672e-002
2.024975e+003;4.939694e-002
2.026904e+003;4.943328e-002
2.028833e+003;4.945913e-002
2.030761e+003;4.949054e-002
2.032690e+003;4.961863e-002
2.034618e+003;4.981554e-002
2.036547e+003;4.994759e-002
2.038475e+003;4.995109e-002
2.040404e+003;4.992124e-002
2.042332e+003;4.995711e-002
2.044261e+003;4.990396e-002
2.046189e+003;4.974892e-002
2.048118e+003;4.980287e-002
2.050047e+003;4.988351e-002
2.051975e+003;4.985564e-002
2.053904e+003;5.001299e-002
2.055832e+003;5.006132e-002
2.057761e+003;4.996395e-002
2.059689e+003;4.993741e-002
2.061618e+003;5.004191e-002
2.063546e+003;5.027253e-002
2.065475e+003;5.041350e-002
2.067404e+003;5.045031e-002
2.069332e+003;5.034623e-002
2.071260e+003;5.028793e-002
2.073189e+003;5.039947e-002
2.075118e+003;5.049337e-002
2.077046e+003;5.063207e-002
2.078975e+003;5.085201e-002
2.080903e+003;5.090666e-002
2.082832e+003;5.091322e-002
2.084760e+003;5.090916e-002
2.086689e+003;5.072859e-002
2.088617e+003;5.065631e-002
2.090546e+003;5.091780e-002
2.092475e+003;5.118605e-002
2.094403e+003;5.120670e-002
2.096332e+003;5.119634e-002
2.098260e+003;5.116488e-002
2.100189e+003;5.104069e-002
2.102117e+003;5.105552e-002
2.104046e+003;5.109741e-002
2.105974e+003;5.103592e-002
2.107903e+003;5.105813e-002
2.109832e+003;5.124067e-002
2.111760e+003;5.106346e-002
2.113688e+003;5.093725e-002
2.115617e+003;5.104062e-002
2.117546e+003;5.108217e-002
2.119474e+003;5.095916e-002
2.121403e+003;5.095726e-002
2.123331e+003;5.106312e-002
2.125260e+003;5.108049e-002
2.127188e+003;5.096244e-002
2.129117e+003;5.079033e-002
2.131045e+003;5.084628e-002
2.132974e+003;5.092932e-002
2.134903e+003;5.094600e-002
2.136831e+003;5.080411e-002
2.138760e+003;5.056994e-002
2.140688e+003;5.076344e-002
2.142617e+003;5.099452e-002
2.144545e+003;5.098598e-002
2.146474e+003;5.084933e-002
2.148402e+003;5.062019e-002
2.150331e+003;5.063289e-002
2.152260e+003;5.086602e-002
2.154188e+003;5.102761e-002
2.156117e+003;5.103163e-002
2.158045e+003;5.094980e-002
2.159974e+003;5.090763e-002
2.161902e+003;5.099340e-002
2.163831e+003;5.095838e-002
2.165759e+003;5.081067e-002
2.167688e+003;5.086188e-002
2.169616e+003;5.083730e-002
2.171545e+003;5.071302e-002
2.173474e+003;5.083536e-002
2.175402e+003;5.099973e-002
2.177331e+003;5.109618e-002
2.179259e+003;5.106342e-002
2.181188e+003;5.085294e-002
2.183116e+003;5.089288e-002
2.185045e+003;5.110349e-002
2.186973e+003;5.100965e-002
2.188902e+003;5.082445e-002
2.190831e+003;5.089478e-002
2.192759e+003;5.093200e-002
2.194688e+003;5.097838e-002
2.196616e+003;5.108988e-002
2.198545e+003;5.090588e-002
2.200473e+003;5.088256e-002
2.202402e+003;5.106853e-002
2.204330e+003;5.110643e-002
2.206259e+003;5.093159e-002
2.208188e+003;5.091337e-002
2.210116e+003;5.099322e-002
2.212044e+003;5.107904e-002
2.213973e+003;5.114374e-002
2.215902e+003;5.106305e-002
2.217830e+003;5.085090e-002
2.219759e+003;5.065791e-002
2.221687e+003;5.077443e-002
2.223616e+003;5.095379e-002
2.225544e+003;5.090096e-002
2.227473e+003;5.082378e-002
2.229401e+003;5.083410e-002
2.231330e+003;5.069827e-002
2.233259e+003;5.053722e-002
2.235187e+003;5.044804e-002
2.237116e+003;5.045552e-002
2.239044e+003;5.062180e-002
2.240973e+003;5.068699e-002
2.242901e+003;5.072832e-002
2.244830e+003;5.068643e-002
2.246758e+003;5.066752e-002
2.248687e+003;5.058070e-002
2.250615e+003;5.053230e-002
2.252544e+003;5.041309e-002
2.254473e+003;5.041816e-002
2.256401e+003;5.054779e-002
2.258330e+003;5.037414e-002
2.260258e+003;5.028075e-002
2.262187e+003;5.056622e-002
2.264115e+003;5.064536e-002
2.266044e+003;5.057675e-002
2.267972e+003;5.027800e-002
2.269901e+003;5.012632e-002
2.271830e+003;5.022808e-002
2.273758e+003;5.029418e-002
2.275687e+003;5.043621e-002
2.277615e+003;5.045165e-002
2.279544e+003;5.044819e-002
2.281472e+003;5.044878e-002
2.283401e+003;5.034389e-002
2.285329e+003;5.029853e-002
2.287258e+003;5.033667e-002
2.289187e+003;5.044912e-002
2.291115e+003;5.043062e-002
2.293043e+003;5.027986e-002
2.294972e+003;5.031341e-002
2.296901e+003;5.047004e-002
2.298829e+003;5.052549e-002
2.300758e+003;5.037737e-002
2.302686e+003;5.025921e-002
2.304615e+003;5.032327e-002
2.306543e+003;5.032365e-002
2.308472e+003;5.051745e-002
2.310400e+003;5.065288e-002
2.312329e+003;5.050201e-002
2.314258e+003;5.036301e-002
2.316186e+003;5.033979e-002
2.318115e+003;5.018110e-002
2.320043e+003;5.011401e-002
2.321972e+003;5.015045e-002
2.323900e+003;5.034262e-002
2.325829e+003;5.034504e-002
2.327757e+003;5.011390e-002
2.329686e+003;5.022354e-002
2.331615e+003;5.067433e-002
2.333543e+003;5.084661e-002
2.335472e+003;5.072285e-002
2.337400e+003;5.078191e-002
2.339329e+003;5.076594e-002
2.341257e+003;5.074270e-002
2.343186e+003;5.085197e-002
2.345114e+003;5.074508e-002
2.347043e+003;5.074788e-002
2.348971e+003;5.076650e-002
2.350900e+003;5.090357e-002
2.352829e+003;5.114788e-002
2.354757e+003;5.111530e-002
2.356686e+003;5.094347e-002
2.358614e+003;5.087980e-002
2.360543e+003;5.073518e-002
2.362471e+003;5.068159e-002
2.364400e+003;5.089787e-002
2.366328e+003;5.105083e-002
2.368257e+003;5.115082e-002
2.370186e+003;5.107542e-002
2.372114e+003;5.110017e-002
2.374042e+003;5.107609e-002
2.375971e+003;5.107363e-002
2.377900e+003;5.107184e-002
2.379828e+003;5.115172e-002
2.381757e+003;5.116417e-002
2.383685e+003;5.109957e-002
2.385614e+003;5.133646e-002
2.387542e+003;5.166897e-002
2.389471e+003;5.173245e-002
2.391399e+003;5.148319e-002
2.393328e+003;5.140941e-002
2.395257e+003;5.145018e-002
2.397185e+003;5.142183e-002
2.399114e+003;5.155366e-002
2.401042e+003;5.155422e-002
2.402971e+003;5.166945e-002
2.404899e+003;5.195030e-002
2.406828e+003;5.213621e-002
2.408756e+003;5.224527e-002
2.410685e+003;5.217749e-002
2.412614e+003;5.209548e-002
2.414542e+003;5.223941e-002
2.416471e+003;5.244865e-002
2.418399e+003;5.261513e-002
2.420328e+003;5.261030e-002
2.422256e+003;5.268313e-002
2.424185e+003;5.291037e-002
2.426113e+003;5.284790e-002
2.428042e+003;5.262048e-002
2.429970e+003;5.278908e-002
2.431899e+003;5.307335e-002
2.433828e+003;5.309485e-002
2.435756e+003;5.312270e-002
2.437685e+003;5.318895e-002
2.439613e+003;5.342375e-002
2.441542e+003;5.356793e-002
2.443470e+003;5.352071e-002
2.445399e+003;5.341101e-002
2.447327e+003;5.320475e-002
2.449256e+003;5.329030e-002
2.451185e+003;5.352295e-002
2.453113e+003;5.357070e-002
2.455042e+003;5.370218e-002
2.456970e+003;5.391881e-002
2.458899e+003;5.400120e-002
2.460827e+003;5.396420e-002
2.462756e+003;5.385650e-002
2.464684e+003;5.397527e-002
2.466613e+003;5.432831e-002
2.468542e+003;5.441961e-002
2.470470e+003;5.425867e-002
2.472398e+003;5.436361e-002
2.474327e+003;5.461333e-002
2.476256e+003;5.463915e-002
2.478184e+003;5.461935e-002
2.480113e+003;5.466737e-002
2.482041e+003;5.454341e-002
2.483970e+003;5.447215e-002
2.485898e+003;5.485831e-002
2.487827e+003;5.530404e-002
2.489755e+003;5.527089e-002
2.491684e+003;5.516226e-002
2.493613e+003;5.512882e-002
2.495541e+003;5.513040e-002
2.497470e+003;5.517611e-002
2.499398e+003;5.508977e-002
2.501327e+003;5.507006e-002
2.503255e+003;5.522852e-002
2.505184e+003;5.522795e-002
2.507112e+003;5.522242e-002
2.509041e+003;5.556880e-002
2.510969e+003;5.580851e-002
2.512898e+003;5.562684e-002
2.514827e+003;5.558518e-002
2.516755e+003;5.588964e-002
2.518684e+003;5.601688e-002
2.520612e+003;5.589820e-002
2.522541e+003;5.581522e-002
2.524469e+003;5.579356e-002
2.526398e+003;5.591806e-002
2.528326e+003;5.606484e-002
2.530255e+003;5.603645e-002
2.532184e+003;5.595646e-002
2.534112e+003;5.583481e-002
2.536041e+003;5.607551e-002
2.537969e+003;5.641200e-002
2.539898e+003;5.643483e-002
2.541826e+003;5.628031e-002
2.543755e+003;5.616807e-002
2.545683e+003;5.606680e-002
2.547612e+003;5.617362e-002
2.549541e+003;5.635160e-002
2.551469e+003;5.649207e-002
2.553397e+003;5.659616e-002
2.555326e+003;5.663704e-002
2.557255e+003;5.676118e-002
2.559183e+003;5.682383e-002
2.561112e+003;5.680770e-002
2.563040e+003;5.675654e-002
2.564969e+003;5.688249e-002
2.566897e+003;5.700386e-002
2.568826e+003;5.684585e-002
2.570754e+003;5.687104e-002
2.572683e+003;5.700805e-002
2.574612e+003;5.722811e-002
2.576540e+003;5.745449e-002
2.578469e+003;5.751784e-002
2.580397e+003;5.744670e-002
2.582326e+003;5.757553e-002
2.584254e+003;5.775795e-002
2.586183e+003;5.770205e-002
2.588111e+003;5.756861e-002
2.590040e+003;5.749121e-002
2.591969e+003;5.768590e-002
2.593897e+003;5.787048e-002
2.595826e+003;5.775527e-002
2.597754e+003;5.774228e-002
2.599683e+003;5.801785e-002
2.601611e+003;5.822008e-002
2.603540e+003;5.837977e-002
2.605468e+003;5.860003e-002
2.607397e+003;5.866575e-002
2.609325e+003;5.849489e-002
2.611254e+003;5.838144e-002
2.613183e+003;5.826221e-002
2.615111e+003;5.823861e-002
2.617040e+003;5.847442e-002
2.618968e+003;5.847885e-002
2.620897e+003;5.842446e-002
2.622825e+003;5.864402e-002
2.624754e+003;5.882924e-002
2.626682e+003;5.887152e-002
2.628611e+003;5.879920e-002
2.630540e+003;5.880895e-002
2.632468e+003;5.894847e-002
2.634396e+003;5.920046e-002
2.636325e+003;5.912464e-002
2.638254e+003;5.903250e-002
2.640182e+003;5.934364e-002
2.642111e+003;5.957067e-002
2.644039e+003;5.961225e-002
2.645968e+003;5.958712e-002
2.647896e+003;5.964326e-002
2.649825e+003;5.954110e-002
2.651753e+003;5.944177e-002
2.653682e+003;5.962825e-002
2.655611e+003;5.987242e-002
2.657539e+003;5.975990e-002
2.659468e+003;5.967915e-002
2.661396e+003;5.972431e-002
2.663325e+003;5.978967e-002
2.665253e+003;5.996047e-002
2.667182e+003;6.013682e-002
2.669110e+003;6.030631e-002
2.671039e+003;6.052158e-002
2.672968e+003;6.067175e-002
2.674896e+003;6.070086e-002
2.676825e+003;6.071861e-002
2.678753e+003;6.077117e-002
2.680682e+003;6.083855e-002
2.682610e+003;6.101983e-002
2.684539e+003;6.091559e-002
2.686467e+003;6.086649e-002
2.688396e+003;6.078142e-002
2.690324e+003;6.070760e-002
2.692253e+003;6.101895e-002
2.694182e+003;6.123446e-002
2.696110e+003;6.132431e-002
2.698039e+003;6.133049e-002
2.699967e+003;6.133729e-002
2.701896e+003;6.154000e-002
2.703824e+003;6.165433e-002
2.705753e+003;6.200007e-002
2.707681e+003;6.222450e-002
2.709610e+003;6.200561e-002
2.711539e+003;6.198929e-002
2.713467e+003;6.224649e-002
2.715396e+003;6.234608e-002
2.717324e+003;6.249363e-002
2.719253e+003;6.250852e-002
2.721181e+003;6.257342e-002
2.723110e+003;6.298538e-002
2.725038e+003;6.320877e-002
2.726967e+003;6.319547e-002
2.728896e+003;6.320689e-002
2.730824e+003;6.329010e-002
2.732752e+003;6.327507e-002
2.734681e+003;6.324702e-002
2.736610e+003;6.355943e-002
2.738538e+003;6.387306e-002
2.740467e+003;6.364769e-002
2.742395e+003;6.365333e-002
2.744324e+003;6.395733e-002
2.746252e+003;6.396389e-002
2.748181e+003;6.409820e-002
2.750109e+003;6.441776e-002
2.752038e+003;6.445420e-002
2.753967e+003;6.433702e-002
2.755895e+003;6.447891e-002
2.757824e+003;6.487623e-002
2.759752e+003;6.503800e-002
2.761681e+003;6.515578e-002
2.763609e+003;6.507017e-002
2.765538e+003;6.497111e-002
2.767466e+003;6.532525e-002
2.769395e+003;6.547662e-002
2.771323e+003;6.547023e-002
2.773252e+003;6.571589e-002
2.775181e+003;6.597327e-002
2.777109e+003;6.597365e-002
2.779038e+003;6.580425e-002
2.780966e+003;6.597956e-002
2.782895e+003;6.631062e-002
2.784823e+003;6.650042e-002
2.786752e+003;6.666952e-002
2.788680e+003;6.672630e-002
2.790609e+003;6.678820e-002
2.792538e+003;6.698482e-002
2.794466e+003;6.738831e-002
2.796395e+003;6.755392e-002
2.798323e+003;6.746199e-002
2.800252e+003;6.765454e-002
2.802180e+003;6.766476e-002
2.804109e+003;6.761106e-002
2.806037e+003;6.793023e-002
2.807966e+003;6.832886e-002
2.809895e+003;6.877805e-002
2.811823e+003;6.890768e-002
2.813751e+003;6.890520e-002
2.815680e+003;6.906513e-002
2.817609e+003;6.910856e-002
2.819537e+003;6.919447e-002
2.821466e+003;6.954222e-002
2.823394e+003;6.976806e-002
2.825323e+003;6.976581e-002
2.827251e+003;7.006282e-002
2.829180e+003;7.040803e-002
2.831108e+003;7.060368e-002
2.833037e+003;7.049213e-002
2.834966e+003;7.055289e-002
2.836894e+003;7.092144e-002
2.838823e+003;7.112431e-002
2.840751e+003;7.125500e-002
2.842680e+003;7.156022e-002
2.844608e+003;7.241006e-002
2.846537e+003;7.328926e-002
2.848465e+003;7.383236e-002
2.850394e+003;7.346016e-002
2.852323e+003;7.288668e-002
2.854251e+003;7.321709e-002
2.856180e+003;7.375484e-002
2.858108e+003;7.398198e-002
2.860037e+003;7.459711e-002
2.861965e+003;7.546873e-002
2.863894e+003;7.624115e-002
2.865822e+003;7.706361e-002
2.867751e+003;7.782999e-002
2.869679e+003;7.860858e-002
2.871608e+003;7.936887e-002
2.873536e+003;7.999897e-002
2.875465e+003;8.023953e-002
2.877394e+003;7.994073e-002
2.879322e+003;7.938780e-002
2.881251e+003;7.937897e-002
2.883179e+003;7.944604e-002
2.885108e+003;7.915483e-002
2.887036e+003;7.906022e-002
2.888965e+003;7.919686e-002
2.890893e+003;7.894814e-002
2.892822e+003;7.860111e-002
2.894750e+003;7.890467e-002
2.896679e+003;7.944393e-002
2.898608e+003;7.987637e-002
2.900536e+003;8.039045e-002
2.902465e+003;8.072782e-002
2.904393e+003;8.104795e-002
2.906322e+003;8.159033e-002
2.908250e+003;8.202195e-002
2.910179e+003;8.264542e-002
2.912107e+003;8.403398e-002
2.914036e+003;8.535589e-002
2.915965e+003;8.582377e-002
2.917893e+003;8.607686e-002
2.919822e+003;8.615738e-002
2.921750e+003;8.594825e-002
2.923679e+003;8.565217e-002
2.925607e+003;8.544603e-002
2.927536e+003;8.548762e-002
2.929464e+003;8.568636e-002
2.931393e+003;8.613471e-002
2.933322e+003;8.617795e-002
2.935250e+003;8.590403e-002
2.937178e+003;8.591813e-002
2.939107e+003;8.594915e-002
2.941036e+003;8.588429e-002
2.942964e+003;8.580321e-002
2.944893e+003;8.569536e-002
2.946821e+003;8.569160e-002
2.948750e+003;8.577500e-002
2.950678e+003;8.590541e-002
2.952607e+003;8.604471e-002
2.954535e+003;8.626451e-002
2.956464e+003;8.644217e-002
2.958393e+003;8.694323e-002
2.960321e+003;8.703747e-002
2.962250e+003;8.657860e-002
2.964178e+003;8.657707e-002
2.966107e+003;8.652405e-002
2.968035e+003;8.584048e-002
2.969964e+003;8.496780e-002
2.971892e+003;8.452914e-002
2.973821e+003;8.417200e-002
2.975750e+003;8.317924e-002
2.977678e+003;8.229411e-002
2.979607e+003;8.179421e-002
2.981535e+003;8.133461e-002
2.983464e+003;8.062588e-002
2.985392e+003;7.984789e-002
2.987321e+003;7.912899e-002
2.989249e+003;7.851706e-002
2.991178e+003;7.796360e-002
2.993106e+003;7.740153e-002
2.995035e+003;7.689089e-002
2.996964e+003;7.661408e-002
2.998892e+003;7.672236e-002
3.000821e+003;7.669480e-002
3.002749e+003;7.651386e-002
3.004678e+003;7.623392e-002
3.006606e+003;7.644380e-002
3.008535e+003;7.699216e-002
3.010463e+003;7.721605e-002
3.012392e+003;7.701732e-002
3.014321e+003;7.704846e-002
3.016249e+003;7.731577e-002
3.018177e+003;7.762972e-002
3.020106e+003;7.793144e-002
3.022035e+003;7.844640e-002
3.023963e+003;7.893808e-002
3.025892e+003;7.896896e-002
3.027820e+003;7.905151e-002
3.029749e+003;7.950230e-002
3.031677e+003;7.996865e-002
3.033606e+003;8.017345e-002
3.035534e+003;8.033017e-002
3.037463e+003;8.032690e-002
3.039392e+003;8.048209e-002
3.041320e+003;8.110826e-002
3.043249e+003;8.159513e-002
3.045177e+003;8.173901e-002
3.047106e+003;8.205345e-002
3.049034e+003;8.217619e-002
3.050963e+003;8.202860e-002
3.052891e+003;8.227044e-002
3.054820e+003;8.296505e-002
3.056749e+003;8.309277e-002
3.058677e+003;8.286158e-002
3.060606e+003;8.304925e-002
3.062534e+003;8.325995e-002
3.064463e+003;8.311797e-002
3.066391e+003;8.298033e-002
3.068320e+003;8.303203e-002
3.070248e+003;8.313711e-002
3.072177e+003;8.310192e-002
3.074105e+003;8.281427e-002
3.076034e+003;8.292013e-002
3.077963e+003;8.295851e-002
3.079891e+003;8.261969e-002
3.081820e+003;8.224545e-002
3.083748e+003;8.188326e-002
3.085677e+003;8.165183e-002
3.087605e+003;8.174605e-002
3.089534e+003;8.190162e-002
3.091462e+003;8.188574e-002
3.093391e+003;8.180161e-002
3.095320e+003;8.165179e-002
3.097248e+003;8.125022e-002
3.099177e+003;8.112895e-002
3.101105e+003;8.134343e-002
3.103034e+003;8.112667e-002
3.104962e+003;8.041848e-002
3.106891e+003;8.050398e-002
3.108819e+003;8.093983e-002
3.110748e+003;8.100591e-002
3.112677e+003;8.098782e-002
3.114605e+003;8.125809e-002
3.116533e+003;8.143779e-002
3.118462e+003;8.128126e-002
3.120391e+003;8.120620e-002
3.122319e+003;8.122265e-002
3.124248e+003;8.175837e-002
3.126176e+003;8.256190e-002
3.128105e+003;8.290505e-002
3.130033e+003;8.305029e-002
3.131962e+003;8.304571e-002
3.133890e+003;8.342992e-002
3.135819e+003;8.413435e-002
3.137748e+003;8.438879e-002
3.139676e+003;8.454166e-002
3.141605e+003;8.473887e-002
3.143533e+003;8.498601e-002
3.145462e+003;8.534802e-002
3.147390e+003;8.594389e-002
3.149319e+003;8.643335e-002
3.151247e+003;8.674037e-002
3.153176e+003;8.705525e-002
3.155104e+003;8.751163e-002
3.157033e+003;8.797146e-002
3.158962e+003;8.842222e-002
3.160890e+003;8.929826e-002
3.162819e+003;8.989819e-002
3.164747e+003;8.980646e-002
3.166676e+003;9.004089e-002
3.168604e+003;9.086138e-002
3.170533e+003;9.182630e-002
3.172461e+003;9.277418e-002
3.174390e+003;9.325871e-002
3.176319e+003;9.339874e-002
3.178247e+003;9.336871e-002
3.180176e+003;9.372881e-002
3.182104e+003;9.433009e-002
3.184033e+003;9.455466e-002
3.185961e+003;9.468440e-002
3.187890e+003;9.542760e-002
3.189818e+003;9.628250e-002
3.191747e+003;9.673613e-002
3.193676e+003;9.715901e-002
3.195604e+003;9.762667e-002
3.197532e+003;9.806449e-002
3.199461e+003;9.835757e-002
3.201390e+003;9.863512e-002
3.203318e+003;9.876505e-002
3.205247e+003;9.901531e-002
3.207175e+003;9.924473e-002
3.209104e+003;9.919139e-002
3.211032e+003;9.950385e-002
3.212961e+003;1.002330e-001
3.214889e+003;1.005626e-001
3.216818e+003;1.006572e-001
3.218747e+003;1.009251e-001
3.220675e+003;1.010273e-001
3.222604e+003;1.011062e-001
3.224532e+003;1.014976e-001
3.226461e+003;1.017224e-001
3.228389e+003;1.018097e-001
3.230318e+003;1.020716e-001
3.232246e+003;1.024522e-001
3.234175e+003;1.026137e-001
3.236104e+003;1.031734e-001
3.238032e+003;1.040918e-001
3.239961e+003;1.046133e-001
3.241889e+003;1.047506e-001
3.243818e+003;1.051211e-001
3.245746e+003;1.058082e-001
3.247675e+003;1.060935e-001
3.249603e+003;1.060914e-001
3.251532e+003;1.064817e-001
3.253460e+003;1.069829e-001
3.255389e+003;1.077012e-001
3.257318e+003;1.086059e-001
3.259246e+003;1.090131e-001
3.261175e+003;1.094559e-001
3.263103e+003;1.103228e-001
3.265032e+003;1.109307e-001
3.266960e+003;1.110270e-001
3.268889e+003;1.111374e-001
3.270817e+003;1.114077e-001
3.272746e+003;1.115157e-001
3.274675e+003;1.117685e-001
3.276603e+003;1.123808e-001
3.278531e+003;1.125609e-001
3.280460e+003;1.124509e-001
3.282389e+003;1.122876e-001
3.284317e+003;1.121156e-001
3.286246e+003;1.121418e-001
3.288174e+003;1.120882e-001
3.290103e+003;1.122076e-001
3.292031e+003;1.122449e-001
3.293960e+003;1.116275e-001
3.295888e+003;1.111821e-001
3.297817e+003;1.110141e-001
3.299746e+003;1.109658e-001
3.301674e+003;1.107059e-001
3.303603e+003;1.107543e-001
3.305531e+003;1.106259e-001
3.307460e+003;1.097579e-001
3.309388e+003;1.090134e-001
3.311317e+003;1.084468e-001
3.313245e+003;1.078776e-001
3.315174e+003;1.074246e-001
3.317103e+003;1.076386e-001
3.319031e+003;1.075494e-001
3.320960e+003;1.068281e-001
3.322888e+003;1.059972e-001
3.324817e+003;1.052190e-001
3.326745e+003;1.044994e-001
3.328674e+003;1.038059e-001
3.330602e+003;1.031440e-001
3.332531e+003;1.027122e-001
3.334459e+003;1.025092e-001
3.336388e+003;1.020476e-001
3.338317e+003;1.014152e-001
3.340245e+003;1.011898e-001
3.342174e+003;1.002510e-001
3.344102e+003;9.915434e-002
3.346031e+003;9.831921e-002
3.347959e+003;9.799801e-002
3.349888e+003;9.746698e-002
3.351816e+003;9.632319e-002
3.353745e+003;9.578954e-002
3.355674e+003;9.548667e-002
3.357602e+003;9.468263e-002
3.359531e+003;9.372775e-002
3.361459e+003;9.260195e-002
3.363388e+003;9.197677e-002
3.365316e+003;9.196330e-002
3.367245e+003;9.110721e-002
3.369173e+003;9.010857e-002
3.371102e+003;8.933769e-002
3.373031e+003;8.896401e-002
3.374959e+003;8.885971e-002
3.376887e+003;8.853316e-002
3.378816e+003;8.795981e-002
3.380745e+003;8.704302e-002
3.382673e+003;8.592689e-002
3.384602e+003;8.560229e-002
3.386530e+003;8.555133e-002
3.388459e+003;8.468728e-002
3.390387e+003;8.376258e-002
3.392316e+003;8.381619e-002
3.394244e+003;8.359939e-002
3.396173e+003;8.265392e-002
3.398102e+003;8.197409e-002
3.400030e+003;8.126269e-002
3.401959e+003;8.075068e-002
3.403887e+003;8.063889e-002
3.405816e+003;8.055248e-002
3.407744e+003;8.014009e-002
3.409673e+003;7.936166e-002
3.411601e+003;7.817918e-002
3.413530e+003;7.754308e-002
3.415458e+003;7.722349e-002
3.417387e+003;7.695837e-002
3.419316e+003;7.603066e-002
3.421244e+003;7.513050e-002
3.423173e+003;7.493075e-002
3.425101e+003;7.411082e-002
3.427030e+003;7.337862e-002
3.428958e+003;7.314160e-002
3.430887e+003;7.312635e-002
3.432815e+003;7.248746e-002
3.434744e+003;7.136784e-002
3.436673e+003;7.080352e-002
3.438601e+003;7.030985e-002
3.440530e+003;6.946554e-002
3.442458e+003;6.890046e-002
3.444387e+003;6.890713e-002
3.446315e+003;6.903212e-002
3.448244e+003;6.851718e-002
3.450172e+003;6.757145e-002
3.452101e+003;6.715144e-002
3.454030e+003;6.668165e-002
3.455958e+003;6.604312e-002
3.457886e+003;6.570210e-002
3.459815e+003;6.532424e-002
3.461744e+003;6.442472e-002
3.463672e+003;6.409398e-002
3.465601e+003;6.426729e-002
3.467529e+003;6.416108e-002
3.469458e+003;6.338709e-002
3.471386e+003;6.250963e-002
3.473315e+003;6.233659e-002
3.475243e+003;6.186583e-002
3.477172e+003;6.106228e-002
3.479101e+003;6.063978e-002
3.481029e+003;6.085448e-002
3.482958e+003;6.088696e-002
3.484886e+003;6.021873e-002
3.486815e+003;5.996789e-002
3.488743e+003;5.995614e-002
3.490672e+003;5.981329e-002
3.492600e+003;5.949626e-002
3.494529e+003;5.877833e-002
3.496458e+003;5.805973e-002
3.498386e+003;5.754727e-002
3.500315e+003;5.696302e-002
3.502243e+003;5.642332e-002
3.504172e+003;5.617723e-002
3.506100e+003;5.596460e-002
3.508029e+003;5.545287e-002
3.509957e+003;5.530062e-002
3.511886e+003;5.546496e-002
3.513814e+003;5.509473e-002
3.515743e+003;5.487391e-002
3.517672e+003;5.445874e-002
3.519600e+003;5.389420e-002
3.521529e+003;5.336553e-002
3.523457e+003;5.338561e-002
3.525386e+003;5.346539e-002
3.527314e+003;5.310810e-002
3.529243e+003;5.296827e-002
3.531171e+003;5.263637e-002
3.533100e+003;5.253405e-002
3.535029e+003;5.222614e-002
3.536957e+003;5.150359e-002
3.538885e+003;5.097518e-002
3.540814e+003;5.108042e-002
3.542743e+003;5.117181e-002
3.544671e+003;5.069727e-002
3.546600e+003;5.026405e-002
3.548528e+003;5.037644e-002
3.550457e+003;5.018683e-002
3.552385e+003;4.938569e-002
3.554314e+003;4.891246e-002
3.556242e+003;4.868772e-002
3.558171e+003;4.810056e-002
3.560100e+003;4.742039e-002
3.562028e+003;4.730351e-002
3.563957e+003;4.717987e-002
3.565885e+003;4.667461e-002
3.567814e+003;4.665429e-002
3.569742e+003;4.702665e-002
3.571671e+003;4.668262e-002
3.573599e+003;4.625888e-002
3.575528e+003;4.568280e-002
3.577457e+003;4.536293e-002
3.579385e+003;4.539887e-002
3.581314e+003;4.512200e-002
3.583242e+003;4.466199e-002
3.585171e+003;4.401916e-002
3.587099e+003;4.320123e-002
3.589028e+003;4.325620e-002
3.590956e+003;4.391257e-002
3.592885e+003;4.333967e-002
3.594813e+003;4.275154e-002
3.596742e+003;4.272664e-002
3.598671e+003;4.281249e-002
3.600599e+003;4.280014e-002
3.602528e+003;4.251250e-002
3.604456e+003;4.213909e-002
3.606385e+003;4.156353e-002
3.608313e+003;4.116777e-002
3.610242e+003;4.117924e-002
3.612170e+003;4.035112e-002
3.614099e+003;3.959740e-002
3.616028e+003;3.944506e-002
3.617956e+003;3.912091e-002
3.619885e+003;3.897053e-002
3.621813e+003;3.916257e-002
3.623742e+003;3.888823e-002
3.625670e+003;3.819436e-002
3.627599e+003;3.657352e-002
3.629527e+003;3.621081e-002
3.631456e+003;3.724350e-002
3.633385e+003;3.737435e-002
3.635313e+003;3.752385e-002
3.637241e+003;3.752962e-002
3.639170e+003;3.742260e-002
3.641099e+003;3.659320e-002
3.643027e+003;3.580708e-002
3.644956e+003;3.568728e-002
3.646884e+003;3.457201e-002
3.648813e+003;3.308294e-002
3.650741e+003;3.339070e-002
3.652670e+003;3.457710e-002
3.654598e+003;3.389388e-002
3.656527e+003;3.295349e-002
3.658456e+003;3.307948e-002
3.660384e+003;3.279245e-002
3.662313e+003;3.236554e-002
3.664241e+003;3.232660e-002
3.666170e+003;3.168222e-002
3.668098e+003;3.046971e-002
3.670027e+003;2.939720e-002
3.671955e+003;2.937607e-002
3.673884e+003;2.868671e-002
3.675813e+003;2.825625e-002
3.677741e+003;2.904829e-002
3.679669e+003;2.900592e-002
3.681598e+003;2.892857e-002
3.683527e+003;2.872568e-002
3.685455e+003;2.796759e-002
3.687384e+003;2.654210e-002
3.689312e+003;2.645039e-002
3.691241e+003;2.726888e-002
3.693169e+003;2.766022e-002
3.695098e+003;2.757410e-002
3.697026e+003;2.707720e-002
3.698955e+003;2.662315e-002
3.700884e+003;2.690902e-002
3.702812e+003;2.730222e-002
3.704741e+003;2.727629e-002
3.706669e+003;2.748319e-002
3.708598e+003;2.661565e-002
3.710526e+003;2.551064e-002
3.712455e+003;2.562623e-002
3.714383e+003;2.599217e-002
3.716312e+003;2.591380e-002
3.718240e+003;2.575890e-002
3.720169e+003;2.532996e-002
3.722098e+003;2.561111e-002
3.724026e+003;2.584638e-002
3.725955e+003;2.565403e-002
3.727883e+003;2.606260e-002
3.729812e+003;2.599280e-002
3.731740e+003;2.444591e-002
3.733669e+003;2.358657e-002
3.735597e+003;2.374507e-002
3.737526e+003;2.483345e-002
3.739455e+003;2.555151e-002
3.741383e+003;2.519005e-002
3.743312e+003;2.331819e-002
3.745240e+003;2.344023e-002
3.747169e+003;2.408498e-002
3.749097e+003;2.313314e-002
3.751026e+003;2.272788e-002
3.752954e+003;2.349199e-002
3.754883e+003;2.503604e-002
3.756812e+003;2.544662e-002
3.758740e+003;2.504804e-002
3.760668e+003;2.504088e-002
3.762597e+003;2.531798e-002
3.764526e+003;2.507767e-002
3.766454e+003;2.531345e-002
3.768383e+003;2.541838e-002
3.770311e+003;2.532582e-002
3.772240e+003;2.521839e-002
3.774168e+003;2.496942e-002
3.776097e+003;2.496367e-002
3.778025e+003;2.485524e-002
3.779954e+003;2.473246e-002
3.781883e+003;2.476423e-002
3.783811e+003;2.475964e-002
3.785740e+003;2.485387e-002
3.787668e+003;2.485166e-002
3.789597e+003;2.468584e-002
3.791525e+003;2.473182e-002
3.793454e+003;2.469657e-002
3.795382e+003;2.434241e-002
3.797311e+003;2.441924e-002
3.799240e+003;2.388946e-002
3.801168e+003;2.382179e-002
3.803097e+003;2.517913e-002
3.805025e+003;2.499988e-002
3.806954e+003;2.425846e-002
3.808882e+003;2.529431e-002
3.810811e+003;2.591703e-002
3.812739e+003;2.525873e-002
3.814668e+003;2.403763e-002
3.816596e+003;2.440798e-002
3.818525e+003;2.448444e-002
3.820454e+003;2.344823e-002
3.822382e+003;2.410807e-002
3.824311e+003;2.520817e-002
3.826239e+003;2.538286e-002
3.828168e+003;2.513089e-002
3.830096e+003;2.501557e-002
3.832025e+003;2.553640e-002
3.833953e+003;2.557523e-002
3.835882e+003;2.424276e-002
3.837811e+003;2.377069e-002
3.839739e+003;2.487443e-002
3.841667e+003;2.538265e-002
3.843596e+003;2.535820e-002
3.845525e+003;2.556919e-002
3.847453e+003;2.584061e-002
3.849382e+003;2.492289e-002
3.851310e+003;2.291740e-002
3.853239e+003;2.195550e-002
3.855167e+003;2.369223e-002
3.857096e+003;2.516554e-002
3.859024e+003;2.548661e-002
3.860953e+003;2.566334e-002
3.862882e+003;2.547800e-002
3.864810e+003;2.565048e-002
3.866739e+003;2.579996e-002
3.868667e+003;2.396301e-002
3.870596e+003;2.301734e-002
3.872524e+003;2.439572e-002
3.874453e+003;2.572082e-002
3.876381e+003;2.568243e-002
3.878310e+003;2.481959e-002
3.880239e+003;2.496314e-002
3.882167e+003;2.530583e-002
3.884096e+003;2.433870e-002
3.886024e+003;2.456875e-002
3.887953e+003;2.584423e-002
3.889881e+003;2.575833e-002
3.891810e+003;2.553766e-002
3.893738e+003;2.589903e-002
3.895667e+003;2.600603e-002
3.897595e+003;2.587128e-002
3.899524e+003;2.541223e-002
3.901453e+003;2.524651e-002
3.903381e+003;2.525923e-002
3.905310e+003;2.546862e-002
3.907238e+003;2.561860e-002
3.909167e+003;2.589787e-002
3.911095e+003;2.633849e-002
3.913024e+003;2.634532e-002
3.914952e+003;2.620740e-002
3.916881e+003;2.577855e-002
3.918810e+003;2.568971e-002
3.920738e+003;2.584779e-002
3.922667e+003;2.622334e-002
3.924595e+003;2.619262e-002
3.926524e+003;2.634391e-002
3.928452e+003;2.616415e-002
3.930381e+003;2.573228e-002
3.932309e+003;2.642898e-002
3.934238e+003;2.706895e-002
3.936167e+003;2.674453e-002
3.938095e+003;2.660423e-002
3.940023e+003;2.650564e-002
3.941952e+003;2.629902e-002
3.943881e+003;2.656901e-002
3.945809e+003;2.631230e-002
3.947738e+003;2.584550e-002
3.949666e+003;2.630462e-002
3.951595e+003;2.671028e-002
3.953523e+003;2.650504e-002
3.955452e+003;2.630525e-002
3.957380e+003;2.608026e-002
3.959309e+003;2.583442e-002
3.961238e+003;2.568767e-002
3.963166e+003;2.622426e-002
3.965095e+003;2.657612e-002
3.967023e+003;2.626558e-002
3.968952e+003;2.665856e-002
3.970880e+003;2.670989e-002
3.972809e+003;2.629871e-002
3.974737e+003;2.586927e-002
3.976666e+003;2.590272e-002
3.978594e+003;2.554311e-002
3.980523e+003;2.450424e-002
3.982452e+003;2.456535e-002
3.984380e+003;2.526003e-002
3.986309e+003;2.538581e-002
3.988237e+003;2.533333e-002
3.990166e+003;2.587771e-002
3.992094e+003;2.593715e-002
3.994023e+003;2.568771e-002
3.995951e+003;2.576216e-002
3.997880e+003;2.606703e-002
3.999809e+003;2.576304e-002
4.001737e+003;0.000000e+000
