3.992094e+002;0.000000e+000
4.011380e+002;0.000000e+000
4.030665e+002;0.000000e+000
4.049951e+002;0.000000e+000
4.069236e+002;0.000000e+000
4.088522e+002;0.000000e+000
4.107807e+002;0.000000e+000
4.127093e+002;0.000000e+000
4.146378e+002;0.000000e+000
4.165664e+002;0.000000e+000
4.184949e+002;0.000000e+000
4.204235e+002;0.000000e+000
4.223520e+002;0.000000e+000
4.242806e+002;0.000000e+000
4.262091e+002;0.000000e+000
4.281377e+002;0.000000e+000
4.300662e+002;0.000000e+000
4.319948e+002;0.000000e+000
4.339233e+002;0.000000e+000
4.358519e+002;0.000000e+000
4.377804e+002;0.000000e+000
4.397090e+002;0.000000e+000
4.416375e+002;0.000000e+000
4.435660e+002;0.000000e+000
4.454946e+002;0.000000e+000
4.474232e+002;0.000000e+000
4.493517e+002;0.000000e+000
4.512802e+002;0.000000e+000
4.532088e+002;0.000000e+000
4.551373e+002;0.000000e+000
4.570659e+002;0.000000e+000
4.589944e+002;0.000000e+000
4.609230e+002;0.000000e+000
4.628515e+002;0.000000e+000
4.647801e+002;0.000000e+000
4.667086e+002;0.000000e+000
4.686372e+002;0.000000e+000
4.705657e+002;0.000000e+000
4.724943e+002;0.000000e+000
4.744228e+002;0.000000e+000
4.763513e+002;0.000000e+000
4.782799e+002;0.000000e+000
4.802085e+002;0.000000e+000
4.821370e+002;0.000000e+000
4.840656e+002;0.000000e+000
4.859941e+002;0.000000e+000
4.879226e+002;0.000000e+000
4.898512e+002;0.000000e+000
4.917798e+002;0.000000e+000
4.937083e+002;0.000000e+000
4.956368e+002;0.000000e+000
4.975654e+002;0.000000e+000
4.994939e+002;0.000000e+000
5.014225e+002;0.000000e+000
5.033510e+002;0.000000e+000
5.052796e+002;0.000000e+000
5.072081e+002;0.000000e+000
5.091367e+002;0.000000e+000
5.110652e+002;0.000000e+000
5.129938e+002;0.000000e+000
5.149223e+002;0.000000e+000
5.168509e+002;0.000000e+000
5.187794e+002;0.000000e+000
5.207079e+002;0.000000e+000
5.226365e+002;0.000000e+000
5.245651e+002;0.000000e+000
5.264936e+002;0.000000e+000
5.284222e+002;0.000000e+000
5.303507e+002;0.000000e+000
5.322792e+002;0.000000e+000
5.342078e+002;0.000000e+000
5.361364e+002;0.000000e+000
5.380649e+002;0.000000e+000
5.399935e+002;0.000000e+000
5.419220e+002;0.000000e+000
5.438505e+002;0.000000e+000
5.457791e+002;0.000000e+000
5.477076e+002;0.000000e+000
5.496362e+002;0.000000e+000
5.515648e+002;0.000000e+000
5.534933e+002;0.000000e+000
5.554218e+002;0.000000e+000
5.573504e+002;0.000000e+000
5.592789e+002;0.000000e+000
5.612075e+002;0.000000e+000
5.631360e+002;0.000000e+000
5.650646e+002;0.000000e+000
5.669931e+002;0.000000e+000
5.689217e+002;0.000000e+000
5.708502e+002;0.000000e+000
5.727787e+002;0.000000e+000
5.747073e+002;0.000000e+000
5.766359e+002;0.000000e+000
5.785644e+002;0.000000e+000
5.804930e+002;0.000000e+000
5.824215e+002;0.000000e+000
5.843500e+002;0.000000e+000
5.862786e+002;0.000000e+000
5.882072e+002;0.000000e+000
5.901357e+002;0.000000e+000
5.920643e+002;0.000000e+000
5.939928e+002;0.000000e+000
5.959213e+002;0.000000e+000
5.978499e+002;0.000000e+000
5.997784e+002;1.864541e-001
6.017070e+002;1.834145e-001
6.036355e+002;1.827362e-001
6.055641e+002;1.819984e-001
6.074926e+002;1.802997e-001
6.094211e+002;1.787735e-001
6.113497e+002;1.767360e-001
6.132783e+002;1.762465e-001
6.152068e+002;1.815379e-001
6.171354e+002;1.866656e-001
6.190639e+002;1.860792e-001
6.209924e+002;1.821696e-001
6.229210e+002;1.807445e-001
6.248495e+002;1.810945e-001
6.267781e+002;1.805588e-001
6.287067e+002;1.793897e-001
6.306352e+002;1.806405e-001
6.325637e+002;1.824233e-001
6.344923e+002;1.827948e-001
6.364208e+002;1.806197e-001
6.383494e+002;1.775476e-001
6.402780e+002;1.751162e-001
6.422065e+002;1.741471e-001
6.441350e+002;1.731984e-001
6.460636e+002;1.713435e-001
6.479921e+002;1.729313e-001
6.499207e+002;1.751729e-001
6.518492e+002;1.730423e-001
6.537778e+002;1.679946e-001
6.557063e+002;1.672772e-001
6.576349e+002;1.698273e-001
6.595634e+002;1.681907e-001
6.614919e+002;1.677884e-001
6.634205e+002;1.682347e-001
6.653491e+002;1.674147e-001
6.672776e+002;1.677063e-001
6.692062e+002;1.675573e-001
6.711347e+002;1.657029e-001
6.730632e+002;1.640298e-001
6.749918e+002;1.636909e-001
6.769203e+002;1.645478e-001
6.788489e+002;1.639687e-001
6.807775e+002;1.620621e-001
6.827060e+002;1.600651e-001
6.846345e+002;1.593615e-001
6.865631e+002;1.593643e-001
6.884916e+002;1.590814e-001
6.904202e+002;1.592490e-001
6.923488e+002;1.581940e-001
6.942773e+002;1.572187e-001
6.962058e+002;1.568184e-001
6.981344e+002;1.566846e-001
7.000629e+002;1.560540e-001
7.019915e+002;1.546297e-001
7.039200e+002;1.528389e-001
7.058486e+002;1.517991e-001
7.077771e+002;1.510230e-001
7.097057e+002;1.495976e-001
7.116342e+002;1.470713e-001
7.135627e+002;1.444920e-001
7.154913e+002;1.438051e-001
7.174199e+002;1.445962e-001
7.193484e+002;1.442066e-001
7.212770e+002;1.428055e-001
7.232055e+002;1.412836e-001
7.251340e+002;1.398656e-001
7.270626e+002;1.390795e-001
7.289911e+002;1.386346e-001
7.309197e+002;1.389723e-001
7.328483e+002;1.392791e-001
7.347768e+002;1.386762e-001
7.367053e+002;1.368807e-001
7.386339e+002;1.353150e-001
7.405624e+002;1.349641e-001
7.424910e+002;1.348307e-001
7.444196e+002;1.352340e-001
7.463481e+002;1.355582e-001
7.482766e+002;1.343491e-001
7.502052e+002;1.326123e-001
7.521337e+002;1.318392e-001
7.540623e+002;1.308256e-001
7.559908e+002;1.293329e-001
7.579194e+002;1.284111e-001
7.598479e+002;1.274628e-001
7.617765e+002;1.272946e-001
7.637050e+002;1.266220e-001
7.656335e+002;1.254466e-001
7.675621e+002;1.251672e-001
7.694907e+002;1.249251e-001
7.714192e+002;1.240656e-001
7.733478e+002;1.231406e-001
7.752763e+002;1.219008e-001
7.772048e+002;1.203148e-001
7.791334e+002;1.200546e-001
7.810620e+002;1.199161e-001
7.829905e+002;1.193735e-001
7.849191e+002;1.188873e-001
7.868476e+002;1.181956e-001
7.887761e+002;1.173221e-001
7.907047e+002;1.167092e-001
7.926332e+002;1.158293e-001
7.945618e+002;1.144949e-001
7.964903e+002;1.137647e-001
7.984189e+002;1.137960e-001
8.003474e+002;1.133426e-001
8.022759e+002;1.130318e-001
8.042045e+002;1.130369e-001
8.061331e+002;1.122595e-001
8.080616e+002;1.119435e-001
8.099902e+002;1.120898e-001
8.119187e+002;1.114624e-001
8.138472e+002;1.104601e-001
8.157758e+002;1.097838e-001
8.177043e+002;1.096456e-001
8.196329e+002;1.102187e-001
8.215615e+002;1.107644e-001
8.234900e+002;1.101253e-001
8.254185e+002;1.094899e-001
8.273471e+002;1.092780e-001
8.292756e+002;1.093445e-001
8.312042e+002;1.091111e-001
8.331328e+002;1.081366e-001
8.350613e+002;1.075639e-001
8.369898e+002;1.072588e-001
8.389184e+002;1.067676e-001
8.408469e+002;1.060049e-001
8.427755e+002;1.053259e-001
8.447040e+002;1.047216e-001
8.466326e+002;1.044281e-001
8.485611e+002;1.046977e-001
8.504897e+002;1.043003e-001
8.524182e+002;1.034413e-001
8.543467e+002;1.028895e-001
8.562753e+002;1.023402e-001
8.582039e+002;1.016026e-001
8.601324e+002;1.010430e-001
8.620610e+002;1.011022e-001
8.639895e+002;1.015454e-001
8.659180e+002;1.013050e-001
8.678466e+002;1.009465e-001
8.697751e+002;1.005947e-001
8.717037e+002;1.001874e-001
8.736323e+002;1.000468e-001
8.755608e+002;9.985912e-002
8.774893e+002;9.999207e-002
8.794179e+002;1.000824e-001
8.813464e+002;9.996213e-002
8.832750e+002;9.961091e-002
8.852036e+002;9.924594e-002
8.871321e+002;9.903707e-002
8.890606e+002;9.861225e-002
8.909892e+002;9.871742e-002
8.929177e+002;9.888972e-002
8.948463e+002;9.852345e-002
8.967748e+002;9.833433e-002
8.987034e+002;9.816965e-002
9.006319e+002;9.822842e-002
9.025605e+002;9.828701e-002
9.044890e+002;9.801179e-002
9.064175e+002;9.794748e-002
9.083461e+002;9.832042e-002
9.102747e+002;9.881816e-002
9.122032e+002;9.916695e-002
9.141318e+002;9.929661e-002
9.160603e+002;9.958036e-002
9.179888e+002;9.985933e-002
9.199174e+002;9.996630e-002
9.218459e+002;9.989165e-002
9.237745e+002;1.001630e-001
9.257031e+002;1.005488e-001
9.276316e+002;1.004721e-001
9.295601e+002;1.003764e-001
9.314887e+002;1.005321e-001
9.334172e+002;1.004345e-001
9.353458e+002;1.002139e-001
9.372744e+002;9.975559e-002
9.392029e+002;9.914805e-002
9.411314e+002;9.875685e-002
9.430600e+002;9.852939e-002
9.449885e+002;9.836708e-002
9.469171e+002;9.810494e-002
9.488456e+002;9.800161e-002
9.507742e+002;9.827309e-002
9.527027e+002;9.834389e-002
9.546313e+002;9.818248e-002
9.565598e+002;9.808280e-002
9.584883e+002;9.841870e-002
9.604169e+002;9.889642e-002
9.623455e+002;9.940949e-002
9.642740e+002;9.971061e-002
9.662026e+002;9.971432e-002
9.681311e+002;9.979136e-002
9.700596e+002;9.985191e-002
9.719882e+002;9.993197e-002
9.739167e+002;1.002854e-001
9.758453e+002;1.008250e-001
9.777739e+002;1.011690e-001
9.797024e+002;1.012312e-001
9.816309e+002;1.014857e-001
9.835595e+002;1.017088e-001
9.854880e+002;1.018068e-001
9.874166e+002;1.021262e-001
9.893452e+002;1.022595e-001
9.912737e+002;1.021878e-001
9.932022e+002;1.024551e-001
9.951307e+002;1.030547e-001
9.970593e+002;1.033442e-001
9.989879e+002;1.033866e-001
1.000916e+003;1.040815e-001
1.002845e+003;1.049658e-001
1.004773e+003;1.056205e-001
1.006702e+003;1.059773e-001
1.008631e+003;1.062654e-001
1.010559e+003;1.071731e-001
1.012488e+003;1.083153e-001
1.014416e+003;1.091959e-001
1.016345e+003;1.099938e-001
1.018273e+003;1.107440e-001
1.020202e+003;1.114309e-001
1.022130e+003;1.125246e-001
1.024059e+003;1.135285e-001
1.025988e+003;1.141390e-001
1.027916e+003;1.154994e-001
1.029845e+003;1.168265e-001
1.031773e+003;1.177512e-001
1.033702e+003;1.188982e-001
1.035630e+003;1.203843e-001
1.037559e+003;1.217870e-001
1.039487e+003;1.225159e-001
1.041416e+003;1.231929e-001
1.043344e+003;1.240957e-001
1.045273e+003;1.240692e-001
1.047202e+003;1.237970e-001
1.049130e+003;1.240319e-001
1.051059e+003;1.242244e-001
1.052987e+003;1.242496e-001
1.054916e+003;1.244497e-001
1.056844e+003;1.250001e-001
1.058773e+003;1.254103e-001
1.060701e+003;1.255401e-001
1.062630e+003;1.256617e-001
1.064558e+003;1.260792e-001
1.066487e+003;1.265009e-001
1.068416e+003;1.268508e-001
1.070344e+003;1.270924e-001
1.072273e+003;1.272652e-001
1.074201e+003;1.271085e-001
1.076130e+003;1.267753e-001
1.078058e+003;1.266831e-001
1.079987e+003;1.266967e-001
1.081915e+003;1.263985e-001
1.083844e+003;1.255347e-001
1.085773e+003;1.245050e-001
1.087701e+003;1.234558e-001
1.089630e+003;1.227220e-001
1.091558e+003;1.221474e-001
1.093487e+003;1.217443e-001
1.095415e+003;1.211244e-001
1.097344e+003;1.207632e-001
1.099272e+003;1.209347e-001
1.101201e+003;1.211062e-001
1.103129e+003;1.208111e-001
1.105058e+003;1.205723e-001
1.106987e+003;1.205663e-001
1.108915e+003;1.202346e-001
1.110844e+003;1.199373e-001
1.112772e+003;1.194904e-001
1.114701e+003;1.189906e-001
1.116629e+003;1.190059e-001
1.118558e+003;1.193030e-001
1.120486e+003;1.194524e-001
1.122415e+003;1.192704e-001
1.124344e+003;1.189388e-001
1.126272e+003;1.188455e-001
1.128201e+003;1.187512e-001
1.130129e+003;1.187336e-001
1.132058e+003;1.187511e-001
1.133986e+003;1.185498e-001
1.135915e+003;1.182189e-001
1.137843e+003;1.181132e-001
1.139772e+003;1.184365e-001
1.141700e+003;1.193642e-001
1.143629e+003;1.199929e-001
1.145557e+003;1.205950e-001
1.147486e+003;1.216209e-001
1.149415e+003;1.223716e-001
1.151343e+003;1.229157e-001
1.153272e+003;1.236593e-001
1.155200e+003;1.240293e-001
1.157129e+003;1.244054e-001
1.159057e+003;1.254180e-001
1.160986e+003;1.262041e-001
1.162914e+003;1.266500e-001
1.164843e+003;1.270785e-001
1.166771e+003;1.277423e-001
1.168700e+003;1.285087e-001
1.170629e+003;1.290107e-001
1.172557e+003;1.294788e-001
1.174486e+003;1.298013e-001
1.176414e+003;1.298215e-001
1.178343e+003;1.300593e-001
1.180271e+003;1.300913e-001
1.182200e+003;1.305634e-001
1.184128e+003;1.312751e-001
1.186057e+003;1.316635e-001
1.187986e+003;1.323242e-001
1.189914e+003;1.331498e-001
1.191843e+003;1.337031e-001
1.193771e+003;1.343001e-001
1.195700e+003;1.351643e-001
1.197628e+003;1.363667e-001
1.199557e+003;1.374636e-001
1.201485e+003;1.384369e-001
1.203414e+003;1.394793e-001
1.205343e+003;1.404133e-001
1.207271e+003;1.415379e-001
1.209200e+003;1.427010e-001
1.211128e+003;1.437616e-001
1.213057e+003;1.448078e-001
1.214985e+003;1.461833e-001
1.216914e+003;1.477396e-001
1.218842e+003;1.491433e-001
1.220771e+003;1.504748e-001
1.222699e+003;1.518165e-001
1.224628e+003;1.529509e-001
1.226557e+003;1.538563e-001
1.228485e+003;1.546249e-001
1.230414e+003;1.553281e-001
1.232342e+003;1.556821e-001
1.234271e+003;1.555507e-001
1.236199e+003;1.553935e-001
1.238128e+003;1.554072e-001
1.240056e+003;1.550675e-001
1.241985e+003;1.542040e-001
1.243913e+003;1.531458e-001
1.245842e+003;1.521773e-001
1.247771e+003;1.510886e-001
1.249699e+003;1.499558e-001
1.251628e+003;1.490035e-001
1.253556e+003;1.483583e-001
1.255485e+003;1.478109e-001
1.257413e+003;1.471942e-001
1.259342e+003;1.465693e-001
1.261270e+003;1.456739e-001
1.263199e+003;1.446733e-001
1.265127e+003;1.438198e-001
1.267056e+003;1.430340e-001
1.268985e+003;1.424119e-001
1.270913e+003;1.419213e-001
1.272842e+003;1.413629e-001
1.274770e+003;1.409138e-001
1.276699e+003;1.401631e-001
1.278627e+003;1.395886e-001
1.280556e+003;1.393675e-001
1.282484e+003;1.389811e-001
1.284413e+003;1.384482e-001
1.286342e+003;1.377601e-001
1.288270e+003;1.372708e-001
1.290199e+003;1.371477e-001
1.292127e+003;1.369186e-001
1.294056e+003;1.366097e-001
1.295984e+003;1.364749e-001
1.297913e+003;1.364973e-001
1.299841e+003;1.363210e-001
1.301770e+003;1.358590e-001
1.303698e+003;1.354869e-001
1.305627e+003;1.351631e-001
1.307556e+003;1.348885e-001
1.309484e+003;1.343294e-001
1.311413e+003;1.335033e-001
1.313341e+003;1.326095e-001
1.315270e+003;1.320132e-001
1.317198e+003;1.314214e-001
1.319127e+003;1.305622e-001
1.321055e+003;1.298450e-001
1.322984e+003;1.293712e-001
1.324912e+003;1.287681e-001
1.326841e+003;1.284093e-001
1.328770e+003;1.282107e-001
1.330698e+003;1.278966e-001
1.332627e+003;1.277233e-001
1.334555e+003;1.278295e-001
1.336484e+003;1.280745e-001
1.338412e+003;1.277874e-001
1.340341e+003;1.273206e-001
1.342269e+003;1.272198e-001
1.344198e+003;1.271452e-001
1.346126e+003;1.268576e-001
1.348055e+003;1.265157e-001
1.349984e+003;1.262836e-001
1.351912e+003;1.258884e-001
1.353841e+003;1.256228e-001
1.355769e+003;1.255668e-001
1.357698e+003;1.255806e-001
1.359626e+003;1.257357e-001
1.361555e+003;1.262679e-001
1.363483e+003;1.275510e-001
1.365412e+003;1.293549e-001
1.367341e+003;1.305822e-001
1.369269e+003;1.313125e-001
1.371198e+003;1.317739e-001
1.373126e+003;1.322088e-001
1.375055e+003;1.332230e-001
1.376983e+003;1.346882e-001
1.378912e+003;1.359399e-001
1.380840e+003;1.370541e-001
1.382769e+003;1.381002e-001
1.384698e+003;1.390084e-001
1.386626e+003;1.395024e-001
1.388555e+003;1.399764e-001
1.390483e+003;1.402795e-001
1.392412e+003;1.397524e-001
1.394340e+003;1.389458e-001
1.396269e+003;1.384558e-001
1.398197e+003;1.378316e-001
1.400126e+003;1.374782e-001
1.402054e+003;1.374142e-001
1.403983e+003;1.368622e-001
1.405911e+003;1.361321e-001
1.407840e+003;1.356825e-001
1.409769e+003;1.355370e-001
1.411697e+003;1.353307e-001
1.413626e+003;1.350431e-001
1.415554e+003;1.347063e-001
1.417483e+003;1.337457e-001
1.419411e+003;1.334719e-001
1.421340e+003;1.347406e-001
1.423268e+003;1.355783e-001
1.425197e+003;1.362932e-001
1.427125e+003;1.372119e-001
1.429054e+003;1.381696e-001
1.430983e+003;1.398239e-001
1.432911e+003;1.420121e-001
1.434840e+003;1.431923e-001
1.436768e+003;1.442211e-001
1.438697e+003;1.464646e-001
1.440625e+003;1.480585e-001
1.442554e+003;1.489716e-001
1.444482e+003;1.496233e-001
1.446411e+003;1.499152e-001
1.448340e+003;1.499434e-001
1.450268e+003;1.499018e-001
1.452197e+003;1.494714e-001
1.454125e+003;1.480302e-001
1.456054e+003;1.451401e-001
1.457982e+003;1.441504e-001
1.459911e+003;1.447763e-001
1.461839e+003;1.447659e-001
1.463768e+003;1.441262e-001
1.465697e+003;1.439264e-001
1.467625e+003;1.443996e-001
1.469554e+003;1.441008e-001
1.471482e+003;1.426374e-001
1.473411e+003;1.417153e-001
1.475339e+003;1.420577e-001
1.477268e+003;1.427944e-001
1.479196e+003;1.438804e-001
1.481125e+003;1.455350e-001
1.483053e+003;1.483284e-001
1.484982e+003;1.518282e-001
1.486911e+003;1.558090e-001
1.488839e+003;1.606136e-001
1.490768e+003;1.665286e-001
1.492696e+003;1.728958e-001
1.494625e+003;1.781217e-001
1.496553e+003;1.830938e-001
1.498482e+003;1.888779e-001
1.500410e+003;1.943214e-001
1.502339e+003;1.989064e-001
1.504267e+003;2.015732e-001
1.506196e+003;2.038234e-001
1.508125e+003;2.086904e-001
1.510053e+003;2.134200e-001
1.511982e+003;2.163456e-001
1.513910e+003;2.178270e-001
1.515839e+003;2.171589e-001
1.517767e+003;2.156269e-001
1.519696e+003;2.133912e-001
1.521624e+003;2.115535e-001
1.523553e+003;2.116811e-001
1.525481e+003;2.113634e-001
1.527410e+003;2.107686e-001
1.529339e+003;2.106392e-001
1.531267e+003;2.097761e-001
1.533196e+003;2.080962e-001
1.535124e+003;2.073960e-001
1.537053e+003;2.053254e-001
1.538981e+003;2.008195e-001
1.540910e+003;1.974296e-001
1.542838e+003;1.949867e-001
1.544767e+003;1.912570e-001
1.546695e+003;1.868089e-001
1.548624e+003;1.814621e-001
1.550553e+003;1.757437e-001
1.552481e+003;1.699823e-001
1.554410e+003;1.641706e-001
1.556338e+003;1.581408e-001
1.558267e+003;1.516428e-001
1.560195e+003;1.485915e-001
1.562124e+003;1.479362e-001
1.564052e+003;1.459747e-001
1.565981e+003;1.436195e-001
1.567910e+003;1.412437e-001
1.569838e+003;1.394490e-001
1.571767e+003;1.389322e-001
1.573695e+003;1.377398e-001
1.575624e+003;1.358614e-001
1.577552e+003;1.360801e-001
1.579481e+003;1.363735e-001
1.581409e+003;1.353879e-001
1.583338e+003;1.347900e-001
1.585266e+003;1.345623e-001
1.587195e+003;1.349540e-001
1.589124e+003;1.358961e-001
1.591052e+003;1.374262e-001
1.592981e+003;1.393679e-001
1.594909e+003;1.417317e-001
1.596838e+003;1.444988e-001
1.598766e+003;1.475551e-001
1.600695e+003;1.511173e-001
1.602623e+003;1.553809e-001
1.604552e+003;1.603147e-001
1.606480e+003;1.658626e-001
1.608409e+003;1.719110e-001
1.610338e+003;1.783922e-001
1.612266e+003;1.848995e-001
1.614195e+003;1.904929e-001
1.616123e+003;1.953067e-001
1.618052e+003;2.021745e-001
1.619980e+003;2.092996e-001
1.621909e+003;2.147428e-001
1.623837e+003;2.195560e-001
1.625766e+003;2.238515e-001
1.627694e+003;2.271926e-001
1.629623e+003;2.300408e-001
1.631552e+003;2.319303e-001
1.633480e+003;2.316770e-001
1.635409e+003;2.306544e-001
1.637337e+003;2.319077e-001
1.639266e+003;2.334070e-001
1.641194e+003;2.335286e-001
1.643123e+003;2.321796e-001
1.645051e+003;2.289937e-001
1.646980e+003;2.261408e-001
1.648909e+003;2.236785e-001
1.650837e+003;2.179700e-001
1.652766e+003;2.105399e-001
1.654694e+003;2.070858e-001
1.656623e+003;2.036695e-001
1.658551e+003;1.977795e-001
1.660480e+003;1.915767e-001
1.662408e+003;1.856030e-001
1.664337e+003;1.801368e-001
1.666266e+003;1.745649e-001
1.668194e+003;1.684358e-001
1.670123e+003;1.630587e-001
1.672051e+003;1.585167e-001
1.673980e+003;1.530905e-001
1.675908e+003;1.481058e-001
1.677837e+003;1.442170e-001
1.679765e+003;1.395142e-001
1.681694e+003;1.336918e-001
1.683622e+003;1.268200e-001
1.685551e+003;1.224896e-001
1.687479e+003;1.194626e-001
1.689408e+003;1.148671e-001
1.691337e+003;1.098693e-001
1.693265e+003;1.038352e-001
1.695194e+003;9.664515e-002
1.697122e+003;9.151097e-002
1.699051e+003;8.591449e-002
1.700979e+003;8.084319e-002
1.702908e+003;7.772838e-002
1.704836e+003;7.358045e-002
1.706765e+003;6.989578e-002
1.708693e+003;6.671789e-002
1.710622e+003;6.407305e-002
1.712551e+003;6.135416e-002
1.714479e+003;5.831799e-002
1.716408e+003;5.528011e-002
1.718336e+003;5.445555e-002
1.720265e+003;5.527300e-002
1.722193e+003;5.510737e-002
1.724122e+003;5.409730e-002
1.726050e+003;5.339704e-002
1.727979e+003;5.275915e-002
1.729908e+003;5.171760e-002
1.731836e+003;4.967108e-002
1.733765e+003;4.774422e-002
1.735693e+003;4.847953e-002
1.737622e+003;4.889169e-002
1.739550e+003;4.820962e-002
1.741479e+003;4.837393e-002
1.743407e+003;4.816416e-002
1.745336e+003;4.778971e-002
1.747265e+003;4.760784e-002
1.749193e+003;4.745029e-002
1.751122e+003;4.761642e-002
1.753050e+003;4.870614e-002
1.754979e+003;4.945489e-002
1.756907e+003;4.964500e-002
1.758836e+003;4.992760e-002
1.760764e+003;4.994838e-002
1.762693e+003;5.016566e-002
1.764621e+003;5.064253e-002
1.766550e+003;5.053658e-002
1.768479e+003;5.047934e-002
1.770407e+003;5.000235e-002
1.772336e+003;4.936560e-002
1.774264e+003;5.010787e-002
1.776193e+003;5.101170e-002
1.778121e+003;5.123359e-002
1.780050e+003;5.108422e-002
1.781978e+003;5.109417e-002
1.783907e+003;5.106946e-002
1.785835e+003;5.112130e-002
1.787764e+003;5.130972e-002
1.789693e+003;5.095592e-002
1.791621e+003;5.035866e-002
1.793550e+003;5.053346e-002
1.795478e+003;5.131520e-002
1.797407e+003;5.140833e-002
1.799335e+003;5.112167e-002
1.801264e+003;5.109063e-002
1.803192e+003;5.140352e-002
1.805121e+003;5.147364e-002
1.807049e+003;5.142630e-002
1.808978e+003;5.132531e-002
1.810907e+003;5.121524e-002
1.812835e+003;5.140299e-002
1.814764e+003;5.177056e-002
1.816692e+003;5.206026e-002
1.818621e+003;5.211222e-002
1.820549e+003;5.197872e-002
1.822478e+003;5.174134e-002
1.824406e+003;5.145193e-002
1.826335e+003;5.170983e-002
1.828264e+003;5.168606e-002
1.830192e+003;5.153184e-002
1.832121e+003;5.184437e-002
1.834049e+003;5.195519e-002
1.835978e+003;5.184594e-002
1.837906e+003;5.187932e-002
1.839835e+003;5.198526e-002
1.841763e+003;5.156396e-002
1.843692e+003;5.084777e-002
1.845620e+003;5.124167e-002
1.847549e+003;5.175447e-002
1.849478e+003;5.201230e-002
1.851406e+003;5.205548e-002
1.853335e+003;5.201831e-002
1.855263e+003;5.192315e-002
1.857192e+003;5.178983e-002
1.859120e+003;5.185534e-002
1.861049e+003;5.195228e-002
1.862977e+003;5.202417e-002
1.864906e+003;5.193578e-002
1.866834e+003;5.157448e-002
1.868763e+003;5.149673e-002
1.870692e+003;5.190643e-002
1.872620e+003;5.222102e-002
1.874549e+003;5.231322e-002
1.876477e+003;5.234663e-002
1.878406e+003;5.225226e-002
1.880334e+003;5.220757e-002
1.882263e+003;5.233523e-002
1.884191e+003;5.242435e-002
1.886120e+003;5.223111e-002
1.888048e+003;5.199964e-002
1.889977e+003;5.202668e-002
1.891906e+003;5.223290e-002
1.893834e+003;5.217394e-002
1.895763e+003;5.212265e-002
1.897691e+003;5.223645e-002
1.899620e+003;5.224741e-002
1.901548e+003;5.228078e-002
1.903477e+003;5.254097e-002
1.905405e+003;5.257073e-002
1.907334e+003;5.229625e-002
1.909262e+003;5.206608e-002
1.911191e+003;5.209365e-002
1.913120e+003;5.229161e-002
1.915048e+003;5.218552e-002
1.916977e+003;5.174948e-002
1.918905e+003;5.176982e-002
1.920834e+003;5.191053e-002
1.922762e+003;5.181809e-002
1.924691e+003;5.199796e-002
1.926619e+003;5.218915e-002
1.928548e+003;5.206635e-002
1.930477e+003;5.213953e-002
1.932405e+003;5.242042e-002
1.934334e+003;5.250522e-002
1.936262e+003;5.241485e-002
1.938191e+003;5.233075e-002
1.940119e+003;5.235650e-002
1.942048e+003;5.230683e-002
1.943976e+003;5.225566e-002
1.945905e+003;5.226235e-002
1.947833e+003;5.219027e-002
1.949762e+003;5.224658e-002
1.951691e+003;5.243642e-002
1.953619e+003;5.243474e-002
1.955548e+003;5.240154e-002
1.957476e+003;5.248970e-002
1.959405e+003;5.254075e-002
1.961333e+003;5.256135e-002
1.963262e+003;5.262541e-002
1.965190e+003;5.251988e-002
1.967119e+003;5.258169e-002
1.969047e+003;5.268313e-002
1.970976e+003;5.256640e-002
1.972905e+003;5.242857e-002
1.974833e+003;5.254965e-002
1.976762e+003;5.272267e-002
1.978690e+003;5.281194e-002
1.980619e+003;5.267733e-002
1.982547e+003;5.245486e-002
1.984476e+003;5.252126e-002
1.986404e+003;5.279948e-002
1.988333e+003;5.274924e-002
1.990261e+003;5.262171e-002
1.992190e+003;5.267999e-002
1.994119e+003;5.275369e-002
1.996047e+003;5.291909e-002
1.997976e+003;5.296816e-002
1.999904e+003;5.279683e-002
2.001833e+003;5.281082e-002
2.003761e+003;5.317850e-002
2.005690e+003;5.327580e-002
2.007618e+003;5.309938e-002
2.009547e+003;5.297314e-002
2.011476e+003;5.308623e-002
2.013404e+003;5.320775e-002
2.015333e+003;5.314079e-002
2.017261e+003;5.333747e-002
2.019190e+003;5.349323e-002
2.021118e+003;5.346243e-002
2.023047e+003;5.345190e-002
2.024975e+003;5.338520e-002
2.026904e+003;5.343638e-002
2.028833e+003;5.340970e-002
2.030761e+003;5.327281e-002
2.032690e+003;5.340303e-002
2.034618e+003;5.370057e-002
2.036547e+003;5.375194e-002
2.038475e+003;5.371628e-002
2.040404e+003;5.380182e-002
2.042332e+003;5.377170e-002
2.044261e+003;5.371515e-002
2.046189e+003;5.361906e-002
2.048118e+003;5.355545e-002
2.050047e+003;5.360249e-002
2.051975e+003;5.367234e-002
2.053904e+003;5.382098e-002
2.055832e+003;5.377331e-002
2.057761e+003;5.352599e-002
2.059689e+003;5.337369e-002
2.061618e+003;5.348026e-002
2.063546e+003;5.363870e-002
2.065475e+003;5.386385e-002
2.067404e+003;5.408856e-002
2.069332e+003;5.413735e-002
2.071260e+003;5.411242e-002
2.073189e+003;5.410586e-002
2.075118e+003;5.404311e-002
2.077046e+003;5.399163e-002
2.078975e+003;5.411884e-002
2.080903e+003;5.431562e-002
2.082832e+003;5.442164e-002
2.084760e+003;5.435505e-002
2.086689e+003;5.411220e-002
2.088617e+003;5.388516e-002
2.090546e+003;5.390920e-002
2.092475e+003;5.416215e-002
2.094403e+003;5.437924e-002
2.096332e+003;5.446953e-002
2.098260e+003;5.432284e-002
2.100189e+003;5.427459e-002
2.102117e+003;5.439016e-002
2.104046e+003;5.440766e-002
2.105974e+003;5.435599e-002
2.107903e+003;5.419717e-002
2.109832e+003;5.417409e-002
2.111760e+003;5.419278e-002
2.113688e+003;5.416144e-002
2.115617e+003;5.417916e-002
2.117546e+003;5.418794e-002
2.119474e+003;5.425559e-002
2.121403e+003;5.441649e-002
2.123331e+003;5.445878e-002
2.125260e+003;5.432077e-002
2.127188e+003;5.411419e-002
2.129117e+003;5.399032e-002
2.131045e+003;5.411832e-002
2.132974e+003;5.414695e-002
2.134903e+003;5.421399e-002
2.136831e+003;5.416636e-002
2.138760e+003;5.390463e-002
2.140688e+003;5.405091e-002
2.142617e+003;5.427245e-002
2.144545e+003;5.425153e-002
2.146474e+003;5.411696e-002
2.148402e+003;5.388167e-002
2.150331e+003;5.388745e-002
2.152260e+003;5.407103e-002
2.154188e+003;5.416474e-002
2.156117e+003;5.411310e-002
2.158045e+003;5.415314e-002
2.159974e+003;5.423198e-002
2.161902e+003;5.416050e-002
2.163831e+003;5.401545e-002
2.165759e+003;5.387049e-002
2.167688e+003;5.387994e-002
2.169616e+003;5.400585e-002
2.171545e+003;5.408840e-002
2.173474e+003;5.413374e-002
2.175402e+003;5.405639e-002
2.177331e+003;5.390388e-002
2.179259e+003;5.388388e-002
2.181188e+003;5.392841e-002
2.183116e+003;5.392717e-002
2.185045e+003;5.398041e-002
2.186973e+003;5.389930e-002
2.188902e+003;5.373979e-002
2.190831e+003;5.386989e-002
2.192759e+003;5.388951e-002
2.194688e+003;5.388261e-002
2.196616e+003;5.414988e-002
2.198545e+003;5.409959e-002
2.200473e+003;5.391749e-002
2.202402e+003;5.404814e-002
2.204330e+003;5.418652e-002
2.206259e+003;5.404754e-002
2.208188e+003;5.391153e-002
2.210116e+003;5.393914e-002
2.212044e+003;5.394278e-002
2.213973e+003;5.402840e-002
2.215902e+003;5.404082e-002
2.217830e+003;5.379724e-002
2.219759e+003;5.355189e-002
2.221687e+003;5.356591e-002
2.223616e+003;5.371988e-002
2.225544e+003;5.378464e-002
2.227473e+003;5.382286e-002
2.229401e+003;5.387297e-002
2.231330e+003;5.366019e-002
2.233259e+003;5.323340e-002
2.235187e+003;5.312121e-002
2.237116e+003;5.337036e-002
2.239044e+003;5.382616e-002
2.240973e+003;5.384791e-002
2.242901e+003;5.358315e-002
2.244830e+003;5.346677e-002
2.246758e+003;5.347644e-002
2.248687e+003;5.350493e-002
2.250615e+003;5.346992e-002
2.252544e+003;5.321288e-002
2.254473e+003;5.317584e-002
2.256401e+003;5.324322e-002
2.258330e+003;5.298590e-002
2.260258e+003;5.277666e-002
2.262187e+003;5.287575e-002
2.264115e+003;5.309286e-002
2.266044e+003;5.326989e-002
2.267972e+003;5.314528e-002
2.269901e+003;5.300102e-002
2.271830e+003;5.296924e-002
2.273758e+003;5.306991e-002
2.275687e+003;5.308121e-002
2.277615e+003;5.310892e-002
2.279544e+003;5.301469e-002
2.281472e+003;5.297025e-002
2.283401e+003;5.297358e-002
2.285329e+003;5.294315e-002
2.287258e+003;5.296497e-002
2.289187e+003;5.292320e-002
2.291115e+003;5.288783e-002
2.293043e+003;5.300469e-002
2.294972e+003;5.292126e-002
2.296901e+003;5.287167e-002
2.298829e+003;5.283687e-002
2.300758e+003;5.262414e-002
2.302686e+003;5.269274e-002
2.304615e+003;5.300245e-002
2.306543e+003;5.304172e-002
2.308472e+003;5.299893e-002
2.310400e+003;5.292994e-002
2.312329e+003;5.291175e-002
2.314258e+003;5.277861e-002
2.316186e+003;5.245459e-002
2.318115e+003;5.232824e-002
2.320043e+003;5.243646e-002
2.321972e+003;5.261887e-002
2.323900e+003;5.273475e-002
2.325829e+003;5.274916e-002
2.327757e+003;5.258222e-002
2.329686e+003;5.231094e-002
2.331615e+003;5.239691e-002
2.333543e+003;5.267198e-002
2.335472e+003;5.281984e-002
2.337400e+003;5.283013e-002
2.339329e+003;5.281729e-002
2.341257e+003;5.282811e-002
2.343186e+003;5.279091e-002
2.345114e+003;5.273191e-002
2.347043e+003;5.279757e-002
2.348971e+003;5.274867e-002
2.350900e+003;5.256464e-002
2.352829e+003;5.287459e-002
2.354757e+003;5.321502e-002
2.356686e+003;5.285846e-002
2.358614e+003;5.258921e-002
2.360543e+003;5.261116e-002
2.362471e+003;5.253042e-002
2.364400e+003;5.267195e-002
2.366328e+003;5.277037e-002
2.368257e+003;5.275515e-002
2.370186e+003;5.275376e-002
2.372114e+003;5.291471e-002
2.374042e+003;5.301843e-002
2.375971e+003;5.292930e-002
2.377900e+003;5.267565e-002
2.379828e+003;5.262983e-002
2.381757e+003;5.278257e-002
2.383685e+003;5.285752e-002
2.385614e+003;5.304621e-002
2.387542e+003;5.311956e-002
2.389471e+003;5.306272e-002
2.391399e+003;5.303108e-002
2.393328e+003;5.308226e-002
2.395257e+003;5.313862e-002
2.397185e+003;5.308859e-002
2.399114e+003;5.302367e-002
2.401042e+003;5.292942e-002
2.402971e+003;5.297609e-002
2.404899e+003;5.317491e-002
2.406828e+003;5.336380e-002
2.408756e+003;5.337400e-002
2.410685e+003;5.340348e-002
2.412614e+003;5.346943e-002
2.414542e+003;5.341184e-002
2.416471e+003;5.338490e-002
2.418399e+003;5.362840e-002
2.420328e+003;5.381750e-002
2.422256e+003;5.382102e-002
2.424185e+003;5.395340e-002
2.426113e+003;5.391674e-002
2.428042e+003;5.362240e-002
2.429970e+003;5.365951e-002
2.431899e+003;5.397264e-002
2.433828e+003;5.421640e-002
2.435756e+003;5.417514e-002
2.437685e+003;5.393753e-002
2.439613e+003;5.397249e-002
2.441542e+003;5.404502e-002
2.443470e+003;5.397103e-002
2.445399e+003;5.387885e-002
2.447327e+003;5.405587e-002
2.449256e+003;5.436864e-002
2.451185e+003;5.450416e-002
2.453113e+003;5.441814e-002
2.455042e+003;5.445123e-002
2.456970e+003;5.459549e-002
2.458899e+003;5.441349e-002
2.460827e+003;5.408990e-002
2.462756e+003;5.391577e-002
2.464684e+003;5.399778e-002
2.466613e+003;5.414072e-002
2.468542e+003;5.435043e-002
2.470470e+003;5.442720e-002
2.472398e+003;5.457851e-002
2.474327e+003;5.485496e-002
2.476256e+003;5.475396e-002
2.478184e+003;5.461927e-002
2.480113e+003;5.455168e-002
2.482041e+003;5.445311e-002
2.483970e+003;5.459511e-002
2.485898e+003;5.479448e-002
2.487827e+003;5.512829e-002
2.489755e+003;5.519816e-002
2.491684e+003;5.476332e-002
2.493613e+003;5.471453e-002
2.495541e+003;5.488903e-002
2.497470e+003;5.472419e-002
2.499398e+003;5.463148e-002
2.501327e+003;5.480256e-002
2.503255e+003;5.498423e-002
2.505184e+003;5.502733e-002
2.507112e+003;5.493219e-002
2.509041e+003;5.482320e-002
2.510969e+003;5.468770e-002
2.512898e+003;5.458572e-002
2.514827e+003;5.485978e-002
2.516755e+003;5.522577e-002
2.518684e+003;5.526806e-002
2.520612e+003;5.508368e-002
2.522541e+003;5.487775e-002
2.524469e+003;5.494543e-002
2.526398e+003;5.528662e-002
2.528326e+003;5.534909e-002
2.530255e+003;5.511283e-002
2.532184e+003;5.500199e-002
2.534112e+003;5.476422e-002
2.536041e+003;5.477200e-002
2.537969e+003;5.505302e-002
2.539898e+003;5.516922e-002
2.541826e+003;5.513600e-002
2.543755e+003;5.490237e-002
2.545683e+003;5.476659e-002
2.547612e+003;5.495814e-002
2.549541e+003;5.537724e-002
2.551469e+003;5.543589e-002
2.553397e+003;5.537837e-002
2.555326e+003;5.539979e-002
2.557255e+003;5.546127e-002
2.559183e+003;5.551582e-002
2.561112e+003;5.530069e-002
2.563040e+003;5.509334e-002
2.564969e+003;5.524601e-002
2.566897e+003;5.546210e-002
2.568826e+003;5.541805e-002
2.570754e+003;5.536870e-002
2.572683e+003;5.557181e-002
2.574612e+003;5.581488e-002
2.576540e+003;5.586756e-002
2.578469e+003;5.598733e-002
2.580397e+003;5.599758e-002
2.582326e+003;5.574406e-002
2.584254e+003;5.568250e-002
2.586183e+003;5.583670e-002
2.588111e+003;5.598763e-002
2.590040e+003;5.602107e-002
2.591969e+003;5.593799e-002
2.593897e+003;5.605707e-002
2.595826e+003;5.632365e-002
2.597754e+003;5.626714e-002
2.599683e+003;5.614575e-002
2.601611e+003;5.640981e-002
2.603540e+003;5.641498e-002
2.605468e+003;5.629230e-002
2.607397e+003;5.644558e-002
2.609325e+003;5.652955e-002
2.611254e+003;5.657340e-002
2.613183e+003;5.642472e-002
2.615111e+003;5.612927e-002
2.617040e+003;5.620254e-002
2.618968e+003;5.619364e-002
2.620897e+003;5.614537e-002
2.622825e+003;5.642309e-002
2.624754e+003;5.656540e-002
2.626682e+003;5.646834e-002
2.628611e+003;5.630369e-002
2.630540e+003;5.629064e-002
2.632468e+003;5.630131e-002
2.634396e+003;5.649668e-002
2.636325e+003;5.657257e-002
2.638254e+003;5.684196e-002
2.640182e+003;5.728096e-002
2.642111e+003;5.711869e-002
2.644039e+003;5.691576e-002
2.645968e+003;5.691599e-002
2.647896e+003;5.697586e-002
2.649825e+003;5.704074e-002
2.651753e+003;5.711412e-002
2.653682e+003;5.705332e-002
2.655611e+003;5.704886e-002
2.657539e+003;5.711639e-002
2.659468e+003;5.717508e-002
2.661396e+003;5.716620e-002
2.663325e+003;5.731003e-002
2.665253e+003;5.722142e-002
2.667182e+003;5.724316e-002
2.669110e+003;5.750573e-002
2.671039e+003;5.763254e-002
2.672968e+003;5.752567e-002
2.674896e+003;5.737723e-002
2.676825e+003;5.753244e-002
2.678753e+003;5.765335e-002
2.680682e+003;5.776314e-002
2.682610e+003;5.800751e-002
2.684539e+003;5.788934e-002
2.686467e+003;5.782434e-002
2.688396e+003;5.783948e-002
2.690324e+003;5.777283e-002
2.692253e+003;5.786530e-002
2.694182e+003;5.801399e-002
2.696110e+003;5.823668e-002
2.698039e+003;5.834941e-002
2.699967e+003;5.836067e-002
2.701896e+003;5.845634e-002
2.703824e+003;5.850183e-002
2.705753e+003;5.867375e-002
2.707681e+003;5.865957e-002
2.709610e+003;5.853652e-002
2.711539e+003;5.880743e-002
2.713467e+003;5.895788e-002
2.715396e+003;5.896433e-002
2.717324e+003;5.878216e-002
2.719253e+003;5.886529e-002
2.721181e+003;5.907844e-002
2.723110e+003;5.925196e-002
2.725038e+003;5.949626e-002
2.726967e+003;5.961537e-002
2.728896e+003;5.972222e-002
2.730824e+003;5.984226e-002
2.732752e+003;5.964448e-002
2.734681e+003;5.939690e-002
2.736610e+003;5.961624e-002
2.738538e+003;5.990517e-002
2.740467e+003;5.986744e-002
2.742395e+003;6.009154e-002
2.744324e+003;6.028987e-002
2.746252e+003;5.991833e-002
2.748181e+003;5.981770e-002
2.750109e+003;6.058881e-002
2.752038e+003;6.125395e-002
2.753967e+003;6.103368e-002
2.755895e+003;6.085441e-002
2.757824e+003;6.108242e-002
2.759752e+003;6.130615e-002
2.761681e+003;6.144075e-002
2.763609e+003;6.145579e-002
2.765538e+003;6.121744e-002
2.767466e+003;6.133832e-002
2.769395e+003;6.151141e-002
2.771323e+003;6.155741e-002
2.773252e+003;6.186876e-002
2.775181e+003;6.200415e-002
2.777109e+003;6.194194e-002
2.779038e+003;6.189670e-002
2.780966e+003;6.215277e-002
2.782895e+003;6.262868e-002
2.784823e+003;6.276852e-002
2.786752e+003;6.255650e-002
2.788680e+003;6.246758e-002
2.790609e+003;6.258134e-002
2.792538e+003;6.279111e-002
2.794466e+003;6.330493e-002
2.796395e+003;6.355157e-002
2.798323e+003;6.337290e-002
2.800252e+003;6.349641e-002
2.802180e+003;6.347601e-002
2.804109e+003;6.363273e-002
2.806037e+003;6.399499e-002
2.807966e+003;6.403024e-002
2.809895e+003;6.423002e-002
2.811823e+003;6.455818e-002
2.813751e+003;6.466656e-002
2.815680e+003;6.448137e-002
2.817609e+003;6.455152e-002
2.819537e+003;6.503861e-002
2.821466e+003;6.539935e-002
2.823394e+003;6.557160e-002
2.825323e+003;6.565847e-002
2.827251e+003;6.588133e-002
2.829180e+003;6.610759e-002
2.831108e+003;6.633783e-002
2.833037e+003;6.652297e-002
2.834966e+003;6.677669e-002
2.836894e+003;6.720242e-002
2.838823e+003;6.767367e-002
2.840751e+003;6.810543e-002
2.842680e+003;6.886633e-002
2.844608e+003;7.025340e-002
2.846537e+003;7.199249e-002
2.848465e+003;7.332359e-002
2.850394e+003;7.301611e-002
2.852323e+003;7.177500e-002
2.854251e+003;7.112493e-002
2.856180e+003;7.095425e-002
2.858108e+003;7.071012e-002
2.860037e+003;7.070525e-002
2.861965e+003;7.114569e-002
2.863894e+003;7.154799e-002
2.865822e+003;7.178852e-002
2.867751e+003;7.269243e-002
2.869679e+003;7.369111e-002
2.871608e+003;7.406406e-002
2.873536e+003;7.466663e-002
2.875465e+003;7.468706e-002
2.877394e+003;7.422645e-002
2.879322e+003;7.390133e-002
2.881251e+003;7.406099e-002
2.883179e+003;7.434314e-002
2.885108e+003;7.419427e-002
2.887036e+003;7.395707e-002
2.888965e+003;7.411432e-002
2.890893e+003;7.436414e-002
2.892822e+003;7.450049e-002
2.894750e+003;7.486182e-002
2.896679e+003;7.476298e-002
2.898608e+003;7.510923e-002
2.900536e+003;7.599857e-002
2.902465e+003;7.644624e-002
2.904393e+003;7.692538e-002
2.906322e+003;7.795709e-002
2.908250e+003;7.912529e-002
2.910179e+003;8.029856e-002
2.912107e+003;8.186658e-002
2.914036e+003;8.383138e-002
2.915965e+003;8.534419e-002
2.917893e+003;8.596994e-002
2.919822e+003;8.583394e-002
2.921750e+003;8.458687e-002
2.923679e+003;8.317383e-002
2.925607e+003;8.210200e-002
2.927536e+003;8.151737e-002
2.929464e+003;8.149382e-002
2.931393e+003;8.123101e-002
2.933322e+003;8.069605e-002
2.935250e+003;8.008502e-002
2.937178e+003;7.972534e-002
2.939107e+003;7.939576e-002
2.941036e+003;7.903653e-002
2.942964e+003;7.863896e-002
2.944893e+003;7.838881e-002
2.946821e+003;7.842814e-002
2.948750e+003;7.858662e-002
2.950678e+003;7.891718e-002
2.952607e+003;7.948177e-002
2.954535e+003;7.975230e-002
2.956464e+003;7.977825e-002
2.958393e+003;8.004224e-002
2.960321e+003;8.024642e-002
2.962250e+003;7.992767e-002
2.964178e+003;7.951809e-002
2.966107e+003;7.935443e-002
2.968035e+003;7.865837e-002
2.969964e+003;7.748949e-002
2.971892e+003;7.679298e-002
2.973821e+003;7.661562e-002
2.975750e+003;7.596858e-002
2.977678e+003;7.518613e-002
2.979607e+003;7.441318e-002
2.981535e+003;7.361044e-002
2.983464e+003;7.275472e-002
2.985392e+003;7.225589e-002
2.987321e+003;7.203704e-002
2.989249e+003;7.167947e-002
2.991178e+003;7.126858e-002
2.993106e+003;7.063896e-002
2.995035e+003;7.028932e-002
2.996964e+003;6.999313e-002
2.998892e+003;6.984277e-002
3.000821e+003;6.992038e-002
3.002749e+003;6.973826e-002
3.004678e+003;6.946068e-002
3.006606e+003;6.953114e-002
3.008535e+003;7.019899e-002
3.010463e+003;7.038446e-002
3.012392e+003;7.035041e-002
3.014321e+003;7.048254e-002
3.016249e+003;7.042938e-002
3.018177e+003;7.062571e-002
3.020106e+003;7.105847e-002
3.022035e+003;7.134441e-002
3.023963e+003;7.135367e-002
3.025892e+003;7.131552e-002
3.027820e+003;7.177945e-002
3.029749e+003;7.239652e-002
3.031677e+003;7.258398e-002
3.033606e+003;7.278171e-002
3.035534e+003;7.330005e-002
3.037463e+003;7.354917e-002
3.039392e+003;7.363348e-002
3.041320e+003;7.388640e-002
3.043249e+003;7.392109e-002
3.045177e+003;7.398673e-002
3.047106e+003;7.418204e-002
3.049034e+003;7.448035e-002
3.050963e+003;7.482300e-002
3.052891e+003;7.502392e-002
3.054820e+003;7.532644e-002
3.056749e+003;7.526520e-002
3.058677e+003;7.498521e-002
3.060606e+003;7.507303e-002
3.062534e+003;7.519893e-002
3.064463e+003;7.563023e-002
3.066391e+003;7.601397e-002
3.068320e+003;7.574296e-002
3.070248e+003;7.570675e-002
3.072177e+003;7.584064e-002
3.074105e+003;7.549854e-002
3.076034e+003;7.523136e-002
3.077963e+003;7.507835e-002
3.079891e+003;7.489748e-002
3.081820e+003;7.472905e-002
3.083748e+003;7.441113e-002
3.085677e+003;7.413825e-002
3.087605e+003;7.418475e-002
3.089534e+003;7.438325e-002
3.091462e+003;7.416817e-002
3.093391e+003;7.379431e-002
3.095320e+003;7.363207e-002
3.097248e+003;7.346079e-002
3.099177e+003;7.333661e-002
3.101105e+003;7.357601e-002
3.103034e+003;7.371008e-002
3.104962e+003;7.325765e-002
3.106891e+003;7.281525e-002
3.108819e+003;7.311627e-002
3.110748e+003;7.367266e-002
3.112677e+003;7.372724e-002
3.114605e+003;7.354387e-002
3.116533e+003;7.363721e-002
3.118462e+003;7.344976e-002
3.120391e+003;7.315364e-002
3.122319e+003;7.319140e-002
3.124248e+003;7.369390e-002
3.126176e+003;7.422260e-002
3.128105e+003;7.473495e-002
3.130033e+003;7.517052e-002
3.131962e+003;7.501364e-002
3.133890e+003;7.512802e-002
3.135819e+003;7.546416e-002
3.137748e+003;7.571641e-002
3.139676e+003;7.609142e-002
3.141605e+003;7.626575e-002
3.143533e+003;7.630809e-002
3.145462e+003;7.661701e-002
3.147390e+003;7.714537e-002
3.149319e+003;7.759422e-002
3.151247e+003;7.788637e-002
3.153176e+003;7.852881e-002
3.155104e+003;7.908081e-002
3.157033e+003;7.907914e-002
3.158962e+003;7.937201e-002
3.160890e+003;7.986705e-002
3.162819e+003;8.015467e-002
3.164747e+003;8.038013e-002
3.166676e+003;8.070364e-002
3.168604e+003;8.121782e-002
3.170533e+003;8.167758e-002
3.172461e+003;8.241691e-002
3.174390e+003;8.324794e-002
3.176319e+003;8.359534e-002
3.178247e+003;8.377074e-002
3.180176e+003;8.414280e-002
3.182104e+003;8.460506e-002
3.184033e+003;8.478885e-002
3.185961e+003;8.517101e-002
3.187890e+003;8.571739e-002
3.189818e+003;8.635330e-002
3.191747e+003;8.658835e-002
3.193676e+003;8.660740e-002
3.195604e+003;8.702861e-002
3.197532e+003;8.757665e-002
3.199461e+003;8.789912e-002
3.201390e+003;8.821289e-002
3.203318e+003;8.865432e-002
3.205247e+003;8.867098e-002
3.207175e+003;8.889358e-002
3.209104e+003;8.939952e-002
3.211032e+003;8.948188e-002
3.212961e+003;8.990736e-002
3.214889e+003;9.043640e-002
3.216818e+003;9.069069e-002
3.218747e+003;9.107955e-002
3.220675e+003;9.163326e-002
3.222604e+003;9.174837e-002
3.224532e+003;9.188022e-002
3.226461e+003;9.187408e-002
3.228389e+003;9.204233e-002
3.230318e+003;9.255201e-002
3.232246e+003;9.280741e-002
3.234175e+003;9.291820e-002
3.236104e+003;9.337101e-002
3.238032e+003;9.390865e-002
3.239961e+003;9.461967e-002
3.241889e+003;9.545456e-002
3.243818e+003;9.574295e-002
3.245746e+003;9.594329e-002
3.247675e+003;9.636456e-002
3.249603e+003;9.662333e-002
3.251532e+003;9.662730e-002
3.253460e+003;9.700678e-002
3.255389e+003;9.792510e-002
3.257318e+003;9.889105e-002
3.259246e+003;9.965142e-002
3.261175e+003;1.001779e-001
3.263103e+003;1.006754e-001
3.265032e+003;1.009612e-001
3.266960e+003;1.013227e-001
3.268889e+003;1.014893e-001
3.270817e+003;1.014390e-001
3.272746e+003;1.017275e-001
3.274675e+003;1.018825e-001
3.276603e+003;1.020929e-001
3.278531e+003;1.022443e-001
3.280460e+003;1.021568e-001
3.282389e+003;1.022337e-001
3.284317e+003;1.021351e-001
3.286246e+003;1.018527e-001
3.288174e+003;1.017638e-001
3.290103e+003;1.017151e-001
3.292031e+003;1.013000e-001
3.293960e+003;1.007428e-001
3.295888e+003;1.006342e-001
3.297817e+003;1.002572e-001
3.299746e+003;9.992789e-002
3.301674e+003;9.982476e-002
3.303603e+003;9.949435e-002
3.305531e+003;9.888868e-002
3.307460e+003;9.831476e-002
3.309388e+003;9.766605e-002
3.311317e+003;9.682900e-002
3.313245e+003;9.640195e-002
3.315174e+003;9.617196e-002
3.317103e+003;9.620892e-002
3.319031e+003;9.588403e-002
3.320960e+003;9.495685e-002
3.322888e+003;9.433886e-002
3.324817e+003;9.416033e-002
3.326745e+003;9.313022e-002
3.328674e+003;9.190589e-002
3.330602e+003;9.144377e-002
3.332531e+003;9.137637e-002
3.334459e+003;9.140283e-002
3.336388e+003;9.098234e-002
3.338317e+003;8.993226e-002
3.340245e+003;8.966098e-002
3.342174e+003;8.913440e-002
3.344102e+003;8.797884e-002
3.346031e+003;8.710846e-002
3.347959e+003;8.694793e-002
3.349888e+003;8.648430e-002
3.351816e+003;8.559611e-002
3.353745e+003;8.500168e-002
3.355674e+003;8.469336e-002
3.357602e+003;8.405171e-002
3.359531e+003;8.324028e-002
3.361459e+003;8.249727e-002
3.363388e+003;8.203964e-002
3.365316e+003;8.203648e-002
3.367245e+003;8.171053e-002
3.369173e+003;8.104265e-002
3.371102e+003;8.061048e-002
3.373031e+003;8.079889e-002
3.374959e+003;8.063298e-002
3.376887e+003;7.968426e-002
3.378816e+003;7.900334e-002
3.380745e+003;7.839857e-002
3.382673e+003;7.737587e-002
3.384602e+003;7.726565e-002
3.386530e+003;7.725076e-002
3.388459e+003;7.631331e-002
3.390387e+003;7.566999e-002
3.392316e+003;7.534516e-002
3.394244e+003;7.461604e-002
3.396173e+003;7.411829e-002
3.398102e+003;7.429187e-002
3.400030e+003;7.377070e-002
3.401959e+003;7.312956e-002
3.403887e+003;7.276396e-002
3.405816e+003;7.246678e-002
3.407744e+003;7.240172e-002
3.409673e+003;7.197732e-002
3.411601e+003;7.089097e-002
3.413530e+003;7.010238e-002
3.415458e+003;7.019825e-002
3.417387e+003;7.039475e-002
3.419316e+003;7.002618e-002
3.421244e+003;6.949194e-002
3.423173e+003;6.896353e-002
3.425101e+003;6.854934e-002
3.427030e+003;6.826650e-002
3.428958e+003;6.762430e-002
3.430887e+003;6.722625e-002
3.432815e+003;6.696897e-002
3.434744e+003;6.640381e-002
3.436673e+003;6.583637e-002
3.438601e+003;6.532493e-002
3.440530e+003;6.465330e-002
3.442458e+003;6.420444e-002
3.444387e+003;6.393659e-002
3.446315e+003;6.385226e-002
3.448244e+003;6.408811e-002
3.450172e+003;6.376825e-002
3.452101e+003;6.313867e-002
3.454030e+003;6.240032e-002
3.455958e+003;6.202453e-002
3.457886e+003;6.193151e-002
3.459815e+003;6.159063e-002
3.461744e+003;6.119299e-002
3.463672e+003;6.126837e-002
3.465601e+003;6.128123e-002
3.467529e+003;6.135564e-002
3.469458e+003;6.084263e-002
3.471386e+003;5.991673e-002
3.473315e+003;5.985462e-002
3.475243e+003;5.968709e-002
3.477172e+003;5.938596e-002
3.479101e+003;5.886222e-002
3.481029e+003;5.859434e-002
3.482958e+003;5.859378e-002
3.484886e+003;5.811522e-002
3.486815e+003;5.758393e-002
3.488743e+003;5.746209e-002
3.490672e+003;5.759690e-002
3.492600e+003;5.754595e-002
3.494529e+003;5.688177e-002
3.496458e+003;5.635216e-002
3.498386e+003;5.612497e-002
3.500315e+003;5.583127e-002
3.502243e+003;5.538993e-002
3.504172e+003;5.532636e-002
3.506100e+003;5.468931e-002
3.508029e+003;5.379675e-002
3.509957e+003;5.388306e-002
3.511886e+003;5.441371e-002
3.513814e+003;5.418396e-002
3.515743e+003;5.382473e-002
3.517672e+003;5.375929e-002
3.519600e+003;5.330821e-002
3.521529e+003;5.278770e-002
3.523457e+003;5.237631e-002
3.525386e+003;5.211241e-002
3.527314e+003;5.212115e-002
3.529243e+003;5.211629e-002
3.531171e+003;5.137935e-002
3.533100e+003;5.090364e-002
3.535029e+003;5.081778e-002
3.536957e+003;5.075633e-002
3.538885e+003;5.050569e-002
3.540814e+003;5.028890e-002
3.542743e+003;5.042210e-002
3.544671e+003;5.039174e-002
3.546600e+003;4.977604e-002
3.548528e+003;4.960678e-002
3.550457e+003;4.928568e-002
3.552385e+003;4.850954e-002
3.554314e+003;4.831689e-002
3.556242e+003;4.826627e-002
3.558171e+003;4.780410e-002
3.560100e+003;4.733743e-002
3.562028e+003;4.707997e-002
3.563957e+003;4.658848e-002
3.565885e+003;4.616420e-002
3.567814e+003;4.612296e-002
3.569742e+003;4.629032e-002
3.571671e+003;4.595999e-002
3.573599e+003;4.596724e-002
3.575528e+003;4.581165e-002
3.577457e+003;4.564191e-002
3.579385e+003;4.519384e-002
3.581314e+003;4.439032e-002
3.583242e+003;4.413879e-002
3.585171e+003;4.351284e-002
3.587099e+003;4.274178e-002
3.589028e+003;4.299504e-002
3.590956e+003;4.352185e-002
3.592885e+003;4.324255e-002
3.594813e+003;4.310619e-002
3.596742e+003;4.307809e-002
3.598671e+003;4.297978e-002
3.600599e+003;4.263218e-002
3.602528e+003;4.186568e-002
3.604456e+003;4.174496e-002
3.606385e+003;4.149207e-002
3.608313e+003;4.092336e-002
3.610242e+003;4.110093e-002
3.612170e+003;4.092682e-002
3.614099e+003;4.003540e-002
3.616028e+003;3.979207e-002
3.617956e+003;3.965058e-002
3.619885e+003;3.957127e-002
3.621813e+003;3.967962e-002
3.623742e+003;3.948943e-002
3.625670e+003;3.928761e-002
3.627599e+003;3.762428e-002
3.629527e+003;3.687745e-002
3.631456e+003;3.802945e-002
3.633385e+003;3.824096e-002
3.635313e+003;3.827440e-002
3.637241e+003;3.882319e-002
3.639170e+003;3.874128e-002
3.641099e+003;3.820547e-002
3.643027e+003;3.800847e-002
3.644956e+003;3.781326e-002
3.646884e+003;3.649808e-002
3.648813e+003;3.490161e-002
3.650741e+003;3.539795e-002
3.652670e+003;3.674845e-002
3.654598e+003;3.632445e-002
3.656527e+003;3.591378e-002
3.658456e+003;3.606274e-002
3.660384e+003;3.595431e-002
3.662313e+003;3.600708e-002
3.664241e+003;3.595708e-002
3.666170e+003;3.558970e-002
3.668098e+003;3.426359e-002
3.670027e+003;3.293268e-002
3.671955e+003;3.296829e-002
3.673884e+003;3.243466e-002
3.675813e+003;3.242352e-002
3.677741e+003;3.336744e-002
3.679669e+003;3.392941e-002
3.681598e+003;3.436718e-002
3.683527e+003;3.397653e-002
3.685455e+003;3.298123e-002
3.687384e+003;3.169017e-002
3.689312e+003;3.189280e-002
3.691241e+003;3.291749e-002
3.693169e+003;3.390416e-002
3.695098e+003;3.408446e-002
3.697026e+003;3.365776e-002
3.698955e+003;3.310737e-002
3.700884e+003;3.273613e-002
3.702812e+003;3.280502e-002
3.704741e+003;3.307250e-002
3.706669e+003;3.290048e-002
3.708598e+003;3.172627e-002
3.710526e+003;3.134105e-002
3.712455e+003;3.171818e-002
3.714383e+003;3.210153e-002
3.716312e+003;3.223088e-002
3.718240e+003;3.227866e-002
3.720169e+003;3.214984e-002
3.722098e+003;3.228252e-002
3.724026e+003;3.205394e-002
3.725955e+003;3.178866e-002
3.727883e+003;3.224529e-002
3.729812e+003;3.195867e-002
3.731740e+003;3.074650e-002
3.733669e+003;3.020770e-002
3.735597e+003;3.030927e-002
3.737526e+003;3.117242e-002
3.739455e+003;3.223873e-002
3.741383e+003;3.210517e-002
3.743312e+003;2.995380e-002
3.745240e+003;2.965503e-002
3.747169e+003;3.055861e-002
3.749097e+003;2.994085e-002
3.751026e+003;2.955756e-002
3.752954e+003;3.044494e-002
3.754883e+003;3.172060e-002
3.756812e+003;3.191652e-002
3.758740e+003;3.194130e-002
3.760668e+003;3.216386e-002
3.762597e+003;3.227209e-002
3.764526e+003;3.164633e-002
3.766454e+003;3.139052e-002
3.768383e+003;3.113365e-002
3.770311e+003;3.146693e-002
3.772240e+003;3.179386e-002
3.774168e+003;3.159476e-002
3.776097e+003;3.154780e-002
3.778025e+003;3.171259e-002
3.779954e+003;3.170407e-002
3.781883e+003;3.187861e-002
3.783811e+003;3.180374e-002
3.785740e+003;3.164897e-002
3.787668e+003;3.192957e-002
3.789597e+003;3.210502e-002
3.791525e+003;3.204812e-002
3.793454e+003;3.165203e-002
3.795382e+003;3.101645e-002
3.797311e+003;3.090760e-002
3.799240e+003;3.041228e-002
3.801168e+003;3.022834e-002
3.803097e+003;3.144915e-002
3.805025e+003;3.154694e-002
3.806954e+003;3.106285e-002
3.808882e+003;3.158582e-002
3.810811e+003;3.185558e-002
3.812739e+003;3.133802e-002
3.814668e+003;3.023005e-002
3.816596e+003;3.054510e-002
3.818525e+003;3.105292e-002
3.820454e+003;3.052719e-002
3.822382e+003;3.115195e-002
3.824311e+003;3.204313e-002
3.826239e+003;3.188182e-002
3.828168e+003;3.185768e-002
3.830096e+003;3.203364e-002
3.832025e+003;3.198435e-002
3.833953e+003;3.153298e-002
3.835882e+003;3.005978e-002
3.837811e+003;2.956419e-002
3.839739e+003;3.074874e-002
3.841667e+003;3.179718e-002
3.843596e+003;3.245540e-002
3.845525e+003;3.225571e-002
3.847453e+003;3.205669e-002
3.849382e+003;3.141171e-002
3.851310e+003;2.960569e-002
3.853239e+003;2.824278e-002
3.855167e+003;2.948156e-002
3.857096e+003;3.136819e-002
3.859024e+003;3.200479e-002
3.860953e+003;3.215833e-002
3.862882e+003;3.225892e-002
3.864810e+003;3.210264e-002
3.866739e+003;3.215919e-002
3.868667e+003;3.107549e-002
3.870596e+003;3.069351e-002
3.872524e+003;3.164715e-002
3.874453e+003;3.249614e-002
3.876381e+003;3.274535e-002
3.878310e+003;3.174531e-002
3.880239e+003;3.130059e-002
3.882167e+003;3.151901e-002
3.884096e+003;3.049193e-002
3.886024e+003;3.091774e-002
3.887953e+003;3.217467e-002
3.889881e+003;3.169541e-002
3.891810e+003;3.175051e-002
3.893738e+003;3.271141e-002
3.895667e+003;3.300471e-002
3.897595e+003;3.299667e-002
3.899524e+003;3.275414e-002
3.901453e+003;3.176898e-002
3.903381e+003;3.115245e-002
3.905310e+003;3.194476e-002
3.907238e+003;3.273092e-002
3.909167e+003;3.293658e-002
3.911095e+003;3.305745e-002
3.913024e+003;3.342201e-002
3.914952e+003;3.374416e-002
3.916881e+003;3.320833e-002
3.918810e+003;3.282332e-002
3.920738e+003;3.292911e-002
3.922667e+003;3.302767e-002
3.924595e+003;3.251878e-002
3.926524e+003;3.263861e-002
3.928452e+003;3.272259e-002
3.930381e+003;3.247518e-002
3.932309e+003;3.268898e-002
3.934238e+003;3.291159e-002
3.936167e+003;3.291474e-002
3.938095e+003;3.309138e-002
3.940023e+003;3.296207e-002
3.941952e+003;3.219590e-002
3.943881e+003;3.138375e-002
3.945809e+003;3.124807e-002
3.947738e+003;3.209607e-002
3.949666e+003;3.314531e-002
3.951595e+003;3.323676e-002
3.953523e+003;3.253239e-002
3.955452e+003;3.237839e-002
3.957380e+003;3.227013e-002
3.959309e+003;3.209325e-002
3.961238e+003;3.201406e-002
3.963166e+003;3.230443e-002
3.965095e+003;3.238485e-002
3.967023e+003;3.242048e-002
3.968952e+003;3.317106e-002
3.970880e+003;3.328677e-002
3.972809e+003;3.289619e-002
3.974737e+003;3.256039e-002
3.976666e+003;3.233088e-002
3.978594e+003;3.170614e-002
3.980523e+003;3.135373e-002
3.982452e+003;3.212764e-002
3.984380e+003;3.269241e-002
3.986309e+003;3.243184e-002
3.988237e+003;3.199666e-002
3.990166e+003;3.239110e-002
3.992094e+003;3.254378e-002
3.994023e+003;3.217314e-002
3.995951e+003;3.207203e-002
3.997880e+003;3.200129e-002
3.999809e+003;3.157563e-002
4.001737e+003;0.000000e+000
