3.992094e+002;0.000000e+000
4.011380e+002;0.000000e+000
4.030665e+002;0.000000e+000
4.049951e+002;0.000000e+000
4.069236e+002;0.000000e+000
4.088522e+002;0.000000e+000
4.107807e+002;0.000000e+000
4.127093e+002;0.000000e+000
4.146378e+002;0.000000e+000
4.165664e+002;0.000000e+000
4.184949e+002;0.000000e+000
4.204235e+002;0.000000e+000
4.223520e+002;0.000000e+000
4.242806e+002;0.000000e+000
4.262091e+002;0.000000e+000
4.281377e+002;0.000000e+000
4.300662e+002;0.000000e+000
4.319948e+002;0.000000e+000
4.339233e+002;0.000000e+000
4.358519e+002;0.000000e+000
4.377804e+002;0.000000e+000
4.397090e+002;0.000000e+000
4.416375e+002;0.000000e+000
4.435660e+002;0.000000e+000
4.454946e+002;0.000000e+000
4.474232e+002;0.000000e+000
4.493517e+002;0.000000e+000
4.512802e+002;0.000000e+000
4.532088e+002;0.000000e+000
4.551373e+002;0.000000e+000
4.570659e+002;0.000000e+000
4.589944e+002;0.000000e+000
4.609230e+002;0.000000e+000
4.628515e+002;0.000000e+000
4.647801e+002;0.000000e+000
4.667086e+002;0.000000e+000
4.686372e+002;0.000000e+000
4.705657e+002;0.000000e+000
4.724943e+002;0.000000e+000
4.744228e+002;0.000000e+000
4.763513e+002;0.000000e+000
4.782799e+002;0.000000e+000
4.802085e+002;0.000000e+000
4.821370e+002;0.000000e+000
4.840656e+002;0.000000e+000
4.859941e+002;0.000000e+000
4.879226e+002;0.000000e+000
4.898512e+002;0.000000e+000
4.917798e+002;0.000000e+000
4.937083e+002;0.000000e+000
4.956368e+002;0.000000e+000
4.975654e+002;0.000000e+000
4.994939e+002;0.000000e+000
5.014225e+002;0.000000e+000
5.033510e+002;0.000000e+000
5.052796e+002;0.000000e+000
5.072081e+002;0.000000e+000
5.091367e+002;0.000000e+000
5.110652e+002;0.000000e+000
5.129938e+002;0.000000e+000
5.149223e+002;0.000000e+000
5.168509e+002;0.000000e+000
5.187794e+002;0.000000e+000
5.207079e+002;0.000000e+000
5.226365e+002;0.000000e+000
5.245651e+002;0.000000e+000
5.264936e+002;0.000000e+000
5.284222e+002;0.000000e+000
5.303507e+002;0.000000e+000
5.322792e+002;0.000000e+000
5.342078e+002;0.000000e+000
5.361364e+002;0.000000e+000
5.380649e+002;0.000000e+000
5.399935e+002;0.000000e+000
5.419220e+002;0.000000e+000
5.438505e+002;0.000000e+000
5.457791e+002;0.000000e+000
5.477076e+002;0.000000e+000
5.496362e+002;0.000000e+000
5.515648e+002;0.000000e+000
5.534933e+002;0.000000e+000
5.554218e+002;0.000000e+000
5.573504e+002;0.000000e+000
5.592789e+002;0.000000e+000
5.612075e+002;0.000000e+000
5.631360e+002;0.000000e+000
5.650646e+002;0.000000e+000
5.669931e+002;0.000000e+000
5.689217e+002;0.000000e+000
5.708502e+002;0.000000e+000
5.727787e+002;0.000000e+000
5.747073e+002;0.000000e+000
5.766359e+002;0.000000e+000
5.785644e+002;0.000000e+000
5.804930e+002;0.000000e+000
5.824215e+002;0.000000e+000
5.843500e+002;0.000000e+000
5.862786e+002;0.000000e+000
5.882072e+002;0.000000e+000
5.901357e+002;0.000000e+000
5.920643e+002;0.000000e+000
5.939928e+002;0.000000e+000
5.959213e+002;0.000000e+000
5.978499e+002;0.000000e+000
5.997784e+002;1.832505e-001
6.017070e+002;1.857466e-001
6.036355e+002;1.825988e-001
6.055641e+002;1.773296e-001
6.074926e+002;1.792659e-001
6.094211e+002;1.825111e-001
6.113497e+002;1.806472e-001
6.132783e+002;1.756808e-001
6.152068e+002;1.758094e-001
6.171354e+002;1.790065e-001
6.190639e+002;1.769459e-001
6.209924e+002;1.763176e-001
6.229210e+002;1.812179e-001
6.248495e+002;1.830208e-001
6.267781e+002;1.802059e-001
6.287067e+002;1.805754e-001
6.306352e+002;1.813731e-001
6.325637e+002;1.771692e-001
6.344923e+002;1.759928e-001
6.364208e+002;1.759561e-001
6.383494e+002;1.732246e-001
6.402780e+002;1.717747e-001
6.422065e+002;1.721109e-001
6.441350e+002;1.728983e-001
6.460636e+002;1.705831e-001
6.479921e+002;1.694595e-001
6.499207e+002;1.704309e-001
6.518492e+002;1.696318e-001
6.537778e+002;1.694280e-001
6.557063e+002;1.694194e-001
6.576349e+002;1.690050e-001
6.595634e+002;1.678886e-001
6.614919e+002;1.674075e-001
6.634205e+002;1.655785e-001
6.653491e+002;1.629610e-001
6.672776e+002;1.627594e-001
6.692062e+002;1.630866e-001
6.711347e+002;1.618642e-001
6.730632e+002;1.601293e-001
6.749918e+002;1.571888e-001
6.769203e+002;1.566058e-001
6.788489e+002;1.569369e-001
6.807775e+002;1.559367e-001
6.827060e+002;1.543765e-001
6.846345e+002;1.537023e-001
6.865631e+002;1.540222e-001
6.884916e+002;1.542135e-001
6.904202e+002;1.548385e-001
6.923488e+002;1.545411e-001
6.942773e+002;1.535487e-001
6.962058e+002;1.525615e-001
6.981344e+002;1.515047e-001
7.000629e+002;1.502219e-001
7.019915e+002;1.492319e-001
7.039200e+002;1.476354e-001
7.058486e+002;1.454962e-001
7.077771e+002;1.438063e-001
7.097057e+002;1.413726e-001
7.116342e+002;1.379940e-001
7.135627e+002;1.362848e-001
7.154913e+002;1.361689e-001
7.174199e+002;1.363748e-001
7.193484e+002;1.361074e-001
7.212770e+002;1.352731e-001
7.232055e+002;1.338162e-001
7.251340e+002;1.326736e-001
7.270626e+002;1.320574e-001
7.289911e+002;1.318122e-001
7.309197e+002;1.317833e-001
7.328483e+002;1.314303e-001
7.347768e+002;1.304382e-001
7.367053e+002;1.289511e-001
7.386339e+002;1.274843e-001
7.405624e+002;1.275306e-001
7.424910e+002;1.281383e-001
7.444196e+002;1.278537e-001
7.463481e+002;1.270529e-001
7.482766e+002;1.258301e-001
7.502052e+002;1.239547e-001
7.521337e+002;1.231668e-001
7.540623e+002;1.225923e-001
7.559908e+002;1.208135e-001
7.579194e+002;1.199798e-001
7.598479e+002;1.198700e-001
7.617765e+002;1.187464e-001
7.637050e+002;1.173982e-001
7.656335e+002;1.168582e-001
7.675621e+002;1.164936e-001
7.694907e+002;1.159849e-001
7.714192e+002;1.153128e-001
7.733478e+002;1.143208e-001
7.752763e+002;1.128811e-001
7.772048e+002;1.116185e-001
7.791334e+002;1.113019e-001
7.810620e+002;1.112699e-001
7.829905e+002;1.107422e-001
7.849191e+002;1.099402e-001
7.868476e+002;1.092757e-001
7.887761e+002;1.088585e-001
7.907047e+002;1.083195e-001
7.926332e+002;1.075323e-001
7.945618e+002;1.067372e-001
7.964903e+002;1.062061e-001
7.984189e+002;1.062117e-001
8.003474e+002;1.056565e-001
8.022759e+002;1.047717e-001
8.042045e+002;1.045680e-001
8.061331e+002;1.044254e-001
8.080616e+002;1.044100e-001
8.099902e+002;1.041402e-001
8.119187e+002;1.032914e-001
8.138472e+002;1.026165e-001
8.157758e+002;1.022346e-001
8.177043e+002;1.024279e-001
8.196329e+002;1.028091e-001
8.215615e+002;1.028164e-001
8.234900e+002;1.028745e-001
8.254185e+002;1.026679e-001
8.273471e+002;1.022800e-001
8.292756e+002;1.023061e-001
8.312042e+002;1.025975e-001
8.331328e+002;1.019842e-001
8.350613e+002;1.011226e-001
8.369898e+002;1.006032e-001
8.389184e+002;9.980571e-002
8.408469e+002;9.908361e-002
8.427755e+002;9.851189e-002
8.447040e+002;9.816005e-002
8.466326e+002;9.786151e-002
8.485611e+002;9.790135e-002
8.504897e+002;9.753545e-002
8.524182e+002;9.669565e-002
8.543467e+002;9.619921e-002
8.562753e+002;9.567347e-002
8.582039e+002;9.502200e-002
8.601324e+002;9.419399e-002
8.620610e+002;9.370953e-002
8.639895e+002;9.350734e-002
8.659180e+002;9.352789e-002
8.678466e+002;9.345951e-002
8.697751e+002;9.314455e-002
8.717037e+002;9.291837e-002
8.736323e+002;9.289752e-002
8.755608e+002;9.289502e-002
8.774893e+002;9.297328e-002
8.794179e+002;9.318142e-002
8.813464e+002;9.348609e-002
8.832750e+002;9.342623e-002
8.852036e+002;9.291229e-002
8.871321e+002;9.290154e-002
8.890606e+002;9.306740e-002
8.909892e+002;9.312303e-002
8.929177e+002;9.316011e-002
8.948463e+002;9.285168e-002
8.967748e+002;9.255590e-002
8.987034e+002;9.223905e-002
9.006319e+002;9.220492e-002
9.025605e+002;9.243438e-002
9.044890e+002;9.242885e-002
9.064175e+002;9.268767e-002
9.083461e+002;9.279642e-002
9.102747e+002;9.296056e-002
9.122032e+002;9.358296e-002
9.141318e+002;9.347463e-002
9.160603e+002;9.309380e-002
9.179888e+002;9.376208e-002
9.199174e+002;9.465786e-002
9.218459e+002;9.442130e-002
9.237745e+002;9.396286e-002
9.257031e+002;9.393465e-002
9.276316e+002;9.387940e-002
9.295601e+002;9.426516e-002
9.314887e+002;9.470875e-002
9.334172e+002;9.461666e-002
9.353458e+002;9.447681e-002
9.372744e+002;9.406777e-002
9.392029e+002;9.372051e-002
9.411314e+002;9.338046e-002
9.430600e+002;9.303423e-002
9.449885e+002;9.279063e-002
9.469171e+002;9.278087e-002
9.488456e+002;9.288874e-002
9.507742e+002;9.303275e-002
9.527027e+002;9.310382e-002
9.546313e+002;9.340951e-002
9.565598e+002;9.358206e-002
9.584883e+002;9.347472e-002
9.604169e+002;9.361289e-002
9.623455e+002;9.423433e-002
9.642740e+002;9.460591e-002
9.662026e+002;9.455507e-002
9.681311e+002;9.435652e-002
9.700596e+002;9.459998e-002
9.719882e+002;9.512400e-002
9.739167e+002;9.569924e-002
9.758453e+002;9.618742e-002
9.777739e+002;9.664775e-002
9.797024e+002;9.712175e-002
9.816309e+002;9.734450e-002
9.835595e+002;9.735420e-002
9.854880e+002;9.768704e-002
9.874166e+002;9.813567e-002
9.893452e+002;9.850628e-002
9.912737e+002;9.870478e-002
9.932022e+002;9.906334e-002
9.951307e+002;9.969581e-002
9.970593e+002;1.002878e-001
9.989879e+002;1.009315e-001
1.000916e+003;1.017310e-001
1.002845e+003;1.025270e-001
1.004773e+003;1.033849e-001
1.006702e+003;1.042214e-001
1.008631e+003;1.051788e-001
1.010559e+003;1.063743e-001
1.012488e+003;1.076570e-001
1.014416e+003;1.088828e-001
1.016345e+003;1.095582e-001
1.018273e+003;1.101779e-001
1.020202e+003;1.105538e-001
1.022130e+003;1.108147e-001
1.024059e+003;1.113742e-001
1.025988e+003;1.119639e-001
1.027916e+003;1.128755e-001
1.029845e+003;1.136410e-001
1.031773e+003;1.147476e-001
1.033702e+003;1.164312e-001
1.035630e+003;1.183498e-001
1.037559e+003;1.201949e-001
1.039487e+003;1.214177e-001
1.041416e+003;1.218355e-001
1.043344e+003;1.216295e-001
1.045273e+003;1.205713e-001
1.047202e+003;1.196306e-001
1.049130e+003;1.191515e-001
1.051059e+003;1.186829e-001
1.052987e+003;1.182792e-001
1.054916e+003;1.185889e-001
1.056844e+003;1.188619e-001
1.058773e+003;1.184738e-001
1.060701e+003;1.182351e-001
1.062630e+003;1.186907e-001
1.064558e+003;1.196104e-001
1.066487e+003;1.197263e-001
1.068416e+003;1.195497e-001
1.070344e+003;1.196913e-001
1.072273e+003;1.198663e-001
1.074201e+003;1.197369e-001
1.076130e+003;1.194603e-001
1.078058e+003;1.195775e-001
1.079987e+003;1.198622e-001
1.081915e+003;1.198127e-001
1.083844e+003;1.192064e-001
1.085773e+003;1.183352e-001
1.087701e+003;1.174542e-001
1.089630e+003;1.167689e-001
1.091558e+003;1.164761e-001
1.093487e+003;1.163324e-001
1.095415e+003;1.161223e-001
1.097344e+003;1.158554e-001
1.099272e+003;1.158647e-001
1.101201e+003;1.159506e-001
1.103129e+003;1.161179e-001
1.105058e+003;1.165943e-001
1.106987e+003;1.167658e-001
1.108915e+003;1.167562e-001
1.110844e+003;1.169357e-001
1.112772e+003;1.168407e-001
1.114701e+003;1.168553e-001
1.116629e+003;1.175826e-001
1.118558e+003;1.184826e-001
1.120486e+003;1.191968e-001
1.122415e+003;1.199086e-001
1.124344e+003;1.203185e-001
1.126272e+003;1.205628e-001
1.128201e+003;1.207801e-001
1.130129e+003;1.209432e-001
1.132058e+003;1.208919e-001
1.133986e+003;1.204734e-001
1.135915e+003;1.196666e-001
1.137843e+003;1.193730e-001
1.139772e+003;1.194320e-001
1.141700e+003;1.195378e-001
1.143629e+003;1.194232e-001
1.145557e+003;1.195767e-001
1.147486e+003;1.203714e-001
1.149415e+003;1.211040e-001
1.151343e+003;1.217595e-001
1.153272e+003;1.225840e-001
1.155200e+003;1.231259e-001
1.157129e+003;1.238095e-001
1.159057e+003;1.248959e-001
1.160986e+003;1.259045e-001
1.162914e+003;1.264990e-001
1.164843e+003;1.270774e-001
1.166771e+003;1.276815e-001
1.168700e+003;1.284642e-001
1.170629e+003;1.292261e-001
1.172557e+003;1.297341e-001
1.174486e+003;1.303399e-001
1.176414e+003;1.306690e-001
1.178343e+003;1.311268e-001
1.180271e+003;1.313782e-001
1.182200e+003;1.317108e-001
1.184128e+003;1.322835e-001
1.186057e+003;1.325547e-001
1.187986e+003;1.331721e-001
1.189914e+003;1.340383e-001
1.191843e+003;1.346190e-001
1.193771e+003;1.351705e-001
1.195700e+003;1.358792e-001
1.197628e+003;1.365911e-001
1.199557e+003;1.373161e-001
1.201485e+003;1.382701e-001
1.203414e+003;1.392653e-001
1.205343e+003;1.404092e-001
1.207271e+003;1.415658e-001
1.209200e+003;1.427180e-001
1.211128e+003;1.439397e-001
1.213057e+003;1.448517e-001
1.214985e+003;1.456635e-001
1.216914e+003;1.470336e-001
1.218842e+003;1.484850e-001
1.220771e+003;1.494692e-001
1.222699e+003;1.506491e-001
1.224628e+003;1.518377e-001
1.226557e+003;1.520705e-001
1.228485e+003;1.521437e-001
1.230414e+003;1.525246e-001
1.232342e+003;1.530006e-001
1.234271e+003;1.531625e-001
1.236199e+003;1.527473e-001
1.238128e+003;1.522744e-001
1.240056e+003;1.517843e-001
1.241985e+003;1.509071e-001
1.243913e+003;1.499159e-001
1.245842e+003;1.491707e-001
1.247771e+003;1.482060e-001
1.249699e+003;1.469298e-001
1.251628e+003;1.460410e-001
1.253556e+003;1.452918e-001
1.255485e+003;1.444644e-001
1.257413e+003;1.438720e-001
1.259342e+003;1.431386e-001
1.261270e+003;1.421495e-001
1.263199e+003;1.413321e-001
1.265127e+003;1.405901e-001
1.267056e+003;1.396088e-001
1.268985e+003;1.386365e-001
1.270913e+003;1.382119e-001
1.272842e+003;1.377776e-001
1.274770e+003;1.373320e-001
1.276699e+003;1.368275e-001
1.278627e+003;1.363581e-001
1.280556e+003;1.359985e-001
1.282484e+003;1.355221e-001
1.284413e+003;1.349342e-001
1.286342e+003;1.342792e-001
1.288270e+003;1.337890e-001
1.290199e+003;1.336683e-001
1.292127e+003;1.335183e-001
1.294056e+003;1.330944e-001
1.295984e+003;1.327319e-001
1.297913e+003;1.327338e-001
1.299841e+003;1.325555e-001
1.301770e+003;1.320805e-001
1.303698e+003;1.317457e-001
1.305627e+003;1.314421e-001
1.307556e+003;1.310028e-001
1.309484e+003;1.304164e-001
1.311413e+003;1.297313e-001
1.313341e+003;1.290509e-001
1.315270e+003;1.285529e-001
1.317198e+003;1.280995e-001
1.319127e+003;1.273207e-001
1.321055e+003;1.267423e-001
1.322984e+003;1.263355e-001
1.324912e+003;1.258811e-001
1.326841e+003;1.256079e-001
1.328770e+003;1.253133e-001
1.330698e+003;1.248853e-001
1.332627e+003;1.246658e-001
1.334555e+003;1.247628e-001
1.336484e+003;1.248465e-001
1.338412e+003;1.245467e-001
1.340341e+003;1.241949e-001
1.342269e+003;1.241134e-001
1.344198e+003;1.238321e-001
1.346126e+003;1.234309e-001
1.348055e+003;1.230754e-001
1.349984e+003;1.226691e-001
1.351912e+003;1.223911e-001
1.353841e+003;1.222796e-001
1.355769e+003;1.221902e-001
1.357698e+003;1.220775e-001
1.359626e+003;1.222215e-001
1.361555e+003;1.230191e-001
1.363483e+003;1.241617e-001
1.365412e+003;1.254129e-001
1.367341e+003;1.266560e-001
1.369269e+003;1.275491e-001
1.371198e+003;1.279893e-001
1.373126e+003;1.283506e-001
1.375055e+003;1.289592e-001
1.376983e+003;1.299414e-001
1.378912e+003;1.309292e-001
1.380840e+003;1.319615e-001
1.382769e+003;1.331155e-001
1.384698e+003;1.342365e-001
1.386626e+003;1.349352e-001
1.388555e+003;1.354404e-001
1.390483e+003;1.355340e-001
1.392412e+003;1.348742e-001
1.394340e+003;1.340809e-001
1.396269e+003;1.336880e-001
1.398197e+003;1.331274e-001
1.400126e+003;1.328690e-001
1.402054e+003;1.328539e-001
1.403983e+003;1.322176e-001
1.405911e+003;1.315543e-001
1.407840e+003;1.312565e-001
1.409769e+003;1.310406e-001
1.411697e+003;1.305569e-001
1.413626e+003;1.299247e-001
1.415554e+003;1.295996e-001
1.417483e+003;1.287918e-001
1.419411e+003;1.280880e-001
1.421340e+003;1.289602e-001
1.423268e+003;1.299013e-001
1.425197e+003;1.305045e-001
1.427125e+003;1.313530e-001
1.429054e+003;1.323710e-001
1.430983e+003;1.337429e-001
1.432911e+003;1.355098e-001
1.434840e+003;1.365616e-001
1.436768e+003;1.374079e-001
1.438697e+003;1.392779e-001
1.440625e+003;1.407045e-001
1.442554e+003;1.416147e-001
1.444482e+003;1.420896e-001
1.446411e+003;1.421140e-001
1.448340e+003;1.421740e-001
1.450268e+003;1.423918e-001
1.452197e+003;1.421156e-001
1.454125e+003;1.409087e-001
1.456054e+003;1.384041e-001
1.457982e+003;1.376981e-001
1.459911e+003;1.383178e-001
1.461839e+003;1.379953e-001
1.463768e+003;1.374203e-001
1.465697e+003;1.377474e-001
1.467625e+003;1.384507e-001
1.469554e+003;1.381598e-001
1.471482e+003;1.371509e-001
1.473411e+003;1.369568e-001
1.475339e+003;1.379709e-001
1.477268e+003;1.395872e-001
1.479196e+003;1.417620e-001
1.481125e+003;1.441670e-001
1.483053e+003;1.473605e-001
1.484982e+003;1.511886e-001
1.486911e+003;1.553365e-001
1.488839e+003;1.599703e-001
1.490768e+003;1.653094e-001
1.492696e+003;1.709062e-001
1.494625e+003;1.752491e-001
1.496553e+003;1.790616e-001
1.498482e+003;1.835456e-001
1.500410e+003;1.879741e-001
1.502339e+003;1.913790e-001
1.504267e+003;1.931018e-001
1.506196e+003;1.945449e-001
1.508125e+003;1.980446e-001
1.510053e+003;2.018195e-001
1.511982e+003;2.038297e-001
1.513910e+003;2.044928e-001
1.515839e+003;2.036613e-001
1.517767e+003;2.019495e-001
1.519696e+003;1.993503e-001
1.521624e+003;1.972023e-001
1.523553e+003;1.969344e-001
1.525481e+003;1.963080e-001
1.527410e+003;1.954381e-001
1.529339e+003;1.947127e-001
1.531267e+003;1.933969e-001
1.533196e+003;1.913327e-001
1.535124e+003;1.897991e-001
1.537053e+003;1.870511e-001
1.538981e+003;1.826184e-001
1.540910e+003;1.797442e-001
1.542838e+003;1.776696e-001
1.544767e+003;1.746887e-001
1.546695e+003;1.712767e-001
1.548624e+003;1.670419e-001
1.550553e+003;1.626193e-001
1.552481e+003;1.581454e-001
1.554410e+003;1.536243e-001
1.556338e+003;1.489675e-001
1.558267e+003;1.433099e-001
1.560195e+003;1.408585e-001
1.562124e+003;1.406261e-001
1.564052e+003;1.387988e-001
1.565981e+003;1.366228e-001
1.567910e+003;1.344918e-001
1.569838e+003;1.328609e-001
1.571767e+003;1.323211e-001
1.573695e+003;1.310915e-001
1.575624e+003;1.291188e-001
1.577552e+003;1.294511e-001
1.579481e+003;1.304718e-001
1.581409e+003;1.302259e-001
1.583338e+003;1.297863e-001
1.585266e+003;1.296005e-001
1.587195e+003;1.301775e-001
1.589124e+003;1.314037e-001
1.591052e+003;1.329136e-001
1.592981e+003;1.344218e-001
1.594909e+003;1.361929e-001
1.596838e+003;1.381548e-001
1.598766e+003;1.403986e-001
1.600695e+003;1.432973e-001
1.602623e+003;1.470162e-001
1.604552e+003;1.510161e-001
1.606480e+003;1.551142e-001
1.608409e+003;1.597346e-001
1.610338e+003;1.649529e-001
1.612266e+003;1.701272e-001
1.614195e+003;1.743237e-001
1.616123e+003;1.780617e-001
1.618052e+003;1.838309e-001
1.619980e+003;1.898471e-001
1.621909e+003;1.946408e-001
1.623837e+003;1.993405e-001
1.625766e+003;2.038079e-001
1.627694e+003;2.076966e-001
1.629623e+003;2.110480e-001
1.631552e+003;2.135000e-001
1.633480e+003;2.141418e-001
1.635409e+003;2.140426e-001
1.637337e+003;2.158729e-001
1.639266e+003;2.175618e-001
1.641194e+003;2.178808e-001
1.643123e+003;2.170796e-001
1.645051e+003;2.147554e-001
1.646980e+003;2.126667e-001
1.648909e+003;2.109757e-001
1.650837e+003;2.064232e-001
1.652766e+003;2.004150e-001
1.654694e+003;1.981962e-001
1.656623e+003;1.958724e-001
1.658551e+003;1.909409e-001
1.660480e+003;1.853768e-001
1.662408e+003;1.796756e-001
1.664337e+003;1.747281e-001
1.666266e+003;1.699385e-001
1.668194e+003;1.644766e-001
1.670123e+003;1.595106e-001
1.672051e+003;1.552377e-001
1.673980e+003;1.501318e-001
1.675908e+003;1.453206e-001
1.677837e+003;1.414455e-001
1.679765e+003;1.368368e-001
1.681694e+003;1.313715e-001
1.683622e+003;1.249756e-001
1.685551e+003;1.209702e-001
1.687479e+003;1.183483e-001
1.689408e+003;1.140884e-001
1.691337e+003;1.093949e-001
1.693265e+003;1.038660e-001
1.695194e+003;9.714740e-002
1.697122e+003;9.226540e-002
1.699051e+003;8.685852e-002
1.700979e+003;8.189446e-002
1.702908e+003;7.896427e-002
1.704836e+003;7.502057e-002
1.706765e+003;7.152603e-002
1.708693e+003;6.857704e-002
1.710622e+003;6.580152e-002
1.712551e+003;6.276499e-002
1.714479e+003;5.976321e-002
1.716408e+003;5.687168e-002
1.718336e+003;5.590969e-002
1.720265e+003;5.637405e-002
1.722193e+003;5.595446e-002
1.724122e+003;5.502846e-002
1.726050e+003;5.417856e-002
1.727979e+003;5.319281e-002
1.729908e+003;5.204565e-002
1.731836e+003;5.033857e-002
1.733765e+003;4.866966e-002
1.735693e+003;4.897002e-002
1.737622e+003;4.904802e-002
1.739550e+003;4.836619e-002
1.741479e+003;4.839648e-002
1.743407e+003;4.801673e-002
1.745336e+003;4.763720e-002
1.747265e+003;4.733961e-002
1.749193e+003;4.693863e-002
1.751122e+003;4.686366e-002
1.753050e+003;4.786436e-002
1.754979e+003;4.860936e-002
1.756907e+003;4.868000e-002
1.758836e+003;4.875803e-002
1.760764e+003;4.865584e-002
1.762693e+003;4.884353e-002
1.764621e+003;4.936657e-002
1.766550e+003;4.924100e-002
1.768479e+003;4.896490e-002
1.770407e+003;4.838070e-002
1.772336e+003;4.785119e-002
1.774264e+003;4.869276e-002
1.776193e+003;4.946674e-002
1.778121e+003;4.953647e-002
1.780050e+003;4.939526e-002
1.781978e+003;4.942942e-002
1.783907e+003;4.928134e-002
1.785835e+003;4.924126e-002
1.787764e+003;4.934218e-002
1.789693e+003;4.889481e-002
1.791621e+003;4.821573e-002
1.793550e+003;4.836433e-002
1.795478e+003;4.904595e-002
1.797407e+003;4.900277e-002
1.799335e+003;4.876886e-002
1.801264e+003;4.886140e-002
1.803192e+003;4.907744e-002
1.805121e+003;4.912797e-002
1.807049e+003;4.910942e-002
1.808978e+003;4.894992e-002
1.810907e+003;4.886306e-002
1.812835e+003;4.906245e-002
1.814764e+003;4.915695e-002
1.816692e+003;4.908278e-002
1.818621e+003;4.910875e-002
1.820549e+003;4.909035e-002
1.822478e+003;4.895826e-002
1.824406e+003;4.876433e-002
1.826335e+003;4.885576e-002
1.828264e+003;4.867496e-002
1.830192e+003;4.855497e-002
1.832121e+003;4.880519e-002
1.834049e+003;4.894565e-002
1.835978e+003;4.893897e-002
1.837906e+003;4.888980e-002
1.839835e+003;4.887211e-002
1.841763e+003;4.850013e-002
1.843692e+003;4.781061e-002
1.845620e+003;4.802887e-002
1.847549e+003;4.839004e-002
1.849478e+003;4.851262e-002
1.851406e+003;4.865414e-002
1.853335e+003;4.872493e-002
1.855263e+003;4.870510e-002
1.857192e+003;4.862682e-002
1.859120e+003;4.846660e-002
1.861049e+003;4.843467e-002
1.862977e+003;4.867967e-002
1.864906e+003;4.870521e-002
1.866834e+003;4.841600e-002
1.868763e+003;4.831456e-002
1.870692e+003;4.860151e-002
1.872620e+003;4.890067e-002
1.874549e+003;4.896000e-002
1.876477e+003;4.887875e-002
1.878406e+003;4.870955e-002
1.880334e+003;4.866673e-002
1.882263e+003;4.865903e-002
1.884191e+003;4.871818e-002
1.886120e+003;4.879114e-002
1.888048e+003;4.866321e-002
1.889977e+003;4.859992e-002
1.891906e+003;4.888532e-002
1.893834e+003;4.886555e-002
1.895763e+003;4.867252e-002
1.897691e+003;4.866966e-002
1.899620e+003;4.870665e-002
1.901548e+003;4.878839e-002
1.903477e+003;4.898623e-002
1.905405e+003;4.901601e-002
1.907334e+003;4.871021e-002
1.909262e+003;4.852759e-002
1.911191e+003;4.875525e-002
1.913120e+003;4.891543e-002
1.915048e+003;4.871314e-002
1.916977e+003;4.833804e-002
1.918905e+003;4.845379e-002
1.920834e+003;4.857138e-002
1.922762e+003;4.839011e-002
1.924691e+003;4.844189e-002
1.926619e+003;4.855689e-002
1.928548e+003;4.846998e-002
1.930477e+003;4.854741e-002
1.932405e+003;4.874776e-002
1.934334e+003;4.886051e-002
1.936262e+003;4.879414e-002
1.938191e+003;4.869168e-002
1.940119e+003;4.865432e-002
1.942048e+003;4.845805e-002
1.943976e+003;4.852292e-002
1.945905e+003;4.874424e-002
1.947833e+003;4.877141e-002
1.949762e+003;4.886507e-002
1.951691e+003;4.887708e-002
1.953619e+003;4.869553e-002
1.955548e+003;4.871006e-002
1.957476e+003;4.882599e-002
1.959405e+003;4.878572e-002
1.961333e+003;4.881261e-002
1.963262e+003;4.901760e-002
1.965190e+003;4.897777e-002
1.967119e+003;4.890222e-002
1.969047e+003;4.890742e-002
1.970976e+003;4.879755e-002
1.972905e+003;4.870009e-002
1.974833e+003;4.879318e-002
1.976762e+003;4.920129e-002
1.978690e+003;4.936441e-002
1.980619e+003;4.921665e-002
1.982547e+003;4.902514e-002
1.984476e+003;4.903055e-002
1.986404e+003;4.920753e-002
1.988333e+003;4.915509e-002
1.990261e+003;4.899958e-002
1.992190e+003;4.898263e-002
1.994119e+003;4.918151e-002
1.996047e+003;4.940113e-002
1.997976e+003;4.935933e-002
1.999904e+003;4.923499e-002
2.001833e+003;4.926052e-002
2.003761e+003;4.938743e-002
2.005690e+003;4.954814e-002
2.007618e+003;4.957677e-002
2.009547e+003;4.948560e-002
2.011476e+003;4.940447e-002
2.013404e+003;4.950075e-002
2.015333e+003;4.945303e-002
2.017261e+003;4.956771e-002
2.019190e+003;4.968527e-002
2.021118e+003;4.961759e-002
2.023047e+003;4.962208e-002
2.024975e+003;4.967684e-002
2.026904e+003;4.969906e-002
2.028833e+003;4.969200e-002
2.030761e+003;4.987288e-002
2.032690e+003;5.025791e-002
2.034618e+003;5.037614e-002
2.036547e+003;5.022265e-002
2.038475e+003;5.007337e-002
2.040404e+003;5.009304e-002
2.042332e+003;5.010884e-002
2.044261e+003;5.004414e-002
2.046189e+003;5.005842e-002
2.048118e+003;5.030173e-002
2.050047e+003;5.039899e-002
2.051975e+003;5.038355e-002
2.053904e+003;5.047309e-002
2.055832e+003;5.040476e-002
2.057761e+003;5.040815e-002
2.059689e+003;5.035449e-002
2.061618e+003;5.037425e-002
2.063546e+003;5.053152e-002
2.065475e+003;5.067180e-002
2.067404e+003;5.069574e-002
2.069332e+003;5.069648e-002
2.071260e+003;5.071779e-002
2.073189e+003;5.065582e-002
2.075118e+003;5.066729e-002
2.077046e+003;5.061420e-002
2.078975e+003;5.063948e-002
2.080903e+003;5.091914e-002
2.082832e+003;5.113535e-002
2.084760e+003;5.105917e-002
2.086689e+003;5.081670e-002
2.088617e+003;5.061286e-002
2.090546e+003;5.077666e-002
2.092475e+003;5.119772e-002
2.094403e+003;5.130991e-002
2.096332e+003;5.118437e-002
2.098260e+003;5.105615e-002
2.100189e+003;5.082463e-002
2.102117e+003;5.081618e-002
2.104046e+003;5.092067e-002
2.105974e+003;5.091534e-002
2.107903e+003;5.075718e-002
2.109832e+003;5.071875e-002
2.111760e+003;5.072486e-002
2.113688e+003;5.069958e-002
2.115617e+003;5.070490e-002
2.117546e+003;5.078072e-002
2.119474e+003;5.074076e-002
2.121403e+003;5.067519e-002
2.123331e+003;5.059998e-002
2.125260e+003;5.072970e-002
2.127188e+003;5.091121e-002
2.129117e+003;5.069865e-002
2.131045e+003;5.058215e-002
2.132974e+003;5.049039e-002
2.134903e+003;5.044447e-002
2.136831e+003;5.039014e-002
2.138760e+003;5.028049e-002
2.140688e+003;5.045489e-002
2.142617e+003;5.074471e-002
2.144545e+003;5.067586e-002
2.146474e+003;5.045861e-002
2.148402e+003;5.038370e-002
2.150331e+003;5.037175e-002
2.152260e+003;5.036718e-002
2.154188e+003;5.054262e-002
2.156117e+003;5.068628e-002
2.158045e+003;5.059231e-002
2.159974e+003;5.059387e-002
2.161902e+003;5.070311e-002
2.163831e+003;5.075343e-002
2.165759e+003;5.067765e-002
2.167688e+003;5.051001e-002
2.169616e+003;5.051332e-002
2.171545e+003;5.061338e-002
2.173474e+003;5.069228e-002
2.175402e+003;5.066197e-002
2.177331e+003;5.054834e-002
2.179259e+003;5.058151e-002
2.181188e+003;5.065951e-002
2.183116e+003;5.064157e-002
2.185045e+003;5.054481e-002
2.186973e+003;5.050573e-002
2.188902e+003;5.055266e-002
2.190831e+003;5.077357e-002
2.192759e+003;5.080780e-002
2.194688e+003;5.058781e-002
2.196616e+003;5.061644e-002
2.198545e+003;5.066644e-002
2.200473e+003;5.059603e-002
2.202402e+003;5.072944e-002
2.204330e+003;5.091046e-002
2.206259e+003;5.094403e-002
2.208188e+003;5.098859e-002
2.210116e+003;5.090364e-002
2.212044e+003;5.066647e-002
2.213973e+003;5.051663e-002
2.215902e+003;5.053029e-002
2.217830e+003;5.072683e-002
2.219759e+003;5.074676e-002
2.221687e+003;5.049274e-002
2.223616e+003;5.042969e-002
2.225544e+003;5.033548e-002
2.227473e+003;5.024229e-002
2.229401e+003;5.043814e-002
2.231330e+003;5.040922e-002
2.233259e+003;5.014603e-002
2.235187e+003;4.992473e-002
2.237116e+003;4.995949e-002
2.239044e+003;5.018017e-002
2.240973e+003;5.020636e-002
2.242901e+003;5.007299e-002
2.244830e+003;5.004976e-002
2.246758e+003;5.025560e-002
2.248687e+003;5.030185e-002
2.250615e+003;5.010817e-002
2.252544e+003;5.000347e-002
2.254473e+003;5.007448e-002
2.256401e+003;5.003771e-002
2.258330e+003;4.986794e-002
2.260258e+003;4.965448e-002
2.262187e+003;4.958149e-002
2.264115e+003;4.977467e-002
2.266044e+003;4.990054e-002
2.267972e+003;4.977975e-002
2.269901e+003;4.983706e-002
2.271830e+003;4.992035e-002
2.273758e+003;4.995592e-002
2.275687e+003;4.993373e-002
2.277615e+003;4.971477e-002
2.279544e+003;4.954220e-002
2.281472e+003;4.964623e-002
2.283401e+003;4.983334e-002
2.285329e+003;4.988351e-002
2.287258e+003;4.988742e-002
2.289187e+003;4.991745e-002
2.291115e+003;4.993957e-002
2.293043e+003;4.989102e-002
2.294972e+003;4.990790e-002
2.296901e+003;4.986203e-002
2.298829e+003;4.974349e-002
2.300758e+003;4.967981e-002
2.302686e+003;4.954606e-002
2.304615e+003;4.962450e-002
2.306543e+003;4.982115e-002
2.308472e+003;5.010471e-002
2.310400e+003;4.996298e-002
2.312329e+003;4.968490e-002
2.314258e+003;4.971202e-002
2.316186e+003;4.976263e-002
2.318115e+003;4.947104e-002
2.320043e+003;4.947665e-002
2.321972e+003;4.961454e-002
2.323900e+003;4.967747e-002
2.325829e+003;4.966922e-002
2.327757e+003;4.948508e-002
2.329686e+003;4.942289e-002
2.331615e+003;4.954253e-002
2.333543e+003;4.959809e-002
2.335472e+003;4.959449e-002
2.337400e+003;4.973595e-002
2.339329e+003;4.978663e-002
2.341257e+003;4.980904e-002
2.343186e+003;4.982825e-002
2.345114e+003;4.987894e-002
2.347043e+003;4.994157e-002
2.348971e+003;4.988329e-002
2.350900e+003;4.979618e-002
2.352829e+003;5.007419e-002
2.354757e+003;5.024828e-002
2.356686e+003;4.992563e-002
2.358614e+003;4.963657e-002
2.360543e+003;4.971912e-002
2.362471e+003;4.988233e-002
2.364400e+003;4.981599e-002
2.366328e+003;4.981546e-002
2.368257e+003;5.001841e-002
2.370186e+003;5.020048e-002
2.372114e+003;5.040435e-002
2.374042e+003;5.041388e-002
2.375971e+003;5.014179e-002
2.377900e+003;4.996157e-002
2.379828e+003;5.012732e-002
2.381757e+003;5.016236e-002
2.383685e+003;5.037868e-002
2.385614e+003;5.070084e-002
2.387542e+003;5.050293e-002
2.389471e+003;5.049970e-002
2.391399e+003;5.070576e-002
2.393328e+003;5.067776e-002
2.395257e+003;5.068829e-002
2.397185e+003;5.083100e-002
2.399114e+003;5.070851e-002
2.401042e+003;5.045161e-002
2.402971e+003;5.062712e-002
2.404899e+003;5.112771e-002
2.406828e+003;5.132639e-002
2.408756e+003;5.119265e-002
2.410685e+003;5.113204e-002
2.412614e+003;5.115902e-002
2.414542e+003;5.129775e-002
2.416471e+003;5.129790e-002
2.418399e+003;5.141773e-002
2.420328e+003;5.162702e-002
2.422256e+003;5.177710e-002
2.424185e+003;5.201895e-002
2.426113e+003;5.202563e-002
2.428042e+003;5.180181e-002
2.429970e+003;5.172599e-002
2.431899e+003;5.189687e-002
2.433828e+003;5.209048e-002
2.435756e+003;5.211103e-002
2.437685e+003;5.207882e-002
2.439613e+003;5.232562e-002
2.441542e+003;5.247254e-002
2.443470e+003;5.248896e-002
2.445399e+003;5.244898e-002
2.447327e+003;5.251281e-002
2.449256e+003;5.274837e-002
2.451185e+003;5.265758e-002
2.453113e+003;5.245310e-002
2.455042e+003;5.263480e-002
2.456970e+003;5.287545e-002
2.458899e+003;5.273835e-002
2.460827e+003;5.258394e-002
2.462756e+003;5.255529e-002
2.464684e+003;5.276536e-002
2.466613e+003;5.277183e-002
2.468542e+003;5.286343e-002
2.470470e+003;5.310709e-002
2.472398e+003;5.314289e-002
2.474327e+003;5.332256e-002
2.476256e+003;5.336493e-002
2.478184e+003;5.321771e-002
2.480113e+003;5.309260e-002
2.482041e+003;5.308047e-002
2.483970e+003;5.312963e-002
2.485898e+003;5.320374e-002
2.487827e+003;5.358757e-002
2.489755e+003;5.373593e-002
2.491684e+003;5.348304e-002
2.493613e+003;5.351317e-002
2.495541e+003;5.360245e-002
2.497470e+003;5.348371e-002
2.499398e+003;5.327715e-002
2.501327e+003;5.346029e-002
2.503255e+003;5.392188e-002
2.505184e+003;5.386303e-002
2.507112e+003;5.371227e-002
2.509041e+003;5.373529e-002
2.510969e+003;5.370702e-002
2.512898e+003;5.382064e-002
2.514827e+003;5.401527e-002
2.516755e+003;5.419946e-002
2.518684e+003;5.430834e-002
2.520612e+003;5.433271e-002
2.522541e+003;5.430271e-002
2.524469e+003;5.427860e-002
2.526398e+003;5.428348e-002
2.528326e+003;5.422657e-002
2.530255e+003;5.426145e-002
2.532184e+003;5.429396e-002
2.534112e+003;5.415285e-002
2.536041e+003;5.428585e-002
2.537969e+003;5.444578e-002
2.539898e+003;5.447227e-002
2.541826e+003;5.455262e-002
2.543755e+003;5.449713e-002
2.545683e+003;5.435926e-002
2.547612e+003;5.429678e-002
2.549541e+003;5.451340e-002
2.551469e+003;5.465767e-002
2.553397e+003;5.472006e-002
2.555326e+003;5.478444e-002
2.557255e+003;5.479515e-002
2.559183e+003;5.483711e-002
2.561112e+003;5.490933e-002
2.563040e+003;5.494238e-002
2.564969e+003;5.517035e-002
2.566897e+003;5.538282e-002
2.568826e+003;5.517731e-002
2.570754e+003;5.500443e-002
2.572683e+003;5.506058e-002
2.574612e+003;5.532263e-002
2.576540e+003;5.557449e-002
2.578469e+003;5.548770e-002
2.580397e+003;5.560559e-002
2.582326e+003;5.560040e-002
2.584254e+003;5.536652e-002
2.586183e+003;5.525971e-002
2.588111e+003;5.546628e-002
2.590040e+003;5.569550e-002
2.591969e+003;5.562766e-002
2.593897e+003;5.545897e-002
2.595826e+003;5.567768e-002
2.597754e+003;5.575886e-002
2.599683e+003;5.569399e-002
2.601611e+003;5.585268e-002
2.603540e+003;5.586918e-002
2.605468e+003;5.594131e-002
2.607397e+003;5.591855e-002
2.609325e+003;5.592484e-002
2.611254e+003;5.591847e-002
2.613183e+003;5.590743e-002
2.615111e+003;5.594278e-002
2.617040e+003;5.604158e-002
2.618968e+003;5.611947e-002
2.620897e+003;5.622943e-002
2.622825e+003;5.614782e-002
2.624754e+003;5.617674e-002
2.626682e+003;5.652222e-002
2.628611e+003;5.670266e-002
2.630540e+003;5.655166e-002
2.632468e+003;5.660152e-002
2.634396e+003;5.674068e-002
2.636325e+003;5.663361e-002
2.638254e+003;5.670670e-002
2.640182e+003;5.700681e-002
2.642111e+003;5.707629e-002
2.644039e+003;5.705071e-002
2.645968e+003;5.718876e-002
2.647896e+003;5.734172e-002
2.649825e+003;5.702668e-002
2.651753e+003;5.671814e-002
2.653682e+003;5.688762e-002
2.655611e+003;5.715033e-002
2.657539e+003;5.724762e-002
2.659468e+003;5.694980e-002
2.661396e+003;5.669639e-002
2.663325e+003;5.690556e-002
2.665253e+003;5.702260e-002
2.667182e+003;5.725450e-002
2.669110e+003;5.746326e-002
2.671039e+003;5.751655e-002
2.672968e+003;5.762524e-002
2.674896e+003;5.775867e-002
2.676825e+003;5.780791e-002
2.678753e+003;5.776526e-002
2.680682e+003;5.778062e-002
2.682610e+003;5.786197e-002
2.684539e+003;5.784187e-002
2.686467e+003;5.797055e-002
2.688396e+003;5.815500e-002
2.690324e+003;5.816572e-002
2.692253e+003;5.798971e-002
2.694182e+003;5.817791e-002
2.696110e+003;5.854687e-002
2.698039e+003;5.876673e-002
2.699967e+003;5.854035e-002
2.701896e+003;5.830579e-002
2.703824e+003;5.843947e-002
2.705753e+003;5.881384e-002
2.707681e+003;5.883266e-002
2.709610e+003;5.866765e-002
2.711539e+003;5.896984e-002
2.713467e+003;5.928838e-002
2.715396e+003;5.930896e-002
2.717324e+003;5.932469e-002
2.719253e+003;5.919819e-002
2.721181e+003;5.936184e-002
2.723110e+003;5.972553e-002
2.725038e+003;5.989475e-002
2.726967e+003;5.991924e-002
2.728896e+003;5.996059e-002
2.730824e+003;5.991825e-002
2.732752e+003;5.974382e-002
2.734681e+003;5.960890e-002
2.736610e+003;5.987261e-002
2.738538e+003;6.027769e-002
2.740467e+003;6.018009e-002
2.742395e+003;6.010943e-002
2.744324e+003;6.024868e-002
2.746252e+003;6.031191e-002
2.748181e+003;6.061586e-002
2.750109e+003;6.102670e-002
2.752038e+003;6.106582e-002
2.753967e+003;6.083909e-002
2.755895e+003;6.089802e-002
2.757824e+003;6.108554e-002
2.759752e+003;6.109656e-002
2.761681e+003;6.125392e-002
2.763609e+003;6.134607e-002
2.765538e+003;6.131569e-002
2.767466e+003;6.146732e-002
2.769395e+003;6.140083e-002
2.771323e+003;6.141327e-002
2.773252e+003;6.176111e-002
2.775181e+003;6.195119e-002
2.777109e+003;6.184683e-002
2.779038e+003;6.175332e-002
2.780966e+003;6.208843e-002
2.782895e+003;6.237733e-002
2.784823e+003;6.259871e-002
2.786752e+003;6.271572e-002
2.788680e+003;6.261349e-002
2.790609e+003;6.276737e-002
2.792538e+003;6.277648e-002
2.794466e+003;6.279183e-002
2.796395e+003;6.289894e-002
2.798323e+003;6.295275e-002
2.800252e+003;6.335373e-002
2.802180e+003;6.367206e-002
2.804109e+003;6.379197e-002
2.806037e+003;6.397744e-002
2.807966e+003;6.415819e-002
2.809895e+003;6.427079e-002
2.811823e+003;6.436354e-002
2.813751e+003;6.428055e-002
2.815680e+003;6.421708e-002
2.817609e+003;6.427517e-002
2.819537e+003;6.440604e-002
2.821466e+003;6.473240e-002
2.823394e+003;6.511575e-002
2.825323e+003;6.544996e-002
2.827251e+003;6.553283e-002
2.829180e+003;6.543756e-002
2.831108e+003;6.570626e-002
2.833037e+003;6.582604e-002
2.834966e+003;6.579535e-002
2.836894e+003;6.610262e-002
2.838823e+003;6.651420e-002
2.840751e+003;6.663529e-002
2.842680e+003;6.661744e-002
2.844608e+003;6.717867e-002
2.846537e+003;6.800583e-002
2.848465e+003;6.860781e-002
2.850394e+003;6.853541e-002
2.852323e+003;6.811047e-002
2.854251e+003;6.823172e-002
2.856180e+003;6.847206e-002
2.858108e+003;6.853968e-002
2.860037e+003;6.892601e-002
2.861965e+003;6.956003e-002
2.863894e+003;7.006904e-002
2.865822e+003;7.059024e-002
2.867751e+003;7.138397e-002
2.869679e+003;7.220276e-002
2.871608e+003;7.253060e-002
2.873536e+003;7.293160e-002
2.875465e+003;7.300235e-002
2.877394e+003;7.276506e-002
2.879322e+003;7.237267e-002
2.881251e+003;7.238059e-002
2.883179e+003;7.262976e-002
2.885108e+003;7.239530e-002
2.887036e+003;7.198960e-002
2.888965e+003;7.199468e-002
2.890893e+003;7.221383e-002
2.892822e+003;7.226790e-002
2.894750e+003;7.240407e-002
2.896679e+003;7.257035e-002
2.898608e+003;7.280624e-002
2.900536e+003;7.308514e-002
2.902465e+003;7.339306e-002
2.904393e+003;7.389681e-002
2.906322e+003;7.467391e-002
2.908250e+003;7.522245e-002
2.910179e+003;7.571267e-002
2.912107e+003;7.676237e-002
2.914036e+003;7.808799e-002
2.915965e+003;7.853973e-002
2.917893e+003;7.862025e-002
2.919822e+003;7.861751e-002
2.921750e+003;7.831094e-002
2.923679e+003;7.779595e-002
2.925607e+003;7.720663e-002
2.927536e+003;7.727076e-002
2.929464e+003;7.772180e-002
2.931393e+003;7.779654e-002
2.933322e+003;7.776202e-002
2.935250e+003;7.754807e-002
2.937178e+003;7.724237e-002
2.939107e+003;7.715439e-002
2.941036e+003;7.733858e-002
2.942964e+003;7.735778e-002
2.944893e+003;7.712320e-002
2.946821e+003;7.712657e-002
2.948750e+003;7.730734e-002
2.950678e+003;7.746854e-002
2.952607e+003;7.761276e-002
2.954535e+003;7.791729e-002
2.956464e+003;7.814828e-002
2.958393e+003;7.815970e-002
2.960321e+003;7.830472e-002
2.962250e+003;7.829154e-002
2.964178e+003;7.821120e-002
2.966107e+003;7.802704e-002
2.968035e+003;7.732175e-002
2.969964e+003;7.666053e-002
2.971892e+003;7.610579e-002
2.973821e+003;7.545225e-002
2.975750e+003;7.477120e-002
2.977678e+003;7.422241e-002
2.979607e+003;7.387199e-002
2.981535e+003;7.345914e-002
2.983464e+003;7.264981e-002
2.985392e+003;7.199480e-002
2.987321e+003;7.165161e-002
2.989249e+003;7.137046e-002
2.991178e+003;7.101285e-002
2.993106e+003;7.057441e-002
2.995035e+003;7.021827e-002
2.996964e+003;7.002634e-002
2.998892e+003;6.984149e-002
3.000821e+003;6.999683e-002
3.002749e+003;6.984488e-002
3.004678e+003;6.952745e-002
3.006606e+003;6.971138e-002
3.008535e+003;7.003334e-002
3.010463e+003;7.008801e-002
3.012392e+003;7.019942e-002
3.014321e+003;7.043375e-002
3.016249e+003;7.062883e-002
3.018177e+003;7.075976e-002
3.020106e+003;7.050261e-002
3.022035e+003;7.059137e-002
3.023963e+003;7.114097e-002
3.025892e+003;7.119437e-002
3.027820e+003;7.139014e-002
3.029749e+003;7.196333e-002
3.031677e+003;7.223731e-002
3.033606e+003;7.206294e-002
3.035534e+003;7.216754e-002
3.037463e+003;7.278147e-002
3.039392e+003;7.297448e-002
3.041320e+003;7.287520e-002
3.043249e+003;7.300626e-002
3.045177e+003;7.329432e-002
3.047106e+003;7.365499e-002
3.049034e+003;7.379721e-002
3.050963e+003;7.383118e-002
3.052891e+003;7.402084e-002
3.054820e+003;7.444047e-002
3.056749e+003;7.439084e-002
3.058677e+003;7.416876e-002
3.060606e+003;7.453366e-002
3.062534e+003;7.500317e-002
3.064463e+003;7.472015e-002
3.066391e+003;7.451064e-002
3.068320e+003;7.469426e-002
3.070248e+003;7.462198e-002
3.072177e+003;7.428487e-002
3.074105e+003;7.407734e-002
3.076034e+003;7.449392e-002
3.077963e+003;7.471854e-002
3.079891e+003;7.436001e-002
3.081820e+003;7.410631e-002
3.083748e+003;7.387407e-002
3.085677e+003;7.334124e-002
3.087605e+003;7.327703e-002
3.089534e+003;7.344054e-002
3.091462e+003;7.328479e-002
3.093391e+003;7.314647e-002
3.095320e+003;7.299113e-002
3.097248e+003;7.268530e-002
3.099177e+003;7.285812e-002
3.101105e+003;7.331315e-002
3.103034e+003;7.308330e-002
3.104962e+003;7.263102e-002
3.106891e+003;7.271414e-002
3.108819e+003;7.283351e-002
3.110748e+003;7.243637e-002
3.112677e+003;7.240622e-002
3.114605e+003;7.290087e-002
3.116533e+003;7.284429e-002
3.118462e+003;7.232039e-002
3.120391e+003;7.222819e-002
3.122319e+003;7.247806e-002
3.124248e+003;7.298749e-002
3.126176e+003;7.354701e-002
3.128105e+003;7.387871e-002
3.130033e+003;7.418731e-002
3.131962e+003;7.446309e-002
3.133890e+003;7.440291e-002
3.135819e+003;7.455792e-002
3.137748e+003;7.467474e-002
3.139676e+003;7.497639e-002
3.141605e+003;7.533409e-002
3.143533e+003;7.527135e-002
3.145462e+003;7.530209e-002
3.147390e+003;7.581145e-002
3.149319e+003;7.621615e-002
3.151247e+003;7.644498e-002
3.153176e+003;7.670397e-002
3.155104e+003;7.713183e-002
3.157033e+003;7.765559e-002
3.158962e+003;7.801451e-002
3.160890e+003;7.833269e-002
3.162819e+003;7.876216e-002
3.164747e+003;7.903641e-002
3.166676e+003;7.940976e-002
3.168604e+003;7.963124e-002
3.170533e+003;7.972618e-002
3.172461e+003;8.009957e-002
3.174390e+003;8.055001e-002
3.176319e+003;8.088766e-002
3.178247e+003;8.122057e-002
3.180176e+003;8.148383e-002
3.182104e+003;8.148128e-002
3.184033e+003;8.159269e-002
3.185961e+003;8.196457e-002
3.187890e+003;8.279321e-002
3.189818e+003;8.368958e-002
3.191747e+003;8.409260e-002
3.193676e+003;8.441740e-002
3.195604e+003;8.469570e-002
3.197532e+003;8.518355e-002
3.199461e+003;8.527963e-002
3.201390e+003;8.521846e-002
3.203318e+003;8.540678e-002
3.205247e+003;8.564039e-002
3.207175e+003;8.595399e-002
3.209104e+003;8.626062e-002
3.211032e+003;8.636001e-002
3.212961e+003;8.654179e-002
3.214889e+003;8.645126e-002
3.216818e+003;8.636988e-002
3.218747e+003;8.672617e-002
3.220675e+003;8.709173e-002
3.222604e+003;8.728792e-002
3.224532e+003;8.748006e-002
3.226461e+003;8.782148e-002
3.228389e+003;8.801012e-002
3.230318e+003;8.820973e-002
3.232246e+003;8.867878e-002
3.234175e+003;8.907586e-002
3.236104e+003;8.930477e-002
3.238032e+003;8.953664e-002
3.239961e+003;8.999075e-002
3.241889e+003;9.063680e-002
3.243818e+003;9.121054e-002
3.245746e+003;9.130960e-002
3.247675e+003;9.132935e-002
3.249603e+003;9.158723e-002
3.251532e+003;9.181362e-002
3.253460e+003;9.241602e-002
3.255389e+003;9.320306e-002
3.257318e+003;9.365226e-002
3.259246e+003;9.416638e-002
3.261175e+003;9.457839e-002
3.263103e+003;9.489810e-002
3.265032e+003;9.540828e-002
3.266960e+003;9.598011e-002
3.268889e+003;9.626723e-002
3.270817e+003;9.624999e-002
3.272746e+003;9.612896e-002
3.274675e+003;9.612694e-002
3.276603e+003;9.630433e-002
3.278531e+003;9.706867e-002
3.280460e+003;9.754781e-002
3.282389e+003;9.731506e-002
3.284317e+003;9.682536e-002
3.286246e+003;9.676706e-002
3.288174e+003;9.689647e-002
3.290103e+003;9.692542e-002
3.292031e+003;9.676147e-002
3.293960e+003;9.623601e-002
3.295888e+003;9.603206e-002
3.297817e+003;9.591676e-002
3.299746e+003;9.584118e-002
3.301674e+003;9.563672e-002
3.303603e+003;9.549513e-002
3.305531e+003;9.514409e-002
3.307460e+003;9.431366e-002
3.309388e+003;9.350438e-002
3.311317e+003;9.298497e-002
3.313245e+003;9.281098e-002
3.315174e+003;9.318885e-002
3.317103e+003;9.344912e-002
3.319031e+003;9.291771e-002
3.320960e+003;9.189443e-002
3.322888e+003;9.111428e-002
3.324817e+003;9.069158e-002
3.326745e+003;9.006735e-002
3.328674e+003;8.966506e-002
3.330602e+003;8.908696e-002
3.332531e+003;8.851000e-002
3.334459e+003;8.843790e-002
3.336388e+003;8.840296e-002
3.338317e+003;8.761236e-002
3.340245e+003;8.719289e-002
3.342174e+003;8.666112e-002
3.344102e+003;8.550041e-002
3.346031e+003;8.503263e-002
3.347959e+003;8.491509e-002
3.349888e+003;8.456258e-002
3.351816e+003;8.364277e-002
3.353745e+003;8.239616e-002
3.355674e+003;8.213186e-002
3.357602e+003;8.214456e-002
3.359531e+003;8.145542e-002
3.361459e+003;8.076429e-002
3.363388e+003;8.051914e-002
3.365316e+003;8.072746e-002
3.367245e+003;8.034249e-002
3.369173e+003;7.951467e-002
3.371102e+003;7.863717e-002
3.373031e+003;7.816716e-002
3.374959e+003;7.788006e-002
3.376887e+003;7.772029e-002
3.378816e+003;7.747206e-002
3.380745e+003;7.684889e-002
3.382673e+003;7.604950e-002
3.384602e+003;7.562593e-002
3.386530e+003;7.520535e-002
3.388459e+003;7.440186e-002
3.390387e+003;7.384442e-002
3.392316e+003;7.394018e-002
3.394244e+003;7.361546e-002
3.396173e+003;7.301109e-002
3.398102e+003;7.256284e-002
3.400030e+003;7.187914e-002
3.401959e+003;7.158921e-002
3.403887e+003;7.162590e-002
3.405816e+003;7.140213e-002
3.407744e+003;7.102920e-002
3.409673e+003;7.052752e-002
3.411601e+003;6.983732e-002
3.413530e+003;6.901017e-002
3.415458e+003;6.839328e-002
3.417387e+003;6.827054e-002
3.419316e+003;6.807683e-002
3.421244e+003;6.765763e-002
3.423173e+003;6.735143e-002
3.425101e+003;6.690229e-002
3.427030e+003;6.656560e-002
3.428958e+003;6.652370e-002
3.430887e+003;6.630247e-002
3.432815e+003;6.556805e-002
3.434744e+003;6.482664e-002
3.436673e+003;6.436853e-002
3.438601e+003;6.403188e-002
3.440530e+003;6.336063e-002
3.442458e+003;6.278349e-002
3.444387e+003;6.256729e-002
3.446315e+003;6.266493e-002
3.448244e+003;6.240878e-002
3.450172e+003;6.176890e-002
3.452101e+003;6.149717e-002
3.454030e+003;6.134522e-002
3.455958e+003;6.146136e-002
3.457886e+003;6.106476e-002
3.459815e+003;6.004436e-002
3.461744e+003;5.940101e-002
3.463672e+003;5.949022e-002
3.465601e+003;5.990802e-002
3.467529e+003;6.015079e-002
3.469458e+003;5.941119e-002
3.471386e+003;5.858938e-002
3.473315e+003;5.844978e-002
3.475243e+003;5.818928e-002
3.477172e+003;5.753013e-002
3.479101e+003;5.688215e-002
3.481029e+003;5.665981e-002
3.482958e+003;5.693503e-002
3.484886e+003;5.712274e-002
3.486815e+003;5.676994e-002
3.488743e+003;5.663349e-002
3.490672e+003;5.665539e-002
3.492600e+003;5.646449e-002
3.494529e+003;5.561414e-002
3.496458e+003;5.478132e-002
3.498386e+003;5.449796e-002
3.500315e+003;5.455010e-002
3.502243e+003;5.433293e-002
3.504172e+003;5.393576e-002
3.506100e+003;5.386483e-002
3.508029e+003;5.398889e-002
3.509957e+003;5.381442e-002
3.511886e+003;5.360699e-002
3.513814e+003;5.267408e-002
3.515743e+003;5.228063e-002
3.517672e+003;5.240820e-002
3.519600e+003;5.206000e-002
3.521529e+003;5.122355e-002
3.523457e+003;5.082676e-002
3.525386e+003;5.117971e-002
3.527314e+003;5.148972e-002
3.529243e+003;5.142183e-002
3.531171e+003;5.103908e-002
3.533100e+003;5.107330e-002
3.535029e+003;5.094023e-002
3.536957e+003;5.048976e-002
3.538885e+003;5.010966e-002
3.540814e+003;5.000514e-002
3.542743e+003;4.985207e-002
3.544671e+003;4.944520e-002
3.546600e+003;4.898979e-002
3.548528e+003;4.894491e-002
3.550457e+003;4.861463e-002
3.552385e+003;4.820366e-002
3.554314e+003;4.836648e-002
3.556242e+003;4.829293e-002
3.558171e+003;4.788204e-002
3.560100e+003;4.752407e-002
3.562028e+003;4.720550e-002
3.563957e+003;4.669627e-002
3.565885e+003;4.642643e-002
3.567814e+003;4.611003e-002
3.569742e+003;4.604641e-002
3.571671e+003;4.613417e-002
3.573599e+003;4.618119e-002
3.575528e+003;4.603690e-002
3.577457e+003;4.593258e-002
3.579385e+003;4.551321e-002
3.581314e+003;4.519755e-002
3.583242e+003;4.508822e-002
3.585171e+003;4.463210e-002
3.587099e+003;4.407508e-002
3.589028e+003;4.405326e-002
3.590956e+003;4.466056e-002
3.592885e+003;4.450686e-002
3.594813e+003;4.392320e-002
3.596742e+003;4.379869e-002
3.598671e+003;4.391587e-002
3.600599e+003;4.373884e-002
3.602528e+003;4.336544e-002
3.604456e+003;4.321795e-002
3.606385e+003;4.252155e-002
3.608313e+003;4.142878e-002
3.610242e+003;4.149939e-002
3.612170e+003;4.171188e-002
3.614099e+003;4.147453e-002
3.616028e+003;4.140392e-002
3.617956e+003;4.075424e-002
3.619885e+003;3.995846e-002
3.621813e+003;4.012120e-002
3.623742e+003;4.019330e-002
3.625670e+003;3.992805e-002
3.627599e+003;3.845580e-002
3.629527e+003;3.749289e-002
3.631456e+003;3.846341e-002
3.633385e+003;3.903535e-002
3.635313e+003;3.884750e-002
3.637241e+003;3.865999e-002
3.639170e+003;3.887906e-002
3.641099e+003;3.848013e-002
3.643027e+003;3.822468e-002
3.644956e+003;3.800026e-002
3.646884e+003;3.663960e-002
3.648813e+003;3.545586e-002
3.650741e+003;3.573732e-002
3.652670e+003;3.656245e-002
3.654598e+003;3.573088e-002
3.656527e+003;3.533062e-002
3.658456e+003;3.564264e-002
3.660384e+003;3.564847e-002
3.662313e+003;3.546924e-002
3.664241e+003;3.502906e-002
3.666170e+003;3.395299e-002
3.668098e+003;3.283136e-002
3.670027e+003;3.229358e-002
3.671955e+003;3.227923e-002
3.673884e+003;3.119623e-002
3.675813e+003;3.083054e-002
3.677741e+003;3.146087e-002
3.679669e+003;3.154228e-002
3.681598e+003;3.164276e-002
3.683527e+003;3.127065e-002
3.685455e+003;3.024760e-002
3.687384e+003;2.890264e-002
3.689312e+003;2.921908e-002
3.691241e+003;2.988313e-002
3.693169e+003;3.021736e-002
3.695098e+003;3.042127e-002
3.697026e+003;3.025996e-002
3.698955e+003;2.985037e-002
3.700884e+003;2.975363e-002
3.702812e+003;2.957554e-002
3.704741e+003;2.919665e-002
3.706669e+003;2.930996e-002
3.708598e+003;2.875273e-002
3.710526e+003;2.791723e-002
3.712455e+003;2.805477e-002
3.714383e+003;2.874204e-002
3.716312e+003;2.868752e-002
3.718240e+003;2.873000e-002
3.720169e+003;2.853297e-002
3.722098e+003;2.832291e-002
3.724026e+003;2.809758e-002
3.725955e+003;2.796780e-002
3.727883e+003;2.865213e-002
3.729812e+003;2.868419e-002
3.731740e+003;2.752866e-002
3.733669e+003;2.693493e-002
3.735597e+003;2.647718e-002
3.737526e+003;2.728116e-002
3.739455e+003;2.849048e-002
3.741383e+003;2.791066e-002
3.743312e+003;2.566739e-002
3.745240e+003;2.601415e-002
3.747169e+003;2.721568e-002
3.749097e+003;2.661057e-002
3.751026e+003;2.603378e-002
3.752954e+003;2.637552e-002
3.754883e+003;2.755320e-002
3.756812e+003;2.819653e-002
3.758740e+003;2.803509e-002
3.760668e+003;2.803441e-002
3.762597e+003;2.818914e-002
3.764526e+003;2.767314e-002
3.766454e+003;2.768882e-002
3.768383e+003;2.783777e-002
3.770311e+003;2.793129e-002
3.772240e+003;2.801565e-002
3.774168e+003;2.793970e-002
3.776097e+003;2.782081e-002
3.778025e+003;2.766407e-002
3.779954e+003;2.738822e-002
3.781883e+003;2.764341e-002
3.783811e+003;2.764062e-002
3.785740e+003;2.766647e-002
3.787668e+003;2.810277e-002
3.789597e+003;2.837529e-002
3.791525e+003;2.823733e-002
3.793454e+003;2.759450e-002
3.795382e+003;2.707255e-002
3.797311e+003;2.714975e-002
3.799240e+003;2.627012e-002
3.801168e+003;2.581491e-002
3.803097e+003;2.704395e-002
3.805025e+003;2.710496e-002
3.806954e+003;2.666669e-002
3.808882e+003;2.740879e-002
3.810811e+003;2.787119e-002
3.812739e+003;2.728550e-002
3.814668e+003;2.621395e-002
3.816596e+003;2.697523e-002
3.818525e+003;2.706902e-002
3.820454e+003;2.607421e-002
3.822382e+003;2.731626e-002
3.824311e+003;2.866182e-002
3.826239e+003;2.854759e-002
3.828168e+003;2.820201e-002
3.830096e+003;2.776055e-002
3.832025e+003;2.766640e-002
3.833953e+003;2.755175e-002
3.835882e+003;2.666729e-002
3.837811e+003;2.626699e-002
3.839739e+003;2.704215e-002
3.841667e+003;2.765969e-002
3.843596e+003;2.800656e-002
3.845525e+003;2.817220e-002
3.847453e+003;2.830205e-002
3.849382e+003;2.738797e-002
3.851310e+003;2.554135e-002
3.853239e+003;2.455403e-002
3.855167e+003;2.649849e-002
3.857096e+003;2.825346e-002
3.859024e+003;2.816524e-002
3.860953e+003;2.792211e-002
3.862882e+003;2.784141e-002
3.864810e+003;2.780347e-002
3.866739e+003;2.801035e-002
3.868667e+003;2.695735e-002
3.870596e+003;2.664379e-002
3.872524e+003;2.789494e-002
3.874453e+003;2.864154e-002
3.876381e+003;2.911961e-002
3.878310e+003;2.882605e-002
3.880239e+003;2.842924e-002
3.882167e+003;2.830102e-002
3.884096e+003;2.725836e-002
3.886024e+003;2.755044e-002
3.887953e+003;2.859872e-002
3.889881e+003;2.799822e-002
3.891810e+003;2.780358e-002
3.893738e+003;2.875896e-002
3.895667e+003;2.888402e-002
3.897595e+003;2.839277e-002
3.899524e+003;2.835627e-002
3.901453e+003;2.802413e-002
3.903381e+003;2.790250e-002
3.905310e+003;2.877652e-002
3.907238e+003;2.947546e-002
3.909167e+003;2.933651e-002
3.911095e+003;2.900433e-002
3.913024e+003;2.879836e-002
3.914952e+003;2.907925e-002
3.916881e+003;2.895701e-002
3.918810e+003;2.847523e-002
3.920738e+003;2.864027e-002
3.922667e+003;2.926317e-002
3.924595e+003;2.929032e-002
3.926524e+003;2.910126e-002
3.928452e+003;2.837462e-002
3.930381e+003;2.821937e-002
3.932309e+003;2.902622e-002
3.934238e+003;2.963286e-002
3.936167e+003;2.953816e-002
3.938095e+003;2.944588e-002
3.940023e+003;2.942734e-002
3.941952e+003;2.929681e-002
3.943881e+003;2.899069e-002
3.945809e+003;2.829430e-002
3.947738e+003;2.853609e-002
3.949666e+003;2.960395e-002
3.951595e+003;3.014150e-002
3.953523e+003;2.990730e-002
3.955452e+003;2.960732e-002
3.957380e+003;2.941887e-002
3.959309e+003;2.908988e-002
3.961238e+003;2.882534e-002
3.963166e+003;2.927993e-002
3.965095e+003;2.954841e-002
3.967023e+003;2.920735e-002
3.968952e+003;2.942291e-002
3.970880e+003;2.941188e-002
3.972809e+003;2.925785e-002
3.974737e+003;2.972656e-002
3.976666e+003;2.952847e-002
3.978594e+003;2.871938e-002
3.980523e+003;2.789617e-002
3.982452e+003;2.827160e-002
3.984380e+003;2.916057e-002
3.986309e+003;2.895396e-002
3.988237e+003;2.841413e-002
3.990166e+003;2.889468e-002
3.992094e+003;2.917365e-002
3.994023e+003;2.914452e-002
3.995951e+003;2.890604e-002
3.997880e+003;2.856298e-002
3.999809e+003;2.844257e-002
4.001737e+003;0.000000e+000
