3.992094e+002;0.000000e+000
4.011380e+002;0.000000e+000
4.030665e+002;0.000000e+000
4.049951e+002;0.000000e+000
4.069236e+002;0.000000e+000
4.088522e+002;0.000000e+000
4.107807e+002;0.000000e+000
4.127093e+002;0.000000e+000
4.146378e+002;0.000000e+000
4.165664e+002;0.000000e+000
4.184949e+002;0.000000e+000
4.204235e+002;0.000000e+000
4.223520e+002;0.000000e+000
4.242806e+002;0.000000e+000
4.262091e+002;0.000000e+000
4.281377e+002;0.000000e+000
4.300662e+002;0.000000e+000
4.319948e+002;0.000000e+000
4.339233e+002;0.000000e+000
4.358519e+002;0.000000e+000
4.377804e+002;0.000000e+000
4.397090e+002;0.000000e+000
4.416375e+002;0.000000e+000
4.435660e+002;0.000000e+000
4.454946e+002;0.000000e+000
4.474232e+002;0.000000e+000
4.493517e+002;0.000000e+000
4.512802e+002;0.000000e+000
4.532088e+002;0.000000e+000
4.551373e+002;0.000000e+000
4.570659e+002;0.000000e+000
4.589944e+002;0.000000e+000
4.609230e+002;0.000000e+000
4.628515e+002;0.000000e+000
4.647801e+002;0.000000e+000
4.667086e+002;0.000000e+000
4.686372e+002;0.000000e+000
4.705657e+002;0.000000e+000
4.724943e+002;0.000000e+000
4.744228e+002;0.000000e+000
4.763513e+002;0.000000e+000
4.782799e+002;0.000000e+000
4.802085e+002;0.000000e+000
4.821370e+002;0.000000e+000
4.840656e+002;0.000000e+000
4.859941e+002;0.000000e+000
4.879226e+002;0.000000e+000
4.898512e+002;0.000000e+000
4.917798e+002;0.000000e+000
4.937083e+002;0.000000e+000
4.956368e+002;0.000000e+000
4.975654e+002;0.000000e+000
4.994939e+002;0.000000e+000
5.014225e+002;0.000000e+000
5.033510e+002;0.000000e+000
5.052796e+002;0.000000e+000
5.072081e+002;0.000000e+000
5.091367e+002;0.000000e+000
5.110652e+002;0.000000e+000
5.129938e+002;0.000000e+000
5.149223e+002;0.000000e+000
5.168509e+002;0.000000e+000
5.187794e+002;0.000000e+000
5.207079e+002;0.000000e+000
5.226365e+002;0.000000e+000
5.245651e+002;0.000000e+000
5.264936e+002;0.000000e+000
5.284222e+002;0.000000e+000
5.303507e+002;0.000000e+000
5.322792e+002;0.000000e+000
5.342078e+002;0.000000e+000
5.361364e+002;0.000000e+000
5.380649e+002;0.000000e+000
5.399935e+002;0.000000e+000
5.419220e+002;0.000000e+000
5.438505e+002;0.000000e+000
5.457791e+002;0.000000e+000
5.477076e+002;0.000000e+000
5.496362e+002;0.000000e+000
5.515648e+002;0.000000e+000
5.534933e+002;0.000000e+000
5.554218e+002;0.000000e+000
5.573504e+002;0.000000e+000
5.592789e+002;0.000000e+000
5.612075e+002;0.000000e+000
5.631360e+002;0.000000e+000
5.650646e+002;0.000000e+000
5.669931e+002;0.000000e+000
5.689217e+002;0.000000e+000
5.708502e+002;0.000000e+000
5.727787e+002;0.000000e+000
5.747073e+002;0.000000e+000
5.766359e+002;0.000000e+000
5.785644e+002;0.000000e+000
5.804930e+002;0.000000e+000
5.824215e+002;0.000000e+000
5.843500e+002;0.000000e+000
5.862786e+002;0.000000e+000
5.882072e+002;0.000000e+000
5.901357e+002;0.000000e+000
5.920643e+002;0.000000e+000
5.939928e+002;0.000000e+000
5.959213e+002;0.000000e+000
5.978499e+002;0.000000e+000
5.997784e+002;1.696768e-001
6.017070e+002;1.809044e-001
6.036355e+002;1.839298e-001
6.055641e+002;1.783537e-001
6.074926e+002;1.751733e-001
6.094211e+002;1.758673e-001
6.113497e+002;1.741432e-001
6.132783e+002;1.715006e-001
6.152068e+002;1.755119e-001
6.171354e+002;1.812678e-001
6.190639e+002;1.804765e-001
6.209924e+002;1.780038e-001
6.229210e+002;1.777217e-001
6.248495e+002;1.757607e-001
6.267781e+002;1.722919e-001
6.287067e+002;1.716497e-001
6.306352e+002;1.742134e-001
6.325637e+002;1.748557e-001
6.344923e+002;1.716110e-001
6.364208e+002;1.689055e-001
6.383494e+002;1.691012e-001
6.402780e+002;1.698024e-001
6.422065e+002;1.693346e-001
6.441350e+002;1.682124e-001
6.460636e+002;1.671071e-001
6.479921e+002;1.674949e-001
6.499207e+002;1.661346e-001
6.518492e+002;1.638342e-001
6.537778e+002;1.629495e-001
6.557063e+002;1.624712e-001
6.576349e+002;1.633640e-001
6.595634e+002;1.628747e-001
6.614919e+002;1.630604e-001
6.634205e+002;1.631376e-001
6.653491e+002;1.616108e-001
6.672776e+002;1.610888e-001
6.692062e+002;1.597833e-001
6.711347e+002;1.578097e-001
6.730632e+002;1.567044e-001
6.749918e+002;1.558814e-001
6.769203e+002;1.552763e-001
6.788489e+002;1.550560e-001
6.807775e+002;1.540477e-001
6.827060e+002;1.520156e-001
6.846345e+002;1.514739e-001
6.865631e+002;1.516035e-001
6.884916e+002;1.514816e-001
6.904202e+002;1.511597e-001
6.923488e+002;1.496753e-001
6.942773e+002;1.481598e-001
6.962058e+002;1.479224e-001
6.981344e+002;1.472126e-001
7.000629e+002;1.472310e-001
7.019915e+002;1.465560e-001
7.039200e+002;1.438538e-001
7.058486e+002;1.414725e-001
7.077771e+002;1.403073e-001
7.097057e+002;1.384327e-001
7.116342e+002;1.358137e-001
7.135627e+002;1.337542e-001
7.154913e+002;1.325192e-001
7.174199e+002;1.323920e-001
7.193484e+002;1.319213e-001
7.212770e+002;1.303272e-001
7.232055e+002;1.290278e-001
7.251340e+002;1.283886e-001
7.270626e+002;1.277873e-001
7.289911e+002;1.270698e-001
7.309197e+002;1.266724e-001
7.328483e+002;1.263175e-001
7.347768e+002;1.252273e-001
7.367053e+002;1.237304e-001
7.386339e+002;1.229925e-001
7.405624e+002;1.227892e-001
7.424910e+002;1.225776e-001
7.444196e+002;1.223713e-001
7.463481e+002;1.223715e-001
7.482766e+002;1.208465e-001
7.502052e+002;1.184409e-001
7.521337e+002;1.182073e-001
7.540623e+002;1.175795e-001
7.559908e+002;1.158641e-001
7.579194e+002;1.147941e-001
7.598479e+002;1.139839e-001
7.617765e+002;1.133104e-001
7.637050e+002;1.119068e-001
7.656335e+002;1.097753e-001
7.675621e+002;1.088975e-001
7.694907e+002;1.090161e-001
7.714192e+002;1.088929e-001
7.733478e+002;1.085221e-001
7.752763e+002;1.077192e-001
7.772048e+002;1.064991e-001
7.791334e+002;1.056059e-001
7.810620e+002;1.053105e-001
7.829905e+002;1.046651e-001
7.849191e+002;1.035382e-001
7.868476e+002;1.029197e-001
7.887761e+002;1.022619e-001
7.907047e+002;1.016105e-001
7.926332e+002;1.012548e-001
7.945618e+002;1.003183e-001
7.964903e+002;9.970731e-002
7.984189e+002;9.963262e-002
8.003474e+002;9.922487e-002
8.022759e+002;9.861462e-002
8.042045e+002;9.780805e-002
8.061331e+002;9.743617e-002
8.080616e+002;9.761970e-002
8.099902e+002;9.721711e-002
8.119187e+002;9.644407e-002
8.138472e+002;9.585395e-002
8.157758e+002;9.548263e-002
8.177043e+002;9.575067e-002
8.196329e+002;9.614509e-002
8.215615e+002;9.609555e-002
8.234900e+002;9.568867e-002
8.254185e+002;9.492481e-002
8.273471e+002;9.429979e-002
8.292756e+002;9.426858e-002
8.312042e+002;9.423433e-002
8.331328e+002;9.387188e-002
8.350613e+002;9.361161e-002
8.369898e+002;9.316980e-002
8.389184e+002;9.277049e-002
8.408469e+002;9.192023e-002
8.427755e+002;9.110533e-002
8.447040e+002;9.083480e-002
8.466326e+002;9.099517e-002
8.485611e+002;9.117494e-002
8.504897e+002;9.107113e-002
8.524182e+002;9.051034e-002
8.543467e+002;8.982512e-002
8.562753e+002;8.922260e-002
8.582039e+002;8.929398e-002
8.601324e+002;8.912150e-002
8.620610e+002;8.880959e-002
8.639895e+002;8.888967e-002
8.659180e+002;8.866123e-002
8.678466e+002;8.834440e-002
8.697751e+002;8.816901e-002
8.717037e+002;8.803058e-002
8.736323e+002;8.794691e-002
8.755608e+002;8.800927e-002
8.774893e+002;8.835614e-002
8.794179e+002;8.832532e-002
8.813464e+002;8.822179e-002
8.832750e+002;8.791506e-002
8.852036e+002;8.746385e-002
8.871321e+002;8.757458e-002
8.890606e+002;8.733504e-002
8.909892e+002;8.674061e-002
8.929177e+002;8.683865e-002
8.948463e+002;8.675537e-002
8.967748e+002;8.644985e-002
8.987034e+002;8.621681e-002
9.006319e+002;8.656804e-002
9.025605e+002;8.659591e-002
9.044890e+002;8.622001e-002
9.064175e+002;8.629643e-002
9.083461e+002;8.680114e-002
9.102747e+002;8.720610e-002
9.122032e+002;8.734253e-002
9.141318e+002;8.771429e-002
9.160603e+002;8.808788e-002
9.179888e+002;8.841507e-002
9.199174e+002;8.886366e-002
9.218459e+002;8.908371e-002
9.237745e+002;8.941084e-002
9.257031e+002;8.970078e-002
9.276316e+002;8.947036e-002
9.295601e+002;8.945595e-002
9.314887e+002;8.942639e-002
9.334172e+002;8.910108e-002
9.353458e+002;8.912500e-002
9.372744e+002;8.892668e-002
9.392029e+002;8.844171e-002
9.411314e+002;8.818290e-002
9.430600e+002;8.797904e-002
9.449885e+002;8.787214e-002
9.469171e+002;8.787904e-002
9.488456e+002;8.771964e-002
9.507742e+002;8.760279e-002
9.527027e+002;8.744480e-002
9.546313e+002;8.785847e-002
9.565598e+002;8.818419e-002
9.584883e+002;8.840334e-002
9.604169e+002;8.863863e-002
9.623455e+002;8.892993e-002
9.642740e+002;8.910767e-002
9.662026e+002;8.904836e-002
9.681311e+002;8.915201e-002
9.700596e+002;8.951592e-002
9.719882e+002;9.009063e-002
9.739167e+002;9.080613e-002
9.758453e+002;9.140950e-002
9.777739e+002;9.176720e-002
9.797024e+002;9.204365e-002
9.816309e+002;9.212008e-002
9.835595e+002;9.238420e-002
9.854880e+002;9.294697e-002
9.874166e+002;9.348034e-002
9.893452e+002;9.392465e-002
9.912737e+002;9.415687e-002
9.932022e+002;9.424116e-002
9.951307e+002;9.443315e-002
9.970593e+002;9.501640e-002
9.989879e+002;9.571262e-002
1.000916e+003;9.655695e-002
1.002845e+003;9.728815e-002
1.004773e+003;9.799672e-002
1.006702e+003;9.881883e-002
1.008631e+003;9.986816e-002
1.010559e+003;1.009688e-001
1.012488e+003;1.020841e-001
1.014416e+003;1.029679e-001
1.016345e+003;1.037622e-001
1.018273e+003;1.046831e-001
1.020202e+003;1.054563e-001
1.022130e+003;1.066444e-001
1.024059e+003;1.082239e-001
1.025988e+003;1.096457e-001
1.027916e+003;1.114008e-001
1.029845e+003;1.131829e-001
1.031773e+003;1.152784e-001
1.033702e+003;1.175395e-001
1.035630e+003;1.198658e-001
1.037559e+003;1.218452e-001
1.039487e+003;1.226601e-001
1.041416e+003;1.224859e-001
1.043344e+003;1.217815e-001
1.045273e+003;1.203347e-001
1.047202e+003;1.187196e-001
1.049130e+003;1.174570e-001
1.051059e+003;1.168278e-001
1.052987e+003;1.170891e-001
1.054916e+003;1.174783e-001
1.056844e+003;1.174913e-001
1.058773e+003;1.177218e-001
1.060701e+003;1.181019e-001
1.062630e+003;1.186029e-001
1.064558e+003;1.193375e-001
1.066487e+003;1.197899e-001
1.068416e+003;1.203439e-001
1.070344e+003;1.209152e-001
1.072273e+003;1.211226e-001
1.074201e+003;1.212065e-001
1.076130e+003;1.212084e-001
1.078058e+003;1.213980e-001
1.079987e+003;1.213110e-001
1.081915e+003;1.207564e-001
1.083844e+003;1.195345e-001
1.085773e+003;1.183313e-001
1.087701e+003;1.179244e-001
1.089630e+003;1.174256e-001
1.091558e+003;1.172054e-001
1.093487e+003;1.168610e-001
1.095415e+003;1.165432e-001
1.097344e+003;1.167074e-001
1.099272e+003;1.169517e-001
1.101201e+003;1.168728e-001
1.103129e+003;1.167277e-001
1.105058e+003;1.166442e-001
1.106987e+003;1.167524e-001
1.108915e+003;1.164321e-001
1.110844e+003;1.162600e-001
1.112772e+003;1.163610e-001
1.114701e+003;1.160460e-001
1.116629e+003;1.161828e-001
1.118558e+003;1.164978e-001
1.120486e+003;1.165251e-001
1.122415e+003;1.166803e-001
1.124344e+003;1.168784e-001
1.126272e+003;1.170768e-001
1.128201e+003;1.171041e-001
1.130129e+003;1.170308e-001
1.132058e+003;1.170632e-001
1.133986e+003;1.170391e-001
1.135915e+003;1.170106e-001
1.137843e+003;1.176886e-001
1.139772e+003;1.186592e-001
1.141700e+003;1.194964e-001
1.143629e+003;1.202117e-001
1.145557e+003;1.213235e-001
1.147486e+003;1.223485e-001
1.149415e+003;1.231803e-001
1.151343e+003;1.242095e-001
1.153272e+003;1.256956e-001
1.155200e+003;1.269609e-001
1.157129e+003;1.278351e-001
1.159057e+003;1.286114e-001
1.160986e+003;1.293271e-001
1.162914e+003;1.301167e-001
1.164843e+003;1.308752e-001
1.166771e+003;1.314180e-001
1.168700e+003;1.324490e-001
1.170629e+003;1.332827e-001
1.172557e+003;1.337932e-001
1.174486e+003;1.344479e-001
1.176414e+003;1.347509e-001
1.178343e+003;1.351197e-001
1.180271e+003;1.352941e-001
1.182200e+003;1.354072e-001
1.184128e+003;1.358134e-001
1.186057e+003;1.363706e-001
1.187986e+003;1.371746e-001
1.189914e+003;1.379261e-001
1.191843e+003;1.382394e-001
1.193771e+003;1.384895e-001
1.195700e+003;1.391949e-001
1.197628e+003;1.401098e-001
1.199557e+003;1.408404e-001
1.201485e+003;1.418336e-001
1.203414e+003;1.428377e-001
1.205343e+003;1.436157e-001
1.207271e+003;1.444405e-001
1.209200e+003;1.453811e-001
1.211128e+003;1.466822e-001
1.213057e+003;1.480867e-001
1.214985e+003;1.491508e-001
1.216914e+003;1.504561e-001
1.218842e+003;1.517621e-001
1.220771e+003;1.527179e-001
1.222699e+003;1.535821e-001
1.224628e+003;1.544859e-001
1.226557e+003;1.553273e-001
1.228485e+003;1.560103e-001
1.230414e+003;1.565538e-001
1.232342e+003;1.569115e-001
1.234271e+003;1.567688e-001
1.236199e+003;1.561916e-001
1.238128e+003;1.558817e-001
1.240056e+003;1.557902e-001
1.241985e+003;1.551691e-001
1.243913e+003;1.542102e-001
1.245842e+003;1.532621e-001
1.247771e+003;1.522537e-001
1.249699e+003;1.514573e-001
1.251628e+003;1.506155e-001
1.253556e+003;1.495858e-001
1.255485e+003;1.488158e-001
1.257413e+003;1.481801e-001
1.259342e+003;1.473573e-001
1.261270e+003;1.464635e-001
1.263199e+003;1.456562e-001
1.265127e+003;1.447614e-001
1.267056e+003;1.436438e-001
1.268985e+003;1.427939e-001
1.270913e+003;1.420057e-001
1.272842e+003;1.411567e-001
1.274770e+003;1.407354e-001
1.276699e+003;1.402778e-001
1.278627e+003;1.397914e-001
1.280556e+003;1.392932e-001
1.282484e+003;1.387268e-001
1.284413e+003;1.382637e-001
1.286342e+003;1.375574e-001
1.288270e+003;1.370966e-001
1.290199e+003;1.371329e-001
1.292127e+003;1.370805e-001
1.294056e+003;1.366772e-001
1.295984e+003;1.363653e-001
1.297913e+003;1.365138e-001
1.299841e+003;1.365232e-001
1.301770e+003;1.362550e-001
1.303698e+003;1.360259e-001
1.305627e+003;1.357584e-001
1.307556e+003;1.353836e-001
1.309484e+003;1.349416e-001
1.311413e+003;1.343733e-001
1.313341e+003;1.336017e-001
1.315270e+003;1.327725e-001
1.317198e+003;1.318880e-001
1.319127e+003;1.310310e-001
1.321055e+003;1.303000e-001
1.322984e+003;1.297045e-001
1.324912e+003;1.292515e-001
1.326841e+003;1.289515e-001
1.328770e+003;1.286338e-001
1.330698e+003;1.284419e-001
1.332627e+003;1.284226e-001
1.334555e+003;1.283029e-001
1.336484e+003;1.281435e-001
1.338412e+003;1.278414e-001
1.340341e+003;1.277303e-001
1.342269e+003;1.277775e-001
1.344198e+003;1.276422e-001
1.346126e+003;1.273737e-001
1.348055e+003;1.270189e-001
1.349984e+003;1.265790e-001
1.351912e+003;1.263478e-001
1.353841e+003;1.264427e-001
1.355769e+003;1.265344e-001
1.357698e+003;1.264979e-001
1.359626e+003;1.265848e-001
1.361555e+003;1.273335e-001
1.363483e+003;1.288141e-001
1.365412e+003;1.305906e-001
1.367341e+003;1.318534e-001
1.369269e+003;1.327148e-001
1.371198e+003;1.334351e-001
1.373126e+003;1.340908e-001
1.375055e+003;1.350622e-001
1.376983e+003;1.363230e-001
1.378912e+003;1.375841e-001
1.380840e+003;1.390590e-001
1.382769e+003;1.404809e-001
1.384698e+003;1.417563e-001
1.386626e+003;1.427071e-001
1.388555e+003;1.433489e-001
1.390483e+003;1.435329e-001
1.392412e+003;1.431325e-001
1.394340e+003;1.424604e-001
1.396269e+003;1.419085e-001
1.398197e+003;1.410467e-001
1.400126e+003;1.403386e-001
1.402054e+003;1.400398e-001
1.403983e+003;1.395064e-001
1.405911e+003;1.388632e-001
1.407840e+003;1.382986e-001
1.409769e+003;1.378698e-001
1.411697e+003;1.373688e-001
1.413626e+003;1.368618e-001
1.415554e+003;1.364870e-001
1.417483e+003;1.355383e-001
1.419411e+003;1.351187e-001
1.421340e+003;1.360321e-001
1.423268e+003;1.367239e-001
1.425197e+003;1.373996e-001
1.427125e+003;1.383475e-001
1.429054e+003;1.393621e-001
1.430983e+003;1.409423e-001
1.432911e+003;1.429761e-001
1.434840e+003;1.442467e-001
1.436768e+003;1.453346e-001
1.438697e+003;1.474438e-001
1.440625e+003;1.492605e-001
1.442554e+003;1.503204e-001
1.444482e+003;1.508799e-001
1.446411e+003;1.510532e-001
1.448340e+003;1.511115e-001
1.450268e+003;1.512513e-001
1.452197e+003;1.509459e-001
1.454125e+003;1.496864e-001
1.456054e+003;1.472740e-001
1.457982e+003;1.462388e-001
1.459911e+003;1.464588e-001
1.461839e+003;1.461468e-001
1.463768e+003;1.453382e-001
1.465697e+003;1.451238e-001
1.467625e+003;1.454527e-001
1.469554e+003;1.452687e-001
1.471482e+003;1.442345e-001
1.473411e+003;1.437312e-001
1.475339e+003;1.443545e-001
1.477268e+003;1.456167e-001
1.479196e+003;1.476384e-001
1.481125e+003;1.501757e-001
1.483053e+003;1.535610e-001
1.484982e+003;1.577630e-001
1.486911e+003;1.624694e-001
1.488839e+003;1.678020e-001
1.490768e+003;1.741458e-001
1.492696e+003;1.808503e-001
1.494625e+003;1.864575e-001
1.496553e+003;1.918506e-001
1.498482e+003;1.976176e-001
1.500410e+003;2.029465e-001
1.502339e+003;2.073804e-001
1.504267e+003;2.101794e-001
1.506196e+003;2.124667e-001
1.508125e+003;2.169899e-001
1.510053e+003;2.214365e-001
1.511982e+003;2.240229e-001
1.513910e+003;2.254677e-001
1.515839e+003;2.252683e-001
1.517767e+003;2.238799e-001
1.519696e+003;2.216403e-001
1.521624e+003;2.196580e-001
1.523553e+003;2.191067e-001
1.525481e+003;2.180915e-001
1.527410e+003;2.169676e-001
1.529339e+003;2.159852e-001
1.531267e+003;2.143781e-001
1.533196e+003;2.122511e-001
1.535124e+003;2.106730e-001
1.537053e+003;2.076618e-001
1.538981e+003;2.026956e-001
1.540910e+003;1.990158e-001
1.542838e+003;1.959932e-001
1.544767e+003;1.918767e-001
1.546695e+003;1.874535e-001
1.548624e+003;1.824761e-001
1.550553e+003;1.773787e-001
1.552481e+003;1.721320e-001
1.554410e+003;1.666698e-001
1.556338e+003;1.614137e-001
1.558267e+003;1.557223e-001
1.560195e+003;1.526209e-001
1.562124e+003;1.512889e-001
1.564052e+003;1.488979e-001
1.565981e+003;1.464278e-001
1.567910e+003;1.439477e-001
1.569838e+003;1.420254e-001
1.571767e+003;1.411875e-001
1.573695e+003;1.396162e-001
1.575624e+003;1.375629e-001
1.577552e+003;1.376056e-001
1.579481e+003;1.381597e-001
1.581409e+003;1.377672e-001
1.583338e+003;1.376366e-001
1.585266e+003;1.377803e-001
1.587195e+003;1.383740e-001
1.589124e+003;1.397304e-001
1.591052e+003;1.416684e-001
1.592981e+003;1.437055e-001
1.594909e+003;1.462493e-001
1.596838e+003;1.492787e-001
1.598766e+003;1.525894e-001
1.600695e+003;1.564433e-001
1.602623e+003;1.609243e-001
1.604552e+003;1.659302e-001
1.606480e+003;1.713215e-001
1.608409e+003;1.772851e-001
1.610338e+003;1.837798e-001
1.612266e+003;1.903131e-001
1.614195e+003;1.961606e-001
1.616123e+003;2.012504e-001
1.618052e+003;2.079847e-001
1.619980e+003;2.152657e-001
1.621909e+003;2.211612e-001
1.623837e+003;2.268411e-001
1.625766e+003;2.322112e-001
1.627694e+003;2.367468e-001
1.629623e+003;2.408412e-001
1.631552e+003;2.437389e-001
1.633480e+003;2.448278e-001
1.635409e+003;2.452538e-001
1.637337e+003;2.469146e-001
1.639266e+003;2.481303e-001
1.641194e+003;2.481768e-001
1.643123e+003;2.471154e-001
1.645051e+003;2.445995e-001
1.646980e+003;2.420177e-001
1.648909e+003;2.396325e-001
1.650837e+003;2.346977e-001
1.652766e+003;2.280356e-001
1.654694e+003;2.244429e-001
1.656623e+003;2.207294e-001
1.658551e+003;2.151284e-001
1.660480e+003;2.087672e-001
1.662408e+003;2.021221e-001
1.664337e+003;1.961678e-001
1.666266e+003;1.902420e-001
1.668194e+003;1.837681e-001
1.670123e+003;1.780444e-001
1.672051e+003;1.727656e-001
1.673980e+003;1.664804e-001
1.675908e+003;1.605104e-001
1.677837e+003;1.555308e-001
1.679765e+003;1.502244e-001
1.681694e+003;1.442254e-001
1.683622e+003;1.371530e-001
1.685551e+003;1.320611e-001
1.687479e+003;1.281415e-001
1.689408e+003;1.228440e-001
1.691337e+003;1.175002e-001
1.693265e+003;1.112623e-001
1.695194e+003;1.037313e-001
1.697122e+003;9.782278e-002
1.699051e+003;9.166804e-002
1.700979e+003;8.584718e-002
1.702908e+003;8.195816e-002
1.704836e+003;7.730144e-002
1.706765e+003;7.282928e-002
1.708693e+003;6.886847e-002
1.710622e+003;6.540844e-002
1.712551e+003;6.207058e-002
1.714479e+003;5.893621e-002
1.716408e+003;5.586127e-002
1.718336e+003;5.427823e-002
1.720265e+003;5.423539e-002
1.722193e+003;5.368594e-002
1.724122e+003;5.261838e-002
1.726050e+003;5.151505e-002
1.727979e+003;5.048570e-002
1.729908e+003;4.927084e-002
1.731836e+003;4.734648e-002
1.733765e+003;4.564025e-002
1.735693e+003;4.597406e-002
1.737622e+003;4.600887e-002
1.739550e+003;4.512667e-002
1.741479e+003;4.493926e-002
1.743407e+003;4.446615e-002
1.745336e+003;4.412815e-002
1.747265e+003;4.386595e-002
1.749193e+003;4.342201e-002
1.751122e+003;4.335578e-002
1.753050e+003;4.414583e-002
1.754979e+003;4.470026e-002
1.756907e+003;4.472571e-002
1.758836e+003;4.465332e-002
1.760764e+003;4.444806e-002
1.762693e+003;4.452430e-002
1.764621e+003;4.481757e-002
1.766550e+003;4.470771e-002
1.768479e+003;4.452008e-002
1.770407e+003;4.412969e-002
1.772336e+003;4.365310e-002
1.774264e+003;4.418107e-002
1.776193e+003;4.483826e-002
1.778121e+003;4.488349e-002
1.780050e+003;4.467499e-002
1.781978e+003;4.460225e-002
1.783907e+003;4.458653e-002
1.785835e+003;4.456681e-002
1.787764e+003;4.454776e-002
1.789693e+003;4.414241e-002
1.791621e+003;4.364544e-002
1.793550e+003;4.378710e-002
1.795478e+003;4.436199e-002
1.797407e+003;4.441649e-002
1.799335e+003;4.423779e-002
1.801264e+003;4.418731e-002
1.803192e+003;4.425360e-002
1.805121e+003;4.423786e-002
1.807049e+003;4.410966e-002
1.808978e+003;4.397959e-002
1.810907e+003;4.388721e-002
1.812835e+003;4.393622e-002
1.814764e+003;4.425324e-002
1.816692e+003;4.443426e-002
1.818621e+003;4.432926e-002
1.820549e+003;4.416472e-002
1.822478e+003;4.406063e-002
1.824406e+003;4.388512e-002
1.826335e+003;4.393160e-002
1.828264e+003;4.382123e-002
1.830192e+003;4.360529e-002
1.832121e+003;4.386261e-002
1.834049e+003;4.406895e-002
1.835978e+003;4.400793e-002
1.837906e+003;4.397860e-002
1.839835e+003;4.405179e-002
1.841763e+003;4.375537e-002
1.843692e+003;4.321481e-002
1.845620e+003;4.353752e-002
1.847549e+003;4.378619e-002
1.849478e+003;4.393820e-002
1.851406e+003;4.414638e-002
1.853335e+003;4.410522e-002
1.855263e+003;4.405326e-002
1.857192e+003;4.396797e-002
1.859120e+003;4.376537e-002
1.861049e+003;4.377640e-002
1.862977e+003;4.385341e-002
1.864906e+003;4.378835e-002
1.866834e+003;4.356005e-002
1.868763e+003;4.345933e-002
1.870692e+003;4.365687e-002
1.872620e+003;4.394362e-002
1.874549e+003;4.409961e-002
1.876477e+003;4.429220e-002
1.878406e+003;4.433950e-002
1.880334e+003;4.418009e-002
1.882263e+003;4.403925e-002
1.884191e+003;4.417381e-002
1.886120e+003;4.415199e-002
1.888048e+003;4.385517e-002
1.889977e+003;4.368787e-002
1.891906e+003;4.389875e-002
1.893834e+003;4.394076e-002
1.895763e+003;4.400188e-002
1.897691e+003;4.408924e-002
1.899620e+003;4.394758e-002
1.901548e+003;4.391327e-002
1.903477e+003;4.421626e-002
1.905405e+003;4.435876e-002
1.907334e+003;4.414902e-002
1.909262e+003;4.386939e-002
1.911191e+003;4.378875e-002
1.913120e+003;4.392518e-002
1.915048e+003;4.393240e-002
1.916977e+003;4.362976e-002
1.918905e+003;4.347233e-002
1.920834e+003;4.355115e-002
1.922762e+003;4.352771e-002
1.924691e+003;4.359379e-002
1.926619e+003;4.363925e-002
1.928548e+003;4.356485e-002
1.930477e+003;4.367721e-002
1.932405e+003;4.370762e-002
1.934334e+003;4.368399e-002
1.936262e+003;4.381052e-002
1.938191e+003;4.381654e-002
1.940119e+003;4.378483e-002
1.942048e+003;4.365643e-002
1.943976e+003;4.360145e-002
1.945905e+003;4.369212e-002
1.947833e+003;4.385421e-002
1.949762e+003;4.398406e-002
1.951691e+003;4.401424e-002
1.953619e+003;4.390924e-002
1.955548e+003;4.382002e-002
1.957476e+003;4.390462e-002
1.959405e+003;4.409646e-002
1.961333e+003;4.419762e-002
1.963262e+003;4.420272e-002
1.965190e+003;4.416721e-002
1.967119e+003;4.409367e-002
1.969047e+003;4.404303e-002
1.970976e+003;4.394663e-002
1.972905e+003;4.393435e-002
1.974833e+003;4.401787e-002
1.976762e+003;4.420540e-002
1.978690e+003;4.428655e-002
1.980619e+003;4.414964e-002
1.982547e+003;4.396265e-002
1.984476e+003;4.396467e-002
1.986404e+003;4.422525e-002
1.988333e+003;4.433928e-002
1.990261e+003;4.425199e-002
1.992190e+003;4.423357e-002
1.994119e+003;4.430269e-002
1.996047e+003;4.449849e-002
1.997976e+003;4.462773e-002
1.999904e+003;4.439319e-002
2.001833e+003;4.426450e-002
2.003761e+003;4.451486e-002
2.005690e+003;4.469879e-002
2.007618e+003;4.468641e-002
2.009547e+003;4.472934e-002
2.011476e+003;4.474359e-002
2.013404e+003;4.477287e-002
2.015333e+003;4.484674e-002
2.017261e+003;4.494698e-002
2.019190e+003;4.493434e-002
2.021118e+003;4.494360e-002
2.023047e+003;4.502379e-002
2.024975e+003;4.499858e-002
2.026904e+003;4.487838e-002
2.028833e+003;4.470573e-002
2.030761e+003;4.463867e-002
2.032690e+003;4.492497e-002
2.034618e+003;4.525687e-002
2.036547e+003;4.532053e-002
2.038475e+003;4.526183e-002
2.040404e+003;4.522943e-002
2.042332e+003;4.521564e-002
2.044261e+003;4.521859e-002
2.046189e+003;4.516491e-002
2.048118e+003;4.515002e-002
2.050047e+003;4.524403e-002
2.051975e+003;4.536043e-002
2.053904e+003;4.543253e-002
2.055832e+003;4.531394e-002
2.057761e+003;4.520962e-002
2.059689e+003;4.526536e-002
2.061618e+003;4.546406e-002
2.063546e+003;4.565475e-002
2.065475e+003;4.562774e-002
2.067404e+003;4.552495e-002
2.069332e+003;4.542962e-002
2.071260e+003;4.552635e-002
2.073189e+003;4.568298e-002
2.075118e+003;4.561787e-002
2.077046e+003;4.565413e-002
2.078975e+003;4.583632e-002
2.080903e+003;4.592853e-002
2.082832e+003;4.588721e-002
2.084760e+003;4.579633e-002
2.086689e+003;4.566940e-002
2.088617e+003;4.553400e-002
2.090546e+003;4.568644e-002
2.092475e+003;4.600691e-002
2.094403e+003;4.601410e-002
2.096332e+003;4.599947e-002
2.098260e+003;4.593796e-002
2.100189e+003;4.586287e-002
2.102117e+003;4.602880e-002
2.104046e+003;4.620853e-002
2.105974e+003;4.602614e-002
2.107903e+003;4.584534e-002
2.109832e+003;4.592831e-002
2.111760e+003;4.604725e-002
2.113688e+003;4.599572e-002
2.115617e+003;4.581022e-002
2.117546e+003;4.571571e-002
2.119474e+003;4.578639e-002
2.121403e+003;4.592245e-002
2.123331e+003;4.603211e-002
2.125260e+003;4.607695e-002
2.127188e+003;4.596621e-002
2.129117e+003;4.569079e-002
2.131045e+003;4.568460e-002
2.132974e+003;4.581610e-002
2.134903e+003;4.585385e-002
2.136831e+003;4.572130e-002
2.138760e+003;4.553227e-002
2.140688e+003;4.565755e-002
2.142617e+003;4.590095e-002
2.144545e+003;4.596507e-002
2.146474e+003;4.594555e-002
2.148402e+003;4.591277e-002
2.150331e+003;4.580727e-002
2.152260e+003;4.572874e-002
2.154188e+003;4.576526e-002
2.156117e+003;4.577266e-002
2.158045e+003;4.594665e-002
2.159974e+003;4.604523e-002
2.161902e+003;4.586622e-002
2.163831e+003;4.593273e-002
2.165759e+003;4.603996e-002
2.167688e+003;4.596813e-002
2.169616e+003;4.590080e-002
2.171545e+003;4.583142e-002
2.173474e+003;4.571633e-002
2.175402e+003;4.572307e-002
2.177331e+003;4.581426e-002
2.179259e+003;4.589601e-002
2.181188e+003;4.573459e-002
2.183116e+003;4.569189e-002
2.185045e+003;4.575473e-002
2.186973e+003;4.579497e-002
2.188902e+003;4.580193e-002
2.190831e+003;4.578315e-002
2.192759e+003;4.582074e-002
2.194688e+003;4.591174e-002
2.196616e+003;4.605108e-002
2.198545e+003;4.603988e-002
2.200473e+003;4.599343e-002
2.202402e+003;4.589870e-002
2.204330e+003;4.570094e-002
2.206259e+003;4.569984e-002
2.208188e+003;4.599874e-002
2.210116e+003;4.589690e-002
2.212044e+003;4.566288e-002
2.213973e+003;4.579784e-002
2.215902e+003;4.575064e-002
2.217830e+003;4.548352e-002
2.219759e+003;4.538577e-002
2.221687e+003;4.542974e-002
2.223616e+003;4.553308e-002
2.225544e+003;4.553169e-002
2.227473e+003;4.565769e-002
2.229401e+003;4.568751e-002
2.231330e+003;4.548345e-002
2.233259e+003;4.538169e-002
2.235187e+003;4.539670e-002
2.237116e+003;4.540616e-002
2.239044e+003;4.563664e-002
2.240973e+003;4.567834e-002
2.242901e+003;4.551520e-002
2.244830e+003;4.541940e-002
2.246758e+003;4.547896e-002
2.248687e+003;4.560168e-002
2.250615e+003;4.557356e-002
2.252544e+003;4.531104e-002
2.254473e+003;4.528805e-002
2.256401e+003;4.543212e-002
2.258330e+003;4.531843e-002
2.260258e+003;4.503253e-002
2.262187e+003;4.510668e-002
2.264115e+003;4.548039e-002
2.266044e+003;4.548838e-002
2.267972e+003;4.520649e-002
2.269901e+003;4.515902e-002
2.271830e+003;4.520693e-002
2.273758e+003;4.505415e-002
2.275687e+003;4.496337e-002
2.277615e+003;4.516711e-002
2.279544e+003;4.519851e-002
2.281472e+003;4.505881e-002
2.283401e+003;4.517572e-002
2.285329e+003;4.528044e-002
2.287258e+003;4.525418e-002
2.289187e+003;4.515211e-002
2.291115e+003;4.505411e-002
2.293043e+003;4.516935e-002
2.294972e+003;4.530762e-002
2.296901e+003;4.529265e-002
2.298829e+003;4.518472e-002
2.300758e+003;4.500155e-002
2.302686e+003;4.492313e-002
2.304615e+003;4.500956e-002
2.306543e+003;4.502415e-002
2.308472e+003;4.515921e-002
2.310400e+003;4.527228e-002
2.312329e+003;4.515105e-002
2.314258e+003;4.499376e-002
2.316186e+003;4.492861e-002
2.318115e+003;4.486379e-002
2.320043e+003;4.492195e-002
2.321972e+003;4.506091e-002
2.323900e+003;4.517329e-002
2.325829e+003;4.509664e-002
2.327757e+003;4.489649e-002
2.329686e+003;4.488014e-002
2.331615e+003;4.512741e-002
2.333543e+003;4.522660e-002
2.335472e+003;4.505591e-002
2.337400e+003;4.507852e-002
2.339329e+003;4.519704e-002
2.341257e+003;4.525837e-002
2.343186e+003;4.524815e-002
2.345114e+003;4.525823e-002
2.347043e+003;4.538261e-002
2.348971e+003;4.536102e-002
2.350900e+003;4.539361e-002
2.352829e+003;4.558140e-002
2.354757e+003;4.571184e-002
2.356686e+003;4.544912e-002
2.358614e+003;4.510590e-002
2.360543e+003;4.517329e-002
2.362471e+003;4.536187e-002
2.364400e+003;4.564121e-002
2.366328e+003;4.569642e-002
2.368257e+003;4.540681e-002
2.370186e+003;4.532663e-002
2.372114e+003;4.574475e-002
2.374042e+003;4.585440e-002
2.375971e+003;4.551126e-002
2.377900e+003;4.542451e-002
2.379828e+003;4.556771e-002
2.381757e+003;4.560389e-002
2.383685e+003;4.566623e-002
2.385614e+003;4.596621e-002
2.387542e+003;4.603469e-002
2.389471e+003;4.596768e-002
2.391399e+003;4.594290e-002
2.393328e+003;4.600618e-002
2.395257e+003;4.600953e-002
2.397185e+003;4.591214e-002
2.399114e+003;4.588552e-002
2.401042e+003;4.590283e-002
2.402971e+003;4.605963e-002
2.404899e+003;4.616619e-002
2.406828e+003;4.614047e-002
2.408756e+003;4.609857e-002
2.410685e+003;4.611434e-002
2.412614e+003;4.614636e-002
2.414542e+003;4.628044e-002
2.416471e+003;4.632946e-002
2.418399e+003;4.656376e-002
2.420328e+003;4.674999e-002
2.422256e+003;4.672339e-002
2.424185e+003;4.691449e-002
2.426113e+003;4.708237e-002
2.428042e+003;4.686012e-002
2.429970e+003;4.671546e-002
2.431899e+003;4.691397e-002
2.433828e+003;4.703455e-002
2.435756e+003;4.695565e-002
2.437685e+003;4.691176e-002
2.439613e+003;4.717178e-002
2.441542e+003;4.726317e-002
2.443470e+003;4.728644e-002
2.445399e+003;4.739519e-002
2.447327e+003;4.739729e-002
2.449256e+003;4.745114e-002
2.451185e+003;4.755301e-002
2.453113e+003;4.745739e-002
2.455042e+003;4.753076e-002
2.456970e+003;4.772473e-002
2.458899e+003;4.775524e-002
2.460827e+003;4.756891e-002
2.462756e+003;4.735313e-002
2.464684e+003;4.764526e-002
2.466613e+003;4.790084e-002
2.468542e+003;4.796714e-002
2.470470e+003;4.780588e-002
2.472398e+003;4.782037e-002
2.474327e+003;4.813406e-002
2.476256e+003;4.829408e-002
2.478184e+003;4.823243e-002
2.480113e+003;4.802224e-002
2.482041e+003;4.798224e-002
2.483970e+003;4.793676e-002
2.485898e+003;4.810548e-002
2.487827e+003;4.854044e-002
2.489755e+003;4.857109e-002
2.491684e+003;4.838733e-002
2.493613e+003;4.837078e-002
2.495541e+003;4.847520e-002
2.497470e+003;4.854578e-002
2.499398e+003;4.836315e-002
2.501327e+003;4.837837e-002
2.503255e+003;4.868986e-002
2.505184e+003;4.877731e-002
2.507112e+003;4.870851e-002
2.509041e+003;4.876296e-002
2.510969e+003;4.887237e-002
2.512898e+003;4.873738e-002
2.514827e+003;4.867474e-002
2.516755e+003;4.906008e-002
2.518684e+003;4.927927e-002
2.520612e+003;4.920326e-002
2.522541e+003;4.908571e-002
2.524469e+003;4.914018e-002
2.526398e+003;4.912226e-002
2.528326e+003;4.903452e-002
2.530255e+003;4.917339e-002
2.532184e+003;4.916062e-002
2.534112e+003;4.897336e-002
2.536041e+003;4.920575e-002
2.537969e+003;4.956455e-002
2.539898e+003;4.951739e-002
2.541826e+003;4.948255e-002
2.543755e+003;4.942367e-002
2.545683e+003;4.937080e-002
2.547612e+003;4.950951e-002
2.549541e+003;4.967365e-002
2.551469e+003;4.977210e-002
2.553397e+003;5.000804e-002
2.555326e+003;4.986415e-002
2.557255e+003;4.950242e-002
2.559183e+003;4.955040e-002
2.561112e+003;4.975441e-002
2.563040e+003;4.978711e-002
2.564969e+003;5.009356e-002
2.566897e+003;5.038199e-002
2.568826e+003;5.006634e-002
2.570754e+003;4.982736e-002
2.572683e+003;5.009289e-002
2.574612e+003;5.022506e-002
2.576540e+003;5.005615e-002
2.578469e+003;5.009999e-002
2.580397e+003;5.038292e-002
2.582326e+003;5.052553e-002
2.584254e+003;5.045291e-002
2.586183e+003;5.038664e-002
2.588111e+003;5.031918e-002
2.590040e+003;5.026885e-002
2.591969e+003;5.047197e-002
2.593897e+003;5.055527e-002
2.595826e+003;5.071883e-002
2.597754e+003;5.071700e-002
2.599683e+003;5.056994e-002
2.601611e+003;5.077998e-002
2.603540e+003;5.089072e-002
2.605468e+003;5.086099e-002
2.607397e+003;5.094314e-002
2.609325e+003;5.120510e-002
2.611254e+003;5.127065e-002
2.613183e+003;5.108772e-002
2.615111e+003;5.107125e-002
2.617040e+003;5.127952e-002
2.618968e+003;5.130950e-002
2.620897e+003;5.129481e-002
2.622825e+003;5.138942e-002
2.624754e+003;5.154557e-002
2.626682e+003;5.160504e-002
2.628611e+003;5.141500e-002
2.630540e+003;5.133471e-002
2.632468e+003;5.151087e-002
2.634396e+003;5.156825e-002
2.636325e+003;5.154288e-002
2.638254e+003;5.177740e-002
2.640182e+003;5.226601e-002
2.642111e+003;5.241754e-002
2.644039e+003;5.217345e-002
2.645968e+003;5.200304e-002
2.647896e+003;5.204083e-002
2.649825e+003;5.215537e-002
2.651753e+003;5.213038e-002
2.653682e+003;5.213176e-002
2.655611e+003;5.222468e-002
2.657539e+003;5.223320e-002
2.659468e+003;5.223956e-002
2.661396e+003;5.231445e-002
2.663325e+003;5.239343e-002
2.665253e+003;5.239852e-002
2.667182e+003;5.256722e-002
2.669110e+003;5.289184e-002
2.671039e+003;5.302607e-002
2.672968e+003;5.294397e-002
2.674896e+003;5.298463e-002
2.676825e+003;5.328659e-002
2.678753e+003;5.340794e-002
2.680682e+003;5.328648e-002
2.682610e+003;5.329648e-002
2.684539e+003;5.327315e-002
2.686467e+003;5.305819e-002
2.688396e+003;5.296090e-002
2.690324e+003;5.317303e-002
2.692253e+003;5.355908e-002
2.694182e+003;5.376124e-002
2.696110e+003;5.374669e-002
2.698039e+003;5.384596e-002
2.699967e+003;5.388280e-002
2.701896e+003;5.391986e-002
2.703824e+003;5.395535e-002
2.705753e+003;5.412684e-002
2.707681e+003;5.421294e-002
2.709610e+003;5.415592e-002
2.711539e+003;5.429820e-002
2.713467e+003;5.457076e-002
2.715396e+003;5.468650e-002
2.717324e+003;5.496716e-002
2.719253e+003;5.513273e-002
2.721181e+003;5.521456e-002
2.723110e+003;5.553077e-002
2.725038e+003;5.564307e-002
2.726967e+003;5.550501e-002
2.728896e+003;5.553186e-002
2.730824e+003;5.554331e-002
2.732752e+003;5.554444e-002
2.734681e+003;5.550728e-002
2.736610e+003;5.554082e-002
2.738538e+003;5.583666e-002
2.740467e+003;5.597388e-002
2.742395e+003;5.606118e-002
2.744324e+003;5.613157e-002
2.746252e+003;5.580803e-002
2.748181e+003;5.578312e-002
2.750109e+003;5.637971e-002
2.752038e+003;5.681549e-002
2.753967e+003;5.676613e-002
2.755895e+003;5.672943e-002
2.757824e+003;5.693843e-002
2.759752e+003;5.711643e-002
2.761681e+003;5.741372e-002
2.763609e+003;5.744208e-002
2.765538e+003;5.717754e-002
2.767466e+003;5.722479e-002
2.769395e+003;5.721345e-002
2.771323e+003;5.725949e-002
2.773252e+003;5.766081e-002
2.775181e+003;5.793738e-002
2.777109e+003;5.796415e-002
2.779038e+003;5.791206e-002
2.780966e+003;5.811079e-002
2.782895e+003;5.850596e-002
2.784823e+003;5.859654e-002
2.786752e+003;5.840865e-002
2.788680e+003;5.834255e-002
2.790609e+003;5.839948e-002
2.792538e+003;5.865832e-002
2.794466e+003;5.908155e-002
2.796395e+003;5.926324e-002
2.798323e+003;5.931242e-002
2.800252e+003;5.970321e-002
2.802180e+003;5.993571e-002
2.804109e+003;5.994986e-002
2.806037e+003;6.033784e-002
2.807966e+003;6.074300e-002
2.809895e+003;6.082777e-002
2.811823e+003;6.075040e-002
2.813751e+003;6.065373e-002
2.815680e+003;6.066588e-002
2.817609e+003;6.088624e-002
2.819537e+003;6.093599e-002
2.821466e+003;6.091967e-002
2.823394e+003;6.103688e-002
2.825323e+003;6.146125e-002
2.827251e+003;6.190892e-002
2.829180e+003;6.207762e-002
2.831108e+003;6.233602e-002
2.833037e+003;6.236628e-002
2.834966e+003;6.230925e-002
2.836894e+003;6.246100e-002
2.838823e+003;6.287623e-002
2.840751e+003;6.342555e-002
2.842680e+003;6.402954e-002
2.844608e+003;6.494687e-002
2.846537e+003;6.590057e-002
2.848465e+003;6.648115e-002
2.850394e+003;6.655209e-002
2.852323e+003;6.622864e-002
2.854251e+003;6.627025e-002
2.856180e+003;6.663455e-002
2.858108e+003;6.699553e-002
2.860037e+003;6.738018e-002
2.861965e+003;6.767885e-002
2.863894e+003;6.820524e-002
2.865822e+003;6.895832e-002
2.867751e+003;7.007259e-002
2.869679e+003;7.088422e-002
2.871608e+003;7.128076e-002
2.873536e+003;7.198084e-002
2.875465e+003;7.236802e-002
2.877394e+003;7.237694e-002
2.879322e+003;7.223769e-002
2.881251e+003;7.181972e-002
2.883179e+003;7.134258e-002
2.885108e+003;7.119874e-002
2.887036e+003;7.093541e-002
2.888965e+003;7.080765e-002
2.890893e+003;7.099685e-002
2.892822e+003;7.093357e-002
2.894750e+003;7.136367e-002
2.896679e+003;7.172238e-002
2.898608e+003;7.196157e-002
2.900536e+003;7.239021e-002
2.902465e+003;7.268056e-002
2.904393e+003;7.304453e-002
2.906322e+003;7.398394e-002
2.908250e+003;7.482760e-002
2.910179e+003;7.557278e-002
2.912107e+003;7.678717e-002
2.914036e+003;7.794647e-002
2.915965e+003;7.871684e-002
2.917893e+003;7.938621e-002
2.919822e+003;7.964796e-002
2.921750e+003;7.943355e-002
2.923679e+003;7.909850e-002
2.925607e+003;7.870019e-002
2.927536e+003;7.909830e-002
2.929464e+003;7.969306e-002
2.931393e+003;7.965767e-002
2.933322e+003;7.935610e-002
2.935250e+003;7.938836e-002
2.937178e+003;7.950994e-002
2.939107e+003;7.898649e-002
2.941036e+003;7.854290e-002
2.942964e+003;7.844418e-002
2.944893e+003;7.836186e-002
2.946821e+003;7.832698e-002
2.948750e+003;7.831392e-002
2.950678e+003;7.859448e-002
2.952607e+003;7.907636e-002
2.954535e+003;7.956844e-002
2.956464e+003;7.974868e-002
2.958393e+003;7.988832e-002
2.960321e+003;8.004255e-002
2.962250e+003;8.008821e-002
2.964178e+003;8.002674e-002
2.966107e+003;7.978534e-002
2.968035e+003;7.920767e-002
2.969964e+003;7.853635e-002
2.971892e+003;7.789699e-002
2.973821e+003;7.714532e-002
2.975750e+003;7.641069e-002
2.977678e+003;7.553564e-002
2.979607e+003;7.474829e-002
2.981535e+003;7.404728e-002
2.983464e+003;7.309083e-002
2.985392e+003;7.237530e-002
2.987321e+003;7.189474e-002
2.989249e+003;7.144564e-002
2.991178e+003;7.104774e-002
2.993106e+003;7.044338e-002
2.995035e+003;6.984989e-002
2.996964e+003;6.959375e-002
2.998892e+003;6.961472e-002
3.000821e+003;6.970189e-002
3.002749e+003;6.936644e-002
3.004678e+003;6.892632e-002
3.006606e+003;6.914034e-002
3.008535e+003;6.959410e-002
3.010463e+003;6.963210e-002
3.012392e+003;6.969722e-002
3.014321e+003;6.985612e-002
3.016249e+003;6.979051e-002
3.018177e+003;7.005347e-002
3.020106e+003;7.038914e-002
3.022035e+003;7.052717e-002
3.023963e+003;7.050966e-002
3.025892e+003;7.072256e-002
3.027820e+003;7.129709e-002
3.029749e+003;7.164630e-002
3.031677e+003;7.180998e-002
3.033606e+003;7.198018e-002
3.035534e+003;7.230888e-002
3.037463e+003;7.275942e-002
3.039392e+003;7.295288e-002
3.041320e+003;7.330845e-002
3.043249e+003;7.366771e-002
3.045177e+003;7.366642e-002
3.047106e+003;7.391681e-002
3.049034e+003;7.403097e-002
3.050963e+003;7.405164e-002
3.052891e+003;7.437790e-002
3.054820e+003;7.478600e-002
3.056749e+003;7.478131e-002
3.058677e+003;7.461824e-002
3.060606e+003;7.488473e-002
3.062534e+003;7.529042e-002
3.064463e+003;7.527702e-002
3.066391e+003;7.525567e-002
3.068320e+003;7.511695e-002
3.070248e+003;7.474105e-002
3.072177e+003;7.475200e-002
3.074105e+003;7.486390e-002
3.076034e+003;7.527450e-002
3.077963e+003;7.531147e-002
3.079891e+003;7.466427e-002
3.081820e+003;7.449821e-002
3.083748e+003;7.439423e-002
3.085677e+003;7.388078e-002
3.087605e+003;7.365166e-002
3.089534e+003;7.389752e-002
3.091462e+003;7.407718e-002
3.093391e+003;7.378154e-002
3.095320e+003;7.358822e-002
3.097248e+003;7.353347e-002
3.099177e+003;7.348959e-002
3.101105e+003;7.361660e-002
3.103034e+003;7.378123e-002
3.104962e+003;7.327741e-002
3.106891e+003;7.270203e-002
3.108819e+003;7.288975e-002
3.110748e+003;7.327314e-002
3.112677e+003;7.352594e-002
3.114605e+003;7.384799e-002
3.116533e+003;7.386669e-002
3.118462e+003;7.359890e-002
3.120391e+003;7.347201e-002
3.122319e+003;7.354053e-002
3.124248e+003;7.378260e-002
3.126176e+003;7.420491e-002
3.128105e+003;7.468060e-002
3.130033e+003;7.517364e-002
3.131962e+003;7.512534e-002
3.133890e+003;7.497104e-002
3.135819e+003;7.532522e-002
3.137748e+003;7.587620e-002
3.139676e+003;7.614753e-002
3.141605e+003;7.629277e-002
3.143533e+003;7.638374e-002
3.145462e+003;7.667547e-002
3.147390e+003;7.733454e-002
3.149319e+003;7.814360e-002
3.151247e+003;7.865179e-002
3.153176e+003;7.890172e-002
3.155104e+003;7.920740e-002
3.157033e+003;7.961643e-002
3.158962e+003;8.017787e-002
3.160890e+003;8.088586e-002
3.162819e+003;8.146069e-002
3.164747e+003;8.170901e-002
3.166676e+003;8.202840e-002
3.168604e+003;8.274367e-002
3.170533e+003;8.333288e-002
3.172461e+003;8.391550e-002
3.174390e+003;8.433351e-002
3.176319e+003;8.441129e-002
3.178247e+003;8.481330e-002
3.180176e+003;8.526104e-002
3.182104e+003;8.557566e-002
3.184033e+003;8.606668e-002
3.185961e+003;8.645805e-002
3.187890e+003;8.685201e-002
3.189818e+003;8.740525e-002
3.191747e+003;8.752739e-002
3.193676e+003;8.778299e-002
3.195604e+003;8.840488e-002
3.197532e+003;8.903717e-002
3.199461e+003;8.948331e-002
3.201390e+003;9.009609e-002
3.203318e+003;9.021398e-002
3.205247e+003;8.990341e-002
3.207175e+003;9.011603e-002
3.209104e+003;9.067358e-002
3.211032e+003;9.109091e-002
3.212961e+003;9.157017e-002
3.214889e+003;9.156722e-002
3.216818e+003;9.147710e-002
3.218747e+003;9.151167e-002
3.220675e+003;9.175975e-002
3.222604e+003;9.193513e-002
3.224532e+003;9.180776e-002
3.226461e+003;9.209792e-002
3.228389e+003;9.296183e-002
3.230318e+003;9.361967e-002
3.232246e+003;9.382668e-002
3.234175e+003;9.366731e-002
3.236104e+003;9.414905e-002
3.238032e+003;9.488486e-002
3.239961e+003;9.528304e-002
3.241889e+003;9.566236e-002
3.243818e+003;9.613847e-002
3.245746e+003;9.633031e-002
3.247675e+003;9.667239e-002
3.249603e+003;9.772239e-002
3.251532e+003;9.848844e-002
3.253460e+003;9.871189e-002
3.255389e+003;9.888514e-002
3.257318e+003;9.957556e-002
3.259246e+003;1.003614e-001
3.261175e+003;1.007152e-001
3.263103e+003;1.009461e-001
3.265032e+003;1.014754e-001
3.266960e+003;1.017881e-001
3.268889e+003;1.022104e-001
3.270817e+003;1.029443e-001
3.272746e+003;1.030848e-001
3.274675e+003;1.027477e-001
3.276603e+003;1.028367e-001
3.278531e+003;1.032246e-001
3.280460e+003;1.036687e-001
3.282389e+003;1.038249e-001
3.284317e+003;1.035261e-001
3.286246e+003;1.035317e-001
3.288174e+003;1.035575e-001
3.290103e+003;1.033715e-001
3.292031e+003;1.035211e-001
3.293960e+003;1.035065e-001
3.295888e+003;1.030462e-001
3.297817e+003;1.026854e-001
3.299746e+003;1.024456e-001
3.301674e+003;1.021819e-001
3.303603e+003;1.022211e-001
3.305531e+003;1.017238e-001
3.307460e+003;1.010993e-001
3.309388e+003;1.007649e-001
3.311317e+003;1.002146e-001
3.313245e+003;9.956102e-002
3.315174e+003;9.938129e-002
3.317103e+003;9.922799e-002
3.319031e+003;9.903641e-002
3.320960e+003;9.872599e-002
3.322888e+003;9.783108e-002
3.324817e+003;9.685725e-002
3.326745e+003;9.628022e-002
3.328674e+003;9.575984e-002
3.330602e+003;9.508383e-002
3.332531e+003;9.472392e-002
3.334459e+003;9.456558e-002
3.336388e+003;9.416246e-002
3.338317e+003;9.325735e-002
3.340245e+003;9.264694e-002
3.342174e+003;9.172824e-002
3.344102e+003;9.090436e-002
3.346031e+003;9.038911e-002
3.347959e+003;8.990084e-002
3.349888e+003;8.927368e-002
3.351816e+003;8.883316e-002
3.353745e+003;8.843071e-002
3.355674e+003;8.793335e-002
3.357602e+003;8.752654e-002
3.359531e+003;8.668263e-002
3.361459e+003;8.528749e-002
3.363388e+003;8.417585e-002
3.365316e+003;8.391301e-002
3.367245e+003;8.368070e-002
3.369173e+003;8.315043e-002
3.371102e+003;8.277526e-002
3.373031e+003;8.217686e-002
3.374959e+003;8.132281e-002
3.376887e+003;8.064778e-002
3.378816e+003;8.047016e-002
3.380745e+003;8.003968e-002
3.382673e+003;7.924279e-002
3.384602e+003;7.892215e-002
3.386530e+003;7.874714e-002
3.388459e+003;7.810537e-002
3.390387e+003;7.739425e-002
3.392316e+003;7.690984e-002
3.394244e+003;7.616048e-002
3.396173e+003;7.549088e-002
3.398102e+003;7.511231e-002
3.400030e+003;7.423923e-002
3.401959e+003;7.399699e-002
3.403887e+003;7.411318e-002
3.405816e+003;7.392950e-002
3.407744e+003;7.346816e-002
3.409673e+003;7.274332e-002
3.411601e+003;7.209024e-002
3.413530e+003;7.150521e-002
3.415458e+003;7.061062e-002
3.417387e+003;7.007637e-002
3.419316e+003;6.970115e-002
3.421244e+003;6.921926e-002
3.423173e+003;6.873123e-002
3.425101e+003;6.811547e-002
3.427030e+003;6.775755e-002
3.428958e+003;6.730667e-002
3.430887e+003;6.720791e-002
3.432815e+003;6.677565e-002
3.434744e+003;6.588596e-002
3.436673e+003;6.543379e-002
3.438601e+003;6.525154e-002
3.440530e+003;6.442307e-002
3.442458e+003;6.329294e-002
3.444387e+003;6.282870e-002
3.446315e+003;6.290105e-002
3.448244e+003;6.298382e-002
3.450172e+003;6.260013e-002
3.452101e+003;6.193731e-002
3.454030e+003;6.128856e-002
3.455958e+003;6.085265e-002
3.457886e+003;6.064870e-002
3.459815e+003;5.998490e-002
3.461744e+003;5.915414e-002
3.463672e+003;5.881104e-002
3.465601e+003;5.869139e-002
3.467529e+003;5.908804e-002
3.469458e+003;5.917392e-002
3.471386e+003;5.838455e-002
3.473315e+003;5.778937e-002
3.475243e+003;5.710256e-002
3.477172e+003;5.650026e-002
3.479101e+003;5.626552e-002
3.481029e+003;5.623867e-002
3.482958e+003;5.625598e-002
3.484886e+003;5.631490e-002
3.486815e+003;5.597448e-002
3.488743e+003;5.580366e-002
3.490672e+003;5.533833e-002
3.492600e+003;5.479726e-002
3.494529e+003;5.387908e-002
3.496458e+003;5.295562e-002
3.498386e+003;5.287511e-002
3.500315e+003;5.269839e-002
3.502243e+003;5.212081e-002
3.504172e+003;5.202851e-002
3.506100e+003;5.189783e-002
3.508029e+003;5.096434e-002
3.509957e+003;5.067630e-002
3.511886e+003;5.103428e-002
3.513814e+003;5.031952e-002
3.515743e+003;4.970556e-002
3.517672e+003;4.974728e-002
3.519600e+003;4.976118e-002
3.521529e+003;4.907525e-002
3.523457e+003;4.835985e-002
3.525386e+003;4.837426e-002
3.527314e+003;4.843512e-002
3.529243e+003;4.845697e-002
3.531171e+003;4.836807e-002
3.533100e+003;4.805185e-002
3.535029e+003;4.754787e-002
3.536957e+003;4.718733e-002
3.538885e+003;4.679295e-002
3.540814e+003;4.669790e-002
3.542743e+003;4.663735e-002
3.544671e+003;4.607868e-002
3.546600e+003;4.531538e-002
3.548528e+003;4.536032e-002
3.550457e+003;4.523631e-002
3.552385e+003;4.473166e-002
3.554314e+003;4.431557e-002
3.556242e+003;4.392295e-002
3.558171e+003;4.384417e-002
3.560100e+003;4.392166e-002
3.562028e+003;4.311223e-002
3.563957e+003;4.233804e-002
3.565885e+003;4.194150e-002
3.567814e+003;4.165378e-002
3.569742e+003;4.180355e-002
3.571671e+003;4.168160e-002
3.573599e+003;4.153210e-002
3.575528e+003;4.100627e-002
3.577457e+003;4.050509e-002
3.579385e+003;4.053444e-002
3.581314e+003;4.011549e-002
3.583242e+003;4.004965e-002
3.585171e+003;3.942931e-002
3.587099e+003;3.858444e-002
3.589028e+003;3.875588e-002
3.590956e+003;3.901679e-002
3.592885e+003;3.860983e-002
3.594813e+003;3.840737e-002
3.596742e+003;3.839339e-002
3.598671e+003;3.832550e-002
3.600599e+003;3.817385e-002
3.602528e+003;3.797527e-002
3.604456e+003;3.792331e-002
3.606385e+003;3.755726e-002
3.608313e+003;3.666224e-002
3.610242e+003;3.624563e-002
3.612170e+003;3.580582e-002
3.614099e+003;3.527854e-002
3.616028e+003;3.501276e-002
3.617956e+003;3.451539e-002
3.619885e+003;3.438271e-002
3.621813e+003;3.533774e-002
3.623742e+003;3.545780e-002
3.625670e+003;3.434233e-002
3.627599e+003;3.282268e-002
3.629527e+003;3.248286e-002
3.631456e+003;3.326677e-002
3.633385e+003;3.349602e-002
3.635313e+003;3.360061e-002
3.637241e+003;3.377424e-002
3.639170e+003;3.353142e-002
3.641099e+003;3.292310e-002
3.643027e+003;3.225446e-002
3.644956e+003;3.203682e-002
3.646884e+003;3.124060e-002
3.648813e+003;3.009352e-002
3.650741e+003;3.071851e-002
3.652670e+003;3.155585e-002
3.654598e+003;3.076424e-002
3.656527e+003;3.006895e-002
3.658456e+003;3.013770e-002
3.660384e+003;2.989119e-002
3.662313e+003;2.968051e-002
3.664241e+003;2.984022e-002
3.666170e+003;2.953638e-002
3.668098e+003;2.842039e-002
3.670027e+003;2.756425e-002
3.671955e+003;2.770503e-002
3.673884e+003;2.696578e-002
3.675813e+003;2.669305e-002
3.677741e+003;2.736478e-002
3.679669e+003;2.769938e-002
3.681598e+003;2.762123e-002
3.683527e+003;2.710062e-002
3.685455e+003;2.661998e-002
3.687384e+003;2.544325e-002
3.689312e+003;2.538023e-002
3.691241e+003;2.618143e-002
3.693169e+003;2.706183e-002
3.695098e+003;2.726606e-002
3.697026e+003;2.656450e-002
3.698955e+003;2.584842e-002
3.700884e+003;2.589442e-002
3.702812e+003;2.604092e-002
3.704741e+003;2.598133e-002
3.706669e+003;2.621536e-002
3.708598e+003;2.561477e-002
3.710526e+003;2.471204e-002
3.712455e+003;2.468412e-002
3.714383e+003;2.493668e-002
3.716312e+003;2.500343e-002
3.718240e+003;2.520325e-002
3.720169e+003;2.513078e-002
3.722098e+003;2.523728e-002
3.724026e+003;2.485587e-002
3.725955e+003;2.431638e-002
3.727883e+003;2.506728e-002
3.729812e+003;2.489997e-002
3.731740e+003;2.364129e-002
3.733669e+003;2.327785e-002
3.735597e+003;2.313038e-002
3.737526e+003;2.411833e-002
3.739455e+003;2.495026e-002
3.741383e+003;2.453748e-002
3.743312e+003;2.309715e-002
3.745240e+003;2.352952e-002
3.747169e+003;2.411507e-002
3.749097e+003;2.308328e-002
3.751026e+003;2.217069e-002
3.752954e+003;2.301860e-002
3.754883e+003;2.471569e-002
3.756812e+003;2.480917e-002
3.758740e+003;2.459933e-002
3.760668e+003;2.480851e-002
3.762597e+003;2.469521e-002
3.764526e+003;2.428705e-002
3.766454e+003;2.467402e-002
3.768383e+003;2.463089e-002
3.770311e+003;2.423736e-002
3.772240e+003;2.419399e-002
3.774168e+003;2.409934e-002
3.776097e+003;2.453849e-002
3.778025e+003;2.476115e-002
3.779954e+003;2.405847e-002
3.781883e+003;2.369307e-002
3.783811e+003;2.407301e-002
3.785740e+003;2.446498e-002
3.787668e+003;2.453225e-002
3.789597e+003;2.432289e-002
3.791525e+003;2.469149e-002
3.793454e+003;2.487408e-002
3.795382e+003;2.437630e-002
3.797311e+003;2.421918e-002
3.799240e+003;2.332274e-002
3.801168e+003;2.299817e-002
3.803097e+003;2.404439e-002
3.805025e+003;2.413448e-002
3.806954e+003;2.370959e-002
3.808882e+003;2.425145e-002
3.810811e+003;2.463169e-002
3.812739e+003;2.431399e-002
3.814668e+003;2.291873e-002
3.816596e+003;2.322360e-002
3.818525e+003;2.388610e-002
3.820454e+003;2.334826e-002
3.822382e+003;2.418383e-002
3.824311e+003;2.567002e-002
3.826239e+003;2.565442e-002
3.828168e+003;2.446736e-002
3.830096e+003;2.377391e-002
3.832025e+003;2.425043e-002
3.833953e+003;2.423158e-002
3.835882e+003;2.303709e-002
3.837811e+003;2.310159e-002
3.839739e+003;2.409591e-002
3.841667e+003;2.414961e-002
3.843596e+003;2.441570e-002
3.845525e+003;2.511397e-002
3.847453e+003;2.518039e-002
3.849382e+003;2.386233e-002
3.851310e+003;2.200600e-002
3.853239e+003;2.165472e-002
3.855167e+003;2.349842e-002
3.857096e+003;2.457026e-002
3.859024e+003;2.482956e-002
3.860953e+003;2.509382e-002
3.862882e+003;2.469023e-002
3.864810e+003;2.433761e-002
3.866739e+003;2.408589e-002
3.868667e+003;2.335742e-002
3.870596e+003;2.328113e-002
3.872524e+003;2.440778e-002
3.874453e+003;2.563132e-002
3.876381e+003;2.588570e-002
3.878310e+003;2.505197e-002
3.880239e+003;2.472572e-002
3.882167e+003;2.456945e-002
3.884096e+003;2.385627e-002
3.886024e+003;2.420737e-002
3.887953e+003;2.503979e-002
3.889881e+003;2.460571e-002
3.891810e+003;2.423453e-002
3.893738e+003;2.461318e-002
3.895667e+003;2.466988e-002
3.897595e+003;2.427180e-002
3.899524e+003;2.417161e-002
3.901453e+003;2.473158e-002
3.903381e+003;2.494415e-002
3.905310e+003;2.513914e-002
3.907238e+003;2.582208e-002
3.909167e+003;2.557389e-002
3.911095e+003;2.526734e-002
3.913024e+003;2.569319e-002
3.914952e+003;2.576870e-002
3.916881e+003;2.507711e-002
3.918810e+003;2.482457e-002
3.920738e+003;2.535933e-002
3.922667e+003;2.590821e-002
3.924595e+003;2.569959e-002
3.926524e+003;2.527292e-002
3.928452e+003;2.511453e-002
3.930381e+003;2.500905e-002
3.932309e+003;2.472747e-002
3.934238e+003;2.500778e-002
3.936167e+003;2.536758e-002
3.938095e+003;2.545952e-002
3.940023e+003;2.558026e-002
3.941952e+003;2.564247e-002
3.943881e+003;2.588760e-002
3.945809e+003;2.581392e-002
3.947738e+003;2.594957e-002
3.949666e+003;2.645708e-002
3.951595e+003;2.652758e-002
3.953523e+003;2.598925e-002
3.955452e+003;2.543770e-002
3.957380e+003;2.537966e-002
3.959309e+003;2.553137e-002
3.961238e+003;2.550344e-002
3.963166e+003;2.568957e-002
3.965095e+003;2.541926e-002
3.967023e+003;2.477707e-002
3.968952e+003;2.540664e-002
3.970880e+003;2.589955e-002
3.972809e+003;2.563097e-002
3.974737e+003;2.512608e-002
3.976666e+003;2.455781e-002
3.978594e+003;2.412225e-002
3.980523e+003;2.409069e-002
3.982452e+003;2.486215e-002
3.984380e+003;2.592273e-002
3.986309e+003;2.593736e-002
3.988237e+003;2.520139e-002
3.990166e+003;2.500283e-002
3.992094e+003;2.509241e-002
3.994023e+003;2.544061e-002
3.995951e+003;2.540664e-002
3.997880e+003;2.499690e-002
3.999809e+003;2.490626e-002
4.001737e+003;0.000000e+000
