3.992094e+002;0.000000e+000
4.011380e+002;0.000000e+000
4.030665e+002;0.000000e+000
4.049951e+002;0.000000e+000
4.069236e+002;0.000000e+000
4.088522e+002;0.000000e+000
4.107807e+002;0.000000e+000
4.127093e+002;0.000000e+000
4.146378e+002;0.000000e+000
4.165664e+002;0.000000e+000
4.184949e+002;0.000000e+000
4.204235e+002;0.000000e+000
4.223520e+002;0.000000e+000
4.242806e+002;0.000000e+000
4.262091e+002;0.000000e+000
4.281377e+002;0.000000e+000
4.300662e+002;0.000000e+000
4.319948e+002;0.000000e+000
4.339233e+002;0.000000e+000
4.358519e+002;0.000000e+000
4.377804e+002;0.000000e+000
4.397090e+002;0.000000e+000
4.416375e+002;0.000000e+000
4.435660e+002;0.000000e+000
4.454946e+002;0.000000e+000
4.474232e+002;0.000000e+000
4.493517e+002;0.000000e+000
4.512802e+002;0.000000e+000
4.532088e+002;0.000000e+000
4.551373e+002;0.000000e+000
4.570659e+002;0.000000e+000
4.589944e+002;0.000000e+000
4.609230e+002;0.000000e+000
4.628515e+002;0.000000e+000
4.647801e+002;0.000000e+000
4.667086e+002;0.000000e+000
4.686372e+002;0.000000e+000
4.705657e+002;0.000000e+000
4.724943e+002;0.000000e+000
4.744228e+002;0.000000e+000
4.763513e+002;0.000000e+000
4.782799e+002;0.000000e+000
4.802085e+002;0.000000e+000
4.821370e+002;0.000000e+000
4.840656e+002;0.000000e+000
4.859941e+002;0.000000e+000
4.879226e+002;0.000000e+000
4.898512e+002;0.000000e+000
4.917798e+002;0.000000e+000
4.937083e+002;0.000000e+000
4.956368e+002;0.000000e+000
4.975654e+002;0.000000e+000
4.994939e+002;0.000000e+000
5.014225e+002;0.000000e+000
5.033510e+002;0.000000e+000
5.052796e+002;0.000000e+000
5.072081e+002;0.000000e+000
5.091367e+002;0.000000e+000
5.110652e+002;0.000000e+000
5.129938e+002;0.000000e+000
5.149223e+002;0.000000e+000
5.168509e+002;0.000000e+000
5.187794e+002;0.000000e+000
5.207079e+002;0.000000e+000
5.226365e+002;0.000000e+000
5.245651e+002;0.000000e+000
5.264936e+002;0.000000e+000
5.284222e+002;0.000000e+000
5.303507e+002;0.000000e+000
5.322792e+002;0.000000e+000
5.342078e+002;0.000000e+000
5.361364e+002;0.000000e+000
5.380649e+002;0.000000e+000
5.399935e+002;0.000000e+000
5.419220e+002;0.000000e+000
5.438505e+002;0.000000e+000
5.457791e+002;0.000000e+000
5.477076e+002;0.000000e+000
5.496362e+002;0.000000e+000
5.515648e+002;0.000000e+000
5.534933e+002;0.000000e+000
5.554218e+002;0.000000e+000
5.573504e+002;0.000000e+000
5.592789e+002;0.000000e+000
5.612075e+002;0.000000e+000
5.631360e+002;0.000000e+000
5.650646e+002;0.000000e+000
5.669931e+002;0.000000e+000
5.689217e+002;0.000000e+000
5.708502e+002;0.000000e+000
5.727787e+002;0.000000e+000
5.747073e+002;0.000000e+000
5.766359e+002;0.000000e+000
5.785644e+002;0.000000e+000
5.804930e+002;0.000000e+000
5.824215e+002;0.000000e+000
5.843500e+002;0.000000e+000
5.862786e+002;0.000000e+000
5.882072e+002;0.000000e+000
5.901357e+002;0.000000e+000
5.920643e+002;0.000000e+000
5.939928e+002;0.000000e+000
5.959213e+002;0.000000e+000
5.978499e+002;0.000000e+000
5.997784e+002;2.428882e-001
6.017070e+002;2.393032e-001
6.036355e+002;2.427798e-001
6.055641e+002;2.500111e-001
6.074926e+002;2.491791e-001
6.094211e+002;2.403750e-001
6.113497e+002;2.348077e-001
6.132783e+002;2.381712e-001
6.152068e+002;2.424677e-001
6.171354e+002;2.402744e-001
6.190639e+002;2.354225e-001
6.209924e+002;2.344420e-001
6.229210e+002;2.366067e-001
6.248495e+002;2.340160e-001
6.267781e+002;2.298263e-001
6.287067e+002;2.270293e-001
6.306352e+002;2.251485e-001
6.325637e+002;2.245150e-001
6.344923e+002;2.204139e-001
6.364208e+002;2.183053e-001
6.383494e+002;2.181783e-001
6.402780e+002;2.146385e-001
6.422065e+002;2.154192e-001
6.441350e+002;2.181425e-001
6.460636e+002;2.176981e-001
6.479921e+002;2.185724e-001
6.499207e+002;2.176712e-001
6.518492e+002;2.113876e-001
6.537778e+002;2.074590e-001
6.557063e+002;2.090284e-001
6.576349e+002;2.079343e-001
6.595634e+002;2.089009e-001
6.614919e+002;2.117018e-001
6.634205e+002;2.124698e-001
6.653491e+002;2.124949e-001
6.672776e+002;2.109515e-001
6.692062e+002;2.076871e-001
6.711347e+002;2.035447e-001
6.730632e+002;2.008807e-001
6.749918e+002;1.981046e-001
6.769203e+002;1.964274e-001
6.788489e+002;1.967047e-001
6.807775e+002;1.960306e-001
6.827060e+002;1.950832e-001
6.846345e+002;1.928370e-001
6.865631e+002;1.915432e-001
6.884916e+002;1.920828e-001
6.904202e+002;1.924669e-001
6.923488e+002;1.921197e-001
6.942773e+002;1.909469e-001
6.962058e+002;1.901283e-001
6.981344e+002;1.889651e-001
7.000629e+002;1.869045e-001
7.019915e+002;1.852340e-001
7.039200e+002;1.841538e-001
7.058486e+002;1.822746e-001
7.077771e+002;1.799747e-001
7.097057e+002;1.779631e-001
7.116342e+002;1.759893e-001
7.135627e+002;1.744587e-001
7.154913e+002;1.727560e-001
7.174199e+002;1.712222e-001
7.193484e+002;1.695255e-001
7.212770e+002;1.686098e-001
7.232055e+002;1.678681e-001
7.251340e+002;1.658923e-001
7.270626e+002;1.644961e-001
7.289911e+002;1.642411e-001
7.309197e+002;1.638471e-001
7.328483e+002;1.623900e-001
7.347768e+002;1.615901e-001
7.367053e+002;1.623194e-001
7.386339e+002;1.627487e-001
7.405624e+002;1.627658e-001
7.424910e+002;1.623500e-001
7.444196e+002;1.617643e-001
7.463481e+002;1.606543e-001
7.482766e+002;1.591249e-001
7.502052e+002;1.577145e-001
7.521337e+002;1.567281e-001
7.540623e+002;1.554335e-001
7.559908e+002;1.532901e-001
7.579194e+002;1.508400e-001
7.598479e+002;1.488432e-001
7.617765e+002;1.481818e-001
7.637050e+002;1.471309e-001
7.656335e+002;1.460226e-001
7.675621e+002;1.448712e-001
7.694907e+002;1.432824e-001
7.714192e+002;1.419889e-001
7.733478e+002;1.407723e-001
7.752763e+002;1.396904e-001
7.772048e+002;1.389853e-001
7.791334e+002;1.379382e-001
7.810620e+002;1.365016e-001
7.829905e+002;1.354903e-001
7.849191e+002;1.339942e-001
7.868476e+002;1.331445e-001
7.887761e+002;1.326725e-001
7.907047e+002;1.324863e-001
7.926332e+002;1.321183e-001
7.945618e+002;1.301554e-001
7.964903e+002;1.293269e-001
7.984189e+002;1.293637e-001
8.003474e+002;1.283879e-001
8.022759e+002;1.280210e-001
8.042045e+002;1.281619e-001
8.061331e+002;1.277255e-001
8.080616e+002;1.271451e-001
8.099902e+002;1.269140e-001
8.119187e+002;1.263630e-001
8.138472e+002;1.261970e-001
8.157758e+002;1.262852e-001
8.177043e+002;1.263418e-001
8.196329e+002;1.265188e-001
8.215615e+002;1.266959e-001
8.234900e+002;1.270652e-001
8.254185e+002;1.274067e-001
8.273471e+002;1.273194e-001
8.292756e+002;1.268051e-001
8.312042e+002;1.258323e-001
8.331328e+002;1.243540e-001
8.350613e+002;1.226429e-001
8.369898e+002;1.208728e-001
8.389184e+002;1.197278e-001
8.408469e+002;1.190405e-001
8.427755e+002;1.183591e-001
8.447040e+002;1.172417e-001
8.466326e+002;1.160006e-001
8.485611e+002;1.155947e-001
8.504897e+002;1.151403e-001
8.524182e+002;1.150265e-001
8.543467e+002;1.147680e-001
8.562753e+002;1.142230e-001
8.582039e+002;1.137023e-001
8.601324e+002;1.130947e-001
8.620610e+002;1.129746e-001
8.639895e+002;1.131184e-001
8.659180e+002;1.132491e-001
8.678466e+002;1.133945e-001
8.697751e+002;1.135071e-001
8.717037e+002;1.136409e-001
8.736323e+002;1.135111e-001
8.755608e+002;1.137235e-001
8.774893e+002;1.142353e-001
8.794179e+002;1.143398e-001
8.813464e+002;1.144440e-001
8.832750e+002;1.148658e-001
8.852036e+002;1.153089e-001
8.871321e+002;1.154207e-001
8.890606e+002;1.149942e-001
8.909892e+002;1.142081e-001
8.929177e+002;1.134900e-001
8.948463e+002;1.128629e-001
8.967748e+002;1.125234e-001
8.987034e+002;1.124683e-001
9.006319e+002;1.125326e-001
9.025605e+002;1.126630e-001
9.044890e+002;1.129574e-001
9.064175e+002;1.130764e-001
9.083461e+002;1.131381e-001
9.102747e+002;1.132470e-001
9.122032e+002;1.133016e-001
9.141318e+002;1.136138e-001
9.160603e+002;1.139956e-001
9.179888e+002;1.146996e-001
9.199174e+002;1.151275e-001
9.218459e+002;1.152995e-001
9.237745e+002;1.157757e-001
9.257031e+002;1.158203e-001
9.276316e+002;1.158808e-001
9.295601e+002;1.162616e-001
9.314887e+002;1.165403e-001
9.334172e+002;1.167160e-001
9.353458e+002;1.166866e-001
9.372744e+002;1.162484e-001
9.392029e+002;1.160453e-001
9.411314e+002;1.157175e-001
9.430600e+002;1.154620e-001
9.449885e+002;1.154345e-001
9.469171e+002;1.152439e-001
9.488456e+002;1.152638e-001
9.507742e+002;1.156161e-001
9.527027e+002;1.158950e-001
9.546313e+002;1.160892e-001
9.565598e+002;1.164103e-001
9.584883e+002;1.171637e-001
9.604169e+002;1.179048e-001
9.623455e+002;1.184180e-001
9.642740e+002;1.188993e-001
9.662026e+002;1.195481e-001
9.681311e+002;1.203594e-001
9.700596e+002;1.208203e-001
9.719882e+002;1.212099e-001
9.739167e+002;1.216164e-001
9.758453e+002;1.218996e-001
9.777739e+002;1.225492e-001
9.797024e+002;1.233479e-001
9.816309e+002;1.238095e-001
9.835595e+002;1.244021e-001
9.854880e+002;1.257580e-001
9.874166e+002;1.276997e-001
9.893452e+002;1.294311e-001
9.912737e+002;1.309258e-001
9.932022e+002;1.319043e-001
9.951307e+002;1.326334e-001
9.970593e+002;1.335087e-001
9.989879e+002;1.345728e-001
1.000916e+003;1.362052e-001
1.002845e+003;1.380268e-001
1.004773e+003;1.398994e-001
1.006702e+003;1.416319e-001
1.008631e+003;1.432685e-001
1.010559e+003;1.448923e-001
1.012488e+003;1.463111e-001
1.014416e+003;1.478171e-001
1.016345e+003;1.496186e-001
1.018273e+003;1.515684e-001
1.020202e+003;1.532956e-001
1.022130e+003;1.551357e-001
1.024059e+003;1.576502e-001
1.025988e+003;1.601788e-001
1.027916e+003;1.633954e-001
1.029845e+003;1.674649e-001
1.031773e+003;1.712509e-001
1.033702e+003;1.748031e-001
1.035630e+003;1.782560e-001
1.037559e+003;1.814884e-001
1.039487e+003;1.844313e-001
1.041416e+003;1.865644e-001
1.043344e+003;1.877530e-001
1.045273e+003;1.874502e-001
1.047202e+003;1.855417e-001
1.049130e+003;1.830914e-001
1.051059e+003;1.806256e-001
1.052987e+003;1.783829e-001
1.054916e+003;1.767163e-001
1.056844e+003;1.764064e-001
1.058773e+003;1.762851e-001
1.060701e+003;1.765680e-001
1.062630e+003;1.773240e-001
1.064558e+003;1.776963e-001
1.066487e+003;1.781789e-001
1.068416e+003;1.787338e-001
1.070344e+003;1.792305e-001
1.072273e+003;1.796775e-001
1.074201e+003;1.800032e-001
1.076130e+003;1.796567e-001
1.078058e+003;1.792044e-001
1.079987e+003;1.786768e-001
1.081915e+003;1.782447e-001
1.083844e+003;1.779273e-001
1.085773e+003;1.774929e-001
1.087701e+003;1.771547e-001
1.089630e+003;1.768354e-001
1.091558e+003;1.760588e-001
1.093487e+003;1.753158e-001
1.095415e+003;1.751687e-001
1.097344e+003;1.753728e-001
1.099272e+003;1.747810e-001
1.101201e+003;1.737104e-001
1.103129e+003;1.728514e-001
1.105058e+003;1.720311e-001
1.106987e+003;1.713323e-001
1.108915e+003;1.700545e-001
1.110844e+003;1.688788e-001
1.112772e+003;1.680285e-001
1.114701e+003;1.675016e-001
1.116629e+003;1.673681e-001
1.118558e+003;1.674107e-001
1.120486e+003;1.669722e-001
1.122415e+003;1.666421e-001
1.124344e+003;1.666365e-001
1.126272e+003;1.665959e-001
1.128201e+003;1.666367e-001
1.130129e+003;1.665060e-001
1.132058e+003;1.665207e-001
1.133986e+003;1.671968e-001
1.135915e+003;1.681592e-001
1.137843e+003;1.692850e-001
1.139772e+003;1.705428e-001
1.141700e+003;1.719847e-001
1.143629e+003;1.731550e-001
1.145557e+003;1.748088e-001
1.147486e+003;1.767904e-001
1.149415e+003;1.787347e-001
1.151343e+003;1.797545e-001
1.153272e+003;1.801306e-001
1.155200e+003;1.803730e-001
1.157129e+003;1.804439e-001
1.159057e+003;1.806932e-001
1.160986e+003;1.813386e-001
1.162914e+003;1.822980e-001
1.164843e+003;1.834889e-001
1.166771e+003;1.849051e-001
1.168700e+003;1.863715e-001
1.170629e+003;1.878836e-001
1.172557e+003;1.888066e-001
1.174486e+003;1.893910e-001
1.176414e+003;1.902103e-001
1.178343e+003;1.912681e-001
1.180271e+003;1.923663e-001
1.182200e+003;1.933100e-001
1.184128e+003;1.941428e-001
1.186057e+003;1.953550e-001
1.187986e+003;1.968274e-001
1.189914e+003;1.980588e-001
1.191843e+003;1.990777e-001
1.193771e+003;2.002786e-001
1.195700e+003;2.013253e-001
1.197628e+003;2.023047e-001
1.199557e+003;2.036204e-001
1.201485e+003;2.050746e-001
1.203414e+003;2.059553e-001
1.205343e+003;2.067217e-001
1.207271e+003;2.079571e-001
1.209200e+003;2.093076e-001
1.211128e+003;2.104512e-001
1.213057e+003;2.114641e-001
1.214985e+003;2.129041e-001
1.216914e+003;2.142122e-001
1.218842e+003;2.152118e-001
1.220771e+003;2.163187e-001
1.222699e+003;2.172706e-001
1.224628e+003;2.178386e-001
1.226557e+003;2.180855e-001
1.228485e+003;2.183403e-001
1.230414e+003;2.182715e-001
1.232342e+003;2.178229e-001
1.234271e+003;2.174425e-001
1.236199e+003;2.167057e-001
1.238128e+003;2.157055e-001
1.240056e+003;2.143576e-001
1.241985e+003;2.132187e-001
1.243913e+003;2.119047e-001
1.245842e+003;2.105643e-001
1.247771e+003;2.093335e-001
1.249699e+003;2.079518e-001
1.251628e+003;2.068044e-001
1.253556e+003;2.059676e-001
1.255485e+003;2.049639e-001
1.257413e+003;2.034027e-001
1.259342e+003;2.017453e-001
1.261270e+003;2.001327e-001
1.263199e+003;1.983877e-001
1.265127e+003;1.966147e-001
1.267056e+003;1.951057e-001
1.268985e+003;1.936199e-001
1.270913e+003;1.927516e-001
1.272842e+003;1.924382e-001
1.274770e+003;1.919507e-001
1.276699e+003;1.912712e-001
1.278627e+003;1.908914e-001
1.280556e+003;1.903878e-001
1.282484e+003;1.894300e-001
1.284413e+003;1.883527e-001
1.286342e+003;1.870761e-001
1.288270e+003;1.857410e-001
1.290199e+003;1.846357e-001
1.292127e+003;1.836422e-001
1.294056e+003;1.826925e-001
1.295984e+003;1.818793e-001
1.297913e+003;1.807529e-001
1.299841e+003;1.793721e-001
1.301770e+003;1.782705e-001
1.303698e+003;1.776057e-001
1.305627e+003;1.767677e-001
1.307556e+003;1.761770e-001
1.309484e+003;1.759899e-001
1.311413e+003;1.761853e-001
1.313341e+003;1.764701e-001
1.315270e+003;1.768973e-001
1.317198e+003;1.775494e-001
1.319127e+003;1.781488e-001
1.321055e+003;1.784842e-001
1.322984e+003;1.784307e-001
1.324912e+003;1.781177e-001
1.326841e+003;1.780408e-001
1.328770e+003;1.776580e-001
1.330698e+003;1.766166e-001
1.332627e+003;1.754188e-001
1.334555e+003;1.741841e-001
1.336484e+003;1.725994e-001
1.338412e+003;1.708916e-001
1.340341e+003;1.694607e-001
1.342269e+003;1.681975e-001
1.344198e+003;1.669778e-001
1.346126e+003;1.659947e-001
1.348055e+003;1.649662e-001
1.349984e+003;1.636377e-001
1.351912e+003;1.625436e-001
1.353841e+003;1.617731e-001
1.355769e+003;1.614842e-001
1.357698e+003;1.617289e-001
1.359626e+003;1.621942e-001
1.361555e+003;1.629511e-001
1.363483e+003;1.639345e-001
1.365412e+003;1.652848e-001
1.367341e+003;1.666723e-001
1.369269e+003;1.675830e-001
1.371198e+003;1.680960e-001
1.373126e+003;1.681520e-001
1.375055e+003;1.684716e-001
1.376983e+003;1.692922e-001
1.378912e+003;1.700442e-001
1.380840e+003;1.711676e-001
1.382769e+003;1.724998e-001
1.384698e+003;1.736110e-001
1.386626e+003;1.741370e-001
1.388555e+003;1.742652e-001
1.390483e+003;1.742091e-001
1.392412e+003;1.736022e-001
1.394340e+003;1.730526e-001
1.396269e+003;1.730122e-001
1.398197e+003;1.732407e-001
1.400126e+003;1.736784e-001
1.402054e+003;1.741235e-001
1.403983e+003;1.744239e-001
1.405911e+003;1.747875e-001
1.407840e+003;1.751329e-001
1.409769e+003;1.755866e-001
1.411697e+003;1.758844e-001
1.413626e+003;1.761858e-001
1.415554e+003;1.766021e-001
1.417483e+003;1.767213e-001
1.419411e+003;1.768395e-001
1.421340e+003;1.775711e-001
1.423268e+003;1.787203e-001
1.425197e+003;1.799823e-001
1.427125e+003;1.815287e-001
1.429054e+003;1.835459e-001
1.430983e+003;1.858311e-001
1.432911e+003;1.884117e-001
1.434840e+003;1.909582e-001
1.436768e+003;1.932496e-001
1.438697e+003;1.958413e-001
1.440625e+003;1.978852e-001
1.442554e+003;1.991618e-001
1.444482e+003;1.999235e-001
1.446411e+003;2.003829e-001
1.448340e+003;2.005421e-001
1.450268e+003;2.008009e-001
1.452197e+003;2.014017e-001
1.454125e+003;2.017049e-001
1.456054e+003;2.005094e-001
1.457982e+003;1.994566e-001
1.459911e+003;1.988956e-001
1.461839e+003;1.973714e-001
1.463768e+003;1.955635e-001
1.465697e+003;1.942902e-001
1.467625e+003;1.933927e-001
1.469554e+003;1.923638e-001
1.471482e+003;1.911926e-001
1.473411e+003;1.906368e-001
1.475339e+003;1.913363e-001
1.477268e+003;1.930176e-001
1.479196e+003;1.958361e-001
1.481125e+003;1.998313e-001
1.483053e+003;2.049127e-001
1.484982e+003;2.111409e-001
1.486911e+003;2.182002e-001
1.488839e+003;2.258526e-001
1.490768e+003;2.344276e-001
1.492696e+003;2.432860e-001
1.494625e+003;2.516073e-001
1.496553e+003;2.596166e-001
1.498482e+003;2.670350e-001
1.500410e+003;2.731915e-001
1.502339e+003;2.780400e-001
1.504267e+003;2.815262e-001
1.506196e+003;2.846480e-001
1.508125e+003;2.885885e-001
1.510053e+003;2.920769e-001
1.511982e+003;2.939649e-001
1.513910e+003;2.946721e-001
1.515839e+003;2.935885e-001
1.517767e+003;2.902143e-001
1.519696e+003;2.851358e-001
1.521624e+003;2.801349e-001
1.523553e+003;2.768186e-001
1.525481e+003;2.737978e-001
1.527410e+003;2.705501e-001
1.529339e+003;2.669967e-001
1.531267e+003;2.630913e-001
1.533196e+003;2.588116e-001
1.535124e+003;2.545396e-001
1.537053e+003;2.493995e-001
1.538981e+003;2.435490e-001
1.540910e+003;2.386095e-001
1.542838e+003;2.344207e-001
1.544767e+003;2.296108e-001
1.546695e+003;2.241562e-001
1.548624e+003;2.183385e-001
1.550553e+003;2.122607e-001
1.552481e+003;2.060664e-001
1.554410e+003;2.001022e-001
1.556338e+003;1.942643e-001
1.558267e+003;1.879906e-001
1.560195e+003;1.829982e-001
1.562124e+003;1.793953e-001
1.564052e+003;1.754341e-001
1.565981e+003;1.715998e-001
1.567910e+003;1.683362e-001
1.569838e+003;1.655743e-001
1.571767e+003;1.637136e-001
1.573695e+003;1.621427e-001
1.575624e+003;1.610411e-001
1.577552e+003;1.613882e-001
1.579481e+003;1.624983e-001
1.581409e+003;1.637764e-001
1.583338e+003;1.653070e-001
1.585266e+003;1.674631e-001
1.587195e+003;1.702822e-001
1.589124e+003;1.734172e-001
1.591052e+003;1.770918e-001
1.592981e+003;1.812809e-001
1.594909e+003;1.858448e-001
1.596838e+003;1.905906e-001
1.598766e+003;1.957951e-001
1.600695e+003;2.019394e-001
1.602623e+003;2.091452e-001
1.604552e+003;2.174018e-001
1.606480e+003;2.261690e-001
1.608409e+003;2.349398e-001
1.610338e+003;2.442120e-001
1.612266e+003;2.535980e-001
1.614195e+003;2.619935e-001
1.616123e+003;2.698054e-001
1.618052e+003;2.784205e-001
1.619980e+003;2.870752e-001
1.621909e+003;2.948273e-001
1.623837e+003;3.024741e-001
1.625766e+003;3.098399e-001
1.627694e+003;3.161152e-001
1.629623e+003;3.212488e-001
1.631552e+003;3.251962e-001
1.633480e+003;3.280996e-001
1.635409e+003;3.298782e-001
1.637337e+003;3.312865e-001
1.639266e+003;3.321553e-001
1.641194e+003;3.316670e-001
1.643123e+003;3.299519e-001
1.645051e+003;3.269019e-001
1.646980e+003;3.232194e-001
1.648909e+003;3.195548e-001
1.650837e+003;3.142850e-001
1.652766e+003;3.071550e-001
1.654694e+003;3.008581e-001
1.656623e+003;2.947881e-001
1.658551e+003;2.875229e-001
1.660480e+003;2.795988e-001
1.662408e+003;2.714190e-001
1.664337e+003;2.635697e-001
1.666266e+003;2.556492e-001
1.668194e+003;2.472787e-001
1.670123e+003;2.388165e-001
1.672051e+003;2.308346e-001
1.673980e+003;2.230395e-001
1.675908e+003;2.152161e-001
1.677837e+003;2.076471e-001
1.679765e+003;2.001943e-001
1.681694e+003;1.924499e-001
1.683622e+003;1.841569e-001
1.685551e+003;1.766937e-001
1.687479e+003;1.700822e-001
1.689408e+003;1.631941e-001
1.691337e+003;1.560611e-001
1.693265e+003;1.484545e-001
1.695194e+003;1.402042e-001
1.697122e+003;1.324599e-001
1.699051e+003;1.249405e-001
1.700979e+003;1.176362e-001
1.702908e+003;1.115354e-001
1.704836e+003;1.054607e-001
1.706765e+003;9.985811e-002
1.708693e+003;9.466618e-002
1.710622e+003;9.010796e-002
1.712551e+003;8.616154e-002
1.714479e+003;8.252247e-002
1.716408e+003;7.912263e-002
1.718336e+003;7.678752e-002
1.720265e+003;7.530405e-002
1.722193e+003;7.357480e-002
1.724122e+003;7.180197e-002
1.726050e+003;7.024854e-002
1.727979e+003;6.855962e-002
1.729908e+003;6.692038e-002
1.731836e+003;6.493698e-002
1.733765e+003;6.289086e-002
1.735693e+003;6.193579e-002
1.737622e+003;6.091452e-002
1.739550e+003;5.926119e-002
1.741479e+003;5.804250e-002
1.743407e+003;5.672690e-002
1.745336e+003;5.543322e-002
1.747265e+003;5.415641e-002
1.749193e+003;5.274243e-002
1.751122e+003;5.158303e-002
1.753050e+003;5.083451e-002
1.754979e+003;4.993332e-002
1.756907e+003;4.902450e-002
1.758836e+003;4.815642e-002
1.760764e+003;4.721758e-002
1.762693e+003;4.652279e-002
1.764621e+003;4.610447e-002
1.766550e+003;4.537665e-002
1.768479e+003;4.474268e-002
1.770407e+003;4.400075e-002
1.772336e+003;4.334750e-002
1.774264e+003;4.341506e-002
1.776193e+003;4.354902e-002
1.778121e+003;4.325511e-002
1.780050e+003;4.269663e-002
1.781978e+003;4.242338e-002
1.783907e+003;4.235737e-002
1.785835e+003;4.211025e-002
1.787764e+003;4.183452e-002
1.789693e+003;4.151317e-002
1.791621e+003;4.107084e-002
1.793550e+003;4.086206e-002
1.795478e+003;4.080866e-002
1.797407e+003;4.057773e-002
1.799335e+003;4.020417e-002
1.801264e+003;3.985457e-002
1.803192e+003;3.990048e-002
1.805121e+003;3.983765e-002
1.807049e+003;3.964917e-002
1.808978e+003;3.961145e-002
1.810907e+003;3.954402e-002
1.812835e+003;3.925609e-002
1.814764e+003;3.911217e-002
1.816692e+003;3.896945e-002
1.818621e+003;3.877515e-002
1.820549e+003;3.858090e-002
1.822478e+003;3.843216e-002
1.824406e+003;3.831699e-002
1.826335e+003;3.822660e-002
1.828264e+003;3.813608e-002
1.830192e+003;3.805104e-002
1.832121e+003;3.779645e-002
1.834049e+003;3.762479e-002
1.835978e+003;3.779136e-002
1.837906e+003;3.792711e-002
1.839835e+003;3.781597e-002
1.841763e+003;3.767671e-002
1.843692e+003;3.727971e-002
1.845620e+003;3.712125e-002
1.847549e+003;3.723766e-002
1.849478e+003;3.727000e-002
1.851406e+003;3.722361e-002
1.853335e+003;3.709032e-002
1.855263e+003;3.691508e-002
1.857192e+003;3.696428e-002
1.859120e+003;3.710573e-002
1.861049e+003;3.707206e-002
1.862977e+003;3.698589e-002
1.864906e+003;3.693697e-002
1.866834e+003;3.672479e-002
1.868763e+003;3.645560e-002
1.870692e+003;3.644810e-002
1.872620e+003;3.672487e-002
1.874549e+003;3.671600e-002
1.876477e+003;3.652140e-002
1.878406e+003;3.649322e-002
1.880334e+003;3.649257e-002
1.882263e+003;3.646911e-002
1.884191e+003;3.638721e-002
1.886120e+003;3.636930e-002
1.888048e+003;3.658044e-002
1.889977e+003;3.677491e-002
1.891906e+003;3.683330e-002
1.893834e+003;3.674221e-002
1.895763e+003;3.672706e-002
1.897691e+003;3.668048e-002
1.899620e+003;3.680009e-002
1.901548e+003;3.685559e-002
1.903477e+003;3.667255e-002
1.905405e+003;3.661602e-002
1.907334e+003;3.670860e-002
1.909262e+003;3.657583e-002
1.911191e+003;3.646915e-002
1.913120e+003;3.654941e-002
1.915048e+003;3.665993e-002
1.916977e+003;3.657399e-002
1.918905e+003;3.649210e-002
1.920834e+003;3.654029e-002
1.922762e+003;3.665290e-002
1.924691e+003;3.671520e-002
1.926619e+003;3.662186e-002
1.928548e+003;3.656400e-002
1.930477e+003;3.669573e-002
1.932405e+003;3.668423e-002
1.934334e+003;3.653610e-002
1.936262e+003;3.658628e-002
1.938191e+003;3.660034e-002
1.940119e+003;3.633086e-002
1.942048e+003;3.629127e-002
1.943976e+003;3.659388e-002
1.945905e+003;3.678173e-002
1.947833e+003;3.691504e-002
1.949762e+003;3.706712e-002
1.951691e+003;3.700631e-002
1.953619e+003;3.679338e-002
1.955548e+003;3.694870e-002
1.957476e+003;3.693647e-002
1.959405e+003;3.678303e-002
1.961333e+003;3.685498e-002
1.963262e+003;3.682494e-002
1.965190e+003;3.673925e-002
1.967119e+003;3.676597e-002
1.969047e+003;3.679800e-002
1.970976e+003;3.684885e-002
1.972905e+003;3.692060e-002
1.974833e+003;3.689953e-002
1.976762e+003;3.699405e-002
1.978690e+003;3.702483e-002
1.980619e+003;3.688932e-002
1.982547e+003;3.677124e-002
1.984476e+003;3.681307e-002
1.986404e+003;3.700985e-002
1.988333e+003;3.701649e-002
1.990261e+003;3.693008e-002
1.992190e+003;3.699159e-002
1.994119e+003;3.709342e-002
1.996047e+003;3.696197e-002
1.997976e+003;3.694484e-002
1.999904e+003;3.696746e-002
2.001833e+003;3.697453e-002
2.003761e+003;3.702215e-002
2.005690e+003;3.700606e-002
2.007618e+003;3.699863e-002
2.009547e+003;3.696959e-002
2.011476e+003;3.714222e-002
2.013404e+003;3.733730e-002
2.015333e+003;3.723997e-002
2.017261e+003;3.715348e-002
2.019190e+003;3.719568e-002
2.021118e+003;3.724773e-002
2.023047e+003;3.741032e-002
2.024975e+003;3.752374e-002
2.026904e+003;3.746576e-002
2.028833e+003;3.751001e-002
2.030761e+003;3.756676e-002
2.032690e+003;3.757262e-002
2.034618e+003;3.764152e-002
2.036547e+003;3.748837e-002
2.038475e+003;3.741639e-002
2.040404e+003;3.743549e-002
2.042332e+003;3.746219e-002
2.044261e+003;3.745551e-002
2.046189e+003;3.739086e-002
2.048118e+003;3.734041e-002
2.050047e+003;3.743474e-002
2.051975e+003;3.752269e-002
2.053904e+003;3.771932e-002
2.055832e+003;3.783238e-002
2.057761e+003;3.777086e-002
2.059689e+003;3.780560e-002
2.061618e+003;3.772091e-002
2.063546e+003;3.758660e-002
2.065475e+003;3.752576e-002
2.067404e+003;3.752789e-002
2.069332e+003;3.754400e-002
2.071260e+003;3.762179e-002
2.073189e+003;3.766464e-002
2.075118e+003;3.758179e-002
2.077046e+003;3.745753e-002
2.078975e+003;3.739873e-002
2.080903e+003;3.762887e-002
2.082832e+003;3.767158e-002
2.084760e+003;3.739787e-002
2.086689e+003;3.742777e-002
2.088617e+003;3.758942e-002
2.090546e+003;3.755690e-002
2.092475e+003;3.743116e-002
2.094403e+003;3.734503e-002
2.096332e+003;3.747118e-002
2.098260e+003;3.763437e-002
2.100189e+003;3.756163e-002
2.102117e+003;3.731571e-002
2.104046e+003;3.729336e-002
2.105974e+003;3.749545e-002
2.107903e+003;3.750062e-002
2.109832e+003;3.724300e-002
2.111760e+003;3.710580e-002
2.113688e+003;3.714283e-002
2.115617e+003;3.722730e-002
2.117546e+003;3.727701e-002
2.119474e+003;3.713709e-002
2.121403e+003;3.708624e-002
2.123331e+003;3.725054e-002
2.125260e+003;3.734377e-002
2.127188e+003;3.722766e-002
2.129117e+003;3.719354e-002
2.131045e+003;3.738555e-002
2.132974e+003;3.738768e-002
2.134903e+003;3.731864e-002
2.136831e+003;3.717463e-002
2.138760e+003;3.709425e-002
2.140688e+003;3.716838e-002
2.142617e+003;3.717907e-002
2.144545e+003;3.704088e-002
2.146474e+003;3.691471e-002
2.148402e+003;3.677495e-002
2.150331e+003;3.678440e-002
2.152260e+003;3.712204e-002
2.154188e+003;3.731929e-002
2.156117e+003;3.708141e-002
2.158045e+003;3.688838e-002
2.159974e+003;3.697208e-002
2.161902e+003;3.686843e-002
2.163831e+003;3.667500e-002
2.165759e+003;3.678779e-002
2.167688e+003;3.686357e-002
2.169616e+003;3.684632e-002
2.171545e+003;3.696970e-002
2.173474e+003;3.696807e-002
2.175402e+003;3.699416e-002
2.177331e+003;3.715958e-002
2.179259e+003;3.706416e-002
2.181188e+003;3.693477e-002
2.183116e+003;3.700007e-002
2.185045e+003;3.691518e-002
2.186973e+003;3.694599e-002
2.188902e+003;3.708924e-002
2.190831e+003;3.695360e-002
2.192759e+003;3.684661e-002
2.194688e+003;3.701093e-002
2.196616e+003;3.729149e-002
2.198545e+003;3.722051e-002
2.200473e+003;3.699419e-002
2.202402e+003;3.685375e-002
2.204330e+003;3.701710e-002
2.206259e+003;3.714149e-002
2.208188e+003;3.709819e-002
2.210116e+003;3.716860e-002
2.212044e+003;3.728037e-002
2.213973e+003;3.728675e-002
2.215902e+003;3.712413e-002
2.217830e+003;3.706358e-002
2.219759e+003;3.715081e-002
2.221687e+003;3.735355e-002
2.223616e+003;3.734557e-002
2.225544e+003;3.731430e-002
2.227473e+003;3.749025e-002
2.229401e+003;3.757547e-002
2.231330e+003;3.736655e-002
2.233259e+003;3.707827e-002
2.235187e+003;3.707700e-002
2.237116e+003;3.715153e-002
2.239044e+003;3.723444e-002
2.240973e+003;3.730098e-002
2.242901e+003;3.724412e-002
2.244830e+003;3.731849e-002
2.246758e+003;3.724596e-002
2.248687e+003;3.710223e-002
2.250615e+003;3.708123e-002
2.252544e+003;3.710349e-002
2.254473e+003;3.700642e-002
2.256401e+003;3.706758e-002
2.258330e+003;3.718809e-002
2.260258e+003;3.714456e-002
2.262187e+003;3.707123e-002
2.264115e+003;3.700837e-002
2.266044e+003;3.714496e-002
2.267972e+003;3.729741e-002
2.269901e+003;3.741191e-002
2.271830e+003;3.732557e-002
2.273758e+003;3.733041e-002
2.275687e+003;3.759310e-002
2.277615e+003;3.748823e-002
2.279544e+003;3.727119e-002
2.281472e+003;3.737815e-002
2.283401e+003;3.736720e-002
2.285329e+003;3.728372e-002
2.287258e+003;3.743958e-002
2.289187e+003;3.764737e-002
2.291115e+003;3.769822e-002
2.293043e+003;3.769344e-002
2.294972e+003;3.767747e-002
2.296901e+003;3.767108e-002
2.298829e+003;3.757077e-002
2.300758e+003;3.752089e-002
2.302686e+003;3.764571e-002
2.304615e+003;3.782602e-002
2.306543e+003;3.778713e-002
2.308472e+003;3.768918e-002
2.310400e+003;3.762609e-002
2.312329e+003;3.758573e-002
2.314258e+003;3.763454e-002
2.316186e+003;3.763711e-002
2.318115e+003;3.755784e-002
2.320043e+003;3.774223e-002
2.321972e+003;3.771191e-002
2.323900e+003;3.761449e-002
2.325829e+003;3.770237e-002
2.327757e+003;3.767314e-002
2.329686e+003;3.760524e-002
2.331615e+003;3.768235e-002
2.333543e+003;3.780571e-002
2.335472e+003;3.787765e-002
2.337400e+003;3.784204e-002
2.339329e+003;3.762179e-002
2.341257e+003;3.749040e-002
2.343186e+003;3.768477e-002
2.345114e+003;3.808012e-002
2.347043e+003;3.845805e-002
2.348971e+003;3.859035e-002
2.350900e+003;3.852028e-002
2.352829e+003;3.821889e-002
2.354757e+003;3.784417e-002
2.356686e+003;3.790368e-002
2.358614e+003;3.819747e-002
2.360543e+003;3.828619e-002
2.362471e+003;3.829977e-002
2.364400e+003;3.825095e-002
2.366328e+003;3.835905e-002
2.368257e+003;3.854653e-002
2.370186e+003;3.887602e-002
2.372114e+003;3.903045e-002
2.374042e+003;3.909665e-002
2.375971e+003;3.932269e-002
2.377900e+003;3.968899e-002
2.379828e+003;4.010274e-002
2.381757e+003;4.025979e-002
2.383685e+003;4.023325e-002
2.385614e+003;4.025942e-002
2.387542e+003;4.046992e-002
2.389471e+003;4.069132e-002
2.391399e+003;4.088437e-002
2.393328e+003;4.083628e-002
2.395257e+003;4.076975e-002
2.397185e+003;4.091728e-002
2.399114e+003;4.108075e-002
2.401042e+003;4.121658e-002
2.402971e+003;4.137407e-002
2.404899e+003;4.140917e-002
2.406828e+003;4.138669e-002
2.408756e+003;4.150483e-002
2.410685e+003;4.179063e-002
2.412614e+003;4.200355e-002
2.414542e+003;4.203676e-002
2.416471e+003;4.216301e-002
2.418399e+003;4.230232e-002
2.420328e+003;4.247541e-002
2.422256e+003;4.247431e-002
2.424185e+003;4.241907e-002
2.426113e+003;4.265865e-002
2.428042e+003;4.297229e-002
2.429970e+003;4.293827e-002
2.431899e+003;4.286958e-002
2.433828e+003;4.315519e-002
2.435756e+003;4.342505e-002
2.437685e+003;4.354485e-002
2.439613e+003;4.374675e-002
2.441542e+003;4.389190e-002
2.443470e+003;4.383336e-002
2.445399e+003;4.383757e-002
2.447327e+003;4.412393e-002
2.449256e+003;4.415511e-002
2.451185e+003;4.436111e-002
2.453113e+003;4.483260e-002
2.455042e+003;4.491016e-002
2.456970e+003;4.489579e-002
2.458899e+003;4.472556e-002
2.460827e+003;4.472791e-002
2.462756e+003;4.486295e-002
2.464684e+003;4.510774e-002
2.466613e+003;4.544125e-002
2.468542e+003;4.564783e-002
2.470470e+003;4.568729e-002
2.472398e+003;4.580152e-002
2.474327e+003;4.572211e-002
2.476256e+003;4.564974e-002
2.478184e+003;4.585322e-002
2.480113e+003;4.613350e-002
2.482041e+003;4.632135e-002
2.483970e+003;4.646441e-002
2.485898e+003;4.664665e-002
2.487827e+003;4.671380e-002
2.489755e+003;4.663101e-002
2.491684e+003;4.667118e-002
2.493613e+003;4.694775e-002
2.495541e+003;4.703839e-002
2.497470e+003;4.706749e-002
2.499398e+003;4.719003e-002
2.501327e+003;4.726557e-002
2.503255e+003;4.700124e-002
2.505184e+003;4.704094e-002
2.507112e+003;4.748163e-002
2.509041e+003;4.762658e-002
2.510969e+003;4.748559e-002
2.512898e+003;4.764673e-002
2.514827e+003;4.790827e-002
2.516755e+003;4.809793e-002
2.518684e+003;4.810274e-002
2.520612e+003;4.804149e-002
2.522541e+003;4.809890e-002
2.524469e+003;4.824449e-002
2.526398e+003;4.845919e-002
2.528326e+003;4.868579e-002
2.530255e+003;4.883986e-002
2.532184e+003;4.877605e-002
2.534112e+003;4.849510e-002
2.536041e+003;4.848139e-002
2.537969e+003;4.876667e-002
2.539898e+003;4.894283e-002
2.541826e+003;4.900095e-002
2.543755e+003;4.888105e-002
2.545683e+003;4.887508e-002
2.547612e+003;4.908004e-002
2.549541e+003;4.901950e-002
2.551469e+003;4.917624e-002
2.553397e+003;4.946295e-002
2.555326e+003;4.947301e-002
2.557255e+003;4.952106e-002
2.559183e+003;4.964905e-002
2.561112e+003;4.980863e-002
2.563040e+003;4.983665e-002
2.564969e+003;4.982476e-002
2.566897e+003;4.976289e-002
2.568826e+003;5.000771e-002
2.570754e+003;5.030817e-002
2.572683e+003;5.039564e-002
2.574612e+003;5.035423e-002
2.576540e+003;5.030478e-002
2.578469e+003;5.039133e-002
2.580397e+003;5.071931e-002
2.582326e+003;5.091866e-002
2.584254e+003;5.097678e-002
2.586183e+003;5.101646e-002
2.588111e+003;5.135596e-002
2.590040e+003;5.150438e-002
2.591969e+003;5.127486e-002
2.593897e+003;5.122706e-002
2.595826e+003;5.115519e-002
2.597754e+003;5.137972e-002
2.599683e+003;5.178520e-002
2.601611e+003;5.193174e-002
2.603540e+003;5.173947e-002
2.605468e+003;5.185370e-002
2.607397e+003;5.208077e-002
2.609325e+003;5.191531e-002
2.611254e+003;5.211237e-002
2.613183e+003;5.218055e-002
2.615111e+003;5.212612e-002
2.617040e+003;5.215825e-002
2.618968e+003;5.242913e-002
2.620897e+003;5.253603e-002
2.622825e+003;5.242782e-002
2.624754e+003;5.242928e-002
2.626682e+003;5.237063e-002
2.628611e+003;5.235470e-002
2.630540e+003;5.262579e-002
2.632468e+003;5.285599e-002
2.634396e+003;5.278564e-002
2.636325e+003;5.299747e-002
2.638254e+003;5.324516e-002
2.640182e+003;5.324303e-002
2.642111e+003;5.313779e-002
2.644039e+003;5.312825e-002
2.645968e+003;5.311023e-002
2.647896e+003;5.328101e-002
2.649825e+003;5.340322e-002
2.651753e+003;5.342975e-002
2.653682e+003;5.346663e-002
2.655611e+003;5.345407e-002
2.657539e+003;5.350107e-002
2.659468e+003;5.338370e-002
2.661396e+003;5.355534e-002
2.663325e+003;5.384228e-002
2.665253e+003;5.385275e-002
2.667182e+003;5.374613e-002
2.669110e+003;5.388340e-002
2.671039e+003;5.409512e-002
2.672968e+003;5.423423e-002
2.674896e+003;5.434461e-002
2.676825e+003;5.424875e-002
2.678753e+003;5.409291e-002
2.680682e+003;5.405392e-002
2.682610e+003;5.411197e-002
2.684539e+003;5.444564e-002
2.686467e+003;5.487075e-002
2.688396e+003;5.499491e-002
2.690324e+003;5.485564e-002
2.692253e+003;5.490294e-002
2.694182e+003;5.491580e-002
2.696110e+003;5.503369e-002
2.698039e+003;5.520891e-002
2.699967e+003;5.520891e-002
2.701896e+003;5.548977e-002
2.703824e+003;5.592356e-002
2.705753e+003;5.605187e-002
2.707681e+003;5.588738e-002
2.709610e+003;5.576184e-002
2.711539e+003;5.564453e-002
2.713467e+003;5.592186e-002
2.715396e+003;5.654200e-002
2.717324e+003;5.691217e-002
2.719253e+003;5.694205e-002
2.721181e+003;5.709080e-002
2.723110e+003;5.731518e-002
2.725038e+003;5.736823e-002
2.726967e+003;5.753123e-002
2.728896e+003;5.778172e-002
2.730824e+003;5.804470e-002
2.732752e+003;5.831129e-002
2.734681e+003;5.854623e-002
2.736610e+003;5.849106e-002
2.738538e+003;5.836654e-002
2.740467e+003;5.845778e-002
2.742395e+003;5.850952e-002
2.744324e+003;5.850869e-002
2.746252e+003;5.855070e-002
2.748181e+003;5.877132e-002
2.750109e+003;5.932347e-002
2.752038e+003;5.979568e-002
2.753967e+003;5.980165e-002
2.755895e+003;5.990612e-002
2.757824e+003;5.992107e-002
2.759752e+003;5.986919e-002
2.761681e+003;6.001073e-002
2.763609e+003;6.023635e-002
2.765538e+003;6.053457e-002
2.767466e+003;6.074704e-002
2.769395e+003;6.070688e-002
2.771323e+003;6.051125e-002
2.773252e+003;6.047945e-002
2.775181e+003;6.094236e-002
2.777109e+003;6.146724e-002
2.779038e+003;6.167326e-002
2.780966e+003;6.161873e-002
2.782895e+003;6.172166e-002
2.784823e+003;6.203179e-002
2.786752e+003;6.202411e-002
2.788680e+003;6.200641e-002
2.790609e+003;6.224363e-002
2.792538e+003;6.258995e-002
2.794466e+003;6.271584e-002
2.796395e+003;6.282323e-002
2.798323e+003;6.305683e-002
2.800252e+003;6.331540e-002
2.802180e+003;6.363802e-002
2.804109e+003;6.410991e-002
2.806037e+003;6.458378e-002
2.807966e+003;6.472794e-002
2.809895e+003;6.484038e-002
2.811823e+003;6.516024e-002
2.813751e+003;6.538294e-002
2.815680e+003;6.534515e-002
2.817609e+003;6.539253e-002
2.819537e+003;6.549365e-002
2.821466e+003;6.572962e-002
2.823394e+003;6.599128e-002
2.825323e+003;6.621463e-002
2.827251e+003;6.654869e-002
2.829180e+003;6.679999e-002
2.831108e+003;6.705280e-002
2.833037e+003;6.736737e-002
2.834966e+003;6.788134e-002
2.836894e+003;6.856529e-002
2.838823e+003;6.930923e-002
2.840751e+003;6.979024e-002
2.842680e+003;7.006663e-002
2.844608e+003;7.079346e-002
2.846537e+003;7.190303e-002
2.848465e+003;7.260818e-002
2.850394e+003;7.304645e-002
2.852323e+003;7.379077e-002
2.854251e+003;7.473715e-002
2.856180e+003;7.544862e-002
2.858108e+003;7.633902e-002
2.860037e+003;7.693619e-002
2.861965e+003;7.744969e-002
2.863894e+003;7.823131e-002
2.865822e+003;7.908240e-002
2.867751e+003;7.989039e-002
2.869679e+003;8.077107e-002
2.871608e+003;8.144894e-002
2.873536e+003;8.188938e-002
2.875465e+003;8.229795e-002
2.877394e+003;8.224104e-002
2.879322e+003;8.190542e-002
2.881251e+003;8.141964e-002
2.883179e+003;8.113138e-002
2.885108e+003;8.128302e-002
2.887036e+003;8.126688e-002
2.888965e+003;8.112631e-002
2.890893e+003;8.094841e-002
2.892822e+003;8.098407e-002
2.894750e+003;8.120009e-002
2.896679e+003;8.143479e-002
2.898608e+003;8.180957e-002
2.900536e+003;8.247800e-002
2.902465e+003;8.306802e-002
2.904393e+003;8.363225e-002
2.906322e+003;8.431983e-002
2.908250e+003;8.527196e-002
2.910179e+003;8.586410e-002
2.912107e+003;8.630533e-002
2.914036e+003;8.706201e-002
2.915965e+003;8.775192e-002
2.917893e+003;8.882796e-002
2.919822e+003;9.010450e-002
2.921750e+003;9.102340e-002
2.923679e+003;9.187965e-002
2.925607e+003;9.260827e-002
2.927536e+003;9.331670e-002
2.929464e+003;9.354606e-002
2.931393e+003;9.371702e-002
2.933322e+003;9.416053e-002
2.935250e+003;9.430975e-002
2.937178e+003;9.396154e-002
2.939107e+003;9.341961e-002
2.941036e+003;9.270526e-002
2.942964e+003;9.206773e-002
2.944893e+003;9.208542e-002
2.946821e+003;9.216288e-002
2.948750e+003;9.214896e-002
2.950678e+003;9.213606e-002
2.952607e+003;9.222651e-002
2.954535e+003;9.277340e-002
2.956464e+003;9.319202e-002
2.958393e+003;9.351712e-002
2.960321e+003;9.345359e-002
2.962250e+003;9.279408e-002
2.964178e+003;9.254257e-002
2.966107e+003;9.254405e-002
2.968035e+003;9.175733e-002
2.969964e+003;9.070686e-002
2.971892e+003;8.975431e-002
2.973821e+003;8.896275e-002
2.975750e+003;8.821826e-002
2.977678e+003;8.731895e-002
2.979607e+003;8.643149e-002
2.981535e+003;8.530830e-002
2.983464e+003;8.404902e-002
2.985392e+003;8.288355e-002
2.987321e+003;8.185969e-002
2.989249e+003;8.128474e-002
2.991178e+003;8.095968e-002
2.993106e+003;8.044536e-002
2.995035e+003;7.980382e-002
2.996964e+003;7.902826e-002
2.998892e+003;7.870965e-002
3.000821e+003;7.880593e-002
3.002749e+003;7.879564e-002
3.004678e+003;7.857288e-002
3.006606e+003;7.835983e-002
3.008535e+003;7.813396e-002
3.010463e+003;7.810429e-002
3.012392e+003;7.828757e-002
3.014321e+003;7.828496e-002
3.016249e+003;7.807824e-002
3.018177e+003;7.835361e-002
3.020106e+003;7.889358e-002
3.022035e+003;7.940841e-002
3.023963e+003;7.963255e-002
3.025892e+003;7.972538e-002
3.027820e+003;8.001610e-002
3.029749e+003;8.049385e-002
3.031677e+003;8.087736e-002
3.033606e+003;8.100427e-002
3.035534e+003;8.113638e-002
3.037463e+003;8.151062e-002
3.039392e+003;8.207767e-002
3.041320e+003;8.233331e-002
3.043249e+003;8.244495e-002
3.045177e+003;8.266113e-002
3.047106e+003;8.327199e-002
3.049034e+003;8.379915e-002
3.050963e+003;8.393982e-002
3.052891e+003;8.431665e-002
3.054820e+003;8.432063e-002
3.056749e+003;8.430526e-002
3.058677e+003;8.435547e-002
3.060606e+003;8.456798e-002
3.062534e+003;8.477060e-002
3.064463e+003;8.446417e-002
3.066391e+003;8.440513e-002
3.068320e+003;8.457998e-002
3.070248e+003;8.435306e-002
3.072177e+003;8.429102e-002
3.074105e+003;8.408480e-002
3.076034e+003;8.367579e-002
3.077963e+003;8.364032e-002
3.079891e+003;8.360570e-002
3.081820e+003;8.359947e-002
3.083748e+003;8.369841e-002
3.085677e+003;8.373208e-002
3.087605e+003;8.312022e-002
3.089534e+003;8.273705e-002
3.091462e+003;8.284747e-002
3.093391e+003;8.248621e-002
3.095320e+003;8.201971e-002
3.097248e+003;8.180397e-002
3.099177e+003;8.183629e-002
3.101105e+003;8.167163e-002
3.103034e+003;8.181149e-002
3.104962e+003;8.202995e-002
3.106891e+003;8.169945e-002
3.108819e+003;8.147332e-002
3.110748e+003;8.158357e-002
3.112677e+003;8.186489e-002
3.114605e+003;8.212914e-002
3.116533e+003;8.223841e-002
3.118462e+003;8.236548e-002
3.120391e+003;8.243454e-002
3.122319e+003;8.250352e-002
3.124248e+003;8.261344e-002
3.126176e+003;8.280809e-002
3.128105e+003;8.313795e-002
3.130033e+003;8.343442e-002
3.131962e+003;8.377814e-002
3.133890e+003;8.444469e-002
3.135819e+003;8.483461e-002
3.137748e+003;8.484552e-002
3.139676e+003;8.488613e-002
3.141605e+003;8.555242e-002
3.143533e+003;8.636078e-002
3.145462e+003;8.663094e-002
3.147390e+003;8.682869e-002
3.149319e+003;8.728192e-002
3.151247e+003;8.807103e-002
3.153176e+003;8.884902e-002
3.155104e+003;8.966754e-002
3.157033e+003;9.018935e-002
3.158962e+003;9.042485e-002
3.160890e+003;9.102957e-002
3.162819e+003;9.163019e-002
3.164747e+003;9.198705e-002
3.166676e+003;9.282969e-002
3.168604e+003;9.370908e-002
3.170533e+003;9.405309e-002
3.172461e+003;9.404182e-002
3.174390e+003;9.465337e-002
3.176319e+003;9.563568e-002
3.178247e+003;9.645934e-002
3.180176e+003;9.723634e-002
3.182104e+003;9.782087e-002
3.184033e+003;9.797508e-002
3.185961e+003;9.832781e-002
3.187890e+003;9.900569e-002
3.189818e+003;9.945299e-002
3.191747e+003;1.003736e-001
3.193676e+003;1.011442e-001
3.195604e+003;1.012518e-001
3.197532e+003;1.013026e-001
3.199461e+003;1.015970e-001
3.201390e+003;1.018084e-001
3.203318e+003;1.022481e-001
3.205247e+003;1.029834e-001
3.207175e+003;1.033638e-001
3.209104e+003;1.037079e-001
3.211032e+003;1.041271e-001
3.212961e+003;1.042096e-001
3.214889e+003;1.042619e-001
3.216818e+003;1.045155e-001
3.218747e+003;1.050532e-001
3.220675e+003;1.052455e-001
3.222604e+003;1.052598e-001
3.224532e+003;1.057527e-001
3.226461e+003;1.064350e-001
3.228389e+003;1.070147e-001
3.230318e+003;1.074079e-001
3.232246e+003;1.074049e-001
3.234175e+003;1.071419e-001
3.236104e+003;1.076297e-001
3.238032e+003;1.084174e-001
3.239961e+003;1.088209e-001
3.241889e+003;1.095217e-001
3.243818e+003;1.105434e-001
3.245746e+003;1.107543e-001
3.247675e+003;1.107771e-001
3.249603e+003;1.117820e-001
3.251532e+003;1.126594e-001
3.253460e+003;1.131364e-001
3.255389e+003;1.137646e-001
3.257318e+003;1.142677e-001
3.259246e+003;1.144228e-001
3.261175e+003;1.150083e-001
3.263103e+003;1.161018e-001
3.265032e+003;1.168338e-001
3.266960e+003;1.168192e-001
3.268889e+003;1.169362e-001
3.270817e+003;1.175369e-001
3.272746e+003;1.179989e-001
3.274675e+003;1.181285e-001
3.276603e+003;1.182778e-001
3.278531e+003;1.186421e-001
3.280460e+003;1.189195e-001
3.282389e+003;1.188034e-001
3.284317e+003;1.189231e-001
3.286246e+003;1.195981e-001
3.288174e+003;1.193487e-001
3.290103e+003;1.187020e-001
3.292031e+003;1.182408e-001
3.293960e+003;1.181966e-001
3.295888e+003;1.182612e-001
3.297817e+003;1.179151e-001
3.299746e+003;1.175675e-001
3.301674e+003;1.171297e-001
3.303603e+003;1.166685e-001
3.305531e+003;1.165832e-001
3.307460e+003;1.164661e-001
3.309388e+003;1.158301e-001
3.311317e+003;1.151941e-001
3.313245e+003;1.149779e-001
3.315174e+003;1.144782e-001
3.317103e+003;1.140671e-001
3.319031e+003;1.133963e-001
3.320960e+003;1.125336e-001
3.322888e+003;1.120013e-001
3.324817e+003;1.119412e-001
3.326745e+003;1.108655e-001
3.328674e+003;1.094603e-001
3.330602e+003;1.092299e-001
3.332531e+003;1.092707e-001
3.334459e+003;1.087817e-001
3.336388e+003;1.079245e-001
3.338317e+003;1.072348e-001
3.340245e+003;1.064237e-001
3.342174e+003;1.054817e-001
3.344102e+003;1.048434e-001
3.346031e+003;1.043601e-001
3.347959e+003;1.038230e-001
3.349888e+003;1.031712e-001
3.351816e+003;1.024368e-001
3.353745e+003;1.013772e-001
3.355674e+003;1.001615e-001
3.357602e+003;9.951831e-002
3.359531e+003;9.938595e-002
3.361459e+003;9.852053e-002
3.363388e+003;9.710799e-002
3.365316e+003;9.622708e-002
3.367245e+003;9.565382e-002
3.369173e+003;9.501801e-002
3.371102e+003;9.392938e-002
3.373031e+003;9.287167e-002
3.374959e+003;9.249879e-002
3.376887e+003;9.182950e-002
3.378816e+003;9.069166e-002
3.380745e+003;8.984558e-002
3.382673e+003;8.924905e-002
3.384602e+003;8.874788e-002
3.386530e+003;8.795011e-002
3.388459e+003;8.706505e-002
3.390387e+003;8.631110e-002
3.392316e+003;8.583382e-002
3.394244e+003;8.526386e-002
3.396173e+003;8.457004e-002
3.398102e+003;8.360714e-002
3.400030e+003;8.322687e-002
3.401959e+003;8.322503e-002
3.403887e+003;8.240160e-002
3.405816e+003;8.149450e-002
3.407744e+003;8.111601e-002
3.409673e+003;8.054554e-002
3.411601e+003;7.977033e-002
3.413530e+003;7.886104e-002
3.415458e+003;7.801174e-002
3.417387e+003;7.755695e-002
3.419316e+003;7.675375e-002
3.421244e+003;7.551340e-002
3.423173e+003;7.485127e-002
3.425101e+003;7.457536e-002
3.427030e+003;7.376195e-002
3.428958e+003;7.240031e-002
3.430887e+003;7.145377e-002
3.432815e+003;7.102432e-002
3.434744e+003;7.039887e-002
3.436673e+003;6.971928e-002
3.438601e+003;6.901968e-002
3.440530e+003;6.822595e-002
3.442458e+003;6.758834e-002
3.444387e+003;6.684037e-002
3.446315e+003;6.589880e-002
3.448244e+003;6.560586e-002
3.450172e+003;6.526374e-002
3.452101e+003;6.442126e-002
3.454030e+003;6.395867e-002
3.455958e+003;6.389748e-002
3.457886e+003;6.355409e-002
3.459815e+003;6.277300e-002
3.461744e+003;6.243226e-002
3.463672e+003;6.244894e-002
3.465601e+003;6.199525e-002
3.467529e+003;6.144358e-002
3.469458e+003;6.087046e-002
3.471386e+003;6.007898e-002
3.473315e+003;5.947126e-002
3.475243e+003;5.972131e-002
3.477172e+003;5.993746e-002
3.479101e+003;5.936344e-002
3.481029e+003;5.815962e-002
3.482958e+003;5.724187e-002
3.484886e+003;5.691799e-002
3.486815e+003;5.651554e-002
3.488743e+003;5.613534e-002
3.490672e+003;5.580241e-002
3.492600e+003;5.522378e-002
3.494529e+003;5.454086e-002
3.496458e+003;5.399868e-002
3.498386e+003;5.399219e-002
3.500315e+003;5.391986e-002
3.502243e+003;5.300559e-002
3.504172e+003;5.181547e-002
3.506100e+003;5.164840e-002
3.508029e+003;5.164508e-002
3.509957e+003;5.116656e-002
3.511886e+003;5.083384e-002
3.513814e+003;5.079827e-002
3.515743e+003;5.035613e-002
3.517672e+003;4.990299e-002
3.519600e+003;4.953781e-002
3.521529e+003;4.912760e-002
3.523457e+003;4.841630e-002
3.525386e+003;4.787990e-002
3.527314e+003;4.763845e-002
3.529243e+003;4.763258e-002
3.531171e+003;4.772746e-002
3.533100e+003;4.734028e-002
3.535029e+003;4.663023e-002
3.536957e+003;4.618318e-002
3.538885e+003;4.566094e-002
3.540814e+003;4.516921e-002
3.542743e+003;4.482698e-002
3.544671e+003;4.465229e-002
3.546600e+003;4.467859e-002
3.548528e+003;4.409495e-002
3.550457e+003;4.346859e-002
3.552385e+003;4.318432e-002
3.554314e+003;4.303100e-002
3.556242e+003;4.293893e-002
3.558171e+003;4.251980e-002
3.560100e+003;4.193151e-002
3.562028e+003;4.150592e-002
3.563957e+003;4.105951e-002
3.565885e+003;4.045726e-002
3.567814e+003;3.998403e-002
3.569742e+003;3.966289e-002
3.571671e+003;3.940413e-002
3.573599e+003;3.901613e-002
3.575528e+003;3.840921e-002
3.577457e+003;3.823959e-002
3.579385e+003;3.773331e-002
3.581314e+003;3.688557e-002
3.583242e+003;3.642796e-002
3.585171e+003;3.614591e-002
3.587099e+003;3.576031e-002
3.589028e+003;3.549092e-002
3.590956e+003;3.531244e-002
3.592885e+003;3.513191e-002
3.594813e+003;3.470248e-002
3.596742e+003;3.422458e-002
3.598671e+003;3.350289e-002
3.600599e+003;3.299152e-002
3.602528e+003;3.310032e-002
3.604456e+003;3.287339e-002
3.606385e+003;3.182492e-002
3.608313e+003;3.084719e-002
3.610242e+003;3.107666e-002
3.612170e+003;3.134803e-002
3.614099e+003;3.085577e-002
3.616028e+003;2.986758e-002
3.617956e+003;2.940025e-002
3.619885e+003;2.894564e-002
3.621813e+003;2.835552e-002
3.623742e+003;2.762448e-002
3.625670e+003;2.648951e-002
3.627599e+003;2.545927e-002
3.629527e+003;2.527078e-002
3.631456e+003;2.543141e-002
3.633385e+003;2.485868e-002
3.635313e+003;2.444998e-002
3.637241e+003;2.424377e-002
3.639170e+003;2.382522e-002
3.641099e+003;2.336417e-002
3.643027e+003;2.245734e-002
3.644956e+003;2.105049e-002
3.646884e+003;2.026397e-002
3.648813e+003;1.997810e-002
3.650741e+003;1.987951e-002
3.652670e+003;1.970390e-002
3.654598e+003;1.851607e-002
3.656527e+003;1.739848e-002
3.658456e+003;1.687323e-002
3.660384e+003;1.586360e-002
3.662313e+003;1.530516e-002
3.664241e+003;1.502648e-002
3.666170e+003;1.472628e-002
3.668098e+003;1.407763e-002
3.670027e+003;1.277177e-002
3.671955e+003;1.243078e-002
3.673884e+003;1.198642e-002
3.675813e+003;1.103535e-002
3.677741e+003;1.102125e-002
3.679669e+003;1.098689e-002
3.681598e+003;1.063212e-002
3.683527e+003;9.838493e-003
3.685455e+003;8.919062e-003
3.687384e+003;7.603842e-003
3.689312e+003;7.013145e-003
3.691241e+003;7.458064e-003
3.693169e+003;7.732871e-003
3.695098e+003;8.080759e-003
3.697026e+003;8.010079e-003
3.698955e+003;7.039983e-003
3.700884e+003;6.321672e-003
3.702812e+003;6.622675e-003
3.704741e+003;6.782206e-003
3.706669e+003;6.475780e-003
3.708598e+003;6.341946e-003
3.710526e+003;5.763874e-003
3.712455e+003;5.333365e-003
3.714383e+003;5.421459e-003
3.716312e+003;5.151967e-003
3.718240e+003;5.074319e-003
3.720169e+003;5.208869e-003
3.722098e+003;5.133626e-003
3.724026e+003;5.392406e-003
3.725955e+003;5.289761e-003
3.727883e+003;5.145361e-003
3.729812e+003;5.086623e-003
3.731740e+003;4.650220e-003
3.733669e+003;4.451498e-003
3.735597e+003;4.661372e-003
3.737526e+003;4.702871e-003
3.739455e+003;4.760787e-003
3.741383e+003;4.425689e-003
3.743312e+003;3.148516e-003
3.745240e+003;3.477920e-003
3.747169e+003;3.851932e-003
3.749097e+003;3.237904e-003
3.751026e+003;3.450165e-003
3.752954e+003;4.018676e-003
3.754883e+003;4.182539e-003
3.756812e+003;4.137211e-003
3.758740e+003;4.248116e-003
3.760668e+003;4.608459e-003
3.762597e+003;4.786817e-003
3.764526e+003;4.585085e-003
3.766454e+003;4.451063e-003
3.768383e+003;4.016970e-003
3.770311e+003;3.962062e-003
3.772240e+003;4.111521e-003
3.774168e+003;3.471775e-003
3.776097e+003;3.251658e-003
3.778025e+003;3.729097e-003
3.779954e+003;4.049410e-003
3.781883e+003;4.609296e-003
3.783811e+003;4.820286e-003
3.785740e+003;4.563655e-003
3.787668e+003;4.499672e-003
3.789597e+003;4.217668e-003
3.791525e+003;3.683348e-003
3.793454e+003;3.846918e-003
3.795382e+003;4.177956e-003
3.797311e+003;4.678554e-003
3.799240e+003;4.607053e-003
3.801168e+003;3.831340e-003
3.803097e+003;3.852568e-003
3.805025e+003;3.432465e-003
3.806954e+003;3.079736e-003
3.808882e+003;3.904653e-003
3.810811e+003;4.391816e-003
3.812739e+003;4.098376e-003
3.814668e+003;3.086977e-003
3.816596e+003;3.358096e-003
3.818525e+003;4.363132e-003
3.820454e+003;4.297070e-003
3.822382e+003;4.364605e-003
3.824311e+003;4.253268e-003
3.826239e+003;3.768468e-003
3.828168e+003;3.720943e-003
3.830096e+003;3.722814e-003
3.832025e+003;3.835720e-003
3.833953e+003;4.111053e-003
3.835882e+003;3.886132e-003
3.837811e+003;3.588723e-003
3.839739e+003;3.717334e-003
3.841667e+003;4.514303e-003
3.843596e+003;5.132285e-003
3.845525e+003;4.734189e-003
3.847453e+003;4.440585e-003
3.849382e+003;3.928392e-003
3.851310e+003;3.071126e-003
3.853239e+003;2.788248e-003
3.855167e+003;3.493619e-003
3.857096e+003;4.571926e-003
3.859024e+003;5.143718e-003
3.860953e+003;4.535563e-003
3.862882e+003;4.128012e-003
3.864810e+003;4.216598e-003
3.866739e+003;4.624668e-003
3.868667e+003;4.236338e-003
3.870596e+003;4.052955e-003
3.872524e+003;4.124767e-003
3.874453e+003;4.094797e-003
3.876381e+003;5.057491e-003
3.878310e+003;5.846212e-003
3.880239e+003;5.819145e-003
3.882167e+003;5.838588e-003
3.884096e+003;5.442597e-003
3.886024e+003;5.124439e-003
3.887953e+003;5.041199e-003
3.889881e+003;4.630729e-003
3.891810e+003;4.686492e-003
3.893738e+003;5.308577e-003
3.895667e+003;5.891753e-003
3.897595e+003;5.430216e-003
3.899524e+003;4.799916e-003
3.901453e+003;5.102145e-003
3.903381e+003;5.185598e-003
3.905310e+003;5.185933e-003
3.907238e+003;5.624888e-003
3.909167e+003;5.893835e-003
3.911095e+003;5.481854e-003
3.913024e+003;5.424378e-003
3.914952e+003;5.599446e-003
3.916881e+003;5.226844e-003
3.918810e+003;5.450481e-003
3.920738e+003;5.606797e-003
3.922667e+003;5.161187e-003
3.924595e+003;4.982408e-003
3.926524e+003;5.084041e-003
3.928452e+003;5.221780e-003
3.930381e+003;5.449978e-003
3.932309e+003;5.684372e-003
3.934238e+003;6.102157e-003
3.936167e+003;6.212388e-003
3.938095e+003;6.091975e-003
3.940023e+003;5.288822e-003
3.941952e+003;4.813518e-003
3.943881e+003;5.490846e-003
3.945809e+003;5.650299e-003
3.947738e+003;5.406127e-003
3.949666e+003;6.058173e-003
3.951595e+003;6.669542e-003
3.953523e+003;6.382663e-003
3.955452e+003;6.135223e-003
3.957380e+003;6.562592e-003
3.959309e+003;6.065968e-003
3.961238e+003;4.903182e-003
3.963166e+003;4.689975e-003
3.965095e+003;4.955998e-003
3.967023e+003;5.030640e-003
3.968952e+003;5.601796e-003
3.970880e+003;6.123999e-003
3.972809e+003;6.092110e-003
3.974737e+003;5.680142e-003
3.976666e+003;4.769899e-003
3.978594e+003;4.517048e-003
3.980523e+003;5.417467e-003
3.982452e+003;5.592834e-003
3.984380e+003;5.046261e-003
3.986309e+003;5.564172e-003
3.988237e+003;5.606998e-003
3.990166e+003;4.933879e-003
3.992094e+003;4.831242e-003
3.994023e+003;4.637260e-003
3.995951e+003;4.811642e-003
3.997880e+003;5.191935e-003
3.999809e+003;4.996418e-003
4.001737e+003;0.000000e+000
