3.992094e+002;0.000000e+000
4.011380e+002;0.000000e+000
4.030665e+002;0.000000e+000
4.049951e+002;0.000000e+000
4.069236e+002;0.000000e+000
4.088522e+002;0.000000e+000
4.107807e+002;0.000000e+000
4.127093e+002;0.000000e+000
4.146378e+002;0.000000e+000
4.165664e+002;0.000000e+000
4.184949e+002;0.000000e+000
4.204235e+002;0.000000e+000
4.223520e+002;0.000000e+000
4.242806e+002;0.000000e+000
4.262091e+002;0.000000e+000
4.281377e+002;0.000000e+000
4.300662e+002;0.000000e+000
4.319948e+002;0.000000e+000
4.339233e+002;0.000000e+000
4.358519e+002;0.000000e+000
4.377804e+002;0.000000e+000
4.397090e+002;0.000000e+000
4.416375e+002;0.000000e+000
4.435660e+002;0.000000e+000
4.454946e+002;0.000000e+000
4.474232e+002;0.000000e+000
4.493517e+002;0.000000e+000
4.512802e+002;0.000000e+000
4.532088e+002;0.000000e+000
4.551373e+002;0.000000e+000
4.570659e+002;0.000000e+000
4.589944e+002;0.000000e+000
4.609230e+002;0.000000e+000
4.628515e+002;0.000000e+000
4.647801e+002;0.000000e+000
4.667086e+002;0.000000e+000
4.686372e+002;0.000000e+000
4.705657e+002;0.000000e+000
4.724943e+002;0.000000e+000
4.744228e+002;0.000000e+000
4.763513e+002;0.000000e+000
4.782799e+002;0.000000e+000
4.802085e+002;0.000000e+000
4.821370e+002;0.000000e+000
4.840656e+002;0.000000e+000
4.859941e+002;0.000000e+000
4.879226e+002;0.000000e+000
4.898512e+002;0.000000e+000
4.917798e+002;0.000000e+000
4.937083e+002;0.000000e+000
4.956368e+002;0.000000e+000
4.975654e+002;0.000000e+000
4.994939e+002;0.000000e+000
5.014225e+002;0.000000e+000
5.033510e+002;0.000000e+000
5.052796e+002;0.000000e+000
5.072081e+002;0.000000e+000
5.091367e+002;0.000000e+000
5.110652e+002;0.000000e+000
5.129938e+002;0.000000e+000
5.149223e+002;0.000000e+000
5.168509e+002;0.000000e+000
5.187794e+002;0.000000e+000
5.207079e+002;0.000000e+000
5.226365e+002;0.000000e+000
5.245651e+002;0.000000e+000
5.264936e+002;0.000000e+000
5.284222e+002;0.000000e+000
5.303507e+002;0.000000e+000
5.322792e+002;0.000000e+000
5.342078e+002;0.000000e+000
5.361364e+002;0.000000e+000
5.380649e+002;0.000000e+000
5.399935e+002;0.000000e+000
5.419220e+002;0.000000e+000
5.438505e+002;0.000000e+000
5.457791e+002;0.000000e+000
5.477076e+002;0.000000e+000
5.496362e+002;0.000000e+000
5.515648e+002;0.000000e+000
5.534933e+002;0.000000e+000
5.554218e+002;0.000000e+000
5.573504e+002;0.000000e+000
5.592789e+002;0.000000e+000
5.612075e+002;0.000000e+000
5.631360e+002;0.000000e+000
5.650646e+002;0.000000e+000
5.669931e+002;0.000000e+000
5.689217e+002;0.000000e+000
5.708502e+002;0.000000e+000
5.727787e+002;0.000000e+000
5.747073e+002;0.000000e+000
5.766359e+002;0.000000e+000
5.785644e+002;0.000000e+000
5.804930e+002;0.000000e+000
5.824215e+002;0.000000e+000
5.843500e+002;0.000000e+000
5.862786e+002;0.000000e+000
5.882072e+002;0.000000e+000
5.901357e+002;0.000000e+000
5.920643e+002;0.000000e+000
5.939928e+002;0.000000e+000
5.959213e+002;0.000000e+000
5.978499e+002;0.000000e+000
5.997784e+002;2.157970e-001
6.017070e+002;2.226124e-001
6.036355e+002;2.254880e-001
6.055641e+002;2.211125e-001
6.074926e+002;2.181566e-001
6.094211e+002;2.128298e-001
6.113497e+002;2.107468e-001
6.132783e+002;2.161704e-001
6.152068e+002;2.166038e-001
6.171354e+002;2.128449e-001
6.190639e+002;2.101060e-001
6.209924e+002;2.075795e-001
6.229210e+002;2.058004e-001
6.248495e+002;2.037625e-001
6.267781e+002;1.974481e-001
6.287067e+002;1.999196e-001
6.306352e+002;2.026738e-001
6.325637e+002;1.961130e-001
6.344923e+002;1.900759e-001
6.364208e+002;1.906826e-001
6.383494e+002;1.917404e-001
6.402780e+002;1.923107e-001
6.422065e+002;1.974553e-001
6.441350e+002;1.981723e-001
6.460636e+002;1.918852e-001
6.479921e+002;1.878860e-001
6.499207e+002;1.893445e-001
6.518492e+002;1.903811e-001
6.537778e+002;1.914969e-001
6.557063e+002;1.952858e-001
6.576349e+002;1.976132e-001
6.595634e+002;1.958094e-001
6.614919e+002;1.939348e-001
6.634205e+002;1.961640e-001
6.653491e+002;1.958260e-001
6.672776e+002;1.935772e-001
6.692062e+002;1.935756e-001
6.711347e+002;1.921038e-001
6.730632e+002;1.890898e-001
6.749918e+002;1.847710e-001
6.769203e+002;1.806789e-001
6.788489e+002;1.763988e-001
6.807775e+002;1.722004e-001
6.827060e+002;1.698466e-001
6.846345e+002;1.670228e-001
6.865631e+002;1.650784e-001
6.884916e+002;1.646375e-001
6.904202e+002;1.646391e-001
6.923488e+002;1.636948e-001
6.942773e+002;1.630755e-001
6.962058e+002;1.636006e-001
6.981344e+002;1.623342e-001
7.000629e+002;1.600378e-001
7.019915e+002;1.591691e-001
7.039200e+002;1.588655e-001
7.058486e+002;1.581989e-001
7.077771e+002;1.570405e-001
7.097057e+002;1.547468e-001
7.116342e+002;1.531184e-001
7.135627e+002;1.525431e-001
7.154913e+002;1.510156e-001
7.174199e+002;1.503559e-001
7.193484e+002;1.491702e-001
7.212770e+002;1.472072e-001
7.232055e+002;1.454667e-001
7.251340e+002;1.433378e-001
7.270626e+002;1.415025e-001
7.289911e+002;1.392656e-001
7.309197e+002;1.368278e-001
7.328483e+002;1.352446e-001
7.347768e+002;1.341583e-001
7.367053e+002;1.324392e-001
7.386339e+002;1.311179e-001
7.405624e+002;1.302110e-001
7.424910e+002;1.296017e-001
7.444196e+002;1.288821e-001
7.463481e+002;1.261877e-001
7.482766e+002;1.240246e-001
7.502052e+002;1.235983e-001
7.521337e+002;1.232460e-001
7.540623e+002;1.225137e-001
7.559908e+002;1.219541e-001
7.579194e+002;1.215938e-001
7.598479e+002;1.217915e-001
7.617765e+002;1.211382e-001
7.637050e+002;1.190157e-001
7.656335e+002;1.174114e-001
7.675621e+002;1.168434e-001
7.694907e+002;1.168475e-001
7.714192e+002;1.161084e-001
7.733478e+002;1.143055e-001
7.752763e+002;1.127021e-001
7.772048e+002;1.119664e-001
7.791334e+002;1.118392e-001
7.810620e+002;1.122139e-001
7.829905e+002;1.115860e-001
7.849191e+002;1.102169e-001
7.868476e+002;1.096407e-001
7.887761e+002;1.096067e-001
7.907047e+002;1.093921e-001
7.926332e+002;1.094550e-001
7.945618e+002;1.095581e-001
7.964903e+002;1.091517e-001
7.984189e+002;1.088590e-001
8.003474e+002;1.090266e-001
8.022759e+002;1.093842e-001
8.042045e+002;1.092574e-001
8.061331e+002;1.089985e-001
8.080616e+002;1.091587e-001
8.099902e+002;1.091336e-001
8.119187e+002;1.095796e-001
8.138472e+002;1.103718e-001
8.157758e+002;1.104034e-001
8.177043e+002;1.107875e-001
8.196329e+002;1.117204e-001
8.215615e+002;1.127888e-001
8.234900e+002;1.129383e-001
8.254185e+002;1.125294e-001
8.273471e+002;1.122547e-001
8.292756e+002;1.124080e-001
8.312042e+002;1.128929e-001
8.331328e+002;1.131161e-001
8.350613e+002;1.134051e-001
8.369898e+002;1.127601e-001
8.389184e+002;1.117229e-001
8.408469e+002;1.116907e-001
8.427755e+002;1.113730e-001
8.447040e+002;1.112704e-001
8.466326e+002;1.116020e-001
8.485611e+002;1.106608e-001
8.504897e+002;1.097014e-001
8.524182e+002;1.098677e-001
8.543467e+002;1.106134e-001
8.562753e+002;1.116506e-001
8.582039e+002;1.123497e-001
8.601324e+002;1.132235e-001
8.620610e+002;1.145264e-001
8.639895e+002;1.159034e-001
8.659180e+002;1.173096e-001
8.678466e+002;1.191396e-001
8.697751e+002;1.212093e-001
8.717037e+002;1.237586e-001
8.736323e+002;1.263259e-001
8.755608e+002;1.288120e-001
8.774893e+002;1.313517e-001
8.794179e+002;1.331628e-001
8.813464e+002;1.352071e-001
8.832750e+002;1.374242e-001
8.852036e+002;1.397019e-001
8.871321e+002;1.431059e-001
8.890606e+002;1.466909e-001
8.909892e+002;1.501621e-001
8.929177e+002;1.534214e-001
8.948463e+002;1.551131e-001
8.967748e+002;1.553411e-001
8.987034e+002;1.546688e-001
9.006319e+002;1.536278e-001
9.025605e+002;1.518370e-001
9.044890e+002;1.501217e-001
9.064175e+002;1.483152e-001
9.083461e+002;1.466222e-001
9.102747e+002;1.457462e-001
9.122032e+002;1.440625e-001
9.141318e+002;1.424284e-001
9.160603e+002;1.424816e-001
9.179888e+002;1.427106e-001
9.199174e+002;1.426449e-001
9.218459e+002;1.427360e-001
9.237745e+002;1.431823e-001
9.257031e+002;1.440637e-001
9.276316e+002;1.455310e-001
9.295601e+002;1.471211e-001
9.314887e+002;1.481974e-001
9.334172e+002;1.491532e-001
9.353458e+002;1.502271e-001
9.372744e+002;1.514390e-001
9.392029e+002;1.536401e-001
9.411314e+002;1.565445e-001
9.430600e+002;1.596817e-001
9.449885e+002;1.632162e-001
9.469171e+002;1.679523e-001
9.488456e+002;1.730214e-001
9.507742e+002;1.777197e-001
9.527027e+002;1.826611e-001
9.546313e+002;1.877443e-001
9.565598e+002;1.930701e-001
9.584883e+002;1.987335e-001
9.604169e+002;2.046864e-001
9.623455e+002;2.102684e-001
9.642740e+002;2.159418e-001
9.662026e+002;2.216347e-001
9.681311e+002;2.274272e-001
9.700596e+002;2.333852e-001
9.719882e+002;2.399947e-001
9.739167e+002;2.476166e-001
9.758453e+002;2.556238e-001
9.777739e+002;2.640182e-001
9.797024e+002;2.729763e-001
9.816309e+002;2.818000e-001
9.835595e+002;2.894848e-001
9.854880e+002;2.963943e-001
9.874166e+002;3.017082e-001
9.893452e+002;3.050649e-001
9.912737e+002;3.076484e-001
9.932022e+002;3.109996e-001
9.951307e+002;3.143278e-001
9.970593e+002;3.172107e-001
9.989879e+002;3.204692e-001
1.000916e+003;3.244561e-001
1.002845e+003;3.290563e-001
1.004773e+003;3.338175e-001
1.006702e+003;3.383703e-001
1.008631e+003;3.429310e-001
1.010559e+003;3.476670e-001
1.012488e+003;3.522540e-001
1.014416e+003;3.575045e-001
1.016345e+003;3.622119e-001
1.018273e+003;3.655704e-001
1.020202e+003;3.686545e-001
1.022130e+003;3.716003e-001
1.024059e+003;3.739137e-001
1.025988e+003;3.754905e-001
1.027916e+003;3.766795e-001
1.029845e+003;3.771425e-001
1.031773e+003;3.761544e-001
1.033702e+003;3.743226e-001
1.035630e+003;3.714944e-001
1.037559e+003;3.681952e-001
1.039487e+003;3.645233e-001
1.041416e+003;3.604366e-001
1.043344e+003;3.569716e-001
1.045273e+003;3.537704e-001
1.047202e+003;3.509477e-001
1.049130e+003;3.488860e-001
1.051059e+003;3.457181e-001
1.052987e+003;3.412867e-001
1.054916e+003;3.363531e-001
1.056844e+003;3.300313e-001
1.058773e+003;3.234174e-001
1.060701e+003;3.165407e-001
1.062630e+003;3.088293e-001
1.064558e+003;3.007836e-001
1.066487e+003;2.930659e-001
1.068416e+003;2.861881e-001
1.070344e+003;2.805908e-001
1.072273e+003;2.752664e-001
1.074201e+003;2.701628e-001
1.076130e+003;2.662501e-001
1.078058e+003;2.620991e-001
1.079987e+003;2.569553e-001
1.081915e+003;2.527782e-001
1.083844e+003;2.502194e-001
1.085773e+003;2.481734e-001
1.087701e+003;2.462759e-001
1.089630e+003;2.443952e-001
1.091558e+003;2.424692e-001
1.093487e+003;2.417136e-001
1.095415e+003;2.408669e-001
1.097344e+003;2.391966e-001
1.099272e+003;2.373908e-001
1.101201e+003;2.347523e-001
1.103129e+003;2.319537e-001
1.105058e+003;2.293393e-001
1.106987e+003;2.260553e-001
1.108915e+003;2.214471e-001
1.110844e+003;2.161190e-001
1.112772e+003;2.105811e-001
1.114701e+003;2.044852e-001
1.116629e+003;1.979949e-001
1.118558e+003;1.925022e-001
1.120486e+003;1.870162e-001
1.122415e+003;1.818273e-001
1.124344e+003;1.779065e-001
1.126272e+003;1.732197e-001
1.128201e+003;1.683394e-001
1.130129e+003;1.637841e-001
1.132058e+003;1.586520e-001
1.133986e+003;1.541735e-001
1.135915e+003;1.508926e-001
1.137843e+003;1.490628e-001
1.139772e+003;1.475604e-001
1.141700e+003;1.461777e-001
1.143629e+003;1.465203e-001
1.145557e+003;1.473525e-001
1.147486e+003;1.476143e-001
1.149415e+003;1.480595e-001
1.151343e+003;1.485878e-001
1.153272e+003;1.490129e-001
1.155200e+003;1.496395e-001
1.157129e+003;1.492861e-001
1.159057e+003;1.476575e-001
1.160986e+003;1.458602e-001
1.162914e+003;1.430888e-001
1.164843e+003;1.393044e-001
1.166771e+003;1.352979e-001
1.168700e+003;1.305705e-001
1.170629e+003;1.251871e-001
1.172557e+003;1.198705e-001
1.174486e+003;1.155631e-001
1.176414e+003;1.123223e-001
1.178343e+003;1.095327e-001
1.180271e+003;1.069631e-001
1.182200e+003;1.051899e-001
1.184128e+003;1.042684e-001
1.186057e+003;1.036457e-001
1.187986e+003;1.034112e-001
1.189914e+003;1.039958e-001
1.191843e+003;1.056986e-001
1.193771e+003;1.084812e-001
1.195700e+003;1.113663e-001
1.197628e+003;1.135752e-001
1.199557e+003;1.157479e-001
1.201485e+003;1.180663e-001
1.203414e+003;1.203827e-001
1.205343e+003;1.225427e-001
1.207271e+003;1.246505e-001
1.209200e+003;1.269038e-001
1.211128e+003;1.293629e-001
1.213057e+003;1.325666e-001
1.214985e+003;1.366428e-001
1.216914e+003;1.407516e-001
1.218842e+003;1.443935e-001
1.220771e+003;1.479650e-001
1.222699e+003;1.517522e-001
1.224628e+003;1.553383e-001
1.226557e+003;1.583678e-001
1.228485e+003;1.607949e-001
1.230414e+003;1.628062e-001
1.232342e+003;1.647332e-001
1.234271e+003;1.658022e-001
1.236199e+003;1.658469e-001
1.238128e+003;1.650789e-001
1.240056e+003;1.643135e-001
1.241985e+003;1.633792e-001
1.243913e+003;1.620794e-001
1.245842e+003;1.606518e-001
1.247771e+003;1.585470e-001
1.249699e+003;1.561989e-001
1.251628e+003;1.540017e-001
1.253556e+003;1.519827e-001
1.255485e+003;1.495506e-001
1.257413e+003;1.464888e-001
1.259342e+003;1.435719e-001
1.261270e+003;1.410313e-001
1.263199e+003;1.380542e-001
1.265127e+003;1.347830e-001
1.267056e+003;1.314914e-001
1.268985e+003;1.282177e-001
1.270913e+003;1.255245e-001
1.272842e+003;1.233469e-001
1.274770e+003;1.210496e-001
1.276699e+003;1.184051e-001
1.278627e+003;1.160160e-001
1.280556e+003;1.142039e-001
1.282484e+003;1.125181e-001
1.284413e+003;1.109905e-001
1.286342e+003;1.099115e-001
1.288270e+003;1.091857e-001
1.290199e+003;1.089384e-001
1.292127e+003;1.088475e-001
1.294056e+003;1.085114e-001
1.295984e+003;1.089278e-001
1.297913e+003;1.098466e-001
1.299841e+003;1.109349e-001
1.301770e+003;1.126388e-001
1.303698e+003;1.148046e-001
1.305627e+003;1.171107e-001
1.307556e+003;1.193145e-001
1.309484e+003;1.214299e-001
1.311413e+003;1.231972e-001
1.313341e+003;1.243775e-001
1.315270e+003;1.250416e-001
1.317198e+003;1.254198e-001
1.319127e+003;1.254419e-001
1.321055e+003;1.247680e-001
1.322984e+003;1.238537e-001
1.324912e+003;1.229496e-001
1.326841e+003;1.221741e-001
1.328770e+003;1.219971e-001
1.330698e+003;1.221540e-001
1.332627e+003;1.222310e-001
1.334555e+003;1.216964e-001
1.336484e+003;1.206997e-001
1.338412e+003;1.197696e-001
1.340341e+003;1.187576e-001
1.342269e+003;1.173619e-001
1.344198e+003;1.160953e-001
1.346126e+003;1.152082e-001
1.348055e+003;1.147840e-001
1.349984e+003;1.149227e-001
1.351912e+003;1.154414e-001
1.353841e+003;1.165003e-001
1.355769e+003;1.177208e-001
1.357698e+003;1.191871e-001
1.359626e+003;1.209840e-001
1.361555e+003;1.227639e-001
1.363483e+003;1.239045e-001
1.365412e+003;1.244589e-001
1.367341e+003;1.248091e-001
1.369269e+003;1.248532e-001
1.371198e+003;1.244458e-001
1.373126e+003;1.232930e-001
1.375055e+003;1.212534e-001
1.376983e+003;1.188520e-001
1.378912e+003;1.166242e-001
1.380840e+003;1.141669e-001
1.382769e+003;1.109813e-001
1.384698e+003;1.080345e-001
1.386626e+003;1.058974e-001
1.388555e+003;1.044174e-001
1.390483e+003;1.029497e-001
1.392412e+003;1.014739e-001
1.394340e+003;1.005833e-001
1.396269e+003;1.005205e-001
1.398197e+003;1.008571e-001
1.400126e+003;1.012694e-001
1.402054e+003;1.018698e-001
1.403983e+003;1.024373e-001
1.405911e+003;1.034370e-001
1.407840e+003;1.044671e-001
1.409769e+003;1.053615e-001
1.411697e+003;1.066381e-001
1.413626e+003;1.078570e-001
1.415554e+003;1.088004e-001
1.417483e+003;1.097651e-001
1.419411e+003;1.107089e-001
1.421340e+003;1.118486e-001
1.423268e+003;1.124525e-001
1.425197e+003;1.123788e-001
1.427125e+003;1.117821e-001
1.429054e+003;1.107798e-001
1.430983e+003;1.098227e-001
1.432911e+003;1.085901e-001
1.434840e+003;1.067795e-001
1.436768e+003;1.050810e-001
1.438697e+003;1.040251e-001
1.440625e+003;1.027192e-001
1.442554e+003;1.014368e-001
1.444482e+003;1.004878e-001
1.446411e+003;9.962253e-002
1.448340e+003;9.897327e-002
1.450268e+003;9.879895e-002
1.452197e+003;9.844060e-002
1.454125e+003;9.763173e-002
1.456054e+003;9.622853e-002
1.457982e+003;9.547627e-002
1.459911e+003;9.526186e-002
1.461839e+003;9.421684e-002
1.463768e+003;9.251088e-002
1.465697e+003;9.018254e-002
1.467625e+003;8.759051e-002
1.469554e+003;8.453658e-002
1.471482e+003;8.093289e-002
1.473411e+003;7.759299e-002
1.475339e+003;7.463087e-002
1.477268e+003;7.204486e-002
1.479196e+003;7.009479e-002
1.481125e+003;6.838393e-002
1.483053e+003;6.668083e-002
1.484982e+003;6.505285e-002
1.486911e+003;6.377761e-002
1.488839e+003;6.304315e-002
1.490768e+003;6.274439e-002
1.492696e+003;6.284640e-002
1.494625e+003;6.294283e-002
1.496553e+003;6.342907e-002
1.498482e+003;6.426429e-002
1.500410e+003;6.499159e-002
1.502339e+003;6.549619e-002
1.504267e+003;6.512576e-002
1.506196e+003;6.387068e-002
1.508125e+003;6.312415e-002
1.510053e+003;6.269314e-002
1.511982e+003;6.174557e-002
1.513910e+003;6.062161e-002
1.515839e+003;5.919906e-002
1.517767e+003;5.755620e-002
1.519696e+003;5.587525e-002
1.521624e+003;5.456674e-002
1.523553e+003;5.433594e-002
1.525481e+003;5.395643e-002
1.527410e+003;5.344287e-002
1.529339e+003;5.303588e-002
1.531267e+003;5.257332e-002
1.533196e+003;5.226448e-002
1.535124e+003;5.257078e-002
1.537053e+003;5.241340e-002
1.538981e+003;5.165057e-002
1.540910e+003;5.191430e-002
1.542838e+003;5.298429e-002
1.544767e+003;5.352543e-002
1.546695e+003;5.376484e-002
1.548624e+003;5.386558e-002
1.550553e+003;5.428356e-002
1.552481e+003;5.478200e-002
1.554410e+003;5.520131e-002
1.556338e+003;5.526178e-002
1.558267e+003;5.489467e-002
1.560195e+003;5.598628e-002
1.562124e+003;5.803144e-002
1.564052e+003;5.958728e-002
1.565981e+003;6.072548e-002
1.567910e+003;6.202342e-002
1.569838e+003;6.361961e-002
1.571767e+003;6.556166e-002
1.573695e+003;6.711675e-002
1.575624e+003;6.864433e-002
1.577552e+003;7.156803e-002
1.579481e+003;7.507646e-002
1.581409e+003;7.820453e-002
1.583338e+003;8.112583e-002
1.585266e+003;8.369166e-002
1.587195e+003;8.624309e-002
1.589124e+003;8.879133e-002
1.591052e+003;9.095399e-002
1.592981e+003;9.246758e-002
1.594909e+003;9.334168e-002
1.596838e+003;9.391551e-002
1.598766e+003;9.404412e-002
1.600695e+003;9.421387e-002
1.602623e+003;9.421844e-002
1.604552e+003;9.404860e-002
1.606480e+003;9.390750e-002
1.608409e+003;9.393086e-002
1.610338e+003;9.425541e-002
1.612266e+003;9.443595e-002
1.614195e+003;9.394933e-002
1.616123e+003;9.300710e-002
1.618052e+003;9.269312e-002
1.619980e+003;9.285980e-002
1.621909e+003;9.251440e-002
1.623837e+003;9.226257e-002
1.625766e+003;9.236986e-002
1.627694e+003;9.201699e-002
1.629623e+003;9.150103e-002
1.631552e+003;9.122653e-002
1.633480e+003;9.042073e-002
1.635409e+003;8.923444e-002
1.637337e+003;8.898959e-002
1.639266e+003;8.886455e-002
1.641194e+003;8.822203e-002
1.643123e+003;8.736902e-002
1.645051e+003;8.589515e-002
1.646980e+003;8.479533e-002
1.648909e+003;8.429782e-002
1.650837e+003;8.282188e-002
1.652766e+003;8.091887e-002
1.654694e+003;8.055224e-002
1.656623e+003;8.001749e-002
1.658551e+003;7.872013e-002
1.660480e+003;7.763816e-002
1.662408e+003;7.638276e-002
1.664337e+003;7.505570e-002
1.666266e+003;7.401958e-002
1.668194e+003;7.278480e-002
1.670123e+003;7.147334e-002
1.672051e+003;7.037441e-002
1.673980e+003;6.928898e-002
1.675908e+003;6.835096e-002
1.677837e+003;6.766964e-002
1.679765e+003;6.697188e-002
1.681694e+003;6.599761e-002
1.683622e+003;6.457448e-002
1.685551e+003;6.416822e-002
1.687479e+003;6.472452e-002
1.689408e+003;6.506763e-002
1.691337e+003;6.513857e-002
1.693265e+003;6.522666e-002
1.695194e+003;6.551461e-002
1.697122e+003;6.670567e-002
1.699051e+003;6.800168e-002
1.700979e+003;6.978144e-002
1.702908e+003;7.228861e-002
1.704836e+003;7.475286e-002
1.706765e+003;7.762104e-002
1.708693e+003;8.038116e-002
1.710622e+003;8.295370e-002
1.712551e+003;8.532600e-002
1.714479e+003;8.778583e-002
1.716408e+003;9.030417e-002
1.718336e+003;9.287491e-002
1.720265e+003;9.560376e-002
1.722193e+003;9.798484e-002
1.724122e+003;9.976260e-002
1.726050e+003;1.011434e-001
1.727979e+003;1.022752e-001
1.729908e+003;1.032856e-001
1.731836e+003;1.039729e-001
1.733765e+003;1.037848e-001
1.735693e+003;1.038047e-001
1.737622e+003;1.037565e-001
1.739550e+003;1.026481e-001
1.741479e+003;1.010244e-001
1.743407e+003;9.870710e-002
1.745336e+003;9.580503e-002
1.747265e+003;9.252084e-002
1.749193e+003;8.881556e-002
1.751122e+003;8.503034e-002
1.753050e+003;8.119901e-002
1.754979e+003;7.698591e-002
1.756907e+003;7.281850e-002
1.758836e+003;6.918545e-002
1.760764e+003;6.561503e-002
1.762693e+003;6.231747e-002
1.764621e+003;5.883653e-002
1.766550e+003;5.490478e-002
1.768479e+003;5.149170e-002
1.770407e+003;4.858239e-002
1.772336e+003;4.585491e-002
1.774264e+003;4.366512e-002
1.776193e+003;4.164984e-002
1.778121e+003;3.977762e-002
1.780050e+003;3.801180e-002
1.781978e+003;3.645495e-002
1.783907e+003;3.485475e-002
1.785835e+003;3.334290e-002
1.787764e+003;3.219344e-002
1.789693e+003;3.108517e-002
1.791621e+003;3.016334e-002
1.793550e+003;2.962757e-002
1.795478e+003;2.902590e-002
1.797407e+003;2.827786e-002
1.799335e+003;2.782770e-002
1.801264e+003;2.737392e-002
1.803192e+003;2.691096e-002
1.805121e+003;2.644827e-002
1.807049e+003;2.597395e-002
1.808978e+003;2.552463e-002
1.810907e+003;2.512134e-002
1.812835e+003;2.478272e-002
1.814764e+003;2.470387e-002
1.816692e+003;2.449737e-002
1.818621e+003;2.402489e-002
1.820549e+003;2.347520e-002
1.822478e+003;2.308894e-002
1.824406e+003;2.281263e-002
1.826335e+003;2.259003e-002
1.828264e+003;2.212840e-002
1.830192e+003;2.185973e-002
1.832121e+003;2.198944e-002
1.834049e+003;2.182900e-002
1.835978e+003;2.167444e-002
1.837906e+003;2.146725e-002
1.839835e+003;2.111519e-002
1.841763e+003;2.093101e-002
1.843692e+003;2.075014e-002
1.845620e+003;2.039716e-002
1.847549e+003;2.018590e-002
1.849478e+003;2.011856e-002
1.851406e+003;2.019138e-002
1.853335e+003;2.014779e-002
1.855263e+003;1.995569e-002
1.857192e+003;1.993824e-002
1.859120e+003;1.997515e-002
1.861049e+003;1.974859e-002
1.862977e+003;1.939716e-002
1.864906e+003;1.925042e-002
1.866834e+003;1.901693e-002
1.868763e+003;1.885973e-002
1.870692e+003;1.884201e-002
1.872620e+003;1.900824e-002
1.874549e+003;1.918697e-002
1.876477e+003;1.911654e-002
1.878406e+003;1.898664e-002
1.880334e+003;1.887939e-002
1.882263e+003;1.896678e-002
1.884191e+003;1.894604e-002
1.886120e+003;1.883340e-002
1.888048e+003;1.871013e-002
1.889977e+003;1.859650e-002
1.891906e+003;1.872400e-002
1.893834e+003;1.885174e-002
1.895763e+003;1.905172e-002
1.897691e+003;1.892967e-002
1.899620e+003;1.867782e-002
1.901548e+003;1.857696e-002
1.903477e+003;1.871026e-002
1.905405e+003;1.887371e-002
1.907334e+003;1.915272e-002
1.909262e+003;1.938372e-002
1.911191e+003;1.954516e-002
1.913120e+003;1.975459e-002
1.915048e+003;1.984511e-002
1.916977e+003;1.960163e-002
1.918905e+003;1.948767e-002
1.920834e+003;1.954218e-002
1.922762e+003;1.961140e-002
1.924691e+003;1.989498e-002
1.926619e+003;2.007994e-002
1.928548e+003;2.012808e-002
1.930477e+003;2.037212e-002
1.932405e+003;2.056069e-002
1.934334e+003;2.062726e-002
1.936262e+003;2.058508e-002
1.938191e+003;2.062291e-002
1.940119e+003;2.058879e-002
1.942048e+003;2.080318e-002
1.943976e+003;2.088814e-002
1.945905e+003;2.088348e-002
1.947833e+003;2.103001e-002
1.949762e+003;2.116518e-002
1.951691e+003;2.126148e-002
1.953619e+003;2.152849e-002
1.955548e+003;2.148062e-002
1.957476e+003;2.123201e-002
1.959405e+003;2.108479e-002
1.961333e+003;2.120084e-002
1.963262e+003;2.120258e-002
1.965190e+003;2.122978e-002
1.967119e+003;2.119812e-002
1.969047e+003;2.112437e-002
1.970976e+003;2.129889e-002
1.972905e+003;2.162637e-002
1.974833e+003;2.189942e-002
1.976762e+003;2.167022e-002
1.978690e+003;2.137030e-002
1.980619e+003;2.171317e-002
1.982547e+003;2.204835e-002
1.984476e+003;2.193598e-002
1.986404e+003;2.192166e-002
1.988333e+003;2.201552e-002
1.990261e+003;2.216613e-002
1.992190e+003;2.228435e-002
1.994119e+003;2.215242e-002
1.996047e+003;2.223297e-002
1.997976e+003;2.253527e-002
1.999904e+003;2.255711e-002
2.001833e+003;2.249747e-002
2.003761e+003;2.279021e-002
2.005690e+003;2.304589e-002
2.007618e+003;2.308712e-002
2.009547e+003;2.312063e-002
2.011476e+003;2.351427e-002
2.013404e+003;2.368548e-002
2.015333e+003;2.374077e-002
2.017261e+003;2.399025e-002
2.019190e+003;2.410442e-002
2.021118e+003;2.410134e-002
2.023047e+003;2.427219e-002
2.024975e+003;2.456367e-002
2.026904e+003;2.478195e-002
2.028833e+003;2.508448e-002
2.030761e+003;2.544638e-002
2.032690e+003;2.579799e-002
2.034618e+003;2.576104e-002
2.036547e+003;2.556121e-002
2.038475e+003;2.565090e-002
2.040404e+003;2.603632e-002
2.042332e+003;2.612034e-002
2.044261e+003;2.605458e-002
2.046189e+003;2.625277e-002
2.048118e+003;2.632645e-002
2.050047e+003;2.613568e-002
2.051975e+003;2.615173e-002
2.053904e+003;2.643884e-002
2.055832e+003;2.662621e-002
2.057761e+003;2.644091e-002
2.059689e+003;2.630494e-002
2.061618e+003;2.625140e-002
2.063546e+003;2.620853e-002
2.065475e+003;2.632395e-002
2.067404e+003;2.649923e-002
2.069332e+003;2.642989e-002
2.071260e+003;2.620965e-002
2.073189e+003;2.640288e-002
2.075118e+003;2.662974e-002
2.077046e+003;2.649039e-002
2.078975e+003;2.650099e-002
2.080903e+003;2.662283e-002
2.082832e+003;2.688871e-002
2.084760e+003;2.716294e-002
2.086689e+003;2.675760e-002
2.088617e+003;2.635180e-002
2.090546e+003;2.674992e-002
2.092475e+003;2.716337e-002
2.094403e+003;2.696028e-002
2.096332e+003;2.684003e-002
2.098260e+003;2.718954e-002
2.100189e+003;2.736094e-002
2.102117e+003;2.735226e-002
2.104046e+003;2.749961e-002
2.105974e+003;2.759747e-002
2.107903e+003;2.750656e-002
2.109832e+003;2.749629e-002
2.111760e+003;2.787660e-002
2.113688e+003;2.834509e-002
2.115617e+003;2.832330e-002
2.117546e+003;2.800656e-002
2.119474e+003;2.786119e-002
2.121403e+003;2.791426e-002
2.123331e+003;2.813780e-002
2.125260e+003;2.859486e-002
2.127188e+003;2.866359e-002
2.129117e+003;2.853478e-002
2.131045e+003;2.838516e-002
2.132974e+003;2.832153e-002
2.134903e+003;2.850137e-002
2.136831e+003;2.850643e-002
2.138760e+003;2.837533e-002
2.140688e+003;2.856634e-002
2.142617e+003;2.879486e-002
2.144545e+003;2.860877e-002
2.146474e+003;2.830834e-002
2.148402e+003;2.827146e-002
2.150331e+003;2.834413e-002
2.152260e+003;2.817210e-002
2.154188e+003;2.755352e-002
2.156117e+003;2.723896e-002
2.158045e+003;2.737830e-002
2.159974e+003;2.744906e-002
2.161902e+003;2.755309e-002
2.163831e+003;2.728095e-002
2.165759e+003;2.684102e-002
2.167688e+003;2.676511e-002
2.169616e+003;2.675640e-002
2.171545e+003;2.650578e-002
2.173474e+003;2.631363e-002
2.175402e+003;2.627818e-002
2.177331e+003;2.618379e-002
2.179259e+003;2.596666e-002
2.181188e+003;2.587842e-002
2.183116e+003;2.590599e-002
2.185045e+003;2.573365e-002
2.186973e+003;2.543468e-002
2.188902e+003;2.555474e-002
2.190831e+003;2.583900e-002
2.192759e+003;2.570296e-002
2.194688e+003;2.538873e-002
2.196616e+003;2.512453e-002
2.198545e+003;2.508700e-002
2.200473e+003;2.526432e-002
2.202402e+003;2.512825e-002
2.204330e+003;2.499666e-002
2.206259e+003;2.488489e-002
2.208188e+003;2.474129e-002
2.210116e+003;2.474017e-002
2.212044e+003;2.483359e-002
2.213973e+003;2.479830e-002
2.215902e+003;2.485545e-002
2.217830e+003;2.514384e-002
2.219759e+003;2.528002e-002
2.221687e+003;2.513050e-002
2.223616e+003;2.509922e-002
2.225544e+003;2.522639e-002
2.227473e+003;2.519791e-002
2.229401e+003;2.482731e-002
2.231330e+003;2.466371e-002
2.233259e+003;2.478220e-002
2.235187e+003;2.496879e-002
2.237116e+003;2.501431e-002
2.239044e+003;2.487155e-002
2.240973e+003;2.468760e-002
2.242901e+003;2.497553e-002
2.244830e+003;2.525006e-002
2.246758e+003;2.514932e-002
2.248687e+003;2.502456e-002
2.250615e+003;2.486338e-002
2.252544e+003;2.471699e-002
2.254473e+003;2.464933e-002
2.256401e+003;2.422836e-002
2.258330e+003;2.422510e-002
2.260258e+003;2.434883e-002
2.262187e+003;2.421004e-002
2.264115e+003;2.411745e-002
2.266044e+003;2.409437e-002
2.267972e+003;2.415304e-002
2.269901e+003;2.447374e-002
2.271830e+003;2.469240e-002
2.273758e+003;2.456675e-002
2.275687e+003;2.422640e-002
2.277615e+003;2.394211e-002
2.279544e+003;2.378823e-002
2.281472e+003;2.398563e-002
2.283401e+003;2.417658e-002
2.285329e+003;2.414215e-002
2.287258e+003;2.399701e-002
2.289187e+003;2.405581e-002
2.291115e+003;2.418085e-002
2.293043e+003;2.387419e-002
2.294972e+003;2.386922e-002
2.296901e+003;2.406394e-002
2.298829e+003;2.395899e-002
2.300758e+003;2.374248e-002
2.302686e+003;2.358650e-002
2.304615e+003;2.376520e-002
2.306543e+003;2.384510e-002
2.308472e+003;2.369405e-002
2.310400e+003;2.358692e-002
2.312329e+003;2.359686e-002
2.314258e+003;2.302982e-002
2.316186e+003;2.256556e-002
2.318115e+003;2.251003e-002
2.320043e+003;2.211658e-002
2.321972e+003;2.180904e-002
2.323900e+003;2.176991e-002
2.325829e+003;2.130213e-002
2.327757e+003;2.071180e-002
2.329686e+003;2.068313e-002
2.331615e+003;2.058734e-002
2.333543e+003;2.045620e-002
2.335472e+003;2.039393e-002
2.337400e+003;2.046985e-002
2.339329e+003;2.070920e-002
2.341257e+003;2.125094e-002
2.343186e+003;2.199140e-002
2.345114e+003;2.282666e-002
2.347043e+003;2.371704e-002
2.348971e+003;2.423242e-002
2.350900e+003;2.373356e-002
2.352829e+003;2.248505e-002
2.354757e+003;2.126681e-002
2.356686e+003;2.074117e-002
2.358614e+003;2.055614e-002
2.360543e+003;2.033129e-002
2.362471e+003;2.036553e-002
2.364400e+003;2.083766e-002
2.366328e+003;2.161418e-002
2.368257e+003;2.250780e-002
2.370186e+003;2.317739e-002
2.372114e+003;2.391323e-002
2.374042e+003;2.474466e-002
2.375971e+003;2.549539e-002
2.377900e+003;2.629860e-002
2.379828e+003;2.661691e-002
2.381757e+003;2.667198e-002
2.383685e+003;2.689576e-002
2.385614e+003;2.701754e-002
2.387542e+003;2.713723e-002
2.389471e+003;2.764740e-002
2.391399e+003;2.785551e-002
2.393328e+003;2.764387e-002
2.395257e+003;2.768737e-002
2.397185e+003;2.806679e-002
2.399114e+003;2.825303e-002
2.401042e+003;2.810673e-002
2.402971e+003;2.794879e-002
2.404899e+003;2.799674e-002
2.406828e+003;2.825798e-002
2.408756e+003;2.872819e-002
2.410685e+003;2.865758e-002
2.412614e+003;2.867871e-002
2.414542e+003;2.908964e-002
2.416471e+003;2.934920e-002
2.418399e+003;2.950181e-002
2.420328e+003;2.955752e-002
2.422256e+003;2.963641e-002
2.424185e+003;2.974997e-002
2.426113e+003;2.960512e-002
2.428042e+003;2.974171e-002
2.429970e+003;3.019392e-002
2.431899e+003;3.061546e-002
2.433828e+003;3.087469e-002
2.435756e+003;3.072914e-002
2.437685e+003;3.053679e-002
2.439613e+003;3.058229e-002
2.441542e+003;3.080607e-002
2.443470e+003;3.100584e-002
2.445399e+003;3.107435e-002
2.447327e+003;3.142386e-002
2.449256e+003;3.158710e-002
2.451185e+003;3.140057e-002
2.453113e+003;3.148709e-002
2.455042e+003;3.164604e-002
2.456970e+003;3.178342e-002
2.458899e+003;3.203825e-002
2.460827e+003;3.235362e-002
2.462756e+003;3.252296e-002
2.464684e+003;3.264325e-002
2.466613e+003;3.273027e-002
2.468542e+003;3.268329e-002
2.470470e+003;3.285244e-002
2.472398e+003;3.301572e-002
2.474327e+003;3.311187e-002
2.476256e+003;3.339750e-002
2.478184e+003;3.344606e-002
2.480113e+003;3.353482e-002
2.482041e+003;3.387263e-002
2.483970e+003;3.419676e-002
2.485898e+003;3.445233e-002
2.487827e+003;3.426395e-002
2.489755e+003;3.395478e-002
2.491684e+003;3.412987e-002
2.493613e+003;3.434409e-002
2.495541e+003;3.446076e-002
2.497470e+003;3.450911e-002
2.499398e+003;3.485275e-002
2.501327e+003;3.543641e-002
2.503255e+003;3.574488e-002
2.505184e+003;3.570771e-002
2.507112e+003;3.560743e-002
2.509041e+003;3.558492e-002
2.510969e+003;3.557571e-002
2.512898e+003;3.584281e-002
2.514827e+003;3.634887e-002
2.516755e+003;3.627308e-002
2.518684e+003;3.604689e-002
2.520612e+003;3.618027e-002
2.522541e+003;3.631011e-002
2.524469e+003;3.626595e-002
2.526398e+003;3.624268e-002
2.528326e+003;3.636235e-002
2.530255e+003;3.642399e-002
2.532184e+003;3.650014e-002
2.534112e+003;3.675843e-002
2.536041e+003;3.688582e-002
2.537969e+003;3.686122e-002
2.539898e+003;3.705178e-002
2.541826e+003;3.724845e-002
2.543755e+003;3.734608e-002
2.545683e+003;3.724412e-002
2.547612e+003;3.714359e-002
2.549541e+003;3.744218e-002
2.551469e+003;3.757713e-002
2.553397e+003;3.746168e-002
2.555326e+003;3.728835e-002
2.557255e+003;3.742928e-002
2.559183e+003;3.762125e-002
2.561112e+003;3.774014e-002
2.563040e+003;3.789236e-002
2.564969e+003;3.789196e-002
2.566897e+003;3.798992e-002
2.568826e+003;3.806905e-002
2.570754e+003;3.785295e-002
2.572683e+003;3.771947e-002
2.574612e+003;3.780397e-002
2.576540e+003;3.806887e-002
2.578469e+003;3.828482e-002
2.580397e+003;3.843191e-002
2.582326e+003;3.849965e-002
2.584254e+003;3.832003e-002
2.586183e+003;3.847767e-002
2.588111e+003;3.874138e-002
2.590040e+003;3.878304e-002
2.591969e+003;3.883196e-002
2.593897e+003;3.909070e-002
2.595826e+003;3.948962e-002
2.597754e+003;3.994138e-002
2.599683e+003;3.994004e-002
2.601611e+003;3.970359e-002
2.603540e+003;3.980827e-002
2.605468e+003;4.005277e-002
2.607397e+003;4.018698e-002
2.609325e+003;3.996024e-002
2.611254e+003;4.005074e-002
2.613183e+003;4.023321e-002
2.615111e+003;4.041598e-002
2.617040e+003;4.056355e-002
2.618968e+003;4.063271e-002
2.620897e+003;4.047265e-002
2.622825e+003;4.059556e-002
2.624754e+003;4.118292e-002
2.626682e+003;4.155765e-002
2.628611e+003;4.160240e-002
2.630540e+003;4.163729e-002
2.632468e+003;4.219437e-002
2.634396e+003;4.268084e-002
2.636325e+003;4.282083e-002
2.638254e+003;4.290301e-002
2.640182e+003;4.286025e-002
2.642111e+003;4.278628e-002
2.644039e+003;4.283615e-002
2.645968e+003;4.324098e-002
2.647896e+003;4.333220e-002
2.649825e+003;4.348823e-002
2.651753e+003;4.382760e-002
2.653682e+003;4.394967e-002
2.655611e+003;4.389758e-002
2.657539e+003;4.391664e-002
2.659468e+003;4.386573e-002
2.661396e+003;4.400177e-002
2.663325e+003;4.426978e-002
2.665253e+003;4.430079e-002
2.667182e+003;4.419736e-002
2.669110e+003;4.417594e-002
2.671039e+003;4.445301e-002
2.672968e+003;4.474315e-002
2.674896e+003;4.492916e-002
2.676825e+003;4.517917e-002
2.678753e+003;4.541708e-002
2.680682e+003;4.559539e-002
2.682610e+003;4.581482e-002
2.684539e+003;4.607319e-002
2.686467e+003;4.615528e-002
2.688396e+003;4.638945e-002
2.690324e+003;4.661094e-002
2.692253e+003;4.680468e-002
2.694182e+003;4.686643e-002
2.696110e+003;4.727868e-002
2.698039e+003;4.753719e-002
2.699967e+003;4.750991e-002
2.701896e+003;4.771322e-002
2.703824e+003;4.799186e-002
2.705753e+003;4.780924e-002
2.707681e+003;4.778309e-002
2.709610e+003;4.826764e-002
2.711539e+003;4.891168e-002
2.713467e+003;4.931319e-002
2.715396e+003;4.918029e-002
2.717324e+003;4.894502e-002
2.719253e+003;4.916088e-002
2.721181e+003;4.955360e-002
2.723110e+003;4.960292e-002
2.725038e+003;4.960448e-002
2.726967e+003;4.964070e-002
2.728896e+003;4.980123e-002
2.730824e+003;5.000886e-002
2.732752e+003;5.002332e-002
2.734681e+003;5.008720e-002
2.736610e+003;5.038850e-002
2.738538e+003;5.080158e-002
2.740467e+003;5.063657e-002
2.742395e+003;5.033990e-002
2.744324e+003;5.040993e-002
2.746252e+003;5.078017e-002
2.748181e+003;5.098543e-002
2.750109e+003;5.092444e-002
2.752038e+003;5.076434e-002
2.753967e+003;5.110531e-002
2.755895e+003;5.176485e-002
2.757824e+003;5.180188e-002
2.759752e+003;5.145950e-002
2.761681e+003;5.161840e-002
2.763609e+003;5.203195e-002
2.765538e+003;5.243205e-002
2.767466e+003;5.279424e-002
2.769395e+003;5.262347e-002
2.771323e+003;5.260507e-002
2.773252e+003;5.301832e-002
2.775181e+003;5.319389e-002
2.777109e+003;5.334061e-002
2.779038e+003;5.334316e-002
2.780966e+003;5.328967e-002
2.782895e+003;5.369191e-002
2.784823e+003;5.402078e-002
2.786752e+003;5.387792e-002
2.788680e+003;5.379128e-002
2.790609e+003;5.416880e-002
2.792538e+003;5.455566e-002
2.794466e+003;5.495885e-002
2.796395e+003;5.544007e-002
2.798323e+003;5.579985e-002
2.800252e+003;5.610159e-002
2.802180e+003;5.634168e-002
2.804109e+003;5.692774e-002
2.806037e+003;5.746292e-002
2.807966e+003;5.739243e-002
2.809895e+003;5.740770e-002
2.811823e+003;5.796961e-002
2.813751e+003;5.872629e-002
2.815680e+003;5.930277e-002
2.817609e+003;5.965516e-002
2.819537e+003;6.007195e-002
2.821466e+003;6.045892e-002
2.823394e+003;6.108733e-002
2.825323e+003;6.187587e-002
2.827251e+003;6.238781e-002
2.829180e+003;6.291445e-002
2.831108e+003;6.362586e-002
2.833037e+003;6.449990e-002
2.834966e+003;6.544954e-002
2.836894e+003;6.619607e-002
2.838823e+003;6.721263e-002
2.840751e+003;6.857952e-002
2.842680e+003;7.008692e-002
2.844608e+003;7.182679e-002
2.846537e+003;7.337297e-002
2.848465e+003;7.512802e-002
2.850394e+003;7.685371e-002
2.852323e+003;7.824036e-002
2.854251e+003;7.915869e-002
2.856180e+003;7.942245e-002
2.858108e+003;7.958018e-002
2.860037e+003;7.952446e-002
2.861965e+003;7.932141e-002
2.863894e+003;7.963705e-002
2.865822e+003;8.018835e-002
2.867751e+003;8.097536e-002
2.869679e+003;8.141473e-002
2.871608e+003;8.139554e-002
2.873536e+003;8.140638e-002
2.875465e+003;8.162492e-002
2.877394e+003;8.199326e-002
2.879322e+003;8.233924e-002
2.881251e+003;8.274306e-002
2.883179e+003;8.336126e-002
2.885108e+003;8.395679e-002
2.887036e+003;8.432759e-002
2.888965e+003;8.461843e-002
2.890893e+003;8.486172e-002
2.892822e+003;8.531374e-002
2.894750e+003;8.544224e-002
2.896679e+003;8.536790e-002
2.898608e+003;8.560439e-002
2.900536e+003;8.590161e-002
2.902465e+003;8.598597e-002
2.904393e+003;8.564979e-002
2.906322e+003;8.569261e-002
2.908250e+003;8.632347e-002
2.910179e+003;8.672325e-002
2.912107e+003;8.701185e-002
2.914036e+003;8.727848e-002
2.915965e+003;8.778396e-002
2.917893e+003;8.835939e-002
2.919822e+003;8.871382e-002
2.921750e+003;8.886894e-002
2.923679e+003;8.841414e-002
2.925607e+003;8.780692e-002
2.927536e+003;8.712133e-002
2.929464e+003;8.611479e-002
2.931393e+003;8.533068e-002
2.933322e+003;8.443865e-002
2.935250e+003;8.327556e-002
2.937178e+003;8.221678e-002
2.939107e+003;8.099377e-002
2.941036e+003;7.987024e-002
2.942964e+003;7.926346e-002
2.944893e+003;7.844501e-002
2.946821e+003;7.726181e-002
2.948750e+003;7.625908e-002
2.950678e+003;7.528668e-002
2.952607e+003;7.422610e-002
2.954535e+003;7.333124e-002
2.956464e+003;7.248178e-002
2.958393e+003;7.143615e-002
2.960321e+003;7.044458e-002
2.962250e+003;6.964459e-002
2.964178e+003;6.885060e-002
2.966107e+003;6.835527e-002
2.968035e+003;6.764126e-002
2.969964e+003;6.652606e-002
2.971892e+003;6.560690e-002
2.973821e+003;6.465768e-002
2.975750e+003;6.376345e-002
2.977678e+003;6.336083e-002
2.979607e+003;6.299420e-002
2.981535e+003;6.238276e-002
2.983464e+003;6.166841e-002
2.985392e+003;6.119684e-002
2.987321e+003;6.064092e-002
2.989249e+003;5.982492e-002
2.991178e+003;5.944181e-002
2.993106e+003;5.934505e-002
2.995035e+003;5.928116e-002
2.996964e+003;5.908106e-002
2.998892e+003;5.881809e-002
3.000821e+003;5.881054e-002
3.002749e+003;5.850122e-002
3.004678e+003;5.797707e-002
3.006606e+003;5.780761e-002
3.008535e+003;5.784414e-002
3.010463e+003;5.795302e-002
3.012392e+003;5.793530e-002
3.014321e+003;5.794374e-002
3.016249e+003;5.821038e-002
3.018177e+003;5.801160e-002
3.020106e+003;5.745286e-002
3.022035e+003;5.736290e-002
3.023963e+003;5.773259e-002
3.025892e+003;5.814738e-002
3.027820e+003;5.824213e-002
3.029749e+003;5.812276e-002
3.031677e+003;5.823172e-002
3.033606e+003;5.833293e-002
3.035534e+003;5.857144e-002
3.037463e+003;5.887444e-002
3.039392e+003;5.872109e-002
3.041320e+003;5.879813e-002
3.043249e+003;5.908527e-002
3.045177e+003;5.928868e-002
3.047106e+003;5.969348e-002
3.049034e+003;6.012571e-002
3.050963e+003;6.035881e-002
3.052891e+003;6.065041e-002
3.054820e+003;6.094289e-002
3.056749e+003;6.095467e-002
3.058677e+003;6.111441e-002
3.060606e+003;6.157413e-002
3.062534e+003;6.201509e-002
3.064463e+003;6.249275e-002
3.066391e+003;6.261111e-002
3.068320e+003;6.238789e-002
3.070248e+003;6.282113e-002
3.072177e+003;6.340799e-002
3.074105e+003;6.350075e-002
3.076034e+003;6.368452e-002
3.077963e+003;6.425212e-002
3.079891e+003;6.462054e-002
3.081820e+003;6.470079e-002
3.083748e+003;6.494948e-002
3.085677e+003;6.552733e-002
3.087605e+003;6.582962e-002
3.089534e+003;6.607912e-002
3.091462e+003;6.685549e-002
3.093391e+003;6.692715e-002
3.095320e+003;6.668280e-002
3.097248e+003;6.707302e-002
3.099177e+003;6.777036e-002
3.101105e+003;6.834918e-002
3.103034e+003;6.869607e-002
3.104962e+003;6.909485e-002
3.106891e+003;6.958994e-002
3.108819e+003;6.990095e-002
3.110748e+003;6.983351e-002
3.112677e+003;7.018715e-002
3.114605e+003;7.060700e-002
3.116533e+003;7.079568e-002
3.118462e+003;7.090435e-002
3.120391e+003;7.118984e-002
3.122319e+003;7.168385e-002
3.124248e+003;7.187624e-002
3.126176e+003;7.214282e-002
3.128105e+003;7.273556e-002
3.130033e+003;7.324380e-002
3.131962e+003;7.384281e-002
3.133890e+003;7.443560e-002
3.135819e+003;7.472689e-002
3.137748e+003;7.518065e-002
3.139676e+003;7.560452e-002
3.141605e+003;7.594028e-002
3.143533e+003;7.636474e-002
3.145462e+003;7.647177e-002
3.147390e+003;7.676047e-002
3.149319e+003;7.740019e-002
3.151247e+003;7.829460e-002
3.153176e+003;7.862283e-002
3.155104e+003;7.841989e-002
3.157033e+003;7.840774e-002
3.158962e+003;7.912859e-002
3.160890e+003;8.004689e-002
3.162819e+003;8.026196e-002
3.164747e+003;8.017603e-002
3.166676e+003;8.101697e-002
3.168604e+003;8.189002e-002
3.170533e+003;8.204352e-002
3.172461e+003;8.244739e-002
3.174390e+003;8.305001e-002
3.176319e+003;8.351276e-002
3.178247e+003;8.369207e-002
3.180176e+003;8.398947e-002
3.182104e+003;8.511252e-002
3.184033e+003;8.587141e-002
3.185961e+003;8.619395e-002
3.187890e+003;8.675950e-002
3.189818e+003;8.726794e-002
3.191747e+003;8.737044e-002
3.193676e+003;8.742721e-002
3.195604e+003;8.772419e-002
3.197532e+003;8.811336e-002
3.199461e+003;8.865976e-002
3.201390e+003;8.966274e-002
3.203318e+003;9.040033e-002
3.205247e+003;9.045072e-002
3.207175e+003;9.068787e-002
3.209104e+003;9.147195e-002
3.211032e+003;9.216465e-002
3.212961e+003;9.276713e-002
3.214889e+003;9.354421e-002
3.216818e+003;9.377161e-002
3.218747e+003;9.413728e-002
3.220675e+003;9.468646e-002
3.222604e+003;9.523963e-002
3.224532e+003;9.554228e-002
3.226461e+003;9.557920e-002
3.228389e+003;9.602276e-002
3.230318e+003;9.693996e-002
3.232246e+003;9.745189e-002
3.234175e+003;9.784378e-002
3.236104e+003;9.823952e-002
3.238032e+003;9.874932e-002
3.239961e+003;9.916525e-002
3.241889e+003;9.979974e-002
3.243818e+003;1.007702e-001
3.245746e+003;1.013618e-001
3.247675e+003;1.016146e-001
3.249603e+003;1.020128e-001
3.251532e+003;1.027651e-001
3.253460e+003;1.034909e-001
3.255389e+003;1.035863e-001
3.257318e+003;1.036378e-001
3.259246e+003;1.039832e-001
3.261175e+003;1.045045e-001
3.263103e+003;1.054813e-001
3.265032e+003;1.063662e-001
3.266960e+003;1.065742e-001
3.268889e+003;1.067060e-001
3.270817e+003;1.071292e-001
3.272746e+003;1.075034e-001
3.274675e+003;1.079859e-001
3.276603e+003;1.087114e-001
3.278531e+003;1.091376e-001
3.280460e+003;1.096436e-001
3.282389e+003;1.102833e-001
3.284317e+003;1.100381e-001
3.286246e+003;1.093666e-001
3.288174e+003;1.091267e-001
3.290103e+003;1.097514e-001
3.292031e+003;1.104039e-001
3.293960e+003;1.107872e-001
3.295888e+003;1.113900e-001
3.297817e+003;1.115413e-001
3.299746e+003;1.113604e-001
3.301674e+003;1.115088e-001
3.303603e+003;1.115117e-001
3.305531e+003;1.113144e-001
3.307460e+003;1.116923e-001
3.309388e+003;1.126571e-001
3.311317e+003;1.129734e-001
3.313245e+003;1.128454e-001
3.315174e+003;1.129255e-001
3.317103e+003;1.128740e-001
3.319031e+003;1.129654e-001
3.320960e+003;1.129412e-001
3.322888e+003;1.127745e-001
3.324817e+003;1.132802e-001
3.326745e+003;1.141786e-001
3.328674e+003;1.139558e-001
3.330602e+003;1.135707e-001
3.332531e+003;1.134407e-001
3.334459e+003;1.134961e-001
3.336388e+003;1.138749e-001
3.338317e+003;1.142338e-001
3.340245e+003;1.140631e-001
3.342174e+003;1.140176e-001
3.344102e+003;1.143868e-001
3.346031e+003;1.141270e-001
3.347959e+003;1.134583e-001
3.349888e+003;1.130173e-001
3.351816e+003;1.132290e-001
3.353745e+003;1.134439e-001
3.355674e+003;1.131134e-001
3.357602e+003;1.128317e-001
3.359531e+003;1.124852e-001
3.361459e+003;1.126122e-001
3.363388e+003;1.127004e-001
3.365316e+003;1.122651e-001
3.367245e+003;1.121194e-001
3.369173e+003;1.123707e-001
3.371102e+003;1.126282e-001
3.373031e+003;1.125911e-001
3.374959e+003;1.118664e-001
3.376887e+003;1.113281e-001
3.378816e+003;1.112848e-001
3.380745e+003;1.108701e-001
3.382673e+003;1.107668e-001
3.384602e+003;1.106681e-001
3.386530e+003;1.105187e-001
3.388459e+003;1.106325e-001
3.390387e+003;1.105356e-001
3.392316e+003;1.099962e-001
3.394244e+003;1.092378e-001
3.396173e+003;1.087729e-001
3.398102e+003;1.086922e-001
3.400030e+003;1.081886e-001
3.401959e+003;1.076869e-001
3.403887e+003;1.072885e-001
3.405816e+003;1.067855e-001
3.407744e+003;1.067300e-001
3.409673e+003;1.070875e-001
3.411601e+003;1.069003e-001
3.413530e+003;1.057885e-001
3.415458e+003;1.047018e-001
3.417387e+003;1.047075e-001
3.419316e+003;1.047906e-001
3.421244e+003;1.043506e-001
3.423173e+003;1.036395e-001
3.425101e+003;1.030391e-001
3.427030e+003;1.027420e-001
3.428958e+003;1.023092e-001
3.430887e+003;1.014417e-001
3.432815e+003;1.005812e-001
3.434744e+003;1.002413e-001
3.436673e+003;9.984782e-002
3.438601e+003;9.940287e-002
3.440530e+003;9.921183e-002
3.442458e+003;9.884624e-002
3.444387e+003;9.806922e-002
3.446315e+003;9.723431e-002
3.448244e+003;9.683742e-002
3.450172e+003;9.635641e-002
3.452101e+003;9.589151e-002
3.454030e+003;9.535620e-002
3.455958e+003;9.452990e-002
3.457886e+003;9.455416e-002
3.459815e+003;9.408057e-002
3.461744e+003;9.268233e-002
3.463672e+003;9.191859e-002
3.465601e+003;9.181378e-002
3.467529e+003;9.159697e-002
3.469458e+003;9.077484e-002
3.471386e+003;8.957037e-002
3.473315e+003;8.869354e-002
3.475243e+003;8.822028e-002
3.477172e+003;8.767979e-002
3.479101e+003;8.691393e-002
3.481029e+003;8.645142e-002
3.482958e+003;8.593812e-002
3.484886e+003;8.513102e-002
3.486815e+003;8.465841e-002
3.488743e+003;8.429641e-002
3.490672e+003;8.336131e-002
3.492600e+003;8.243253e-002
3.494529e+003;8.170637e-002
3.496458e+003;8.104109e-002
3.498386e+003;8.050394e-002
3.500315e+003;7.962523e-002
3.502243e+003;7.915992e-002
3.504172e+003;7.947369e-002
3.506100e+003;7.910696e-002
3.508029e+003;7.819010e-002
3.509957e+003;7.714964e-002
3.511886e+003;7.632627e-002
3.513814e+003;7.558122e-002
3.515743e+003;7.523026e-002
3.517672e+003;7.470335e-002
3.519600e+003;7.365633e-002
3.521529e+003;7.290107e-002
3.523457e+003;7.256616e-002
3.525386e+003;7.180192e-002
3.527314e+003;7.096700e-002
3.529243e+003;7.065129e-002
3.531171e+003;6.994841e-002
3.533100e+003;6.899265e-002
3.535029e+003;6.814066e-002
3.536957e+003;6.743308e-002
3.538885e+003;6.683288e-002
3.540814e+003;6.663687e-002
3.542743e+003;6.612947e-002
3.544671e+003;6.511090e-002
3.546600e+003;6.434955e-002
3.548528e+003;6.389041e-002
3.550457e+003;6.322712e-002
3.552385e+003;6.258497e-002
3.554314e+003;6.191611e-002
3.556242e+003;6.145652e-002
3.558171e+003;6.067095e-002
3.560100e+003;5.964725e-002
3.562028e+003;5.869590e-002
3.563957e+003;5.779447e-002
3.565885e+003;5.722082e-002
3.567814e+003;5.676443e-002
3.569742e+003;5.669212e-002
3.571671e+003;5.683191e-002
3.573599e+003;5.601643e-002
3.575528e+003;5.470348e-002
3.577457e+003;5.420153e-002
3.579385e+003;5.363912e-002
3.581314e+003;5.247927e-002
3.583242e+003;5.187573e-002
3.585171e+003;5.148185e-002
3.587099e+003;5.069861e-002
3.589028e+003;4.985289e-002
3.590956e+003;4.915283e-002
3.592885e+003;4.885005e-002
3.594813e+003;4.861437e-002
3.596742e+003;4.815760e-002
3.598671e+003;4.748352e-002
3.600599e+003;4.665587e-002
3.602528e+003;4.564842e-002
3.604456e+003;4.522124e-002
3.606385e+003;4.476747e-002
3.608313e+003;4.377080e-002
3.610242e+003;4.299906e-002
3.612170e+003;4.248655e-002
3.614099e+003;4.175251e-002
3.616028e+003;4.123535e-002
3.617956e+003;4.040227e-002
3.619885e+003;3.973681e-002
3.621813e+003;3.954750e-002
3.623742e+003;3.921221e-002
3.625670e+003;3.851797e-002
3.627599e+003;3.719755e-002
3.629527e+003;3.615448e-002
3.631456e+003;3.636883e-002
3.633385e+003;3.601475e-002
3.635313e+003;3.514825e-002
3.637241e+003;3.425290e-002
3.639170e+003;3.348783e-002
3.641099e+003;3.293472e-002
3.643027e+003;3.207121e-002
3.644956e+003;3.109681e-002
3.646884e+003;2.981889e-002
3.648813e+003;2.862385e-002
3.650741e+003;2.771005e-002
3.652670e+003;2.724753e-002
3.654598e+003;2.695058e-002
3.656527e+003;2.636120e-002
3.658456e+003;2.562521e-002
3.660384e+003;2.492927e-002
3.662313e+003;2.439624e-002
3.664241e+003;2.384171e-002
3.666170e+003;2.273287e-002
3.668098e+003;2.146370e-002
3.670027e+003;2.055593e-002
3.671955e+003;2.034928e-002
3.673884e+003;1.991011e-002
3.675813e+003;1.902566e-002
3.677741e+003;1.844440e-002
3.679669e+003;1.812137e-002
3.681598e+003;1.755105e-002
3.683527e+003;1.724428e-002
3.685455e+003;1.736234e-002
3.687384e+003;1.657489e-002
3.689312e+003;1.580175e-002
3.691241e+003;1.542709e-002
3.693169e+003;1.483228e-002
3.695098e+003;1.476262e-002
3.697026e+003;1.471175e-002
3.698955e+003;1.441640e-002
3.700884e+003;1.437105e-002
3.702812e+003;1.413692e-002
3.704741e+003;1.373900e-002
3.706669e+003;1.341492e-002
3.708598e+003;1.313748e-002
3.710526e+003;1.268258e-002
3.712455e+003;1.230563e-002
3.714383e+003;1.215724e-002
3.716312e+003;1.197348e-002
3.718240e+003;1.208790e-002
3.720169e+003;1.203919e-002
3.722098e+003;1.161783e-002
3.724026e+003;1.168798e-002
3.725955e+003;1.207281e-002
3.727883e+003;1.241291e-002
3.729812e+003;1.200066e-002
3.731740e+003;1.127064e-002
3.733669e+003;1.091424e-002
3.735597e+003;1.084802e-002
3.737526e+003;1.111988e-002
3.739455e+003;1.103902e-002
3.741383e+003;1.059483e-002
3.743312e+003;9.890555e-003
3.745240e+003;9.849610e-003
3.747169e+003;1.059531e-002
3.749097e+003;1.037780e-002
3.751026e+003;9.883200e-003
3.752954e+003;1.042969e-002
3.754883e+003;1.094533e-002
3.756812e+003;1.092182e-002
3.758740e+003;1.124544e-002
3.760668e+003;1.156406e-002
3.762597e+003;1.152585e-002
3.764526e+003;1.118121e-002
3.766454e+003;1.097415e-002
3.768383e+003;1.074391e-002
3.770311e+003;1.060573e-002
3.772240e+003;1.129369e-002
3.774168e+003;1.138396e-002
3.776097e+003;1.099987e-002
3.778025e+003;1.057922e-002
3.779954e+003;1.085346e-002
3.781883e+003;1.120841e-002
3.783811e+003;1.109255e-002
3.785740e+003;1.136273e-002
3.787668e+003;1.142205e-002
3.789597e+003;1.158530e-002
3.791525e+003;1.146499e-002
3.793454e+003;1.103413e-002
3.795382e+003;1.075386e-002
3.797311e+003;1.070730e-002
3.799240e+003;1.090452e-002
3.801168e+003;1.041116e-002
3.803097e+003;1.037237e-002
3.805025e+003;1.062818e-002
3.806954e+003;1.063799e-002
3.808882e+003;1.059191e-002
3.810811e+003;1.017081e-002
3.812739e+003;1.013967e-002
3.814668e+003;1.041380e-002
3.816596e+003;1.037006e-002
3.818525e+003;1.033436e-002
3.820454e+003;1.013621e-002
3.822382e+003;1.060662e-002
3.824311e+003;1.108107e-002
3.826239e+003;1.080138e-002
3.828168e+003;1.083267e-002
3.830096e+003;1.113753e-002
3.832025e+003;1.107688e-002
3.833953e+003;1.084762e-002
3.835882e+003;1.006706e-002
3.837811e+003;9.369122e-003
3.839739e+003;1.011417e-002
3.841667e+003;1.087935e-002
3.843596e+003;1.088454e-002
3.845525e+003;1.111767e-002
3.847453e+003;1.154065e-002
3.849382e+003;1.143978e-002
3.851310e+003;1.046760e-002
3.853239e+003;9.742653e-003
3.855167e+003;1.103277e-002
3.857096e+003;1.191892e-002
3.859024e+003;1.182265e-002
3.860953e+003;1.176045e-002
3.862882e+003;1.166977e-002
3.864810e+003;1.173369e-002
3.866739e+003;1.160129e-002
3.868667e+003;1.087833e-002
3.870596e+003;1.073009e-002
3.872524e+003;1.144491e-002
3.874453e+003;1.216269e-002
3.876381e+003;1.285695e-002
3.878310e+003;1.284551e-002
3.880239e+003;1.257011e-002
3.882167e+003;1.246937e-002
3.884096e+003;1.248731e-002
3.886024e+003;1.238696e-002
3.887953e+003;1.203520e-002
3.889881e+003;1.195250e-002
3.891810e+003;1.276044e-002
3.893738e+003;1.348327e-002
3.895667e+003;1.376072e-002
3.897595e+003;1.330554e-002
3.899524e+003;1.247122e-002
3.901453e+003;1.278801e-002
3.903381e+003;1.367762e-002
3.905310e+003;1.390757e-002
3.907238e+003;1.344243e-002
3.909167e+003;1.297215e-002
3.911095e+003;1.366674e-002
3.913024e+003;1.417440e-002
3.914952e+003;1.390326e-002
3.916881e+003;1.423770e-002
3.918810e+003;1.442438e-002
3.920738e+003;1.443928e-002
3.922667e+003;1.504651e-002
3.924595e+003;1.533142e-002
3.926524e+003;1.522444e-002
3.928452e+003;1.473753e-002
3.930381e+003;1.428180e-002
3.932309e+003;1.440639e-002
3.934238e+003;1.507166e-002
3.936167e+003;1.520409e-002
3.938095e+003;1.474353e-002
3.940023e+003;1.457385e-002
3.941952e+003;1.484778e-002
3.943881e+003;1.499812e-002
3.945809e+003;1.530276e-002
3.947738e+003;1.530753e-002
3.949666e+003;1.513121e-002
3.951595e+003;1.506020e-002
3.953523e+003;1.528134e-002
3.955452e+003;1.551901e-002
3.957380e+003;1.566927e-002
3.959309e+003;1.610482e-002
3.961238e+003;1.604747e-002
3.963166e+003;1.598074e-002
3.965095e+003;1.608367e-002
3.967023e+003;1.631800e-002
3.968952e+003;1.649927e-002
3.970880e+003;1.622099e-002
3.972809e+003;1.609997e-002
3.974737e+003;1.649376e-002
3.976666e+003;1.678265e-002
3.978594e+003;1.665042e-002
3.980523e+003;1.642435e-002
3.982452e+003;1.608828e-002
3.984380e+003;1.601161e-002
3.986309e+003;1.659558e-002
3.988237e+003;1.640732e-002
3.990166e+003;1.624204e-002
3.992094e+003;1.719278e-002
3.994023e+003;1.799150e-002
3.995951e+003;1.744053e-002
3.997880e+003;1.645529e-002
3.999809e+003;1.639734e-002
4.001737e+003;0.000000e+000
