3.992094e+002;0.000000e+000
4.011380e+002;0.000000e+000
4.030665e+002;0.000000e+000
4.049951e+002;0.000000e+000
4.069236e+002;0.000000e+000
4.088522e+002;0.000000e+000
4.107807e+002;0.000000e+000
4.127093e+002;0.000000e+000
4.146378e+002;0.000000e+000
4.165664e+002;0.000000e+000
4.184949e+002;0.000000e+000
4.204235e+002;0.000000e+000
4.223520e+002;0.000000e+000
4.242806e+002;0.000000e+000
4.262091e+002;0.000000e+000
4.281377e+002;0.000000e+000
4.300662e+002;0.000000e+000
4.319948e+002;0.000000e+000
4.339233e+002;0.000000e+000
4.358519e+002;0.000000e+000
4.377804e+002;0.000000e+000
4.397090e+002;0.000000e+000
4.416375e+002;0.000000e+000
4.435660e+002;0.000000e+000
4.454946e+002;0.000000e+000
4.474232e+002;0.000000e+000
4.493517e+002;0.000000e+000
4.512802e+002;0.000000e+000
4.532088e+002;0.000000e+000
4.551373e+002;0.000000e+000
4.570659e+002;0.000000e+000
4.589944e+002;0.000000e+000
4.609230e+002;0.000000e+000
4.628515e+002;0.000000e+000
4.647801e+002;0.000000e+000
4.667086e+002;0.000000e+000
4.686372e+002;0.000000e+000
4.705657e+002;0.000000e+000
4.724943e+002;0.000000e+000
4.744228e+002;0.000000e+000
4.763513e+002;0.000000e+000
4.782799e+002;0.000000e+000
4.802085e+002;0.000000e+000
4.821370e+002;0.000000e+000
4.840656e+002;0.000000e+000
4.859941e+002;0.000000e+000
4.879226e+002;0.000000e+000
4.898512e+002;0.000000e+000
4.917798e+002;0.000000e+000
4.937083e+002;0.000000e+000
4.956368e+002;0.000000e+000
4.975654e+002;0.000000e+000
4.994939e+002;0.000000e+000
5.014225e+002;0.000000e+000
5.033510e+002;0.000000e+000
5.052796e+002;0.000000e+000
5.072081e+002;0.000000e+000
5.091367e+002;0.000000e+000
5.110652e+002;0.000000e+000
5.129938e+002;0.000000e+000
5.149223e+002;0.000000e+000
5.168509e+002;0.000000e+000
5.187794e+002;0.000000e+000
5.207079e+002;0.000000e+000
5.226365e+002;0.000000e+000
5.245651e+002;0.000000e+000
5.264936e+002;0.000000e+000
5.284222e+002;0.000000e+000
5.303507e+002;0.000000e+000
5.322792e+002;0.000000e+000
5.342078e+002;0.000000e+000
5.361364e+002;0.000000e+000
5.380649e+002;0.000000e+000
5.399935e+002;0.000000e+000
5.419220e+002;0.000000e+000
5.438505e+002;0.000000e+000
5.457791e+002;0.000000e+000
5.477076e+002;0.000000e+000
5.496362e+002;0.000000e+000
5.515648e+002;0.000000e+000
5.534933e+002;0.000000e+000
5.554218e+002;0.000000e+000
5.573504e+002;0.000000e+000
5.592789e+002;0.000000e+000
5.612075e+002;0.000000e+000
5.631360e+002;0.000000e+000
5.650646e+002;0.000000e+000
5.669931e+002;0.000000e+000
5.689217e+002;0.000000e+000
5.708502e+002;0.000000e+000
5.727787e+002;0.000000e+000
5.747073e+002;0.000000e+000
5.766359e+002;0.000000e+000
5.785644e+002;0.000000e+000
5.804930e+002;0.000000e+000
5.824215e+002;0.000000e+000
5.843500e+002;0.000000e+000
5.862786e+002;0.000000e+000
5.882072e+002;0.000000e+000
5.901357e+002;0.000000e+000
5.920643e+002;0.000000e+000
5.939928e+002;0.000000e+000
5.959213e+002;0.000000e+000
5.978499e+002;0.000000e+000
5.997784e+002;1.974425e-001
6.017070e+002;2.002314e-001
6.036355e+002;2.035562e-001
6.055641e+002;2.095375e-001
6.074926e+002;2.157729e-001
6.094211e+002;2.177222e-001
6.113497e+002;2.143871e-001
6.132783e+002;2.101947e-001
6.152068e+002;2.082682e-001
6.171354e+002;2.043283e-001
6.190639e+002;2.019783e-001
6.209924e+002;1.987123e-001
6.229210e+002;1.960868e-001
6.248495e+002;1.919595e-001
6.267781e+002;1.863431e-001
6.287067e+002;1.871630e-001
6.306352e+002;1.881977e-001
6.325637e+002;1.851629e-001
6.344923e+002;1.870903e-001
6.364208e+002;1.900746e-001
6.383494e+002;1.906318e-001
6.402780e+002;1.876367e-001
6.422065e+002;1.878379e-001
6.441350e+002;1.869228e-001
6.460636e+002;1.798057e-001
6.479921e+002;1.767163e-001
6.499207e+002;1.828668e-001
6.518492e+002;1.875138e-001
6.537778e+002;1.867567e-001
6.557063e+002;1.827734e-001
6.576349e+002;1.785051e-001
6.595634e+002;1.819853e-001
6.614919e+002;1.871684e-001
6.634205e+002;1.875070e-001
6.653491e+002;1.859488e-001
6.672776e+002;1.864383e-001
6.692062e+002;1.847774e-001
6.711347e+002;1.808745e-001
6.730632e+002;1.790845e-001
6.749918e+002;1.765753e-001
6.769203e+002;1.730229e-001
6.788489e+002;1.700653e-001
6.807775e+002;1.662613e-001
6.827060e+002;1.639628e-001
6.846345e+002;1.625674e-001
6.865631e+002;1.612678e-001
6.884916e+002;1.616375e-001
6.904202e+002;1.615562e-001
6.923488e+002;1.596012e-001
6.942773e+002;1.581770e-001
6.962058e+002;1.573049e-001
6.981344e+002;1.560434e-001
7.000629e+002;1.545955e-001
7.019915e+002;1.537078e-001
7.039200e+002;1.527280e-001
7.058486e+002;1.519374e-001
7.077771e+002;1.514730e-001
7.097057e+002;1.503447e-001
7.116342e+002;1.488081e-001
7.135627e+002;1.469843e-001
7.154913e+002;1.457759e-001
7.174199e+002;1.451615e-001
7.193484e+002;1.429257e-001
7.212770e+002;1.406164e-001
7.232055e+002;1.398047e-001
7.251340e+002;1.386302e-001
7.270626e+002;1.380026e-001
7.289911e+002;1.361825e-001
7.309197e+002;1.340473e-001
7.328483e+002;1.331420e-001
7.347768e+002;1.315623e-001
7.367053e+002;1.288041e-001
7.386339e+002;1.274575e-001
7.405624e+002;1.261959e-001
7.424910e+002;1.257533e-001
7.444196e+002;1.261176e-001
7.463481e+002;1.255671e-001
7.482766e+002;1.239167e-001
7.502052e+002;1.214514e-001
7.521337e+002;1.199483e-001
7.540623e+002;1.202609e-001
7.559908e+002;1.198757e-001
7.579194e+002;1.194757e-001
7.598479e+002;1.188735e-001
7.617765e+002;1.177685e-001
7.637050e+002;1.167355e-001
7.656335e+002;1.156888e-001
7.675621e+002;1.154668e-001
7.694907e+002;1.155221e-001
7.714192e+002;1.147613e-001
7.733478e+002;1.128383e-001
7.752763e+002;1.114407e-001
7.772048e+002;1.111447e-001
7.791334e+002;1.106343e-001
7.810620e+002;1.096917e-001
7.829905e+002;1.090668e-001
7.849191e+002;1.085803e-001
7.868476e+002;1.073710e-001
7.887761e+002;1.064911e-001
7.907047e+002;1.061038e-001
7.926332e+002;1.063150e-001
7.945618e+002;1.067256e-001
7.964903e+002;1.071908e-001
7.984189e+002;1.068067e-001
8.003474e+002;1.055103e-001
8.022759e+002;1.046318e-001
8.042045e+002;1.049435e-001
8.061331e+002;1.058063e-001
8.080616e+002;1.064679e-001
8.099902e+002;1.065017e-001
8.119187e+002;1.061753e-001
8.138472e+002;1.067427e-001
8.157758e+002;1.077325e-001
8.177043e+002;1.081658e-001
8.196329e+002;1.089124e-001
8.215615e+002;1.099771e-001
8.234900e+002;1.106143e-001
8.254185e+002;1.105848e-001
8.273471e+002;1.100353e-001
8.292756e+002;1.094603e-001
8.312042e+002;1.093591e-001
8.331328e+002;1.093878e-001
8.350613e+002;1.092587e-001
8.369898e+002;1.092218e-001
8.389184e+002;1.094464e-001
8.408469e+002;1.090479e-001
8.427755e+002;1.090990e-001
8.447040e+002;1.095061e-001
8.466326e+002;1.096093e-001
8.485611e+002;1.089578e-001
8.504897e+002;1.084946e-001
8.524182e+002;1.084726e-001
8.543467e+002;1.088066e-001
8.562753e+002;1.094755e-001
8.582039e+002;1.095796e-001
8.601324e+002;1.100248e-001
8.620610e+002;1.115447e-001
8.639895e+002;1.130014e-001
8.659180e+002;1.144204e-001
8.678466e+002;1.164331e-001
8.697751e+002;1.188843e-001
8.717037e+002;1.216052e-001
8.736323e+002;1.241887e-001
8.755608e+002;1.263154e-001
8.774893e+002;1.282818e-001
8.794179e+002;1.309157e-001
8.813464e+002;1.335002e-001
8.832750e+002;1.356018e-001
8.852036e+002;1.384872e-001
8.871321e+002;1.418273e-001
8.890606e+002;1.447374e-001
8.909892e+002;1.472453e-001
8.929177e+002;1.497236e-001
8.948463e+002;1.518213e-001
8.967748e+002;1.527564e-001
8.987034e+002;1.529431e-001
9.006319e+002;1.521643e-001
9.025605e+002;1.506248e-001
9.044890e+002;1.489944e-001
9.064175e+002;1.470347e-001
9.083461e+002;1.448615e-001
9.102747e+002;1.432317e-001
9.122032e+002;1.424326e-001
9.141318e+002;1.424535e-001
9.160603e+002;1.422298e-001
9.179888e+002;1.419369e-001
9.199174e+002;1.420416e-001
9.218459e+002;1.419461e-001
9.237745e+002;1.426098e-001
9.257031e+002;1.442240e-001
9.276316e+002;1.452142e-001
9.295601e+002;1.460164e-001
9.314887e+002;1.470775e-001
9.334172e+002;1.488982e-001
9.353458e+002;1.507551e-001
9.372744e+002;1.521173e-001
9.392029e+002;1.539151e-001
9.411314e+002;1.567655e-001
9.430600e+002;1.595602e-001
9.449885e+002;1.631024e-001
9.469171e+002;1.677488e-001
9.488456e+002;1.729475e-001
9.507742e+002;1.776586e-001
9.527027e+002;1.820414e-001
9.546313e+002;1.873115e-001
9.565598e+002;1.929703e-001
9.584883e+002;1.983362e-001
9.604169e+002;2.034785e-001
9.623455e+002;2.082200e-001
9.642740e+002;2.131286e-001
9.662026e+002;2.183667e-001
9.681311e+002;2.231816e-001
9.700596e+002;2.282998e-001
9.719882e+002;2.343412e-001
9.739167e+002;2.407811e-001
9.758453e+002;2.476107e-001
9.777739e+002;2.554090e-001
9.797024e+002;2.628784e-001
9.816309e+002;2.702730e-001
9.835595e+002;2.772043e-001
9.854880e+002;2.824905e-001
9.874166e+002;2.868438e-001
9.893452e+002;2.906124e-001
9.912737e+002;2.939995e-001
9.932022e+002;2.971946e-001
9.951307e+002;2.991421e-001
9.970593e+002;3.011053e-001
9.989879e+002;3.044925e-001
1.000916e+003;3.077975e-001
1.002845e+003;3.108383e-001
1.004773e+003;3.140921e-001
1.006702e+003;3.177977e-001
1.008631e+003;3.222542e-001
1.010559e+003;3.261079e-001
1.012488e+003;3.295582e-001
1.014416e+003;3.334074e-001
1.016345e+003;3.369547e-001
1.018273e+003;3.398008e-001
1.020202e+003;3.416876e-001
1.022130e+003;3.438215e-001
1.024059e+003;3.458746e-001
1.025988e+003;3.473690e-001
1.027916e+003;3.475354e-001
1.029845e+003;3.468652e-001
1.031773e+003;3.465879e-001
1.033702e+003;3.462931e-001
1.035630e+003;3.440227e-001
1.037559e+003;3.395495e-001
1.039487e+003;3.360177e-001
1.041416e+003;3.338851e-001
1.043344e+003;3.317709e-001
1.045273e+003;3.297784e-001
1.047202e+003;3.274187e-001
1.049130e+003;3.239314e-001
1.051059e+003;3.205365e-001
1.052987e+003;3.170535e-001
1.054916e+003;3.123471e-001
1.056844e+003;3.068479e-001
1.058773e+003;3.013283e-001
1.060701e+003;2.951213e-001
1.062630e+003;2.882371e-001
1.064558e+003;2.809756e-001
1.066487e+003;2.741560e-001
1.068416e+003;2.683836e-001
1.070344e+003;2.639392e-001
1.072273e+003;2.592263e-001
1.074201e+003;2.548040e-001
1.076130e+003;2.513185e-001
1.078058e+003;2.474710e-001
1.079987e+003;2.429115e-001
1.081915e+003;2.398896e-001
1.083844e+003;2.373896e-001
1.085773e+003;2.344732e-001
1.087701e+003;2.327162e-001
1.089630e+003;2.312740e-001
1.091558e+003;2.293428e-001
1.093487e+003;2.278312e-001
1.095415e+003;2.264213e-001
1.097344e+003;2.253451e-001
1.099272e+003;2.241633e-001
1.101201e+003;2.220489e-001
1.103129e+003;2.192180e-001
1.105058e+003;2.157642e-001
1.106987e+003;2.112906e-001
1.108915e+003;2.067277e-001
1.110844e+003;2.022110e-001
1.112772e+003;1.970725e-001
1.114701e+003;1.909005e-001
1.116629e+003;1.846847e-001
1.118558e+003;1.795442e-001
1.120486e+003;1.741793e-001
1.122415e+003;1.693465e-001
1.124344e+003;1.651140e-001
1.126272e+003;1.608869e-001
1.128201e+003;1.568127e-001
1.130129e+003;1.525384e-001
1.132058e+003;1.483126e-001
1.133986e+003;1.448751e-001
1.135915e+003;1.420483e-001
1.137843e+003;1.401487e-001
1.139772e+003;1.387721e-001
1.141700e+003;1.376060e-001
1.143629e+003;1.371819e-001
1.145557e+003;1.376025e-001
1.147486e+003;1.379593e-001
1.149415e+003;1.375999e-001
1.151343e+003;1.375076e-001
1.153272e+003;1.380420e-001
1.155200e+003;1.382907e-001
1.157129e+003;1.373142e-001
1.159057e+003;1.357978e-001
1.160986e+003;1.340583e-001
1.162914e+003;1.314924e-001
1.164843e+003;1.276506e-001
1.166771e+003;1.233914e-001
1.168700e+003;1.187526e-001
1.170629e+003;1.134037e-001
1.172557e+003;1.086555e-001
1.174486e+003;1.044924e-001
1.176414e+003;1.008574e-001
1.178343e+003;9.771745e-002
1.180271e+003;9.526455e-002
1.182200e+003;9.371599e-002
1.184128e+003;9.271285e-002
1.186057e+003;9.250301e-002
1.187986e+003;9.293293e-002
1.189914e+003;9.369099e-002
1.191843e+003;9.529496e-002
1.193771e+003;9.779082e-002
1.195700e+003;1.006555e-001
1.197628e+003;1.033855e-001
1.199557e+003;1.056880e-001
1.201485e+003;1.076781e-001
1.203414e+003;1.102372e-001
1.205343e+003;1.126645e-001
1.207271e+003;1.143109e-001
1.209200e+003;1.160392e-001
1.211128e+003;1.183740e-001
1.213057e+003;1.213313e-001
1.214985e+003;1.249747e-001
1.216914e+003;1.289261e-001
1.218842e+003;1.328055e-001
1.220771e+003;1.365739e-001
1.222699e+003;1.401805e-001
1.224628e+003;1.432538e-001
1.226557e+003;1.459841e-001
1.228485e+003;1.486878e-001
1.230414e+003;1.508788e-001
1.232342e+003;1.521622e-001
1.234271e+003;1.527847e-001
1.236199e+003;1.532595e-001
1.238128e+003;1.533857e-001
1.240056e+003;1.528038e-001
1.241985e+003;1.520215e-001
1.243913e+003;1.502323e-001
1.245842e+003;1.483972e-001
1.247771e+003;1.471127e-001
1.249699e+003;1.451531e-001
1.251628e+003;1.426388e-001
1.253556e+003;1.403188e-001
1.255485e+003;1.382783e-001
1.257413e+003;1.361624e-001
1.259342e+003;1.336744e-001
1.261270e+003;1.309614e-001
1.263199e+003;1.281480e-001
1.265127e+003;1.252076e-001
1.267056e+003;1.224535e-001
1.268985e+003;1.198284e-001
1.270913e+003;1.173732e-001
1.272842e+003;1.150759e-001
1.274770e+003;1.129138e-001
1.276699e+003;1.107056e-001
1.278627e+003;1.089255e-001
1.280556e+003;1.070644e-001
1.282484e+003;1.049540e-001
1.284413e+003;1.032687e-001
1.286342e+003;1.022923e-001
1.288270e+003;1.017522e-001
1.290199e+003;1.010806e-001
1.292127e+003;1.008183e-001
1.294056e+003;1.015080e-001
1.295984e+003;1.020403e-001
1.297913e+003;1.023027e-001
1.299841e+003;1.035699e-001
1.301770e+003;1.053064e-001
1.303698e+003;1.071089e-001
1.305627e+003;1.091308e-001
1.307556e+003;1.108170e-001
1.309484e+003;1.125455e-001
1.311413e+003;1.145101e-001
1.313341e+003;1.159473e-001
1.315270e+003;1.170157e-001
1.317198e+003;1.176234e-001
1.319127e+003;1.173104e-001
1.321055e+003;1.163920e-001
1.322984e+003;1.154096e-001
1.324912e+003;1.149043e-001
1.326841e+003;1.146898e-001
1.328770e+003;1.144431e-001
1.330698e+003;1.143749e-001
1.332627e+003;1.139444e-001
1.334555e+003;1.134631e-001
1.336484e+003;1.128210e-001
1.338412e+003;1.120479e-001
1.340341e+003;1.110731e-001
1.342269e+003;1.097881e-001
1.344198e+003;1.086093e-001
1.346126e+003;1.076962e-001
1.348055e+003;1.072503e-001
1.349984e+003;1.072478e-001
1.351912e+003;1.075490e-001
1.353841e+003;1.083466e-001
1.355769e+003;1.099190e-001
1.357698e+003;1.115870e-001
1.359626e+003;1.134344e-001
1.361555e+003;1.154359e-001
1.363483e+003;1.166770e-001
1.365412e+003;1.171782e-001
1.367341e+003;1.172841e-001
1.369269e+003;1.170922e-001
1.371198e+003;1.162836e-001
1.373126e+003;1.149549e-001
1.375055e+003;1.134228e-001
1.376983e+003;1.116074e-001
1.378912e+003;1.093288e-001
1.380840e+003;1.067452e-001
1.382769e+003;1.043227e-001
1.384698e+003;1.022178e-001
1.386626e+003;1.001899e-001
1.388555e+003;9.854951e-002
1.390483e+003;9.722457e-002
1.392412e+003;9.624928e-002
1.394340e+003;9.611990e-002
1.396269e+003;9.640592e-002
1.398197e+003;9.649128e-002
1.400126e+003;9.692575e-002
1.402054e+003;9.748614e-002
1.403983e+003;9.807209e-002
1.405911e+003;9.882486e-002
1.407840e+003;1.001445e-001
1.409769e+003;1.014471e-001
1.411697e+003;1.024739e-001
1.413626e+003;1.037216e-001
1.415554e+003;1.055762e-001
1.417483e+003;1.070108e-001
1.419411e+003;1.077412e-001
1.421340e+003;1.083789e-001
1.423268e+003;1.087542e-001
1.425197e+003;1.084007e-001
1.427125e+003;1.076292e-001
1.429054e+003;1.064254e-001
1.430983e+003;1.049949e-001
1.432911e+003;1.034840e-001
1.434840e+003;1.017407e-001
1.436768e+003;9.991270e-002
1.438697e+003;9.867379e-002
1.440625e+003;9.764476e-002
1.442554e+003;9.655823e-002
1.444482e+003;9.539945e-002
1.446411e+003;9.410773e-002
1.448340e+003;9.297623e-002
1.450268e+003;9.227113e-002
1.452197e+003;9.158392e-002
1.454125e+003;9.096150e-002
1.456054e+003;9.006919e-002
1.457982e+003;8.869293e-002
1.459911e+003;8.746559e-002
1.461839e+003;8.655252e-002
1.463768e+003;8.511598e-002
1.465697e+003;8.303007e-002
1.467625e+003;8.053848e-002
1.469554e+003;7.758693e-002
1.471482e+003;7.451233e-002
1.473411e+003;7.133633e-002
1.475339e+003;6.844211e-002
1.477268e+003;6.588905e-002
1.479196e+003;6.376353e-002
1.481125e+003;6.176126e-002
1.483053e+003;6.014455e-002
1.484982e+003;5.871487e-002
1.486911e+003;5.751440e-002
1.488839e+003;5.662293e-002
1.490768e+003;5.610299e-002
1.492696e+003;5.638989e-002
1.494625e+003;5.695890e-002
1.496553e+003;5.751292e-002
1.498482e+003;5.815772e-002
1.500410e+003;5.841836e-002
1.502339e+003;5.867880e-002
1.504267e+003;5.877875e-002
1.506196e+003;5.834774e-002
1.508125e+003;5.777616e-002
1.510053e+003;5.716253e-002
1.511982e+003;5.598978e-002
1.513910e+003;5.458812e-002
1.515839e+003;5.325569e-002
1.517767e+003;5.193921e-002
1.519696e+003;5.050085e-002
1.521624e+003;4.897054e-002
1.523553e+003;4.813572e-002
1.525481e+003;4.767466e-002
1.527410e+003;4.718460e-002
1.529339e+003;4.697067e-002
1.531267e+003;4.696776e-002
1.533196e+003;4.673483e-002
1.535124e+003;4.662293e-002
1.537053e+003;4.679811e-002
1.538981e+003;4.675774e-002
1.540910e+003;4.686956e-002
1.542838e+003;4.738295e-002
1.544767e+003;4.780384e-002
1.546695e+003;4.832104e-002
1.548624e+003;4.906705e-002
1.550553e+003;4.946299e-002
1.552481e+003;4.955746e-002
1.554410e+003;5.013179e-002
1.556338e+003;5.106242e-002
1.558267e+003;5.163303e-002
1.560195e+003;5.246136e-002
1.562124e+003;5.379165e-002
1.564052e+003;5.503587e-002
1.565981e+003;5.637435e-002
1.567910e+003;5.783672e-002
1.569838e+003;5.949713e-002
1.571767e+003;6.164986e-002
1.573695e+003;6.399664e-002
1.575624e+003;6.637995e-002
1.577552e+003;6.921016e-002
1.579481e+003;7.227562e-002
1.581409e+003;7.532755e-002
1.583338e+003;7.837285e-002
1.585266e+003;8.129396e-002
1.587195e+003;8.421620e-002
1.589124e+003;8.698387e-002
1.591052e+003;8.929320e-002
1.592981e+003;9.121708e-002
1.594909e+003;9.250801e-002
1.596838e+003;9.346691e-002
1.598766e+003;9.414317e-002
1.600695e+003;9.447496e-002
1.602623e+003;9.447797e-002
1.604552e+003;9.440050e-002
1.606480e+003;9.440062e-002
1.608409e+003;9.422079e-002
1.610338e+003;9.382869e-002
1.612266e+003;9.351293e-002
1.614195e+003;9.315337e-002
1.616123e+003;9.233978e-002
1.618052e+003;9.202317e-002
1.619980e+003;9.223077e-002
1.621909e+003;9.188190e-002
1.623837e+003;9.125743e-002
1.625766e+003;9.088336e-002
1.627694e+003;9.043738e-002
1.629623e+003;8.971769e-002
1.631552e+003;8.918863e-002
1.633480e+003;8.868948e-002
1.635409e+003;8.769759e-002
1.637337e+003;8.703424e-002
1.639266e+003;8.668438e-002
1.641194e+003;8.597305e-002
1.643123e+003;8.510844e-002
1.645051e+003;8.419866e-002
1.646980e+003;8.334336e-002
1.648909e+003;8.247937e-002
1.650837e+003;8.086143e-002
1.652766e+003;7.894035e-002
1.654694e+003;7.793144e-002
1.656623e+003;7.665907e-002
1.658551e+003;7.515756e-002
1.660480e+003;7.396010e-002
1.662408e+003;7.248562e-002
1.664337e+003;7.117403e-002
1.666266e+003;6.978055e-002
1.668194e+003;6.827123e-002
1.670123e+003;6.710991e-002
1.672051e+003;6.619947e-002
1.673980e+003;6.496091e-002
1.675908e+003;6.372838e-002
1.677837e+003;6.272881e-002
1.679765e+003;6.175198e-002
1.681694e+003;6.086230e-002
1.683622e+003;6.014980e-002
1.685551e+003;5.985683e-002
1.687479e+003;5.982264e-002
1.689408e+003;5.976366e-002
1.691337e+003;5.997972e-002
1.693265e+003;6.038052e-002
1.695194e+003;6.091956e-002
1.697122e+003;6.203439e-002
1.699051e+003;6.334201e-002
1.700979e+003;6.504500e-002
1.702908e+003;6.722934e-002
1.704836e+003;6.939147e-002
1.706765e+003;7.211379e-002
1.708693e+003;7.496812e-002
1.710622e+003;7.731637e-002
1.712551e+003;7.971670e-002
1.714479e+003;8.221582e-002
1.716408e+003;8.453767e-002
1.718336e+003;8.685978e-002
1.720265e+003;8.900256e-002
1.722193e+003;9.073768e-002
1.724122e+003;9.217936e-002
1.726050e+003;9.366529e-002
1.727979e+003;9.481302e-002
1.729908e+003;9.529215e-002
1.731836e+003;9.540404e-002
1.733765e+003;9.519346e-002
1.735693e+003;9.479970e-002
1.737622e+003;9.394357e-002
1.739550e+003;9.249887e-002
1.741479e+003;9.072584e-002
1.743407e+003;8.805642e-002
1.745336e+003;8.520132e-002
1.747265e+003;8.210257e-002
1.749193e+003;7.862370e-002
1.751122e+003;7.535430e-002
1.753050e+003;7.198616e-002
1.754979e+003;6.856637e-002
1.756907e+003;6.513187e-002
1.758836e+003;6.186468e-002
1.760764e+003;5.849891e-002
1.762693e+003;5.506107e-002
1.764621e+003;5.171256e-002
1.766550e+003;4.835433e-002
1.768479e+003;4.524815e-002
1.770407e+003;4.233344e-002
1.772336e+003;3.944749e-002
1.774264e+003;3.710317e-002
1.776193e+003;3.514038e-002
1.778121e+003;3.298573e-002
1.780050e+003;3.086405e-002
1.781978e+003;2.927313e-002
1.783907e+003;2.794186e-002
1.785835e+003;2.660948e-002
1.787764e+003;2.573826e-002
1.789693e+003;2.489454e-002
1.791621e+003;2.375123e-002
1.793550e+003;2.299373e-002
1.795478e+003;2.260521e-002
1.797407e+003;2.210598e-002
1.799335e+003;2.149841e-002
1.801264e+003;2.105494e-002
1.803192e+003;2.071486e-002
1.805121e+003;2.005301e-002
1.807049e+003;1.939120e-002
1.808978e+003;1.891354e-002
1.810907e+003;1.846535e-002
1.812835e+003;1.802766e-002
1.814764e+003;1.787748e-002
1.816692e+003;1.771289e-002
1.818621e+003;1.714672e-002
1.820549e+003;1.668661e-002
1.822478e+003;1.664085e-002
1.824406e+003;1.655186e-002
1.826335e+003;1.628594e-002
1.828264e+003;1.606669e-002
1.830192e+003;1.568201e-002
1.832121e+003;1.540519e-002
1.834049e+003;1.533444e-002
1.835978e+003;1.521322e-002
1.837906e+003;1.493827e-002
1.839835e+003;1.465907e-002
1.841763e+003;1.435800e-002
1.843692e+003;1.414900e-002
1.845620e+003;1.400245e-002
1.847549e+003;1.365437e-002
1.849478e+003;1.330397e-002
1.851406e+003;1.325426e-002
1.853335e+003;1.328801e-002
1.855263e+003;1.315579e-002
1.857192e+003;1.293508e-002
1.859120e+003;1.280900e-002
1.861049e+003;1.303678e-002
1.862977e+003;1.303108e-002
1.864906e+003;1.274567e-002
1.866834e+003;1.271741e-002
1.868763e+003;1.262264e-002
1.870692e+003;1.245406e-002
1.872620e+003;1.225999e-002
1.874549e+003;1.218975e-002
1.876477e+003;1.225430e-002
1.878406e+003;1.210146e-002
1.880334e+003;1.196228e-002
1.882263e+003;1.194446e-002
1.884191e+003;1.187645e-002
1.886120e+003;1.198748e-002
1.888048e+003;1.221152e-002
1.889977e+003;1.231483e-002
1.891906e+003;1.229499e-002
1.893834e+003;1.243654e-002
1.895763e+003;1.252325e-002
1.897691e+003;1.249580e-002
1.899620e+003;1.249744e-002
1.901548e+003;1.256381e-002
1.903477e+003;1.265423e-002
1.905405e+003;1.266256e-002
1.907334e+003;1.249185e-002
1.909262e+003;1.247009e-002
1.911191e+003;1.250815e-002
1.913120e+003;1.248840e-002
1.915048e+003;1.256762e-002
1.916977e+003;1.267883e-002
1.918905e+003;1.274877e-002
1.920834e+003;1.279627e-002
1.922762e+003;1.270435e-002
1.924691e+003;1.279712e-002
1.926619e+003;1.323523e-002
1.928548e+003;1.343938e-002
1.930477e+003;1.342083e-002
1.932405e+003;1.347011e-002
1.934334e+003;1.331661e-002
1.936262e+003;1.341423e-002
1.938191e+003;1.386983e-002
1.940119e+003;1.392139e-002
1.942048e+003;1.380094e-002
1.943976e+003;1.398677e-002
1.945905e+003;1.412086e-002
1.947833e+003;1.402777e-002
1.949762e+003;1.410714e-002
1.951691e+003;1.434731e-002
1.953619e+003;1.451327e-002
1.955548e+003;1.475131e-002
1.957476e+003;1.456898e-002
1.959405e+003;1.427550e-002
1.961333e+003;1.433310e-002
1.963262e+003;1.445479e-002
1.965190e+003;1.453266e-002
1.967119e+003;1.448415e-002
1.969047e+003;1.444969e-002
1.970976e+003;1.454770e-002
1.972905e+003;1.457381e-002
1.974833e+003;1.450608e-002
1.976762e+003;1.461637e-002
1.978690e+003;1.483005e-002
1.980619e+003;1.503777e-002
1.982547e+003;1.515159e-002
1.984476e+003;1.512847e-002
1.986404e+003;1.528217e-002
1.988333e+003;1.553058e-002
1.990261e+003;1.542071e-002
1.992190e+003;1.565295e-002
1.994119e+003;1.598012e-002
1.996047e+003;1.596184e-002
1.997976e+003;1.613096e-002
1.999904e+003;1.650034e-002
2.001833e+003;1.643013e-002
2.003761e+003;1.626289e-002
2.005690e+003;1.634783e-002
2.007618e+003;1.665324e-002
2.009547e+003;1.677769e-002
2.011476e+003;1.674856e-002
2.013404e+003;1.698499e-002
2.015333e+003;1.714379e-002
2.017261e+003;1.734703e-002
2.019190e+003;1.755116e-002
2.021118e+003;1.778517e-002
2.023047e+003;1.832441e-002
2.024975e+003;1.870784e-002
2.026904e+003;1.866616e-002
2.028833e+003;1.860287e-002
2.030761e+003;1.882080e-002
2.032690e+003;1.899187e-002
2.034618e+003;1.916093e-002
2.036547e+003;1.949179e-002
2.038475e+003;1.976108e-002
2.040404e+003;1.975993e-002
2.042332e+003;1.979773e-002
2.044261e+003;1.994056e-002
2.046189e+003;1.983980e-002
2.048118e+003;1.971208e-002
2.050047e+003;1.985627e-002
2.051975e+003;1.993318e-002
2.053904e+003;1.996190e-002
2.055832e+003;2.000978e-002
2.057761e+003;1.998150e-002
2.059689e+003;1.998580e-002
2.061618e+003;2.010486e-002
2.063546e+003;2.008702e-002
2.065475e+003;1.990952e-002
2.067404e+003;1.997859e-002
2.069332e+003;2.038997e-002
2.071260e+003;2.048746e-002
2.073189e+003;2.033066e-002
2.075118e+003;2.029966e-002
2.077046e+003;2.054874e-002
2.078975e+003;2.050487e-002
2.080903e+003;2.031400e-002
2.082832e+003;2.029612e-002
2.084760e+003;2.043891e-002
2.086689e+003;2.038299e-002
2.088617e+003;2.015914e-002
2.090546e+003;2.038668e-002
2.092475e+003;2.067948e-002
2.094403e+003;2.064324e-002
2.096332e+003;2.057757e-002
2.098260e+003;2.081916e-002
2.100189e+003;2.112876e-002
2.102117e+003;2.111759e-002
2.104046e+003;2.105185e-002
2.105974e+003;2.096168e-002
2.107903e+003;2.090754e-002
2.109832e+003;2.105394e-002
2.111760e+003;2.124207e-002
2.113688e+003;2.151209e-002
2.115617e+003;2.169795e-002
2.117546e+003;2.162787e-002
2.119474e+003;2.148734e-002
2.121403e+003;2.138148e-002
2.123331e+003;2.133146e-002
2.125260e+003;2.145214e-002
2.127188e+003;2.160596e-002
2.129117e+003;2.171320e-002
2.131045e+003;2.178792e-002
2.132974e+003;2.187183e-002
2.134903e+003;2.184625e-002
2.136831e+003;2.178103e-002
2.138760e+003;2.174051e-002
2.140688e+003;2.162902e-002
2.142617e+003;2.147975e-002
2.144545e+003;2.140097e-002
2.146474e+003;2.156703e-002
2.148402e+003;2.148274e-002
2.150331e+003;2.131925e-002
2.152260e+003;2.123090e-002
2.154188e+003;2.099749e-002
2.156117e+003;2.088059e-002
2.158045e+003;2.082438e-002
2.159974e+003;2.075938e-002
2.161902e+003;2.078103e-002
2.163831e+003;2.083728e-002
2.165759e+003;2.060912e-002
2.167688e+003;2.034692e-002
2.169616e+003;2.000183e-002
2.171545e+003;1.965162e-002
2.173474e+003;1.967110e-002
2.175402e+003;1.958929e-002
2.177331e+003;1.958554e-002
2.179259e+003;1.947145e-002
2.181188e+003;1.913461e-002
2.183116e+003;1.894808e-002
2.185045e+003;1.886613e-002
2.186973e+003;1.872386e-002
2.188902e+003;1.854179e-002
2.190831e+003;1.844142e-002
2.192759e+003;1.849307e-002
2.194688e+003;1.852807e-002
2.196616e+003;1.849335e-002
2.198545e+003;1.832874e-002
2.200473e+003;1.809723e-002
2.202402e+003;1.802307e-002
2.204330e+003;1.817627e-002
2.206259e+003;1.832849e-002
2.208188e+003;1.826915e-002
2.210116e+003;1.798936e-002
2.212044e+003;1.790973e-002
2.213973e+003;1.812552e-002
2.215902e+003;1.836150e-002
2.217830e+003;1.830482e-002
2.219759e+003;1.814929e-002
2.221687e+003;1.814874e-002
2.223616e+003;1.834387e-002
2.225544e+003;1.855376e-002
2.227473e+003;1.844436e-002
2.229401e+003;1.839302e-002
2.231330e+003;1.854435e-002
2.233259e+003;1.849314e-002
2.235187e+003;1.843427e-002
2.237116e+003;1.841912e-002
2.239044e+003;1.842020e-002
2.240973e+003;1.836309e-002
2.242901e+003;1.846866e-002
2.244830e+003;1.862452e-002
2.246758e+003;1.860010e-002
2.248687e+003;1.839095e-002
2.250615e+003;1.809129e-002
2.252544e+003;1.802151e-002
2.254473e+003;1.832037e-002
2.256401e+003;1.842013e-002
2.258330e+003;1.839724e-002
2.260258e+003;1.845200e-002
2.262187e+003;1.845103e-002
2.264115e+003;1.825364e-002
2.266044e+003;1.794854e-002
2.267972e+003;1.794561e-002
2.269901e+003;1.796588e-002
2.271830e+003;1.782466e-002
2.273758e+003;1.777595e-002
2.275687e+003;1.769336e-002
2.277615e+003;1.785190e-002
2.279544e+003;1.795438e-002
2.281472e+003;1.780850e-002
2.283401e+003;1.790880e-002
2.285329e+003;1.784068e-002
2.287258e+003;1.787790e-002
2.289187e+003;1.795724e-002
2.291115e+003;1.794043e-002
2.293043e+003;1.788825e-002
2.294972e+003;1.788062e-002
2.296901e+003;1.811968e-002
2.298829e+003;1.816964e-002
2.300758e+003;1.809612e-002
2.302686e+003;1.790075e-002
2.304615e+003;1.791705e-002
2.306543e+003;1.794229e-002
2.308472e+003;1.764628e-002
2.310400e+003;1.753053e-002
2.312329e+003;1.757414e-002
2.314258e+003;1.743249e-002
2.316186e+003;1.753784e-002
2.318115e+003;1.756913e-002
2.320043e+003;1.727352e-002
2.321972e+003;1.719932e-002
2.323900e+003;1.723297e-002
2.325829e+003;1.725838e-002
2.327757e+003;1.704698e-002
2.329686e+003;1.680658e-002
2.331615e+003;1.685970e-002
2.333543e+003;1.696728e-002
2.335472e+003;1.706449e-002
2.337400e+003;1.716475e-002
2.339329e+003;1.740714e-002
2.341257e+003;1.766733e-002
2.343186e+003;1.784959e-002
2.345114e+003;1.813402e-002
2.347043e+003;1.859923e-002
2.348971e+003;1.888887e-002
2.350900e+003;1.875973e-002
2.352829e+003;1.855224e-002
2.354757e+003;1.855134e-002
2.356686e+003;1.851455e-002
2.358614e+003;1.826653e-002
2.360543e+003;1.802048e-002
2.362471e+003;1.816736e-002
2.364400e+003;1.829773e-002
2.366328e+003;1.855604e-002
2.368257e+003;1.907142e-002
2.370186e+003;1.931349e-002
2.372114e+003;1.956017e-002
2.374042e+003;2.017205e-002
2.375971e+003;2.051449e-002
2.377900e+003;2.061350e-002
2.379828e+003;2.070729e-002
2.381757e+003;2.071514e-002
2.383685e+003;2.101005e-002
2.385614e+003;2.140776e-002
2.387542e+003;2.149378e-002
2.389471e+003;2.156958e-002
2.391399e+003;2.191504e-002
2.393328e+003;2.203437e-002
2.395257e+003;2.165653e-002
2.397185e+003;2.166169e-002
2.399114e+003;2.197519e-002
2.401042e+003;2.223043e-002
2.402971e+003;2.224166e-002
2.404899e+003;2.216184e-002
2.406828e+003;2.243198e-002
2.408756e+003;2.258165e-002
2.410685e+003;2.243672e-002
2.412614e+003;2.264867e-002
2.414542e+003;2.307978e-002
2.416471e+003;2.310103e-002
2.418399e+003;2.339462e-002
2.420328e+003;2.373132e-002
2.422256e+003;2.365588e-002
2.424185e+003;2.391529e-002
2.426113e+003;2.425453e-002
2.428042e+003;2.427233e-002
2.429970e+003;2.428543e-002
2.431899e+003;2.441791e-002
2.433828e+003;2.456416e-002
2.435756e+003;2.461058e-002
2.437685e+003;2.470741e-002
2.439613e+003;2.488738e-002
2.441542e+003;2.502105e-002
2.443470e+003;2.512148e-002
2.445399e+003;2.516428e-002
2.447327e+003;2.532227e-002
2.449256e+003;2.573207e-002
2.451185e+003;2.588183e-002
2.453113e+003;2.553967e-002
2.455042e+003;2.536365e-002
2.456970e+003;2.582018e-002
2.458899e+003;2.611193e-002
2.460827e+003;2.608533e-002
2.462756e+003;2.626417e-002
2.464684e+003;2.628241e-002
2.466613e+003;2.619632e-002
2.468542e+003;2.658620e-002
2.470470e+003;2.703037e-002
2.472398e+003;2.708200e-002
2.474327e+003;2.706916e-002
2.476256e+003;2.739107e-002
2.478184e+003;2.751179e-002
2.480113e+003;2.759881e-002
2.482041e+003;2.775126e-002
2.483970e+003;2.790154e-002
2.485898e+003;2.802770e-002
2.487827e+003;2.824398e-002
2.489755e+003;2.844010e-002
2.491684e+003;2.835358e-002
2.493613e+003;2.819515e-002
2.495541e+003;2.843730e-002
2.497470e+003;2.897348e-002
2.499398e+003;2.898499e-002
2.501327e+003;2.902268e-002
2.503255e+003;2.921429e-002
2.505184e+003;2.933548e-002
2.507112e+003;2.969551e-002
2.509041e+003;2.981864e-002
2.510969e+003;2.988274e-002
2.512898e+003;3.024568e-002
2.514827e+003;3.027751e-002
2.516755e+003;3.022713e-002
2.518684e+003;3.038627e-002
2.520612e+003;3.061443e-002
2.522541e+003;3.090219e-002
2.524469e+003;3.097712e-002
2.526398e+003;3.103666e-002
2.528326e+003;3.112137e-002
2.530255e+003;3.106118e-002
2.532184e+003;3.125594e-002
2.534112e+003;3.154064e-002
2.536041e+003;3.156023e-002
2.537969e+003;3.146062e-002
2.539898e+003;3.149603e-002
2.541826e+003;3.161593e-002
2.543755e+003;3.172321e-002
2.545683e+003;3.212965e-002
2.547612e+003;3.241498e-002
2.549541e+003;3.220290e-002
2.551469e+003;3.192903e-002
2.553397e+003;3.183198e-002
2.555326e+003;3.172741e-002
2.557255e+003;3.185897e-002
2.559183e+003;3.237090e-002
2.561112e+003;3.279430e-002
2.563040e+003;3.271502e-002
2.564969e+003;3.272241e-002
2.566897e+003;3.278208e-002
2.568826e+003;3.276490e-002
2.570754e+003;3.261168e-002
2.572683e+003;3.279855e-002
2.574612e+003;3.319209e-002
2.576540e+003;3.322356e-002
2.578469e+003;3.326369e-002
2.580397e+003;3.360265e-002
2.582326e+003;3.368217e-002
2.584254e+003;3.340197e-002
2.586183e+003;3.332540e-002
2.588111e+003;3.381661e-002
2.590040e+003;3.413432e-002
2.591969e+003;3.408995e-002
2.593897e+003;3.428553e-002
2.595826e+003;3.445660e-002
2.597754e+003;3.441262e-002
2.599683e+003;3.430633e-002
2.601611e+003;3.450969e-002
2.603540e+003;3.475794e-002
2.605468e+003;3.494757e-002
2.607397e+003;3.505906e-002
2.609325e+003;3.519927e-002
2.611254e+003;3.543141e-002
2.613183e+003;3.553543e-002
2.615111e+003;3.564689e-002
2.617040e+003;3.582234e-002
2.618968e+003;3.612290e-002
2.620897e+003;3.651740e-002
2.622825e+003;3.678303e-002
2.624754e+003;3.699874e-002
2.626682e+003;3.699776e-002
2.628611e+003;3.700974e-002
2.630540e+003;3.726773e-002
2.632468e+003;3.758205e-002
2.634396e+003;3.759762e-002
2.636325e+003;3.736020e-002
2.638254e+003;3.747013e-002
2.640182e+003;3.785577e-002
2.642111e+003;3.831312e-002
2.644039e+003;3.870483e-002
2.645968e+003;3.881101e-002
2.647896e+003;3.882721e-002
2.649825e+003;3.897474e-002
2.651753e+003;3.901215e-002
2.653682e+003;3.914302e-002
2.655611e+003;3.926215e-002
2.657539e+003;3.936335e-002
2.659468e+003;3.936078e-002
2.661396e+003;3.932925e-002
2.663325e+003;3.962851e-002
2.665253e+003;4.014391e-002
2.667182e+003;4.028200e-002
2.669110e+003;4.051353e-002
2.671039e+003;4.092507e-002
2.672968e+003;4.113101e-002
2.674896e+003;4.100635e-002
2.676825e+003;4.084316e-002
2.678753e+003;4.097419e-002
2.680682e+003;4.136624e-002
2.682610e+003;4.196081e-002
2.684539e+003;4.219028e-002
2.686467e+003;4.205691e-002
2.688396e+003;4.201994e-002
2.690324e+003;4.228596e-002
2.692253e+003;4.270869e-002
2.694182e+003;4.311047e-002
2.696110e+003;4.332656e-002
2.698039e+003;4.335428e-002
2.699967e+003;4.359752e-002
2.701896e+003;4.379209e-002
2.703824e+003;4.357009e-002
2.705753e+003;4.348852e-002
2.707681e+003;4.371561e-002
2.709610e+003;4.398190e-002
2.711539e+003;4.441095e-002
2.713467e+003;4.477291e-002
2.715396e+003;4.461190e-002
2.717324e+003;4.435979e-002
2.719253e+003;4.451215e-002
2.721181e+003;4.479410e-002
2.723110e+003;4.487966e-002
2.725038e+003;4.484461e-002
2.726967e+003;4.536955e-002
2.728896e+003;4.566612e-002
2.730824e+003;4.571214e-002
2.732752e+003;4.572399e-002
2.734681e+003;4.562299e-002
2.736610e+003;4.577181e-002
2.738538e+003;4.610557e-002
2.740467e+003;4.628025e-002
2.742395e+003;4.623698e-002
2.744324e+003;4.626175e-002
2.746252e+003;4.672572e-002
2.748181e+003;4.658955e-002
2.750109e+003;4.641843e-002
2.752038e+003;4.667424e-002
2.753967e+003;4.661755e-002
2.755895e+003;4.640276e-002
2.757824e+003;4.649170e-002
2.759752e+003;4.651113e-002
2.761681e+003;4.703533e-002
2.763609e+003;4.725404e-002
2.765538e+003;4.716203e-002
2.767466e+003;4.743602e-002
2.769395e+003;4.757338e-002
2.771323e+003;4.772817e-002
2.773252e+003;4.805940e-002
2.775181e+003;4.806773e-002
2.777109e+003;4.795245e-002
2.779038e+003;4.821673e-002
2.780966e+003;4.854537e-002
2.782895e+003;4.899554e-002
2.784823e+003;4.933899e-002
2.786752e+003;4.935383e-002
2.788680e+003;4.911087e-002
2.790609e+003;4.927859e-002
2.792538e+003;4.994366e-002
2.794466e+003;5.069611e-002
2.796395e+003;5.098468e-002
2.798323e+003;5.094757e-002
2.800252e+003;5.109290e-002
2.802180e+003;5.152415e-002
2.804109e+003;5.166445e-002
2.806037e+003;5.177097e-002
2.807966e+003;5.202122e-002
2.809895e+003;5.255667e-002
2.811823e+003;5.319992e-002
2.813751e+003;5.348071e-002
2.815680e+003;5.385166e-002
2.817609e+003;5.434814e-002
2.819537e+003;5.466530e-002
2.821466e+003;5.524786e-002
2.823394e+003;5.609424e-002
2.825323e+003;5.663923e-002
2.827251e+003;5.702695e-002
2.829180e+003;5.764053e-002
2.831108e+003;5.814829e-002
2.833037e+003;5.858790e-002
2.834966e+003;5.950306e-002
2.836894e+003;6.072955e-002
2.838823e+003;6.177375e-002
2.840751e+003;6.288982e-002
2.842680e+003;6.364152e-002
2.844608e+003;6.438060e-002
2.846537e+003;6.535921e-002
2.848465e+003;6.646717e-002
2.850394e+003;6.751049e-002
2.852323e+003;6.841705e-002
2.854251e+003;6.920923e-002
2.856180e+003;7.009178e-002
2.858108e+003;7.109113e-002
2.860037e+003;7.155810e-002
2.861965e+003;7.175635e-002
2.863894e+003;7.230864e-002
2.865822e+003;7.295245e-002
2.867751e+003;7.365456e-002
2.869679e+003;7.426455e-002
2.871608e+003;7.416565e-002
2.873536e+003;7.440032e-002
2.875465e+003;7.534961e-002
2.877394e+003;7.587300e-002
2.879322e+003;7.627267e-002
2.881251e+003;7.652705e-002
2.883179e+003;7.638039e-002
2.885108e+003;7.639453e-002
2.887036e+003;7.683774e-002
2.888965e+003;7.713021e-002
2.890893e+003;7.716350e-002
2.892822e+003;7.752672e-002
2.894750e+003;7.786151e-002
2.896679e+003;7.798869e-002
2.898608e+003;7.815919e-002
2.900536e+003;7.824750e-002
2.902465e+003;7.806547e-002
2.904393e+003;7.784352e-002
2.906322e+003;7.782167e-002
2.908250e+003;7.752862e-002
2.910179e+003;7.795773e-002
2.912107e+003;7.846522e-002
2.914036e+003;7.855450e-002
2.915965e+003;7.842973e-002
2.917893e+003;7.802882e-002
2.919822e+003;7.767857e-002
2.921750e+003;7.724780e-002
2.923679e+003;7.717101e-002
2.925607e+003;7.726882e-002
2.927536e+003;7.668172e-002
2.929464e+003;7.582869e-002
2.931393e+003;7.536089e-002
2.933322e+003;7.496335e-002
2.935250e+003;7.450541e-002
2.937178e+003;7.432695e-002
2.939107e+003;7.365060e-002
2.941036e+003;7.238548e-002
2.942964e+003;7.183038e-002
2.944893e+003;7.141436e-002
2.946821e+003;7.061324e-002
2.948750e+003;6.973951e-002
2.950678e+003;6.882747e-002
2.952607e+003;6.784973e-002
2.954535e+003;6.675938e-002
2.956464e+003;6.579088e-002
2.958393e+003;6.502507e-002
2.960321e+003;6.438898e-002
2.962250e+003;6.366273e-002
2.964178e+003;6.315676e-002
2.966107e+003;6.253278e-002
2.968035e+003;6.167731e-002
2.969964e+003;6.115668e-002
2.971892e+003;6.056256e-002
2.973821e+003;5.981926e-002
2.975750e+003;5.930198e-002
2.977678e+003;5.849527e-002
2.979607e+003;5.788029e-002
2.981535e+003;5.756176e-002
2.983464e+003;5.707240e-002
2.985392e+003;5.651306e-002
2.987321e+003;5.609130e-002
2.989249e+003;5.570593e-002
2.991178e+003;5.513860e-002
2.993106e+003;5.500462e-002
2.995035e+003;5.493877e-002
2.996964e+003;5.487309e-002
2.998892e+003;5.460263e-002
3.000821e+003;5.408630e-002
3.002749e+003;5.387803e-002
3.004678e+003;5.394998e-002
3.006606e+003;5.368546e-002
3.008535e+003;5.365044e-002
3.010463e+003;5.367781e-002
3.012392e+003;5.358705e-002
3.014321e+003;5.372265e-002
3.016249e+003;5.366638e-002
3.018177e+003;5.345718e-002
3.020106e+003;5.350864e-002
3.022035e+003;5.357228e-002
3.023963e+003;5.360081e-002
3.025892e+003;5.356336e-002
3.027820e+003;5.338021e-002
3.029749e+003;5.353611e-002
3.031677e+003;5.425315e-002
3.033606e+003;5.442757e-002
3.035534e+003;5.444214e-002
3.037463e+003;5.484869e-002
3.039392e+003;5.499074e-002
3.041320e+003;5.505381e-002
3.043249e+003;5.526743e-002
3.045177e+003;5.580904e-002
3.047106e+003;5.630769e-002
3.049034e+003;5.636703e-002
3.050963e+003;5.616392e-002
3.052891e+003;5.604942e-002
3.054820e+003;5.641532e-002
3.056749e+003;5.698384e-002
3.058677e+003;5.748716e-002
3.060606e+003;5.778055e-002
3.062534e+003;5.809144e-002
3.064463e+003;5.836635e-002
3.066391e+003;5.874298e-002
3.068320e+003;5.936195e-002
3.070248e+003;5.962928e-002
3.072177e+003;5.964178e-002
3.074105e+003;5.996675e-002
3.076034e+003;6.038463e-002
3.077963e+003;6.047439e-002
3.079891e+003;6.076549e-002
3.081820e+003;6.127227e-002
3.083748e+003;6.162133e-002
3.085677e+003;6.146007e-002
3.087605e+003;6.166334e-002
3.089534e+003;6.225089e-002
3.091462e+003;6.300921e-002
3.093391e+003;6.377074e-002
3.095320e+003;6.378387e-002
3.097248e+003;6.375793e-002
3.099177e+003;6.400900e-002
3.101105e+003;6.435170e-002
3.103034e+003;6.506659e-002
3.104962e+003;6.585206e-002
3.106891e+003;6.610963e-002
3.108819e+003;6.593077e-002
3.110748e+003;6.623424e-002
3.112677e+003;6.706710e-002
3.114605e+003;6.770182e-002
3.116533e+003;6.756046e-002
3.118462e+003;6.758888e-002
3.120391e+003;6.818811e-002
3.122319e+003;6.873266e-002
3.124248e+003;6.882863e-002
3.126176e+003;6.906843e-002
3.128105e+003;6.979071e-002
3.130033e+003;7.000224e-002
3.131962e+003;7.021800e-002
3.133890e+003;7.120858e-002
3.135819e+003;7.174274e-002
3.137748e+003;7.166654e-002
3.139676e+003;7.226156e-002
3.141605e+003;7.289159e-002
3.143533e+003;7.319772e-002
3.145462e+003;7.340389e-002
3.147390e+003;7.352181e-002
3.149319e+003;7.419041e-002
3.151247e+003;7.466349e-002
3.153176e+003;7.495347e-002
3.155104e+003;7.555188e-002
3.157033e+003;7.581737e-002
3.158962e+003;7.625197e-002
3.160890e+003;7.721091e-002
3.162819e+003;7.782888e-002
3.164747e+003;7.850483e-002
3.166676e+003;7.905772e-002
3.168604e+003;7.909615e-002
3.170533e+003;7.940904e-002
3.172461e+003;8.019125e-002
3.174390e+003;8.067004e-002
3.176319e+003;8.075280e-002
3.178247e+003;8.131714e-002
3.180176e+003;8.175037e-002
3.182104e+003;8.206350e-002
3.184033e+003;8.251683e-002
3.185961e+003;8.310778e-002
3.187890e+003;8.366531e-002
3.189818e+003;8.416769e-002
3.191747e+003;8.444228e-002
3.193676e+003;8.489829e-002
3.195604e+003;8.503352e-002
3.197532e+003;8.517915e-002
3.199461e+003;8.565919e-002
3.201390e+003;8.672851e-002
3.203318e+003;8.709623e-002
3.205247e+003;8.715883e-002
3.207175e+003;8.780777e-002
3.209104e+003;8.876613e-002
3.211032e+003;8.926956e-002
3.212961e+003;8.940628e-002
3.214889e+003;8.934237e-002
3.216818e+003;8.963150e-002
3.218747e+003;9.036014e-002
3.220675e+003;9.090521e-002
3.222604e+003;9.160908e-002
3.224532e+003;9.227761e-002
3.226461e+003;9.233572e-002
3.228389e+003;9.247017e-002
3.230318e+003;9.310263e-002
3.232246e+003;9.369037e-002
3.234175e+003;9.379189e-002
3.236104e+003;9.432922e-002
3.238032e+003;9.501227e-002
3.239961e+003;9.528465e-002
3.241889e+003;9.587209e-002
3.243818e+003;9.682677e-002
3.245746e+003;9.741154e-002
3.247675e+003;9.800137e-002
3.249603e+003;9.849447e-002
3.251532e+003;9.838728e-002
3.253460e+003;9.876101e-002
3.255389e+003;9.952294e-002
3.257318e+003;9.990445e-002
3.259246e+003;1.001606e-001
3.261175e+003;1.000716e-001
3.263103e+003;1.005142e-001
3.265032e+003;1.015404e-001
3.266960e+003;1.024307e-001
3.268889e+003;1.029262e-001
3.270817e+003;1.032533e-001
3.272746e+003;1.032737e-001
3.274675e+003;1.033310e-001
3.276603e+003;1.033122e-001
3.278531e+003;1.033974e-001
3.280460e+003;1.040486e-001
3.282389e+003;1.043774e-001
3.284317e+003;1.044102e-001
3.286246e+003;1.045457e-001
3.288174e+003;1.044888e-001
3.290103e+003;1.047728e-001
3.292031e+003;1.054425e-001
3.293960e+003;1.060561e-001
3.295888e+003;1.062283e-001
3.297817e+003;1.057767e-001
3.299746e+003;1.055112e-001
3.301674e+003;1.057844e-001
3.303603e+003;1.061012e-001
3.305531e+003;1.062574e-001
3.307460e+003;1.064936e-001
3.309388e+003;1.068479e-001
3.311317e+003;1.069820e-001
3.313245e+003;1.066033e-001
3.315174e+003;1.065484e-001
3.317103e+003;1.074262e-001
3.319031e+003;1.073456e-001
3.320960e+003;1.069464e-001
3.322888e+003;1.072391e-001
3.324817e+003;1.076322e-001
3.326745e+003;1.077706e-001
3.328674e+003;1.075535e-001
3.330602e+003;1.072390e-001
3.332531e+003;1.072713e-001
3.334459e+003;1.077611e-001
3.336388e+003;1.075511e-001
3.338317e+003;1.072250e-001
3.340245e+003;1.077332e-001
3.342174e+003;1.078225e-001
3.344102e+003;1.075173e-001
3.346031e+003;1.078218e-001
3.347959e+003;1.080063e-001
3.349888e+003;1.072277e-001
3.351816e+003;1.065945e-001
3.353745e+003;1.068056e-001
3.355674e+003;1.063365e-001
3.357602e+003;1.057816e-001
3.359531e+003;1.057912e-001
3.361459e+003;1.058615e-001
3.363388e+003;1.058385e-001
3.365316e+003;1.061450e-001
3.367245e+003;1.062486e-001
3.369173e+003;1.059060e-001
3.371102e+003;1.056329e-001
3.373031e+003;1.056143e-001
3.374959e+003;1.052916e-001
3.376887e+003;1.047154e-001
3.378816e+003;1.043344e-001
3.380745e+003;1.043523e-001
3.382673e+003;1.042417e-001
3.384602e+003;1.038357e-001
3.386530e+003;1.033712e-001
3.388459e+003;1.028894e-001
3.390387e+003;1.027348e-001
3.392316e+003;1.026815e-001
3.394244e+003;1.023310e-001
3.396173e+003;1.019715e-001
3.398102e+003;1.014030e-001
3.400030e+003;1.011165e-001
3.401959e+003;1.009574e-001
3.403887e+003;1.006339e-001
3.405816e+003;1.006785e-001
3.407744e+003;1.003911e-001
3.409673e+003;1.000071e-001
3.411601e+003;9.952206e-002
3.413530e+003;9.863757e-002
3.415458e+003;9.823242e-002
3.417387e+003;9.772637e-002
3.419316e+003;9.707617e-002
3.421244e+003;9.660868e-002
3.423173e+003;9.617415e-002
3.425101e+003;9.596411e-002
3.427030e+003;9.567417e-002
3.428958e+003;9.512535e-002
3.430887e+003;9.456611e-002
3.432815e+003;9.381993e-002
3.434744e+003;9.332615e-002
3.436673e+003;9.303316e-002
3.438601e+003;9.237511e-002
3.440530e+003;9.167446e-002
3.442458e+003;9.122076e-002
3.444387e+003;9.069125e-002
3.446315e+003;8.985793e-002
3.448244e+003;8.921984e-002
3.450172e+003;8.899552e-002
3.452101e+003;8.881048e-002
3.454030e+003;8.763178e-002
3.455958e+003;8.674315e-002
3.457886e+003;8.641443e-002
3.459815e+003;8.579106e-002
3.461744e+003;8.542925e-002
3.463672e+003;8.512642e-002
3.465601e+003;8.450885e-002
3.467529e+003;8.385111e-002
3.469458e+003;8.335729e-002
3.471386e+003;8.296064e-002
3.473315e+003;8.220321e-002
3.475243e+003;8.123412e-002
3.477172e+003;8.044942e-002
3.479101e+003;7.988442e-002
3.481029e+003;7.946350e-002
3.482958e+003;7.924374e-002
3.484886e+003;7.818498e-002
3.486815e+003;7.708320e-002
3.488743e+003;7.660531e-002
3.490672e+003;7.618259e-002
3.492600e+003;7.590500e-002
3.494529e+003;7.522482e-002
3.496458e+003;7.451411e-002
3.498386e+003;7.404638e-002
3.500315e+003;7.311600e-002
3.502243e+003;7.206395e-002
3.504172e+003;7.175353e-002
3.506100e+003;7.121299e-002
3.508029e+003;7.042428e-002
3.509957e+003;7.010868e-002
3.511886e+003;6.975176e-002
3.513814e+003;6.866610e-002
3.515743e+003;6.739605e-002
3.517672e+003;6.628356e-002
3.519600e+003;6.560859e-002
3.521529e+003;6.544889e-002
3.523457e+003;6.506367e-002
3.525386e+003;6.465115e-002
3.527314e+003;6.453230e-002
3.529243e+003;6.339277e-002
3.531171e+003;6.177804e-002
3.533100e+003;6.051194e-002
3.535029e+003;6.004158e-002
3.536957e+003;5.957527e-002
3.538885e+003;5.890650e-002
3.540814e+003;5.867406e-002
3.542743e+003;5.829378e-002
3.544671e+003;5.746958e-002
3.546600e+003;5.644147e-002
3.548528e+003;5.535128e-002
3.550457e+003;5.466628e-002
3.552385e+003;5.395317e-002
3.554314e+003;5.284296e-002
3.556242e+003;5.252728e-002
3.558171e+003;5.234308e-002
3.560100e+003;5.179173e-002
3.562028e+003;5.123045e-002
3.563957e+003;5.039047e-002
3.565885e+003;4.926023e-002
3.567814e+003;4.803068e-002
3.569742e+003;4.716775e-002
3.571671e+003;4.681092e-002
3.573599e+003;4.664673e-002
3.575528e+003;4.608513e-002
3.577457e+003;4.513663e-002
3.579385e+003;4.465127e-002
3.581314e+003;4.407834e-002
3.583242e+003;4.326902e-002
3.585171e+003;4.241801e-002
3.587099e+003;4.120806e-002
3.589028e+003;4.064970e-002
3.590956e+003;4.077364e-002
3.592885e+003;4.008017e-002
3.594813e+003;3.920361e-002
3.596742e+003;3.875135e-002
3.598671e+003;3.847477e-002
3.600599e+003;3.789908e-002
3.602528e+003;3.701454e-002
3.604456e+003;3.659965e-002
3.606385e+003;3.603905e-002
3.608313e+003;3.524890e-002
3.610242e+003;3.490140e-002
3.612170e+003;3.411822e-002
3.614099e+003;3.286009e-002
3.616028e+003;3.244048e-002
3.617956e+003;3.235408e-002
3.619885e+003;3.185925e-002
3.621813e+003;3.098638e-002
3.623742e+003;2.989069e-002
3.625670e+003;2.902282e-002
3.627599e+003;2.828348e-002
3.629527e+003;2.761022e-002
3.631456e+003;2.699014e-002
3.633385e+003;2.628586e-002
3.635313e+003;2.555664e-002
3.637241e+003;2.489029e-002
3.639170e+003;2.415336e-002
3.641099e+003;2.337714e-002
3.643027e+003;2.270309e-002
3.644956e+003;2.193804e-002
3.646884e+003;2.106670e-002
3.648813e+003;2.046846e-002
3.650741e+003;1.989432e-002
3.652670e+003;1.881769e-002
3.654598e+003;1.753649e-002
3.656527e+003;1.659892e-002
3.658456e+003;1.600236e-002
3.660384e+003;1.535102e-002
3.662313e+003;1.438081e-002
3.664241e+003;1.405936e-002
3.666170e+003;1.377618e-002
3.668098e+003;1.282299e-002
3.670027e+003;1.204661e-002
3.671955e+003;1.167082e-002
3.673884e+003;1.097048e-002
3.675813e+003;9.905979e-003
3.677741e+003;9.061068e-003
3.679669e+003;8.734740e-003
3.681598e+003;8.759386e-003
3.683527e+003;8.210842e-003
3.685455e+003;7.689194e-003
3.687384e+003;7.624546e-003
3.689312e+003;7.503505e-003
3.691241e+003;7.013852e-003
3.693169e+003;6.420224e-003
3.695098e+003;5.917313e-003
3.697026e+003;5.594915e-003
3.698955e+003;5.663894e-003
3.700884e+003;5.689608e-003
3.702812e+003;5.315084e-003
3.704741e+003;4.513767e-003
3.706669e+003;4.032287e-003
3.708598e+003;4.032320e-003
3.710526e+003;3.908130e-003
3.712455e+003;3.838126e-003
3.714383e+003;3.926653e-003
3.716312e+003;3.577532e-003
3.718240e+003;3.480993e-003
3.720169e+003;3.763020e-003
3.722098e+003;3.542354e-003
3.724026e+003;3.145980e-003
3.725955e+003;2.913586e-003
3.727883e+003;2.742364e-003
3.729812e+003;3.234599e-003
3.731740e+003;3.495790e-003
3.733669e+003;2.999122e-003
3.735597e+003;2.494523e-003
3.737526e+003;2.257314e-003
3.739455e+003;2.496789e-003
3.741383e+003;2.487258e-003
3.743312e+003;1.835956e-003
3.745240e+003;1.274480e-003
3.747169e+003;1.341015e-003
3.749097e+003;1.321140e-003
3.751026e+003;1.494196e-003
3.752954e+003;2.021966e-003
3.754883e+003;2.352915e-003
3.756812e+003;2.139358e-003
3.758740e+003;1.746290e-003
3.760668e+003;1.589895e-003
3.762597e+003;1.611711e-003
3.764526e+003;1.619360e-003
3.766454e+003;1.849565e-003
3.768383e+003;2.120578e-003
3.770311e+003;2.025362e-003
3.772240e+003;1.814461e-003
3.774168e+003;1.843542e-003
3.776097e+003;1.776598e-003
3.778025e+003;1.834259e-003
3.779954e+003;1.880579e-003
3.781883e+003;1.459852e-003
3.783811e+003;1.343607e-003
3.785740e+003;1.798091e-003
3.787668e+003;1.872859e-003
3.789597e+003;1.484521e-003
3.791525e+003;1.026545e-003
3.793454e+003;9.848323e-004
3.795382e+003;1.164532e-003
3.797311e+003;1.415870e-003
3.799240e+003;1.282622e-003
3.801168e+003;1.078194e-003
3.803097e+003;1.057567e-003
3.805025e+003;1.035347e-003
3.806954e+003;1.301100e-003
3.808882e+003;2.013012e-003
3.810811e+003;1.749018e-003
3.812739e+003;1.599838e-003
3.814668e+003;1.934892e-003
3.816596e+003;1.757202e-003
3.818525e+003;1.649459e-003
3.820454e+003;1.560365e-003
3.822382e+003;1.551054e-003
3.824311e+003;1.602266e-003
3.826239e+003;1.433588e-003
3.828168e+003;1.460417e-003
3.830096e+003;1.893458e-003
3.832025e+003;2.249021e-003
3.833953e+003;2.294053e-003
3.835882e+003;1.858383e-003
3.837811e+003;1.220516e-003
3.839739e+003;1.000574e-003
3.841667e+003;1.276275e-003
3.843596e+003;1.558935e-003
3.845525e+003;1.444625e-003
3.847453e+003;1.540081e-003
3.849382e+003;1.901145e-003
3.851310e+003;2.175521e-003
3.853239e+003;1.858683e-003
3.855167e+003;2.169560e-003
3.857096e+003;2.839939e-003
3.859024e+003;2.555812e-003
3.860953e+003;2.397491e-003
3.862882e+003;2.605842e-003
3.864810e+003;2.549746e-003
3.866739e+003;2.435941e-003
3.868667e+003;2.266141e-003
3.870596e+003;2.298217e-003
3.872524e+003;2.624476e-003
3.874453e+003;3.009331e-003
3.876381e+003;3.146247e-003
3.878310e+003;3.176953e-003
3.880239e+003;3.328379e-003
3.882167e+003;3.234332e-003
3.884096e+003;3.295725e-003
3.886024e+003;3.368214e-003
3.887953e+003;3.635833e-003
3.889881e+003;3.833380e-003
3.891810e+003;3.518336e-003
3.893738e+003;3.684885e-003
3.895667e+003;3.733576e-003
3.897595e+003;4.049511e-003
3.899524e+003;4.518722e-003
3.901453e+003;4.489595e-003
3.903381e+003;4.224661e-003
3.905310e+003;4.441087e-003
3.907238e+003;4.676746e-003
3.909167e+003;4.551233e-003
3.911095e+003;4.308682e-003
3.913024e+003;4.092723e-003
3.914952e+003;3.979751e-003
3.916881e+003;4.509013e-003
3.918810e+003;4.977146e-003
3.920738e+003;4.884250e-003
3.922667e+003;5.089774e-003
3.924595e+003;5.368621e-003
3.926524e+003;5.351143e-003
3.928452e+003;5.362147e-003
3.930381e+003;5.283522e-003
3.932309e+003;5.143685e-003
3.934238e+003;5.205717e-003
3.936167e+003;5.099496e-003
3.938095e+003;4.958008e-003
3.940023e+003;5.408375e-003
3.941952e+003;5.743527e-003
3.943881e+003;5.984227e-003
3.945809e+003;6.222371e-003
3.947738e+003;6.255548e-003
3.949666e+003;6.453886e-003
3.951595e+003;6.765884e-003
3.953523e+003;6.720284e-003
3.955452e+003;6.351696e-003
3.957380e+003;6.062171e-003
3.959309e+003;5.993465e-003
3.961238e+003;5.898134e-003
3.963166e+003;5.854406e-003
3.965095e+003;6.264254e-003
3.967023e+003;6.729976e-003
3.968952e+003;6.650465e-003
3.970880e+003;6.599798e-003
3.972809e+003;6.818085e-003
3.974737e+003;6.809064e-003
3.976666e+003;6.808458e-003
3.978594e+003;6.855312e-003
3.980523e+003;6.759961e-003
3.982452e+003;6.865411e-003
3.984380e+003;6.952840e-003
3.986309e+003;7.247305e-003
3.988237e+003;7.151430e-003
3.990166e+003;7.099930e-003
3.992094e+003;7.351122e-003
3.994023e+003;7.244037e-003
3.995951e+003;7.115356e-003
3.997880e+003;6.736572e-003
3.999809e+003;6.594012e-003
4.001737e+003;0.000000e+000
