3.992094e+002;0.000000e+000
4.011380e+002;0.000000e+000
4.030665e+002;0.000000e+000
4.049951e+002;0.000000e+000
4.069236e+002;0.000000e+000
4.088522e+002;0.000000e+000
4.107807e+002;0.000000e+000
4.127093e+002;0.000000e+000
4.146378e+002;0.000000e+000
4.165664e+002;0.000000e+000
4.184949e+002;0.000000e+000
4.204235e+002;0.000000e+000
4.223520e+002;0.000000e+000
4.242806e+002;0.000000e+000
4.262091e+002;0.000000e+000
4.281377e+002;0.000000e+000
4.300662e+002;0.000000e+000
4.319948e+002;0.000000e+000
4.339233e+002;0.000000e+000
4.358519e+002;0.000000e+000
4.377804e+002;0.000000e+000
4.397090e+002;0.000000e+000
4.416375e+002;0.000000e+000
4.435660e+002;0.000000e+000
4.454946e+002;0.000000e+000
4.474232e+002;0.000000e+000
4.493517e+002;0.000000e+000
4.512802e+002;0.000000e+000
4.532088e+002;0.000000e+000
4.551373e+002;0.000000e+000
4.570659e+002;0.000000e+000
4.589944e+002;0.000000e+000
4.609230e+002;0.000000e+000
4.628515e+002;0.000000e+000
4.647801e+002;0.000000e+000
4.667086e+002;0.000000e+000
4.686372e+002;0.000000e+000
4.705657e+002;0.000000e+000
4.724943e+002;0.000000e+000
4.744228e+002;0.000000e+000
4.763513e+002;0.000000e+000
4.782799e+002;0.000000e+000
4.802085e+002;0.000000e+000
4.821370e+002;0.000000e+000
4.840656e+002;0.000000e+000
4.859941e+002;0.000000e+000
4.879226e+002;0.000000e+000
4.898512e+002;0.000000e+000
4.917798e+002;0.000000e+000
4.937083e+002;0.000000e+000
4.956368e+002;0.000000e+000
4.975654e+002;0.000000e+000
4.994939e+002;0.000000e+000
5.014225e+002;0.000000e+000
5.033510e+002;0.000000e+000
5.052796e+002;0.000000e+000
5.072081e+002;0.000000e+000
5.091367e+002;0.000000e+000
5.110652e+002;0.000000e+000
5.129938e+002;0.000000e+000
5.149223e+002;0.000000e+000
5.168509e+002;0.000000e+000
5.187794e+002;0.000000e+000
5.207079e+002;0.000000e+000
5.226365e+002;0.000000e+000
5.245651e+002;0.000000e+000
5.264936e+002;0.000000e+000
5.284222e+002;0.000000e+000
5.303507e+002;0.000000e+000
5.322792e+002;0.000000e+000
5.342078e+002;0.000000e+000
5.361364e+002;0.000000e+000
5.380649e+002;0.000000e+000
5.399935e+002;0.000000e+000
5.419220e+002;0.000000e+000
5.438505e+002;0.000000e+000
5.457791e+002;0.000000e+000
5.477076e+002;0.000000e+000
5.496362e+002;0.000000e+000
5.515648e+002;0.000000e+000
5.534933e+002;0.000000e+000
5.554218e+002;0.000000e+000
5.573504e+002;0.000000e+000
5.592789e+002;0.000000e+000
5.612075e+002;0.000000e+000
5.631360e+002;0.000000e+000
5.650646e+002;0.000000e+000
5.669931e+002;0.000000e+000
5.689217e+002;0.000000e+000
5.708502e+002;0.000000e+000
5.727787e+002;0.000000e+000
5.747073e+002;0.000000e+000
5.766359e+002;0.000000e+000
5.785644e+002;0.000000e+000
5.804930e+002;0.000000e+000
5.824215e+002;0.000000e+000
5.843500e+002;0.000000e+000
5.862786e+002;0.000000e+000
5.882072e+002;0.000000e+000
5.901357e+002;0.000000e+000
5.920643e+002;0.000000e+000
5.939928e+002;0.000000e+000
5.959213e+002;0.000000e+000
5.978499e+002;0.000000e+000
5.997784e+002;2.411222e-001
6.017070e+002;2.429660e-001
6.036355e+002;2.500029e-001
6.055641e+002;2.506471e-001
6.074926e+002;2.460315e-001
6.094211e+002;2.470624e-001
6.113497e+002;2.435056e-001
6.132783e+002;2.381534e-001
6.152068e+002;2.412514e-001
6.171354e+002;2.396507e-001
6.190639e+002;2.340730e-001
6.209924e+002;2.292302e-001
6.229210e+002;2.265406e-001
6.248495e+002;2.301839e-001
6.267781e+002;2.337037e-001
6.287067e+002;2.277063e-001
6.306352e+002;2.256992e-001
6.325637e+002;2.322153e-001
6.344923e+002;2.300382e-001
6.364208e+002;2.240257e-001
6.383494e+002;2.214734e-001
6.402780e+002;2.175798e-001
6.422065e+002;2.154802e-001
6.441350e+002;2.139895e-001
6.460636e+002;2.129338e-001
6.479921e+002;2.116240e-001
6.499207e+002;2.110347e-001
6.518492e+002;2.147116e-001
6.537778e+002;2.132019e-001
6.557063e+002;2.135261e-001
6.576349e+002;2.218927e-001
6.595634e+002;2.264534e-001
6.614919e+002;2.280577e-001
6.634205e+002;2.285875e-001
6.653491e+002;2.261807e-001
6.672776e+002;2.228947e-001
6.692062e+002;2.200483e-001
6.711347e+002;2.175495e-001
6.730632e+002;2.134142e-001
6.749918e+002;2.085803e-001
6.769203e+002;2.041461e-001
6.788489e+002;2.000835e-001
6.807775e+002;1.964160e-001
6.827060e+002;1.946360e-001
6.846345e+002;1.939711e-001
6.865631e+002;1.942807e-001
6.884916e+002;1.931956e-001
6.904202e+002;1.915587e-001
6.923488e+002;1.905418e-001
6.942773e+002;1.909047e-001
6.962058e+002;1.908488e-001
6.981344e+002;1.892620e-001
7.000629e+002;1.876273e-001
7.019915e+002;1.868199e-001
7.039200e+002;1.862829e-001
7.058486e+002;1.853897e-001
7.077771e+002;1.847084e-001
7.097057e+002;1.843089e-001
7.116342e+002;1.826547e-001
7.135627e+002;1.801865e-001
7.154913e+002;1.791853e-001
7.174199e+002;1.786662e-001
7.193484e+002;1.758282e-001
7.212770e+002;1.737070e-001
7.232055e+002;1.728038e-001
7.251340e+002;1.702674e-001
7.270626e+002;1.679772e-001
7.289911e+002;1.665642e-001
7.309197e+002;1.644574e-001
7.328483e+002;1.625345e-001
7.347768e+002;1.596494e-001
7.367053e+002;1.569054e-001
7.386339e+002;1.560566e-001
7.405624e+002;1.561813e-001
7.424910e+002;1.555170e-001
7.444196e+002;1.540356e-001
7.463481e+002;1.537608e-001
7.482766e+002;1.531704e-001
7.502052e+002;1.517160e-001
7.521337e+002;1.509106e-001
7.540623e+002;1.503076e-001
7.559908e+002;1.501822e-001
7.579194e+002;1.497379e-001
7.598479e+002;1.492799e-001
7.617765e+002;1.495745e-001
7.637050e+002;1.488909e-001
7.656335e+002;1.473603e-001
7.675621e+002;1.465511e-001
7.694907e+002;1.461237e-001
7.714192e+002;1.450167e-001
7.733478e+002;1.433643e-001
7.752763e+002;1.421917e-001
7.772048e+002;1.421313e-001
7.791334e+002;1.412109e-001
7.810620e+002;1.406492e-001
7.829905e+002;1.407830e-001
7.849191e+002;1.393893e-001
7.868476e+002;1.383973e-001
7.887761e+002;1.387655e-001
7.907047e+002;1.386942e-001
7.926332e+002;1.387376e-001
7.945618e+002;1.384012e-001
7.964903e+002;1.382447e-001
7.984189e+002;1.387380e-001
8.003474e+002;1.398572e-001
8.022759e+002;1.401152e-001
8.042045e+002;1.399198e-001
8.061331e+002;1.403069e-001
8.080616e+002;1.406909e-001
8.099902e+002;1.406483e-001
8.119187e+002;1.413360e-001
8.138472e+002;1.433225e-001
8.157758e+002;1.440573e-001
8.177043e+002;1.438972e-001
8.196329e+002;1.445297e-001
8.215615e+002;1.445524e-001
8.234900e+002;1.444943e-001
8.254185e+002;1.456922e-001
8.273471e+002;1.460693e-001
8.292756e+002;1.458074e-001
8.312042e+002;1.459157e-001
8.331328e+002;1.456220e-001
8.350613e+002;1.451515e-001
8.369898e+002;1.443415e-001
8.389184e+002;1.437807e-001
8.408469e+002;1.429365e-001
8.427755e+002;1.432455e-001
8.447040e+002;1.431006e-001
8.466326e+002;1.420663e-001
8.485611e+002;1.423747e-001
8.504897e+002;1.427009e-001
8.524182e+002;1.429394e-001
8.543467e+002;1.427883e-001
8.562753e+002;1.425886e-001
8.582039e+002;1.430150e-001
8.601324e+002;1.443366e-001
8.620610e+002;1.461896e-001
8.639895e+002;1.481842e-001
8.659180e+002;1.499602e-001
8.678466e+002;1.512853e-001
8.697751e+002;1.529113e-001
8.717037e+002;1.547545e-001
8.736323e+002;1.572413e-001
8.755608e+002;1.604580e-001
8.774893e+002;1.632750e-001
8.794179e+002;1.654760e-001
8.813464e+002;1.679604e-001
8.832750e+002;1.713294e-001
8.852036e+002;1.748513e-001
8.871321e+002;1.781580e-001
8.890606e+002;1.809491e-001
8.909892e+002;1.839990e-001
8.929177e+002;1.871109e-001
8.948463e+002;1.892874e-001
8.967748e+002;1.898371e-001
8.987034e+002;1.897815e-001
9.006319e+002;1.886885e-001
9.025605e+002;1.860726e-001
9.044890e+002;1.841620e-001
9.064175e+002;1.826904e-001
9.083461e+002;1.809102e-001
9.102747e+002;1.800544e-001
9.122032e+002;1.799085e-001
9.141318e+002;1.792148e-001
9.160603e+002;1.793170e-001
9.179888e+002;1.798977e-001
9.199174e+002;1.802681e-001
9.218459e+002;1.805652e-001
9.237745e+002;1.812354e-001
9.257031e+002;1.824645e-001
9.276316e+002;1.835231e-001
9.295601e+002;1.841474e-001
9.314887e+002;1.847377e-001
9.334172e+002;1.859282e-001
9.353458e+002;1.882030e-001
9.372744e+002;1.907790e-001
9.392029e+002;1.925876e-001
9.411314e+002;1.954311e-001
9.430600e+002;1.993747e-001
9.449885e+002;2.034210e-001
9.469171e+002;2.077059e-001
9.488456e+002;2.125420e-001
9.507742e+002;2.179962e-001
9.527027e+002;2.240572e-001
9.546313e+002;2.302260e-001
9.565598e+002;2.361682e-001
9.584883e+002;2.414111e-001
9.604169e+002;2.468457e-001
9.623455e+002;2.523600e-001
9.642740e+002;2.578007e-001
9.662026e+002;2.628479e-001
9.681311e+002;2.680911e-001
9.700596e+002;2.739734e-001
9.719882e+002;2.802293e-001
9.739167e+002;2.870016e-001
9.758453e+002;2.948590e-001
9.777739e+002;3.040061e-001
9.797024e+002;3.130545e-001
9.816309e+002;3.215324e-001
9.835595e+002;3.293802e-001
9.854880e+002;3.356569e-001
9.874166e+002;3.399519e-001
9.893452e+002;3.424131e-001
9.912737e+002;3.450493e-001
9.932022e+002;3.478715e-001
9.951307e+002;3.510605e-001
9.970593e+002;3.549964e-001
9.989879e+002;3.593525e-001
1.000916e+003;3.636129e-001
1.002845e+003;3.680604e-001
1.004773e+003;3.735308e-001
1.006702e+003;3.795910e-001
1.008631e+003;3.850299e-001
1.010559e+003;3.898265e-001
1.012488e+003;3.941888e-001
1.014416e+003;3.995093e-001
1.016345e+003;4.044188e-001
1.018273e+003;4.082755e-001
1.020202e+003;4.112932e-001
1.022130e+003;4.134980e-001
1.024059e+003;4.152775e-001
1.025988e+003;4.171469e-001
1.027916e+003;4.195374e-001
1.029845e+003;4.198049e-001
1.031773e+003;4.181207e-001
1.033702e+003;4.158115e-001
1.035630e+003;4.125651e-001
1.037559e+003;4.078115e-001
1.039487e+003;4.028078e-001
1.041416e+003;3.990221e-001
1.043344e+003;3.955879e-001
1.045273e+003;3.930236e-001
1.047202e+003;3.906350e-001
1.049130e+003;3.886026e-001
1.051059e+003;3.870071e-001
1.052987e+003;3.843240e-001
1.054916e+003;3.801822e-001
1.056844e+003;3.743737e-001
1.058773e+003;3.677029e-001
1.060701e+003;3.607615e-001
1.062630e+003;3.527476e-001
1.064558e+003;3.437257e-001
1.066487e+003;3.341480e-001
1.068416e+003;3.255067e-001
1.070344e+003;3.191609e-001
1.072273e+003;3.132242e-001
1.074201e+003;3.075810e-001
1.076130e+003;3.033418e-001
1.078058e+003;2.986687e-001
1.079987e+003;2.928212e-001
1.081915e+003;2.874338e-001
1.083844e+003;2.837333e-001
1.085773e+003;2.815613e-001
1.087701e+003;2.796195e-001
1.089630e+003;2.786462e-001
1.091558e+003;2.792091e-001
1.093487e+003;2.795835e-001
1.095415e+003;2.797540e-001
1.097344e+003;2.796193e-001
1.099272e+003;2.782958e-001
1.101201e+003;2.763372e-001
1.103129e+003;2.744748e-001
1.105058e+003;2.710643e-001
1.106987e+003;2.653955e-001
1.108915e+003;2.587405e-001
1.110844e+003;2.521507e-001
1.112772e+003;2.456741e-001
1.114701e+003;2.393657e-001
1.116629e+003;2.320697e-001
1.118558e+003;2.250679e-001
1.120486e+003;2.188177e-001
1.122415e+003;2.130662e-001
1.124344e+003;2.079629e-001
1.126272e+003;2.029969e-001
1.128201e+003;1.978745e-001
1.130129e+003;1.927731e-001
1.132058e+003;1.879044e-001
1.133986e+003;1.841624e-001
1.135915e+003;1.806101e-001
1.137843e+003;1.780259e-001
1.139772e+003;1.767026e-001
1.141700e+003;1.760254e-001
1.143629e+003;1.761989e-001
1.145557e+003;1.767263e-001
1.147486e+003;1.779024e-001
1.149415e+003;1.791442e-001
1.151343e+003;1.799524e-001
1.153272e+003;1.803143e-001
1.155200e+003;1.805405e-001
1.157129e+003;1.804574e-001
1.159057e+003;1.794450e-001
1.160986e+003;1.775313e-001
1.162914e+003;1.744893e-001
1.164843e+003;1.705370e-001
1.166771e+003;1.654488e-001
1.168700e+003;1.597501e-001
1.170629e+003;1.539451e-001
1.172557e+003;1.477266e-001
1.174486e+003;1.418511e-001
1.176414e+003;1.378882e-001
1.178343e+003;1.349350e-001
1.180271e+003;1.322711e-001
1.182200e+003;1.296066e-001
1.184128e+003;1.275469e-001
1.186057e+003;1.264876e-001
1.187986e+003;1.261511e-001
1.189914e+003;1.266108e-001
1.191843e+003;1.280922e-001
1.193771e+003;1.302248e-001
1.195700e+003;1.328832e-001
1.197628e+003;1.354237e-001
1.199557e+003;1.380945e-001
1.201485e+003;1.409570e-001
1.203414e+003;1.429962e-001
1.205343e+003;1.446355e-001
1.207271e+003;1.465482e-001
1.209200e+003;1.480623e-001
1.211128e+003;1.494046e-001
1.213057e+003;1.521121e-001
1.214985e+003;1.560929e-001
1.216914e+003;1.599431e-001
1.218842e+003;1.638119e-001
1.220771e+003;1.677765e-001
1.222699e+003;1.713102e-001
1.224628e+003;1.744691e-001
1.226557e+003;1.774861e-001
1.228485e+003;1.800862e-001
1.230414e+003;1.819455e-001
1.232342e+003;1.830465e-001
1.234271e+003;1.839344e-001
1.236199e+003;1.847181e-001
1.238128e+003;1.845497e-001
1.240056e+003;1.835864e-001
1.241985e+003;1.821893e-001
1.243913e+003;1.804032e-001
1.245842e+003;1.790788e-001
1.247771e+003;1.775302e-001
1.249699e+003;1.751498e-001
1.251628e+003;1.726921e-001
1.253556e+003;1.706546e-001
1.255485e+003;1.686776e-001
1.257413e+003;1.666200e-001
1.259342e+003;1.643276e-001
1.261270e+003;1.618630e-001
1.263199e+003;1.591240e-001
1.265127e+003;1.563615e-001
1.267056e+003;1.537006e-001
1.268985e+003;1.514549e-001
1.270913e+003;1.491717e-001
1.272842e+003;1.467737e-001
1.274770e+003;1.451531e-001
1.276699e+003;1.434789e-001
1.278627e+003;1.413132e-001
1.280556e+003;1.393485e-001
1.282484e+003;1.379787e-001
1.284413e+003;1.366976e-001
1.286342e+003;1.352624e-001
1.288270e+003;1.345693e-001
1.290199e+003;1.345661e-001
1.292127e+003;1.345478e-001
1.294056e+003;1.344173e-001
1.295984e+003;1.349327e-001
1.297913e+003;1.363854e-001
1.299841e+003;1.384353e-001
1.301770e+003;1.407015e-001
1.303698e+003;1.431467e-001
1.305627e+003;1.457466e-001
1.307556e+003;1.483815e-001
1.309484e+003;1.508191e-001
1.311413e+003;1.531069e-001
1.313341e+003;1.551578e-001
1.315270e+003;1.564720e-001
1.317198e+003;1.569777e-001
1.319127e+003;1.568756e-001
1.321055e+003;1.563047e-001
1.322984e+003;1.553066e-001
1.324912e+003;1.543588e-001
1.326841e+003;1.537804e-001
1.328770e+003;1.536605e-001
1.330698e+003;1.540568e-001
1.332627e+003;1.543392e-001
1.334555e+003;1.539451e-001
1.336484e+003;1.528630e-001
1.338412e+003;1.514616e-001
1.340341e+003;1.499388e-001
1.342269e+003;1.485033e-001
1.344198e+003;1.470921e-001
1.346126e+003;1.457785e-001
1.348055e+003;1.449396e-001
1.349984e+003;1.447299e-001
1.351912e+003;1.448759e-001
1.353841e+003;1.456807e-001
1.355769e+003;1.471684e-001
1.357698e+003;1.489612e-001
1.359626e+003;1.506830e-001
1.361555e+003;1.520754e-001
1.363483e+003;1.529322e-001
1.365412e+003;1.535043e-001
1.367341e+003;1.539129e-001
1.369269e+003;1.537320e-001
1.371198e+003;1.525902e-001
1.373126e+003;1.509943e-001
1.375055e+003;1.489640e-001
1.376983e+003;1.464633e-001
1.378912e+003;1.439550e-001
1.380840e+003;1.414618e-001
1.382769e+003;1.387596e-001
1.384698e+003;1.362088e-001
1.386626e+003;1.340167e-001
1.388555e+003;1.322324e-001
1.390483e+003;1.310204e-001
1.392412e+003;1.304998e-001
1.394340e+003;1.306621e-001
1.396269e+003;1.310018e-001
1.398197e+003;1.313667e-001
1.400126e+003;1.320510e-001
1.402054e+003;1.331659e-001
1.403983e+003;1.347344e-001
1.405911e+003;1.361063e-001
1.407840e+003;1.373045e-001
1.409769e+003;1.388932e-001
1.411697e+003;1.404310e-001
1.413626e+003;1.418877e-001
1.415554e+003;1.435904e-001
1.417483e+003;1.449336e-001
1.419411e+003;1.457912e-001
1.421340e+003;1.465764e-001
1.423268e+003;1.468233e-001
1.425197e+003;1.463196e-001
1.427125e+003;1.455911e-001
1.429054e+003;1.444786e-001
1.430983e+003;1.428123e-001
1.432911e+003;1.411461e-001
1.434840e+003;1.394346e-001
1.436768e+003;1.374394e-001
1.438697e+003;1.355984e-001
1.440625e+003;1.339587e-001
1.442554e+003;1.324920e-001
1.444482e+003;1.312469e-001
1.446411e+003;1.302299e-001
1.448340e+003;1.293666e-001
1.450268e+003;1.285536e-001
1.452197e+003;1.278563e-001
1.454125e+003;1.270643e-001
1.456054e+003;1.255500e-001
1.457982e+003;1.242921e-001
1.459911e+003;1.231541e-001
1.461839e+003;1.215561e-001
1.463768e+003;1.196753e-001
1.465697e+003;1.172904e-001
1.467625e+003;1.145434e-001
1.469554e+003;1.114514e-001
1.471482e+003;1.082546e-001
1.473411e+003;1.052109e-001
1.475339e+003;1.023897e-001
1.477268e+003;9.976122e-002
1.479196e+003;9.769853e-002
1.481125e+003;9.612830e-002
1.483053e+003;9.471897e-002
1.484982e+003;9.346822e-002
1.486911e+003;9.251945e-002
1.488839e+003;9.217136e-002
1.490768e+003;9.253032e-002
1.492696e+003;9.298830e-002
1.494625e+003;9.313531e-002
1.496553e+003;9.337660e-002
1.498482e+003;9.380225e-002
1.500410e+003;9.449299e-002
1.502339e+003;9.511492e-002
1.504267e+003;9.496629e-002
1.506196e+003;9.429431e-002
1.508125e+003;9.374144e-002
1.510053e+003;9.282473e-002
1.511982e+003;9.133581e-002
1.513910e+003;8.995028e-002
1.515839e+003;8.859881e-002
1.517767e+003;8.744270e-002
1.519696e+003;8.631413e-002
1.521624e+003;8.541223e-002
1.523553e+003;8.496079e-002
1.525481e+003;8.462499e-002
1.527410e+003;8.446618e-002
1.529339e+003;8.454604e-002
1.531267e+003;8.466908e-002
1.533196e+003;8.469275e-002
1.535124e+003;8.457213e-002
1.537053e+003;8.449701e-002
1.538981e+003;8.448341e-002
1.540910e+003;8.448623e-002
1.542838e+003;8.485874e-002
1.544767e+003;8.540376e-002
1.546695e+003;8.605173e-002
1.548624e+003;8.694250e-002
1.550553e+003;8.779816e-002
1.552481e+003;8.838506e-002
1.554410e+003;8.902672e-002
1.556338e+003;8.973215e-002
1.558267e+003;9.021179e-002
1.560195e+003;9.110317e-002
1.562124e+003;9.266667e-002
1.564052e+003;9.422153e-002
1.565981e+003;9.584693e-002
1.567910e+003;9.747519e-002
1.569838e+003;9.924144e-002
1.571767e+003;1.015828e-001
1.573695e+003;1.041866e-001
1.575624e+003;1.073547e-001
1.577552e+003;1.112534e-001
1.579481e+003;1.154912e-001
1.581409e+003;1.199744e-001
1.583338e+003;1.243783e-001
1.585266e+003;1.289861e-001
1.587195e+003;1.335958e-001
1.589124e+003;1.375282e-001
1.591052e+003;1.402759e-001
1.592981e+003;1.423269e-001
1.594909e+003;1.435431e-001
1.596838e+003;1.437222e-001
1.598766e+003;1.435797e-001
1.600695e+003;1.434222e-001
1.602623e+003;1.432432e-001
1.604552e+003;1.429562e-001
1.606480e+003;1.426642e-001
1.608409e+003;1.426241e-001
1.610338e+003;1.422143e-001
1.612266e+003;1.415235e-001
1.614195e+003;1.408373e-001
1.616123e+003;1.401284e-001
1.618052e+003;1.394464e-001
1.619980e+003;1.386234e-001
1.621909e+003;1.372168e-001
1.623837e+003;1.359805e-001
1.625766e+003;1.352910e-001
1.627694e+003;1.344615e-001
1.629623e+003;1.333296e-001
1.631552e+003;1.322253e-001
1.633480e+003;1.313161e-001
1.635409e+003;1.298521e-001
1.637337e+003;1.285613e-001
1.639266e+003;1.278004e-001
1.641194e+003;1.270003e-001
1.643123e+003;1.258611e-001
1.645051e+003;1.242834e-001
1.646980e+003;1.228366e-001
1.648909e+003;1.217521e-001
1.650837e+003;1.202825e-001
1.652766e+003;1.180097e-001
1.654694e+003;1.161348e-001
1.656623e+003;1.147360e-001
1.658551e+003;1.133362e-001
1.660480e+003;1.117951e-001
1.662408e+003;1.100213e-001
1.664337e+003;1.085097e-001
1.666266e+003;1.070663e-001
1.668194e+003;1.053525e-001
1.670123e+003;1.037289e-001
1.672051e+003;1.022126e-001
1.673980e+003;1.007237e-001
1.675908e+003;9.939304e-002
1.677837e+003;9.808330e-002
1.679765e+003;9.653501e-002
1.681694e+003;9.531646e-002
1.683622e+003;9.450288e-002
1.685551e+003;9.368120e-002
1.687479e+003;9.334916e-002
1.689408e+003;9.304512e-002
1.691337e+003;9.249923e-002
1.693265e+003;9.245902e-002
1.695194e+003;9.293995e-002
1.697122e+003;9.370719e-002
1.699051e+003;9.452352e-002
1.700979e+003;9.570804e-002
1.702908e+003;9.727717e-002
1.704836e+003;9.854032e-002
1.706765e+003;1.003174e-001
1.708693e+003;1.025421e-001
1.710622e+003;1.046955e-001
1.712551e+003;1.069319e-001
1.714479e+003;1.093028e-001
1.716408e+003;1.115304e-001
1.718336e+003;1.136465e-001
1.720265e+003;1.154817e-001
1.722193e+003;1.171910e-001
1.724122e+003;1.188786e-001
1.726050e+003;1.205543e-001
1.727979e+003;1.218840e-001
1.729908e+003;1.226912e-001
1.731836e+003;1.231413e-001
1.733765e+003;1.228719e-001
1.735693e+003;1.225153e-001
1.737622e+003;1.218767e-001
1.739550e+003;1.204853e-001
1.741479e+003;1.187425e-001
1.743407e+003;1.163309e-001
1.745336e+003;1.131990e-001
1.747265e+003;1.097766e-001
1.749193e+003;1.061956e-001
1.751122e+003;1.028736e-001
1.753050e+003;9.980370e-002
1.754979e+003;9.655223e-002
1.756907e+003;9.326598e-002
1.758836e+003;8.997025e-002
1.760764e+003;8.670250e-002
1.762693e+003;8.365804e-002
1.764621e+003;8.086818e-002
1.766550e+003;7.807225e-002
1.768479e+003;7.555649e-002
1.770407e+003;7.330413e-002
1.772336e+003;7.100450e-002
1.774264e+003;6.923884e-002
1.776193e+003;6.775402e-002
1.778121e+003;6.632162e-002
1.780050e+003;6.512368e-002
1.781978e+003;6.385694e-002
1.783907e+003;6.266700e-002
1.785835e+003;6.182823e-002
1.787764e+003;6.116335e-002
1.789693e+003;6.051106e-002
1.791621e+003;6.003462e-002
1.793550e+003;5.949265e-002
1.795478e+003;5.888525e-002
1.797407e+003;5.834915e-002
1.799335e+003;5.802732e-002
1.801264e+003;5.753535e-002
1.803192e+003;5.716484e-002
1.805121e+003;5.684355e-002
1.807049e+003;5.681080e-002
1.808978e+003;5.699188e-002
1.810907e+003;5.659590e-002
1.812835e+003;5.576138e-002
1.814764e+003;5.517486e-002
1.816692e+003;5.493689e-002
1.818621e+003;5.483147e-002
1.820549e+003;5.458508e-002
1.822478e+003;5.440981e-002
1.824406e+003;5.440594e-002
1.826335e+003;5.433707e-002
1.828264e+003;5.402349e-002
1.830192e+003;5.365940e-002
1.832121e+003;5.359334e-002
1.834049e+003;5.344755e-002
1.835978e+003;5.323082e-002
1.837906e+003;5.307642e-002
1.839835e+003;5.287178e-002
1.841763e+003;5.267939e-002
1.843692e+003;5.252590e-002
1.845620e+003;5.260069e-002
1.847549e+003;5.238061e-002
1.849478e+003;5.216441e-002
1.851406e+003;5.208170e-002
1.853335e+003;5.185311e-002
1.855263e+003;5.167027e-002
1.857192e+003;5.165307e-002
1.859120e+003;5.163101e-002
1.861049e+003;5.179240e-002
1.862977e+003;5.170644e-002
1.864906e+003;5.156989e-002
1.866834e+003;5.156605e-002
1.868763e+003;5.140672e-002
1.870692e+003;5.124954e-002
1.872620e+003;5.142310e-002
1.874549e+003;5.145473e-002
1.876477e+003;5.125938e-002
1.878406e+003;5.112477e-002
1.880334e+003;5.106171e-002
1.882263e+003;5.096873e-002
1.884191e+003;5.097816e-002
1.886120e+003;5.101993e-002
1.888048e+003;5.087038e-002
1.889977e+003;5.071216e-002
1.891906e+003;5.064249e-002
1.893834e+003;5.077514e-002
1.895763e+003;5.103245e-002
1.897691e+003;5.114538e-002
1.899620e+003;5.096758e-002
1.901548e+003;5.098006e-002
1.903477e+003;5.129641e-002
1.905405e+003;5.147058e-002
1.907334e+003;5.136339e-002
1.909262e+003;5.113797e-002
1.911191e+003;5.124768e-002
1.913120e+003;5.167524e-002
1.915048e+003;5.161232e-002
1.916977e+003;5.148177e-002
1.918905e+003;5.170741e-002
1.920834e+003;5.185960e-002
1.922762e+003;5.190624e-002
1.924691e+003;5.180413e-002
1.926619e+003;5.178691e-002
1.928548e+003;5.185707e-002
1.930477e+003;5.179696e-002
1.932405e+003;5.178523e-002
1.934334e+003;5.200042e-002
1.936262e+003;5.221265e-002
1.938191e+003;5.233643e-002
1.940119e+003;5.262934e-002
1.942048e+003;5.271156e-002
1.943976e+003;5.261431e-002
1.945905e+003;5.283305e-002
1.947833e+003;5.295607e-002
1.949762e+003;5.297710e-002
1.951691e+003;5.298811e-002
1.953619e+003;5.303629e-002
1.955548e+003;5.309967e-002
1.957476e+003;5.325131e-002
1.959405e+003;5.328734e-002
1.961333e+003;5.325932e-002
1.963262e+003;5.359454e-002
1.965190e+003;5.376724e-002
1.967119e+003;5.361779e-002
1.969047e+003;5.364902e-002
1.970976e+003;5.352944e-002
1.972905e+003;5.346464e-002
1.974833e+003;5.358701e-002
1.976762e+003;5.336710e-002
1.978690e+003;5.360054e-002
1.980619e+003;5.404251e-002
1.982547e+003;5.407546e-002
1.984476e+003;5.425600e-002
1.986404e+003;5.424639e-002
1.988333e+003;5.401392e-002
1.990261e+003;5.395452e-002
1.992190e+003;5.406461e-002
1.994119e+003;5.413126e-002
1.996047e+003;5.410177e-002
1.997976e+003;5.434022e-002
1.999904e+003;5.470487e-002
2.001833e+003;5.485301e-002
2.003761e+003;5.479414e-002
2.005690e+003;5.493554e-002
2.007618e+003;5.532248e-002
2.009547e+003;5.560265e-002
2.011476e+003;5.572074e-002
2.013404e+003;5.577419e-002
2.015333e+003;5.582118e-002
2.017261e+003;5.578173e-002
2.019190e+003;5.589239e-002
2.021118e+003;5.620880e-002
2.023047e+003;5.638706e-002
2.024975e+003;5.678112e-002
2.026904e+003;5.730679e-002
2.028833e+003;5.721333e-002
2.030761e+003;5.717244e-002
2.032690e+003;5.728830e-002
2.034618e+003;5.723926e-002
2.036547e+003;5.755730e-002
2.038475e+003;5.793723e-002
2.040404e+003;5.794424e-002
2.042332e+003;5.787552e-002
2.044261e+003;5.816246e-002
2.046189e+003;5.842988e-002
2.048118e+003;5.860659e-002
2.050047e+003;5.889952e-002
2.051975e+003;5.871574e-002
2.053904e+003;5.845713e-002
2.055832e+003;5.844762e-002
2.057761e+003;5.841639e-002
2.059689e+003;5.849519e-002
2.061618e+003;5.861967e-002
2.063546e+003;5.841392e-002
2.065475e+003;5.816284e-002
2.067404e+003;5.818318e-002
2.069332e+003;5.823205e-002
2.071260e+003;5.822739e-002
2.073189e+003;5.819076e-002
2.075118e+003;5.842006e-002
2.077046e+003;5.859002e-002
2.078975e+003;5.856435e-002
2.080903e+003;5.873744e-002
2.082832e+003;5.892316e-002
2.084760e+003;5.899379e-002
2.086689e+003;5.910782e-002
2.088617e+003;5.933343e-002
2.090546e+003;5.936731e-002
2.092475e+003;5.915258e-002
2.094403e+003;5.895978e-002
2.096332e+003;5.898756e-002
2.098260e+003;5.904423e-002
2.100189e+003;5.909875e-002
2.102117e+003;5.927190e-002
2.104046e+003;5.935223e-002
2.105974e+003;5.936271e-002
2.107903e+003;5.963251e-002
2.109832e+003;5.981036e-002
2.111760e+003;5.975834e-002
2.113688e+003;5.992647e-002
2.115617e+003;6.003466e-002
2.117546e+003;5.971488e-002
2.119474e+003;5.925944e-002
2.121403e+003;5.924869e-002
2.123331e+003;5.944884e-002
2.125260e+003;5.967645e-002
2.127188e+003;6.002176e-002
2.129117e+003;6.007309e-002
2.131045e+003;6.030003e-002
2.132974e+003;6.044015e-002
2.134903e+003;6.022272e-002
2.136831e+003;6.018158e-002
2.138760e+003;6.037770e-002
2.140688e+003;6.055411e-002
2.142617e+003;6.033194e-002
2.144545e+003;6.011064e-002
2.146474e+003;6.006669e-002
2.148402e+003;5.993419e-002
2.150331e+003;5.968618e-002
2.152260e+003;5.942050e-002
2.154188e+003;5.952700e-002
2.156117e+003;5.975237e-002
2.158045e+003;5.967166e-002
2.159974e+003;5.948144e-002
2.161902e+003;5.944538e-002
2.163831e+003;5.919097e-002
2.165759e+003;5.881969e-002
2.167688e+003;5.892456e-002
2.169616e+003;5.884556e-002
2.171545e+003;5.860223e-002
2.173474e+003;5.825782e-002
2.175402e+003;5.789047e-002
2.177331e+003;5.791875e-002
2.179259e+003;5.800107e-002
2.181188e+003;5.776367e-002
2.183116e+003;5.775928e-002
2.185045e+003;5.785746e-002
2.186973e+003;5.770130e-002
2.188902e+003;5.753532e-002
2.190831e+003;5.715732e-002
2.192759e+003;5.707342e-002
2.194688e+003;5.725091e-002
2.196616e+003;5.710033e-002
2.198545e+003;5.700159e-002
2.200473e+003;5.696540e-002
2.202402e+003;5.672709e-002
2.204330e+003;5.656710e-002
2.206259e+003;5.678282e-002
2.208188e+003;5.686141e-002
2.210116e+003;5.672542e-002
2.212044e+003;5.662825e-002
2.213973e+003;5.659507e-002
2.215902e+003;5.692332e-002
2.217830e+003;5.715350e-002
2.219759e+003;5.705619e-002
2.221687e+003;5.696873e-002
2.223616e+003;5.696676e-002
2.225544e+003;5.674589e-002
2.227473e+003;5.656623e-002
2.229401e+003;5.697016e-002
2.231330e+003;5.719750e-002
2.233259e+003;5.667408e-002
2.235187e+003;5.660692e-002
2.237116e+003;5.699430e-002
2.239044e+003;5.702475e-002
2.240973e+003;5.698414e-002
2.242901e+003;5.699914e-002
2.244830e+003;5.677867e-002
2.246758e+003;5.665467e-002
2.248687e+003;5.667729e-002
2.250615e+003;5.672395e-002
2.252544e+003;5.675121e-002
2.254473e+003;5.671920e-002
2.256401e+003;5.659983e-002
2.258330e+003;5.649222e-002
2.260258e+003;5.661454e-002
2.262187e+003;5.672667e-002
2.264115e+003;5.661949e-002
2.266044e+003;5.636163e-002
2.267972e+003;5.595959e-002
2.269901e+003;5.588358e-002
2.271830e+003;5.598481e-002
2.273758e+003;5.603151e-002
2.275687e+003;5.617041e-002
2.277615e+003;5.587189e-002
2.279544e+003;5.560277e-002
2.281472e+003;5.589767e-002
2.283401e+003;5.611581e-002
2.285329e+003;5.585599e-002
2.287258e+003;5.568228e-002
2.289187e+003;5.577374e-002
2.291115e+003;5.586296e-002
2.293043e+003;5.584446e-002
2.294972e+003;5.578727e-002
2.296901e+003;5.585467e-002
2.298829e+003;5.591214e-002
2.300758e+003;5.600950e-002
2.302686e+003;5.586353e-002
2.304615e+003;5.556304e-002
2.306543e+003;5.542750e-002
2.308472e+003;5.521366e-002
2.310400e+003;5.506276e-002
2.312329e+003;5.491550e-002
2.314258e+003;5.486545e-002
2.316186e+003;5.483718e-002
2.318115e+003;5.484380e-002
2.320043e+003;5.510666e-002
2.321972e+003;5.513604e-002
2.323900e+003;5.487011e-002
2.325829e+003;5.480200e-002
2.327757e+003;5.489459e-002
2.329686e+003;5.515583e-002
2.331615e+003;5.549033e-002
2.333543e+003;5.554866e-002
2.335472e+003;5.521166e-002
2.337400e+003;5.498299e-002
2.339329e+003;5.526479e-002
2.341257e+003;5.561053e-002
2.343186e+003;5.582208e-002
2.345114e+003;5.606951e-002
2.347043e+003;5.626665e-002
2.348971e+003;5.646067e-002
2.350900e+003;5.671002e-002
2.352829e+003;5.678089e-002
2.354757e+003;5.656427e-002
2.356686e+003;5.622788e-002
2.358614e+003;5.599310e-002
2.360543e+003;5.616732e-002
2.362471e+003;5.631474e-002
2.364400e+003;5.624806e-002
2.366328e+003;5.641755e-002
2.368257e+003;5.710562e-002
2.370186e+003;5.739844e-002
2.372114e+003;5.721446e-002
2.374042e+003;5.726682e-002
2.375971e+003;5.745626e-002
2.377900e+003;5.796146e-002
2.379828e+003;5.831314e-002
2.381757e+003;5.815272e-002
2.383685e+003;5.830022e-002
2.385614e+003;5.855298e-002
2.387542e+003;5.860174e-002
2.389471e+003;5.885482e-002
2.391399e+003;5.921683e-002
2.393328e+003;5.948665e-002
2.395257e+003;5.945173e-002
2.397185e+003;5.942794e-002
2.399114e+003;5.932648e-002
2.401042e+003;5.938722e-002
2.402971e+003;5.945944e-002
2.404899e+003;5.954779e-002
2.406828e+003;5.999296e-002
2.408756e+003;6.031545e-002
2.410685e+003;6.049739e-002
2.412614e+003;6.050596e-002
2.414542e+003;6.062016e-002
2.416471e+003;6.085388e-002
2.418399e+003;6.098273e-002
2.420328e+003;6.122553e-002
2.422256e+003;6.164753e-002
2.424185e+003;6.183006e-002
2.426113e+003;6.171474e-002
2.428042e+003;6.155932e-002
2.429970e+003;6.163168e-002
2.431899e+003;6.196444e-002
2.433828e+003;6.227425e-002
2.435756e+003;6.246815e-002
2.437685e+003;6.258184e-002
2.439613e+003;6.251387e-002
2.441542e+003;6.266382e-002
2.443470e+003;6.278238e-002
2.445399e+003;6.290572e-002
2.447327e+003;6.306465e-002
2.449256e+003;6.320278e-002
2.451185e+003;6.313622e-002
2.453113e+003;6.299504e-002
2.455042e+003;6.316565e-002
2.456970e+003;6.355755e-002
2.458899e+003;6.374481e-002
2.460827e+003;6.362613e-002
2.462756e+003;6.392596e-002
2.464684e+003;6.413112e-002
2.466613e+003;6.412524e-002
2.468542e+003;6.404629e-002
2.470470e+003;6.410527e-002
2.472398e+003;6.438556e-002
2.474327e+003;6.457998e-002
2.476256e+003;6.453999e-002
2.478184e+003;6.475979e-002
2.480113e+003;6.498962e-002
2.482041e+003;6.489670e-002
2.483970e+003;6.487311e-002
2.485898e+003;6.510701e-002
2.487827e+003;6.530833e-002
2.489755e+003;6.544538e-002
2.491684e+003;6.550790e-002
2.493613e+003;6.577726e-002
2.495541e+003;6.609347e-002
2.497470e+003;6.620996e-002
2.499398e+003;6.622953e-002
2.501327e+003;6.623396e-002
2.503255e+003;6.631093e-002
2.505184e+003;6.653977e-002
2.507112e+003;6.670873e-002
2.509041e+003;6.687180e-002
2.510969e+003;6.691965e-002
2.512898e+003;6.704355e-002
2.514827e+003;6.735612e-002
2.516755e+003;6.728373e-002
2.518684e+003;6.707402e-002
2.520612e+003;6.717704e-002
2.522541e+003;6.707568e-002
2.524469e+003;6.729200e-002
2.526398e+003;6.787746e-002
2.528326e+003;6.804020e-002
2.530255e+003;6.788208e-002
2.532184e+003;6.790501e-002
2.534112e+003;6.802683e-002
2.536041e+003;6.837218e-002
2.537969e+003;6.850476e-002
2.539898e+003;6.823146e-002
2.541826e+003;6.809346e-002
2.543755e+003;6.835554e-002
2.545683e+003;6.851400e-002
2.547612e+003;6.842923e-002
2.549541e+003;6.845313e-002
2.551469e+003;6.846174e-002
2.553397e+003;6.854600e-002
2.555326e+003;6.854014e-002
2.557255e+003;6.875987e-002
2.559183e+003;6.891428e-002
2.561112e+003;6.867751e-002
2.563040e+003;6.863901e-002
2.564969e+003;6.869296e-002
2.566897e+003;6.872370e-002
2.568826e+003;6.895374e-002
2.570754e+003;6.918643e-002
2.572683e+003;6.945916e-002
2.574612e+003;6.965987e-002
2.576540e+003;6.974129e-002
2.578469e+003;6.962351e-002
2.580397e+003;6.955770e-002
2.582326e+003;6.968252e-002
2.584254e+003;6.973340e-002
2.586183e+003;6.982374e-002
2.588111e+003;6.982071e-002
2.590040e+003;6.978258e-002
2.591969e+003;6.996113e-002
2.593897e+003;7.017531e-002
2.595826e+003;7.011538e-002
2.597754e+003;7.014798e-002
2.599683e+003;7.033572e-002
2.601611e+003;7.056767e-002
2.603540e+003;7.093341e-002
2.605468e+003;7.129943e-002
2.607397e+003;7.142740e-002
2.609325e+003;7.152205e-002
2.611254e+003;7.180364e-002
2.613183e+003;7.172500e-002
2.615111e+003;7.155108e-002
2.617040e+003;7.166193e-002
2.618968e+003;7.209352e-002
2.620897e+003;7.216430e-002
2.622825e+003;7.224631e-002
2.624754e+003;7.269831e-002
2.626682e+003;7.309259e-002
2.628611e+003;7.318991e-002
2.630540e+003;7.337678e-002
2.632468e+003;7.364306e-002
2.634396e+003;7.378998e-002
2.636325e+003;7.356396e-002
2.638254e+003;7.351325e-002
2.640182e+003;7.391331e-002
2.642111e+003;7.398661e-002
2.644039e+003;7.399852e-002
2.645968e+003;7.433838e-002
2.647896e+003;7.469843e-002
2.649825e+003;7.479320e-002
2.651753e+003;7.454105e-002
2.653682e+003;7.455997e-002
2.655611e+003;7.507090e-002
2.657539e+003;7.571172e-002
2.659468e+003;7.602190e-002
2.661396e+003;7.590177e-002
2.663325e+003;7.590390e-002
2.665253e+003;7.587048e-002
2.667182e+003;7.575728e-002
2.669110e+003;7.604883e-002
2.671039e+003;7.648844e-002
2.672968e+003;7.667274e-002
2.674896e+003;7.648923e-002
2.676825e+003;7.652413e-002
2.678753e+003;7.672730e-002
2.680682e+003;7.678507e-002
2.682610e+003;7.690316e-002
2.684539e+003;7.735338e-002
2.686467e+003;7.778128e-002
2.688396e+003;7.788447e-002
2.690324e+003;7.784878e-002
2.692253e+003;7.794888e-002
2.694182e+003;7.839591e-002
2.696110e+003;7.868709e-002
2.698039e+003;7.885674e-002
2.699967e+003;7.911738e-002
2.701896e+003;7.914136e-002
2.703824e+003;7.944871e-002
2.705753e+003;7.954014e-002
2.707681e+003;7.936632e-002
2.709610e+003;7.962384e-002
2.711539e+003;8.009160e-002
2.713467e+003;8.048663e-002
2.715396e+003;8.056680e-002
2.717324e+003;8.050733e-002
2.719253e+003;8.077910e-002
2.721181e+003;8.125421e-002
2.723110e+003;8.097165e-002
2.725038e+003;8.068536e-002
2.726967e+003;8.081409e-002
2.728896e+003;8.086088e-002
2.730824e+003;8.120224e-002
2.732752e+003;8.154616e-002
2.734681e+003;8.151094e-002
2.736610e+003;8.128601e-002
2.738538e+003;8.127830e-002
2.740467e+003;8.161624e-002
2.742395e+003;8.191395e-002
2.744324e+003;8.208764e-002
2.746252e+003;8.225743e-002
2.748181e+003;8.221266e-002
2.750109e+003;8.227600e-002
2.752038e+003;8.243750e-002
2.753967e+003;8.243442e-002
2.755895e+003;8.246341e-002
2.757824e+003;8.254968e-002
2.759752e+003;8.261668e-002
2.761681e+003;8.248702e-002
2.763609e+003;8.236580e-002
2.765538e+003;8.252359e-002
2.767466e+003;8.271171e-002
2.769395e+003;8.307464e-002
2.771323e+003;8.345867e-002
2.773252e+003;8.392688e-002
2.775181e+003;8.403888e-002
2.777109e+003;8.412164e-002
2.779038e+003;8.432184e-002
2.780966e+003;8.421978e-002
2.782895e+003;8.427195e-002
2.784823e+003;8.449943e-002
2.786752e+003;8.469038e-002
2.788680e+003;8.472992e-002
2.790609e+003;8.492126e-002
2.792538e+003;8.515485e-002
2.794466e+003;8.532358e-002
2.796395e+003;8.550489e-002
2.798323e+003;8.579942e-002
2.800252e+003;8.619116e-002
2.802180e+003;8.679147e-002
2.804109e+003;8.728411e-002
2.806037e+003;8.742490e-002
2.807966e+003;8.782886e-002
2.809895e+003;8.812980e-002
2.811823e+003;8.825856e-002
2.813751e+003;8.881019e-002
2.815680e+003;8.912093e-002
2.817609e+003;8.940486e-002
2.819537e+003;9.014058e-002
2.821466e+003;9.033076e-002
2.823394e+003;9.046169e-002
2.825323e+003;9.116415e-002
2.827251e+003;9.211414e-002
2.829180e+003;9.280491e-002
2.831108e+003;9.323201e-002
2.833037e+003;9.353393e-002
2.834966e+003;9.405683e-002
2.836894e+003;9.501640e-002
2.838823e+003;9.569833e-002
2.840751e+003;9.634375e-002
2.842680e+003;9.736361e-002
2.844608e+003;9.851547e-002
2.846537e+003;9.930478e-002
2.848465e+003;1.000487e-001
2.850394e+003;1.005193e-001
2.852323e+003;1.008474e-001
2.854251e+003;1.018340e-001
2.856180e+003;1.029451e-001
2.858108e+003;1.036596e-001
2.860037e+003;1.042852e-001
2.861965e+003;1.049400e-001
2.863894e+003;1.053729e-001
2.865822e+003;1.055502e-001
2.867751e+003;1.059555e-001
2.869679e+003;1.067417e-001
2.871608e+003;1.074304e-001
2.873536e+003;1.078787e-001
2.875465e+003;1.082295e-001
2.877394e+003;1.085748e-001
2.879322e+003;1.091001e-001
2.881251e+003;1.095891e-001
2.883179e+003;1.098547e-001
2.885108e+003;1.101093e-001
2.887036e+003;1.105074e-001
2.888965e+003;1.110541e-001
2.890893e+003;1.111348e-001
2.892822e+003;1.111414e-001
2.894750e+003;1.116096e-001
2.896679e+003;1.115829e-001
2.898608e+003;1.111593e-001
2.900536e+003;1.111437e-001
2.902465e+003;1.114805e-001
2.904393e+003;1.114534e-001
2.906322e+003;1.111590e-001
2.908250e+003;1.111405e-001
2.910179e+003;1.107425e-001
2.912107e+003;1.099998e-001
2.914036e+003;1.096141e-001
2.915965e+003;1.098523e-001
2.917893e+003;1.100650e-001
2.919822e+003;1.096898e-001
2.921750e+003;1.094064e-001
2.923679e+003;1.094669e-001
2.925607e+003;1.091770e-001
2.927536e+003;1.085386e-001
2.929464e+003;1.082247e-001
2.931393e+003;1.079587e-001
2.933322e+003;1.074502e-001
2.935250e+003;1.069205e-001
2.937178e+003;1.063949e-001
2.939107e+003;1.061111e-001
2.941036e+003;1.055410e-001
2.942964e+003;1.045778e-001
2.944893e+003;1.038470e-001
2.946821e+003;1.032439e-001
2.948750e+003;1.024094e-001
2.950678e+003;1.018588e-001
2.952607e+003;1.013747e-001
2.954535e+003;1.005827e-001
2.956464e+003;9.947540e-002
2.958393e+003;9.849837e-002
2.960321e+003;9.784764e-002
2.962250e+003;9.758718e-002
2.964178e+003;9.740959e-002
2.966107e+003;9.701821e-002
2.968035e+003;9.658740e-002
2.969964e+003;9.579504e-002
2.971892e+003;9.484303e-002
2.973821e+003;9.451207e-002
2.975750e+003;9.401285e-002
2.977678e+003;9.293080e-002
2.979607e+003;9.228077e-002
2.981535e+003;9.219095e-002
2.983464e+003;9.184526e-002
2.985392e+003;9.095905e-002
2.987321e+003;9.028524e-002
2.989249e+003;9.019600e-002
2.991178e+003;8.975386e-002
2.993106e+003;8.907167e-002
2.995035e+003;8.909591e-002
2.996964e+003;8.940787e-002
2.998892e+003;8.913590e-002
3.000821e+003;8.879901e-002
3.002749e+003;8.892172e-002
3.004678e+003;8.923151e-002
3.006606e+003;8.930419e-002
3.008535e+003;8.889285e-002
3.010463e+003;8.852141e-002
3.012392e+003;8.852519e-002
3.014321e+003;8.911540e-002
3.016249e+003;8.933622e-002
3.018177e+003;8.904181e-002
3.020106e+003;8.923599e-002
3.022035e+003;8.923513e-002
3.023963e+003;8.937310e-002
3.025892e+003;8.979885e-002
3.027820e+003;8.988670e-002
3.029749e+003;9.008276e-002
3.031677e+003;9.035753e-002
3.033606e+003;9.066423e-002
3.035534e+003;9.064782e-002
3.037463e+003;9.061418e-002
3.039392e+003;9.074095e-002
3.041320e+003;9.093164e-002
3.043249e+003;9.148083e-002
3.045177e+003;9.219316e-002
3.047106e+003;9.234781e-002
3.049034e+003;9.220971e-002
3.050963e+003;9.234638e-002
3.052891e+003;9.282177e-002
3.054820e+003;9.340039e-002
3.056749e+003;9.369481e-002
3.058677e+003;9.388722e-002
3.060606e+003;9.434343e-002
3.062534e+003;9.480127e-002
3.064463e+003;9.494275e-002
3.066391e+003;9.502935e-002
3.068320e+003;9.544605e-002
3.070248e+003;9.573080e-002
3.072177e+003;9.582412e-002
3.074105e+003;9.591518e-002
3.076034e+003;9.581015e-002
3.077963e+003;9.623853e-002
3.079891e+003;9.692141e-002
3.081820e+003;9.732339e-002
3.083748e+003;9.752736e-002
3.085677e+003;9.785171e-002
3.087605e+003;9.831763e-002
3.089534e+003;9.860548e-002
3.091462e+003;9.889209e-002
3.093391e+003;9.954832e-002
3.095320e+003;1.001032e-001
3.097248e+003;9.999517e-002
3.099177e+003;1.001296e-001
3.101105e+003;1.006112e-001
3.103034e+003;1.011695e-001
3.104962e+003;1.014693e-001
3.106891e+003;1.018568e-001
3.108819e+003;1.021049e-001
3.110748e+003;1.022735e-001
3.112677e+003;1.025234e-001
3.114605e+003;1.029393e-001
3.116533e+003;1.036716e-001
3.118462e+003;1.044259e-001
3.120391e+003;1.049337e-001
3.122319e+003;1.053068e-001
3.124248e+003;1.057633e-001
3.126176e+003;1.059524e-001
3.128105e+003;1.062262e-001
3.130033e+003;1.067459e-001
3.131962e+003;1.071314e-001
3.133890e+003;1.074105e-001
3.135819e+003;1.078839e-001
3.137748e+003;1.081997e-001
3.139676e+003;1.087645e-001
3.141605e+003;1.092582e-001
3.143533e+003;1.094812e-001
3.145462e+003;1.099832e-001
3.147390e+003;1.103281e-001
3.149319e+003;1.108866e-001
3.151247e+003;1.116223e-001
3.153176e+003;1.121703e-001
3.155104e+003;1.123899e-001
3.157033e+003;1.124073e-001
3.158962e+003;1.124875e-001
3.160890e+003;1.131331e-001
3.162819e+003;1.139752e-001
3.164747e+003;1.143732e-001
3.166676e+003;1.152659e-001
3.168604e+003;1.159613e-001
3.170533e+003;1.161099e-001
3.172461e+003;1.162504e-001
3.174390e+003;1.168665e-001
3.176319e+003;1.176380e-001
3.178247e+003;1.180301e-001
3.180176e+003;1.186809e-001
3.182104e+003;1.192754e-001
3.184033e+003;1.198358e-001
3.185961e+003;1.204574e-001
3.187890e+003;1.208936e-001
3.189818e+003;1.211098e-001
3.191747e+003;1.215872e-001
3.193676e+003;1.223143e-001
3.195604e+003;1.229829e-001
3.197532e+003;1.233475e-001
3.199461e+003;1.233907e-001
3.201390e+003;1.239753e-001
3.203318e+003;1.247582e-001
3.205247e+003;1.254131e-001
3.207175e+003;1.260930e-001
3.209104e+003;1.263846e-001
3.211032e+003;1.267834e-001
3.212961e+003;1.271545e-001
3.214889e+003;1.274357e-001
3.216818e+003;1.281039e-001
3.218747e+003;1.292354e-001
3.220675e+003;1.302697e-001
3.222604e+003;1.306163e-001
3.224532e+003;1.305187e-001
3.226461e+003;1.311551e-001
3.228389e+003;1.318469e-001
3.230318e+003;1.326363e-001
3.232246e+003;1.333712e-001
3.234175e+003;1.336442e-001
3.236104e+003;1.338845e-001
3.238032e+003;1.346598e-001
3.239961e+003;1.352095e-001
3.241889e+003;1.356693e-001
3.243818e+003;1.363806e-001
3.245746e+003;1.372436e-001
3.247675e+003;1.379746e-001
3.249603e+003;1.381456e-001
3.251532e+003;1.382812e-001
3.253460e+003;1.388035e-001
3.255389e+003;1.397591e-001
3.257318e+003;1.403470e-001
3.259246e+003;1.407034e-001
3.261175e+003;1.411151e-001
3.263103e+003;1.414618e-001
3.265032e+003;1.420306e-001
3.266960e+003;1.426737e-001
3.268889e+003;1.424035e-001
3.270817e+003;1.421656e-001
3.272746e+003;1.429174e-001
3.274675e+003;1.442660e-001
3.276603e+003;1.447517e-001
3.278531e+003;1.448846e-001
3.280460e+003;1.450687e-001
3.282389e+003;1.447675e-001
3.284317e+003;1.447199e-001
3.286246e+003;1.451889e-001
3.288174e+003;1.461375e-001
3.290103e+003;1.464876e-001
3.292031e+003;1.463342e-001
3.293960e+003;1.460497e-001
3.295888e+003;1.457373e-001
3.297817e+003;1.457975e-001
3.299746e+003;1.458400e-001
3.301674e+003;1.459190e-001
3.303603e+003;1.458288e-001
3.305531e+003;1.458387e-001
3.307460e+003;1.464361e-001
3.309388e+003;1.473366e-001
3.311317e+003;1.473374e-001
3.313245e+003;1.468614e-001
3.315174e+003;1.472489e-001
3.317103e+003;1.474854e-001
3.319031e+003;1.472990e-001
3.320960e+003;1.473743e-001
3.322888e+003;1.474561e-001
3.324817e+003;1.474348e-001
3.326745e+003;1.474796e-001
3.328674e+003;1.474386e-001
3.330602e+003;1.473315e-001
3.332531e+003;1.475325e-001
3.334459e+003;1.478614e-001
3.336388e+003;1.476281e-001
3.338317e+003;1.472562e-001
3.340245e+003;1.471011e-001
3.342174e+003;1.469987e-001
3.344102e+003;1.472073e-001
3.346031e+003;1.466577e-001
3.347959e+003;1.460655e-001
3.349888e+003;1.460650e-001
3.351816e+003;1.462899e-001
3.353745e+003;1.460390e-001
3.355674e+003;1.453359e-001
3.357602e+003;1.444370e-001
3.359531e+003;1.439078e-001
3.361459e+003;1.438703e-001
3.363388e+003;1.436961e-001
3.365316e+003;1.434280e-001
3.367245e+003;1.431362e-001
3.369173e+003;1.429403e-001
3.371102e+003;1.429505e-001
3.373031e+003;1.424267e-001
3.374959e+003;1.414181e-001
3.376887e+003;1.409196e-001
3.378816e+003;1.408694e-001
3.380745e+003;1.406931e-001
3.382673e+003;1.405607e-001
3.384602e+003;1.406590e-001
3.386530e+003;1.407163e-001
3.388459e+003;1.402063e-001
3.390387e+003;1.396619e-001
3.392316e+003;1.392441e-001
3.394244e+003;1.386998e-001
3.396173e+003;1.382195e-001
3.398102e+003;1.376841e-001
3.400030e+003;1.368213e-001
3.401959e+003;1.362725e-001
3.403887e+003;1.362101e-001
3.405816e+003;1.361504e-001
3.407744e+003;1.354926e-001
3.409673e+003;1.345962e-001
3.411601e+003;1.344552e-001
3.413530e+003;1.345533e-001
3.415458e+003;1.338775e-001
3.417387e+003;1.327547e-001
3.419316e+003;1.320366e-001
3.421244e+003;1.315780e-001
3.423173e+003;1.310687e-001
3.425101e+003;1.307905e-001
3.427030e+003;1.299179e-001
3.428958e+003;1.286193e-001
3.430887e+003;1.281880e-001
3.432815e+003;1.279191e-001
3.434744e+003;1.272459e-001
3.436673e+003;1.265898e-001
3.438601e+003;1.259734e-001
3.440530e+003;1.252134e-001
3.442458e+003;1.246456e-001
3.444387e+003;1.238630e-001
3.446315e+003;1.232394e-001
3.448244e+003;1.228660e-001
3.450172e+003;1.224521e-001
3.452101e+003;1.216435e-001
3.454030e+003;1.207112e-001
3.455958e+003;1.199024e-001
3.457886e+003;1.191873e-001
3.459815e+003;1.186191e-001
3.461744e+003;1.181738e-001
3.463672e+003;1.173405e-001
3.465601e+003;1.164365e-001
3.467529e+003;1.162590e-001
3.469458e+003;1.158537e-001
3.471386e+003;1.146261e-001
3.473315e+003;1.137582e-001
3.475243e+003;1.130425e-001
3.477172e+003;1.125547e-001
3.479101e+003;1.124106e-001
3.481029e+003;1.118001e-001
3.482958e+003;1.105092e-001
3.484886e+003;1.096541e-001
3.486815e+003;1.091880e-001
3.488743e+003;1.086506e-001
3.490672e+003;1.079391e-001
3.492600e+003;1.069899e-001
3.494529e+003;1.060867e-001
3.496458e+003;1.056255e-001
3.498386e+003;1.052626e-001
3.500315e+003;1.048207e-001
3.502243e+003;1.043933e-001
3.504172e+003;1.037767e-001
3.506100e+003;1.030335e-001
3.508029e+003;1.020820e-001
3.509957e+003;1.011588e-001
3.511886e+003;1.003437e-001
3.513814e+003;9.988589e-002
3.515743e+003;9.939000e-002
3.517672e+003;9.825016e-002
3.519600e+003;9.749763e-002
3.521529e+003;9.737621e-002
3.523457e+003;9.656924e-002
3.525386e+003;9.534179e-002
3.527314e+003;9.460101e-002
3.529243e+003;9.434236e-002
3.531171e+003;9.410185e-002
3.533100e+003;9.310554e-002
3.535029e+003;9.221935e-002
3.536957e+003;9.153474e-002
3.538885e+003;9.058414e-002
3.540814e+003;8.976576e-002
3.542743e+003;8.901940e-002
3.544671e+003;8.792816e-002
3.546600e+003;8.702954e-002
3.548528e+003;8.686128e-002
3.550457e+003;8.677556e-002
3.552385e+003;8.621953e-002
3.554314e+003;8.525185e-002
3.556242e+003;8.468712e-002
3.558171e+003;8.407684e-002
3.560100e+003;8.287882e-002
3.562028e+003;8.225691e-002
3.563957e+003;8.164087e-002
3.565885e+003;8.073524e-002
3.567814e+003;8.068580e-002
3.569742e+003;8.064439e-002
3.571671e+003;7.968621e-002
3.573599e+003;7.880419e-002
3.575528e+003;7.840853e-002
3.577457e+003;7.808502e-002
3.579385e+003;7.760484e-002
3.581314e+003;7.694014e-002
3.583242e+003;7.610489e-002
3.585171e+003;7.528105e-002
3.587099e+003;7.468493e-002
3.589028e+003;7.397833e-002
3.590956e+003;7.336364e-002
3.592885e+003;7.284440e-002
3.594813e+003;7.227436e-002
3.596742e+003;7.191812e-002
3.598671e+003;7.134309e-002
3.600599e+003;7.097403e-002
3.602528e+003;7.100505e-002
3.604456e+003;7.046543e-002
3.606385e+003;6.991933e-002
3.608313e+003;6.898205e-002
3.610242e+003;6.813376e-002
3.612170e+003;6.791795e-002
3.614099e+003;6.786096e-002
3.616028e+003;6.755295e-002
3.617956e+003;6.666666e-002
3.619885e+003;6.576446e-002
3.621813e+003;6.533059e-002
3.623742e+003;6.521326e-002
3.625670e+003;6.477664e-002
3.627599e+003;6.384758e-002
3.629527e+003;6.305695e-002
3.631456e+003;6.287167e-002
3.633385e+003;6.247251e-002
3.635313e+003;6.234788e-002
3.637241e+003;6.204272e-002
3.639170e+003;6.139281e-002
3.641099e+003;6.073226e-002
3.643027e+003;5.997040e-002
3.644956e+003;5.976553e-002
3.646884e+003;5.925944e-002
3.648813e+003;5.837734e-002
3.650741e+003;5.757405e-002
3.652670e+003;5.717198e-002
3.654598e+003;5.635069e-002
3.656527e+003;5.560145e-002
3.658456e+003;5.518882e-002
3.660384e+003;5.413254e-002
3.662313e+003;5.325191e-002
3.664241e+003;5.302217e-002
3.666170e+003;5.290819e-002
3.668098e+003;5.242607e-002
3.670027e+003;5.095227e-002
3.671955e+003;4.989266e-002
3.673884e+003;4.948051e-002
3.675813e+003;4.896186e-002
3.677741e+003;4.842360e-002
3.679669e+003;4.800496e-002
3.681598e+003;4.783166e-002
3.683527e+003;4.754436e-002
3.685455e+003;4.705360e-002
3.687384e+003;4.662013e-002
3.689312e+003;4.630211e-002
3.691241e+003;4.608722e-002
3.693169e+003;4.608981e-002
3.695098e+003;4.570396e-002
3.697026e+003;4.533108e-002
3.698955e+003;4.556153e-002
3.700884e+003;4.528309e-002
3.702812e+003;4.465061e-002
3.704741e+003;4.425867e-002
3.706669e+003;4.388009e-002
3.708598e+003;4.378985e-002
3.710526e+003;4.419402e-002
3.712455e+003;4.400742e-002
3.714383e+003;4.304611e-002
3.716312e+003;4.280430e-002
3.718240e+003;4.281132e-002
3.720169e+003;4.233107e-002
3.722098e+003;4.214289e-002
3.724026e+003;4.249959e-002
3.725955e+003;4.235452e-002
3.727883e+003;4.196720e-002
3.729812e+003;4.183934e-002
3.731740e+003;4.188170e-002
3.733669e+003;4.185933e-002
3.735597e+003;4.154391e-002
3.737526e+003;4.157942e-002
3.739455e+003;4.223001e-002
3.741383e+003;4.277597e-002
3.743312e+003;4.215494e-002
3.745240e+003;4.148886e-002
3.747169e+003;4.153990e-002
3.749097e+003;4.119870e-002
3.751026e+003;4.116944e-002
3.752954e+003;4.159969e-002
3.754883e+003;4.156137e-002
3.756812e+003;4.151241e-002
3.758740e+003;4.178217e-002
3.760668e+003;4.171388e-002
3.762597e+003;4.165637e-002
3.764526e+003;4.180650e-002
3.766454e+003;4.157702e-002
3.768383e+003;4.144577e-002
3.770311e+003;4.182124e-002
3.772240e+003;4.174117e-002
3.774168e+003;4.140068e-002
3.776097e+003;4.099597e-002
3.778025e+003;4.118103e-002
3.779954e+003;4.150577e-002
3.781883e+003;4.175849e-002
3.783811e+003;4.241012e-002
3.785740e+003;4.260674e-002
3.787668e+003;4.197318e-002
3.789597e+003;4.167241e-002
3.791525e+003;4.144402e-002
3.793454e+003;4.126694e-002
3.795382e+003;4.111207e-002
3.797311e+003;4.069809e-002
3.799240e+003;4.091532e-002
3.801168e+003;4.116518e-002
3.803097e+003;4.111611e-002
3.805025e+003;4.133311e-002
3.806954e+003;4.140345e-002
3.808882e+003;4.174037e-002
3.810811e+003;4.175915e-002
3.812739e+003;4.136897e-002
3.814668e+003;4.122689e-002
3.816596e+003;4.133253e-002
3.818525e+003;4.146210e-002
3.820454e+003;4.127109e-002
3.822382e+003;4.156841e-002
3.824311e+003;4.202278e-002
3.826239e+003;4.192800e-002
3.828168e+003;4.190512e-002
3.830096e+003;4.194767e-002
3.832025e+003;4.168908e-002
3.833953e+003;4.178936e-002
3.835882e+003;4.195253e-002
3.837811e+003;4.185265e-002
3.839739e+003;4.202235e-002
3.841667e+003;4.215377e-002
3.843596e+003;4.226708e-002
3.845525e+003;4.222585e-002
3.847453e+003;4.194815e-002
3.849382e+003;4.178395e-002
3.851310e+003;4.147559e-002
3.853239e+003;4.141431e-002
3.855167e+003;4.175784e-002
3.857096e+003;4.254089e-002
3.859024e+003;4.308829e-002
3.860953e+003;4.310879e-002
3.862882e+003;4.280971e-002
3.864810e+003;4.236621e-002
3.866739e+003;4.239119e-002
3.868667e+003;4.260649e-002
3.870596e+003;4.290707e-002
3.872524e+003;4.296830e-002
3.874453e+003;4.294057e-002
3.876381e+003;4.284830e-002
3.878310e+003;4.253011e-002
3.880239e+003;4.274854e-002
3.882167e+003;4.319091e-002
3.884096e+003;4.334772e-002
3.886024e+003;4.358331e-002
3.887953e+003;4.398091e-002
3.889881e+003;4.404196e-002
3.891810e+003;4.412048e-002
3.893738e+003;4.427371e-002
3.895667e+003;4.391349e-002
3.897595e+003;4.393622e-002
3.899524e+003;4.419469e-002
3.901453e+003;4.420166e-002
3.903381e+003;4.434159e-002
3.905310e+003;4.475575e-002
3.907238e+003;4.509833e-002
3.909167e+003;4.540130e-002
3.911095e+003;4.538530e-002
3.913024e+003;4.534307e-002
3.914952e+003;4.521057e-002
3.916881e+003;4.536786e-002
3.918810e+003;4.558147e-002
3.920738e+003;4.530442e-002
3.922667e+003;4.518980e-002
3.924595e+003;4.513954e-002
3.926524e+003;4.508330e-002
3.928452e+003;4.511855e-002
3.930381e+003;4.497888e-002
3.932309e+003;4.467763e-002
3.934238e+003;4.501423e-002
3.936167e+003;4.576463e-002
3.938095e+003;4.602316e-002
3.940023e+003;4.578010e-002
3.941952e+003;4.549824e-002
3.943881e+003;4.568055e-002
3.945809e+003;4.584784e-002
3.947738e+003;4.604593e-002
3.949666e+003;4.571920e-002
3.951595e+003;4.604228e-002
3.953523e+003;4.672350e-002
3.955452e+003;4.641430e-002
3.957380e+003;4.642488e-002
3.959309e+003;4.636261e-002
3.961238e+003;4.616280e-002
3.963166e+003;4.657726e-002
3.965095e+003;4.681708e-002
3.967023e+003;4.630049e-002
3.968952e+003;4.596673e-002
3.970880e+003;4.616541e-002
3.972809e+003;4.674505e-002
3.974737e+003;4.729620e-002
3.976666e+003;4.782001e-002
3.978594e+003;4.796663e-002
3.980523e+003;4.744915e-002
3.982452e+003;4.638067e-002
3.984380e+003;4.587948e-002
3.986309e+003;4.619619e-002
3.988237e+003;4.682842e-002
3.990166e+003;4.708355e-002
3.992094e+003;4.694557e-002
3.994023e+003;4.687204e-002
3.995951e+003;4.699294e-002
3.997880e+003;4.732904e-002
3.999809e+003;4.755763e-002
4.001737e+003;0.000000e+000
