3.992094e+002;0.000000e+000
4.011380e+002;0.000000e+000
4.030665e+002;0.000000e+000
4.049951e+002;0.000000e+000
4.069236e+002;0.000000e+000
4.088522e+002;0.000000e+000
4.107807e+002;0.000000e+000
4.127093e+002;0.000000e+000
4.146378e+002;0.000000e+000
4.165664e+002;0.000000e+000
4.184949e+002;0.000000e+000
4.204235e+002;0.000000e+000
4.223520e+002;0.000000e+000
4.242806e+002;0.000000e+000
4.262091e+002;0.000000e+000
4.281377e+002;0.000000e+000
4.300662e+002;0.000000e+000
4.319948e+002;0.000000e+000
4.339233e+002;0.000000e+000
4.358519e+002;0.000000e+000
4.377804e+002;0.000000e+000
4.397090e+002;0.000000e+000
4.416375e+002;0.000000e+000
4.435660e+002;0.000000e+000
4.454946e+002;0.000000e+000
4.474232e+002;0.000000e+000
4.493517e+002;0.000000e+000
4.512802e+002;0.000000e+000
4.532088e+002;0.000000e+000
4.551373e+002;0.000000e+000
4.570659e+002;0.000000e+000
4.589944e+002;0.000000e+000
4.609230e+002;0.000000e+000
4.628515e+002;0.000000e+000
4.647801e+002;0.000000e+000
4.667086e+002;0.000000e+000
4.686372e+002;0.000000e+000
4.705657e+002;0.000000e+000
4.724943e+002;0.000000e+000
4.744228e+002;0.000000e+000
4.763513e+002;0.000000e+000
4.782799e+002;0.000000e+000
4.802085e+002;0.000000e+000
4.821370e+002;0.000000e+000
4.840656e+002;0.000000e+000
4.859941e+002;0.000000e+000
4.879226e+002;0.000000e+000
4.898512e+002;0.000000e+000
4.917798e+002;0.000000e+000
4.937083e+002;0.000000e+000
4.956368e+002;0.000000e+000
4.975654e+002;0.000000e+000
4.994939e+002;0.000000e+000
5.014225e+002;0.000000e+000
5.033510e+002;0.000000e+000
5.052796e+002;0.000000e+000
5.072081e+002;0.000000e+000
5.091367e+002;0.000000e+000
5.110652e+002;0.000000e+000
5.129938e+002;0.000000e+000
5.149223e+002;0.000000e+000
5.168509e+002;0.000000e+000
5.187794e+002;0.000000e+000
5.207079e+002;0.000000e+000
5.226365e+002;0.000000e+000
5.245651e+002;0.000000e+000
5.264936e+002;0.000000e+000
5.284222e+002;0.000000e+000
5.303507e+002;0.000000e+000
5.322792e+002;0.000000e+000
5.342078e+002;0.000000e+000
5.361364e+002;0.000000e+000
5.380649e+002;0.000000e+000
5.399935e+002;0.000000e+000
5.419220e+002;0.000000e+000
5.438505e+002;0.000000e+000
5.457791e+002;0.000000e+000
5.477076e+002;0.000000e+000
5.496362e+002;0.000000e+000
5.515648e+002;0.000000e+000
5.534933e+002;0.000000e+000
5.554218e+002;0.000000e+000
5.573504e+002;0.000000e+000
5.592789e+002;0.000000e+000
5.612075e+002;0.000000e+000
5.631360e+002;0.000000e+000
5.650646e+002;0.000000e+000
5.669931e+002;0.000000e+000
5.689217e+002;0.000000e+000
5.708502e+002;0.000000e+000
5.727787e+002;0.000000e+000
5.747073e+002;0.000000e+000
5.766359e+002;0.000000e+000
5.785644e+002;0.000000e+000
5.804930e+002;0.000000e+000
5.824215e+002;0.000000e+000
5.843500e+002;0.000000e+000
5.862786e+002;0.000000e+000
5.882072e+002;0.000000e+000
5.901357e+002;0.000000e+000
5.920643e+002;0.000000e+000
5.939928e+002;0.000000e+000
5.959213e+002;0.000000e+000
5.978499e+002;0.000000e+000
5.997784e+002;2.222702e-001
6.017070e+002;2.196460e-001
6.036355e+002;2.237118e-001
6.055641e+002;2.269677e-001
6.074926e+002;2.300338e-001
6.094211e+002;2.299200e-001
6.113497e+002;2.279591e-001
6.132783e+002;2.234495e-001
6.152068e+002;2.178975e-001
6.171354e+002;2.178601e-001
6.190639e+002;2.191049e-001
6.209924e+002;2.175044e-001
6.229210e+002;2.158974e-001
6.248495e+002;2.125866e-001
6.267781e+002;2.101679e-001
6.287067e+002;2.054034e-001
6.306352e+002;2.005906e-001
6.325637e+002;1.996850e-001
6.344923e+002;1.984037e-001
6.364208e+002;1.967356e-001
6.383494e+002;1.960707e-001
6.402780e+002;1.960089e-001
6.422065e+002;1.960686e-001
6.441350e+002;1.959899e-001
6.460636e+002;1.943154e-001
6.479921e+002;1.967884e-001
6.499207e+002;2.000604e-001
6.518492e+002;1.987098e-001
6.537778e+002;1.967415e-001
6.557063e+002;1.961829e-001
6.576349e+002;1.983160e-001
6.595634e+002;2.001462e-001
6.614919e+002;2.015164e-001
6.634205e+002;2.047047e-001
6.653491e+002;2.041065e-001
6.672776e+002;2.008678e-001
6.692062e+002;1.988674e-001
6.711347e+002;1.961622e-001
6.730632e+002;1.915598e-001
6.749918e+002;1.871615e-001
6.769203e+002;1.838693e-001
6.788489e+002;1.796302e-001
6.807775e+002;1.752887e-001
6.827060e+002;1.718175e-001
6.846345e+002;1.705925e-001
6.865631e+002;1.710885e-001
6.884916e+002;1.711176e-001
6.904202e+002;1.687423e-001
6.923488e+002;1.659777e-001
6.942773e+002;1.658087e-001
6.962058e+002;1.666701e-001
6.981344e+002;1.660765e-001
7.000629e+002;1.648440e-001
7.019915e+002;1.648666e-001
7.039200e+002;1.654030e-001
7.058486e+002;1.643054e-001
7.077771e+002;1.619706e-001
7.097057e+002;1.602180e-001
7.116342e+002;1.597112e-001
7.135627e+002;1.594088e-001
7.154913e+002;1.576746e-001
7.174199e+002;1.555493e-001
7.193484e+002;1.547459e-001
7.212770e+002;1.539485e-001
7.232055e+002;1.511097e-001
7.251340e+002;1.488343e-001
7.270626e+002;1.467658e-001
7.289911e+002;1.437381e-001
7.309197e+002;1.411505e-001
7.328483e+002;1.402374e-001
7.347768e+002;1.392908e-001
7.367053e+002;1.374804e-001
7.386339e+002;1.353871e-001
7.405624e+002;1.336915e-001
7.424910e+002;1.331701e-001
7.444196e+002;1.323808e-001
7.463481e+002;1.313524e-001
7.482766e+002;1.317484e-001
7.502052e+002;1.312912e-001
7.521337e+002;1.306187e-001
7.540623e+002;1.292215e-001
7.559908e+002;1.266952e-001
7.579194e+002;1.250088e-001
7.598479e+002;1.249577e-001
7.617765e+002;1.252862e-001
7.637050e+002;1.257751e-001
7.656335e+002;1.258921e-001
7.675621e+002;1.249510e-001
7.694907e+002;1.235938e-001
7.714192e+002;1.226487e-001
7.733478e+002;1.221549e-001
7.752763e+002;1.207478e-001
7.772048e+002;1.190169e-001
7.791334e+002;1.186023e-001
7.810620e+002;1.181345e-001
7.829905e+002;1.175332e-001
7.849191e+002;1.174748e-001
7.868476e+002;1.168220e-001
7.887761e+002;1.163157e-001
7.907047e+002;1.155449e-001
7.926332e+002;1.145324e-001
7.945618e+002;1.146910e-001
7.964903e+002;1.153351e-001
7.984189e+002;1.163795e-001
8.003474e+002;1.166385e-001
8.022759e+002;1.162627e-001
8.042045e+002;1.169187e-001
8.061331e+002;1.179795e-001
8.080616e+002;1.179977e-001
8.099902e+002;1.175793e-001
8.119187e+002;1.170766e-001
8.138472e+002;1.171320e-001
8.157758e+002;1.185352e-001
8.177043e+002;1.196226e-001
8.196329e+002;1.205487e-001
8.215615e+002;1.213304e-001
8.234900e+002;1.224106e-001
8.254185e+002;1.229411e-001
8.273471e+002;1.227524e-001
8.292756e+002;1.226700e-001
8.312042e+002;1.229445e-001
8.331328e+002;1.232988e-001
8.350613e+002;1.230269e-001
8.369898e+002;1.226949e-001
8.389184e+002;1.224399e-001
8.408469e+002;1.218926e-001
8.427755e+002;1.210817e-001
8.447040e+002;1.204284e-001
8.466326e+002;1.199118e-001
8.485611e+002;1.197827e-001
8.504897e+002;1.198013e-001
8.524182e+002;1.193512e-001
8.543467e+002;1.188950e-001
8.562753e+002;1.190425e-001
8.582039e+002;1.197278e-001
8.601324e+002;1.212730e-001
8.620610e+002;1.230565e-001
8.639895e+002;1.246102e-001
8.659180e+002;1.263957e-001
8.678466e+002;1.280279e-001
8.697751e+002;1.301290e-001
8.717037e+002;1.325661e-001
8.736323e+002;1.346832e-001
8.755608e+002;1.366347e-001
8.774893e+002;1.384439e-001
8.794179e+002;1.406618e-001
8.813464e+002;1.437373e-001
8.832750e+002;1.467497e-001
8.852036e+002;1.501799e-001
8.871321e+002;1.536800e-001
8.890606e+002;1.566076e-001
8.909892e+002;1.594720e-001
8.929177e+002;1.623617e-001
8.948463e+002;1.644224e-001
8.967748e+002;1.653686e-001
8.987034e+002;1.646255e-001
9.006319e+002;1.627332e-001
9.025605e+002;1.607472e-001
9.044890e+002;1.588434e-001
9.064175e+002;1.570487e-001
9.083461e+002;1.555241e-001
9.102747e+002;1.544809e-001
9.122032e+002;1.538758e-001
9.141318e+002;1.532561e-001
9.160603e+002;1.523726e-001
9.179888e+002;1.520205e-001
9.199174e+002;1.521026e-001
9.218459e+002;1.525384e-001
9.237745e+002;1.534011e-001
9.257031e+002;1.544543e-001
9.276316e+002;1.556311e-001
9.295601e+002;1.559793e-001
9.314887e+002;1.563228e-001
9.334172e+002;1.574083e-001
9.353458e+002;1.588403e-001
9.372744e+002;1.603180e-001
9.392029e+002;1.617667e-001
9.411314e+002;1.644255e-001
9.430600e+002;1.681702e-001
9.449885e+002;1.718777e-001
9.469171e+002;1.759049e-001
9.488456e+002;1.802915e-001
9.507742e+002;1.846012e-001
9.527027e+002;1.898272e-001
9.546313e+002;1.954321e-001
9.565598e+002;2.010852e-001
9.584883e+002;2.068523e-001
9.604169e+002;2.124600e-001
9.623455e+002;2.172854e-001
9.642740e+002;2.225733e-001
9.662026e+002;2.283432e-001
9.681311e+002;2.339117e-001
9.700596e+002;2.399785e-001
9.719882e+002;2.472605e-001
9.739167e+002;2.552817e-001
9.758453e+002;2.633722e-001
9.777739e+002;2.720050e-001
9.797024e+002;2.815591e-001
9.816309e+002;2.913377e-001
9.835595e+002;2.996205e-001
9.854880e+002;3.057539e-001
9.874166e+002;3.104046e-001
9.893452e+002;3.140377e-001
9.912737e+002;3.170389e-001
9.932022e+002;3.197851e-001
9.951307e+002;3.225763e-001
9.970593e+002;3.263826e-001
9.989879e+002;3.305038e-001
1.000916e+003;3.339170e-001
1.002845e+003;3.371752e-001
1.004773e+003;3.412385e-001
1.006702e+003;3.464853e-001
1.008631e+003;3.519060e-001
1.010559e+003;3.569427e-001
1.012488e+003;3.614821e-001
1.014416e+003;3.669592e-001
1.016345e+003;3.721241e-001
1.018273e+003;3.757843e-001
1.020202e+003;3.794333e-001
1.022130e+003;3.833102e-001
1.024059e+003;3.858516e-001
1.025988e+003;3.879289e-001
1.027916e+003;3.900361e-001
1.029845e+003;3.910886e-001
1.031773e+003;3.910131e-001
1.033702e+003;3.898309e-001
1.035630e+003;3.864488e-001
1.037559e+003;3.818472e-001
1.039487e+003;3.775229e-001
1.041416e+003;3.735976e-001
1.043344e+003;3.703295e-001
1.045273e+003;3.679480e-001
1.047202e+003;3.657761e-001
1.049130e+003;3.628327e-001
1.051059e+003;3.603955e-001
1.052987e+003;3.581950e-001
1.054916e+003;3.544523e-001
1.056844e+003;3.494575e-001
1.058773e+003;3.432341e-001
1.060701e+003;3.353037e-001
1.062630e+003;3.260563e-001
1.064558e+003;3.162668e-001
1.066487e+003;3.067651e-001
1.068416e+003;2.984958e-001
1.070344e+003;2.916472e-001
1.072273e+003;2.858893e-001
1.074201e+003;2.806394e-001
1.076130e+003;2.758261e-001
1.078058e+003;2.712519e-001
1.079987e+003;2.669201e-001
1.081915e+003;2.629777e-001
1.083844e+003;2.598365e-001
1.085773e+003;2.577548e-001
1.087701e+003;2.568439e-001
1.089630e+003;2.551633e-001
1.091558e+003;2.532228e-001
1.093487e+003;2.519014e-001
1.095415e+003;2.503676e-001
1.097344e+003;2.493082e-001
1.099272e+003;2.479368e-001
1.101201e+003;2.465433e-001
1.103129e+003;2.450657e-001
1.105058e+003;2.419796e-001
1.106987e+003;2.377550e-001
1.108915e+003;2.329019e-001
1.110844e+003;2.281498e-001
1.112772e+003;2.226038e-001
1.114701e+003;2.158921e-001
1.116629e+003;2.097195e-001
1.118558e+003;2.038324e-001
1.120486e+003;1.981564e-001
1.122415e+003;1.933566e-001
1.124344e+003;1.886806e-001
1.126272e+003;1.831414e-001
1.128201e+003;1.769973e-001
1.130129e+003;1.719348e-001
1.132058e+003;1.671028e-001
1.133986e+003;1.621817e-001
1.135915e+003;1.578245e-001
1.137843e+003;1.548105e-001
1.139772e+003;1.528649e-001
1.141700e+003;1.520570e-001
1.143629e+003;1.524005e-001
1.145557e+003;1.533037e-001
1.147486e+003;1.541003e-001
1.149415e+003;1.547224e-001
1.151343e+003;1.552242e-001
1.153272e+003;1.557548e-001
1.155200e+003;1.560347e-001
1.157129e+003;1.557529e-001
1.159057e+003;1.542831e-001
1.160986e+003;1.512583e-001
1.162914e+003;1.470864e-001
1.164843e+003;1.426071e-001
1.166771e+003;1.371617e-001
1.168700e+003;1.309928e-001
1.170629e+003;1.251315e-001
1.172557e+003;1.201676e-001
1.174486e+003;1.159198e-001
1.176414e+003;1.124370e-001
1.178343e+003;1.099161e-001
1.180271e+003;1.080867e-001
1.182200e+003;1.065624e-001
1.184128e+003;1.056811e-001
1.186057e+003;1.054462e-001
1.187986e+003;1.053930e-001
1.189914e+003;1.060985e-001
1.191843e+003;1.081948e-001
1.193771e+003;1.106915e-001
1.195700e+003;1.130809e-001
1.197628e+003;1.159472e-001
1.199557e+003;1.186352e-001
1.201485e+003;1.206239e-001
1.203414e+003;1.224902e-001
1.205343e+003;1.244381e-001
1.207271e+003;1.262883e-001
1.209200e+003;1.281998e-001
1.211128e+003;1.306507e-001
1.213057e+003;1.341571e-001
1.214985e+003;1.382435e-001
1.216914e+003;1.422048e-001
1.218842e+003;1.461762e-001
1.220771e+003;1.499922e-001
1.222699e+003;1.540717e-001
1.224628e+003;1.578033e-001
1.226557e+003;1.608702e-001
1.228485e+003;1.636066e-001
1.230414e+003;1.656249e-001
1.232342e+003;1.670755e-001
1.234271e+003;1.682079e-001
1.236199e+003;1.689465e-001
1.238128e+003;1.691980e-001
1.240056e+003;1.683158e-001
1.241985e+003;1.670485e-001
1.243913e+003;1.658603e-001
1.245842e+003;1.643798e-001
1.247771e+003;1.624555e-001
1.249699e+003;1.604299e-001
1.251628e+003;1.579716e-001
1.253556e+003;1.551347e-001
1.255485e+003;1.520808e-001
1.257413e+003;1.490827e-001
1.259342e+003;1.464633e-001
1.261270e+003;1.439852e-001
1.263199e+003;1.413709e-001
1.265127e+003;1.386700e-001
1.267056e+003;1.358298e-001
1.268985e+003;1.331069e-001
1.270913e+003;1.303531e-001
1.272842e+003;1.276708e-001
1.274770e+003;1.257895e-001
1.276699e+003;1.237004e-001
1.278627e+003;1.215087e-001
1.280556e+003;1.192831e-001
1.282484e+003;1.169425e-001
1.284413e+003;1.153148e-001
1.286342e+003;1.139479e-001
1.288270e+003;1.129370e-001
1.290199e+003;1.125182e-001
1.292127e+003;1.125144e-001
1.294056e+003;1.126495e-001
1.295984e+003;1.132258e-001
1.297913e+003;1.144272e-001
1.299841e+003;1.158035e-001
1.301770e+003;1.171172e-001
1.303698e+003;1.188485e-001
1.305627e+003;1.208266e-001
1.307556e+003;1.228581e-001
1.309484e+003;1.251640e-001
1.311413e+003;1.272596e-001
1.313341e+003;1.288311e-001
1.315270e+003;1.299969e-001
1.317198e+003;1.307674e-001
1.319127e+003;1.308978e-001
1.321055e+003;1.303332e-001
1.322984e+003;1.293983e-001
1.324912e+003;1.289804e-001
1.326841e+003;1.287702e-001
1.328770e+003;1.289183e-001
1.330698e+003;1.294236e-001
1.332627e+003;1.296515e-001
1.334555e+003;1.292472e-001
1.336484e+003;1.285513e-001
1.338412e+003;1.275662e-001
1.340341e+003;1.262831e-001
1.342269e+003;1.250305e-001
1.344198e+003;1.239124e-001
1.346126e+003;1.230669e-001
1.348055e+003;1.225453e-001
1.349984e+003;1.220407e-001
1.351912e+003;1.222891e-001
1.353841e+003;1.234022e-001
1.355769e+003;1.245072e-001
1.357698e+003;1.259175e-001
1.359626e+003;1.277350e-001
1.361555e+003;1.296142e-001
1.363483e+003;1.310818e-001
1.365412e+003;1.314946e-001
1.367341e+003;1.315886e-001
1.369269e+003;1.315638e-001
1.371198e+003;1.306854e-001
1.373126e+003;1.293569e-001
1.375055e+003;1.275238e-001
1.376983e+003;1.251256e-001
1.378912e+003;1.223867e-001
1.380840e+003;1.194976e-001
1.382769e+003;1.166960e-001
1.384698e+003;1.143020e-001
1.386626e+003;1.119247e-001
1.388555e+003;1.099059e-001
1.390483e+003;1.084481e-001
1.392412e+003;1.076097e-001
1.394340e+003;1.070540e-001
1.396269e+003;1.068292e-001
1.398197e+003;1.069551e-001
1.400126e+003;1.073063e-001
1.402054e+003;1.078007e-001
1.403983e+003;1.084809e-001
1.405911e+003;1.093905e-001
1.407840e+003;1.105945e-001
1.409769e+003;1.117882e-001
1.411697e+003;1.130508e-001
1.413626e+003;1.145389e-001
1.415554e+003;1.159203e-001
1.417483e+003;1.171103e-001
1.419411e+003;1.180444e-001
1.421340e+003;1.188967e-001
1.423268e+003;1.189302e-001
1.425197e+003;1.180629e-001
1.427125e+003;1.171852e-001
1.429054e+003;1.160637e-001
1.430983e+003;1.146773e-001
1.432911e+003;1.132575e-001
1.434840e+003;1.113138e-001
1.436768e+003;1.093998e-001
1.438697e+003;1.081325e-001
1.440625e+003;1.069877e-001
1.442554e+003;1.061320e-001
1.444482e+003;1.056895e-001
1.446411e+003;1.053319e-001
1.448340e+003;1.046661e-001
1.450268e+003;1.041436e-001
1.452197e+003;1.037939e-001
1.454125e+003;1.029961e-001
1.456054e+003;1.016128e-001
1.457982e+003;1.007665e-001
1.459911e+003;1.003110e-001
1.461839e+003;9.925535e-002
1.463768e+003;9.742083e-002
1.465697e+003;9.538377e-002
1.467625e+003;9.300312e-002
1.469554e+003;9.008183e-002
1.471482e+003;8.701234e-002
1.473411e+003;8.389866e-002
1.475339e+003;8.098794e-002
1.477268e+003;7.848931e-002
1.479196e+003;7.683846e-002
1.481125e+003;7.552768e-002
1.483053e+003;7.409070e-002
1.484982e+003;7.253166e-002
1.486911e+003;7.143814e-002
1.488839e+003;7.102846e-002
1.490768e+003;7.084178e-002
1.492696e+003;7.112806e-002
1.494625e+003;7.160562e-002
1.496553e+003;7.197411e-002
1.498482e+003;7.251126e-002
1.500410e+003;7.276506e-002
1.502339e+003;7.279068e-002
1.504267e+003;7.247802e-002
1.506196e+003;7.155373e-002
1.508125e+003;7.081120e-002
1.510053e+003;7.006535e-002
1.511982e+003;6.874423e-002
1.513910e+003;6.729475e-002
1.515839e+003;6.559788e-002
1.517767e+003;6.402048e-002
1.519696e+003;6.266899e-002
1.521624e+003;6.174614e-002
1.523553e+003;6.138632e-002
1.525481e+003;6.105556e-002
1.527410e+003;6.090061e-002
1.529339e+003;6.074255e-002
1.531267e+003;6.049313e-002
1.533196e+003;6.028736e-002
1.535124e+003;6.009725e-002
1.537053e+003;5.966372e-002
1.538981e+003;5.885558e-002
1.540910e+003;5.881263e-002
1.542838e+003;5.932944e-002
1.544767e+003;5.989498e-002
1.546695e+003;6.055220e-002
1.548624e+003;6.096100e-002
1.550553e+003;6.136278e-002
1.552481e+003;6.214299e-002
1.554410e+003;6.268342e-002
1.556338e+003;6.274068e-002
1.558267e+003;6.267836e-002
1.560195e+003;6.339330e-002
1.562124e+003;6.481814e-002
1.564052e+003;6.598249e-002
1.565981e+003;6.684857e-002
1.567910e+003;6.793334e-002
1.569838e+003;6.928995e-002
1.571767e+003;7.135101e-002
1.573695e+003;7.345933e-002
1.575624e+003;7.524495e-002
1.577552e+003;7.789988e-002
1.579481e+003;8.110087e-002
1.581409e+003;8.453070e-002
1.583338e+003;8.847876e-002
1.585266e+003;9.254118e-002
1.587195e+003;9.637473e-002
1.589124e+003;9.961803e-002
1.591052e+003;1.016373e-001
1.592981e+003;1.026829e-001
1.594909e+003;1.029997e-001
1.596838e+003;1.027482e-001
1.598766e+003;1.021342e-001
1.600695e+003;1.013480e-001
1.602623e+003;1.005761e-001
1.604552e+003;9.996576e-002
1.606480e+003;9.945690e-002
1.608409e+003;9.867791e-002
1.610338e+003;9.805817e-002
1.612266e+003;9.755412e-002
1.614195e+003;9.697438e-002
1.616123e+003;9.588321e-002
1.618052e+003;9.533247e-002
1.619980e+003;9.514631e-002
1.621909e+003;9.456755e-002
1.623837e+003;9.367409e-002
1.625766e+003;9.288619e-002
1.627694e+003;9.235195e-002
1.629623e+003;9.187519e-002
1.631552e+003;9.135723e-002
1.633480e+003;9.058005e-002
1.635409e+003;8.992831e-002
1.637337e+003;8.957725e-002
1.639266e+003;8.903315e-002
1.641194e+003;8.832995e-002
1.643123e+003;8.778027e-002
1.645051e+003;8.687119e-002
1.646980e+003;8.603837e-002
1.648909e+003;8.530302e-002
1.650837e+003;8.401383e-002
1.652766e+003;8.266117e-002
1.654694e+003;8.212254e-002
1.656623e+003;8.159749e-002
1.658551e+003;8.051679e-002
1.660480e+003;7.907031e-002
1.662408e+003;7.786373e-002
1.664337e+003;7.710132e-002
1.666266e+003;7.613959e-002
1.668194e+003;7.479202e-002
1.670123e+003;7.344156e-002
1.672051e+003;7.235060e-002
1.673980e+003;7.129896e-002
1.675908e+003;7.056189e-002
1.677837e+003;6.974772e-002
1.679765e+003;6.865442e-002
1.681694e+003;6.768014e-002
1.683622e+003;6.670069e-002
1.685551e+003;6.626607e-002
1.687479e+003;6.636312e-002
1.689408e+003;6.651825e-002
1.691337e+003;6.680320e-002
1.693265e+003;6.722300e-002
1.695194e+003;6.770379e-002
1.697122e+003;6.851434e-002
1.699051e+003;6.964626e-002
1.700979e+003;7.102062e-002
1.702908e+003;7.307906e-002
1.704836e+003;7.548860e-002
1.706765e+003;7.811599e-002
1.708693e+003;8.051487e-002
1.710622e+003;8.291893e-002
1.712551e+003;8.550602e-002
1.714479e+003;8.794536e-002
1.716408e+003;9.044019e-002
1.718336e+003;9.310164e-002
1.720265e+003;9.561120e-002
1.722193e+003;9.772098e-002
1.724122e+003;9.942886e-002
1.726050e+003;1.011491e-001
1.727979e+003;1.028780e-001
1.729908e+003;1.041596e-001
1.731836e+003;1.046573e-001
1.733765e+003;1.046020e-001
1.735693e+003;1.047692e-001
1.737622e+003;1.041823e-001
1.739550e+003;1.031169e-001
1.741479e+003;1.017468e-001
1.743407e+003;9.902909e-002
1.745336e+003;9.597519e-002
1.747265e+003;9.283273e-002
1.749193e+003;8.945053e-002
1.751122e+003;8.568159e-002
1.753050e+003;8.234853e-002
1.754979e+003;7.929743e-002
1.756907e+003;7.589399e-002
1.758836e+003;7.255027e-002
1.760764e+003;6.904960e-002
1.762693e+003;6.553688e-002
1.764621e+003;6.261548e-002
1.766550e+003;5.969645e-002
1.768479e+003;5.672380e-002
1.770407e+003;5.395265e-002
1.772336e+003;5.157691e-002
1.774264e+003;4.958167e-002
1.776193e+003;4.786924e-002
1.778121e+003;4.692442e-002
1.780050e+003;4.574902e-002
1.781978e+003;4.413471e-002
1.783907e+003;4.293450e-002
1.785835e+003;4.187298e-002
1.787764e+003;4.096796e-002
1.789693e+003;4.026877e-002
1.791621e+003;3.961962e-002
1.793550e+003;3.890820e-002
1.795478e+003;3.828978e-002
1.797407e+003;3.790111e-002
1.799335e+003;3.764723e-002
1.801264e+003;3.709162e-002
1.803192e+003;3.662175e-002
1.805121e+003;3.615959e-002
1.807049e+003;3.595794e-002
1.808978e+003;3.573066e-002
1.810907e+003;3.521253e-002
1.812835e+003;3.476444e-002
1.814764e+003;3.445642e-002
1.816692e+003;3.409708e-002
1.818621e+003;3.406740e-002
1.820549e+003;3.411858e-002
1.822478e+003;3.399659e-002
1.824406e+003;3.366209e-002
1.826335e+003;3.335099e-002
1.828264e+003;3.313662e-002
1.830192e+003;3.305706e-002
1.832121e+003;3.290270e-002
1.834049e+003;3.264436e-002
1.835978e+003;3.251428e-002
1.837906e+003;3.223259e-002
1.839835e+003;3.209875e-002
1.841763e+003;3.188556e-002
1.843692e+003;3.161258e-002
1.845620e+003;3.172635e-002
1.847549e+003;3.165467e-002
1.849478e+003;3.138340e-002
1.851406e+003;3.117736e-002
1.853335e+003;3.114878e-002
1.855263e+003;3.098068e-002
1.857192e+003;3.078484e-002
1.859120e+003;3.081127e-002
1.861049e+003;3.085783e-002
1.862977e+003;3.084602e-002
1.864906e+003;3.086075e-002
1.866834e+003;3.077559e-002
1.868763e+003;3.051859e-002
1.870692e+003;3.053476e-002
1.872620e+003;3.062058e-002
1.874549e+003;3.065752e-002
1.876477e+003;3.039910e-002
1.878406e+003;3.017144e-002
1.880334e+003;3.016998e-002
1.882263e+003;3.024880e-002
1.884191e+003;3.009512e-002
1.886120e+003;2.999222e-002
1.888048e+003;2.999033e-002
1.889977e+003;2.998387e-002
1.891906e+003;3.015137e-002
1.893834e+003;3.039565e-002
1.895763e+003;3.046868e-002
1.897691e+003;3.052840e-002
1.899620e+003;3.039110e-002
1.901548e+003;2.993577e-002
1.903477e+003;2.984150e-002
1.905405e+003;3.003678e-002
1.907334e+003;3.004814e-002
1.909262e+003;3.013113e-002
1.911191e+003;3.027189e-002
1.913120e+003;3.017691e-002
1.915048e+003;3.025424e-002
1.916977e+003;3.043716e-002
1.918905e+003;3.041242e-002
1.920834e+003;3.049918e-002
1.922762e+003;3.070898e-002
1.924691e+003;3.087690e-002
1.926619e+003;3.099552e-002
1.928548e+003;3.106449e-002
1.930477e+003;3.112664e-002
1.932405e+003;3.115672e-002
1.934334e+003;3.119485e-002
1.936262e+003;3.126509e-002
1.938191e+003;3.149714e-002
1.940119e+003;3.153472e-002
1.942048e+003;3.152699e-002
1.943976e+003;3.171305e-002
1.945905e+003;3.178046e-002
1.947833e+003;3.175632e-002
1.949762e+003;3.163614e-002
1.951691e+003;3.179814e-002
1.953619e+003;3.215148e-002
1.955548e+003;3.227702e-002
1.957476e+003;3.245669e-002
1.959405e+003;3.263375e-002
1.961333e+003;3.274664e-002
1.963262e+003;3.246704e-002
1.965190e+003;3.203018e-002
1.967119e+003;3.198246e-002
1.969047e+003;3.227209e-002
1.970976e+003;3.252799e-002
1.972905e+003;3.243452e-002
1.974833e+003;3.225757e-002
1.976762e+003;3.218374e-002
1.978690e+003;3.236236e-002
1.980619e+003;3.253828e-002
1.982547e+003;3.283268e-002
1.984476e+003;3.296482e-002
1.986404e+003;3.301083e-002
1.988333e+003;3.325747e-002
1.990261e+003;3.332033e-002
1.992190e+003;3.312253e-002
1.994119e+003;3.305337e-002
1.996047e+003;3.317124e-002
1.997976e+003;3.346420e-002
1.999904e+003;3.360559e-002
2.001833e+003;3.348088e-002
2.003761e+003;3.343321e-002
2.005690e+003;3.350511e-002
2.007618e+003;3.381561e-002
2.009547e+003;3.422942e-002
2.011476e+003;3.433448e-002
2.013404e+003;3.435409e-002
2.015333e+003;3.432935e-002
2.017261e+003;3.449024e-002
2.019190e+003;3.469627e-002
2.021118e+003;3.470194e-002
2.023047e+003;3.507314e-002
2.024975e+003;3.542214e-002
2.026904e+003;3.547168e-002
2.028833e+003;3.580949e-002
2.030761e+003;3.604635e-002
2.032690e+003;3.616039e-002
2.034618e+003;3.626869e-002
2.036547e+003;3.609237e-002
2.038475e+003;3.610068e-002
2.040404e+003;3.623367e-002
2.042332e+003;3.645217e-002
2.044261e+003;3.660477e-002
2.046189e+003;3.679789e-002
2.048118e+003;3.695050e-002
2.050047e+003;3.687089e-002
2.051975e+003;3.688878e-002
2.053904e+003;3.678047e-002
2.055832e+003;3.672699e-002
2.057761e+003;3.703565e-002
2.059689e+003;3.715283e-002
2.061618e+003;3.701036e-002
2.063546e+003;3.709674e-002
2.065475e+003;3.741751e-002
2.067404e+003;3.763339e-002
2.069332e+003;3.732929e-002
2.071260e+003;3.700040e-002
2.073189e+003;3.700274e-002
2.075118e+003;3.697485e-002
2.077046e+003;3.680442e-002
2.078975e+003;3.681974e-002
2.080903e+003;3.710010e-002
2.082832e+003;3.726033e-002
2.084760e+003;3.722159e-002
2.086689e+003;3.742108e-002
2.088617e+003;3.733579e-002
2.090546e+003;3.728528e-002
2.092475e+003;3.755759e-002
2.094403e+003;3.762663e-002
2.096332e+003;3.762735e-002
2.098260e+003;3.750661e-002
2.100189e+003;3.747212e-002
2.102117e+003;3.753270e-002
2.104046e+003;3.761402e-002
2.105974e+003;3.737071e-002
2.107903e+003;3.742332e-002
2.109832e+003;3.775340e-002
2.111760e+003;3.792295e-002
2.113688e+003;3.797712e-002
2.115617e+003;3.799216e-002
2.117546e+003;3.805426e-002
2.119474e+003;3.830396e-002
2.121403e+003;3.854219e-002
2.123331e+003;3.858094e-002
2.125260e+003;3.847644e-002
2.127188e+003;3.833918e-002
2.129117e+003;3.845121e-002
2.131045e+003;3.842930e-002
2.132974e+003;3.836856e-002
2.134903e+003;3.819834e-002
2.136831e+003;3.806721e-002
2.138760e+003;3.817421e-002
2.140688e+003;3.842199e-002
2.142617e+003;3.857080e-002
2.144545e+003;3.830610e-002
2.146474e+003;3.801335e-002
2.148402e+003;3.777538e-002
2.150331e+003;3.751850e-002
2.152260e+003;3.755986e-002
2.154188e+003;3.791709e-002
2.156117e+003;3.783676e-002
2.158045e+003;3.737533e-002
2.159974e+003;3.722134e-002
2.161902e+003;3.736612e-002
2.163831e+003;3.725845e-002
2.165759e+003;3.708318e-002
2.167688e+003;3.708170e-002
2.169616e+003;3.709729e-002
2.171545e+003;3.701130e-002
2.173474e+003;3.664936e-002
2.175402e+003;3.624394e-002
2.177331e+003;3.624877e-002
2.179259e+003;3.616809e-002
2.181188e+003;3.604092e-002
2.183116e+003;3.611840e-002
2.185045e+003;3.608617e-002
2.186973e+003;3.584170e-002
2.188902e+003;3.564786e-002
2.190831e+003;3.569757e-002
2.192759e+003;3.568965e-002
2.194688e+003;3.553515e-002
2.196616e+003;3.548793e-002
2.198545e+003;3.571854e-002
2.200473e+003;3.596061e-002
2.202402e+003;3.591339e-002
2.204330e+003;3.552777e-002
2.206259e+003;3.511826e-002
2.208188e+003;3.506477e-002
2.210116e+003;3.502404e-002
2.212044e+003;3.514502e-002
2.213973e+003;3.523345e-002
2.215902e+003;3.530812e-002
2.217830e+003;3.519971e-002
2.219759e+003;3.501207e-002
2.221687e+003;3.509645e-002
2.223616e+003;3.541135e-002
2.225544e+003;3.543577e-002
2.227473e+003;3.515939e-002
2.229401e+003;3.517631e-002
2.231330e+003;3.523675e-002
2.233259e+003;3.526960e-002
2.235187e+003;3.539992e-002
2.237116e+003;3.556082e-002
2.239044e+003;3.564904e-002
2.240973e+003;3.559869e-002
2.242901e+003;3.551184e-002
2.244830e+003;3.548017e-002
2.246758e+003;3.573073e-002
2.248687e+003;3.581043e-002
2.250615e+003;3.552457e-002
2.252544e+003;3.518080e-002
2.254473e+003;3.506161e-002
2.256401e+003;3.525648e-002
2.258330e+003;3.540956e-002
2.260258e+003;3.524922e-002
2.262187e+003;3.495440e-002
2.264115e+003;3.496463e-002
2.266044e+003;3.494244e-002
2.267972e+003;3.481297e-002
2.269901e+003;3.491019e-002
2.271830e+003;3.474261e-002
2.273758e+003;3.453778e-002
2.275687e+003;3.467496e-002
2.277615e+003;3.475952e-002
2.279544e+003;3.456806e-002
2.281472e+003;3.471149e-002
2.283401e+003;3.511754e-002
2.285329e+003;3.504943e-002
2.287258e+003;3.462823e-002
2.289187e+003;3.466136e-002
2.291115e+003;3.459615e-002
2.293043e+003;3.439329e-002
2.294972e+003;3.462787e-002
2.296901e+003;3.458065e-002
2.298829e+003;3.430479e-002
2.300758e+003;3.438214e-002
2.302686e+003;3.452547e-002
2.304615e+003;3.447873e-002
2.306543e+003;3.432261e-002
2.308472e+003;3.418704e-002
2.310400e+003;3.428051e-002
2.312329e+003;3.439422e-002
2.314258e+003;3.434240e-002
2.316186e+003;3.426506e-002
2.318115e+003;3.418170e-002
2.320043e+003;3.405210e-002
2.321972e+003;3.380988e-002
2.323900e+003;3.366087e-002
2.325829e+003;3.390760e-002
2.327757e+003;3.411446e-002
2.329686e+003;3.380189e-002
2.331615e+003;3.364050e-002
2.333543e+003;3.331886e-002
2.335472e+003;3.319266e-002
2.337400e+003;3.360065e-002
2.339329e+003;3.396668e-002
2.341257e+003;3.412998e-002
2.343186e+003;3.442155e-002
2.345114e+003;3.503790e-002
2.347043e+003;3.554576e-002
2.348971e+003;3.559444e-002
2.350900e+003;3.543623e-002
2.352829e+003;3.522299e-002
2.354757e+003;3.484467e-002
2.356686e+003;3.454459e-002
2.358614e+003;3.439480e-002
2.360543e+003;3.460211e-002
2.362471e+003;3.477962e-002
2.364400e+003;3.461018e-002
2.366328e+003;3.486915e-002
2.368257e+003;3.529576e-002
2.370186e+003;3.565951e-002
2.372114e+003;3.631223e-002
2.374042e+003;3.694808e-002
2.375971e+003;3.742445e-002
2.377900e+003;3.756759e-002
2.379828e+003;3.769146e-002
2.381757e+003;3.778713e-002
2.383685e+003;3.779053e-002
2.385614e+003;3.805711e-002
2.387542e+003;3.841291e-002
2.389471e+003;3.876779e-002
2.391399e+003;3.882210e-002
2.393328e+003;3.878268e-002
2.395257e+003;3.904887e-002
2.397185e+003;3.916090e-002
2.399114e+003;3.930281e-002
2.401042e+003;3.960223e-002
2.402971e+003;3.970025e-002
2.404899e+003;3.973042e-002
2.406828e+003;3.988759e-002
2.408756e+003;3.983910e-002
2.410685e+003;3.971332e-002
2.412614e+003;3.968725e-002
2.414542e+003;3.984499e-002
2.416471e+003;4.015481e-002
2.418399e+003;4.045661e-002
2.420328e+003;4.061732e-002
2.422256e+003;4.079752e-002
2.424185e+003;4.105602e-002
2.426113e+003;4.112930e-002
2.428042e+003;4.100616e-002
2.429970e+003;4.098719e-002
2.431899e+003;4.117593e-002
2.433828e+003;4.155849e-002
2.435756e+003;4.186736e-002
2.437685e+003;4.200096e-002
2.439613e+003;4.206509e-002
2.441542e+003;4.231105e-002
2.443470e+003;4.240518e-002
2.445399e+003;4.232084e-002
2.447327e+003;4.232077e-002
2.449256e+003;4.235386e-002
2.451185e+003;4.246825e-002
2.453113e+003;4.257816e-002
2.455042e+003;4.293201e-002
2.456970e+003;4.309137e-002
2.458899e+003;4.306561e-002
2.460827e+003;4.300722e-002
2.462756e+003;4.297854e-002
2.464684e+003;4.340253e-002
2.466613e+003;4.372554e-002
2.468542e+003;4.375145e-002
2.470470e+003;4.385055e-002
2.472398e+003;4.411157e-002
2.474327e+003;4.427727e-002
2.476256e+003;4.419263e-002
2.478184e+003;4.425533e-002
2.480113e+003;4.427841e-002
2.482041e+003;4.427019e-002
2.483970e+003;4.461796e-002
2.485898e+003;4.509087e-002
2.487827e+003;4.530214e-002
2.489755e+003;4.495249e-002
2.491684e+003;4.450896e-002
2.493613e+003;4.472721e-002
2.495541e+003;4.521127e-002
2.497470e+003;4.534248e-002
2.499398e+003;4.559020e-002
2.501327e+003;4.580016e-002
2.503255e+003;4.591148e-002
2.505184e+003;4.588916e-002
2.507112e+003;4.584545e-002
2.509041e+003;4.609769e-002
2.510969e+003;4.650534e-002
2.512898e+003;4.664451e-002
2.514827e+003;4.644350e-002
2.516755e+003;4.626470e-002
2.518684e+003;4.650214e-002
2.520612e+003;4.679321e-002
2.522541e+003;4.674981e-002
2.524469e+003;4.689312e-002
2.526398e+003;4.702606e-002
2.528326e+003;4.697503e-002
2.530255e+003;4.685292e-002
2.532184e+003;4.663400e-002
2.534112e+003;4.696883e-002
2.536041e+003;4.711634e-002
2.537969e+003;4.689134e-002
2.539898e+003;4.682694e-002
2.541826e+003;4.701059e-002
2.543755e+003;4.716735e-002
2.545683e+003;4.729332e-002
2.547612e+003;4.748075e-002
2.549541e+003;4.764563e-002
2.551469e+003;4.782988e-002
2.553397e+003;4.770960e-002
2.555326e+003;4.753098e-002
2.557255e+003;4.777795e-002
2.559183e+003;4.796555e-002
2.561112e+003;4.799086e-002
2.563040e+003;4.798809e-002
2.564969e+003;4.796829e-002
2.566897e+003;4.800962e-002
2.568826e+003;4.790546e-002
2.570754e+003;4.778997e-002
2.572683e+003;4.765343e-002
2.574612e+003;4.794057e-002
2.576540e+003;4.854908e-002
2.578469e+003;4.872174e-002
2.580397e+003;4.865602e-002
2.582326e+003;4.857157e-002
2.584254e+003;4.843956e-002
2.586183e+003;4.842460e-002
2.588111e+003;4.835656e-002
2.590040e+003;4.849143e-002
2.591969e+003;4.855752e-002
2.593897e+003;4.865128e-002
2.595826e+003;4.890767e-002
2.597754e+003;4.905767e-002
2.599683e+003;4.916055e-002
2.601611e+003;4.941178e-002
2.603540e+003;4.979005e-002
2.605468e+003;4.982680e-002
2.607397e+003;4.986300e-002
2.609325e+003;5.010534e-002
2.611254e+003;4.998707e-002
2.613183e+003;4.999767e-002
2.615111e+003;5.017084e-002
2.617040e+003;5.019598e-002
2.618968e+003;5.030080e-002
2.620897e+003;5.034389e-002
2.622825e+003;5.048805e-002
2.624754e+003;5.065579e-002
2.626682e+003;5.092064e-002
2.628611e+003;5.164930e-002
2.630540e+003;5.194242e-002
2.632468e+003;5.150289e-002
2.634396e+003;5.128791e-002
2.636325e+003;5.155500e-002
2.638254e+003;5.177015e-002
2.640182e+003;5.187876e-002
2.642111e+003;5.203449e-002
2.644039e+003;5.229468e-002
2.645968e+003;5.256004e-002
2.647896e+003;5.268560e-002
2.649825e+003;5.244132e-002
2.651753e+003;5.220510e-002
2.653682e+003;5.257597e-002
2.655611e+003;5.282728e-002
2.657539e+003;5.296846e-002
2.659468e+003;5.324247e-002
2.661396e+003;5.315760e-002
2.663325e+003;5.293686e-002
2.665253e+003;5.299155e-002
2.667182e+003;5.317809e-002
2.669110e+003;5.362502e-002
2.671039e+003;5.400142e-002
2.672968e+003;5.397474e-002
2.674896e+003;5.380309e-002
2.676825e+003;5.382732e-002
2.678753e+003;5.422236e-002
2.680682e+003;5.466650e-002
2.682610e+003;5.482504e-002
2.684539e+003;5.507687e-002
2.686467e+003;5.519413e-002
2.688396e+003;5.541481e-002
2.690324e+003;5.575306e-002
2.692253e+003;5.570695e-002
2.694182e+003;5.563158e-002
2.696110e+003;5.567034e-002
2.698039e+003;5.598790e-002
2.699967e+003;5.604636e-002
2.701896e+003;5.608757e-002
2.703824e+003;5.645335e-002
2.705753e+003;5.672569e-002
2.707681e+003;5.674483e-002
2.709610e+003;5.664089e-002
2.711539e+003;5.702936e-002
2.713467e+003;5.732380e-002
2.715396e+003;5.724546e-002
2.717324e+003;5.714503e-002
2.719253e+003;5.735662e-002
2.721181e+003;5.790645e-002
2.723110e+003;5.794431e-002
2.725038e+003;5.774505e-002
2.726967e+003;5.793614e-002
2.728896e+003;5.806083e-002
2.730824e+003;5.790399e-002
2.732752e+003;5.804936e-002
2.734681e+003;5.833444e-002
2.736610e+003;5.820424e-002
2.738538e+003;5.823929e-002
2.740467e+003;5.844709e-002
2.742395e+003;5.867315e-002
2.744324e+003;5.865202e-002
2.746252e+003;5.865457e-002
2.748181e+003;5.865775e-002
2.750109e+003;5.850005e-002
2.752038e+003;5.862146e-002
2.753967e+003;5.905983e-002
2.755895e+003;5.905972e-002
2.757824e+003;5.875394e-002
2.759752e+003;5.906226e-002
2.761681e+003;5.953639e-002
2.763609e+003;5.985732e-002
2.765538e+003;5.983234e-002
2.767466e+003;5.991023e-002
2.769395e+003;5.983508e-002
2.771323e+003;5.939413e-002
2.773252e+003;5.956588e-002
2.775181e+003;6.024411e-002
2.777109e+003;6.057285e-002
2.779038e+003;6.041483e-002
2.780966e+003;6.040489e-002
2.782895e+003;6.077101e-002
2.784823e+003;6.099635e-002
2.786752e+003;6.118654e-002
2.788680e+003;6.151427e-002
2.790609e+003;6.150923e-002
2.792538e+003;6.171260e-002
2.794466e+003;6.203225e-002
2.796395e+003;6.217380e-002
2.798323e+003;6.222680e-002
2.800252e+003;6.252918e-002
2.802180e+003;6.294096e-002
2.804109e+003;6.316093e-002
2.806037e+003;6.321942e-002
2.807966e+003;6.330930e-002
2.809895e+003;6.366899e-002
2.811823e+003;6.428627e-002
2.813751e+003;6.475359e-002
2.815680e+003;6.478091e-002
2.817609e+003;6.510097e-002
2.819537e+003;6.586294e-002
2.821466e+003;6.619364e-002
2.823394e+003;6.644721e-002
2.825323e+003;6.705028e-002
2.827251e+003;6.762051e-002
2.829180e+003;6.771111e-002
2.831108e+003;6.779802e-002
2.833037e+003;6.855364e-002
2.834966e+003;6.980082e-002
2.836894e+003;7.074397e-002
2.838823e+003;7.143556e-002
2.840751e+003;7.186827e-002
2.842680e+003;7.264171e-002
2.844608e+003;7.367423e-002
2.846537e+003;7.427324e-002
2.848465e+003;7.493047e-002
2.850394e+003;7.570517e-002
2.852323e+003;7.625347e-002
2.854251e+003;7.705526e-002
2.856180e+003;7.830257e-002
2.858108e+003;7.955725e-002
2.860037e+003;8.053856e-002
2.861965e+003;8.136138e-002
2.863894e+003;8.173929e-002
2.865822e+003;8.178673e-002
2.867751e+003;8.243173e-002
2.869679e+003;8.338471e-002
2.871608e+003;8.423116e-002
2.873536e+003;8.468140e-002
2.875465e+003;8.516432e-002
2.877394e+003;8.578004e-002
2.879322e+003;8.611746e-002
2.881251e+003;8.615233e-002
2.883179e+003;8.636665e-002
2.885108e+003;8.650063e-002
2.887036e+003;8.635423e-002
2.888965e+003;8.673321e-002
2.890893e+003;8.709282e-002
2.892822e+003;8.753347e-002
2.894750e+003;8.774459e-002
2.896679e+003;8.745246e-002
2.898608e+003;8.753558e-002
2.900536e+003;8.764788e-002
2.902465e+003;8.730740e-002
2.904393e+003;8.698594e-002
2.906322e+003;8.652671e-002
2.908250e+003;8.611301e-002
2.910179e+003;8.612420e-002
2.912107e+003;8.555980e-002
2.914036e+003;8.485773e-002
2.915965e+003;8.439825e-002
2.917893e+003;8.387917e-002
2.919822e+003;8.350621e-002
2.921750e+003;8.311147e-002
2.923679e+003;8.251137e-002
2.925607e+003;8.190034e-002
2.927536e+003;8.153080e-002
2.929464e+003;8.136369e-002
2.931393e+003;8.137720e-002
2.933322e+003;8.134807e-002
2.935250e+003;8.118195e-002
2.937178e+003;8.087493e-002
2.939107e+003;8.030852e-002
2.941036e+003;7.969549e-002
2.942964e+003;7.909898e-002
2.944893e+003;7.819128e-002
2.946821e+003;7.738383e-002
2.948750e+003;7.690743e-002
2.950678e+003;7.627097e-002
2.952607e+003;7.537034e-002
2.954535e+003;7.443135e-002
2.956464e+003;7.361083e-002
2.958393e+003;7.286133e-002
2.960321e+003;7.233921e-002
2.962250e+003;7.165650e-002
2.964178e+003;7.084583e-002
2.966107e+003;7.011172e-002
2.968035e+003;6.977133e-002
2.969964e+003;6.940668e-002
2.971892e+003;6.874217e-002
2.973821e+003;6.817412e-002
2.975750e+003;6.763294e-002
2.977678e+003;6.717797e-002
2.979607e+003;6.654958e-002
2.981535e+003;6.588688e-002
2.983464e+003;6.518497e-002
2.985392e+003;6.488419e-002
2.987321e+003;6.516964e-002
2.989249e+003;6.525358e-002
2.991178e+003;6.494460e-002
2.993106e+003;6.472317e-002
2.995035e+003;6.447949e-002
2.996964e+003;6.406975e-002
2.998892e+003;6.371722e-002
3.000821e+003;6.334526e-002
3.002749e+003;6.308534e-002
3.004678e+003;6.317186e-002
3.006606e+003;6.315669e-002
3.008535e+003;6.329098e-002
3.010463e+003;6.305097e-002
3.012392e+003;6.248774e-002
3.014321e+003;6.247473e-002
3.016249e+003;6.298450e-002
3.018177e+003;6.361508e-002
3.020106e+003;6.350818e-002
3.022035e+003;6.306522e-002
3.023963e+003;6.294566e-002
3.025892e+003;6.318063e-002
3.027820e+003;6.349741e-002
3.029749e+003;6.382459e-002
3.031677e+003;6.379902e-002
3.033606e+003;6.350961e-002
3.035534e+003;6.351298e-002
3.037463e+003;6.365705e-002
3.039392e+003;6.406114e-002
3.041320e+003;6.429937e-002
3.043249e+003;6.466565e-002
3.045177e+003;6.509985e-002
3.047106e+003;6.526821e-002
3.049034e+003;6.571015e-002
3.050963e+003;6.618249e-002
3.052891e+003;6.613263e-002
3.054820e+003;6.603788e-002
3.056749e+003;6.606492e-002
3.058677e+003;6.637578e-002
3.060606e+003;6.697520e-002
3.062534e+003;6.711172e-002
3.064463e+003;6.700496e-002
3.066391e+003;6.713771e-002
3.068320e+003;6.727456e-002
3.070248e+003;6.748363e-002
3.072177e+003;6.808899e-002
3.074105e+003;6.853518e-002
3.076034e+003;6.852622e-002
3.077963e+003;6.883678e-002
3.079891e+003;6.944447e-002
3.081820e+003;7.001419e-002
3.083748e+003;7.030070e-002
3.085677e+003;7.027420e-002
3.087605e+003;7.052740e-002
3.089534e+003;7.095124e-002
3.091462e+003;7.108532e-002
3.093391e+003;7.118805e-002
3.095320e+003;7.187629e-002
3.097248e+003;7.239585e-002
3.099177e+003;7.242756e-002
3.101105e+003;7.287665e-002
3.103034e+003;7.325592e-002
3.104962e+003;7.367489e-002
3.106891e+003;7.428197e-002
3.108819e+003;7.454687e-002
3.110748e+003;7.426605e-002
3.112677e+003;7.466286e-002
3.114605e+003;7.536522e-002
3.116533e+003;7.538922e-002
3.118462e+003;7.560673e-002
3.120391e+003;7.624865e-002
3.122319e+003;7.661535e-002
3.124248e+003;7.665326e-002
3.126176e+003;7.694975e-002
3.128105e+003;7.749091e-002
3.130033e+003;7.810695e-002
3.131962e+003;7.880542e-002
3.133890e+003;7.941258e-002
3.135819e+003;7.942046e-002
3.137748e+003;7.928681e-002
3.139676e+003;7.969668e-002
3.141605e+003;8.027456e-002
3.143533e+003;8.075300e-002
3.145462e+003;8.117116e-002
3.147390e+003;8.172341e-002
3.149319e+003;8.230796e-002
3.151247e+003;8.231650e-002
3.153176e+003;8.236327e-002
3.155104e+003;8.274126e-002
3.157033e+003;8.333377e-002
3.158962e+003;8.361048e-002
3.160890e+003;8.387060e-002
3.162819e+003;8.481048e-002
3.164747e+003;8.585954e-002
3.166676e+003;8.625905e-002
3.168604e+003;8.639765e-002
3.170533e+003;8.685528e-002
3.172461e+003;8.719326e-002
3.174390e+003;8.784804e-002
3.176319e+003;8.869097e-002
3.178247e+003;8.889533e-002
3.180176e+003;8.898141e-002
3.182104e+003;8.946393e-002
3.184033e+003;9.033635e-002
3.185961e+003;9.105254e-002
3.187890e+003;9.112589e-002
3.189818e+003;9.146168e-002
3.191747e+003;9.215772e-002
3.193676e+003;9.271769e-002
3.195604e+003;9.291840e-002
3.197532e+003;9.326031e-002
3.199461e+003;9.396270e-002
3.201390e+003;9.428163e-002
3.203318e+003;9.470871e-002
3.205247e+003;9.543924e-002
3.207175e+003;9.599131e-002
3.209104e+003;9.660520e-002
3.211032e+003;9.716970e-002
3.212961e+003;9.742796e-002
3.214889e+003;9.775065e-002
3.216818e+003;9.852881e-002
3.218747e+003;9.896716e-002
3.220675e+003;9.912707e-002
3.222604e+003;9.959449e-002
3.224532e+003;1.006825e-001
3.226461e+003;1.015117e-001
3.228389e+003;1.017436e-001
3.230318e+003;1.019512e-001
3.232246e+003;1.027835e-001
3.234175e+003;1.036347e-001
3.236104e+003;1.038208e-001
3.238032e+003;1.039531e-001
3.239961e+003;1.043798e-001
3.241889e+003;1.051168e-001
3.243818e+003;1.059726e-001
3.245746e+003;1.069455e-001
3.247675e+003;1.076483e-001
3.249603e+003;1.076683e-001
3.251532e+003;1.080514e-001
3.253460e+003;1.088495e-001
3.255389e+003;1.095344e-001
3.257318e+003;1.102773e-001
3.259246e+003;1.113431e-001
3.261175e+003;1.119163e-001
3.263103e+003;1.121931e-001
3.265032e+003;1.127233e-001
3.266960e+003;1.129897e-001
3.268889e+003;1.130307e-001
3.270817e+003;1.130321e-001
3.272746e+003;1.132912e-001
3.274675e+003;1.137765e-001
3.276603e+003;1.142476e-001
3.278531e+003;1.146344e-001
3.280460e+003;1.150176e-001
3.282389e+003;1.155014e-001
3.284317e+003;1.157767e-001
3.286246e+003;1.161933e-001
3.288174e+003;1.168857e-001
3.290103e+003;1.170219e-001
3.292031e+003;1.169966e-001
3.293960e+003;1.171941e-001
3.295888e+003;1.172575e-001
3.297817e+003;1.173212e-001
3.299746e+003;1.177884e-001
3.301674e+003;1.183491e-001
3.303603e+003;1.183495e-001
3.305531e+003;1.181641e-001
3.307460e+003;1.181685e-001
3.309388e+003;1.188057e-001
3.311317e+003;1.193599e-001
3.313245e+003;1.192714e-001
3.315174e+003;1.192289e-001
3.317103e+003;1.194184e-001
3.319031e+003;1.197887e-001
3.320960e+003;1.205406e-001
3.322888e+003;1.212305e-001
3.324817e+003;1.212494e-001
3.326745e+003;1.212971e-001
3.328674e+003;1.213694e-001
3.330602e+003;1.212217e-001
3.332531e+003;1.211302e-001
3.334459e+003;1.212430e-001
3.336388e+003;1.214625e-001
3.338317e+003;1.218878e-001
3.340245e+003;1.223128e-001
3.342174e+003;1.223379e-001
3.344102e+003;1.220072e-001
3.346031e+003;1.214207e-001
3.347959e+003;1.210406e-001
3.349888e+003;1.208405e-001
3.351816e+003;1.202294e-001
3.353745e+003;1.202643e-001
3.355674e+003;1.208683e-001
3.357602e+003;1.206905e-001
3.359531e+003;1.195970e-001
3.361459e+003;1.190934e-001
3.363388e+003;1.194044e-001
3.365316e+003;1.193496e-001
3.367245e+003;1.187818e-001
3.369173e+003;1.186914e-001
3.371102e+003;1.192757e-001
3.373031e+003;1.195479e-001
3.374959e+003;1.188900e-001
3.376887e+003;1.182761e-001
3.378816e+003;1.177242e-001
3.380745e+003;1.175551e-001
3.382673e+003;1.175286e-001
3.384602e+003;1.174242e-001
3.386530e+003;1.177345e-001
3.388459e+003;1.179206e-001
3.390387e+003;1.171529e-001
3.392316e+003;1.163693e-001
3.394244e+003;1.161883e-001
3.396173e+003;1.160384e-001
3.398102e+003;1.157189e-001
3.400030e+003;1.155005e-001
3.401959e+003;1.150945e-001
3.403887e+003;1.142337e-001
3.405816e+003;1.140814e-001
3.407744e+003;1.138571e-001
3.409673e+003;1.129918e-001
3.411601e+003;1.125745e-001
3.413530e+003;1.127123e-001
3.415458e+003;1.120636e-001
3.417387e+003;1.110228e-001
3.419316e+003;1.111029e-001
3.421244e+003;1.108801e-001
3.423173e+003;1.100006e-001
3.425101e+003;1.095150e-001
3.427030e+003;1.088156e-001
3.428958e+003;1.085541e-001
3.430887e+003;1.083904e-001
3.432815e+003;1.076537e-001
3.434744e+003;1.072207e-001
3.436673e+003;1.065921e-001
3.438601e+003;1.056702e-001
3.440530e+003;1.051108e-001
3.442458e+003;1.045862e-001
3.444387e+003;1.041363e-001
3.446315e+003;1.034055e-001
3.448244e+003;1.028919e-001
3.450172e+003;1.027783e-001
3.452101e+003;1.019225e-001
3.454030e+003;1.009416e-001
3.455958e+003;1.009974e-001
3.457886e+003;1.004897e-001
3.459815e+003;9.938616e-002
3.461744e+003;9.893994e-002
3.463672e+003;9.840577e-002
3.465601e+003;9.728164e-002
3.467529e+003;9.657425e-002
3.469458e+003;9.614968e-002
3.471386e+003;9.545666e-002
3.473315e+003;9.473228e-002
3.475243e+003;9.423779e-002
3.477172e+003;9.354696e-002
3.479101e+003;9.287003e-002
3.481029e+003;9.204627e-002
3.482958e+003;9.165883e-002
3.484886e+003;9.156694e-002
3.486815e+003;9.076974e-002
3.488743e+003;8.974930e-002
3.490672e+003;8.942745e-002
3.492600e+003;8.912858e-002
3.494529e+003;8.843643e-002
3.496458e+003;8.750515e-002
3.498386e+003;8.665857e-002
3.500315e+003;8.568574e-002
3.502243e+003;8.494801e-002
3.504172e+003;8.430132e-002
3.506100e+003;8.359003e-002
3.508029e+003;8.253894e-002
3.509957e+003;8.148027e-002
3.511886e+003;8.105279e-002
3.513814e+003;8.057609e-002
3.515743e+003;7.980756e-002
3.517672e+003;7.887900e-002
3.519600e+003;7.838178e-002
3.521529e+003;7.809192e-002
3.523457e+003;7.746533e-002
3.525386e+003;7.664428e-002
3.527314e+003;7.577495e-002
3.529243e+003;7.463410e-002
3.531171e+003;7.369629e-002
3.533100e+003;7.342646e-002
3.535029e+003;7.341680e-002
3.536957e+003;7.291310e-002
3.538885e+003;7.214602e-002
3.540814e+003;7.108091e-002
3.542743e+003;6.976966e-002
3.544671e+003;6.875157e-002
3.546600e+003;6.820866e-002
3.548528e+003;6.773160e-002
3.550457e+003;6.699155e-002
3.552385e+003;6.650613e-002
3.554314e+003;6.625214e-002
3.556242e+003;6.559406e-002
3.558171e+003;6.426495e-002
3.560100e+003;6.320520e-002
3.562028e+003;6.319221e-002
3.563957e+003;6.271584e-002
3.565885e+003;6.184668e-002
3.567814e+003;6.126956e-002
3.569742e+003;6.083417e-002
3.571671e+003;5.973906e-002
3.573599e+003;5.886810e-002
3.575528e+003;5.873805e-002
3.577457e+003;5.812780e-002
3.579385e+003;5.730134e-002
3.581314e+003;5.717644e-002
3.583242e+003;5.669401e-002
3.585171e+003;5.573140e-002
3.587099e+003;5.519209e-002
3.589028e+003;5.466470e-002
3.590956e+003;5.367230e-002
3.592885e+003;5.260776e-002
3.594813e+003;5.227651e-002
3.596742e+003;5.224098e-002
3.598671e+003;5.152784e-002
3.600599e+003;5.089206e-002
3.602528e+003;5.048578e-002
3.604456e+003;5.026706e-002
3.606385e+003;4.958788e-002
3.608313e+003;4.904328e-002
3.610242e+003;4.871418e-002
3.612170e+003;4.827930e-002
3.614099e+003;4.763568e-002
3.616028e+003;4.700926e-002
3.617956e+003;4.667937e-002
3.619885e+003;4.651154e-002
3.621813e+003;4.596400e-002
3.623742e+003;4.564956e-002
3.625670e+003;4.510844e-002
3.627599e+003;4.445019e-002
3.629527e+003;4.426285e-002
3.631456e+003;4.431499e-002
3.633385e+003;4.359126e-002
3.635313e+003;4.278138e-002
3.637241e+003;4.242429e-002
3.639170e+003;4.194774e-002
3.641099e+003;4.124493e-002
3.643027e+003;4.079759e-002
3.644956e+003;4.035606e-002
3.646884e+003;3.944843e-002
3.648813e+003;3.838637e-002
3.650741e+003;3.788195e-002
3.652670e+003;3.750914e-002
3.654598e+003;3.657190e-002
3.656527e+003;3.588600e-002
3.658456e+003;3.566228e-002
3.660384e+003;3.501057e-002
3.662313e+003;3.416608e-002
3.664241e+003;3.308234e-002
3.666170e+003;3.227127e-002
3.668098e+003;3.193556e-002
3.670027e+003;3.161240e-002
3.671955e+003;3.093268e-002
3.673884e+003;3.011067e-002
3.675813e+003;2.952670e-002
3.677741e+003;2.916249e-002
3.679669e+003;2.886373e-002
3.681598e+003;2.843175e-002
3.683527e+003;2.782152e-002
3.685455e+003;2.741239e-002
3.687384e+003;2.694258e-002
3.689312e+003;2.631156e-002
3.691241e+003;2.640246e-002
3.693169e+003;2.653167e-002
3.695098e+003;2.644303e-002
3.697026e+003;2.601538e-002
3.698955e+003;2.561762e-002
3.700884e+003;2.548376e-002
3.702812e+003;2.535778e-002
3.704741e+003;2.503765e-002
3.706669e+003;2.478532e-002
3.708598e+003;2.461136e-002
3.710526e+003;2.397485e-002
3.712455e+003;2.359056e-002
3.714383e+003;2.374224e-002
3.716312e+003;2.335763e-002
3.718240e+003;2.304281e-002
3.720169e+003;2.319976e-002
3.722098e+003;2.326631e-002
3.724026e+003;2.298133e-002
3.725955e+003;2.289829e-002
3.727883e+003;2.300417e-002
3.729812e+003;2.279775e-002
3.731740e+003;2.273399e-002
3.733669e+003;2.296208e-002
3.735597e+003;2.218677e-002
3.737526e+003;2.131577e-002
3.739455e+003;2.163066e-002
3.741383e+003;2.232470e-002
3.743312e+003;2.193358e-002
3.745240e+003;2.150540e-002
3.747169e+003;2.179956e-002
3.749097e+003;2.136143e-002
3.751026e+003;2.105060e-002
3.752954e+003;2.166468e-002
3.754883e+003;2.253160e-002
3.756812e+003;2.268930e-002
3.758740e+003;2.245113e-002
3.760668e+003;2.201928e-002
3.762597e+003;2.171686e-002
3.764526e+003;2.160144e-002
3.766454e+003;2.134824e-002
3.768383e+003;2.156296e-002
3.770311e+003;2.175587e-002
3.772240e+003;2.157187e-002
3.774168e+003;2.156320e-002
3.776097e+003;2.162958e-002
3.778025e+003;2.180458e-002
3.779954e+003;2.148967e-002
3.781883e+003;2.121496e-002
3.783811e+003;2.131817e-002
3.785740e+003;2.169854e-002
3.787668e+003;2.218000e-002
3.789597e+003;2.238387e-002
3.791525e+003;2.233866e-002
3.793454e+003;2.204170e-002
3.795382e+003;2.204006e-002
3.797311e+003;2.201273e-002
3.799240e+003;2.187900e-002
3.801168e+003;2.147070e-002
3.803097e+003;2.164591e-002
3.805025e+003;2.196968e-002
3.806954e+003;2.185026e-002
3.808882e+003;2.221679e-002
3.810811e+003;2.237703e-002
3.812739e+003;2.219235e-002
3.814668e+003;2.175859e-002
3.816596e+003;2.143038e-002
3.818525e+003;2.156773e-002
3.820454e+003;2.110764e-002
3.822382e+003;2.115902e-002
3.824311e+003;2.204208e-002
3.826239e+003;2.241614e-002
3.828168e+003;2.210786e-002
3.830096e+003;2.190970e-002
3.832025e+003;2.200213e-002
3.833953e+003;2.207589e-002
3.835882e+003;2.148086e-002
3.837811e+003;2.120240e-002
3.839739e+003;2.187099e-002
3.841667e+003;2.226077e-002
3.843596e+003;2.266902e-002
3.845525e+003;2.297420e-002
3.847453e+003;2.254312e-002
3.849382e+003;2.182193e-002
3.851310e+003;2.136773e-002
3.853239e+003;2.133853e-002
3.855167e+003;2.192782e-002
3.857096e+003;2.269845e-002
3.859024e+003;2.296351e-002
3.860953e+003;2.300638e-002
3.862882e+003;2.283340e-002
3.864810e+003;2.223364e-002
3.866739e+003;2.205637e-002
3.868667e+003;2.225243e-002
3.870596e+003;2.242078e-002
3.872524e+003;2.303450e-002
3.874453e+003;2.323758e-002
3.876381e+003;2.334732e-002
3.878310e+003;2.377318e-002
3.880239e+003;2.363118e-002
3.882167e+003;2.314244e-002
3.884096e+003;2.341676e-002
3.886024e+003;2.373615e-002
3.887953e+003;2.400069e-002
3.889881e+003;2.419977e-002
3.891810e+003;2.397499e-002
3.893738e+003;2.429223e-002
3.895667e+003;2.461430e-002
3.897595e+003;2.423270e-002
3.899524e+003;2.426921e-002
3.901453e+003;2.480251e-002
3.903381e+003;2.498227e-002
3.905310e+003;2.533744e-002
3.907238e+003;2.538412e-002
3.909167e+003;2.506282e-002
3.911095e+003;2.463187e-002
3.913024e+003;2.445534e-002
3.914952e+003;2.468216e-002
3.916881e+003;2.512218e-002
3.918810e+003;2.525989e-002
3.920738e+003;2.547659e-002
3.922667e+003;2.551560e-002
3.924595e+003;2.495566e-002
3.926524e+003;2.515648e-002
3.928452e+003;2.543397e-002
3.930381e+003;2.523921e-002
3.932309e+003;2.541764e-002
3.934238e+003;2.576048e-002
3.936167e+003;2.575963e-002
3.938095e+003;2.568089e-002
3.940023e+003;2.604497e-002
3.941952e+003;2.633363e-002
3.943881e+003;2.620673e-002
3.945809e+003;2.613118e-002
3.947738e+003;2.584128e-002
3.949666e+003;2.615697e-002
3.951595e+003;2.637926e-002
3.953523e+003;2.652371e-002
3.955452e+003;2.658391e-002
3.957380e+003;2.596793e-002
3.959309e+003;2.606137e-002
3.961238e+003;2.690197e-002
3.963166e+003;2.740092e-002
3.965095e+003;2.709029e-002
3.967023e+003;2.707808e-002
3.968952e+003;2.741631e-002
3.970880e+003;2.730878e-002
3.972809e+003;2.710189e-002
3.974737e+003;2.665228e-002
3.976666e+003;2.697699e-002
3.978594e+003;2.780375e-002
3.980523e+003;2.747610e-002
3.982452e+003;2.716686e-002
3.984380e+003;2.755599e-002
3.986309e+003;2.739354e-002
3.988237e+003;2.714816e-002
3.990166e+003;2.724616e-002
3.992094e+003;2.719829e-002
3.994023e+003;2.706045e-002
3.995951e+003;2.727562e-002
3.997880e+003;2.791896e-002
3.999809e+003;2.732667e-002
4.001737e+003;0.000000e+000
