3.992094e+002;0.000000e+000
4.011380e+002;0.000000e+000
4.030665e+002;0.000000e+000
4.049951e+002;0.000000e+000
4.069236e+002;0.000000e+000
4.088522e+002;0.000000e+000
4.107807e+002;0.000000e+000
4.127093e+002;0.000000e+000
4.146378e+002;0.000000e+000
4.165664e+002;0.000000e+000
4.184949e+002;0.000000e+000
4.204235e+002;0.000000e+000
4.223520e+002;0.000000e+000
4.242806e+002;0.000000e+000
4.262091e+002;0.000000e+000
4.281377e+002;0.000000e+000
4.300662e+002;0.000000e+000
4.319948e+002;0.000000e+000
4.339233e+002;0.000000e+000
4.358519e+002;0.000000e+000
4.377804e+002;0.000000e+000
4.397090e+002;0.000000e+000
4.416375e+002;0.000000e+000
4.435660e+002;0.000000e+000
4.454946e+002;0.000000e+000
4.474232e+002;0.000000e+000
4.493517e+002;0.000000e+000
4.512802e+002;0.000000e+000
4.532088e+002;0.000000e+000
4.551373e+002;0.000000e+000
4.570659e+002;0.000000e+000
4.589944e+002;0.000000e+000
4.609230e+002;0.000000e+000
4.628515e+002;0.000000e+000
4.647801e+002;0.000000e+000
4.667086e+002;0.000000e+000
4.686372e+002;0.000000e+000
4.705657e+002;0.000000e+000
4.724943e+002;0.000000e+000
4.744228e+002;0.000000e+000
4.763513e+002;0.000000e+000
4.782799e+002;0.000000e+000
4.802085e+002;0.000000e+000
4.821370e+002;0.000000e+000
4.840656e+002;0.000000e+000
4.859941e+002;0.000000e+000
4.879226e+002;0.000000e+000
4.898512e+002;0.000000e+000
4.917798e+002;0.000000e+000
4.937083e+002;0.000000e+000
4.956368e+002;0.000000e+000
4.975654e+002;0.000000e+000
4.994939e+002;0.000000e+000
5.014225e+002;0.000000e+000
5.033510e+002;0.000000e+000
5.052796e+002;0.000000e+000
5.072081e+002;0.000000e+000
5.091367e+002;0.000000e+000
5.110652e+002;0.000000e+000
5.129938e+002;0.000000e+000
5.149223e+002;0.000000e+000
5.168509e+002;0.000000e+000
5.187794e+002;0.000000e+000
5.207079e+002;0.000000e+000
5.226365e+002;0.000000e+000
5.245651e+002;0.000000e+000
5.264936e+002;0.000000e+000
5.284222e+002;0.000000e+000
5.303507e+002;0.000000e+000
5.322792e+002;0.000000e+000
5.342078e+002;0.000000e+000
5.361364e+002;0.000000e+000
5.380649e+002;0.000000e+000
5.399935e+002;0.000000e+000
5.419220e+002;0.000000e+000
5.438505e+002;0.000000e+000
5.457791e+002;0.000000e+000
5.477076e+002;0.000000e+000
5.496362e+002;0.000000e+000
5.515648e+002;0.000000e+000
5.534933e+002;0.000000e+000
5.554218e+002;0.000000e+000
5.573504e+002;0.000000e+000
5.592789e+002;0.000000e+000
5.612075e+002;0.000000e+000
5.631360e+002;0.000000e+000
5.650646e+002;0.000000e+000
5.669931e+002;0.000000e+000
5.689217e+002;0.000000e+000
5.708502e+002;0.000000e+000
5.727787e+002;0.000000e+000
5.747073e+002;0.000000e+000
5.766359e+002;0.000000e+000
5.785644e+002;0.000000e+000
5.804930e+002;0.000000e+000
5.824215e+002;0.000000e+000
5.843500e+002;0.000000e+000
5.862786e+002;0.000000e+000
5.882072e+002;0.000000e+000
5.901357e+002;0.000000e+000
5.920643e+002;0.000000e+000
5.939928e+002;0.000000e+000
5.959213e+002;0.000000e+000
5.978499e+002;0.000000e+000
5.997784e+002;1.717441e-001
6.017070e+002;1.803983e-001
6.036355e+002;1.885931e-001
6.055641e+002;1.879125e-001
6.074926e+002;1.844930e-001
6.094211e+002;1.736466e-001
6.113497e+002;1.704340e-001
6.132783e+002;1.750361e-001
6.152068e+002;1.754988e-001
6.171354e+002;1.743590e-001
6.190639e+002;1.688519e-001
6.209924e+002;1.689850e-001
6.229210e+002;1.733314e-001
6.248495e+002;1.714776e-001
6.267781e+002;1.691228e-001
6.287067e+002;1.658796e-001
6.306352e+002;1.651812e-001
6.325637e+002;1.647009e-001
6.344923e+002;1.633364e-001
6.364208e+002;1.631290e-001
6.383494e+002;1.630635e-001
6.402780e+002;1.641964e-001
6.422065e+002;1.613804e-001
6.441350e+002;1.572109e-001
6.460636e+002;1.584886e-001
6.479921e+002;1.586223e-001
6.499207e+002;1.597579e-001
6.518492e+002;1.621557e-001
6.537778e+002;1.650032e-001
6.557063e+002;1.634636e-001
6.576349e+002;1.611944e-001
6.595634e+002;1.632829e-001
6.614919e+002;1.640502e-001
6.634205e+002;1.646152e-001
6.653491e+002;1.633370e-001
6.672776e+002;1.617027e-001
6.692062e+002;1.627388e-001
6.711347e+002;1.614781e-001
6.730632e+002;1.576376e-001
6.749918e+002;1.536124e-001
6.769203e+002;1.496761e-001
6.788489e+002;1.457814e-001
6.807775e+002;1.437429e-001
6.827060e+002;1.437520e-001
6.846345e+002;1.422438e-001
6.865631e+002;1.403721e-001
6.884916e+002;1.413891e-001
6.904202e+002;1.424808e-001
6.923488e+002;1.416987e-001
6.942773e+002;1.405710e-001
6.962058e+002;1.403937e-001
6.981344e+002;1.397258e-001
7.000629e+002;1.381499e-001
7.019915e+002;1.371821e-001
7.039200e+002;1.372682e-001
7.058486e+002;1.372272e-001
7.077771e+002;1.363471e-001
7.097057e+002;1.346343e-001
7.116342e+002;1.335770e-001
7.135627e+002;1.330874e-001
7.154913e+002;1.323106e-001
7.174199e+002;1.312746e-001
7.193484e+002;1.301626e-001
7.212770e+002;1.291325e-001
7.232055e+002;1.288100e-001
7.251340e+002;1.270618e-001
7.270626e+002;1.247421e-001
7.289911e+002;1.231827e-001
7.309197e+002;1.207238e-001
7.328483e+002;1.193522e-001
7.347768e+002;1.194050e-001
7.367053e+002;1.181672e-001
7.386339e+002;1.163125e-001
7.405624e+002;1.148367e-001
7.424910e+002;1.139267e-001
7.444196e+002;1.136405e-001
7.463481e+002;1.142190e-001
7.482766e+002;1.142740e-001
7.502052e+002;1.133999e-001
7.521337e+002;1.128164e-001
7.540623e+002;1.128059e-001
7.559908e+002;1.124248e-001
7.579194e+002;1.112832e-001
7.598479e+002;1.105023e-001
7.617765e+002;1.099127e-001
7.637050e+002;1.094837e-001
7.656335e+002;1.093338e-001
7.675621e+002;1.088952e-001
7.694907e+002;1.077333e-001
7.714192e+002;1.074604e-001
7.733478e+002;1.075293e-001
7.752763e+002;1.072388e-001
7.772048e+002;1.069831e-001
7.791334e+002;1.068303e-001
7.810620e+002;1.066045e-001
7.829905e+002;1.060307e-001
7.849191e+002;1.049332e-001
7.868476e+002;1.050303e-001
7.887761e+002;1.057984e-001
7.907047e+002;1.052291e-001
7.926332e+002;1.041644e-001
7.945618e+002;1.033491e-001
7.964903e+002;1.029126e-001
7.984189e+002;1.035256e-001
8.003474e+002;1.043604e-001
8.022759e+002;1.041803e-001
8.042045e+002;1.037008e-001
8.061331e+002;1.044301e-001
8.080616e+002;1.051681e-001
8.099902e+002;1.049682e-001
8.119187e+002;1.046091e-001
8.138472e+002;1.057842e-001
8.157758e+002;1.060316e-001
8.177043e+002;1.054230e-001
8.196329e+002;1.056588e-001
8.215615e+002;1.066083e-001
8.234900e+002;1.067310e-001
8.254185e+002;1.067420e-001
8.273471e+002;1.065493e-001
8.292756e+002;1.066574e-001
8.312042e+002;1.066466e-001
8.331328e+002;1.066588e-001
8.350613e+002;1.065515e-001
8.369898e+002;1.058274e-001
8.389184e+002;1.059532e-001
8.408469e+002;1.065702e-001
8.427755e+002;1.066546e-001
8.447040e+002;1.060325e-001
8.466326e+002;1.053028e-001
8.485611e+002;1.054451e-001
8.504897e+002;1.062620e-001
8.524182e+002;1.065957e-001
8.543467e+002;1.069393e-001
8.562753e+002;1.073535e-001
8.582039e+002;1.076901e-001
8.601324e+002;1.081418e-001
8.620610e+002;1.091786e-001
8.639895e+002;1.101041e-001
8.659180e+002;1.112043e-001
8.678466e+002;1.125493e-001
8.697751e+002;1.136944e-001
8.717037e+002;1.155079e-001
8.736323e+002;1.172174e-001
8.755608e+002;1.185035e-001
8.774893e+002;1.197595e-001
8.794179e+002;1.212627e-001
8.813464e+002;1.233351e-001
8.832750e+002;1.256330e-001
8.852036e+002;1.278894e-001
8.871321e+002;1.298034e-001
8.890606e+002;1.317388e-001
8.909892e+002;1.335655e-001
8.929177e+002;1.349891e-001
8.948463e+002;1.357260e-001
8.967748e+002;1.360984e-001
8.987034e+002;1.361741e-001
9.006319e+002;1.354684e-001
9.025605e+002;1.336401e-001
9.044890e+002;1.317927e-001
9.064175e+002;1.304281e-001
9.083461e+002;1.292666e-001
9.102747e+002;1.286956e-001
9.122032e+002;1.282403e-001
9.141318e+002;1.278254e-001
9.160603e+002;1.278147e-001
9.179888e+002;1.278896e-001
9.199174e+002;1.276195e-001
9.218459e+002;1.279388e-001
9.237745e+002;1.292658e-001
9.257031e+002;1.303567e-001
9.276316e+002;1.312390e-001
9.295601e+002;1.323852e-001
9.314887e+002;1.334132e-001
9.334172e+002;1.342764e-001
9.353458e+002;1.356664e-001
9.372744e+002;1.373043e-001
9.392029e+002;1.388071e-001
9.411314e+002;1.405512e-001
9.430600e+002;1.425821e-001
9.449885e+002;1.456144e-001
9.469171e+002;1.486015e-001
9.488456e+002;1.513829e-001
9.507742e+002;1.551722e-001
9.527027e+002;1.587441e-001
9.546313e+002;1.616923e-001
9.565598e+002;1.650564e-001
9.584883e+002;1.688510e-001
9.604169e+002;1.725636e-001
9.623455e+002;1.758019e-001
9.642740e+002;1.786441e-001
9.662026e+002;1.815852e-001
9.681311e+002;1.851985e-001
9.700596e+002;1.891016e-001
9.719882e+002;1.936085e-001
9.739167e+002;1.978570e-001
9.758453e+002;2.022575e-001
9.777739e+002;2.073110e-001
9.797024e+002;2.121441e-001
9.816309e+002;2.161972e-001
9.835595e+002;2.201615e-001
9.854880e+002;2.235024e-001
9.874166e+002;2.254858e-001
9.893452e+002;2.268618e-001
9.912737e+002;2.277952e-001
9.932022e+002;2.286404e-001
9.951307e+002;2.300326e-001
9.970593e+002;2.316663e-001
9.989879e+002;2.330095e-001
1.000916e+003;2.344036e-001
1.002845e+003;2.361900e-001
1.004773e+003;2.383239e-001
1.006702e+003;2.410922e-001
1.008631e+003;2.437080e-001
1.010559e+003;2.457784e-001
1.012488e+003;2.475049e-001
1.014416e+003;2.491528e-001
1.016345e+003;2.504208e-001
1.018273e+003;2.517820e-001
1.020202e+003;2.529718e-001
1.022130e+003;2.529466e-001
1.024059e+003;2.530065e-001
1.025988e+003;2.530915e-001
1.027916e+003;2.532190e-001
1.029845e+003;2.531813e-001
1.031773e+003;2.518947e-001
1.033702e+003;2.501371e-001
1.035630e+003;2.483494e-001
1.037559e+003;2.457164e-001
1.039487e+003;2.435832e-001
1.041416e+003;2.416123e-001
1.043344e+003;2.395914e-001
1.045273e+003;2.380876e-001
1.047202e+003;2.363368e-001
1.049130e+003;2.342828e-001
1.051059e+003;2.321644e-001
1.052987e+003;2.303637e-001
1.054916e+003;2.276208e-001
1.056844e+003;2.237686e-001
1.058773e+003;2.193799e-001
1.060701e+003;2.147475e-001
1.062630e+003;2.099510e-001
1.064558e+003;2.054904e-001
1.066487e+003;2.018428e-001
1.068416e+003;1.979928e-001
1.070344e+003;1.942082e-001
1.072273e+003;1.913407e-001
1.074201e+003;1.887129e-001
1.076130e+003;1.863109e-001
1.078058e+003;1.838530e-001
1.079987e+003;1.814119e-001
1.081915e+003;1.797457e-001
1.083844e+003;1.788803e-001
1.085773e+003;1.776647e-001
1.087701e+003;1.764119e-001
1.089630e+003;1.754549e-001
1.091558e+003;1.746704e-001
1.093487e+003;1.749312e-001
1.095415e+003;1.755074e-001
1.097344e+003;1.753270e-001
1.099272e+003;1.749063e-001
1.101201e+003;1.739168e-001
1.103129e+003;1.717737e-001
1.105058e+003;1.694879e-001
1.106987e+003;1.664712e-001
1.108915e+003;1.626017e-001
1.110844e+003;1.589230e-001
1.112772e+003;1.550250e-001
1.114701e+003;1.510376e-001
1.116629e+003;1.471867e-001
1.118558e+003;1.436715e-001
1.120486e+003;1.401818e-001
1.122415e+003;1.367003e-001
1.124344e+003;1.336114e-001
1.126272e+003;1.307735e-001
1.128201e+003;1.273920e-001
1.130129e+003;1.238872e-001
1.132058e+003;1.214108e-001
1.133986e+003;1.193888e-001
1.135915e+003;1.174651e-001
1.137843e+003;1.158953e-001
1.139772e+003;1.150055e-001
1.141700e+003;1.149881e-001
1.143629e+003;1.154029e-001
1.145557e+003;1.163422e-001
1.147486e+003;1.173498e-001
1.149415e+003;1.171641e-001
1.151343e+003;1.170188e-001
1.153272e+003;1.177171e-001
1.155200e+003;1.178158e-001
1.157129e+003;1.174274e-001
1.159057e+003;1.167234e-001
1.160986e+003;1.152636e-001
1.162914e+003;1.132067e-001
1.164843e+003;1.107449e-001
1.166771e+003;1.077716e-001
1.168700e+003;1.047176e-001
1.170629e+003;1.011340e-001
1.172557e+003;9.744268e-002
1.174486e+003;9.466079e-002
1.176414e+003;9.201875e-002
1.178343e+003;8.899686e-002
1.180271e+003;8.721574e-002
1.182200e+003;8.656724e-002
1.184128e+003;8.614320e-002
1.186057e+003;8.606906e-002
1.187986e+003;8.628686e-002
1.189914e+003;8.710724e-002
1.191843e+003;8.848473e-002
1.193771e+003;8.967043e-002
1.195700e+003;9.157438e-002
1.197628e+003;9.374563e-002
1.199557e+003;9.570441e-002
1.201485e+003;9.744197e-002
1.203414e+003;9.869958e-002
1.205343e+003;9.971149e-002
1.207271e+003;1.001842e-001
1.209200e+003;1.007767e-001
1.211128e+003;1.025061e-001
1.213057e+003;1.044280e-001
1.214985e+003;1.062988e-001
1.216914e+003;1.087659e-001
1.218842e+003;1.115220e-001
1.220771e+003;1.140895e-001
1.222699e+003;1.165631e-001
1.224628e+003;1.190275e-001
1.226557e+003;1.212795e-001
1.228485e+003;1.230600e-001
1.230414e+003;1.246535e-001
1.232342e+003;1.258212e-001
1.234271e+003;1.266388e-001
1.236199e+003;1.272031e-001
1.238128e+003;1.269160e-001
1.240056e+003;1.262972e-001
1.241985e+003;1.256137e-001
1.243913e+003;1.247004e-001
1.245842e+003;1.239309e-001
1.247771e+003;1.227036e-001
1.249699e+003;1.212167e-001
1.251628e+003;1.200068e-001
1.253556e+003;1.186780e-001
1.255485e+003;1.172903e-001
1.257413e+003;1.157793e-001
1.259342e+003;1.142254e-001
1.261270e+003;1.122619e-001
1.263199e+003;1.101234e-001
1.265127e+003;1.081725e-001
1.267056e+003;1.059415e-001
1.268985e+003;1.038914e-001
1.270913e+003;1.022964e-001
1.272842e+003;1.007169e-001
1.274770e+003;9.925885e-002
1.276699e+003;9.783971e-002
1.278627e+003;9.657321e-002
1.280556e+003;9.534989e-002
1.282484e+003;9.402515e-002
1.284413e+003;9.298375e-002
1.286342e+003;9.210816e-002
1.288270e+003;9.158453e-002
1.290199e+003;9.169300e-002
1.292127e+003;9.215006e-002
1.294056e+003;9.234330e-002
1.295984e+003;9.296101e-002
1.297913e+003;9.385304e-002
1.299841e+003;9.514433e-002
1.301770e+003;9.691022e-002
1.303698e+003;9.857155e-002
1.305627e+003;1.000332e-001
1.307556e+003;1.018881e-001
1.309484e+003;1.040522e-001
1.311413e+003;1.055958e-001
1.313341e+003;1.064432e-001
1.315270e+003;1.068980e-001
1.317198e+003;1.069861e-001
1.319127e+003;1.064755e-001
1.321055e+003;1.055856e-001
1.322984e+003;1.045693e-001
1.324912e+003;1.035141e-001
1.326841e+003;1.027369e-001
1.328770e+003;1.021978e-001
1.330698e+003;1.018470e-001
1.332627e+003;1.016917e-001
1.334555e+003;1.014539e-001
1.336484e+003;1.006204e-001
1.338412e+003;9.928408e-002
1.340341e+003;9.826943e-002
1.342269e+003;9.735660e-002
1.344198e+003;9.654379e-002
1.346126e+003;9.600673e-002
1.348055e+003;9.568846e-002
1.349984e+003;9.546108e-002
1.351912e+003;9.555575e-002
1.353841e+003;9.635054e-002
1.355769e+003;9.735005e-002
1.357698e+003;9.845020e-002
1.359626e+003;9.965008e-002
1.361555e+003;1.006625e-001
1.363483e+003;1.010797e-001
1.365412e+003;1.011241e-001
1.367341e+003;1.008991e-001
1.369269e+003;1.007500e-001
1.371198e+003;1.003985e-001
1.373126e+003;9.963921e-002
1.375055e+003;9.822676e-002
1.376983e+003;9.653431e-002
1.378912e+003;9.506291e-002
1.380840e+003;9.322331e-002
1.382769e+003;9.120257e-002
1.384698e+003;8.991319e-002
1.386626e+003;8.864246e-002
1.388555e+003;8.739378e-002
1.390483e+003;8.661374e-002
1.392412e+003;8.636596e-002
1.394340e+003;8.648781e-002
1.396269e+003;8.669538e-002
1.398197e+003;8.679297e-002
1.400126e+003;8.714928e-002
1.402054e+003;8.769523e-002
1.403983e+003;8.845553e-002
1.405911e+003;8.938996e-002
1.407840e+003;9.023368e-002
1.409769e+003;9.097033e-002
1.411697e+003;9.209497e-002
1.413626e+003;9.341629e-002
1.415554e+003;9.409284e-002
1.417483e+003;9.470129e-002
1.419411e+003;9.564667e-002
1.421340e+003;9.620669e-002
1.423268e+003;9.622517e-002
1.425197e+003;9.604529e-002
1.427125e+003;9.553097e-002
1.429054e+003;9.475762e-002
1.430983e+003;9.391272e-002
1.432911e+003;9.258161e-002
1.434840e+003;9.125955e-002
1.436768e+003;9.027949e-002
1.438697e+003;8.936830e-002
1.440625e+003;8.817283e-002
1.442554e+003;8.721250e-002
1.444482e+003;8.650564e-002
1.446411e+003;8.553874e-002
1.448340e+003;8.494789e-002
1.450268e+003;8.452567e-002
1.452197e+003;8.392181e-002
1.454125e+003;8.308981e-002
1.456054e+003;8.197861e-002
1.457982e+003;8.103969e-002
1.459911e+003;8.052772e-002
1.461839e+003;7.968923e-002
1.463768e+003;7.848141e-002
1.465697e+003;7.708312e-002
1.467625e+003;7.538461e-002
1.469554e+003;7.308338e-002
1.471482e+003;7.032960e-002
1.473411e+003;6.783117e-002
1.475339e+003;6.572769e-002
1.477268e+003;6.363764e-002
1.479196e+003;6.184244e-002
1.481125e+003;6.051841e-002
1.483053e+003;5.947821e-002
1.484982e+003;5.831792e-002
1.486911e+003;5.732890e-002
1.488839e+003;5.682334e-002
1.490768e+003;5.641717e-002
1.492696e+003;5.640970e-002
1.494625e+003;5.634187e-002
1.496553e+003;5.657801e-002
1.498482e+003;5.708566e-002
1.500410e+003;5.724584e-002
1.502339e+003;5.727907e-002
1.504267e+003;5.675638e-002
1.506196e+003;5.612079e-002
1.508125e+003;5.604482e-002
1.510053e+003;5.594301e-002
1.511982e+003;5.557716e-002
1.513910e+003;5.486519e-002
1.515839e+003;5.413397e-002
1.517767e+003;5.353015e-002
1.519696e+003;5.262661e-002
1.521624e+003;5.174212e-002
1.523553e+003;5.138162e-002
1.525481e+003;5.141698e-002
1.527410e+003;5.154157e-002
1.529339e+003;5.176974e-002
1.531267e+003;5.189201e-002
1.533196e+003;5.172096e-002
1.535124e+003;5.174921e-002
1.537053e+003;5.203661e-002
1.538981e+003;5.217024e-002
1.540910e+003;5.253072e-002
1.542838e+003;5.332660e-002
1.544767e+003;5.376945e-002
1.546695e+003;5.405253e-002
1.548624e+003;5.463618e-002
1.550553e+003;5.520635e-002
1.552481e+003;5.544651e-002
1.554410e+003;5.587600e-002
1.556338e+003;5.660436e-002
1.558267e+003;5.683014e-002
1.560195e+003;5.759755e-002
1.562124e+003;5.904996e-002
1.564052e+003;6.024320e-002
1.565981e+003;6.152874e-002
1.567910e+003;6.294414e-002
1.569838e+003;6.444056e-002
1.571767e+003;6.641547e-002
1.573695e+003;6.834212e-002
1.575624e+003;7.024184e-002
1.577552e+003;7.262036e-002
1.579481e+003;7.534271e-002
1.581409e+003;7.819985e-002
1.583338e+003;8.073408e-002
1.585266e+003;8.302606e-002
1.587195e+003;8.543276e-002
1.589124e+003;8.746506e-002
1.591052e+003;8.916064e-002
1.592981e+003;9.085146e-002
1.594909e+003;9.205327e-002
1.596838e+003;9.280671e-002
1.598766e+003;9.340564e-002
1.600695e+003;9.379908e-002
1.602623e+003;9.399915e-002
1.604552e+003;9.444061e-002
1.606480e+003;9.454844e-002
1.608409e+003;9.418914e-002
1.610338e+003;9.396759e-002
1.612266e+003;9.366694e-002
1.614195e+003;9.355032e-002
1.616123e+003;9.363212e-002
1.618052e+003;9.347286e-002
1.619980e+003;9.300017e-002
1.621909e+003;9.214601e-002
1.623837e+003;9.142966e-002
1.625766e+003;9.123711e-002
1.627694e+003;9.069199e-002
1.629623e+003;8.981864e-002
1.631552e+003;8.927827e-002
1.633480e+003;8.854246e-002
1.635409e+003;8.739581e-002
1.637337e+003;8.676432e-002
1.639266e+003;8.644014e-002
1.641194e+003;8.583983e-002
1.643123e+003;8.491183e-002
1.645051e+003;8.371645e-002
1.646980e+003;8.239427e-002
1.648909e+003;8.141844e-002
1.650837e+003;8.023375e-002
1.652766e+003;7.853838e-002
1.654694e+003;7.738874e-002
1.656623e+003;7.669144e-002
1.658551e+003;7.561071e-002
1.660480e+003;7.422540e-002
1.662408e+003;7.291945e-002
1.664337e+003;7.187667e-002
1.666266e+003;7.071351e-002
1.668194e+003;6.952892e-002
1.670123e+003;6.863894e-002
1.672051e+003;6.762829e-002
1.673980e+003;6.632231e-002
1.675908e+003;6.488977e-002
1.677837e+003;6.411952e-002
1.679765e+003;6.364850e-002
1.681694e+003;6.281324e-002
1.683622e+003;6.143266e-002
1.685551e+003;6.036872e-002
1.687479e+003;6.022345e-002
1.689408e+003;5.989448e-002
1.691337e+003;5.957519e-002
1.693265e+003;5.949694e-002
1.695194e+003;5.948817e-002
1.697122e+003;5.999136e-002
1.699051e+003;6.067263e-002
1.700979e+003;6.134927e-002
1.702908e+003;6.254552e-002
1.704836e+003;6.385387e-002
1.706765e+003;6.520195e-002
1.708693e+003;6.661732e-002
1.710622e+003;6.817016e-002
1.712551e+003;6.980351e-002
1.714479e+003;7.115533e-002
1.716408e+003;7.225171e-002
1.718336e+003;7.357177e-002
1.720265e+003;7.517163e-002
1.722193e+003;7.651120e-002
1.724122e+003;7.730682e-002
1.726050e+003;7.799024e-002
1.727979e+003;7.851833e-002
1.729908e+003;7.918409e-002
1.731836e+003;7.923161e-002
1.733765e+003;7.867728e-002
1.735693e+003;7.860877e-002
1.737622e+003;7.836206e-002
1.739550e+003;7.737013e-002
1.741479e+003;7.596215e-002
1.743407e+003;7.407345e-002
1.745336e+003;7.177945e-002
1.747265e+003;6.934285e-002
1.749193e+003;6.658387e-002
1.751122e+003;6.379884e-002
1.753050e+003;6.150454e-002
1.754979e+003;5.941221e-002
1.756907e+003;5.699736e-002
1.758836e+003;5.438821e-002
1.760764e+003;5.195374e-002
1.762693e+003;4.993436e-002
1.764621e+003;4.800074e-002
1.766550e+003;4.574766e-002
1.768479e+003;4.352624e-002
1.770407e+003;4.166742e-002
1.772336e+003;3.981855e-002
1.774264e+003;3.849432e-002
1.776193e+003;3.743427e-002
1.778121e+003;3.619258e-002
1.780050e+003;3.502120e-002
1.781978e+003;3.403834e-002
1.783907e+003;3.307708e-002
1.785835e+003;3.234523e-002
1.787764e+003;3.170617e-002
1.789693e+003;3.106026e-002
1.791621e+003;3.053511e-002
1.793550e+003;3.019151e-002
1.795478e+003;2.981729e-002
1.797407e+003;2.938557e-002
1.799335e+003;2.879762e-002
1.801264e+003;2.820374e-002
1.803192e+003;2.804936e-002
1.805121e+003;2.801847e-002
1.807049e+003;2.803851e-002
1.808978e+003;2.777398e-002
1.810907e+003;2.711176e-002
1.812835e+003;2.666888e-002
1.814764e+003;2.643535e-002
1.816692e+003;2.634666e-002
1.818621e+003;2.636461e-002
1.820549e+003;2.620328e-002
1.822478e+003;2.586424e-002
1.824406e+003;2.563793e-002
1.826335e+003;2.563997e-002
1.828264e+003;2.549497e-002
1.830192e+003;2.528300e-002
1.832121e+003;2.520114e-002
1.834049e+003;2.507447e-002
1.835978e+003;2.515469e-002
1.837906e+003;2.519430e-002
1.839835e+003;2.472562e-002
1.841763e+003;2.419382e-002
1.843692e+003;2.363537e-002
1.845620e+003;2.381157e-002
1.847549e+003;2.423719e-002
1.849478e+003;2.415188e-002
1.851406e+003;2.375064e-002
1.853335e+003;2.361960e-002
1.855263e+003;2.388998e-002
1.857192e+003;2.394712e-002
1.859120e+003;2.370542e-002
1.861049e+003;2.341291e-002
1.862977e+003;2.337399e-002
1.864906e+003;2.333630e-002
1.866834e+003;2.335679e-002
1.868763e+003;2.329449e-002
1.870692e+003;2.310064e-002
1.872620e+003;2.290064e-002
1.874549e+003;2.307322e-002
1.876477e+003;2.328096e-002
1.878406e+003;2.298108e-002
1.880334e+003;2.280362e-002
1.882263e+003;2.295726e-002
1.884191e+003;2.288597e-002
1.886120e+003;2.279143e-002
1.888048e+003;2.286613e-002
1.889977e+003;2.301039e-002
1.891906e+003;2.291660e-002
1.893834e+003;2.280330e-002
1.895763e+003;2.286358e-002
1.897691e+003;2.292924e-002
1.899620e+003;2.284573e-002
1.901548e+003;2.268096e-002
1.903477e+003;2.266720e-002
1.905405e+003;2.265649e-002
1.907334e+003;2.289348e-002
1.909262e+003;2.320811e-002
1.911191e+003;2.319423e-002
1.913120e+003;2.316222e-002
1.915048e+003;2.311857e-002
1.916977e+003;2.298671e-002
1.918905e+003;2.295995e-002
1.920834e+003;2.328327e-002
1.922762e+003;2.363572e-002
1.924691e+003;2.380681e-002
1.926619e+003;2.380184e-002
1.928548e+003;2.385382e-002
1.930477e+003;2.399908e-002
1.932405e+003;2.364094e-002
1.934334e+003;2.349181e-002
1.936262e+003;2.376761e-002
1.938191e+003;2.392429e-002
1.940119e+003;2.372730e-002
1.942048e+003;2.361162e-002
1.943976e+003;2.386996e-002
1.945905e+003;2.406327e-002
1.947833e+003;2.417774e-002
1.949762e+003;2.417357e-002
1.951691e+003;2.425667e-002
1.953619e+003;2.438433e-002
1.955548e+003;2.446715e-002
1.957476e+003;2.459593e-002
1.959405e+003;2.463103e-002
1.961333e+003;2.451175e-002
1.963262e+003;2.445064e-002
1.965190e+003;2.451995e-002
1.967119e+003;2.454375e-002
1.969047e+003;2.450084e-002
1.970976e+003;2.459242e-002
1.972905e+003;2.469370e-002
1.974833e+003;2.462787e-002
1.976762e+003;2.444770e-002
1.978690e+003;2.438654e-002
1.980619e+003;2.456062e-002
1.982547e+003;2.479472e-002
1.984476e+003;2.460701e-002
1.986404e+003;2.444230e-002
1.988333e+003;2.487268e-002
1.990261e+003;2.523931e-002
1.992190e+003;2.509448e-002
1.994119e+003;2.492383e-002
1.996047e+003;2.513731e-002
1.997976e+003;2.559618e-002
1.999904e+003;2.574845e-002
2.001833e+003;2.571231e-002
2.003761e+003;2.578917e-002
2.005690e+003;2.586815e-002
2.007618e+003;2.574726e-002
2.009547e+003;2.578003e-002
2.011476e+003;2.597701e-002
2.013404e+003;2.637056e-002
2.015333e+003;2.662664e-002
2.017261e+003;2.671606e-002
2.019190e+003;2.704247e-002
2.021118e+003;2.708990e-002
2.023047e+003;2.702505e-002
2.024975e+003;2.744899e-002
2.026904e+003;2.780082e-002
2.028833e+003;2.763366e-002
2.030761e+003;2.774551e-002
2.032690e+003;2.799193e-002
2.034618e+003;2.798296e-002
2.036547e+003;2.795709e-002
2.038475e+003;2.808206e-002
2.040404e+003;2.847608e-002
2.042332e+003;2.862724e-002
2.044261e+003;2.857547e-002
2.046189e+003;2.876083e-002
2.048118e+003;2.893969e-002
2.050047e+003;2.869807e-002
2.051975e+003;2.840723e-002
2.053904e+003;2.851096e-002
2.055832e+003;2.843076e-002
2.057761e+003;2.840769e-002
2.059689e+003;2.860824e-002
2.061618e+003;2.863149e-002
2.063546e+003;2.858962e-002
2.065475e+003;2.865287e-002
2.067404e+003;2.871637e-002
2.069332e+003;2.873609e-002
2.071260e+003;2.908156e-002
2.073189e+003;2.922769e-002
2.075118e+003;2.915756e-002
2.077046e+003;2.918555e-002
2.078975e+003;2.902505e-002
2.080903e+003;2.883051e-002
2.082832e+003;2.894323e-002
2.084760e+003;2.904610e-002
2.086689e+003;2.897461e-002
2.088617e+003;2.891199e-002
2.090546e+003;2.895074e-002
2.092475e+003;2.900890e-002
2.094403e+003;2.919392e-002
2.096332e+003;2.925126e-002
2.098260e+003;2.927012e-002
2.100189e+003;2.934544e-002
2.102117e+003;2.936341e-002
2.104046e+003;2.951067e-002
2.105974e+003;2.975076e-002
2.107903e+003;2.987521e-002
2.109832e+003;2.987820e-002
2.111760e+003;2.992864e-002
2.113688e+003;3.003266e-002
2.115617e+003;2.980941e-002
2.117546e+003;2.945709e-002
2.119474e+003;2.968207e-002
2.121403e+003;3.000503e-002
2.123331e+003;2.993488e-002
2.125260e+003;2.984597e-002
2.127188e+003;2.992640e-002
2.129117e+003;2.985111e-002
2.131045e+003;2.982893e-002
2.132974e+003;2.992927e-002
2.134903e+003;2.992945e-002
2.136831e+003;2.987560e-002
2.138760e+003;2.970286e-002
2.140688e+003;2.946656e-002
2.142617e+003;2.951067e-002
2.144545e+003;2.949578e-002
2.146474e+003;2.969551e-002
2.148402e+003;2.997894e-002
2.150331e+003;2.973188e-002
2.152260e+003;2.951244e-002
2.154188e+003;2.962509e-002
2.156117e+003;2.964421e-002
2.158045e+003;2.953918e-002
2.159974e+003;2.957731e-002
2.161902e+003;2.969434e-002
2.163831e+003;2.941135e-002
2.165759e+003;2.879677e-002
2.167688e+003;2.876406e-002
2.169616e+003;2.883745e-002
2.171545e+003;2.884599e-002
2.173474e+003;2.870536e-002
2.175402e+003;2.840441e-002
2.177331e+003;2.820194e-002
2.179259e+003;2.824034e-002
2.181188e+003;2.812511e-002
2.183116e+003;2.781502e-002
2.185045e+003;2.763988e-002
2.186973e+003;2.754751e-002
2.188902e+003;2.756107e-002
2.190831e+003;2.745400e-002
2.192759e+003;2.739220e-002
2.194688e+003;2.763575e-002
2.196616e+003;2.774614e-002
2.198545e+003;2.782385e-002
2.200473e+003;2.789320e-002
2.202402e+003;2.776179e-002
2.204330e+003;2.751811e-002
2.206259e+003;2.723815e-002
2.208188e+003;2.751599e-002
2.210116e+003;2.774731e-002
2.212044e+003;2.755468e-002
2.213973e+003;2.732523e-002
2.215902e+003;2.727590e-002
2.217830e+003;2.730780e-002
2.219759e+003;2.745937e-002
2.221687e+003;2.736771e-002
2.223616e+003;2.705583e-002
2.225544e+003;2.703690e-002
2.227473e+003;2.741493e-002
2.229401e+003;2.754183e-002
2.231330e+003;2.748393e-002
2.233259e+003;2.745023e-002
2.235187e+003;2.732844e-002
2.237116e+003;2.714587e-002
2.239044e+003;2.718273e-002
2.240973e+003;2.742545e-002
2.242901e+003;2.736824e-002
2.244830e+003;2.721501e-002
2.246758e+003;2.727399e-002
2.248687e+003;2.726525e-002
2.250615e+003;2.746576e-002
2.252544e+003;2.751902e-002
2.254473e+003;2.727131e-002
2.256401e+003;2.709403e-002
2.258330e+003;2.702935e-002
2.260258e+003;2.699226e-002
2.262187e+003;2.703654e-002
2.264115e+003;2.703623e-002
2.266044e+003;2.704896e-002
2.267972e+003;2.699977e-002
2.269901e+003;2.686224e-002
2.271830e+003;2.690722e-002
2.273758e+003;2.714961e-002
2.275687e+003;2.719878e-002
2.277615e+003;2.704046e-002
2.279544e+003;2.686725e-002
2.281472e+003;2.693655e-002
2.283401e+003;2.690659e-002
2.285329e+003;2.677702e-002
2.287258e+003;2.668167e-002
2.289187e+003;2.665524e-002
2.291115e+003;2.678914e-002
2.293043e+003;2.678537e-002
2.294972e+003;2.696260e-002
2.296901e+003;2.702939e-002
2.298829e+003;2.679806e-002
2.300758e+003;2.670996e-002
2.302686e+003;2.679101e-002
2.304615e+003;2.686002e-002
2.306543e+003;2.671380e-002
2.308472e+003;2.662125e-002
2.310400e+003;2.657355e-002
2.312329e+003;2.644144e-002
2.314258e+003;2.635613e-002
2.316186e+003;2.628526e-002
2.318115e+003;2.618150e-002
2.320043e+003;2.612709e-002
2.321972e+003;2.611868e-002
2.323900e+003;2.602963e-002
2.325829e+003;2.585109e-002
2.327757e+003;2.597817e-002
2.329686e+003;2.589041e-002
2.331615e+003;2.551574e-002
2.333543e+003;2.533277e-002
2.335472e+003;2.550530e-002
2.337400e+003;2.542249e-002
2.339329e+003;2.546795e-002
2.341257e+003;2.578259e-002
2.343186e+003;2.608487e-002
2.345114e+003;2.642982e-002
2.347043e+003;2.682752e-002
2.348971e+003;2.721095e-002
2.350900e+003;2.721755e-002
2.352829e+003;2.702924e-002
2.354757e+003;2.682322e-002
2.356686e+003;2.640299e-002
2.358614e+003;2.606334e-002
2.360543e+003;2.620733e-002
2.362471e+003;2.650437e-002
2.364400e+003;2.669248e-002
2.366328e+003;2.700516e-002
2.368257e+003;2.733489e-002
2.370186e+003;2.743297e-002
2.372114e+003;2.744052e-002
2.374042e+003;2.788921e-002
2.375971e+003;2.842719e-002
2.377900e+003;2.866405e-002
2.379828e+003;2.898878e-002
2.381757e+003;2.912783e-002
2.383685e+003;2.911327e-002
2.385614e+003;2.915887e-002
2.387542e+003;2.923566e-002
2.389471e+003;2.937256e-002
2.391399e+003;2.930301e-002
2.393328e+003;2.928061e-002
2.395257e+003;2.964517e-002
2.397185e+003;2.988739e-002
2.399114e+003;2.993385e-002
2.401042e+003;3.004246e-002
2.402971e+003;3.019072e-002
2.404899e+003;3.044757e-002
2.406828e+003;3.062808e-002
2.408756e+003;3.076499e-002
2.410685e+003;3.100399e-002
2.412614e+003;3.112180e-002
2.414542e+003;3.096261e-002
2.416471e+003;3.098018e-002
2.418399e+003;3.124654e-002
2.420328e+003;3.116878e-002
2.422256e+003;3.139982e-002
2.424185e+003;3.168008e-002
2.426113e+003;3.175326e-002
2.428042e+003;3.194009e-002
2.429970e+003;3.197347e-002
2.431899e+003;3.195040e-002
2.433828e+003;3.199580e-002
2.435756e+003;3.212194e-002
2.437685e+003;3.216043e-002
2.439613e+003;3.247140e-002
2.441542e+003;3.297433e-002
2.443470e+003;3.303714e-002
2.445399e+003;3.286317e-002
2.447327e+003;3.295781e-002
2.449256e+003;3.311298e-002
2.451185e+003;3.318018e-002
2.453113e+003;3.349996e-002
2.455042e+003;3.361411e-002
2.456970e+003;3.321093e-002
2.458899e+003;3.317760e-002
2.460827e+003;3.366692e-002
2.462756e+003;3.396653e-002
2.464684e+003;3.384752e-002
2.466613e+003;3.386830e-002
2.468542e+003;3.402225e-002
2.470470e+003;3.417991e-002
2.472398e+003;3.416593e-002
2.474327e+003;3.421193e-002
2.476256e+003;3.430877e-002
2.478184e+003;3.451948e-002
2.480113e+003;3.492703e-002
2.482041e+003;3.502633e-002
2.483970e+003;3.502508e-002
2.485898e+003;3.502364e-002
2.487827e+003;3.482729e-002
2.489755e+003;3.491924e-002
2.491684e+003;3.530777e-002
2.493613e+003;3.585426e-002
2.495541e+003;3.591922e-002
2.497470e+003;3.564739e-002
2.499398e+003;3.567685e-002
2.501327e+003;3.589870e-002
2.503255e+003;3.606270e-002
2.505184e+003;3.616165e-002
2.507112e+003;3.620000e-002
2.509041e+003;3.617094e-002
2.510969e+003;3.609316e-002
2.512898e+003;3.608963e-002
2.514827e+003;3.615887e-002
2.516755e+003;3.636083e-002
2.518684e+003;3.653549e-002
2.520612e+003;3.647891e-002
2.522541e+003;3.674228e-002
2.524469e+003;3.696183e-002
2.526398e+003;3.686281e-002
2.528326e+003;3.676132e-002
2.530255e+003;3.659720e-002
2.532184e+003;3.680287e-002
2.534112e+003;3.717423e-002
2.536041e+003;3.730585e-002
2.537969e+003;3.718427e-002
2.539898e+003;3.708646e-002
2.541826e+003;3.704388e-002
2.543755e+003;3.711338e-002
2.545683e+003;3.710140e-002
2.547612e+003;3.699856e-002
2.549541e+003;3.756001e-002
2.551469e+003;3.814643e-002
2.553397e+003;3.810811e-002
2.555326e+003;3.761933e-002
2.557255e+003;3.758212e-002
2.559183e+003;3.772258e-002
2.561112e+003;3.780097e-002
2.563040e+003;3.789833e-002
2.564969e+003;3.785942e-002
2.566897e+003;3.764329e-002
2.568826e+003;3.767325e-002
2.570754e+003;3.806464e-002
2.572683e+003;3.823014e-002
2.574612e+003;3.826459e-002
2.576540e+003;3.832785e-002
2.578469e+003;3.840425e-002
2.580397e+003;3.867651e-002
2.582326e+003;3.905180e-002
2.584254e+003;3.913087e-002
2.586183e+003;3.885978e-002
2.588111e+003;3.867401e-002
2.590040e+003;3.867850e-002
2.591969e+003;3.847723e-002
2.593897e+003;3.825938e-002
2.595826e+003;3.860426e-002
2.597754e+003;3.899565e-002
2.599683e+003;3.927140e-002
2.601611e+003;3.939836e-002
2.603540e+003;3.933473e-002
2.605468e+003;3.909658e-002
2.607397e+003;3.907015e-002
2.609325e+003;3.904463e-002
2.611254e+003;3.926621e-002
2.613183e+003;3.957240e-002
2.615111e+003;3.963526e-002
2.617040e+003;3.992155e-002
2.618968e+003;3.993510e-002
2.620897e+003;3.970199e-002
2.622825e+003;3.990085e-002
2.624754e+003;4.017244e-002
2.626682e+003;4.037450e-002
2.628611e+003;4.056991e-002
2.630540e+003;4.053554e-002
2.632468e+003;4.047596e-002
2.634396e+003;4.055594e-002
2.636325e+003;4.086817e-002
2.638254e+003;4.098606e-002
2.640182e+003;4.101217e-002
2.642111e+003;4.141223e-002
2.644039e+003;4.136055e-002
2.645968e+003;4.135046e-002
2.647896e+003;4.170954e-002
2.649825e+003;4.188618e-002
2.651753e+003;4.202527e-002
2.653682e+003;4.204169e-002
2.655611e+003;4.196851e-002
2.657539e+003;4.201556e-002
2.659468e+003;4.214592e-002
2.661396e+003;4.223330e-002
2.663325e+003;4.247361e-002
2.665253e+003;4.265964e-002
2.667182e+003;4.295751e-002
2.669110e+003;4.315533e-002
2.671039e+003;4.326946e-002
2.672968e+003;4.341085e-002
2.674896e+003;4.356261e-002
2.676825e+003;4.354936e-002
2.678753e+003;4.339847e-002
2.680682e+003;4.346178e-002
2.682610e+003;4.392163e-002
2.684539e+003;4.449853e-002
2.686467e+003;4.466610e-002
2.688396e+003;4.448506e-002
2.690324e+003;4.414913e-002
2.692253e+003;4.440398e-002
2.694182e+003;4.483216e-002
2.696110e+003;4.493805e-002
2.698039e+003;4.506418e-002
2.699967e+003;4.520263e-002
2.701896e+003;4.542848e-002
2.703824e+003;4.549081e-002
2.705753e+003;4.540365e-002
2.707681e+003;4.542940e-002
2.709610e+003;4.575337e-002
2.711539e+003;4.596216e-002
2.713467e+003;4.620463e-002
2.715396e+003;4.624425e-002
2.717324e+003;4.640512e-002
2.719253e+003;4.668280e-002
2.721181e+003;4.649963e-002
2.723110e+003;4.667000e-002
2.725038e+003;4.704396e-002
2.726967e+003;4.681756e-002
2.728896e+003;4.664303e-002
2.730824e+003;4.699829e-002
2.732752e+003;4.702768e-002
2.734681e+003;4.664403e-002
2.736610e+003;4.659168e-002
2.738538e+003;4.685573e-002
2.740467e+003;4.697957e-002
2.742395e+003;4.679199e-002
2.744324e+003;4.661452e-002
2.746252e+003;4.679738e-002
2.748181e+003;4.731249e-002
2.750109e+003;4.757394e-002
2.752038e+003;4.746607e-002
2.753967e+003;4.754181e-002
2.755895e+003;4.744057e-002
2.757824e+003;4.726099e-002
2.759752e+003;4.750654e-002
2.761681e+003;4.782271e-002
2.763609e+003;4.792884e-002
2.765538e+003;4.798790e-002
2.767466e+003;4.813176e-002
2.769395e+003;4.835500e-002
2.771323e+003;4.837281e-002
2.773252e+003;4.831774e-002
2.775181e+003;4.846105e-002
2.777109e+003;4.858743e-002
2.779038e+003;4.868998e-002
2.780966e+003;4.900499e-002
2.782895e+003;4.929240e-002
2.784823e+003;4.941223e-002
2.786752e+003;4.941977e-002
2.788680e+003;4.943076e-002
2.790609e+003;4.967190e-002
2.792538e+003;4.977158e-002
2.794466e+003;4.984185e-002
2.796395e+003;5.022049e-002
2.798323e+003;5.101382e-002
2.800252e+003;5.145648e-002
2.802180e+003;5.141221e-002
2.804109e+003;5.159806e-002
2.806037e+003;5.188720e-002
2.807966e+003;5.202989e-002
2.809895e+003;5.221149e-002
2.811823e+003;5.259344e-002
2.813751e+003;5.315176e-002
2.815680e+003;5.344466e-002
2.817609e+003;5.372374e-002
2.819537e+003;5.396885e-002
2.821466e+003;5.416410e-002
2.823394e+003;5.442122e-002
2.825323e+003;5.501624e-002
2.827251e+003;5.567030e-002
2.829180e+003;5.603543e-002
2.831108e+003;5.644260e-002
2.833037e+003;5.703809e-002
2.834966e+003;5.759089e-002
2.836894e+003;5.833797e-002
2.838823e+003;5.962289e-002
2.840751e+003;6.090884e-002
2.842680e+003;6.196089e-002
2.844608e+003;6.344234e-002
2.846537e+003;6.550613e-002
2.848465e+003;6.771874e-002
2.850394e+003;6.902357e-002
2.852323e+003;6.921215e-002
2.854251e+003;6.892628e-002
2.856180e+003;6.844110e-002
2.858108e+003;6.835275e-002
2.860037e+003;6.854174e-002
2.861965e+003;6.846636e-002
2.863894e+003;6.837773e-002
2.865822e+003;6.858527e-002
2.867751e+003;6.888757e-002
2.869679e+003;6.938495e-002
2.871608e+003;6.979203e-002
2.873536e+003;6.980390e-002
2.875465e+003;6.998885e-002
2.877394e+003;7.006142e-002
2.879322e+003;6.965003e-002
2.881251e+003;6.978822e-002
2.883179e+003;7.038788e-002
2.885108e+003;7.062185e-002
2.887036e+003;7.070178e-002
2.888965e+003;7.112505e-002
2.890893e+003;7.169702e-002
2.892822e+003;7.200404e-002
2.894750e+003;7.238661e-002
2.896679e+003;7.300995e-002
2.898608e+003;7.320800e-002
2.900536e+003;7.301356e-002
2.902465e+003;7.311596e-002
2.904393e+003;7.350560e-002
2.906322e+003;7.404398e-002
2.908250e+003;7.418660e-002
2.910179e+003;7.420299e-002
2.912107e+003;7.515347e-002
2.914036e+003;7.645296e-002
2.915965e+003;7.769790e-002
2.917893e+003;7.857419e-002
2.919822e+003;7.925877e-002
2.921750e+003;7.919050e-002
2.923679e+003;7.826678e-002
2.925607e+003;7.738241e-002
2.927536e+003;7.645115e-002
2.929464e+003;7.525330e-002
2.931393e+003;7.447375e-002
2.933322e+003;7.315905e-002
2.935250e+003;7.138319e-002
2.937178e+003;7.023120e-002
2.939107e+003;6.970406e-002
2.941036e+003;6.901433e-002
2.942964e+003;6.809927e-002
2.944893e+003;6.723081e-002
2.946821e+003;6.632231e-002
2.948750e+003;6.575263e-002
2.950678e+003;6.522828e-002
2.952607e+003;6.443694e-002
2.954535e+003;6.386999e-002
2.956464e+003;6.321520e-002
2.958393e+003;6.249103e-002
2.960321e+003;6.214333e-002
2.962250e+003;6.121717e-002
2.964178e+003;6.000163e-002
2.966107e+003;5.929594e-002
2.968035e+003;5.883372e-002
2.969964e+003;5.824388e-002
2.971892e+003;5.733056e-002
2.973821e+003;5.639842e-002
2.975750e+003;5.595371e-002
2.977678e+003;5.606126e-002
2.979607e+003;5.566009e-002
2.981535e+003;5.499063e-002
2.983464e+003;5.457655e-002
2.985392e+003;5.427046e-002
2.987321e+003;5.432058e-002
2.989249e+003;5.423764e-002
2.991178e+003;5.337920e-002
2.993106e+003;5.274950e-002
2.995035e+003;5.269413e-002
2.996964e+003;5.254433e-002
2.998892e+003;5.253701e-002
3.000821e+003;5.272548e-002
3.002749e+003;5.245908e-002
3.004678e+003;5.226437e-002
3.006606e+003;5.229864e-002
3.008535e+003;5.251008e-002
3.010463e+003;5.252205e-002
3.012392e+003;5.246301e-002
3.014321e+003;5.238517e-002
3.016249e+003;5.218679e-002
3.018177e+003;5.208585e-002
3.020106e+003;5.245082e-002
3.022035e+003;5.271463e-002
3.023963e+003;5.246185e-002
3.025892e+003;5.246488e-002
3.027820e+003;5.257519e-002
3.029749e+003;5.252388e-002
3.031677e+003;5.292717e-002
3.033606e+003;5.336939e-002
3.035534e+003;5.351527e-002
3.037463e+003;5.322101e-002
3.039392e+003;5.320086e-002
3.041320e+003;5.341626e-002
3.043249e+003;5.349035e-002
3.045177e+003;5.371598e-002
3.047106e+003;5.421966e-002
3.049034e+003;5.466139e-002
3.050963e+003;5.483808e-002
3.052891e+003;5.515579e-002
3.054820e+003;5.559294e-002
3.056749e+003;5.551605e-002
3.058677e+003;5.534676e-002
3.060606e+003;5.588022e-002
3.062534e+003;5.628189e-002
3.064463e+003;5.629520e-002
3.066391e+003;5.661568e-002
3.068320e+003;5.709201e-002
3.070248e+003;5.697390e-002
3.072177e+003;5.652256e-002
3.074105e+003;5.695584e-002
3.076034e+003;5.769918e-002
3.077963e+003;5.814731e-002
3.079891e+003;5.832986e-002
3.081820e+003;5.848928e-002
3.083748e+003;5.893565e-002
3.085677e+003;5.920548e-002
3.087605e+003;5.932199e-002
3.089534e+003;5.955406e-002
3.091462e+003;5.982736e-002
3.093391e+003;6.023677e-002
3.095320e+003;6.071080e-002
3.097248e+003;6.100332e-002
3.099177e+003;6.147343e-002
3.101105e+003;6.183770e-002
3.103034e+003;6.175511e-002
3.104962e+003;6.168010e-002
3.106891e+003;6.180741e-002
3.108819e+003;6.222381e-002
3.110748e+003;6.245564e-002
3.112677e+003;6.287570e-002
3.114605e+003;6.331950e-002
3.116533e+003;6.342524e-002
3.118462e+003;6.374852e-002
3.120391e+003;6.417897e-002
3.122319e+003;6.413442e-002
3.124248e+003;6.419841e-002
3.126176e+003;6.496349e-002
3.128105e+003;6.534681e-002
3.130033e+003;6.528862e-002
3.131962e+003;6.573813e-002
3.133890e+003;6.633806e-002
3.135819e+003;6.661396e-002
3.137748e+003;6.687509e-002
3.139676e+003;6.717674e-002
3.141605e+003;6.758001e-002
3.143533e+003;6.812613e-002
3.145462e+003;6.846422e-002
3.147390e+003;6.859668e-002
3.149319e+003;6.878383e-002
3.151247e+003;6.907943e-002
3.153176e+003;6.930141e-002
3.155104e+003;6.954269e-002
3.157033e+003;7.030350e-002
3.158962e+003;7.078862e-002
3.160890e+003;7.084178e-002
3.162819e+003;7.106565e-002
3.164747e+003;7.132992e-002
3.166676e+003;7.189247e-002
3.168604e+003;7.281545e-002
3.170533e+003;7.337415e-002
3.172461e+003;7.326248e-002
3.174390e+003;7.320725e-002
3.176319e+003;7.375688e-002
3.178247e+003;7.434877e-002
3.180176e+003;7.440642e-002
3.182104e+003;7.491579e-002
3.184033e+003;7.576202e-002
3.185961e+003;7.604121e-002
3.187890e+003;7.635131e-002
3.189818e+003;7.685985e-002
3.191747e+003;7.747064e-002
3.193676e+003;7.796582e-002
3.195604e+003;7.821742e-002
3.197532e+003;7.860366e-002
3.199461e+003;7.898490e-002
3.201390e+003;7.907314e-002
3.203318e+003;7.903573e-002
3.205247e+003;7.959232e-002
3.207175e+003;8.029030e-002
3.209104e+003;8.022143e-002
3.211032e+003;8.060601e-002
3.212961e+003;8.098119e-002
3.214889e+003;8.133584e-002
3.216818e+003;8.185393e-002
3.218747e+003;8.229639e-002
3.220675e+003;8.311284e-002
3.222604e+003;8.355393e-002
3.224532e+003;8.319934e-002
3.226461e+003;8.307561e-002
3.228389e+003;8.350702e-002
3.230318e+003;8.419830e-002
3.232246e+003;8.467053e-002
3.234175e+003;8.493105e-002
3.236104e+003;8.522886e-002
3.238032e+003;8.544914e-002
3.239961e+003;8.598787e-002
3.241889e+003;8.641484e-002
3.243818e+003;8.661326e-002
3.245746e+003;8.721869e-002
3.247675e+003;8.778623e-002
3.249603e+003;8.796050e-002
3.251532e+003;8.793461e-002
3.253460e+003;8.799507e-002
3.255389e+003;8.823936e-002
3.257318e+003;8.866700e-002
3.259246e+003;8.962172e-002
3.261175e+003;9.063634e-002
3.263103e+003;9.077542e-002
3.265032e+003;9.074336e-002
3.266960e+003;9.109001e-002
3.268889e+003;9.163612e-002
3.270817e+003;9.212147e-002
3.272746e+003;9.219915e-002
3.274675e+003;9.227102e-002
3.276603e+003;9.257345e-002
3.278531e+003;9.249743e-002
3.280460e+003;9.237027e-002
3.282389e+003;9.266343e-002
3.284317e+003;9.300677e-002
3.286246e+003;9.317341e-002
3.288174e+003;9.311564e-002
3.290103e+003;9.299286e-002
3.292031e+003;9.310562e-002
3.293960e+003;9.337586e-002
3.295888e+003;9.360269e-002
3.297817e+003;9.376750e-002
3.299746e+003;9.384958e-002
3.301674e+003;9.380978e-002
3.303603e+003;9.381291e-002
3.305531e+003;9.423775e-002
3.307460e+003;9.429538e-002
3.309388e+003;9.409168e-002
3.311317e+003;9.426891e-002
3.313245e+003;9.476954e-002
3.315174e+003;9.498893e-002
3.317103e+003;9.482876e-002
3.319031e+003;9.498930e-002
3.320960e+003;9.485539e-002
3.322888e+003;9.447220e-002
3.324817e+003;9.430794e-002
3.326745e+003;9.471588e-002
3.328674e+003;9.502551e-002
3.330602e+003;9.501899e-002
3.332531e+003;9.527247e-002
3.334459e+003;9.488128e-002
3.336388e+003;9.390704e-002
3.338317e+003;9.367274e-002
3.340245e+003;9.420675e-002
3.342174e+003;9.456900e-002
3.344102e+003;9.419610e-002
3.346031e+003;9.377158e-002
3.347959e+003;9.368889e-002
3.349888e+003;9.356077e-002
3.351816e+003;9.296913e-002
3.353745e+003;9.256410e-002
3.355674e+003;9.249800e-002
3.357602e+003;9.250403e-002
3.359531e+003;9.221701e-002
3.361459e+003;9.198238e-002
3.363388e+003;9.219730e-002
3.365316e+003;9.203456e-002
3.367245e+003;9.182340e-002
3.369173e+003;9.176286e-002
3.371102e+003;9.103975e-002
3.373031e+003;9.068909e-002
3.374959e+003;9.063067e-002
3.376887e+003;9.004542e-002
3.378816e+003;8.955179e-002
3.380745e+003;8.935263e-002
3.382673e+003;8.912122e-002
3.384602e+003;8.928645e-002
3.386530e+003;8.929915e-002
3.388459e+003;8.861356e-002
3.390387e+003;8.820928e-002
3.392316e+003;8.835273e-002
3.394244e+003;8.858138e-002
3.396173e+003;8.821582e-002
3.398102e+003;8.725665e-002
3.400030e+003;8.681283e-002
3.401959e+003;8.705638e-002
3.403887e+003;8.675562e-002
3.405816e+003;8.571747e-002
3.407744e+003;8.509599e-002
3.409673e+003;8.510777e-002
3.411601e+003;8.524209e-002
3.413530e+003;8.526434e-002
3.415458e+003;8.455691e-002
3.417387e+003;8.317631e-002
3.419316e+003;8.223468e-002
3.421244e+003;8.201951e-002
3.423173e+003;8.202051e-002
3.425101e+003;8.218051e-002
3.427030e+003;8.193615e-002
3.428958e+003;8.130316e-002
3.430887e+003;8.067040e-002
3.432815e+003;7.972912e-002
3.434744e+003;7.929222e-002
3.436673e+003;7.910303e-002
3.438601e+003;7.865281e-002
3.440530e+003;7.809747e-002
3.442458e+003;7.734990e-002
3.444387e+003;7.720172e-002
3.446315e+003;7.698701e-002
3.448244e+003;7.667618e-002
3.450172e+003;7.626259e-002
3.452101e+003;7.531805e-002
3.454030e+003;7.463653e-002
3.455958e+003;7.454156e-002
3.457886e+003;7.430547e-002
3.459815e+003;7.353880e-002
3.461744e+003;7.236039e-002
3.463672e+003;7.152490e-002
3.465601e+003;7.146885e-002
3.467529e+003;7.164336e-002
3.469458e+003;7.152545e-002
3.471386e+003;7.096388e-002
3.473315e+003;7.017449e-002
3.475243e+003;6.939587e-002
3.477172e+003;6.897712e-002
3.479101e+003;6.855687e-002
3.481029e+003;6.805683e-002
3.482958e+003;6.795697e-002
3.484886e+003;6.756112e-002
3.486815e+003;6.688374e-002
3.488743e+003;6.603757e-002
3.490672e+003;6.557476e-002
3.492600e+003;6.538868e-002
3.494529e+003;6.466791e-002
3.496458e+003;6.387971e-002
3.498386e+003;6.354769e-002
3.500315e+003;6.318002e-002
3.502243e+003;6.246857e-002
3.504172e+003;6.178686e-002
3.506100e+003;6.164527e-002
3.508029e+003;6.158360e-002
3.509957e+003;6.083173e-002
3.511886e+003;5.967657e-002
3.513814e+003;5.897830e-002
3.515743e+003;5.878349e-002
3.517672e+003;5.865495e-002
3.519600e+003;5.814053e-002
3.521529e+003;5.743550e-002
3.523457e+003;5.689397e-002
3.525386e+003;5.605737e-002
3.527314e+003;5.530367e-002
3.529243e+003;5.536652e-002
3.531171e+003;5.513314e-002
3.533100e+003;5.448688e-002
3.535029e+003;5.446130e-002
3.536957e+003;5.417139e-002
3.538885e+003;5.341105e-002
3.540814e+003;5.294356e-002
3.542743e+003;5.255615e-002
3.544671e+003;5.191277e-002
3.546600e+003;5.109562e-002
3.548528e+003;5.029924e-002
3.550457e+003;4.999700e-002
3.552385e+003;4.989890e-002
3.554314e+003;4.935421e-002
3.556242e+003;4.874465e-002
3.558171e+003;4.851847e-002
3.560100e+003;4.814731e-002
3.562028e+003;4.761335e-002
3.563957e+003;4.706331e-002
3.565885e+003;4.637603e-002
3.567814e+003;4.597343e-002
3.569742e+003;4.598732e-002
3.571671e+003;4.571652e-002
3.573599e+003;4.463717e-002
3.575528e+003;4.401406e-002
3.577457e+003;4.365640e-002
3.579385e+003;4.246773e-002
3.581314e+003;4.147347e-002
3.583242e+003;4.140345e-002
3.585171e+003;4.175142e-002
3.587099e+003;4.115006e-002
3.589028e+003;4.022049e-002
3.590956e+003;4.021678e-002
3.592885e+003;3.998058e-002
3.594813e+003;3.925486e-002
3.596742e+003;3.894215e-002
3.598671e+003;3.882178e-002
3.600599e+003;3.856402e-002
3.602528e+003;3.807035e-002
3.604456e+003;3.710407e-002
3.606385e+003;3.635431e-002
3.608313e+003;3.607804e-002
3.610242e+003;3.573602e-002
3.612170e+003;3.519528e-002
3.614099e+003;3.455597e-002
3.616028e+003;3.439189e-002
3.617956e+003;3.399240e-002
3.619885e+003;3.353335e-002
3.621813e+003;3.352079e-002
3.623742e+003;3.347233e-002
3.625670e+003;3.294544e-002
3.627599e+003;3.170079e-002
3.629527e+003;3.085954e-002
3.631456e+003;3.070450e-002
3.633385e+003;3.045852e-002
3.635313e+003;3.019200e-002
3.637241e+003;2.972361e-002
3.639170e+003;2.898846e-002
3.641099e+003;2.835032e-002
3.643027e+003;2.814710e-002
3.644956e+003;2.822846e-002
3.646884e+003;2.753124e-002
3.648813e+003;2.651973e-002
3.650741e+003;2.608424e-002
3.652670e+003;2.564665e-002
3.654598e+003;2.506784e-002
3.656527e+003;2.454975e-002
3.658456e+003;2.403305e-002
3.660384e+003;2.337473e-002
3.662313e+003;2.246760e-002
3.664241e+003;2.207049e-002
3.666170e+003;2.184060e-002
3.668098e+003;2.068709e-002
3.670027e+003;1.977564e-002
3.671955e+003;1.994660e-002
3.673884e+003;2.017757e-002
3.675813e+003;1.956159e-002
3.677741e+003;1.881571e-002
3.679669e+003;1.806700e-002
3.681598e+003;1.748782e-002
3.683527e+003;1.689132e-002
3.685455e+003;1.641230e-002
3.687384e+003;1.631428e-002
3.689312e+003;1.590299e-002
3.691241e+003;1.545456e-002
3.693169e+003;1.530612e-002
3.695098e+003;1.491567e-002
3.697026e+003;1.473907e-002
3.698955e+003;1.478812e-002
3.700884e+003;1.479128e-002
3.702812e+003;1.449652e-002
3.704741e+003;1.442534e-002
3.706669e+003;1.429567e-002
3.708598e+003;1.407038e-002
3.710526e+003;1.382304e-002
3.712455e+003;1.339301e-002
3.714383e+003;1.344967e-002
3.716312e+003;1.346396e-002
3.718240e+003;1.310494e-002
3.720169e+003;1.294429e-002
3.722098e+003;1.291292e-002
3.724026e+003;1.245788e-002
3.725955e+003;1.245758e-002
3.727883e+003;1.274225e-002
3.729812e+003;1.208307e-002
3.731740e+003;1.159963e-002
3.733669e+003;1.152174e-002
3.735597e+003;1.151047e-002
3.737526e+003;1.201585e-002
3.739455e+003;1.261268e-002
3.741383e+003;1.248012e-002
3.743312e+003;1.193574e-002
3.745240e+003;1.129577e-002
3.747169e+003;1.140280e-002
3.749097e+003;1.191664e-002
3.751026e+003;1.226350e-002
3.752954e+003;1.226350e-002
3.754883e+003;1.214003e-002
3.756812e+003;1.209506e-002
3.758740e+003;1.205183e-002
3.760668e+003;1.167181e-002
3.762597e+003;1.142052e-002
3.764526e+003;1.144131e-002
3.766454e+003;1.158792e-002
3.768383e+003;1.164053e-002
3.770311e+003;1.168434e-002
3.772240e+003;1.166551e-002
3.774168e+003;1.148965e-002
3.776097e+003;1.184574e-002
3.778025e+003;1.213332e-002
3.779954e+003;1.187502e-002
3.781883e+003;1.118757e-002
3.783811e+003;1.081065e-002
3.785740e+003;1.124119e-002
3.787668e+003;1.159490e-002
3.789597e+003;1.137372e-002
3.791525e+003;1.137644e-002
3.793454e+003;1.154858e-002
3.795382e+003;1.161038e-002
3.797311e+003;1.113501e-002
3.799240e+003;1.070234e-002
3.801168e+003;1.056048e-002
3.803097e+003;1.086766e-002
3.805025e+003;1.126907e-002
3.806954e+003;1.148271e-002
3.808882e+003;1.124119e-002
3.810811e+003;1.098699e-002
3.812739e+003;1.100069e-002
3.814668e+003;1.096653e-002
3.816596e+003;1.149322e-002
3.818525e+003;1.196854e-002
3.820454e+003;1.161130e-002
3.822382e+003;1.152031e-002
3.824311e+003;1.165840e-002
3.826239e+003;1.164594e-002
3.828168e+003;1.171174e-002
3.830096e+003;1.193911e-002
3.832025e+003;1.194058e-002
3.833953e+003;1.188391e-002
3.835882e+003;1.165833e-002
3.837811e+003;1.115279e-002
3.839739e+003;1.126217e-002
3.841667e+003;1.143369e-002
3.843596e+003;1.158809e-002
3.845525e+003;1.186709e-002
3.847453e+003;1.164744e-002
3.849382e+003;1.176181e-002
3.851310e+003;1.188756e-002
3.853239e+003;1.207874e-002
3.855167e+003;1.220815e-002
3.857096e+003;1.190268e-002
3.859024e+003;1.189539e-002
3.860953e+003;1.172120e-002
3.862882e+003;1.166187e-002
3.864810e+003;1.202876e-002
3.866739e+003;1.227236e-002
3.868667e+003;1.215438e-002
3.870596e+003;1.203455e-002
3.872524e+003;1.198305e-002
3.874453e+003;1.204866e-002
3.876381e+003;1.246828e-002
3.878310e+003;1.276426e-002
3.880239e+003;1.274263e-002
3.882167e+003;1.259263e-002
3.884096e+003;1.266610e-002
3.886024e+003;1.305836e-002
3.887953e+003;1.303408e-002
3.889881e+003;1.279405e-002
3.891810e+003;1.259505e-002
3.893738e+003;1.298232e-002
3.895667e+003;1.339072e-002
3.897595e+003;1.378353e-002
3.899524e+003;1.366784e-002
3.901453e+003;1.314158e-002
3.903381e+003;1.319254e-002
3.905310e+003;1.341833e-002
3.907238e+003;1.341792e-002
3.909167e+003;1.411932e-002
3.911095e+003;1.476738e-002
3.913024e+003;1.402698e-002
3.914952e+003;1.325918e-002
3.916881e+003;1.351844e-002
3.918810e+003;1.381055e-002
3.920738e+003;1.403485e-002
3.922667e+003;1.451427e-002
3.924595e+003;1.424626e-002
3.926524e+003;1.377529e-002
3.928452e+003;1.431625e-002
3.930381e+003;1.457789e-002
3.932309e+003;1.406696e-002
3.934238e+003;1.401583e-002
3.936167e+003;1.470764e-002
3.938095e+003;1.525594e-002
3.940023e+003;1.528639e-002
3.941952e+003;1.526065e-002
3.943881e+003;1.520461e-002
3.945809e+003;1.535098e-002
3.947738e+003;1.582457e-002
3.949666e+003;1.554184e-002
3.951595e+003;1.537604e-002
3.953523e+003;1.579563e-002
3.955452e+003;1.581838e-002
3.957380e+003;1.579151e-002
3.959309e+003;1.618075e-002
3.961238e+003;1.597765e-002
3.963166e+003;1.543330e-002
3.965095e+003;1.522207e-002
3.967023e+003;1.557172e-002
3.968952e+003;1.579965e-002
3.970880e+003;1.567930e-002
3.972809e+003;1.587409e-002
3.974737e+003;1.636671e-002
3.976666e+003;1.580319e-002
3.978594e+003;1.508655e-002
3.980523e+003;1.559027e-002
3.982452e+003;1.591206e-002
3.984380e+003;1.581828e-002
3.986309e+003;1.583415e-002
3.988237e+003;1.601330e-002
3.990166e+003;1.644118e-002
3.992094e+003;1.642404e-002
3.994023e+003;1.632367e-002
3.995951e+003;1.679002e-002
3.997880e+003;1.701487e-002
3.999809e+003;1.673502e-002
4.001737e+003;0.000000e+000
