3.992094e+002;0.000000e+000
4.011380e+002;0.000000e+000
4.030665e+002;0.000000e+000
4.049951e+002;0.000000e+000
4.069236e+002;0.000000e+000
4.088522e+002;0.000000e+000
4.107807e+002;0.000000e+000
4.127093e+002;0.000000e+000
4.146378e+002;0.000000e+000
4.165664e+002;0.000000e+000
4.184949e+002;0.000000e+000
4.204235e+002;0.000000e+000
4.223520e+002;0.000000e+000
4.242806e+002;0.000000e+000
4.262091e+002;0.000000e+000
4.281377e+002;0.000000e+000
4.300662e+002;0.000000e+000
4.319948e+002;0.000000e+000
4.339233e+002;0.000000e+000
4.358519e+002;0.000000e+000
4.377804e+002;0.000000e+000
4.397090e+002;0.000000e+000
4.416375e+002;0.000000e+000
4.435660e+002;0.000000e+000
4.454946e+002;0.000000e+000
4.474232e+002;0.000000e+000
4.493517e+002;0.000000e+000
4.512802e+002;0.000000e+000
4.532088e+002;0.000000e+000
4.551373e+002;0.000000e+000
4.570659e+002;0.000000e+000
4.589944e+002;0.000000e+000
4.609230e+002;0.000000e+000
4.628515e+002;0.000000e+000
4.647801e+002;0.000000e+000
4.667086e+002;0.000000e+000
4.686372e+002;0.000000e+000
4.705657e+002;0.000000e+000
4.724943e+002;0.000000e+000
4.744228e+002;0.000000e+000
4.763513e+002;0.000000e+000
4.782799e+002;0.000000e+000
4.802085e+002;0.000000e+000
4.821370e+002;0.000000e+000
4.840656e+002;0.000000e+000
4.859941e+002;0.000000e+000
4.879226e+002;0.000000e+000
4.898512e+002;0.000000e+000
4.917798e+002;0.000000e+000
4.937083e+002;0.000000e+000
4.956368e+002;0.000000e+000
4.975654e+002;0.000000e+000
4.994939e+002;0.000000e+000
5.014225e+002;0.000000e+000
5.033510e+002;0.000000e+000
5.052796e+002;0.000000e+000
5.072081e+002;0.000000e+000
5.091367e+002;0.000000e+000
5.110652e+002;0.000000e+000
5.129938e+002;0.000000e+000
5.149223e+002;0.000000e+000
5.168509e+002;0.000000e+000
5.187794e+002;0.000000e+000
5.207079e+002;0.000000e+000
5.226365e+002;0.000000e+000
5.245651e+002;0.000000e+000
5.264936e+002;0.000000e+000
5.284222e+002;0.000000e+000
5.303507e+002;0.000000e+000
5.322792e+002;0.000000e+000
5.342078e+002;0.000000e+000
5.361364e+002;0.000000e+000
5.380649e+002;0.000000e+000
5.399935e+002;0.000000e+000
5.419220e+002;0.000000e+000
5.438505e+002;0.000000e+000
5.457791e+002;0.000000e+000
5.477076e+002;0.000000e+000
5.496362e+002;0.000000e+000
5.515648e+002;0.000000e+000
5.534933e+002;0.000000e+000
5.554218e+002;0.000000e+000
5.573504e+002;0.000000e+000
5.592789e+002;0.000000e+000
5.612075e+002;0.000000e+000
5.631360e+002;0.000000e+000
5.650646e+002;0.000000e+000
5.669931e+002;0.000000e+000
5.689217e+002;0.000000e+000
5.708502e+002;0.000000e+000
5.727787e+002;0.000000e+000
5.747073e+002;0.000000e+000
5.766359e+002;0.000000e+000
5.785644e+002;0.000000e+000
5.804930e+002;0.000000e+000
5.824215e+002;0.000000e+000
5.843500e+002;0.000000e+000
5.862786e+002;0.000000e+000
5.882072e+002;0.000000e+000
5.901357e+002;0.000000e+000
5.920643e+002;0.000000e+000
5.939928e+002;0.000000e+000
5.959213e+002;0.000000e+000
5.978499e+002;0.000000e+000
5.997784e+002;2.551282e-001
6.017070e+002;2.543131e-001
6.036355e+002;2.546780e-001
6.055641e+002;2.555252e-001
6.074926e+002;2.511848e-001
6.094211e+002;2.430845e-001
6.113497e+002;2.445146e-001
6.132783e+002;2.491356e-001
6.152068e+002;2.500250e-001
6.171354e+002;2.447386e-001
6.190639e+002;2.364627e-001
6.209924e+002;2.300615e-001
6.229210e+002;2.309757e-001
6.248495e+002;2.335004e-001
6.267781e+002;2.322627e-001
6.287067e+002;2.303840e-001
6.306352e+002;2.276743e-001
6.325637e+002;2.213091e-001
6.344923e+002;2.184616e-001
6.364208e+002;2.143770e-001
6.383494e+002;2.126764e-001
6.402780e+002;2.158768e-001
6.422065e+002;2.149445e-001
6.441350e+002;2.170324e-001
6.460636e+002;2.224882e-001
6.479921e+002;2.229742e-001
6.499207e+002;2.196491e-001
6.518492e+002;2.185237e-001
6.537778e+002;2.171932e-001
6.557063e+002;2.204369e-001
6.576349e+002;2.238024e-001
6.595634e+002;2.236799e-001
6.614919e+002;2.211854e-001
6.634205e+002;2.188949e-001
6.653491e+002;2.196020e-001
6.672776e+002;2.207102e-001
6.692062e+002;2.180432e-001
6.711347e+002;2.153102e-001
6.730632e+002;2.144516e-001
6.749918e+002;2.118965e-001
6.769203e+002;2.071445e-001
6.788489e+002;2.030915e-001
6.807775e+002;1.984270e-001
6.827060e+002;1.950533e-001
6.846345e+002;1.939771e-001
6.865631e+002;1.925877e-001
6.884916e+002;1.918562e-001
6.904202e+002;1.919004e-001
6.923488e+002;1.912672e-001
6.942773e+002;1.889888e-001
6.962058e+002;1.877978e-001
6.981344e+002;1.882658e-001
7.000629e+002;1.885276e-001
7.019915e+002;1.873925e-001
7.039200e+002;1.850275e-001
7.058486e+002;1.839510e-001
7.077771e+002;1.828310e-001
7.097057e+002;1.806430e-001
7.116342e+002;1.790132e-001
7.135627e+002;1.785425e-001
7.154913e+002;1.784072e-001
7.174199e+002;1.764871e-001
7.193484e+002;1.731421e-001
7.212770e+002;1.716811e-001
7.232055e+002;1.706223e-001
7.251340e+002;1.682624e-001
7.270626e+002;1.663131e-001
7.289911e+002;1.645077e-001
7.309197e+002;1.622542e-001
7.328483e+002;1.602972e-001
7.347768e+002;1.583622e-001
7.367053e+002;1.565100e-001
7.386339e+002;1.562767e-001
7.405624e+002;1.551150e-001
7.424910e+002;1.529558e-001
7.444196e+002;1.514019e-001
7.463481e+002;1.513969e-001
7.482766e+002;1.509955e-001
7.502052e+002;1.489483e-001
7.521337e+002;1.470399e-001
7.540623e+002;1.463116e-001
7.559908e+002;1.467353e-001
7.579194e+002;1.459647e-001
7.598479e+002;1.443221e-001
7.617765e+002;1.429335e-001
7.637050e+002;1.422424e-001
7.656335e+002;1.408204e-001
7.675621e+002;1.398501e-001
7.694907e+002;1.394190e-001
7.714192e+002;1.382792e-001
7.733478e+002;1.365373e-001
7.752763e+002;1.350083e-001
7.772048e+002;1.345471e-001
7.791334e+002;1.340844e-001
7.810620e+002;1.336378e-001
7.829905e+002;1.337191e-001
7.849191e+002;1.341701e-001
7.868476e+002;1.340531e-001
7.887761e+002;1.333143e-001
7.907047e+002;1.326586e-001
7.926332e+002;1.327902e-001
7.945618e+002;1.320949e-001
7.964903e+002;1.319559e-001
7.984189e+002;1.319367e-001
8.003474e+002;1.308552e-001
8.022759e+002;1.307964e-001
8.042045e+002;1.321499e-001
8.061331e+002;1.330001e-001
8.080616e+002;1.339878e-001
8.099902e+002;1.347395e-001
8.119187e+002;1.344986e-001
8.138472e+002;1.343967e-001
8.157758e+002;1.354193e-001
8.177043e+002;1.366837e-001
8.196329e+002;1.375091e-001
8.215615e+002;1.383751e-001
8.234900e+002;1.396387e-001
8.254185e+002;1.404798e-001
8.273471e+002;1.408143e-001
8.292756e+002;1.407124e-001
8.312042e+002;1.407432e-001
8.331328e+002;1.409526e-001
8.350613e+002;1.406724e-001
8.369898e+002;1.401670e-001
8.389184e+002;1.394202e-001
8.408469e+002;1.386035e-001
8.427755e+002;1.383141e-001
8.447040e+002;1.376063e-001
8.466326e+002;1.375678e-001
8.485611e+002;1.378381e-001
8.504897e+002;1.381628e-001
8.524182e+002;1.381262e-001
8.543467e+002;1.382043e-001
8.562753e+002;1.383032e-001
8.582039e+002;1.387319e-001
8.601324e+002;1.397848e-001
8.620610e+002;1.414448e-001
8.639895e+002;1.430329e-001
8.659180e+002;1.445120e-001
8.678466e+002;1.467898e-001
8.697751e+002;1.492867e-001
8.717037e+002;1.514754e-001
8.736323e+002;1.538445e-001
8.755608e+002;1.562478e-001
8.774893e+002;1.586958e-001
8.794179e+002;1.609833e-001
8.813464e+002;1.633890e-001
8.832750e+002;1.665660e-001
8.852036e+002;1.696301e-001
8.871321e+002;1.734698e-001
8.890606e+002;1.778072e-001
8.909892e+002;1.812103e-001
8.929177e+002;1.839926e-001
8.948463e+002;1.861012e-001
8.967748e+002;1.870161e-001
8.987034e+002;1.869839e-001
9.006319e+002;1.857979e-001
9.025605e+002;1.835103e-001
9.044890e+002;1.813377e-001
9.064175e+002;1.795326e-001
9.083461e+002;1.777835e-001
9.102747e+002;1.760334e-001
9.122032e+002;1.743343e-001
9.141318e+002;1.733580e-001
9.160603e+002;1.734098e-001
9.179888e+002;1.741631e-001
9.199174e+002;1.748107e-001
9.218459e+002;1.754244e-001
9.237745e+002;1.762641e-001
9.257031e+002;1.772184e-001
9.276316e+002;1.778506e-001
9.295601e+002;1.783831e-001
9.314887e+002;1.794058e-001
9.334172e+002;1.809952e-001
9.353458e+002;1.827089e-001
9.372744e+002;1.844434e-001
9.392029e+002;1.867231e-001
9.411314e+002;1.896808e-001
9.430600e+002;1.933611e-001
9.449885e+002;1.969696e-001
9.469171e+002;2.006893e-001
9.488456e+002;2.060019e-001
9.507742e+002;2.120142e-001
9.527027e+002;2.172519e-001
9.546313e+002;2.229092e-001
9.565598e+002;2.293562e-001
9.584883e+002;2.355971e-001
9.604169e+002;2.418432e-001
9.623455e+002;2.482593e-001
9.642740e+002;2.549709e-001
9.662026e+002;2.618975e-001
9.681311e+002;2.688744e-001
9.700596e+002;2.754447e-001
9.719882e+002;2.820977e-001
9.739167e+002;2.909738e-001
9.758453e+002;3.012422e-001
9.777739e+002;3.116853e-001
9.797024e+002;3.226879e-001
9.816309e+002;3.338931e-001
9.835595e+002;3.441979e-001
9.854880e+002;3.526117e-001
9.874166e+002;3.591520e-001
9.893452e+002;3.641091e-001
9.912737e+002;3.682931e-001
9.932022e+002;3.716368e-001
9.951307e+002;3.744248e-001
9.970593e+002;3.783881e-001
9.989879e+002;3.831858e-001
1.000916e+003;3.880537e-001
1.002845e+003;3.934368e-001
1.004773e+003;3.988751e-001
1.006702e+003;4.048421e-001
1.008631e+003;4.115236e-001
1.010559e+003;4.178011e-001
1.012488e+003;4.236309e-001
1.014416e+003;4.301109e-001
1.016345e+003;4.363895e-001
1.018273e+003;4.417411e-001
1.020202e+003;4.469100e-001
1.022130e+003;4.511843e-001
1.024059e+003;4.526201e-001
1.025988e+003;4.533195e-001
1.027916e+003;4.547354e-001
1.029845e+003;4.559807e-001
1.031773e+003;4.562953e-001
1.033702e+003;4.556886e-001
1.035630e+003;4.535798e-001
1.037559e+003;4.487121e-001
1.039487e+003;4.438162e-001
1.041416e+003;4.395974e-001
1.043344e+003;4.347709e-001
1.045273e+003;4.314073e-001
1.047202e+003;4.284088e-001
1.049130e+003;4.252070e-001
1.051059e+003;4.213901e-001
1.052987e+003;4.168817e-001
1.054916e+003;4.112471e-001
1.056844e+003;4.041427e-001
1.058773e+003;3.961936e-001
1.060701e+003;3.884072e-001
1.062630e+003;3.792297e-001
1.064558e+003;3.692305e-001
1.066487e+003;3.587118e-001
1.068416e+003;3.490624e-001
1.070344e+003;3.416369e-001
1.072273e+003;3.352455e-001
1.074201e+003;3.290630e-001
1.076130e+003;3.226988e-001
1.078058e+003;3.162012e-001
1.079987e+003;3.107377e-001
1.081915e+003;3.065626e-001
1.083844e+003;3.028848e-001
1.085773e+003;2.998475e-001
1.087701e+003;2.980500e-001
1.089630e+003;2.959187e-001
1.091558e+003;2.932635e-001
1.093487e+003;2.913603e-001
1.095415e+003;2.902104e-001
1.097344e+003;2.887518e-001
1.099272e+003;2.860278e-001
1.101201e+003;2.835750e-001
1.103129e+003;2.811464e-001
1.105058e+003;2.776630e-001
1.106987e+003;2.724472e-001
1.108915e+003;2.658868e-001
1.110844e+003;2.591934e-001
1.112772e+003;2.542091e-001
1.114701e+003;2.492130e-001
1.116629e+003;2.427966e-001
1.118558e+003;2.361901e-001
1.120486e+003;2.292943e-001
1.122415e+003;2.226749e-001
1.124344e+003;2.167644e-001
1.126272e+003;2.106688e-001
1.128201e+003;2.041567e-001
1.130129e+003;1.982316e-001
1.132058e+003;1.924962e-001
1.133986e+003;1.869641e-001
1.135915e+003;1.829248e-001
1.137843e+003;1.795375e-001
1.139772e+003;1.772490e-001
1.141700e+003;1.757814e-001
1.143629e+003;1.752053e-001
1.145557e+003;1.759443e-001
1.147486e+003;1.765321e-001
1.149415e+003;1.768043e-001
1.151343e+003;1.764812e-001
1.153272e+003;1.760496e-001
1.155200e+003;1.760465e-001
1.157129e+003;1.752056e-001
1.159057e+003;1.732757e-001
1.160986e+003;1.709120e-001
1.162914e+003;1.676150e-001
1.164843e+003;1.628129e-001
1.166771e+003;1.569677e-001
1.168700e+003;1.508330e-001
1.170629e+003;1.449315e-001
1.172557e+003;1.395157e-001
1.174486e+003;1.345288e-001
1.176414e+003;1.305479e-001
1.178343e+003;1.277337e-001
1.180271e+003;1.256177e-001
1.182200e+003;1.242403e-001
1.184128e+003;1.230195e-001
1.186057e+003;1.223790e-001
1.187986e+003;1.222647e-001
1.189914e+003;1.228877e-001
1.191843e+003;1.245114e-001
1.193771e+003;1.264435e-001
1.195700e+003;1.289534e-001
1.197628e+003;1.326309e-001
1.199557e+003;1.360109e-001
1.201485e+003;1.382647e-001
1.203414e+003;1.404600e-001
1.205343e+003;1.431673e-001
1.207271e+003;1.458585e-001
1.209200e+003;1.482788e-001
1.211128e+003;1.510561e-001
1.213057e+003;1.543719e-001
1.214985e+003;1.586543e-001
1.216914e+003;1.634466e-001
1.218842e+003;1.678937e-001
1.220771e+003;1.725971e-001
1.222699e+003;1.771609e-001
1.224628e+003;1.807757e-001
1.226557e+003;1.843750e-001
1.228485e+003;1.873733e-001
1.230414e+003;1.893161e-001
1.232342e+003;1.908516e-001
1.234271e+003;1.919365e-001
1.236199e+003;1.923004e-001
1.238128e+003;1.919222e-001
1.240056e+003;1.913961e-001
1.241985e+003;1.903711e-001
1.243913e+003;1.886519e-001
1.245842e+003;1.868855e-001
1.247771e+003;1.846373e-001
1.249699e+003;1.818538e-001
1.251628e+003;1.793804e-001
1.253556e+003;1.769958e-001
1.255485e+003;1.740594e-001
1.257413e+003;1.710088e-001
1.259342e+003;1.680771e-001
1.261270e+003;1.646075e-001
1.263199e+003;1.606504e-001
1.265127e+003;1.570649e-001
1.267056e+003;1.541114e-001
1.268985e+003;1.514357e-001
1.270913e+003;1.488208e-001
1.272842e+003;1.461508e-001
1.274770e+003;1.438485e-001
1.276699e+003;1.413231e-001
1.278627e+003;1.384208e-001
1.280556e+003;1.360637e-001
1.282484e+003;1.341347e-001
1.284413e+003;1.322439e-001
1.286342e+003;1.309527e-001
1.288270e+003;1.301073e-001
1.290199e+003;1.292267e-001
1.292127e+003;1.288579e-001
1.294056e+003;1.292426e-001
1.295984e+003;1.298379e-001
1.297913e+003;1.308080e-001
1.299841e+003;1.321409e-001
1.301770e+003;1.340039e-001
1.303698e+003;1.360464e-001
1.305627e+003;1.382183e-001
1.307556e+003;1.407746e-001
1.309484e+003;1.431859e-001
1.311413e+003;1.452913e-001
1.313341e+003;1.473728e-001
1.315270e+003;1.490710e-001
1.317198e+003;1.501292e-001
1.319127e+003;1.503926e-001
1.321055e+003;1.502487e-001
1.322984e+003;1.500604e-001
1.324912e+003;1.498286e-001
1.326841e+003;1.492639e-001
1.328770e+003;1.489331e-001
1.330698e+003;1.491253e-001
1.332627e+003;1.495885e-001
1.334555e+003;1.497907e-001
1.336484e+003;1.491390e-001
1.338412e+003;1.479330e-001
1.340341e+003;1.464999e-001
1.342269e+003;1.452317e-001
1.344198e+003;1.439707e-001
1.346126e+003;1.427914e-001
1.348055e+003;1.424182e-001
1.349984e+003;1.425799e-001
1.351912e+003;1.429984e-001
1.353841e+003;1.436030e-001
1.355769e+003;1.451499e-001
1.357698e+003;1.475779e-001
1.359626e+003;1.497974e-001
1.361555e+003;1.515915e-001
1.363483e+003;1.528990e-001
1.365412e+003;1.535809e-001
1.367341e+003;1.539482e-001
1.369269e+003;1.533196e-001
1.371198e+003;1.523133e-001
1.373126e+003;1.512126e-001
1.375055e+003;1.492330e-001
1.376983e+003;1.462799e-001
1.378912e+003;1.432505e-001
1.380840e+003;1.400862e-001
1.382769e+003;1.366270e-001
1.384698e+003;1.336177e-001
1.386626e+003;1.311928e-001
1.388555e+003;1.290688e-001
1.390483e+003;1.274055e-001
1.392412e+003;1.264441e-001
1.394340e+003;1.257231e-001
1.396269e+003;1.255421e-001
1.398197e+003;1.256475e-001
1.400126e+003;1.259969e-001
1.402054e+003;1.265933e-001
1.403983e+003;1.273709e-001
1.405911e+003;1.288496e-001
1.407840e+003;1.305146e-001
1.409769e+003;1.320365e-001
1.411697e+003;1.336950e-001
1.413626e+003;1.355465e-001
1.415554e+003;1.375549e-001
1.417483e+003;1.389529e-001
1.419411e+003;1.399361e-001
1.421340e+003;1.407351e-001
1.423268e+003;1.407938e-001
1.425197e+003;1.404051e-001
1.427125e+003;1.393213e-001
1.429054e+003;1.378276e-001
1.430983e+003;1.364828e-001
1.432911e+003;1.345358e-001
1.434840e+003;1.325947e-001
1.436768e+003;1.308427e-001
1.438697e+003;1.291951e-001
1.440625e+003;1.280573e-001
1.442554e+003;1.273683e-001
1.444482e+003;1.264139e-001
1.446411e+003;1.254171e-001
1.448340e+003;1.249665e-001
1.450268e+003;1.246759e-001
1.452197e+003;1.241775e-001
1.454125e+003;1.235554e-001
1.456054e+003;1.225384e-001
1.457982e+003;1.216768e-001
1.459911e+003;1.210312e-001
1.461839e+003;1.196584e-001
1.463768e+003;1.178118e-001
1.465697e+003;1.155942e-001
1.467625e+003;1.122662e-001
1.469554e+003;1.082455e-001
1.471482e+003;1.041548e-001
1.473411e+003;1.006181e-001
1.475339e+003;9.753923e-002
1.477268e+003;9.451853e-002
1.479196e+003;9.197517e-002
1.481125e+003;8.990280e-002
1.483053e+003;8.809457e-002
1.484982e+003;8.675829e-002
1.486911e+003;8.560383e-002
1.488839e+003;8.468406e-002
1.490768e+003;8.438320e-002
1.492696e+003;8.488432e-002
1.494625e+003;8.540460e-002
1.496553e+003;8.565988e-002
1.498482e+003;8.625387e-002
1.500410e+003;8.663774e-002
1.502339e+003;8.659927e-002
1.504267e+003;8.636725e-002
1.506196e+003;8.575768e-002
1.508125e+003;8.480017e-002
1.510053e+003;8.343044e-002
1.511982e+003;8.190082e-002
1.513910e+003;8.047052e-002
1.515839e+003;7.875223e-002
1.517767e+003;7.724542e-002
1.519696e+003;7.613402e-002
1.521624e+003;7.499261e-002
1.523553e+003;7.422429e-002
1.525481e+003;7.383256e-002
1.527410e+003;7.347912e-002
1.529339e+003;7.321462e-002
1.531267e+003;7.309220e-002
1.533196e+003;7.308745e-002
1.535124e+003;7.305284e-002
1.537053e+003;7.266423e-002
1.538981e+003;7.230915e-002
1.540910e+003;7.245324e-002
1.542838e+003;7.305817e-002
1.544767e+003;7.368157e-002
1.546695e+003;7.415877e-002
1.548624e+003;7.467505e-002
1.550553e+003;7.546246e-002
1.552481e+003;7.634926e-002
1.554410e+003;7.723042e-002
1.556338e+003;7.747459e-002
1.558267e+003;7.762520e-002
1.560195e+003;7.858273e-002
1.562124e+003;8.011578e-002
1.564052e+003;8.175245e-002
1.565981e+003;8.309815e-002
1.567910e+003;8.430969e-002
1.569838e+003;8.602770e-002
1.571767e+003;8.844253e-002
1.573695e+003;9.094553e-002
1.575624e+003;9.357072e-002
1.577552e+003;9.686612e-002
1.579481e+003;1.009178e-001
1.581409e+003;1.048433e-001
1.583338e+003;1.088366e-001
1.585266e+003;1.130574e-001
1.587195e+003;1.172019e-001
1.589124e+003;1.210088e-001
1.591052e+003;1.239884e-001
1.592981e+003;1.258986e-001
1.594909e+003;1.268742e-001
1.596838e+003;1.268580e-001
1.598766e+003;1.263756e-001
1.600695e+003;1.255067e-001
1.602623e+003;1.244815e-001
1.604552e+003;1.237740e-001
1.606480e+003;1.230501e-001
1.608409e+003;1.226060e-001
1.610338e+003;1.224675e-001
1.612266e+003;1.218031e-001
1.614195e+003;1.210132e-001
1.616123e+003;1.203092e-001
1.618052e+003;1.196267e-001
1.619980e+003;1.191072e-001
1.621909e+003;1.184713e-001
1.623837e+003;1.179931e-001
1.625766e+003;1.172838e-001
1.627694e+003;1.163880e-001
1.629623e+003;1.155284e-001
1.631552e+003;1.145092e-001
1.633480e+003;1.135572e-001
1.635409e+003;1.125273e-001
1.637337e+003;1.113838e-001
1.639266e+003;1.106034e-001
1.641194e+003;1.100550e-001
1.643123e+003;1.094082e-001
1.645051e+003;1.086013e-001
1.646980e+003;1.072846e-001
1.648909e+003;1.059450e-001
1.650837e+003;1.049906e-001
1.652766e+003;1.035755e-001
1.654694e+003;1.023593e-001
1.656623e+003;1.011041e-001
1.658551e+003;9.948865e-002
1.660480e+003;9.802890e-002
1.662408e+003;9.703205e-002
1.664337e+003;9.614827e-002
1.666266e+003;9.474386e-002
1.668194e+003;9.299093e-002
1.670123e+003;9.150741e-002
1.672051e+003;9.054715e-002
1.673980e+003;8.935755e-002
1.675908e+003;8.799430e-002
1.677837e+003;8.718220e-002
1.679765e+003;8.628031e-002
1.681694e+003;8.511929e-002
1.683622e+003;8.409984e-002
1.685551e+003;8.379023e-002
1.687479e+003;8.380445e-002
1.689408e+003;8.389581e-002
1.691337e+003;8.431616e-002
1.693265e+003;8.487372e-002
1.695194e+003;8.562715e-002
1.697122e+003;8.683323e-002
1.699051e+003;8.828467e-002
1.700979e+003;9.000323e-002
1.702908e+003;9.233376e-002
1.704836e+003;9.486561e-002
1.706765e+003;9.766119e-002
1.708693e+003;1.005665e-001
1.710622e+003;1.035505e-001
1.712551e+003;1.068031e-001
1.714479e+003;1.098573e-001
1.716408e+003;1.123952e-001
1.718336e+003;1.150514e-001
1.720265e+003;1.182017e-001
1.722193e+003;1.209621e-001
1.724122e+003;1.231812e-001
1.726050e+003;1.251018e-001
1.727979e+003;1.264935e-001
1.729908e+003;1.275008e-001
1.731836e+003;1.284067e-001
1.733765e+003;1.288286e-001
1.735693e+003;1.288752e-001
1.737622e+003;1.282011e-001
1.739550e+003;1.265877e-001
1.741479e+003;1.243257e-001
1.743407e+003;1.211436e-001
1.745336e+003;1.173104e-001
1.747265e+003;1.133814e-001
1.749193e+003;1.093147e-001
1.751122e+003;1.048131e-001
1.753050e+003;1.002881e-001
1.754979e+003;9.601776e-002
1.756907e+003;9.185980e-002
1.758836e+003;8.796638e-002
1.760764e+003;8.371244e-002
1.762693e+003;7.956657e-002
1.764621e+003;7.592181e-002
1.766550e+003;7.247293e-002
1.768479e+003;6.934487e-002
1.770407e+003;6.648181e-002
1.772336e+003;6.352706e-002
1.774264e+003;6.111010e-002
1.776193e+003;5.927775e-002
1.778121e+003;5.755041e-002
1.780050e+003;5.597433e-002
1.781978e+003;5.452117e-002
1.783907e+003;5.326359e-002
1.785835e+003;5.210378e-002
1.787764e+003;5.117736e-002
1.789693e+003;5.046475e-002
1.791621e+003;4.982821e-002
1.793550e+003;4.917372e-002
1.795478e+003;4.877928e-002
1.797407e+003;4.820943e-002
1.799335e+003;4.778926e-002
1.801264e+003;4.746589e-002
1.803192e+003;4.701155e-002
1.805121e+003;4.639431e-002
1.807049e+003;4.590375e-002
1.808978e+003;4.551708e-002
1.810907e+003;4.515781e-002
1.812835e+003;4.505529e-002
1.814764e+003;4.474485e-002
1.816692e+003;4.439264e-002
1.818621e+003;4.419861e-002
1.820549e+003;4.403899e-002
1.822478e+003;4.367853e-002
1.824406e+003;4.356137e-002
1.826335e+003;4.345973e-002
1.828264e+003;4.302112e-002
1.830192e+003;4.251257e-002
1.832121e+003;4.233359e-002
1.834049e+003;4.237377e-002
1.835978e+003;4.216823e-002
1.837906e+003;4.207068e-002
1.839835e+003;4.217929e-002
1.841763e+003;4.210207e-002
1.843692e+003;4.186101e-002
1.845620e+003;4.149429e-002
1.847549e+003;4.139809e-002
1.849478e+003;4.139179e-002
1.851406e+003;4.123294e-002
1.853335e+003;4.100620e-002
1.855263e+003;4.094812e-002
1.857192e+003;4.100278e-002
1.859120e+003;4.090622e-002
1.861049e+003;4.056536e-002
1.862977e+003;4.042431e-002
1.864906e+003;4.019905e-002
1.866834e+003;4.010913e-002
1.868763e+003;4.020973e-002
1.870692e+003;4.042031e-002
1.872620e+003;4.067790e-002
1.874549e+003;4.054558e-002
1.876477e+003;4.024881e-002
1.878406e+003;4.011611e-002
1.880334e+003;4.011415e-002
1.882263e+003;4.000670e-002
1.884191e+003;4.002512e-002
1.886120e+003;4.011604e-002
1.888048e+003;3.995305e-002
1.889977e+003;3.975885e-002
1.891906e+003;3.983587e-002
1.893834e+003;3.983064e-002
1.895763e+003;3.963040e-002
1.897691e+003;3.963693e-002
1.899620e+003;3.957461e-002
1.901548e+003;3.975976e-002
1.903477e+003;3.979817e-002
1.905405e+003;3.994887e-002
1.907334e+003;4.037886e-002
1.909262e+003;4.039642e-002
1.911191e+003;4.025524e-002
1.913120e+003;4.024554e-002
1.915048e+003;4.054226e-002
1.916977e+003;4.058203e-002
1.918905e+003;4.066189e-002
1.920834e+003;4.103184e-002
1.922762e+003;4.126482e-002
1.924691e+003;4.124926e-002
1.926619e+003;4.110468e-002
1.928548e+003;4.095034e-002
1.930477e+003;4.100627e-002
1.932405e+003;4.110868e-002
1.934334e+003;4.117458e-002
1.936262e+003;4.123262e-002
1.938191e+003;4.147391e-002
1.940119e+003;4.158847e-002
1.942048e+003;4.142474e-002
1.943976e+003;4.168518e-002
1.945905e+003;4.205921e-002
1.947833e+003;4.214515e-002
1.949762e+003;4.213171e-002
1.951691e+003;4.208309e-002
1.953619e+003;4.215183e-002
1.955548e+003;4.225039e-002
1.957476e+003;4.229801e-002
1.959405e+003;4.239766e-002
1.961333e+003;4.248480e-002
1.963262e+003;4.234853e-002
1.965190e+003;4.222395e-002
1.967119e+003;4.203410e-002
1.969047e+003;4.178461e-002
1.970976e+003;4.191629e-002
1.972905e+003;4.222482e-002
1.974833e+003;4.231269e-002
1.976762e+003;4.241808e-002
1.978690e+003;4.260832e-002
1.980619e+003;4.268939e-002
1.982547e+003;4.249952e-002
1.984476e+003;4.255554e-002
1.986404e+003;4.270453e-002
1.988333e+003;4.290202e-002
1.990261e+003;4.330602e-002
1.992190e+003;4.335728e-002
1.994119e+003;4.314812e-002
1.996047e+003;4.329885e-002
1.997976e+003;4.352617e-002
1.999904e+003;4.344512e-002
2.001833e+003;4.353720e-002
2.003761e+003;4.384270e-002
2.005690e+003;4.420800e-002
2.007618e+003;4.431356e-002
2.009547e+003;4.433150e-002
2.011476e+003;4.467565e-002
2.013404e+003;4.504837e-002
2.015333e+003;4.525043e-002
2.017261e+003;4.521517e-002
2.019190e+003;4.538206e-002
2.021118e+003;4.553430e-002
2.023047e+003;4.544018e-002
2.024975e+003;4.553073e-002
2.026904e+003;4.582027e-002
2.028833e+003;4.599907e-002
2.030761e+003;4.614342e-002
2.032690e+003;4.625143e-002
2.034618e+003;4.659294e-002
2.036547e+003;4.695978e-002
2.038475e+003;4.702853e-002
2.040404e+003;4.729080e-002
2.042332e+003;4.752569e-002
2.044261e+003;4.727617e-002
2.046189e+003;4.726162e-002
2.048118e+003;4.738953e-002
2.050047e+003;4.739023e-002
2.051975e+003;4.735003e-002
2.053904e+003;4.733211e-002
2.055832e+003;4.760473e-002
2.057761e+003;4.769766e-002
2.059689e+003;4.765842e-002
2.061618e+003;4.800666e-002
2.063546e+003;4.797373e-002
2.065475e+003;4.786528e-002
2.067404e+003;4.794390e-002
2.069332e+003;4.795586e-002
2.071260e+003;4.794431e-002
2.073189e+003;4.809175e-002
2.075118e+003;4.795700e-002
2.077046e+003;4.777921e-002
2.078975e+003;4.765927e-002
2.080903e+003;4.756536e-002
2.082832e+003;4.779282e-002
2.084760e+003;4.804893e-002
2.086689e+003;4.813784e-002
2.088617e+003;4.787786e-002
2.090546e+003;4.791911e-002
2.092475e+003;4.816786e-002
2.094403e+003;4.821751e-002
2.096332e+003;4.812303e-002
2.098260e+003;4.823935e-002
2.100189e+003;4.847338e-002
2.102117e+003;4.853011e-002
2.104046e+003;4.833763e-002
2.105974e+003;4.840145e-002
2.107903e+003;4.886095e-002
2.109832e+003;4.902914e-002
2.111760e+003;4.904038e-002
2.113688e+003;4.921573e-002
2.115617e+003;4.903085e-002
2.117546e+003;4.897161e-002
2.119474e+003;4.916801e-002
2.121403e+003;4.914434e-002
2.123331e+003;4.919513e-002
2.125260e+003;4.936059e-002
2.127188e+003;4.923068e-002
2.129117e+003;4.914163e-002
2.131045e+003;4.969668e-002
2.132974e+003;5.005850e-002
2.134903e+003;4.965886e-002
2.136831e+003;4.926549e-002
2.138760e+003;4.905218e-002
2.140688e+003;4.887019e-002
2.142617e+003;4.885721e-002
2.144545e+003;4.900021e-002
2.146474e+003;4.902180e-002
2.148402e+003;4.893772e-002
2.150331e+003;4.900874e-002
2.152260e+003;4.920867e-002
2.154188e+003;4.908757e-002
2.156117e+003;4.892596e-002
2.158045e+003;4.878091e-002
2.159974e+003;4.880359e-002
2.161902e+003;4.879774e-002
2.163831e+003;4.856883e-002
2.165759e+003;4.839348e-002
2.167688e+003;4.846301e-002
2.169616e+003;4.848883e-002
2.171545e+003;4.809471e-002
2.173474e+003;4.770908e-002
2.175402e+003;4.753907e-002
2.177331e+003;4.724026e-002
2.179259e+003;4.693870e-002
2.181188e+003;4.696078e-002
2.183116e+003;4.716568e-002
2.185045e+003;4.702831e-002
2.186973e+003;4.664049e-002
2.188902e+003;4.637183e-002
2.190831e+003;4.631273e-002
2.192759e+003;4.640291e-002
2.194688e+003;4.613170e-002
2.196616e+003;4.585506e-002
2.198545e+003;4.580705e-002
2.200473e+003;4.596242e-002
2.202402e+003;4.608874e-002
2.204330e+003;4.625807e-002
2.206259e+003;4.649531e-002
2.208188e+003;4.630705e-002
2.210116e+003;4.589881e-002
2.212044e+003;4.572417e-002
2.213973e+003;4.565847e-002
2.215902e+003;4.569057e-002
2.217830e+003;4.576559e-002
2.219759e+003;4.600588e-002
2.221687e+003;4.607709e-002
2.223616e+003;4.597490e-002
2.225544e+003;4.611361e-002
2.227473e+003;4.646780e-002
2.229401e+003;4.644295e-002
2.231330e+003;4.615189e-002
2.233259e+003;4.588846e-002
2.235187e+003;4.586931e-002
2.237116e+003;4.617164e-002
2.239044e+003;4.647060e-002
2.240973e+003;4.659150e-002
2.242901e+003;4.660176e-002
2.244830e+003;4.644107e-002
2.246758e+003;4.615451e-002
2.248687e+003;4.587244e-002
2.250615e+003;4.578363e-002
2.252544e+003;4.571696e-002
2.254473e+003;4.563130e-002
2.256401e+003;4.567463e-002
2.258330e+003;4.590769e-002
2.260258e+003;4.597954e-002
2.262187e+003;4.591984e-002
2.264115e+003;4.578301e-002
2.266044e+003;4.568250e-002
2.267972e+003;4.562531e-002
2.269901e+003;4.575727e-002
2.271830e+003;4.573091e-002
2.273758e+003;4.531644e-002
2.275687e+003;4.511211e-002
2.277615e+003;4.509700e-002
2.279544e+003;4.519803e-002
2.281472e+003;4.563318e-002
2.283401e+003;4.551126e-002
2.285329e+003;4.497663e-002
2.287258e+003;4.500850e-002
2.289187e+003;4.516185e-002
2.291115e+003;4.501327e-002
2.293043e+003;4.485879e-002
2.294972e+003;4.479844e-002
2.296901e+003;4.488161e-002
2.298829e+003;4.485270e-002
2.300758e+003;4.511219e-002
2.302686e+003;4.534756e-002
2.304615e+003;4.538000e-002
2.306543e+003;4.533233e-002
2.308472e+003;4.542149e-002
2.310400e+003;4.553566e-002
2.312329e+003;4.513038e-002
2.314258e+003;4.477735e-002
2.316186e+003;4.507771e-002
2.318115e+003;4.518814e-002
2.320043e+003;4.498759e-002
2.321972e+003;4.499240e-002
2.323900e+003;4.492126e-002
2.325829e+003;4.488319e-002
2.327757e+003;4.479847e-002
2.329686e+003;4.439620e-002
2.331615e+003;4.417458e-002
2.333543e+003;4.447930e-002
2.335472e+003;4.448932e-002
2.337400e+003;4.451622e-002
2.339329e+003;4.481037e-002
2.341257e+003;4.514406e-002
2.343186e+003;4.550597e-002
2.345114e+003;4.586309e-002
2.347043e+003;4.615878e-002
2.348971e+003;4.611626e-002
2.350900e+003;4.580068e-002
2.352829e+003;4.561456e-002
2.354757e+003;4.545468e-002
2.356686e+003;4.538934e-002
2.358614e+003;4.555818e-002
2.360543e+003;4.569082e-002
2.362471e+003;4.568692e-002
2.364400e+003;4.580738e-002
2.366328e+003;4.625865e-002
2.368257e+003;4.669782e-002
2.370186e+003;4.685012e-002
2.372114e+003;4.711756e-002
2.374042e+003;4.746082e-002
2.375971e+003;4.754883e-002
2.377900e+003;4.758761e-002
2.379828e+003;4.799064e-002
2.381757e+003;4.854089e-002
2.383685e+003;4.887942e-002
2.385614e+003;4.898797e-002
2.387542e+003;4.892867e-002
2.389471e+003;4.883285e-002
2.391399e+003;4.880641e-002
2.393328e+003;4.900640e-002
2.395257e+003;4.931683e-002
2.397185e+003;4.971422e-002
2.399114e+003;4.994012e-002
2.401042e+003;5.010769e-002
2.402971e+003;5.013867e-002
2.404899e+003;4.987422e-002
2.406828e+003;4.989043e-002
2.408756e+003;5.003053e-002
2.410685e+003;5.026695e-002
2.412614e+003;5.059402e-002
2.414542e+003;5.087880e-002
2.416471e+003;5.129656e-002
2.418399e+003;5.143220e-002
2.420328e+003;5.120137e-002
2.422256e+003;5.129078e-002
2.424185e+003;5.146360e-002
2.426113e+003;5.155553e-002
2.428042e+003;5.162101e-002
2.429970e+003;5.156060e-002
2.431899e+003;5.196718e-002
2.433828e+003;5.228623e-002
2.435756e+003;5.242670e-002
2.437685e+003;5.239568e-002
2.439613e+003;5.216527e-002
2.441542e+003;5.227704e-002
2.443470e+003;5.273255e-002
2.445399e+003;5.319030e-002
2.447327e+003;5.315614e-002
2.449256e+003;5.309151e-002
2.451185e+003;5.325356e-002
2.453113e+003;5.356823e-002
2.455042e+003;5.370751e-002
2.456970e+003;5.366015e-002
2.458899e+003;5.381442e-002
2.460827e+003;5.417432e-002
2.462756e+003;5.455442e-002
2.464684e+003;5.477050e-002
2.466613e+003;5.469104e-002
2.468542e+003;5.452546e-002
2.470470e+003;5.461228e-002
2.472398e+003;5.503726e-002
2.474327e+003;5.517234e-002
2.476256e+003;5.509026e-002
2.478184e+003;5.523416e-002
2.480113e+003;5.552083e-002
2.482041e+003;5.550475e-002
2.483970e+003;5.522276e-002
2.485898e+003;5.526152e-002
2.487827e+003;5.562842e-002
2.489755e+003;5.597772e-002
2.491684e+003;5.592544e-002
2.493613e+003;5.582295e-002
2.495541e+003;5.613919e-002
2.497470e+003;5.662972e-002
2.499398e+003;5.666596e-002
2.501327e+003;5.662734e-002
2.503255e+003;5.694032e-002
2.505184e+003;5.715622e-002
2.507112e+003;5.720063e-002
2.509041e+003;5.729919e-002
2.510969e+003;5.733510e-002
2.512898e+003;5.774660e-002
2.514827e+003;5.807860e-002
2.516755e+003;5.795643e-002
2.518684e+003;5.769683e-002
2.520612e+003;5.791482e-002
2.522541e+003;5.812185e-002
2.524469e+003;5.814443e-002
2.526398e+003;5.841403e-002
2.528326e+003;5.867523e-002
2.530255e+003;5.862688e-002
2.532184e+003;5.854994e-002
2.534112e+003;5.854172e-002
2.536041e+003;5.834627e-002
2.537969e+003;5.833103e-002
2.539898e+003;5.861475e-002
2.541826e+003;5.888240e-002
2.543755e+003;5.882818e-002
2.545683e+003;5.887834e-002
2.547612e+003;5.894513e-002
2.549541e+003;5.890965e-002
2.551469e+003;5.890073e-002
2.553397e+003;5.897341e-002
2.555326e+003;5.929142e-002
2.557255e+003;5.936104e-002
2.559183e+003;5.921865e-002
2.561112e+003;5.932515e-002
2.563040e+003;5.956231e-002
2.564969e+003;5.967569e-002
2.566897e+003;5.961552e-002
2.568826e+003;5.960940e-002
2.570754e+003;5.978344e-002
2.572683e+003;5.988117e-002
2.574612e+003;5.992753e-002
2.576540e+003;5.988965e-002
2.578469e+003;5.982644e-002
2.580397e+003;5.968763e-002
2.582326e+003;6.006803e-002
2.584254e+003;6.064874e-002
2.586183e+003;6.073047e-002
2.588111e+003;6.073039e-002
2.590040e+003;6.068394e-002
2.591969e+003;6.064420e-002
2.593897e+003;6.076175e-002
2.595826e+003;6.079579e-002
2.597754e+003;6.090278e-002
2.599683e+003;6.097381e-002
2.601611e+003;6.094407e-002
2.603540e+003;6.136843e-002
2.605468e+003;6.164692e-002
2.607397e+003;6.158521e-002
2.609325e+003;6.162920e-002
2.611254e+003;6.195711e-002
2.613183e+003;6.198462e-002
2.615111e+003;6.197377e-002
2.617040e+003;6.227326e-002
2.618968e+003;6.273850e-002
2.620897e+003;6.286015e-002
2.622825e+003;6.263767e-002
2.624754e+003;6.267124e-002
2.626682e+003;6.293793e-002
2.628611e+003;6.307208e-002
2.630540e+003;6.307939e-002
2.632468e+003;6.329447e-002
2.634396e+003;6.360672e-002
2.636325e+003;6.368460e-002
2.638254e+003;6.369811e-002
2.640182e+003;6.378993e-002
2.642111e+003;6.386696e-002
2.644039e+003;6.424889e-002
2.645968e+003;6.464814e-002
2.647896e+003;6.476633e-002
2.649825e+003;6.484503e-002
2.651753e+003;6.521657e-002
2.653682e+003;6.548425e-002
2.655611e+003;6.536044e-002
2.657539e+003;6.529162e-002
2.659468e+003;6.557715e-002
2.661396e+003;6.576698e-002
2.663325e+003;6.564802e-002
2.665253e+003;6.585087e-002
2.667182e+003;6.626993e-002
2.669110e+003;6.664556e-002
2.671039e+003;6.664305e-002
2.672968e+003;6.654077e-002
2.674896e+003;6.676363e-002
2.676825e+003;6.693097e-002
2.678753e+003;6.730949e-002
2.680682e+003;6.768958e-002
2.682610e+003;6.767344e-002
2.684539e+003;6.777358e-002
2.686467e+003;6.806780e-002
2.688396e+003;6.823432e-002
2.690324e+003;6.837513e-002
2.692253e+003;6.851237e-002
2.694182e+003;6.865073e-002
2.696110e+003;6.901312e-002
2.698039e+003;6.927553e-002
2.699967e+003;6.914660e-002
2.701896e+003;6.913479e-002
2.703824e+003;6.932260e-002
2.705753e+003;6.952313e-002
2.707681e+003;6.964459e-002
2.709610e+003;6.981301e-002
2.711539e+003;6.993007e-002
2.713467e+003;6.993482e-002
2.715396e+003;7.042654e-002
2.717324e+003;7.076904e-002
2.719253e+003;7.084166e-002
2.721181e+003;7.109859e-002
2.723110e+003;7.148978e-002
2.725038e+003;7.140522e-002
2.726967e+003;7.117337e-002
2.728896e+003;7.106120e-002
2.730824e+003;7.092093e-002
2.732752e+003;7.111935e-002
2.734681e+003;7.161281e-002
2.736610e+003;7.184242e-002
2.738538e+003;7.180095e-002
2.740467e+003;7.180502e-002
2.742395e+003;7.200904e-002
2.744324e+003;7.238568e-002
2.746252e+003;7.259436e-002
2.748181e+003;7.268315e-002
2.750109e+003;7.285338e-002
2.752038e+003;7.288954e-002
2.753967e+003;7.271778e-002
2.755895e+003;7.267876e-002
2.757824e+003;7.289519e-002
2.759752e+003;7.304896e-002
2.761681e+003;7.335607e-002
2.763609e+003;7.352032e-002
2.765538e+003;7.325482e-002
2.767466e+003;7.340476e-002
2.769395e+003;7.361621e-002
2.771323e+003;7.361020e-002
2.773252e+003;7.377671e-002
2.775181e+003;7.420484e-002
2.777109e+003;7.458409e-002
2.779038e+003;7.489453e-002
2.780966e+003;7.506728e-002
2.782895e+003;7.520870e-002
2.784823e+003;7.534993e-002
2.786752e+003;7.508895e-002
2.788680e+003;7.521989e-002
2.790609e+003;7.556079e-002
2.792538e+003;7.578608e-002
2.794466e+003;7.626031e-002
2.796395e+003;7.659345e-002
2.798323e+003;7.666377e-002
2.800252e+003;7.716131e-002
2.802180e+003;7.764723e-002
2.804109e+003;7.788922e-002
2.806037e+003;7.821183e-002
2.807966e+003;7.849090e-002
2.809895e+003;7.912863e-002
2.811823e+003;7.953059e-002
2.813751e+003;7.989262e-002
2.815680e+003;8.039866e-002
2.817609e+003;8.065400e-002
2.819537e+003;8.080009e-002
2.821466e+003;8.137572e-002
2.823394e+003;8.221854e-002
2.825323e+003;8.273003e-002
2.827251e+003;8.310658e-002
2.829180e+003;8.372987e-002
2.831108e+003;8.466364e-002
2.833037e+003;8.554051e-002
2.834966e+003;8.676808e-002
2.836894e+003;8.768255e-002
2.838823e+003;8.823685e-002
2.840751e+003;8.910275e-002
2.842680e+003;9.019837e-002
2.844608e+003;9.157025e-002
2.846537e+003;9.318192e-002
2.848465e+003;9.477963e-002
2.850394e+003;9.627517e-002
2.852323e+003;9.765609e-002
2.854251e+003;9.854307e-002
2.856180e+003;9.894785e-002
2.858108e+003;9.960378e-002
2.860037e+003;9.990612e-002
2.861965e+003;9.998390e-002
2.863894e+003;1.007073e-001
2.865822e+003;1.017396e-001
2.867751e+003;1.024233e-001
2.869679e+003;1.026131e-001
2.871608e+003;1.030235e-001
2.873536e+003;1.034906e-001
2.875465e+003;1.040316e-001
2.877394e+003;1.047893e-001
2.879322e+003;1.051252e-001
2.881251e+003;1.048668e-001
2.883179e+003;1.049961e-001
2.885108e+003;1.061006e-001
2.887036e+003;1.064975e-001
2.888965e+003;1.063555e-001
2.890893e+003;1.067157e-001
2.892822e+003;1.072365e-001
2.894750e+003;1.074494e-001
2.896679e+003;1.072559e-001
2.898608e+003;1.077633e-001
2.900536e+003;1.083506e-001
2.902465e+003;1.081849e-001
2.904393e+003;1.081353e-001
2.906322e+003;1.084052e-001
2.908250e+003;1.085546e-001
2.910179e+003;1.085297e-001
2.912107e+003;1.083495e-001
2.914036e+003;1.083105e-001
2.915965e+003;1.082472e-001
2.917893e+003;1.082373e-001
2.919822e+003;1.083632e-001
2.921750e+003;1.078212e-001
2.923679e+003;1.079190e-001
2.925607e+003;1.079825e-001
2.927536e+003;1.069014e-001
2.929464e+003;1.059739e-001
2.931393e+003;1.056519e-001
2.933322e+003;1.048096e-001
2.935250e+003;1.037509e-001
2.937178e+003;1.027838e-001
2.939107e+003;1.016313e-001
2.941036e+003;1.006360e-001
2.942964e+003;9.956144e-002
2.944893e+003;9.830915e-002
2.946821e+003;9.770795e-002
2.948750e+003;9.719548e-002
2.950678e+003;9.640129e-002
2.952607e+003;9.558596e-002
2.954535e+003;9.426463e-002
2.956464e+003;9.267069e-002
2.958393e+003;9.159553e-002
2.960321e+003;9.086804e-002
2.962250e+003;9.002740e-002
2.964178e+003;8.921386e-002
2.966107e+003;8.808402e-002
2.968035e+003;8.695428e-002
2.969964e+003;8.623201e-002
2.971892e+003;8.586159e-002
2.973821e+003;8.574028e-002
2.975750e+003;8.504819e-002
2.977678e+003;8.395381e-002
2.979607e+003;8.315645e-002
2.981535e+003;8.242668e-002
2.983464e+003;8.187073e-002
2.985392e+003;8.120428e-002
2.987321e+003;8.063980e-002
2.989249e+003;8.036202e-002
2.991178e+003;8.034094e-002
2.993106e+003;8.029405e-002
2.995035e+003;7.986128e-002
2.996964e+003;7.962670e-002
2.998892e+003;7.972753e-002
3.000821e+003;7.974342e-002
3.002749e+003;7.952093e-002
3.004678e+003;7.892509e-002
3.006606e+003;7.877201e-002
3.008535e+003;7.900867e-002
3.010463e+003;7.891468e-002
3.012392e+003;7.867839e-002
3.014321e+003;7.867621e-002
3.016249e+003;7.870957e-002
3.018177e+003;7.870706e-002
3.020106e+003;7.864269e-002
3.022035e+003;7.891480e-002
3.023963e+003;7.909913e-002
3.025892e+003;7.884785e-002
3.027820e+003;7.899984e-002
3.029749e+003;7.933004e-002
3.031677e+003;7.957572e-002
3.033606e+003;7.991058e-002
3.035534e+003;8.023689e-002
3.037463e+003;7.982352e-002
3.039392e+003;7.982954e-002
3.041320e+003;8.069214e-002
3.043249e+003;8.102515e-002
3.045177e+003;8.114009e-002
3.047106e+003;8.166131e-002
3.049034e+003;8.180245e-002
3.050963e+003;8.196432e-002
3.052891e+003;8.226011e-002
3.054820e+003;8.246398e-002
3.056749e+003;8.266947e-002
3.058677e+003;8.298101e-002
3.060606e+003;8.348332e-002
3.062534e+003;8.379722e-002
3.064463e+003;8.403832e-002
3.066391e+003;8.451319e-002
3.068320e+003;8.502164e-002
3.070248e+003;8.528031e-002
3.072177e+003;8.532455e-002
3.074105e+003;8.547475e-002
3.076034e+003;8.580733e-002
3.077963e+003;8.651434e-002
3.079891e+003;8.701205e-002
3.081820e+003;8.741412e-002
3.083748e+003;8.786557e-002
3.085677e+003;8.795409e-002
3.087605e+003;8.784711e-002
3.089534e+003;8.825889e-002
3.091462e+003;8.878849e-002
3.093391e+003;8.875154e-002
3.095320e+003;8.885207e-002
3.097248e+003;8.937725e-002
3.099177e+003;9.006687e-002
3.101105e+003;9.078546e-002
3.103034e+003;9.136459e-002
3.104962e+003;9.164009e-002
3.106891e+003;9.175656e-002
3.108819e+003;9.217415e-002
3.110748e+003;9.263410e-002
3.112677e+003;9.297644e-002
3.114605e+003;9.360355e-002
3.116533e+003;9.397730e-002
3.118462e+003;9.405679e-002
3.120391e+003;9.427150e-002
3.122319e+003;9.475891e-002
3.124248e+003;9.519152e-002
3.126176e+003;9.601504e-002
3.128105e+003;9.690976e-002
3.130033e+003;9.743994e-002
3.131962e+003;9.764215e-002
3.133890e+003;9.788666e-002
3.135819e+003;9.818344e-002
3.137748e+003;9.875772e-002
3.139676e+003;9.900495e-002
3.141605e+003;9.930928e-002
3.143533e+003;9.998941e-002
3.145462e+003;1.007799e-001
3.147390e+003;1.016526e-001
3.149319e+003;1.021611e-001
3.151247e+003;1.023458e-001
3.153176e+003;1.029463e-001
3.155104e+003;1.035310e-001
3.157033e+003;1.038724e-001
3.158962e+003;1.043563e-001
3.160890e+003;1.048584e-001
3.162819e+003;1.055127e-001
3.164747e+003;1.063534e-001
3.166676e+003;1.070804e-001
3.168604e+003;1.071977e-001
3.170533e+003;1.073151e-001
3.172461e+003;1.080996e-001
3.174390e+003;1.087827e-001
3.176319e+003;1.093343e-001
3.178247e+003;1.100865e-001
3.180176e+003;1.105374e-001
3.182104e+003;1.106930e-001
3.184033e+003;1.108413e-001
3.185961e+003;1.112921e-001
3.187890e+003;1.123105e-001
3.189818e+003;1.132150e-001
3.191747e+003;1.137388e-001
3.193676e+003;1.143349e-001
3.195604e+003;1.147754e-001
3.197532e+003;1.151546e-001
3.199461e+003;1.158607e-001
3.201390e+003;1.168049e-001
3.203318e+003;1.175563e-001
3.205247e+003;1.182359e-001
3.207175e+003;1.184950e-001
3.209104e+003;1.186914e-001
3.211032e+003;1.193161e-001
3.212961e+003;1.198563e-001
3.214889e+003;1.203832e-001
3.216818e+003;1.209764e-001
3.218747e+003;1.216158e-001
3.220675e+003;1.226029e-001
3.222604e+003;1.230904e-001
3.224532e+003;1.237036e-001
3.226461e+003;1.247325e-001
3.228389e+003;1.251405e-001
3.230318e+003;1.254302e-001
3.232246e+003;1.263301e-001
3.234175e+003;1.275727e-001
3.236104e+003;1.282899e-001
3.238032e+003;1.284341e-001
3.239961e+003;1.284892e-001
3.241889e+003;1.293857e-001
3.243818e+003;1.303629e-001
3.245746e+003;1.313305e-001
3.247675e+003;1.323573e-001
3.249603e+003;1.327147e-001
3.251532e+003;1.328439e-001
3.253460e+003;1.333717e-001
3.255389e+003;1.341668e-001
3.257318e+003;1.346612e-001
3.259246e+003;1.348185e-001
3.261175e+003;1.354409e-001
3.263103e+003;1.361403e-001
3.265032e+003;1.366460e-001
3.266960e+003;1.374543e-001
3.268889e+003;1.377914e-001
3.270817e+003;1.382854e-001
3.272746e+003;1.387035e-001
3.274675e+003;1.391007e-001
3.276603e+003;1.397756e-001
3.278531e+003;1.400570e-001
3.280460e+003;1.397315e-001
3.282389e+003;1.398037e-001
3.284317e+003;1.402315e-001
3.286246e+003;1.403516e-001
3.288174e+003;1.406102e-001
3.290103e+003;1.409425e-001
3.292031e+003;1.412711e-001
3.293960e+003;1.414953e-001
3.295888e+003;1.414860e-001
3.297817e+003;1.418523e-001
3.299746e+003;1.420699e-001
3.301674e+003;1.426105e-001
3.303603e+003;1.432412e-001
3.305531e+003;1.435728e-001
3.307460e+003;1.432685e-001
3.309388e+003;1.432856e-001
3.311317e+003;1.443045e-001
3.313245e+003;1.448058e-001
3.315174e+003;1.445261e-001
3.317103e+003;1.441433e-001
3.319031e+003;1.440739e-001
3.320960e+003;1.446108e-001
3.322888e+003;1.450700e-001
3.324817e+003;1.448084e-001
3.326745e+003;1.452124e-001
3.328674e+003;1.457868e-001
3.330602e+003;1.454941e-001
3.332531e+003;1.452251e-001
3.334459e+003;1.450489e-001
3.336388e+003;1.450063e-001
3.338317e+003;1.451594e-001
3.340245e+003;1.453753e-001
3.342174e+003;1.450275e-001
3.344102e+003;1.447744e-001
3.346031e+003;1.451619e-001
3.347959e+003;1.452238e-001
3.349888e+003;1.444808e-001
3.351816e+003;1.434638e-001
3.353745e+003;1.429056e-001
3.355674e+003;1.427636e-001
3.357602e+003;1.427622e-001
3.359531e+003;1.429296e-001
3.361459e+003;1.424525e-001
3.363388e+003;1.419318e-001
3.365316e+003;1.420544e-001
3.367245e+003;1.423009e-001
3.369173e+003;1.422165e-001
3.371102e+003;1.415230e-001
3.373031e+003;1.409954e-001
3.374959e+003;1.405558e-001
3.376887e+003;1.397866e-001
3.378816e+003;1.393254e-001
3.380745e+003;1.388797e-001
3.382673e+003;1.384804e-001
3.384602e+003;1.385228e-001
3.386530e+003;1.389994e-001
3.388459e+003;1.390515e-001
3.390387e+003;1.382356e-001
3.392316e+003;1.368959e-001
3.394244e+003;1.362709e-001
3.396173e+003;1.364196e-001
3.398102e+003;1.365580e-001
3.400030e+003;1.366549e-001
3.401959e+003;1.362263e-001
3.403887e+003;1.351886e-001
3.405816e+003;1.344781e-001
3.407744e+003;1.341096e-001
3.409673e+003;1.337214e-001
3.411601e+003;1.333608e-001
3.413530e+003;1.330786e-001
3.415458e+003;1.326324e-001
3.417387e+003;1.320143e-001
3.419316e+003;1.311683e-001
3.421244e+003;1.302978e-001
3.423173e+003;1.300182e-001
3.425101e+003;1.293425e-001
3.427030e+003;1.282595e-001
3.428958e+003;1.275275e-001
3.430887e+003;1.272627e-001
3.432815e+003;1.271135e-001
3.434744e+003;1.265412e-001
3.436673e+003;1.260464e-001
3.438601e+003;1.256934e-001
3.440530e+003;1.249744e-001
3.442458e+003;1.238132e-001
3.444387e+003;1.226326e-001
3.446315e+003;1.219093e-001
3.448244e+003;1.213301e-001
3.450172e+003;1.209055e-001
3.452101e+003;1.202862e-001
3.454030e+003;1.191456e-001
3.455958e+003;1.182486e-001
3.457886e+003;1.177266e-001
3.459815e+003;1.168902e-001
3.461744e+003;1.163973e-001
3.463672e+003;1.159841e-001
3.465601e+003;1.152208e-001
3.467529e+003;1.141899e-001
3.469458e+003;1.133506e-001
3.471386e+003;1.130193e-001
3.473315e+003;1.128241e-001
3.475243e+003;1.121539e-001
3.477172e+003;1.108741e-001
3.479101e+003;1.099117e-001
3.481029e+003;1.092323e-001
3.482958e+003;1.083953e-001
3.484886e+003;1.072710e-001
3.486815e+003;1.061764e-001
3.488743e+003;1.059292e-001
3.490672e+003;1.052746e-001
3.492600e+003;1.043177e-001
3.494529e+003;1.037887e-001
3.496458e+003;1.027423e-001
3.498386e+003;1.013593e-001
3.500315e+003;1.005269e-001
3.502243e+003;1.001135e-001
3.504172e+003;9.975905e-002
3.506100e+003;9.914139e-002
3.508029e+003;9.775331e-002
3.509957e+003;9.632927e-002
3.511886e+003;9.551463e-002
3.513814e+003;9.448369e-002
3.515743e+003;9.333831e-002
3.517672e+003;9.312894e-002
3.519600e+003;9.319354e-002
3.521529e+003;9.227990e-002
3.523457e+003;9.086747e-002
3.525386e+003;9.000139e-002
3.527314e+003;8.894823e-002
3.529243e+003;8.760985e-002
3.531171e+003;8.735120e-002
3.533100e+003;8.731737e-002
3.535029e+003;8.628237e-002
3.536957e+003;8.537250e-002
3.538885e+003;8.466651e-002
3.540814e+003;8.355211e-002
3.542743e+003;8.278159e-002
3.544671e+003;8.223480e-002
3.546600e+003;8.109244e-002
3.548528e+003;8.022203e-002
3.550457e+003;7.987992e-002
3.552385e+003;7.935853e-002
3.554314e+003;7.808498e-002
3.556242e+003;7.684980e-002
3.558171e+003;7.602408e-002
3.560100e+003;7.520653e-002
3.562028e+003;7.425952e-002
3.563957e+003;7.366524e-002
3.565885e+003;7.344631e-002
3.567814e+003;7.277776e-002
3.569742e+003;7.196434e-002
3.571671e+003;7.097079e-002
3.573599e+003;6.994128e-002
3.575528e+003;6.910619e-002
3.577457e+003;6.863944e-002
3.579385e+003;6.820788e-002
3.581314e+003;6.722319e-002
3.583242e+003;6.625848e-002
3.585171e+003;6.593162e-002
3.587099e+003;6.534311e-002
3.589028e+003;6.438817e-002
3.590956e+003;6.385399e-002
3.592885e+003;6.350803e-002
3.594813e+003;6.277525e-002
3.596742e+003;6.198914e-002
3.598671e+003;6.153802e-002
3.600599e+003;6.098315e-002
3.602528e+003;6.066184e-002
3.604456e+003;6.024145e-002
3.606385e+003;5.930775e-002
3.608313e+003;5.864641e-002
3.610242e+003;5.846259e-002
3.612170e+003;5.819440e-002
3.614099e+003;5.719595e-002
3.616028e+003;5.626631e-002
3.617956e+003;5.590016e-002
3.619885e+003;5.627951e-002
3.621813e+003;5.605941e-002
3.623742e+003;5.480162e-002
3.625670e+003;5.399718e-002
3.627599e+003;5.341499e-002
3.629527e+003;5.245841e-002
3.631456e+003;5.202496e-002
3.633385e+003;5.173521e-002
3.635313e+003;5.122054e-002
3.637241e+003;5.098431e-002
3.639170e+003;5.058914e-002
3.641099e+003;4.990652e-002
3.643027e+003;4.919610e-002
3.644956e+003;4.888676e-002
3.646884e+003;4.800537e-002
3.648813e+003;4.689813e-002
3.650741e+003;4.629622e-002
3.652670e+003;4.581699e-002
3.654598e+003;4.527393e-002
3.656527e+003;4.449354e-002
3.658456e+003;4.353166e-002
3.660384e+003;4.291902e-002
3.662313e+003;4.253153e-002
3.664241e+003;4.203523e-002
3.666170e+003;4.116777e-002
3.668098e+003;3.989620e-002
3.670027e+003;3.882435e-002
3.671955e+003;3.806673e-002
3.673884e+003;3.789453e-002
3.675813e+003;3.742603e-002
3.677741e+003;3.692287e-002
3.679669e+003;3.638558e-002
3.681598e+003;3.604772e-002
3.683527e+003;3.595143e-002
3.685455e+003;3.550670e-002
3.687384e+003;3.474484e-002
3.689312e+003;3.405486e-002
3.691241e+003;3.392178e-002
3.693169e+003;3.409030e-002
3.695098e+003;3.339002e-002
3.697026e+003;3.307440e-002
3.698955e+003;3.307096e-002
3.700884e+003;3.279752e-002
3.702812e+003;3.223294e-002
3.704741e+003;3.184060e-002
3.706669e+003;3.144523e-002
3.708598e+003;3.091749e-002
3.710526e+003;3.052747e-002
3.712455e+003;3.008251e-002
3.714383e+003;3.000400e-002
3.716312e+003;3.032028e-002
3.718240e+003;3.033179e-002
3.720169e+003;3.023449e-002
3.722098e+003;3.044423e-002
3.724026e+003;2.999793e-002
3.725955e+003;2.937412e-002
3.727883e+003;2.901790e-002
3.729812e+003;2.864997e-002
3.731740e+003;2.864101e-002
3.733669e+003;2.904914e-002
3.735597e+003;2.908450e-002
3.737526e+003;2.896958e-002
3.739455e+003;2.881741e-002
3.741383e+003;2.874264e-002
3.743312e+003;2.831874e-002
3.745240e+003;2.805552e-002
3.747169e+003;2.848432e-002
3.749097e+003;2.871375e-002
3.751026e+003;2.892283e-002
3.752954e+003;2.928844e-002
3.754883e+003;2.949117e-002
3.756812e+003;2.910466e-002
3.758740e+003;2.874257e-002
3.760668e+003;2.841021e-002
3.762597e+003;2.823394e-002
3.764526e+003;2.812748e-002
3.766454e+003;2.797419e-002
3.768383e+003;2.806382e-002
3.770311e+003;2.845803e-002
3.772240e+003;2.851199e-002
3.774168e+003;2.802830e-002
3.776097e+003;2.791483e-002
3.778025e+003;2.821095e-002
3.779954e+003;2.843019e-002
3.781883e+003;2.853234e-002
3.783811e+003;2.807220e-002
3.785740e+003;2.797554e-002
3.787668e+003;2.779333e-002
3.789597e+003;2.823542e-002
3.791525e+003;2.861744e-002
3.793454e+003;2.822598e-002
3.795382e+003;2.789059e-002
3.797311e+003;2.784971e-002
3.799240e+003;2.745962e-002
3.801168e+003;2.713956e-002
3.803097e+003;2.765700e-002
3.805025e+003;2.771181e-002
3.806954e+003;2.749209e-002
3.808882e+003;2.785586e-002
3.810811e+003;2.843274e-002
3.812739e+003;2.838973e-002
3.814668e+003;2.795875e-002
3.816596e+003;2.790935e-002
3.818525e+003;2.823351e-002
3.820454e+003;2.812625e-002
3.822382e+003;2.801215e-002
3.824311e+003;2.790239e-002
3.826239e+003;2.793490e-002
3.828168e+003;2.807616e-002
3.830096e+003;2.794493e-002
3.832025e+003;2.814152e-002
3.833953e+003;2.863068e-002
3.835882e+003;2.844289e-002
3.837811e+003;2.854589e-002
3.839739e+003;2.867726e-002
3.841667e+003;2.829480e-002
3.843596e+003;2.834509e-002
3.845525e+003;2.897089e-002
3.847453e+003;2.931616e-002
3.849382e+003;2.926264e-002
3.851310e+003;2.913782e-002
3.853239e+003;2.885530e-002
3.855167e+003;2.861132e-002
3.857096e+003;2.883434e-002
3.859024e+003;2.946748e-002
3.860953e+003;2.981885e-002
3.862882e+003;2.970158e-002
3.864810e+003;2.919009e-002
3.866739e+003;2.906448e-002
3.868667e+003;2.916433e-002
3.870596e+003;2.920724e-002
3.872524e+003;2.890707e-002
3.874453e+003;2.886327e-002
3.876381e+003;2.959973e-002
3.878310e+003;2.968072e-002
3.880239e+003;2.948234e-002
3.882167e+003;2.985913e-002
3.884096e+003;2.974533e-002
3.886024e+003;2.992228e-002
3.887953e+003;3.076143e-002
3.889881e+003;3.122621e-002
3.891810e+003;3.096624e-002
3.893738e+003;3.029641e-002
3.895667e+003;3.030913e-002
3.897595e+003;3.080611e-002
3.899524e+003;3.097919e-002
3.901453e+003;3.070560e-002
3.903381e+003;3.065009e-002
3.905310e+003;3.131420e-002
3.907238e+003;3.185415e-002
3.909167e+003;3.207641e-002
3.911095e+003;3.205515e-002
3.913024e+003;3.163753e-002
3.914952e+003;3.135227e-002
3.916881e+003;3.124031e-002
3.918810e+003;3.177358e-002
3.920738e+003;3.173850e-002
3.922667e+003;3.157485e-002
3.924595e+003;3.200293e-002
3.926524e+003;3.247390e-002
3.928452e+003;3.258475e-002
3.930381e+003;3.266522e-002
3.932309e+003;3.282700e-002
3.934238e+003;3.283125e-002
3.936167e+003;3.277469e-002
3.938095e+003;3.298691e-002
3.940023e+003;3.289158e-002
3.941952e+003;3.278726e-002
3.943881e+003;3.337321e-002
3.945809e+003;3.371318e-002
3.947738e+003;3.326423e-002
3.949666e+003;3.305884e-002
3.951595e+003;3.336977e-002
3.953523e+003;3.344620e-002
3.955452e+003;3.358755e-002
3.957380e+003;3.363831e-002
3.959309e+003;3.288071e-002
3.961238e+003;3.270480e-002
3.963166e+003;3.380884e-002
3.965095e+003;3.409912e-002
3.967023e+003;3.405206e-002
3.968952e+003;3.425233e-002
3.970880e+003;3.402508e-002
3.972809e+003;3.382202e-002
3.974737e+003;3.398473e-002
3.976666e+003;3.447489e-002
3.978594e+003;3.476946e-002
3.980523e+003;3.476888e-002
3.982452e+003;3.484862e-002
3.984380e+003;3.409364e-002
3.986309e+003;3.370395e-002
3.988237e+003;3.407285e-002
3.990166e+003;3.454112e-002
3.992094e+003;3.466577e-002
3.994023e+003;3.471063e-002
3.995951e+003;3.471910e-002
3.997880e+003;3.454363e-002
3.999809e+003;3.475995e-002
4.001737e+003;0.000000e+000
