3.992094e+002;0.000000e+000
4.011380e+002;0.000000e+000
4.030665e+002;0.000000e+000
4.049951e+002;0.000000e+000
4.069236e+002;0.000000e+000
4.088522e+002;0.000000e+000
4.107807e+002;0.000000e+000
4.127093e+002;0.000000e+000
4.146378e+002;0.000000e+000
4.165664e+002;0.000000e+000
4.184949e+002;0.000000e+000
4.204235e+002;0.000000e+000
4.223520e+002;0.000000e+000
4.242806e+002;0.000000e+000
4.262091e+002;0.000000e+000
4.281377e+002;0.000000e+000
4.300662e+002;0.000000e+000
4.319948e+002;0.000000e+000
4.339233e+002;0.000000e+000
4.358519e+002;0.000000e+000
4.377804e+002;0.000000e+000
4.397090e+002;0.000000e+000
4.416375e+002;0.000000e+000
4.435660e+002;0.000000e+000
4.454946e+002;0.000000e+000
4.474232e+002;0.000000e+000
4.493517e+002;0.000000e+000
4.512802e+002;0.000000e+000
4.532088e+002;0.000000e+000
4.551373e+002;0.000000e+000
4.570659e+002;0.000000e+000
4.589944e+002;0.000000e+000
4.609230e+002;0.000000e+000
4.628515e+002;0.000000e+000
4.647801e+002;0.000000e+000
4.667086e+002;0.000000e+000
4.686372e+002;0.000000e+000
4.705657e+002;0.000000e+000
4.724943e+002;0.000000e+000
4.744228e+002;0.000000e+000
4.763513e+002;0.000000e+000
4.782799e+002;0.000000e+000
4.802085e+002;0.000000e+000
4.821370e+002;0.000000e+000
4.840656e+002;0.000000e+000
4.859941e+002;0.000000e+000
4.879226e+002;0.000000e+000
4.898512e+002;0.000000e+000
4.917798e+002;0.000000e+000
4.937083e+002;0.000000e+000
4.956368e+002;0.000000e+000
4.975654e+002;0.000000e+000
4.994939e+002;0.000000e+000
5.014225e+002;0.000000e+000
5.033510e+002;0.000000e+000
5.052796e+002;0.000000e+000
5.072081e+002;0.000000e+000
5.091367e+002;0.000000e+000
5.110652e+002;0.000000e+000
5.129938e+002;0.000000e+000
5.149223e+002;0.000000e+000
5.168509e+002;0.000000e+000
5.187794e+002;0.000000e+000
5.207079e+002;0.000000e+000
5.226365e+002;0.000000e+000
5.245651e+002;0.000000e+000
5.264936e+002;0.000000e+000
5.284222e+002;0.000000e+000
5.303507e+002;0.000000e+000
5.322792e+002;0.000000e+000
5.342078e+002;0.000000e+000
5.361364e+002;0.000000e+000
5.380649e+002;0.000000e+000
5.399935e+002;0.000000e+000
5.419220e+002;0.000000e+000
5.438505e+002;0.000000e+000
5.457791e+002;0.000000e+000
5.477076e+002;0.000000e+000
5.496362e+002;0.000000e+000
5.515648e+002;0.000000e+000
5.534933e+002;0.000000e+000
5.554218e+002;0.000000e+000
5.573504e+002;0.000000e+000
5.592789e+002;0.000000e+000
5.612075e+002;0.000000e+000
5.631360e+002;0.000000e+000
5.650646e+002;0.000000e+000
5.669931e+002;0.000000e+000
5.689217e+002;0.000000e+000
5.708502e+002;0.000000e+000
5.727787e+002;0.000000e+000
5.747073e+002;0.000000e+000
5.766359e+002;0.000000e+000
5.785644e+002;0.000000e+000
5.804930e+002;0.000000e+000
5.824215e+002;0.000000e+000
5.843500e+002;0.000000e+000
5.862786e+002;0.000000e+000
5.882072e+002;0.000000e+000
5.901357e+002;0.000000e+000
5.920643e+002;0.000000e+000
5.939928e+002;0.000000e+000
5.959213e+002;0.000000e+000
5.978499e+002;0.000000e+000
5.997784e+002;2.687520e-001
6.017070e+002;2.699090e-001
6.036355e+002;2.753249e-001
6.055641e+002;2.755232e-001
6.074926e+002;2.665846e-001
6.094211e+002;2.629593e-001
6.113497e+002;2.722684e-001
6.132783e+002;2.797469e-001
6.152068e+002;2.780840e-001
6.171354e+002;2.699954e-001
6.190639e+002;2.643565e-001
6.209924e+002;2.671837e-001
6.229210e+002;2.666851e-001
6.248495e+002;2.608649e-001
6.267781e+002;2.644129e-001
6.287067e+002;2.670146e-001
6.306352e+002;2.603605e-001
6.325637e+002;2.594948e-001
6.344923e+002;2.563102e-001
6.364208e+002;2.486514e-001
6.383494e+002;2.452397e-001
6.402780e+002;2.486934e-001
6.422065e+002;2.549467e-001
6.441350e+002;2.577749e-001
6.460636e+002;2.547644e-001
6.479921e+002;2.503660e-001
6.499207e+002;2.491174e-001
6.518492e+002;2.521889e-001
6.537778e+002;2.517187e-001
6.557063e+002;2.492232e-001
6.576349e+002;2.512635e-001
6.595634e+002;2.535637e-001
6.614919e+002;2.540845e-001
6.634205e+002;2.560698e-001
6.653491e+002;2.547171e-001
6.672776e+002;2.509606e-001
6.692062e+002;2.494453e-001
6.711347e+002;2.476383e-001
6.730632e+002;2.442780e-001
6.749918e+002;2.410510e-001
6.769203e+002;2.398660e-001
6.788489e+002;2.380609e-001
6.807775e+002;2.351132e-001
6.827060e+002;2.315121e-001
6.846345e+002;2.305263e-001
6.865631e+002;2.298765e-001
6.884916e+002;2.287440e-001
6.904202e+002;2.291732e-001
6.923488e+002;2.280349e-001
6.942773e+002;2.271664e-001
6.962058e+002;2.255010e-001
6.981344e+002;2.244848e-001
7.000629e+002;2.242087e-001
7.019915e+002;2.231123e-001
7.039200e+002;2.210043e-001
7.058486e+002;2.194675e-001
7.077771e+002;2.185260e-001
7.097057e+002;2.177832e-001
7.116342e+002;2.163211e-001
7.135627e+002;2.148054e-001
7.154913e+002;2.139100e-001
7.174199e+002;2.124037e-001
7.193484e+002;2.105647e-001
7.212770e+002;2.082166e-001
7.232055e+002;2.057787e-001
7.251340e+002;2.037161e-001
7.270626e+002;2.010694e-001
7.289911e+002;1.992770e-001
7.309197e+002;1.987253e-001
7.328483e+002;1.978538e-001
7.347768e+002;1.949519e-001
7.367053e+002;1.928401e-001
7.386339e+002;1.923064e-001
7.405624e+002;1.916462e-001
7.424910e+002;1.903649e-001
7.444196e+002;1.904650e-001
7.463481e+002;1.909408e-001
7.482766e+002;1.906289e-001
7.502052e+002;1.902127e-001
7.521337e+002;1.904427e-001
7.540623e+002;1.905761e-001
7.559908e+002;1.902623e-001
7.579194e+002;1.899084e-001
7.598479e+002;1.902135e-001
7.617765e+002;1.915273e-001
7.637050e+002;1.901125e-001
7.656335e+002;1.879546e-001
7.675621e+002;1.874418e-001
7.694907e+002;1.859405e-001
7.714192e+002;1.846237e-001
7.733478e+002;1.840556e-001
7.752763e+002;1.830853e-001
7.772048e+002;1.815034e-001
7.791334e+002;1.802513e-001
7.810620e+002;1.800772e-001
7.829905e+002;1.798285e-001
7.849191e+002;1.791605e-001
7.868476e+002;1.782834e-001
7.887761e+002;1.772237e-001
7.907047e+002;1.757616e-001
7.926332e+002;1.748326e-001
7.945618e+002;1.743078e-001
7.964903e+002;1.735128e-001
7.984189e+002;1.733998e-001
8.003474e+002;1.741232e-001
8.022759e+002;1.738724e-001
8.042045e+002;1.748432e-001
8.061331e+002;1.774250e-001
8.080616e+002;1.788186e-001
8.099902e+002;1.791708e-001
8.119187e+002;1.793208e-001
8.138472e+002;1.800875e-001
8.157758e+002;1.808331e-001
8.177043e+002;1.808919e-001
8.196329e+002;1.804202e-001
8.215615e+002;1.799514e-001
8.234900e+002;1.789816e-001
8.254185e+002;1.777918e-001
8.273471e+002;1.781286e-001
8.292756e+002;1.779373e-001
8.312042e+002;1.764384e-001
8.331328e+002;1.762192e-001
8.350613e+002;1.753560e-001
8.369898e+002;1.735850e-001
8.389184e+002;1.719435e-001
8.408469e+002;1.702603e-001
8.427755e+002;1.697233e-001
8.447040e+002;1.695353e-001
8.466326e+002;1.683720e-001
8.485611e+002;1.675177e-001
8.504897e+002;1.680169e-001
8.524182e+002;1.682612e-001
8.543467e+002;1.681433e-001
8.562753e+002;1.688953e-001
8.582039e+002;1.702576e-001
8.601324e+002;1.714515e-001
8.620610e+002;1.722380e-001
8.639895e+002;1.731948e-001
8.659180e+002;1.751251e-001
8.678466e+002;1.777406e-001
8.697751e+002;1.798062e-001
8.717037e+002;1.816344e-001
8.736323e+002;1.842932e-001
8.755608e+002;1.870378e-001
8.774893e+002;1.896479e-001
8.794179e+002;1.921593e-001
8.813464e+002;1.950033e-001
8.832750e+002;1.986632e-001
8.852036e+002;2.020533e-001
8.871321e+002;2.050079e-001
8.890606e+002;2.083315e-001
8.909892e+002;2.114722e-001
8.929177e+002;2.138260e-001
8.948463e+002;2.153751e-001
8.967748e+002;2.158320e-001
8.987034e+002;2.152913e-001
9.006319e+002;2.139489e-001
9.025605e+002;2.121507e-001
9.044890e+002;2.099824e-001
9.064175e+002;2.084180e-001
9.083461e+002;2.071797e-001
9.102747e+002;2.062353e-001
9.122032e+002;2.055698e-001
9.141318e+002;2.054395e-001
9.160603e+002;2.062179e-001
9.179888e+002;2.076190e-001
9.199174e+002;2.082458e-001
9.218459e+002;2.088522e-001
9.237745e+002;2.103221e-001
9.257031e+002;2.115044e-001
9.276316e+002;2.122940e-001
9.295601e+002;2.135642e-001
9.314887e+002;2.148175e-001
9.334172e+002;2.166875e-001
9.353458e+002;2.194327e-001
9.372744e+002;2.220667e-001
9.392029e+002;2.255079e-001
9.411314e+002;2.300365e-001
9.430600e+002;2.352182e-001
9.449885e+002;2.409956e-001
9.469171e+002;2.462297e-001
9.488456e+002;2.519516e-001
9.507742e+002;2.579775e-001
9.527027e+002;2.634402e-001
9.546313e+002;2.681820e-001
9.565598e+002;2.726530e-001
9.584883e+002;2.771720e-001
9.604169e+002;2.815702e-001
9.623455e+002;2.852172e-001
9.642740e+002;2.886263e-001
9.662026e+002;2.922109e-001
9.681311e+002;2.960230e-001
9.700596e+002;3.000161e-001
9.719882e+002;3.050314e-001
9.739167e+002;3.114590e-001
9.758453e+002;3.178994e-001
9.777739e+002;3.252150e-001
9.797024e+002;3.336755e-001
9.816309e+002;3.410150e-001
9.835595e+002;3.481062e-001
9.854880e+002;3.551984e-001
9.874166e+002;3.613393e-001
9.893452e+002;3.672503e-001
9.912737e+002;3.729883e-001
9.932022e+002;3.783680e-001
9.951307e+002;3.841326e-001
9.970593e+002;3.903492e-001
9.989879e+002;3.964594e-001
1.000916e+003;4.029539e-001
1.002845e+003;4.096399e-001
1.004773e+003;4.161009e-001
1.006702e+003;4.222922e-001
1.008631e+003;4.292980e-001
1.010559e+003;4.354833e-001
1.012488e+003;4.395026e-001
1.014416e+003;4.425543e-001
1.016345e+003;4.451054e-001
1.018273e+003;4.470413e-001
1.020202e+003;4.469953e-001
1.022130e+003;4.456404e-001
1.024059e+003;4.446903e-001
1.025988e+003;4.433025e-001
1.027916e+003;4.409530e-001
1.029845e+003;4.379282e-001
1.031773e+003;4.351901e-001
1.033702e+003;4.331931e-001
1.035630e+003;4.306275e-001
1.037559e+003;4.269718e-001
1.039487e+003;4.231958e-001
1.041416e+003;4.205154e-001
1.043344e+003;4.191819e-001
1.045273e+003;4.185735e-001
1.047202e+003;4.173220e-001
1.049130e+003;4.146387e-001
1.051059e+003;4.106196e-001
1.052987e+003;4.069172e-001
1.054916e+003;4.029714e-001
1.056844e+003;3.974547e-001
1.058773e+003;3.915386e-001
1.060701e+003;3.861566e-001
1.062630e+003;3.806385e-001
1.064558e+003;3.743002e-001
1.066487e+003;3.676965e-001
1.068416e+003;3.619768e-001
1.070344e+003;3.573303e-001
1.072273e+003;3.518842e-001
1.074201e+003;3.465782e-001
1.076130e+003;3.426315e-001
1.078058e+003;3.390287e-001
1.079987e+003;3.344139e-001
1.081915e+003;3.297855e-001
1.083844e+003;3.258023e-001
1.085773e+003;3.217958e-001
1.087701e+003;3.198949e-001
1.089630e+003;3.182270e-001
1.091558e+003;3.162396e-001
1.093487e+003;3.139482e-001
1.095415e+003;3.115289e-001
1.097344e+003;3.090737e-001
1.099272e+003;3.055572e-001
1.101201e+003;3.017843e-001
1.103129e+003;2.970861e-001
1.105058e+003;2.904283e-001
1.106987e+003;2.831913e-001
1.108915e+003;2.763740e-001
1.110844e+003;2.692690e-001
1.112772e+003;2.613119e-001
1.114701e+003;2.531733e-001
1.116629e+003;2.460846e-001
1.118558e+003;2.398778e-001
1.120486e+003;2.338430e-001
1.122415e+003;2.281064e-001
1.124344e+003;2.225957e-001
1.126272e+003;2.178693e-001
1.128201e+003;2.139080e-001
1.130129e+003;2.102490e-001
1.132058e+003;2.071504e-001
1.133986e+003;2.051604e-001
1.135915e+003;2.036967e-001
1.137843e+003;2.026500e-001
1.139772e+003;2.017348e-001
1.141700e+003;2.011734e-001
1.143629e+003;2.013803e-001
1.145557e+003;2.013179e-001
1.147486e+003;2.009861e-001
1.149415e+003;2.007732e-001
1.151343e+003;1.996460e-001
1.153272e+003;1.979492e-001
1.155200e+003;1.963649e-001
1.157129e+003;1.944867e-001
1.159057e+003;1.917111e-001
1.160986e+003;1.881267e-001
1.162914e+003;1.837932e-001
1.164843e+003;1.786459e-001
1.166771e+003;1.728731e-001
1.168700e+003;1.665771e-001
1.170629e+003;1.606276e-001
1.172557e+003;1.552879e-001
1.174486e+003;1.502972e-001
1.176414e+003;1.459722e-001
1.178343e+003;1.426167e-001
1.180271e+003;1.400703e-001
1.182200e+003;1.374129e-001
1.184128e+003;1.356777e-001
1.186057e+003;1.350384e-001
1.187986e+003;1.346759e-001
1.189914e+003;1.350976e-001
1.191843e+003;1.359366e-001
1.193771e+003;1.373683e-001
1.195700e+003;1.395035e-001
1.197628e+003;1.418737e-001
1.199557e+003;1.442641e-001
1.201485e+003;1.465443e-001
1.203414e+003;1.483700e-001
1.205343e+003;1.497646e-001
1.207271e+003;1.510425e-001
1.209200e+003;1.522908e-001
1.211128e+003;1.545200e-001
1.213057e+003;1.569371e-001
1.214985e+003;1.592624e-001
1.216914e+003;1.624019e-001
1.218842e+003;1.660790e-001
1.220771e+003;1.695218e-001
1.222699e+003;1.728355e-001
1.224628e+003;1.756050e-001
1.226557e+003;1.779087e-001
1.228485e+003;1.803829e-001
1.230414e+003;1.824546e-001
1.232342e+003;1.839648e-001
1.234271e+003;1.850394e-001
1.236199e+003;1.852681e-001
1.238128e+003;1.850770e-001
1.240056e+003;1.847615e-001
1.241985e+003;1.846213e-001
1.243913e+003;1.838856e-001
1.245842e+003;1.830707e-001
1.247771e+003;1.822301e-001
1.249699e+003;1.805989e-001
1.251628e+003;1.790598e-001
1.253556e+003;1.775741e-001
1.255485e+003;1.759574e-001
1.257413e+003;1.745631e-001
1.259342e+003;1.732743e-001
1.261270e+003;1.717280e-001
1.263199e+003;1.698500e-001
1.265127e+003;1.682494e-001
1.267056e+003;1.667198e-001
1.268985e+003;1.653474e-001
1.270913e+003;1.639493e-001
1.272842e+003;1.625108e-001
1.274770e+003;1.618260e-001
1.276699e+003;1.607740e-001
1.278627e+003;1.595184e-001
1.280556e+003;1.582782e-001
1.282484e+003;1.571432e-001
1.284413e+003;1.563973e-001
1.286342e+003;1.555194e-001
1.288270e+003;1.550024e-001
1.290199e+003;1.550393e-001
1.292127e+003;1.551481e-001
1.294056e+003;1.555489e-001
1.295984e+003;1.563833e-001
1.297913e+003;1.579293e-001
1.299841e+003;1.594912e-001
1.301770e+003;1.609022e-001
1.303698e+003;1.626687e-001
1.305627e+003;1.652614e-001
1.307556e+003;1.682124e-001
1.309484e+003;1.706270e-001
1.311413e+003;1.727903e-001
1.313341e+003;1.748457e-001
1.315270e+003;1.763438e-001
1.317198e+003;1.775245e-001
1.319127e+003;1.777571e-001
1.321055e+003;1.769363e-001
1.322984e+003;1.762572e-001
1.324912e+003;1.759026e-001
1.326841e+003;1.754502e-001
1.328770e+003;1.752493e-001
1.330698e+003;1.754981e-001
1.332627e+003;1.753370e-001
1.334555e+003;1.749874e-001
1.336484e+003;1.742378e-001
1.338412e+003;1.732812e-001
1.340341e+003;1.722231e-001
1.342269e+003;1.708078e-001
1.344198e+003;1.690801e-001
1.346126e+003;1.676132e-001
1.348055e+003;1.667669e-001
1.349984e+003;1.661745e-001
1.351912e+003;1.659366e-001
1.353841e+003;1.661638e-001
1.355769e+003;1.666719e-001
1.357698e+003;1.677270e-001
1.359626e+003;1.690840e-001
1.361555e+003;1.700727e-001
1.363483e+003;1.706084e-001
1.365412e+003;1.710998e-001
1.367341e+003;1.713383e-001
1.369269e+003;1.710682e-001
1.371198e+003;1.704216e-001
1.373126e+003;1.693761e-001
1.375055e+003;1.678615e-001
1.376983e+003;1.664240e-001
1.378912e+003;1.653034e-001
1.380840e+003;1.637146e-001
1.382769e+003;1.619942e-001
1.384698e+003;1.606538e-001
1.386626e+003;1.599376e-001
1.388555e+003;1.596812e-001
1.390483e+003;1.599011e-001
1.392412e+003;1.604960e-001
1.394340e+003;1.613839e-001
1.396269e+003;1.626109e-001
1.398197e+003;1.638524e-001
1.400126e+003;1.651585e-001
1.402054e+003;1.669124e-001
1.403983e+003;1.690726e-001
1.405911e+003;1.713232e-001
1.407840e+003;1.735766e-001
1.409769e+003;1.755474e-001
1.411697e+003;1.769756e-001
1.413626e+003;1.781686e-001
1.415554e+003;1.793346e-001
1.417483e+003;1.800033e-001
1.419411e+003;1.800812e-001
1.421340e+003;1.799462e-001
1.423268e+003;1.798120e-001
1.425197e+003;1.788774e-001
1.427125e+003;1.770869e-001
1.429054e+003;1.753767e-001
1.430983e+003;1.736754e-001
1.432911e+003;1.715301e-001
1.434840e+003;1.689683e-001
1.436768e+003;1.665709e-001
1.438697e+003;1.642618e-001
1.440625e+003;1.618859e-001
1.442554e+003;1.592859e-001
1.444482e+003;1.566437e-001
1.446411e+003;1.538850e-001
1.448340e+003;1.513167e-001
1.450268e+003;1.490401e-001
1.452197e+003;1.468868e-001
1.454125e+003;1.446096e-001
1.456054e+003;1.421060e-001
1.457982e+003;1.395807e-001
1.459911e+003;1.373241e-001
1.461839e+003;1.354381e-001
1.463768e+003;1.333675e-001
1.465697e+003;1.306019e-001
1.467625e+003;1.275651e-001
1.469554e+003;1.246924e-001
1.471482e+003;1.219114e-001
1.473411e+003;1.193638e-001
1.475339e+003;1.170620e-001
1.477268e+003;1.147035e-001
1.479196e+003;1.124238e-001
1.481125e+003;1.107392e-001
1.483053e+003;1.091497e-001
1.484982e+003;1.076315e-001
1.486911e+003;1.068837e-001
1.488839e+003;1.063980e-001
1.490768e+003;1.058032e-001
1.492696e+003;1.053748e-001
1.494625e+003;1.054268e-001
1.496553e+003;1.059109e-001
1.498482e+003;1.064922e-001
1.500410e+003;1.068149e-001
1.502339e+003;1.069135e-001
1.504267e+003;1.070759e-001
1.506196e+003;1.070515e-001
1.508125e+003;1.070494e-001
1.510053e+003;1.072015e-001
1.511982e+003;1.072005e-001
1.513910e+003;1.067020e-001
1.515839e+003;1.059124e-001
1.517767e+003;1.056483e-001
1.519696e+003;1.053965e-001
1.521624e+003;1.050301e-001
1.523553e+003;1.050491e-001
1.525481e+003;1.052257e-001
1.527410e+003;1.054680e-001
1.529339e+003;1.057468e-001
1.531267e+003;1.060384e-001
1.533196e+003;1.065970e-001
1.535124e+003;1.071716e-001
1.537053e+003;1.073786e-001
1.538981e+003;1.077814e-001
1.540910e+003;1.087620e-001
1.542838e+003;1.096364e-001
1.544767e+003;1.102436e-001
1.546695e+003;1.114336e-001
1.548624e+003;1.125779e-001
1.550553e+003;1.136088e-001
1.552481e+003;1.149659e-001
1.554410e+003;1.166330e-001
1.556338e+003;1.187119e-001
1.558267e+003;1.209087e-001
1.560195e+003;1.230634e-001
1.562124e+003;1.252721e-001
1.564052e+003;1.276997e-001
1.565981e+003;1.307021e-001
1.567910e+003;1.339138e-001
1.569838e+003;1.377153e-001
1.571767e+003;1.420839e-001
1.573695e+003;1.464839e-001
1.575624e+003;1.511043e-001
1.577552e+003;1.564749e-001
1.579481e+003;1.627093e-001
1.581409e+003;1.691207e-001
1.583338e+003;1.754280e-001
1.585266e+003;1.818760e-001
1.587195e+003;1.876566e-001
1.589124e+003;1.923366e-001
1.591052e+003;1.966606e-001
1.592981e+003;2.004409e-001
1.594909e+003;2.028408e-001
1.596838e+003;2.038219e-001
1.598766e+003;2.043213e-001
1.600695e+003;2.046349e-001
1.602623e+003;2.044591e-001
1.604552e+003;2.041247e-001
1.606480e+003;2.038008e-001
1.608409e+003;2.026157e-001
1.610338e+003;2.008056e-001
1.612266e+003;1.989637e-001
1.614195e+003;1.970779e-001
1.616123e+003;1.954009e-001
1.618052e+003;1.936598e-001
1.619980e+003;1.912996e-001
1.621909e+003;1.890224e-001
1.623837e+003;1.872623e-001
1.625766e+003;1.850560e-001
1.627694e+003;1.822373e-001
1.629623e+003;1.792870e-001
1.631552e+003;1.766340e-001
1.633480e+003;1.739736e-001
1.635409e+003;1.711579e-001
1.637337e+003;1.686091e-001
1.639266e+003;1.660651e-001
1.641194e+003;1.631508e-001
1.643123e+003;1.602390e-001
1.645051e+003;1.574658e-001
1.646980e+003;1.550090e-001
1.648909e+003;1.524865e-001
1.650837e+003;1.496745e-001
1.652766e+003;1.464815e-001
1.654694e+003;1.436051e-001
1.656623e+003;1.409835e-001
1.658551e+003;1.381533e-001
1.660480e+003;1.354044e-001
1.662408e+003;1.325119e-001
1.664337e+003;1.295276e-001
1.666266e+003;1.268430e-001
1.668194e+003;1.244556e-001
1.670123e+003;1.217050e-001
1.672051e+003;1.191867e-001
1.673980e+003;1.169111e-001
1.675908e+003;1.147318e-001
1.677837e+003;1.127673e-001
1.679765e+003;1.106307e-001
1.681694e+003;1.087396e-001
1.683622e+003;1.071725e-001
1.685551e+003;1.053722e-001
1.687479e+003;1.036950e-001
1.689408e+003;1.025977e-001
1.691337e+003;1.019291e-001
1.693265e+003;1.013207e-001
1.695194e+003;1.006971e-001
1.697122e+003;1.004274e-001
1.699051e+003;1.004802e-001
1.700979e+003;1.007092e-001
1.702908e+003;1.010587e-001
1.704836e+003;1.014305e-001
1.706765e+003;1.024175e-001
1.708693e+003;1.037440e-001
1.710622e+003;1.050974e-001
1.712551e+003;1.066062e-001
1.714479e+003;1.083695e-001
1.716408e+003;1.094809e-001
1.718336e+003;1.104875e-001
1.720265e+003;1.118932e-001
1.722193e+003;1.130758e-001
1.724122e+003;1.139829e-001
1.726050e+003;1.148148e-001
1.727979e+003;1.153064e-001
1.729908e+003;1.152326e-001
1.731836e+003;1.150761e-001
1.733765e+003;1.147837e-001
1.735693e+003;1.139648e-001
1.737622e+003;1.127692e-001
1.739550e+003;1.111118e-001
1.741479e+003;1.092109e-001
1.743407e+003;1.073533e-001
1.745336e+003;1.051883e-001
1.747265e+003;1.026450e-001
1.749193e+003;1.002610e-001
1.751122e+003;9.813729e-002
1.753050e+003;9.572390e-002
1.754979e+003;9.314882e-002
1.756907e+003;9.066512e-002
1.758836e+003;8.819016e-002
1.760764e+003;8.553386e-002
1.762693e+003;8.301122e-002
1.764621e+003;8.073097e-002
1.766550e+003;7.848240e-002
1.768479e+003;7.608277e-002
1.770407e+003;7.382647e-002
1.772336e+003;7.199969e-002
1.774264e+003;7.044708e-002
1.776193e+003;6.904816e-002
1.778121e+003;6.753275e-002
1.780050e+003;6.632799e-002
1.781978e+003;6.541560e-002
1.783907e+003;6.436876e-002
1.785835e+003;6.348916e-002
1.787764e+003;6.308955e-002
1.789693e+003;6.286865e-002
1.791621e+003;6.231682e-002
1.793550e+003;6.167231e-002
1.795478e+003;6.135454e-002
1.797407e+003;6.102327e-002
1.799335e+003;6.068005e-002
1.801264e+003;6.044491e-002
1.803192e+003;6.025854e-002
1.805121e+003;6.003200e-002
1.807049e+003;5.983542e-002
1.808978e+003;5.962806e-002
1.810907e+003;5.924110e-002
1.812835e+003;5.881141e-002
1.814764e+003;5.866014e-002
1.816692e+003;5.855271e-002
1.818621e+003;5.813852e-002
1.820549e+003;5.791088e-002
1.822478e+003;5.799346e-002
1.824406e+003;5.792720e-002
1.826335e+003;5.774145e-002
1.828264e+003;5.768052e-002
1.830192e+003;5.761983e-002
1.832121e+003;5.746848e-002
1.834049e+003;5.725268e-002
1.835978e+003;5.691376e-002
1.837906e+003;5.669556e-002
1.839835e+003;5.650456e-002
1.841763e+003;5.613568e-002
1.843692e+003;5.596219e-002
1.845620e+003;5.604987e-002
1.847549e+003;5.592345e-002
1.849478e+003;5.565870e-002
1.851406e+003;5.537333e-002
1.853335e+003;5.524587e-002
1.855263e+003;5.535609e-002
1.857192e+003;5.544060e-002
1.859120e+003;5.546420e-002
1.861049e+003;5.537341e-002
1.862977e+003;5.530920e-002
1.864906e+003;5.526227e-002
1.866834e+003;5.508973e-002
1.868763e+003;5.523345e-002
1.870692e+003;5.524579e-002
1.872620e+003;5.504193e-002
1.874549e+003;5.503865e-002
1.876477e+003;5.513634e-002
1.878406e+003;5.499852e-002
1.880334e+003;5.494701e-002
1.882263e+003;5.507062e-002
1.884191e+003;5.521802e-002
1.886120e+003;5.512746e-002
1.888048e+003;5.492990e-002
1.889977e+003;5.480132e-002
1.891906e+003;5.475159e-002
1.893834e+003;5.499206e-002
1.895763e+003;5.536855e-002
1.897691e+003;5.529832e-002
1.899620e+003;5.489745e-002
1.901548e+003;5.480549e-002
1.903477e+003;5.504204e-002
1.905405e+003;5.534145e-002
1.907334e+003;5.539881e-002
1.909262e+003;5.555532e-002
1.911191e+003;5.587593e-002
1.913120e+003;5.612003e-002
1.915048e+003;5.618018e-002
1.916977e+003;5.604041e-002
1.918905e+003;5.596920e-002
1.920834e+003;5.599845e-002
1.922762e+003;5.599397e-002
1.924691e+003;5.592424e-002
1.926619e+003;5.610902e-002
1.928548e+003;5.648381e-002
1.930477e+003;5.652072e-002
1.932405e+003;5.635458e-002
1.934334e+003;5.656970e-002
1.936262e+003;5.666147e-002
1.938191e+003;5.674782e-002
1.940119e+003;5.680993e-002
1.942048e+003;5.674566e-002
1.943976e+003;5.680857e-002
1.945905e+003;5.695913e-002
1.947833e+003;5.706178e-002
1.949762e+003;5.716760e-002
1.951691e+003;5.720305e-002
1.953619e+003;5.709118e-002
1.955548e+003;5.705710e-002
1.957476e+003;5.720233e-002
1.959405e+003;5.761957e-002
1.961333e+003;5.779837e-002
1.963262e+003;5.743974e-002
1.965190e+003;5.713528e-002
1.967119e+003;5.682644e-002
1.969047e+003;5.705306e-002
1.970976e+003;5.762615e-002
1.972905e+003;5.786984e-002
1.974833e+003;5.780659e-002
1.976762e+003;5.762479e-002
1.978690e+003;5.767662e-002
1.980619e+003;5.777960e-002
1.982547e+003;5.771795e-002
1.984476e+003;5.780795e-002
1.986404e+003;5.779561e-002
1.988333e+003;5.770788e-002
1.990261e+003;5.787166e-002
1.992190e+003;5.817545e-002
1.994119e+003;5.833846e-002
1.996047e+003;5.811537e-002
1.997976e+003;5.828469e-002
1.999904e+003;5.864125e-002
2.001833e+003;5.890400e-002
2.003761e+003;5.898567e-002
2.005690e+003;5.912935e-002
2.007618e+003;5.942464e-002
2.009547e+003;5.957876e-002
2.011476e+003;5.960423e-002
2.013404e+003;5.948307e-002
2.015333e+003;5.967523e-002
2.017261e+003;6.012099e-002
2.019190e+003;6.034046e-002
2.021118e+003;6.040668e-002
2.023047e+003;6.040264e-002
2.024975e+003;6.029348e-002
2.026904e+003;6.045740e-002
2.028833e+003;6.095657e-002
2.030761e+003;6.123171e-002
2.032690e+003;6.153149e-002
2.034618e+003;6.162885e-002
2.036547e+003;6.139011e-002
2.038475e+003;6.136148e-002
2.040404e+003;6.169122e-002
2.042332e+003;6.203121e-002
2.044261e+003;6.204146e-002
2.046189e+003;6.203144e-002
2.048118e+003;6.208652e-002
2.050047e+003;6.208045e-002
2.051975e+003;6.200469e-002
2.053904e+003;6.196185e-002
2.055832e+003;6.194725e-002
2.057761e+003;6.217449e-002
2.059689e+003;6.238705e-002
2.061618e+003;6.256370e-002
2.063546e+003;6.249700e-002
2.065475e+003;6.222729e-002
2.067404e+003;6.218489e-002
2.069332e+003;6.213412e-002
2.071260e+003;6.215251e-002
2.073189e+003;6.254720e-002
2.075118e+003;6.285758e-002
2.077046e+003;6.297103e-002
2.078975e+003;6.280581e-002
2.080903e+003;6.245748e-002
2.082832e+003;6.253492e-002
2.084760e+003;6.272797e-002
2.086689e+003;6.267542e-002
2.088617e+003;6.256545e-002
2.090546e+003;6.243609e-002
2.092475e+003;6.272085e-002
2.094403e+003;6.312749e-002
2.096332e+003;6.323510e-002
2.098260e+003;6.323805e-002
2.100189e+003;6.331272e-002
2.102117e+003;6.345220e-002
2.104046e+003;6.349400e-002
2.105974e+003;6.370874e-002
2.107903e+003;6.391264e-002
2.109832e+003;6.386282e-002
2.111760e+003;6.402190e-002
2.113688e+003;6.407551e-002
2.115617e+003;6.374822e-002
2.117546e+003;6.356238e-002
2.119474e+003;6.373632e-002
2.121403e+003;6.389560e-002
2.123331e+003;6.406080e-002
2.125260e+003;6.413434e-002
2.127188e+003;6.396566e-002
2.129117e+003;6.397360e-002
2.131045e+003;6.423625e-002
2.132974e+003;6.421212e-002
2.134903e+003;6.398842e-002
2.136831e+003;6.403469e-002
2.138760e+003;6.404886e-002
2.140688e+003;6.412255e-002
2.142617e+003;6.419100e-002
2.144545e+003;6.403085e-002
2.146474e+003;6.384105e-002
2.148402e+003;6.387944e-002
2.150331e+003;6.369143e-002
2.152260e+003;6.363902e-002
2.154188e+003;6.388623e-002
2.156117e+003;6.402643e-002
2.158045e+003;6.386542e-002
2.159974e+003;6.368410e-002
2.161902e+003;6.341949e-002
2.163831e+003;6.320183e-002
2.165759e+003;6.311247e-002
2.167688e+003;6.301235e-002
2.169616e+003;6.295865e-002
2.171545e+003;6.288990e-002
2.173474e+003;6.290093e-002
2.175402e+003;6.285616e-002
2.177331e+003;6.270826e-002
2.179259e+003;6.249241e-002
2.181188e+003;6.237488e-002
2.183116e+003;6.224703e-002
2.185045e+003;6.237615e-002
2.186973e+003;6.237270e-002
2.188902e+003;6.213014e-002
2.190831e+003;6.218600e-002
2.192759e+003;6.228569e-002
2.194688e+003;6.223647e-002
2.196616e+003;6.201249e-002
2.198545e+003;6.190224e-002
2.200473e+003;6.217181e-002
2.202402e+003;6.225410e-002
2.204330e+003;6.181272e-002
2.206259e+003;6.131893e-002
2.208188e+003;6.115419e-002
2.210116e+003;6.134645e-002
2.212044e+003;6.162145e-002
2.213973e+003;6.169217e-002
2.215902e+003;6.164489e-002
2.217830e+003;6.160262e-002
2.219759e+003;6.135163e-002
2.221687e+003;6.135996e-002
2.223616e+003;6.146980e-002
2.225544e+003;6.143724e-002
2.227473e+003;6.143785e-002
2.229401e+003;6.175389e-002
2.231330e+003;6.200740e-002
2.233259e+003;6.204375e-002
2.235187e+003;6.206045e-002
2.237116e+003;6.204551e-002
2.239044e+003;6.198917e-002
2.240973e+003;6.207276e-002
2.242901e+003;6.213075e-002
2.244830e+003;6.191756e-002
2.246758e+003;6.169168e-002
2.248687e+003;6.135469e-002
2.250615e+003;6.139350e-002
2.252544e+003;6.181245e-002
2.254473e+003;6.171761e-002
2.256401e+003;6.133714e-002
2.258330e+003;6.133084e-002
2.260258e+003;6.131390e-002
2.262187e+003;6.126880e-002
2.264115e+003;6.116770e-002
2.266044e+003;6.107723e-002
2.267972e+003;6.112280e-002
2.269901e+003;6.116632e-002
2.271830e+003;6.109473e-002
2.273758e+003;6.087594e-002
2.275687e+003;6.102155e-002
2.277615e+003;6.098952e-002
2.279544e+003;6.082144e-002
2.281472e+003;6.106331e-002
2.283401e+003;6.120924e-002
2.285329e+003;6.103902e-002
2.287258e+003;6.102365e-002
2.289187e+003;6.106945e-002
2.291115e+003;6.090461e-002
2.293043e+003;6.096641e-002
2.294972e+003;6.117228e-002
2.296901e+003;6.108752e-002
2.298829e+003;6.083542e-002
2.300758e+003;6.063750e-002
2.302686e+003;6.040127e-002
2.304615e+003;6.055624e-002
2.306543e+003;6.082990e-002
2.308472e+003;6.090156e-002
2.310400e+003;6.096458e-002
2.312329e+003;6.100424e-002
2.314258e+003;6.087217e-002
2.316186e+003;6.069450e-002
2.318115e+003;6.095177e-002
2.320043e+003;6.113974e-002
2.321972e+003;6.125472e-002
2.323900e+003;6.140862e-002
2.325829e+003;6.125716e-002
2.327757e+003;6.096958e-002
2.329686e+003;6.090800e-002
2.331615e+003;6.102079e-002
2.333543e+003;6.111266e-002
2.335472e+003;6.122099e-002
2.337400e+003;6.132885e-002
2.339329e+003;6.157135e-002
2.341257e+003;6.190820e-002
2.343186e+003;6.208026e-002
2.345114e+003;6.212835e-002
2.347043e+003;6.220883e-002
2.348971e+003;6.209115e-002
2.350900e+003;6.217927e-002
2.352829e+003;6.222209e-002
2.354757e+003;6.222447e-002
2.356686e+003;6.227682e-002
2.358614e+003;6.246815e-002
2.360543e+003;6.272840e-002
2.362471e+003;6.297615e-002
2.364400e+003;6.316316e-002
2.366328e+003;6.319654e-002
2.368257e+003;6.315389e-002
2.370186e+003;6.319179e-002
2.372114e+003;6.334013e-002
2.374042e+003;6.358478e-002
2.375971e+003;6.378295e-002
2.377900e+003;6.369063e-002
2.379828e+003;6.360262e-002
2.381757e+003;6.386039e-002
2.383685e+003;6.422149e-002
2.385614e+003;6.460212e-002
2.387542e+003;6.468160e-002
2.389471e+003;6.448744e-002
2.391399e+003;6.443083e-002
2.393328e+003;6.455902e-002
2.395257e+003;6.478994e-002
2.397185e+003;6.509308e-002
2.399114e+003;6.523205e-002
2.401042e+003;6.533637e-002
2.402971e+003;6.550359e-002
2.404899e+003;6.556454e-002
2.406828e+003;6.554605e-002
2.408756e+003;6.570799e-002
2.410685e+003;6.606542e-002
2.412614e+003;6.633452e-002
2.414542e+003;6.647717e-002
2.416471e+003;6.661632e-002
2.418399e+003;6.682345e-002
2.420328e+003;6.693789e-002
2.422256e+003;6.704978e-002
2.424185e+003;6.718490e-002
2.426113e+003;6.722473e-002
2.428042e+003;6.715249e-002
2.429970e+003;6.742635e-002
2.431899e+003;6.777640e-002
2.433828e+003;6.775209e-002
2.435756e+003;6.762779e-002
2.437685e+003;6.771669e-002
2.439613e+003;6.799246e-002
2.441542e+003;6.838067e-002
2.443470e+003;6.885449e-002
2.445399e+003;6.906956e-002
2.447327e+003;6.891172e-002
2.449256e+003;6.879206e-002
2.451185e+003;6.910736e-002
2.453113e+003;6.943140e-002
2.455042e+003;6.950866e-002
2.456970e+003;6.960347e-002
2.458899e+003;6.987243e-002
2.460827e+003;7.011211e-002
2.462756e+003;7.019549e-002
2.464684e+003;7.026754e-002
2.466613e+003;7.023806e-002
2.468542e+003;7.054120e-002
2.470470e+003;7.069223e-002
2.472398e+003;7.066910e-002
2.474327e+003;7.104106e-002
2.476256e+003;7.158952e-002
2.478184e+003;7.189266e-002
2.480113e+003;7.178852e-002
2.482041e+003;7.165606e-002
2.483970e+003;7.194757e-002
2.485898e+003;7.214669e-002
2.487827e+003;7.220463e-002
2.489755e+003;7.213476e-002
2.491684e+003;7.208026e-002
2.493613e+003;7.236109e-002
2.495541e+003;7.252195e-002
2.497470e+003;7.275088e-002
2.499398e+003;7.281940e-002
2.501327e+003;7.273357e-002
2.503255e+003;7.294869e-002
2.505184e+003;7.332637e-002
2.507112e+003;7.350969e-002
2.509041e+003;7.357578e-002
2.510969e+003;7.359293e-002
2.512898e+003;7.375240e-002
2.514827e+003;7.373960e-002
2.516755e+003;7.375174e-002
2.518684e+003;7.420531e-002
2.520612e+003;7.457260e-002
2.522541e+003;7.451957e-002
2.524469e+003;7.451080e-002
2.526398e+003;7.455033e-002
2.528326e+003;7.461265e-002
2.530255e+003;7.510470e-002
2.532184e+003;7.513381e-002
2.534112e+003;7.508197e-002
2.536041e+003;7.531131e-002
2.537969e+003;7.537740e-002
2.539898e+003;7.533775e-002
2.541826e+003;7.552574e-002
2.543755e+003;7.573053e-002
2.545683e+003;7.591794e-002
2.547612e+003;7.615171e-002
2.549541e+003;7.641649e-002
2.551469e+003;7.635676e-002
2.553397e+003;7.651729e-002
2.555326e+003;7.657080e-002
2.557255e+003;7.648434e-002
2.559183e+003;7.652247e-002
2.561112e+003;7.663456e-002
2.563040e+003;7.695498e-002
2.564969e+003;7.729134e-002
2.566897e+003;7.739428e-002
2.568826e+003;7.732400e-002
2.570754e+003;7.764648e-002
2.572683e+003;7.765194e-002
2.574612e+003;7.751123e-002
2.576540e+003;7.764156e-002
2.578469e+003;7.752874e-002
2.580397e+003;7.774597e-002
2.582326e+003;7.802010e-002
2.584254e+003;7.831567e-002
2.586183e+003;7.839607e-002
2.588111e+003;7.834098e-002
2.590040e+003;7.848657e-002
2.591969e+003;7.877185e-002
2.593897e+003;7.897440e-002
2.595826e+003;7.904042e-002
2.597754e+003;7.889092e-002
2.599683e+003;7.899519e-002
2.601611e+003;7.935300e-002
2.603540e+003;7.926963e-002
2.605468e+003;7.923949e-002
2.607397e+003;7.967431e-002
2.609325e+003;7.983157e-002
2.611254e+003;8.006733e-002
2.613183e+003;8.039659e-002
2.615111e+003;8.063091e-002
2.617040e+003;8.094841e-002
2.618968e+003;8.100631e-002
2.620897e+003;8.098044e-002
2.622825e+003;8.101466e-002
2.624754e+003;8.108274e-002
2.626682e+003;8.105806e-002
2.628611e+003;8.128002e-002
2.630540e+003;8.164379e-002
2.632468e+003;8.207426e-002
2.634396e+003;8.224437e-002
2.636325e+003;8.221149e-002
2.638254e+003;8.250689e-002
2.640182e+003;8.282970e-002
2.642111e+003;8.309650e-002
2.644039e+003;8.348738e-002
2.645968e+003;8.351734e-002
2.647896e+003;8.339683e-002
2.649825e+003;8.371042e-002
2.651753e+003;8.397126e-002
2.653682e+003;8.396462e-002
2.655611e+003;8.412108e-002
2.657539e+003;8.463836e-002
2.659468e+003;8.508354e-002
2.661396e+003;8.520052e-002
2.663325e+003;8.533463e-002
2.665253e+003;8.543909e-002
2.667182e+003;8.576030e-002
2.669110e+003;8.590827e-002
2.671039e+003;8.588195e-002
2.672968e+003;8.605412e-002
2.674896e+003;8.652453e-002
2.676825e+003;8.693724e-002
2.678753e+003;8.694671e-002
2.680682e+003;8.694036e-002
2.682610e+003;8.718317e-002
2.684539e+003;8.753303e-002
2.686467e+003;8.754086e-002
2.688396e+003;8.771279e-002
2.690324e+003;8.791477e-002
2.692253e+003;8.815980e-002
2.694182e+003;8.861986e-002
2.696110e+003;8.872459e-002
2.698039e+003;8.854705e-002
2.699967e+003;8.875633e-002
2.701896e+003;8.895010e-002
2.703824e+003;8.887053e-002
2.705753e+003;8.913179e-002
2.707681e+003;8.959407e-002
2.709610e+003;8.986958e-002
2.711539e+003;9.000722e-002
2.713467e+003;9.022941e-002
2.715396e+003;9.050296e-002
2.717324e+003;9.054524e-002
2.719253e+003;9.019458e-002
2.721181e+003;9.029462e-002
2.723110e+003;9.048484e-002
2.725038e+003;9.065635e-002
2.726967e+003;9.081952e-002
2.728896e+003;9.124431e-002
2.730824e+003;9.164684e-002
2.732752e+003;9.149649e-002
2.734681e+003;9.141952e-002
2.736610e+003;9.189623e-002
2.738538e+003;9.234830e-002
2.740467e+003;9.221000e-002
2.742395e+003;9.198758e-002
2.744324e+003;9.180756e-002
2.746252e+003;9.174976e-002
2.748181e+003;9.223225e-002
2.750109e+003;9.238736e-002
2.752038e+003;9.251473e-002
2.753967e+003;9.283396e-002
2.755895e+003;9.290667e-002
2.757824e+003;9.307541e-002
2.759752e+003;9.309388e-002
2.761681e+003;9.311437e-002
2.763609e+003;9.327780e-002
2.765538e+003;9.319407e-002
2.767466e+003;9.343465e-002
2.769395e+003;9.412453e-002
2.771323e+003;9.418227e-002
2.773252e+003;9.406955e-002
2.775181e+003;9.438786e-002
2.777109e+003;9.469701e-002
2.779038e+003;9.473669e-002
2.780966e+003;9.469276e-002
2.782895e+003;9.497203e-002
2.784823e+003;9.523167e-002
2.786752e+003;9.571940e-002
2.788680e+003;9.607241e-002
2.790609e+003;9.624349e-002
2.792538e+003;9.638524e-002
2.794466e+003;9.639496e-002
2.796395e+003;9.651412e-002
2.798323e+003;9.673216e-002
2.800252e+003;9.726287e-002
2.802180e+003;9.790704e-002
2.804109e+003;9.802296e-002
2.806037e+003;9.788803e-002
2.807966e+003;9.814842e-002
2.809895e+003;9.858190e-002
2.811823e+003;9.900811e-002
2.813751e+003;9.969556e-002
2.815680e+003;1.000629e-001
2.817609e+003;1.002267e-001
2.819537e+003;1.006522e-001
2.821466e+003;1.010424e-001
2.823394e+003;1.018345e-001
2.825323e+003;1.021957e-001
2.827251e+003;1.021991e-001
2.829180e+003;1.027588e-001
2.831108e+003;1.036070e-001
2.833037e+003;1.041227e-001
2.834966e+003;1.043317e-001
2.836894e+003;1.045427e-001
2.838823e+003;1.051403e-001
2.840751e+003;1.061784e-001
2.842680e+003;1.072797e-001
2.844608e+003;1.078602e-001
2.846537e+003;1.082626e-001
2.848465e+003;1.088476e-001
2.850394e+003;1.095235e-001
2.852323e+003;1.099017e-001
2.854251e+003;1.102555e-001
2.856180e+003;1.112297e-001
2.858108e+003;1.123622e-001
2.860037e+003;1.136089e-001
2.861965e+003;1.146941e-001
2.863894e+003;1.155735e-001
2.865822e+003;1.163719e-001
2.867751e+003;1.171929e-001
2.869679e+003;1.180881e-001
2.871608e+003;1.183921e-001
2.873536e+003;1.184089e-001
2.875465e+003;1.191294e-001
2.877394e+003;1.198944e-001
2.879322e+003;1.204494e-001
2.881251e+003;1.209049e-001
2.883179e+003;1.208109e-001
2.885108e+003;1.210849e-001
2.887036e+003;1.217011e-001
2.888965e+003;1.217872e-001
2.890893e+003;1.219563e-001
2.892822e+003;1.224457e-001
2.894750e+003;1.224812e-001
2.896679e+003;1.226286e-001
2.898608e+003;1.228256e-001
2.900536e+003;1.231154e-001
2.902465e+003;1.231761e-001
2.904393e+003;1.228806e-001
2.906322e+003;1.226514e-001
2.908250e+003;1.222446e-001
2.910179e+003;1.220927e-001
2.912107e+003;1.220592e-001
2.914036e+003;1.215374e-001
2.915965e+003;1.208482e-001
2.917893e+003;1.203110e-001
2.919822e+003;1.199792e-001
2.921750e+003;1.199358e-001
2.923679e+003;1.196611e-001
2.925607e+003;1.193486e-001
2.927536e+003;1.192745e-001
2.929464e+003;1.192570e-001
2.931393e+003;1.196598e-001
2.933322e+003;1.195379e-001
2.935250e+003;1.191499e-001
2.937178e+003;1.195982e-001
2.939107e+003;1.197608e-001
2.941036e+003;1.189471e-001
2.942964e+003;1.181469e-001
2.944893e+003;1.174826e-001
2.946821e+003;1.167282e-001
2.948750e+003;1.158977e-001
2.950678e+003;1.151884e-001
2.952607e+003;1.149097e-001
2.954535e+003;1.142415e-001
2.956464e+003;1.131481e-001
2.958393e+003;1.123316e-001
2.960321e+003;1.118930e-001
2.962250e+003;1.112372e-001
2.964178e+003;1.106569e-001
2.966107e+003;1.106357e-001
2.968035e+003;1.103991e-001
2.969964e+003;1.096924e-001
2.971892e+003;1.092857e-001
2.973821e+003;1.089587e-001
2.975750e+003;1.083984e-001
2.977678e+003;1.075538e-001
2.979607e+003;1.068558e-001
2.981535e+003;1.064364e-001
2.983464e+003;1.063167e-001
2.985392e+003;1.061737e-001
2.987321e+003;1.059870e-001
2.989249e+003;1.060239e-001
2.991178e+003;1.058268e-001
2.993106e+003;1.054131e-001
2.995035e+003;1.051455e-001
2.996964e+003;1.050479e-001
2.998892e+003;1.050090e-001
3.000821e+003;1.051724e-001
3.002749e+003;1.053579e-001
3.004678e+003;1.052759e-001
3.006606e+003;1.050043e-001
3.008535e+003;1.050936e-001
3.010463e+003;1.057976e-001
3.012392e+003;1.061628e-001
3.014321e+003;1.059627e-001
3.016249e+003;1.060126e-001
3.018177e+003;1.062607e-001
3.020106e+003;1.065350e-001
3.022035e+003;1.067370e-001
3.023963e+003;1.067630e-001
3.025892e+003;1.068685e-001
3.027820e+003;1.076962e-001
3.029749e+003;1.085098e-001
3.031677e+003;1.086938e-001
3.033606e+003;1.086217e-001
3.035534e+003;1.086387e-001
3.037463e+003;1.091734e-001
3.039392e+003;1.098229e-001
3.041320e+003;1.102610e-001
3.043249e+003;1.105381e-001
3.045177e+003;1.109281e-001
3.047106e+003;1.112155e-001
3.049034e+003;1.116717e-001
3.050963e+003;1.122536e-001
3.052891e+003;1.127571e-001
3.054820e+003;1.129976e-001
3.056749e+003;1.130433e-001
3.058677e+003;1.132008e-001
3.060606e+003;1.133193e-001
3.062534e+003;1.139855e-001
3.064463e+003;1.152937e-001
3.066391e+003;1.163148e-001
3.068320e+003;1.165943e-001
3.070248e+003;1.165921e-001
3.072177e+003;1.170150e-001
3.074105e+003;1.174467e-001
3.076034e+003;1.177528e-001
3.077963e+003;1.177380e-001
3.079891e+003;1.181167e-001
3.081820e+003;1.189063e-001
3.083748e+003;1.196140e-001
3.085677e+003;1.199918e-001
3.087605e+003;1.204103e-001
3.089534e+003;1.208624e-001
3.091462e+003;1.211470e-001
3.093391e+003;1.211668e-001
3.095320e+003;1.211668e-001
3.097248e+003;1.219489e-001
3.099177e+003;1.228237e-001
3.101105e+003;1.230430e-001
3.103034e+003;1.231228e-001
3.104962e+003;1.236384e-001
3.106891e+003;1.243362e-001
3.108819e+003;1.250808e-001
3.110748e+003;1.259847e-001
3.112677e+003;1.267155e-001
3.114605e+003;1.271278e-001
3.116533e+003;1.271943e-001
3.118462e+003;1.275743e-001
3.120391e+003;1.282701e-001
3.122319e+003;1.286656e-001
3.124248e+003;1.289182e-001
3.126176e+003;1.294691e-001
3.128105e+003;1.301585e-001
3.130033e+003;1.307102e-001
3.131962e+003;1.311505e-001
3.133890e+003;1.315155e-001
3.135819e+003;1.320341e-001
3.137748e+003;1.326777e-001
3.139676e+003;1.330063e-001
3.141605e+003;1.334401e-001
3.143533e+003;1.340024e-001
3.145462e+003;1.348571e-001
3.147390e+003;1.356537e-001
3.149319e+003;1.361995e-001
3.151247e+003;1.368829e-001
3.153176e+003;1.373207e-001
3.155104e+003;1.379557e-001
3.157033e+003;1.385989e-001
3.158962e+003;1.391116e-001
3.160890e+003;1.397999e-001
3.162819e+003;1.399194e-001
3.164747e+003;1.400963e-001
3.166676e+003;1.413855e-001
3.168604e+003;1.421682e-001
3.170533e+003;1.421701e-001
3.172461e+003;1.425093e-001
3.174390e+003;1.429609e-001
3.176319e+003;1.434453e-001
3.178247e+003;1.439492e-001
3.180176e+003;1.440603e-001
3.182104e+003;1.447701e-001
3.184033e+003;1.458044e-001
3.185961e+003;1.468845e-001
3.187890e+003;1.473864e-001
3.189818e+003;1.471462e-001
3.191747e+003;1.471829e-001
3.193676e+003;1.480470e-001
3.195604e+003;1.490719e-001
3.197532e+003;1.494756e-001
3.199461e+003;1.492352e-001
3.201390e+003;1.493438e-001
3.203318e+003;1.500737e-001
3.205247e+003;1.513696e-001
3.207175e+003;1.523865e-001
3.209104e+003;1.524729e-001
3.211032e+003;1.527722e-001
3.212961e+003;1.532124e-001
3.214889e+003;1.534011e-001
3.216818e+003;1.535501e-001
3.218747e+003;1.542486e-001
3.220675e+003;1.552122e-001
3.222604e+003;1.560259e-001
3.224532e+003;1.563774e-001
3.226461e+003;1.567943e-001
3.228389e+003;1.574602e-001
3.230318e+003;1.581974e-001
3.232246e+003;1.586095e-001
3.234175e+003;1.589959e-001
3.236104e+003;1.596520e-001
3.238032e+003;1.595393e-001
3.239961e+003;1.597969e-001
3.241889e+003;1.603790e-001
3.243818e+003;1.606731e-001
3.245746e+003;1.612037e-001
3.247675e+003;1.619934e-001
3.249603e+003;1.622530e-001
3.251532e+003;1.622742e-001
3.253460e+003;1.627000e-001
3.255389e+003;1.630625e-001
3.257318e+003;1.629673e-001
3.259246e+003;1.633267e-001
3.261175e+003;1.641109e-001
3.263103e+003;1.644721e-001
3.265032e+003;1.643268e-001
3.266960e+003;1.645244e-001
3.268889e+003;1.652076e-001
3.270817e+003;1.657878e-001
3.272746e+003;1.657845e-001
3.274675e+003;1.655933e-001
3.276603e+003;1.661121e-001
3.278531e+003;1.665950e-001
3.280460e+003;1.664472e-001
3.282389e+003;1.662601e-001
3.284317e+003;1.663715e-001
3.286246e+003;1.664168e-001
3.288174e+003;1.666362e-001
3.290103e+003;1.672656e-001
3.292031e+003;1.674085e-001
3.293960e+003;1.674882e-001
3.295888e+003;1.677237e-001
3.297817e+003;1.673699e-001
3.299746e+003;1.670828e-001
3.301674e+003;1.677163e-001
3.303603e+003;1.680341e-001
3.305531e+003;1.680073e-001
3.307460e+003;1.674319e-001
3.309388e+003;1.668873e-001
3.311317e+003;1.670580e-001
3.313245e+003;1.670881e-001
3.315174e+003;1.672484e-001
3.317103e+003;1.674308e-001
3.319031e+003;1.675840e-001
3.320960e+003;1.675645e-001
3.322888e+003;1.672450e-001
3.324817e+003;1.671072e-001
3.326745e+003;1.668752e-001
3.328674e+003;1.667129e-001
3.330602e+003;1.671406e-001
3.332531e+003;1.677402e-001
3.334459e+003;1.679072e-001
3.336388e+003;1.675361e-001
3.338317e+003;1.669008e-001
3.340245e+003;1.663534e-001
3.342174e+003;1.662864e-001
3.344102e+003;1.659093e-001
3.346031e+003;1.653360e-001
3.347959e+003;1.654203e-001
3.349888e+003;1.654909e-001
3.351816e+003;1.649973e-001
3.353745e+003;1.644732e-001
3.355674e+003;1.645126e-001
3.357602e+003;1.649269e-001
3.359531e+003;1.647179e-001
3.361459e+003;1.639027e-001
3.363388e+003;1.632002e-001
3.365316e+003;1.624853e-001
3.367245e+003;1.622337e-001
3.369173e+003;1.624394e-001
3.371102e+003;1.623232e-001
3.373031e+003;1.616476e-001
3.374959e+003;1.609784e-001
3.376887e+003;1.607214e-001
3.378816e+003;1.606266e-001
3.380745e+003;1.603905e-001
3.382673e+003;1.594859e-001
3.384602e+003;1.588003e-001
3.386530e+003;1.584409e-001
3.388459e+003;1.578412e-001
3.390387e+003;1.573862e-001
3.392316e+003;1.568434e-001
3.394244e+003;1.562425e-001
3.396173e+003;1.560917e-001
3.398102e+003;1.560560e-001
3.400030e+003;1.550591e-001
3.401959e+003;1.544806e-001
3.403887e+003;1.540053e-001
3.405816e+003;1.535695e-001
3.407744e+003;1.527728e-001
3.409673e+003;1.522784e-001
3.411601e+003;1.519860e-001
3.413530e+003;1.516179e-001
3.415458e+003;1.514294e-001
3.417387e+003;1.507416e-001
3.419316e+003;1.496980e-001
3.421244e+003;1.487556e-001
3.423173e+003;1.481922e-001
3.425101e+003;1.475800e-001
3.427030e+003;1.468270e-001
3.428958e+003;1.462442e-001
3.430887e+003;1.456964e-001
3.432815e+003;1.450678e-001
3.434744e+003;1.441423e-001
3.436673e+003;1.431912e-001
3.438601e+003;1.421825e-001
3.440530e+003;1.411179e-001
3.442458e+003;1.405891e-001
3.444387e+003;1.404879e-001
3.446315e+003;1.401662e-001
3.448244e+003;1.392877e-001
3.450172e+003;1.381852e-001
3.452101e+003;1.370272e-001
3.454030e+003;1.361477e-001
3.455958e+003;1.358950e-001
3.457886e+003;1.350824e-001
3.459815e+003;1.338601e-001
3.461744e+003;1.334748e-001
3.463672e+003;1.327377e-001
3.465601e+003;1.316698e-001
3.467529e+003;1.308659e-001
3.469458e+003;1.302522e-001
3.471386e+003;1.297782e-001
3.473315e+003;1.285610e-001
3.475243e+003;1.275369e-001
3.477172e+003;1.270365e-001
3.479101e+003;1.265149e-001
3.481029e+003;1.259663e-001
3.482958e+003;1.251445e-001
3.484886e+003;1.241074e-001
3.486815e+003;1.229784e-001
3.488743e+003;1.218937e-001
3.490672e+003;1.201708e-001
3.492600e+003;1.188760e-001
3.494529e+003;1.185936e-001
3.496458e+003;1.182760e-001
3.498386e+003;1.178573e-001
3.500315e+003;1.171763e-001
3.502243e+003;1.158883e-001
3.504172e+003;1.152549e-001
3.506100e+003;1.148386e-001
3.508029e+003;1.140769e-001
3.509957e+003;1.133530e-001
3.511886e+003;1.121764e-001
3.513814e+003;1.106234e-001
3.515743e+003;1.096673e-001
3.517672e+003;1.093686e-001
3.519600e+003;1.083667e-001
3.521529e+003;1.070066e-001
3.523457e+003;1.062620e-001
3.525386e+003;1.057400e-001
3.527314e+003;1.049531e-001
3.529243e+003;1.040713e-001
3.531171e+003;1.030729e-001
3.533100e+003;1.021034e-001
3.535029e+003;1.015877e-001
3.536957e+003;1.007761e-001
3.538885e+003;9.951939e-002
3.540814e+003;9.871829e-002
3.542743e+003;9.779559e-002
3.544671e+003;9.624784e-002
3.546600e+003;9.577198e-002
3.548528e+003;9.541819e-002
3.550457e+003;9.408646e-002
3.552385e+003;9.305882e-002
3.554314e+003;9.243401e-002
3.556242e+003;9.148131e-002
3.558171e+003;9.063161e-002
3.560100e+003;8.973068e-002
3.562028e+003;8.852739e-002
3.563957e+003;8.748452e-002
3.565885e+003;8.672592e-002
3.567814e+003;8.614800e-002
3.569742e+003;8.570088e-002
3.571671e+003;8.505017e-002
3.573599e+003;8.416326e-002
3.575528e+003;8.336207e-002
3.577457e+003;8.241943e-002
3.579385e+003;8.193403e-002
3.581314e+003;8.157806e-002
3.583242e+003;8.096974e-002
3.585171e+003;8.017145e-002
3.587099e+003;7.915737e-002
3.589028e+003;7.856200e-002
3.590956e+003;7.805750e-002
3.592885e+003;7.699018e-002
3.594813e+003;7.580482e-002
3.596742e+003;7.520638e-002
3.598671e+003;7.453731e-002
3.600599e+003;7.396595e-002
3.602528e+003;7.357024e-002
3.604456e+003;7.293952e-002
3.606385e+003;7.248362e-002
3.608313e+003;7.177476e-002
3.610242e+003;7.091048e-002
3.612170e+003;7.080367e-002
3.614099e+003;7.060735e-002
3.616028e+003;6.999379e-002
3.617956e+003;6.942635e-002
3.619885e+003;6.911202e-002
3.621813e+003;6.888108e-002
3.623742e+003;6.812551e-002
3.625670e+003;6.726345e-002
3.627599e+003;6.645605e-002
3.629527e+003;6.579334e-002
3.631456e+003;6.531792e-002
3.633385e+003;6.455264e-002
3.635313e+003;6.394511e-002
3.637241e+003;6.313760e-002
3.639170e+003;6.224144e-002
3.641099e+003;6.186311e-002
3.643027e+003;6.166681e-002
3.644956e+003;6.106819e-002
3.646884e+003;6.071351e-002
3.648813e+003;6.050307e-002
3.650741e+003;5.973868e-002
3.652670e+003;5.917871e-002
3.654598e+003;5.895181e-002
3.656527e+003;5.799013e-002
3.658456e+003;5.682821e-002
3.660384e+003;5.623584e-002
3.662313e+003;5.561844e-002
3.664241e+003;5.487778e-002
3.666170e+003;5.431848e-002
3.668098e+003;5.392668e-002
3.670027e+003;5.358379e-002
3.671955e+003;5.278732e-002
3.673884e+003;5.184526e-002
3.675813e+003;5.120417e-002
3.677741e+003;5.089936e-002
3.679669e+003;5.056755e-002
3.681598e+003;4.991987e-002
3.683527e+003;4.953272e-002
3.685455e+003;4.968739e-002
3.687384e+003;4.929764e-002
3.689312e+003;4.837111e-002
3.691241e+003;4.825546e-002
3.693169e+003;4.796770e-002
3.695098e+003;4.712576e-002
3.697026e+003;4.704518e-002
3.698955e+003;4.704902e-002
3.700884e+003;4.640136e-002
3.702812e+003;4.620673e-002
3.704741e+003;4.651563e-002
3.706669e+003;4.616527e-002
3.708598e+003;4.546170e-002
3.710526e+003;4.510976e-002
3.712455e+003;4.532641e-002
3.714383e+003;4.549176e-002
3.716312e+003;4.514193e-002
3.718240e+003;4.475822e-002
3.720169e+003;4.450202e-002
3.722098e+003;4.444633e-002
3.724026e+003;4.446561e-002
3.725955e+003;4.467304e-002
3.727883e+003;4.472152e-002
3.729812e+003;4.460522e-002
3.731740e+003;4.447456e-002
3.733669e+003;4.423427e-002
3.735597e+003;4.391338e-002
3.737526e+003;4.409415e-002
3.739455e+003;4.441242e-002
3.741383e+003;4.410119e-002
3.743312e+003;4.328183e-002
3.745240e+003;4.307618e-002
3.747169e+003;4.355412e-002
3.749097e+003;4.349273e-002
3.751026e+003;4.304706e-002
3.752954e+003;4.288845e-002
3.754883e+003;4.320836e-002
3.756812e+003;4.341689e-002
3.758740e+003;4.348775e-002
3.760668e+003;4.342308e-002
3.762597e+003;4.349193e-002
3.764526e+003;4.368333e-002
3.766454e+003;4.309441e-002
3.768383e+003;4.262264e-002
3.770311e+003;4.309144e-002
3.772240e+003;4.354683e-002
3.774168e+003;4.310637e-002
3.776097e+003;4.256347e-002
3.778025e+003;4.237413e-002
3.779954e+003;4.275717e-002
3.781883e+003;4.307234e-002
3.783811e+003;4.294690e-002
3.785740e+003;4.308672e-002
3.787668e+003;4.344600e-002
3.789597e+003;4.339170e-002
3.791525e+003;4.334358e-002
3.793454e+003;4.351306e-002
3.795382e+003;4.305441e-002
3.797311e+003;4.305720e-002
3.799240e+003;4.327740e-002
3.801168e+003;4.303543e-002
3.803097e+003;4.321158e-002
3.805025e+003;4.339422e-002
3.806954e+003;4.305891e-002
3.808882e+003;4.294130e-002
3.810811e+003;4.305595e-002
3.812739e+003;4.369219e-002
3.814668e+003;4.398696e-002
3.816596e+003;4.362005e-002
3.818525e+003;4.338027e-002
3.820454e+003;4.351723e-002
3.822382e+003;4.389545e-002
3.824311e+003;4.389197e-002
3.826239e+003;4.345380e-002
3.828168e+003;4.320277e-002
3.830096e+003;4.335450e-002
3.832025e+003;4.353800e-002
3.833953e+003;4.366966e-002
3.835882e+003;4.362412e-002
3.837811e+003;4.344831e-002
3.839739e+003;4.349679e-002
3.841667e+003;4.362632e-002
3.843596e+003;4.386334e-002
3.845525e+003;4.427554e-002
3.847453e+003;4.415129e-002
3.849382e+003;4.336369e-002
3.851310e+003;4.309924e-002
3.853239e+003;4.342439e-002
3.855167e+003;4.354470e-002
3.857096e+003;4.390619e-002
3.859024e+003;4.409638e-002
3.860953e+003;4.439836e-002
3.862882e+003;4.476442e-002
3.864810e+003;4.458782e-002
3.866739e+003;4.451729e-002
3.868667e+003;4.444035e-002
3.870596e+003;4.422356e-002
3.872524e+003;4.461033e-002
3.874453e+003;4.477239e-002
3.876381e+003;4.451710e-002
3.878310e+003;4.439311e-002
3.880239e+003;4.458440e-002
3.882167e+003;4.562457e-002
3.884096e+003;4.604711e-002
3.886024e+003;4.605024e-002
3.887953e+003;4.616810e-002
3.889881e+003;4.604828e-002
3.891810e+003;4.595583e-002
3.893738e+003;4.572079e-002
3.895667e+003;4.552322e-002
3.897595e+003;4.573091e-002
3.899524e+003;4.612374e-002
3.901453e+003;4.654868e-002
3.903381e+003;4.657409e-002
3.905310e+003;4.607201e-002
3.907238e+003;4.589480e-002
3.909167e+003;4.602065e-002
3.911095e+003;4.587624e-002
3.913024e+003;4.645766e-002
3.914952e+003;4.697666e-002
3.916881e+003;4.737826e-002
3.918810e+003;4.738528e-002
3.920738e+003;4.725652e-002
3.922667e+003;4.694956e-002
3.924595e+003;4.667107e-002
3.926524e+003;4.716487e-002
3.928452e+003;4.774174e-002
3.930381e+003;4.822195e-002
3.932309e+003;4.825783e-002
3.934238e+003;4.763091e-002
3.936167e+003;4.754795e-002
3.938095e+003;4.796129e-002
3.940023e+003;4.802050e-002
3.941952e+003;4.788789e-002
3.943881e+003;4.818522e-002
3.945809e+003;4.829582e-002
3.947738e+003;4.841278e-002
3.949666e+003;4.885380e-002
3.951595e+003;4.868523e-002
3.953523e+003;4.873157e-002
3.955452e+003;4.861455e-002
3.957380e+003;4.813902e-002
3.959309e+003;4.841908e-002
3.961238e+003;4.902695e-002
3.963166e+003;4.929652e-002
3.965095e+003;4.934983e-002
3.967023e+003;4.914092e-002
3.968952e+003;4.907299e-002
3.970880e+003;4.899249e-002
3.972809e+003;4.880886e-002
3.974737e+003;4.856946e-002
3.976666e+003;4.836263e-002
3.978594e+003;4.861626e-002
3.980523e+003;4.912641e-002
3.982452e+003;4.960288e-002
3.984380e+003;5.027762e-002
3.986309e+003;5.031423e-002
3.988237e+003;4.993808e-002
3.990166e+003;4.932566e-002
3.992094e+003;4.922125e-002
3.994023e+003;4.954201e-002
3.995951e+003;4.935536e-002
3.997880e+003;5.000328e-002
3.999809e+003;5.065661e-002
4.001737e+003;0.000000e+000
