3.992094e+002;0.000000e+000
4.011380e+002;0.000000e+000
4.030665e+002;0.000000e+000
4.049951e+002;0.000000e+000
4.069236e+002;0.000000e+000
4.088522e+002;0.000000e+000
4.107807e+002;0.000000e+000
4.127093e+002;0.000000e+000
4.146378e+002;0.000000e+000
4.165664e+002;0.000000e+000
4.184949e+002;0.000000e+000
4.204235e+002;0.000000e+000
4.223520e+002;0.000000e+000
4.242806e+002;0.000000e+000
4.262091e+002;0.000000e+000
4.281377e+002;0.000000e+000
4.300662e+002;0.000000e+000
4.319948e+002;0.000000e+000
4.339233e+002;0.000000e+000
4.358519e+002;0.000000e+000
4.377804e+002;0.000000e+000
4.397090e+002;0.000000e+000
4.416375e+002;0.000000e+000
4.435660e+002;0.000000e+000
4.454946e+002;0.000000e+000
4.474232e+002;0.000000e+000
4.493517e+002;0.000000e+000
4.512802e+002;0.000000e+000
4.532088e+002;0.000000e+000
4.551373e+002;0.000000e+000
4.570659e+002;0.000000e+000
4.589944e+002;0.000000e+000
4.609230e+002;0.000000e+000
4.628515e+002;0.000000e+000
4.647801e+002;0.000000e+000
4.667086e+002;0.000000e+000
4.686372e+002;0.000000e+000
4.705657e+002;0.000000e+000
4.724943e+002;0.000000e+000
4.744228e+002;0.000000e+000
4.763513e+002;0.000000e+000
4.782799e+002;0.000000e+000
4.802085e+002;0.000000e+000
4.821370e+002;0.000000e+000
4.840656e+002;0.000000e+000
4.859941e+002;0.000000e+000
4.879226e+002;0.000000e+000
4.898512e+002;0.000000e+000
4.917798e+002;0.000000e+000
4.937083e+002;0.000000e+000
4.956368e+002;0.000000e+000
4.975654e+002;0.000000e+000
4.994939e+002;0.000000e+000
5.014225e+002;0.000000e+000
5.033510e+002;0.000000e+000
5.052796e+002;0.000000e+000
5.072081e+002;0.000000e+000
5.091367e+002;0.000000e+000
5.110652e+002;0.000000e+000
5.129938e+002;0.000000e+000
5.149223e+002;0.000000e+000
5.168509e+002;0.000000e+000
5.187794e+002;0.000000e+000
5.207079e+002;0.000000e+000
5.226365e+002;0.000000e+000
5.245651e+002;0.000000e+000
5.264936e+002;0.000000e+000
5.284222e+002;0.000000e+000
5.303507e+002;0.000000e+000
5.322792e+002;0.000000e+000
5.342078e+002;0.000000e+000
5.361364e+002;0.000000e+000
5.380649e+002;0.000000e+000
5.399935e+002;0.000000e+000
5.419220e+002;0.000000e+000
5.438505e+002;0.000000e+000
5.457791e+002;0.000000e+000
5.477076e+002;0.000000e+000
5.496362e+002;0.000000e+000
5.515648e+002;0.000000e+000
5.534933e+002;0.000000e+000
5.554218e+002;0.000000e+000
5.573504e+002;0.000000e+000
5.592789e+002;0.000000e+000
5.612075e+002;0.000000e+000
5.631360e+002;0.000000e+000
5.650646e+002;0.000000e+000
5.669931e+002;0.000000e+000
5.689217e+002;0.000000e+000
5.708502e+002;0.000000e+000
5.727787e+002;0.000000e+000
5.747073e+002;0.000000e+000
5.766359e+002;0.000000e+000
5.785644e+002;0.000000e+000
5.804930e+002;0.000000e+000
5.824215e+002;0.000000e+000
5.843500e+002;0.000000e+000
5.862786e+002;0.000000e+000
5.882072e+002;0.000000e+000
5.901357e+002;0.000000e+000
5.920643e+002;0.000000e+000
5.939928e+002;0.000000e+000
5.959213e+002;0.000000e+000
5.978499e+002;0.000000e+000
5.997784e+002;2.537513e-001
6.017070e+002;2.506182e-001
6.036355e+002;2.488987e-001
6.055641e+002;2.548872e-001
6.074926e+002;2.487691e-001
6.094211e+002;2.352542e-001
6.113497e+002;2.406440e-001
6.132783e+002;2.462475e-001
6.152068e+002;2.401699e-001
6.171354e+002;2.323975e-001
6.190639e+002;2.322647e-001
6.209924e+002;2.341952e-001
6.229210e+002;2.289146e-001
6.248495e+002;2.238682e-001
6.267781e+002;2.270235e-001
6.287067e+002;2.257254e-001
6.306352e+002;2.215248e-001
6.325637e+002;2.222919e-001
6.344923e+002;2.219262e-001
6.364208e+002;2.185796e-001
6.383494e+002;2.187605e-001
6.402780e+002;2.184763e-001
6.422065e+002;2.144463e-001
6.441350e+002;2.108649e-001
6.460636e+002;2.138553e-001
6.479921e+002;2.197067e-001
6.499207e+002;2.182623e-001
6.518492e+002;2.160537e-001
6.537778e+002;2.180132e-001
6.557063e+002;2.194587e-001
6.576349e+002;2.191008e-001
6.595634e+002;2.189706e-001
6.614919e+002;2.217027e-001
6.634205e+002;2.230545e-001
6.653491e+002;2.216949e-001
6.672776e+002;2.183219e-001
6.692062e+002;2.156058e-001
6.711347e+002;2.129150e-001
6.730632e+002;2.099787e-001
6.749918e+002;2.070579e-001
6.769203e+002;2.046197e-001
6.788489e+002;2.009880e-001
6.807775e+002;1.961548e-001
6.827060e+002;1.932519e-001
6.846345e+002;1.926249e-001
6.865631e+002;1.930223e-001
6.884916e+002;1.917718e-001
6.904202e+002;1.897409e-001
6.923488e+002;1.877648e-001
6.942773e+002;1.881618e-001
6.962058e+002;1.885268e-001
6.981344e+002;1.873603e-001
7.000629e+002;1.854621e-001
7.019915e+002;1.848362e-001
7.039200e+002;1.852788e-001
7.058486e+002;1.845018e-001
7.077771e+002;1.834147e-001
7.097057e+002;1.815284e-001
7.116342e+002;1.804826e-001
7.135627e+002;1.799032e-001
7.154913e+002;1.781245e-001
7.174199e+002;1.762081e-001
7.193484e+002;1.755551e-001
7.212770e+002;1.746793e-001
7.232055e+002;1.724786e-001
7.251340e+002;1.696429e-001
7.270626e+002;1.670858e-001
7.289911e+002;1.648510e-001
7.309197e+002;1.632177e-001
7.328483e+002;1.628411e-001
7.347768e+002;1.611496e-001
7.367053e+002;1.583822e-001
7.386339e+002;1.569880e-001
7.405624e+002;1.559632e-001
7.424910e+002;1.556335e-001
7.444196e+002;1.550148e-001
7.463481e+002;1.539360e-001
7.482766e+002;1.539650e-001
7.502052e+002;1.530917e-001
7.521337e+002;1.519733e-001
7.540623e+002;1.523049e-001
7.559908e+002;1.520370e-001
7.579194e+002;1.515396e-001
7.598479e+002;1.511323e-001
7.617765e+002;1.496804e-001
7.637050e+002;1.486135e-001
7.656335e+002;1.483719e-001
7.675621e+002;1.480046e-001
7.694907e+002;1.474994e-001
7.714192e+002;1.467948e-001
7.733478e+002;1.466181e-001
7.752763e+002;1.456526e-001
7.772048e+002;1.449436e-001
7.791334e+002;1.443336e-001
7.810620e+002;1.424969e-001
7.829905e+002;1.419730e-001
7.849191e+002;1.421466e-001
7.868476e+002;1.416852e-001
7.887761e+002;1.410816e-001
7.907047e+002;1.403943e-001
7.926332e+002;1.404324e-001
7.945618e+002;1.410269e-001
7.964903e+002;1.412486e-001
7.984189e+002;1.413073e-001
8.003474e+002;1.405623e-001
8.022759e+002;1.400083e-001
8.042045e+002;1.400845e-001
8.061331e+002;1.409869e-001
8.080616e+002;1.423717e-001
8.099902e+002;1.434879e-001
8.119187e+002;1.434231e-001
8.138472e+002;1.439877e-001
8.157758e+002;1.455252e-001
8.177043e+002;1.460931e-001
8.196329e+002;1.460528e-001
8.215615e+002;1.470171e-001
8.234900e+002;1.480789e-001
8.254185e+002;1.476771e-001
8.273471e+002;1.472460e-001
8.292756e+002;1.474274e-001
8.312042e+002;1.471664e-001
8.331328e+002;1.465448e-001
8.350613e+002;1.459106e-001
8.369898e+002;1.453624e-001
8.389184e+002;1.443669e-001
8.408469e+002;1.433074e-001
8.427755e+002;1.432268e-001
8.447040e+002;1.428454e-001
8.466326e+002;1.421346e-001
8.485611e+002;1.418542e-001
8.504897e+002;1.416329e-001
8.524182e+002;1.419093e-001
8.543467e+002;1.425316e-001
8.562753e+002;1.432688e-001
8.582039e+002;1.437504e-001
8.601324e+002;1.448670e-001
8.620610e+002;1.461423e-001
8.639895e+002;1.476612e-001
8.659180e+002;1.495040e-001
8.678466e+002;1.512420e-001
8.697751e+002;1.532882e-001
8.717037e+002;1.555785e-001
8.736323e+002;1.576683e-001
8.755608e+002;1.601894e-001
8.774893e+002;1.625685e-001
8.794179e+002;1.653496e-001
8.813464e+002;1.688741e-001
8.832750e+002;1.717677e-001
8.852036e+002;1.746875e-001
8.871321e+002;1.783486e-001
8.890606e+002;1.820415e-001
8.909892e+002;1.844903e-001
8.929177e+002;1.867785e-001
8.948463e+002;1.885213e-001
8.967748e+002;1.885375e-001
8.987034e+002;1.873459e-001
9.006319e+002;1.861416e-001
9.025605e+002;1.846945e-001
9.044890e+002;1.822111e-001
9.064175e+002;1.798448e-001
9.083461e+002;1.785726e-001
9.102747e+002;1.778610e-001
9.122032e+002;1.774880e-001
9.141318e+002;1.765981e-001
9.160603e+002;1.752207e-001
9.179888e+002;1.753900e-001
9.199174e+002;1.765680e-001
9.218459e+002;1.775178e-001
9.237745e+002;1.779672e-001
9.257031e+002;1.786955e-001
9.276316e+002;1.801706e-001
9.295601e+002;1.811095e-001
9.314887e+002;1.822003e-001
9.334172e+002;1.840987e-001
9.353458e+002;1.860039e-001
9.372744e+002;1.882616e-001
9.392029e+002;1.908687e-001
9.411314e+002;1.939338e-001
9.430600e+002;1.977696e-001
9.449885e+002;2.023971e-001
9.469171e+002;2.070964e-001
9.488456e+002;2.119867e-001
9.507742e+002;2.162242e-001
9.527027e+002;2.209073e-001
9.546313e+002;2.260769e-001
9.565598e+002;2.312080e-001
9.584883e+002;2.360490e-001
9.604169e+002;2.408189e-001
9.623455e+002;2.456155e-001
9.642740e+002;2.501979e-001
9.662026e+002;2.549200e-001
9.681311e+002;2.597481e-001
9.700596e+002;2.647195e-001
9.719882e+002;2.704750e-001
9.739167e+002;2.771844e-001
9.758453e+002;2.845937e-001
9.777739e+002;2.921535e-001
9.797024e+002;3.006866e-001
9.816309e+002;3.094620e-001
9.835595e+002;3.173168e-001
9.854880e+002;3.236610e-001
9.874166e+002;3.290780e-001
9.893452e+002;3.335341e-001
9.912737e+002;3.367303e-001
9.932022e+002;3.402267e-001
9.951307e+002;3.440909e-001
9.970593e+002;3.482687e-001
9.989879e+002;3.532434e-001
1.000916e+003;3.587006e-001
1.002845e+003;3.637235e-001
1.004773e+003;3.683701e-001
1.006702e+003;3.743230e-001
1.008631e+003;3.802344e-001
1.010559e+003;3.859018e-001
1.012488e+003;3.916413e-001
1.014416e+003;3.977001e-001
1.016345e+003;4.026518e-001
1.018273e+003;4.063173e-001
1.020202e+003;4.087145e-001
1.022130e+003;4.101540e-001
1.024059e+003;4.104261e-001
1.025988e+003;4.113162e-001
1.027916e+003;4.126797e-001
1.029845e+003;4.114961e-001
1.031773e+003;4.095611e-001
1.033702e+003;4.083729e-001
1.035630e+003;4.055350e-001
1.037559e+003;4.014073e-001
1.039487e+003;3.984481e-001
1.041416e+003;3.958400e-001
1.043344e+003;3.921496e-001
1.045273e+003;3.884843e-001
1.047202e+003;3.862093e-001
1.049130e+003;3.837749e-001
1.051059e+003;3.802439e-001
1.052987e+003;3.760347e-001
1.054916e+003;3.718866e-001
1.056844e+003;3.678491e-001
1.058773e+003;3.620220e-001
1.060701e+003;3.549035e-001
1.062630e+003;3.475642e-001
1.064558e+003;3.400451e-001
1.066487e+003;3.326698e-001
1.068416e+003;3.258006e-001
1.070344e+003;3.199480e-001
1.072273e+003;3.148016e-001
1.074201e+003;3.092831e-001
1.076130e+003;3.046708e-001
1.078058e+003;3.002993e-001
1.079987e+003;2.953348e-001
1.081915e+003;2.912060e-001
1.083844e+003;2.879354e-001
1.085773e+003;2.851683e-001
1.087701e+003;2.830472e-001
1.089630e+003;2.804160e-001
1.091558e+003;2.778494e-001
1.093487e+003;2.761495e-001
1.095415e+003;2.732303e-001
1.097344e+003;2.702109e-001
1.099272e+003;2.682118e-001
1.101201e+003;2.656938e-001
1.103129e+003;2.618718e-001
1.105058e+003;2.568171e-001
1.106987e+003;2.514667e-001
1.108915e+003;2.467915e-001
1.110844e+003;2.418153e-001
1.112772e+003;2.352143e-001
1.114701e+003;2.283083e-001
1.116629e+003;2.226802e-001
1.118558e+003;2.173708e-001
1.120486e+003;2.115127e-001
1.122415e+003;2.064064e-001
1.124344e+003;2.016681e-001
1.126272e+003;1.966290e-001
1.128201e+003;1.913321e-001
1.130129e+003;1.869290e-001
1.132058e+003;1.829006e-001
1.133986e+003;1.784555e-001
1.135915e+003;1.748969e-001
1.137843e+003;1.733949e-001
1.139772e+003;1.723913e-001
1.141700e+003;1.719122e-001
1.143629e+003;1.721009e-001
1.145557e+003;1.725508e-001
1.147486e+003;1.725848e-001
1.149415e+003;1.726676e-001
1.151343e+003;1.733920e-001
1.153272e+003;1.738347e-001
1.155200e+003;1.731626e-001
1.157129e+003;1.717783e-001
1.159057e+003;1.697231e-001
1.160986e+003;1.668232e-001
1.162914e+003;1.628348e-001
1.164843e+003;1.578808e-001
1.166771e+003;1.521470e-001
1.168700e+003;1.465911e-001
1.170629e+003;1.408286e-001
1.172557e+003;1.353781e-001
1.174486e+003;1.307790e-001
1.176414e+003;1.269658e-001
1.178343e+003;1.239739e-001
1.180271e+003;1.218024e-001
1.182200e+003;1.199935e-001
1.184128e+003;1.186455e-001
1.186057e+003;1.178592e-001
1.187986e+003;1.173844e-001
1.189914e+003;1.179611e-001
1.191843e+003;1.195105e-001
1.193771e+003;1.214084e-001
1.195700e+003;1.236416e-001
1.197628e+003;1.259352e-001
1.199557e+003;1.281951e-001
1.201485e+003;1.301751e-001
1.203414e+003;1.321104e-001
1.205343e+003;1.342216e-001
1.207271e+003;1.359510e-001
1.209200e+003;1.380046e-001
1.211128e+003;1.406685e-001
1.213057e+003;1.436921e-001
1.214985e+003;1.475052e-001
1.216914e+003;1.514396e-001
1.218842e+003;1.551847e-001
1.220771e+003;1.588441e-001
1.222699e+003;1.626852e-001
1.224628e+003;1.661745e-001
1.226557e+003;1.686111e-001
1.228485e+003;1.707932e-001
1.230414e+003;1.728511e-001
1.232342e+003;1.741796e-001
1.234271e+003;1.749415e-001
1.236199e+003;1.753462e-001
1.238128e+003;1.755283e-001
1.240056e+003;1.750503e-001
1.241985e+003;1.741528e-001
1.243913e+003;1.727393e-001
1.245842e+003;1.710196e-001
1.247771e+003;1.696142e-001
1.249699e+003;1.676896e-001
1.251628e+003;1.653623e-001
1.253556e+003;1.632618e-001
1.255485e+003;1.612864e-001
1.257413e+003;1.589112e-001
1.259342e+003;1.562146e-001
1.261270e+003;1.534949e-001
1.263199e+003;1.511154e-001
1.265127e+003;1.490418e-001
1.267056e+003;1.464966e-001
1.268985e+003;1.437191e-001
1.270913e+003;1.415286e-001
1.272842e+003;1.397879e-001
1.274770e+003;1.380308e-001
1.276699e+003;1.363478e-001
1.278627e+003;1.344125e-001
1.280556e+003;1.322784e-001
1.282484e+003;1.303706e-001
1.284413e+003;1.290103e-001
1.286342e+003;1.283904e-001
1.288270e+003;1.278286e-001
1.290199e+003;1.276007e-001
1.292127e+003;1.283910e-001
1.294056e+003;1.291348e-001
1.295984e+003;1.298133e-001
1.297913e+003;1.306581e-001
1.299841e+003;1.318964e-001
1.301770e+003;1.333807e-001
1.303698e+003;1.350723e-001
1.305627e+003;1.371228e-001
1.307556e+003;1.393385e-001
1.309484e+003;1.417193e-001
1.311413e+003;1.436350e-001
1.313341e+003;1.453252e-001
1.315270e+003;1.465648e-001
1.317198e+003;1.470722e-001
1.319127e+003;1.468964e-001
1.321055e+003;1.464739e-001
1.322984e+003;1.460429e-001
1.324912e+003;1.457386e-001
1.326841e+003;1.455495e-001
1.328770e+003;1.455688e-001
1.330698e+003;1.457542e-001
1.332627e+003;1.456455e-001
1.334555e+003;1.453801e-001
1.336484e+003;1.446684e-001
1.338412e+003;1.433983e-001
1.340341e+003;1.423033e-001
1.342269e+003;1.412574e-001
1.344198e+003;1.398749e-001
1.346126e+003;1.389702e-001
1.348055e+003;1.385069e-001
1.349984e+003;1.381342e-001
1.351912e+003;1.385678e-001
1.353841e+003;1.393982e-001
1.355769e+003;1.401094e-001
1.357698e+003;1.413269e-001
1.359626e+003;1.427541e-001
1.361555e+003;1.440883e-001
1.363483e+003;1.453552e-001
1.365412e+003;1.457386e-001
1.367341e+003;1.455751e-001
1.369269e+003;1.454676e-001
1.371198e+003;1.449505e-001
1.373126e+003;1.438853e-001
1.375055e+003;1.423615e-001
1.376983e+003;1.402409e-001
1.378912e+003;1.379904e-001
1.380840e+003;1.357127e-001
1.382769e+003;1.335821e-001
1.384698e+003;1.317943e-001
1.386626e+003;1.300213e-001
1.388555e+003;1.287872e-001
1.390483e+003;1.281808e-001
1.392412e+003;1.280087e-001
1.394340e+003;1.282855e-001
1.396269e+003;1.286649e-001
1.398197e+003;1.289627e-001
1.400126e+003;1.299413e-001
1.402054e+003;1.316216e-001
1.403983e+003;1.332338e-001
1.405911e+003;1.347000e-001
1.407840e+003;1.363313e-001
1.409769e+003;1.377424e-001
1.411697e+003;1.391580e-001
1.413626e+003;1.408735e-001
1.415554e+003;1.423232e-001
1.417483e+003;1.430456e-001
1.419411e+003;1.435803e-001
1.421340e+003;1.441178e-001
1.423268e+003;1.438437e-001
1.425197e+003;1.430454e-001
1.427125e+003;1.420522e-001
1.429054e+003;1.406993e-001
1.430983e+003;1.390906e-001
1.432911e+003;1.374328e-001
1.434840e+003;1.354137e-001
1.436768e+003;1.331991e-001
1.438697e+003;1.314795e-001
1.440625e+003;1.301031e-001
1.442554e+003;1.288280e-001
1.444482e+003;1.277175e-001
1.446411e+003;1.262716e-001
1.448340e+003;1.247718e-001
1.450268e+003;1.235215e-001
1.452197e+003;1.223592e-001
1.454125e+003;1.209411e-001
1.456054e+003;1.191021e-001
1.457982e+003;1.172610e-001
1.459911e+003;1.159402e-001
1.461839e+003;1.145264e-001
1.463768e+003;1.124464e-001
1.465697e+003;1.099414e-001
1.467625e+003;1.074636e-001
1.469554e+003;1.047940e-001
1.471482e+003;1.014934e-001
1.473411e+003;9.829648e-002
1.475339e+003;9.552808e-002
1.477268e+003;9.317379e-002
1.479196e+003;9.150684e-002
1.481125e+003;9.000759e-002
1.483053e+003;8.855351e-002
1.484982e+003;8.740671e-002
1.486911e+003;8.651960e-002
1.488839e+003;8.599159e-002
1.490768e+003;8.600746e-002
1.492696e+003;8.616619e-002
1.494625e+003;8.629013e-002
1.496553e+003;8.667766e-002
1.498482e+003;8.718333e-002
1.500410e+003;8.738118e-002
1.502339e+003;8.754110e-002
1.504267e+003;8.743597e-002
1.506196e+003;8.690470e-002
1.508125e+003;8.659624e-002
1.510053e+003;8.622535e-002
1.511982e+003;8.523019e-002
1.513910e+003;8.412345e-002
1.515839e+003;8.263873e-002
1.517767e+003;8.140745e-002
1.519696e+003;8.072259e-002
1.521624e+003;8.012933e-002
1.523553e+003;7.987350e-002
1.525481e+003;7.984638e-002
1.527410e+003;7.979561e-002
1.529339e+003;7.956263e-002
1.531267e+003;7.942655e-002
1.533196e+003;7.956354e-002
1.535124e+003;7.971229e-002
1.537053e+003;7.951651e-002
1.538981e+003;7.891583e-002
1.540910e+003;7.912295e-002
1.542838e+003;7.996918e-002
1.544767e+003;8.072563e-002
1.546695e+003;8.154476e-002
1.548624e+003;8.247007e-002
1.550553e+003;8.351658e-002
1.552481e+003;8.447198e-002
1.554410e+003;8.536439e-002
1.556338e+003;8.638564e-002
1.558267e+003;8.745473e-002
1.560195e+003;8.898394e-002
1.562124e+003;9.101216e-002
1.564052e+003;9.263057e-002
1.565981e+003;9.451289e-002
1.567910e+003;9.668840e-002
1.569838e+003;9.900720e-002
1.571767e+003;1.020886e-001
1.573695e+003;1.053476e-001
1.575624e+003;1.086135e-001
1.577552e+003;1.126838e-001
1.579481e+003;1.171660e-001
1.581409e+003;1.218027e-001
1.583338e+003;1.267731e-001
1.585266e+003;1.318344e-001
1.587195e+003;1.362668e-001
1.589124e+003;1.401897e-001
1.591052e+003;1.433106e-001
1.592981e+003;1.451493e-001
1.594909e+003;1.461845e-001
1.596838e+003;1.466374e-001
1.598766e+003;1.466718e-001
1.600695e+003;1.466623e-001
1.602623e+003;1.466080e-001
1.604552e+003;1.465487e-001
1.606480e+003;1.463253e-001
1.608409e+003;1.456773e-001
1.610338e+003;1.454351e-001
1.612266e+003;1.451691e-001
1.614195e+003;1.442106e-001
1.616123e+003;1.426223e-001
1.618052e+003;1.414396e-001
1.619980e+003;1.406548e-001
1.621909e+003;1.395704e-001
1.623837e+003;1.380938e-001
1.625766e+003;1.367943e-001
1.627694e+003;1.355423e-001
1.629623e+003;1.342974e-001
1.631552e+003;1.330166e-001
1.633480e+003;1.312755e-001
1.635409e+003;1.296707e-001
1.637337e+003;1.284916e-001
1.639266e+003;1.271197e-001
1.641194e+003;1.254807e-001
1.643123e+003;1.239538e-001
1.645051e+003;1.225656e-001
1.646980e+003;1.211006e-001
1.648909e+003;1.192905e-001
1.650837e+003;1.168604e-001
1.652766e+003;1.145421e-001
1.654694e+003;1.132956e-001
1.656623e+003;1.121645e-001
1.658551e+003;1.104073e-001
1.660480e+003;1.080404e-001
1.662408e+003;1.057179e-001
1.664337e+003;1.040882e-001
1.666266e+003;1.026493e-001
1.668194e+003;1.006567e-001
1.670123e+003;9.874637e-002
1.672051e+003;9.722316e-002
1.673980e+003;9.564952e-002
1.675908e+003;9.422396e-002
1.677837e+003;9.272676e-002
1.679765e+003;9.109054e-002
1.681694e+003;8.956368e-002
1.683622e+003;8.822597e-002
1.685551e+003;8.718601e-002
1.687479e+003;8.648769e-002
1.689408e+003;8.596251e-002
1.691337e+003;8.549283e-002
1.693265e+003;8.507733e-002
1.695194e+003;8.497026e-002
1.697122e+003;8.535076e-002
1.699051e+003;8.597386e-002
1.700979e+003;8.655223e-002
1.702908e+003;8.776924e-002
1.704836e+003;8.941552e-002
1.706765e+003;9.113668e-002
1.708693e+003;9.257214e-002
1.710622e+003;9.433680e-002
1.712551e+003;9.623221e-002
1.714479e+003;9.780514e-002
1.716408e+003;9.958511e-002
1.718336e+003;1.016619e-001
1.720265e+003;1.035712e-001
1.722193e+003;1.049848e-001
1.724122e+003;1.062033e-001
1.726050e+003;1.074224e-001
1.727979e+003;1.084929e-001
1.729908e+003;1.091276e-001
1.731836e+003;1.091693e-001
1.733765e+003;1.088545e-001
1.735693e+003;1.085567e-001
1.737622e+003;1.079985e-001
1.739550e+003;1.069082e-001
1.741479e+003;1.053924e-001
1.743407e+003;1.031227e-001
1.745336e+003;1.002570e-001
1.747265e+003;9.725810e-002
1.749193e+003;9.424841e-002
1.751122e+003;9.073588e-002
1.753050e+003;8.751552e-002
1.754979e+003;8.483400e-002
1.756907e+003;8.196464e-002
1.758836e+003;7.890983e-002
1.760764e+003;7.584538e-002
1.762693e+003;7.263478e-002
1.764621e+003;6.989815e-002
1.766550e+003;6.718609e-002
1.768479e+003;6.462207e-002
1.770407e+003;6.265169e-002
1.772336e+003;6.077044e-002
1.774264e+003;5.876991e-002
1.776193e+003;5.687350e-002
1.778121e+003;5.555909e-002
1.780050e+003;5.444898e-002
1.781978e+003;5.314712e-002
1.783907e+003;5.198862e-002
1.785835e+003;5.103227e-002
1.787764e+003;5.040584e-002
1.789693e+003;4.963479e-002
1.791621e+003;4.894146e-002
1.793550e+003;4.829200e-002
1.795478e+003;4.763202e-002
1.797407e+003;4.727366e-002
1.799335e+003;4.709119e-002
1.801264e+003;4.667081e-002
1.803192e+003;4.623249e-002
1.805121e+003;4.581533e-002
1.807049e+003;4.559336e-002
1.808978e+003;4.534859e-002
1.810907e+003;4.472810e-002
1.812835e+003;4.445228e-002
1.814764e+003;4.443316e-002
1.816692e+003;4.411883e-002
1.818621e+003;4.395653e-002
1.820549e+003;4.369725e-002
1.822478e+003;4.350167e-002
1.824406e+003;4.347087e-002
1.826335e+003;4.337104e-002
1.828264e+003;4.320814e-002
1.830192e+003;4.308910e-002
1.832121e+003;4.269787e-002
1.834049e+003;4.234597e-002
1.835978e+003;4.237340e-002
1.837906e+003;4.211401e-002
1.839835e+003;4.180541e-002
1.841763e+003;4.159102e-002
1.843692e+003;4.147059e-002
1.845620e+003;4.139634e-002
1.847549e+003;4.139175e-002
1.849478e+003;4.126154e-002
1.851406e+003;4.112212e-002
1.853335e+003;4.117028e-002
1.855263e+003;4.110322e-002
1.857192e+003;4.089322e-002
1.859120e+003;4.079741e-002
1.861049e+003;4.082893e-002
1.862977e+003;4.073637e-002
1.864906e+003;4.049047e-002
1.866834e+003;4.041086e-002
1.868763e+003;4.055834e-002
1.870692e+003;4.070533e-002
1.872620e+003;4.055714e-002
1.874549e+003;4.044272e-002
1.876477e+003;4.026524e-002
1.878406e+003;4.004510e-002
1.880334e+003;4.011662e-002
1.882263e+003;4.027538e-002
1.884191e+003;4.023172e-002
1.886120e+003;4.000267e-002
1.888048e+003;3.967404e-002
1.889977e+003;3.967160e-002
1.891906e+003;3.989347e-002
1.893834e+003;3.999627e-002
1.895763e+003;3.991385e-002
1.897691e+003;4.002465e-002
1.899620e+003;4.008475e-002
1.901548e+003;3.998523e-002
1.903477e+003;4.007654e-002
1.905405e+003;4.009572e-002
1.907334e+003;4.004968e-002
1.909262e+003;4.032810e-002
1.911191e+003;4.054547e-002
1.913120e+003;4.039293e-002
1.915048e+003;4.032272e-002
1.916977e+003;4.073696e-002
1.918905e+003;4.089413e-002
1.920834e+003;4.079843e-002
1.922762e+003;4.078842e-002
1.924691e+003;4.080935e-002
1.926619e+003;4.101370e-002
1.928548e+003;4.115185e-002
1.930477e+003;4.112912e-002
1.932405e+003;4.113615e-002
1.934334e+003;4.122358e-002
1.936262e+003;4.114423e-002
1.938191e+003;4.116740e-002
1.940119e+003;4.132590e-002
1.942048e+003;4.156152e-002
1.943976e+003;4.181026e-002
1.945905e+003;4.186185e-002
1.947833e+003;4.175743e-002
1.949762e+003;4.171191e-002
1.951691e+003;4.189345e-002
1.953619e+003;4.206122e-002
1.955548e+003;4.195454e-002
1.957476e+003;4.188925e-002
1.959405e+003;4.214391e-002
1.961333e+003;4.242674e-002
1.963262e+003;4.227478e-002
1.965190e+003;4.202121e-002
1.967119e+003;4.204202e-002
1.969047e+003;4.229999e-002
1.970976e+003;4.253581e-002
1.972905e+003;4.244782e-002
1.974833e+003;4.227106e-002
1.976762e+003;4.229845e-002
1.978690e+003;4.237359e-002
1.980619e+003;4.244936e-002
1.982547e+003;4.259852e-002
1.984476e+003;4.275019e-002
1.986404e+003;4.297016e-002
1.988333e+003;4.320185e-002
1.990261e+003;4.321733e-002
1.992190e+003;4.309049e-002
1.994119e+003;4.314267e-002
1.996047e+003;4.341963e-002
1.997976e+003;4.356401e-002
1.999904e+003;4.355716e-002
2.001833e+003;4.358313e-002
2.003761e+003;4.370414e-002
2.005690e+003;4.372558e-002
2.007618e+003;4.387676e-002
2.009547e+003;4.424124e-002
2.011476e+003;4.432523e-002
2.013404e+003;4.428486e-002
2.015333e+003;4.439913e-002
2.017261e+003;4.460375e-002
2.019190e+003;4.505459e-002
2.021118e+003;4.516384e-002
2.023047e+003;4.513333e-002
2.024975e+003;4.515711e-002
2.026904e+003;4.533711e-002
2.028833e+003;4.574461e-002
2.030761e+003;4.593686e-002
2.032690e+003;4.618882e-002
2.034618e+003;4.652216e-002
2.036547e+003;4.650877e-002
2.038475e+003;4.652600e-002
2.040404e+003;4.645814e-002
2.042332e+003;4.647599e-002
2.044261e+003;4.669800e-002
2.046189e+003;4.690304e-002
2.048118e+003;4.686750e-002
2.050047e+003;4.668162e-002
2.051975e+003;4.687931e-002
2.053904e+003;4.704175e-002
2.055832e+003;4.708008e-002
2.057761e+003;4.714965e-002
2.059689e+003;4.722756e-002
2.061618e+003;4.720517e-002
2.063546e+003;4.712362e-002
2.065475e+003;4.715870e-002
2.067404e+003;4.740786e-002
2.069332e+003;4.756244e-002
2.071260e+003;4.749087e-002
2.073189e+003;4.738192e-002
2.075118e+003;4.707181e-002
2.077046e+003;4.688743e-002
2.078975e+003;4.697839e-002
2.080903e+003;4.704954e-002
2.082832e+003;4.712391e-002
2.084760e+003;4.710862e-002
2.086689e+003;4.734726e-002
2.088617e+003;4.772983e-002
2.090546e+003;4.784216e-002
2.092475e+003;4.769222e-002
2.094403e+003;4.758788e-002
2.096332e+003;4.790331e-002
2.098260e+003;4.798291e-002
2.100189e+003;4.784771e-002
2.102117e+003;4.772872e-002
2.104046e+003;4.780602e-002
2.105974e+003;4.792788e-002
2.107903e+003;4.806329e-002
2.109832e+003;4.809093e-002
2.111760e+003;4.793121e-002
2.113688e+003;4.780702e-002
2.115617e+003;4.801162e-002
2.117546e+003;4.841641e-002
2.119474e+003;4.858850e-002
2.121403e+003;4.872678e-002
2.123331e+003;4.897295e-002
2.125260e+003;4.888131e-002
2.127188e+003;4.862908e-002
2.129117e+003;4.881312e-002
2.131045e+003;4.903207e-002
2.132974e+003;4.887505e-002
2.134903e+003;4.856875e-002
2.136831e+003;4.845812e-002
2.138760e+003;4.880612e-002
2.140688e+003;4.897098e-002
2.142617e+003;4.896627e-002
2.144545e+003;4.866959e-002
2.146474e+003;4.819736e-002
2.148402e+003;4.825990e-002
2.150331e+003;4.826153e-002
2.152260e+003;4.812432e-002
2.154188e+003;4.825816e-002
2.156117e+003;4.821873e-002
2.158045e+003;4.806647e-002
2.159974e+003;4.789092e-002
2.161902e+003;4.778483e-002
2.163831e+003;4.765055e-002
2.165759e+003;4.747468e-002
2.167688e+003;4.742948e-002
2.169616e+003;4.728774e-002
2.171545e+003;4.721958e-002
2.173474e+003;4.695284e-002
2.175402e+003;4.670557e-002
2.177331e+003;4.676937e-002
2.179259e+003;4.667746e-002
2.181188e+003;4.652629e-002
2.183116e+003;4.641813e-002
2.185045e+003;4.625880e-002
2.186973e+003;4.627266e-002
2.188902e+003;4.637643e-002
2.190831e+003;4.620448e-002
2.192759e+003;4.609224e-002
2.194688e+003;4.612503e-002
2.196616e+003;4.598120e-002
2.198545e+003;4.598544e-002
2.200473e+003;4.599708e-002
2.202402e+003;4.583529e-002
2.204330e+003;4.550931e-002
2.206259e+003;4.534153e-002
2.208188e+003;4.546542e-002
2.210116e+003;4.560481e-002
2.212044e+003;4.556116e-002
2.213973e+003;4.537165e-002
2.215902e+003;4.551049e-002
2.217830e+003;4.556870e-002
2.219759e+003;4.540531e-002
2.221687e+003;4.546667e-002
2.223616e+003;4.574078e-002
2.225544e+003;4.584460e-002
2.227473e+003;4.573592e-002
2.229401e+003;4.542716e-002
2.231330e+003;4.520693e-002
2.233259e+003;4.538787e-002
2.235187e+003;4.563907e-002
2.237116e+003;4.569863e-002
2.239044e+003;4.581681e-002
2.240973e+003;4.580211e-002
2.242901e+003;4.579898e-002
2.244830e+003;4.596183e-002
2.246758e+003;4.585966e-002
2.248687e+003;4.594448e-002
2.250615e+003;4.570753e-002
2.252544e+003;4.538986e-002
2.254473e+003;4.541222e-002
2.256401e+003;4.570790e-002
2.258330e+003;4.588228e-002
2.260258e+003;4.569215e-002
2.262187e+003;4.555943e-002
2.264115e+003;4.534333e-002
2.266044e+003;4.521190e-002
2.267972e+003;4.531935e-002
2.269901e+003;4.531755e-002
2.271830e+003;4.485894e-002
2.273758e+003;4.473691e-002
2.275687e+003;4.500813e-002
2.277615e+003;4.516241e-002
2.279544e+003;4.497888e-002
2.281472e+003;4.502599e-002
2.283401e+003;4.524992e-002
2.285329e+003;4.521440e-002
2.287258e+003;4.499483e-002
2.289187e+003;4.502662e-002
2.291115e+003;4.501497e-002
2.293043e+003;4.477181e-002
2.294972e+003;4.466504e-002
2.296901e+003;4.465729e-002
2.298829e+003;4.462200e-002
2.300758e+003;4.455393e-002
2.302686e+003;4.466544e-002
2.304615e+003;4.471895e-002
2.306543e+003;4.454908e-002
2.308472e+003;4.424094e-002
2.310400e+003;4.420206e-002
2.312329e+003;4.440435e-002
2.314258e+003;4.442765e-002
2.316186e+003;4.429976e-002
2.318115e+003;4.426076e-002
2.320043e+003;4.416391e-002
2.321972e+003;4.378117e-002
2.323900e+003;4.351844e-002
2.325829e+003;4.358990e-002
2.327757e+003;4.360236e-002
2.329686e+003;4.355236e-002
2.331615e+003;4.353679e-002
2.333543e+003;4.335794e-002
2.335472e+003;4.356540e-002
2.337400e+003;4.398909e-002
2.339329e+003;4.417700e-002
2.341257e+003;4.412455e-002
2.343186e+003;4.448932e-002
2.345114e+003;4.515443e-002
2.347043e+003;4.538434e-002
2.348971e+003;4.542043e-002
2.350900e+003;4.546237e-002
2.352829e+003;4.516487e-002
2.354757e+003;4.486986e-002
2.356686e+003;4.457243e-002
2.358614e+003;4.416446e-002
2.360543e+003;4.433183e-002
2.362471e+003;4.471854e-002
2.364400e+003;4.474257e-002
2.366328e+003;4.486596e-002
2.368257e+003;4.518208e-002
2.370186e+003;4.569005e-002
2.372114e+003;4.633743e-002
2.374042e+003;4.680192e-002
2.375971e+003;4.694923e-002
2.377900e+003;4.700870e-002
2.379828e+003;4.730654e-002
2.381757e+003;4.767088e-002
2.383685e+003;4.785537e-002
2.385614e+003;4.798738e-002
2.387542e+003;4.840034e-002
2.389471e+003;4.895381e-002
2.391399e+003;4.921777e-002
2.393328e+003;4.908861e-002
2.395257e+003;4.889325e-002
2.397185e+003;4.889796e-002
2.399114e+003;4.903003e-002
2.401042e+003;4.946919e-002
2.402971e+003;4.942738e-002
2.404899e+003;4.940473e-002
2.406828e+003;4.981424e-002
2.408756e+003;4.999258e-002
2.410685e+003;5.002667e-002
2.412614e+003;5.002942e-002
2.414542e+003;5.004217e-002
2.416471e+003;5.020476e-002
2.418399e+003;5.047915e-002
2.420328e+003;5.073916e-002
2.422256e+003;5.092399e-002
2.424185e+003;5.093900e-002
2.426113e+003;5.112436e-002
2.428042e+003;5.124399e-002
2.429970e+003;5.125398e-002
2.431899e+003;5.140031e-002
2.433828e+003;5.177881e-002
2.435756e+003;5.201118e-002
2.437685e+003;5.206937e-002
2.439613e+003;5.193021e-002
2.441542e+003;5.215545e-002
2.443470e+003;5.256999e-002
2.445399e+003;5.263663e-002
2.447327e+003;5.258495e-002
2.449256e+003;5.280555e-002
2.451185e+003;5.310020e-002
2.453113e+003;5.317989e-002
2.455042e+003;5.318749e-002
2.456970e+003;5.328813e-002
2.458899e+003;5.337954e-002
2.460827e+003;5.319018e-002
2.462756e+003;5.311356e-002
2.464684e+003;5.343901e-002
2.466613e+003;5.354244e-002
2.468542e+003;5.376109e-002
2.470470e+003;5.420431e-002
2.472398e+003;5.457392e-002
2.474327e+003;5.484139e-002
2.476256e+003;5.471750e-002
2.478184e+003;5.468992e-002
2.480113e+003;5.469939e-002
2.482041e+003;5.483996e-002
2.483970e+003;5.530438e-002
2.485898e+003;5.584755e-002
2.487827e+003;5.593841e-002
2.489755e+003;5.570627e-002
2.491684e+003;5.565915e-002
2.493613e+003;5.563169e-002
2.495541e+003;5.566860e-002
2.497470e+003;5.588429e-002
2.499398e+003;5.633093e-002
2.501327e+003;5.667166e-002
2.503255e+003;5.666940e-002
2.505184e+003;5.653698e-002
2.507112e+003;5.638103e-002
2.509041e+003;5.643724e-002
2.510969e+003;5.663531e-002
2.512898e+003;5.679906e-002
2.514827e+003;5.696850e-002
2.516755e+003;5.704444e-002
2.518684e+003;5.729956e-002
2.520612e+003;5.746810e-002
2.522541e+003;5.740010e-002
2.524469e+003;5.782903e-002
2.526398e+003;5.821834e-002
2.528326e+003;5.803788e-002
2.530255e+003;5.770822e-002
2.532184e+003;5.757091e-002
2.534112e+003;5.783426e-002
2.536041e+003;5.765487e-002
2.537969e+003;5.751765e-002
2.539898e+003;5.773210e-002
2.541826e+003;5.770304e-002
2.543755e+003;5.765510e-002
2.545683e+003;5.786075e-002
2.547612e+003;5.837757e-002
2.549541e+003;5.875675e-002
2.551469e+003;5.849986e-002
2.553397e+003;5.815621e-002
2.555326e+003;5.814375e-002
2.557255e+003;5.828040e-002
2.559183e+003;5.833421e-002
2.561112e+003;5.868514e-002
2.563040e+003;5.902286e-002
2.564969e+003;5.906416e-002
2.566897e+003;5.901470e-002
2.568826e+003;5.890627e-002
2.570754e+003;5.906200e-002
2.572683e+003;5.919762e-002
2.574612e+003;5.917525e-002
2.576540e+003;5.946958e-002
2.578469e+003;5.962833e-002
2.580397e+003;5.960225e-002
2.582326e+003;5.968329e-002
2.584254e+003;5.983260e-002
2.586183e+003;5.970367e-002
2.588111e+003;5.968744e-002
2.590040e+003;5.995412e-002
2.591969e+003;5.985340e-002
2.593897e+003;5.984804e-002
2.595826e+003;6.014333e-002
2.597754e+003;6.019345e-002
2.599683e+003;6.009668e-002
2.601611e+003;6.025333e-002
2.603540e+003;6.044529e-002
2.605468e+003;6.067735e-002
2.607397e+003;6.093431e-002
2.609325e+003;6.117792e-002
2.611254e+003;6.136526e-002
2.613183e+003;6.154187e-002
2.615111e+003;6.152611e-002
2.617040e+003;6.135129e-002
2.618968e+003;6.132847e-002
2.620897e+003;6.152733e-002
2.622825e+003;6.196659e-002
2.624754e+003;6.217560e-002
2.626682e+003;6.230359e-002
2.628611e+003;6.267384e-002
2.630540e+003;6.283158e-002
2.632468e+003;6.268965e-002
2.634396e+003;6.290805e-002
2.636325e+003;6.325219e-002
2.638254e+003;6.336355e-002
2.640182e+003;6.344821e-002
2.642111e+003;6.361666e-002
2.644039e+003;6.391940e-002
2.645968e+003;6.441250e-002
2.647896e+003;6.461727e-002
2.649825e+003;6.428973e-002
2.651753e+003;6.414545e-002
2.653682e+003;6.448229e-002
2.655611e+003;6.470183e-002
2.657539e+003;6.479990e-002
2.659468e+003;6.497727e-002
2.661396e+003;6.511871e-002
2.663325e+003;6.511690e-002
2.665253e+003;6.516768e-002
2.667182e+003;6.519797e-002
2.669110e+003;6.540482e-002
2.671039e+003;6.582157e-002
2.672968e+003;6.602728e-002
2.674896e+003;6.588580e-002
2.676825e+003;6.590941e-002
2.678753e+003;6.626407e-002
2.680682e+003;6.657387e-002
2.682610e+003;6.682210e-002
2.684539e+003;6.721893e-002
2.686467e+003;6.738634e-002
2.688396e+003;6.733844e-002
2.690324e+003;6.747592e-002
2.692253e+003;6.768916e-002
2.694182e+003;6.803346e-002
2.696110e+003;6.839941e-002
2.698039e+003;6.839459e-002
2.699967e+003;6.828267e-002
2.701896e+003;6.856963e-002
2.703824e+003;6.866691e-002
2.705753e+003;6.847190e-002
2.707681e+003;6.863199e-002
2.709610e+003;6.894306e-002
2.711539e+003;6.930072e-002
2.713467e+003;6.948129e-002
2.715396e+003;6.954891e-002
2.717324e+003;6.946193e-002
2.719253e+003;6.975472e-002
2.721181e+003;7.026548e-002
2.723110e+003;7.026903e-002
2.725038e+003;7.016893e-002
2.726967e+003;7.007407e-002
2.728896e+003;7.021286e-002
2.730824e+003;7.044240e-002
2.732752e+003;7.065729e-002
2.734681e+003;7.073535e-002
2.736610e+003;7.058205e-002
2.738538e+003;7.066992e-002
2.740467e+003;7.096533e-002
2.742395e+003;7.095054e-002
2.744324e+003;7.100902e-002
2.746252e+003;7.117262e-002
2.748181e+003;7.116103e-002
2.750109e+003;7.096545e-002
2.752038e+003;7.116248e-002
2.753967e+003;7.156482e-002
2.755895e+003;7.148322e-002
2.757824e+003;7.133375e-002
2.759752e+003;7.152686e-002
2.761681e+003;7.190150e-002
2.763609e+003;7.221720e-002
2.765538e+003;7.212615e-002
2.767466e+003;7.194088e-002
2.769395e+003;7.203325e-002
2.771323e+003;7.211488e-002
2.773252e+003;7.251401e-002
2.775181e+003;7.294543e-002
2.777109e+003;7.292623e-002
2.779038e+003;7.255892e-002
2.780966e+003;7.254595e-002
2.782895e+003;7.312620e-002
2.784823e+003;7.361939e-002
2.786752e+003;7.369119e-002
2.788680e+003;7.409219e-002
2.790609e+003;7.449302e-002
2.792538e+003;7.465880e-002
2.794466e+003;7.455069e-002
2.796395e+003;7.464401e-002
2.798323e+003;7.499962e-002
2.800252e+003;7.528613e-002
2.802180e+003;7.558690e-002
2.804109e+003;7.593144e-002
2.806037e+003;7.619084e-002
2.807966e+003;7.642025e-002
2.809895e+003;7.669579e-002
2.811823e+003;7.708878e-002
2.813751e+003;7.736843e-002
2.815680e+003;7.765385e-002
2.817609e+003;7.821401e-002
2.819537e+003;7.866048e-002
2.821466e+003;7.905970e-002
2.823394e+003;7.956227e-002
2.825323e+003;8.001164e-002
2.827251e+003;8.044975e-002
2.829180e+003;8.081724e-002
2.831108e+003;8.116905e-002
2.833037e+003;8.195576e-002
2.834966e+003;8.309028e-002
2.836894e+003;8.383102e-002
2.838823e+003;8.403756e-002
2.840751e+003;8.441785e-002
2.842680e+003;8.511562e-002
2.844608e+003;8.605820e-002
2.846537e+003;8.698303e-002
2.848465e+003;8.776437e-002
2.850394e+003;8.855859e-002
2.852323e+003;8.926065e-002
2.854251e+003;9.002088e-002
2.856180e+003;9.089835e-002
2.858108e+003;9.160421e-002
2.860037e+003;9.250128e-002
2.861965e+003;9.361013e-002
2.863894e+003;9.422062e-002
2.865822e+003;9.462643e-002
2.867751e+003;9.498592e-002
2.869679e+003;9.510040e-002
2.871608e+003;9.589960e-002
2.873536e+003;9.688579e-002
2.875465e+003;9.743807e-002
2.877394e+003;9.784067e-002
2.879322e+003;9.803259e-002
2.881251e+003;9.804787e-002
2.883179e+003;9.836596e-002
2.885108e+003;9.862518e-002
2.887036e+003;9.891294e-002
2.888965e+003;9.945886e-002
2.890893e+003;9.972574e-002
2.892822e+003;9.963487e-002
2.894750e+003;9.959524e-002
2.896679e+003;9.965534e-002
2.898608e+003;9.983018e-002
2.900536e+003;9.977360e-002
2.902465e+003;9.956732e-002
2.904393e+003;9.955627e-002
2.906322e+003;9.922628e-002
2.908250e+003;9.910118e-002
2.910179e+003;9.941574e-002
2.912107e+003;9.914751e-002
2.914036e+003;9.865874e-002
2.915965e+003;9.857845e-002
2.917893e+003;9.843154e-002
2.919822e+003;9.834044e-002
2.921750e+003;9.803098e-002
2.923679e+003;9.736054e-002
2.925607e+003;9.695926e-002
2.927536e+003;9.699944e-002
2.929464e+003;9.700301e-002
2.931393e+003;9.650481e-002
2.933322e+003;9.603938e-002
2.935250e+003;9.588040e-002
2.937178e+003;9.578599e-002
2.939107e+003;9.556702e-002
2.941036e+003;9.519239e-002
2.942964e+003;9.420741e-002
2.944893e+003;9.315293e-002
2.946821e+003;9.234638e-002
2.948750e+003;9.150013e-002
2.950678e+003;9.080621e-002
2.952607e+003;9.002402e-002
2.954535e+003;8.938120e-002
2.956464e+003;8.865558e-002
2.958393e+003;8.774450e-002
2.960321e+003;8.710392e-002
2.962250e+003;8.664352e-002
2.964178e+003;8.601607e-002
2.966107e+003;8.521028e-002
2.968035e+003;8.494270e-002
2.969964e+003;8.456359e-002
2.971892e+003;8.373450e-002
2.973821e+003;8.279695e-002
2.975750e+003;8.224753e-002
2.977678e+003;8.195976e-002
2.979607e+003;8.153752e-002
2.981535e+003;8.109085e-002
2.983464e+003;8.057733e-002
2.985392e+003;8.016571e-002
2.987321e+003;8.027452e-002
2.989249e+003;8.037817e-002
2.991178e+003;7.980505e-002
2.993106e+003;7.932984e-002
2.995035e+003;7.939862e-002
2.996964e+003;7.899471e-002
2.998892e+003;7.880315e-002
3.000821e+003;7.890983e-002
3.002749e+003;7.837682e-002
3.004678e+003;7.819474e-002
3.006606e+003;7.865758e-002
3.008535e+003;7.885504e-002
3.010463e+003;7.861576e-002
3.012392e+003;7.847240e-002
3.014321e+003;7.876144e-002
3.016249e+003;7.905195e-002
3.018177e+003;7.914764e-002
3.020106e+003;7.925826e-002
3.022035e+003;7.895938e-002
3.023963e+003;7.907345e-002
3.025892e+003;7.951333e-002
3.027820e+003;7.971630e-002
3.029749e+003;8.005952e-002
3.031677e+003;8.016559e-002
3.033606e+003;7.990123e-002
3.035534e+003;7.979546e-002
3.037463e+003;7.997040e-002
3.039392e+003;8.025208e-002
3.041320e+003;8.051216e-002
3.043249e+003;8.120496e-002
3.045177e+003;8.176729e-002
3.047106e+003;8.191635e-002
3.049034e+003;8.211713e-002
3.050963e+003;8.251626e-002
3.052891e+003;8.270783e-002
3.054820e+003;8.300452e-002
3.056749e+003;8.322282e-002
3.058677e+003;8.350895e-002
3.060606e+003;8.401387e-002
3.062534e+003;8.417046e-002
3.064463e+003;8.411726e-002
3.066391e+003;8.418719e-002
3.068320e+003;8.449617e-002
3.070248e+003;8.504960e-002
3.072177e+003;8.589123e-002
3.074105e+003;8.659243e-002
3.076034e+003;8.642599e-002
3.077963e+003;8.635759e-002
3.079891e+003;8.683432e-002
3.081820e+003;8.728245e-002
3.083748e+003;8.779661e-002
3.085677e+003;8.796890e-002
3.087605e+003;8.801714e-002
3.089534e+003;8.839111e-002
3.091462e+003;8.879349e-002
3.093391e+003;8.933774e-002
3.095320e+003;9.008525e-002
3.097248e+003;9.069754e-002
3.099177e+003;9.099864e-002
3.101105e+003;9.129856e-002
3.103034e+003;9.151927e-002
3.104962e+003;9.192596e-002
3.106891e+003;9.254097e-002
3.108819e+003;9.309942e-002
3.110748e+003;9.286314e-002
3.112677e+003;9.294980e-002
3.114605e+003;9.348720e-002
3.116533e+003;9.395678e-002
3.118462e+003;9.429048e-002
3.120391e+003;9.472804e-002
3.122319e+003;9.535182e-002
3.124248e+003;9.573448e-002
3.126176e+003;9.594184e-002
3.128105e+003;9.615190e-002
3.130033e+003;9.669995e-002
3.131962e+003;9.728849e-002
3.133890e+003;9.745076e-002
3.135819e+003;9.784698e-002
3.137748e+003;9.870494e-002
3.139676e+003;9.922816e-002
3.141605e+003;9.940037e-002
3.143533e+003;1.001318e-001
3.145462e+003;1.009086e-001
3.147390e+003;1.010463e-001
3.149319e+003;1.008462e-001
3.151247e+003;1.009464e-001
3.153176e+003;1.017707e-001
3.155104e+003;1.023296e-001
3.157033e+003;1.027392e-001
3.158962e+003;1.029755e-001
3.160890e+003;1.031140e-001
3.162819e+003;1.037804e-001
3.164747e+003;1.047107e-001
3.166676e+003;1.054901e-001
3.168604e+003;1.058218e-001
3.170533e+003;1.060300e-001
3.172461e+003;1.065427e-001
3.174390e+003;1.076513e-001
3.176319e+003;1.082755e-001
3.178247e+003;1.083079e-001
3.180176e+003;1.089383e-001
3.182104e+003;1.098194e-001
3.184033e+003;1.102469e-001
3.185961e+003;1.105717e-001
3.187890e+003;1.107463e-001
3.189818e+003;1.110497e-001
3.191747e+003;1.115296e-001
3.193676e+003;1.120992e-001
3.195604e+003;1.124401e-001
3.197532e+003;1.129047e-001
3.199461e+003;1.134662e-001
3.201390e+003;1.139480e-001
3.203318e+003;1.144702e-001
3.205247e+003;1.149873e-001
3.207175e+003;1.152371e-001
3.209104e+003;1.155453e-001
3.211032e+003;1.163854e-001
3.212961e+003;1.170711e-001
3.214889e+003;1.169909e-001
3.216818e+003;1.171489e-001
3.218747e+003;1.177210e-001
3.220675e+003;1.183069e-001
3.222604e+003;1.190345e-001
3.224532e+003;1.195487e-001
3.226461e+003;1.198301e-001
3.228389e+003;1.200506e-001
3.230318e+003;1.203034e-001
3.232246e+003;1.212774e-001
3.234175e+003;1.220788e-001
3.236104e+003;1.223669e-001
3.238032e+003;1.226652e-001
3.239961e+003;1.227936e-001
3.241889e+003;1.231670e-001
3.243818e+003;1.232984e-001
3.245746e+003;1.236839e-001
3.247675e+003;1.242034e-001
3.249603e+003;1.248598e-001
3.251532e+003;1.257837e-001
3.253460e+003;1.262663e-001
3.255389e+003;1.268484e-001
3.257318e+003;1.274970e-001
3.259246e+003;1.279907e-001
3.261175e+003;1.283646e-001
3.263103e+003;1.287750e-001
3.265032e+003;1.291319e-001
3.266960e+003;1.291302e-001
3.268889e+003;1.291735e-001
3.270817e+003;1.294203e-001
3.272746e+003;1.300580e-001
3.274675e+003;1.305966e-001
3.276603e+003;1.310027e-001
3.278531e+003;1.315979e-001
3.280460e+003;1.319865e-001
3.282389e+003;1.321858e-001
3.284317e+003;1.323090e-001
3.286246e+003;1.323423e-001
3.288174e+003;1.323573e-001
3.290103e+003;1.324237e-001
3.292031e+003;1.325276e-001
3.293960e+003;1.326498e-001
3.295888e+003;1.326014e-001
3.297817e+003;1.326014e-001
3.299746e+003;1.331072e-001
3.301674e+003;1.335104e-001
3.303603e+003;1.337381e-001
3.305531e+003;1.338679e-001
3.307460e+003;1.335720e-001
3.309388e+003;1.338224e-001
3.311317e+003;1.339921e-001
3.313245e+003;1.342682e-001
3.315174e+003;1.346616e-001
3.317103e+003;1.348257e-001
3.319031e+003;1.348168e-001
3.320960e+003;1.349603e-001
3.322888e+003;1.356940e-001
3.324817e+003;1.359165e-001
3.326745e+003;1.353980e-001
3.328674e+003;1.351478e-001
3.330602e+003;1.353085e-001
3.332531e+003;1.351413e-001
3.334459e+003;1.350302e-001
3.336388e+003;1.353367e-001
3.338317e+003;1.352271e-001
3.340245e+003;1.347388e-001
3.342174e+003;1.349421e-001
3.344102e+003;1.348870e-001
3.346031e+003;1.346859e-001
3.347959e+003;1.346000e-001
3.349888e+003;1.345275e-001
3.351816e+003;1.341832e-001
3.353745e+003;1.335764e-001
3.355674e+003;1.335132e-001
3.357602e+003;1.337884e-001
3.359531e+003;1.333480e-001
3.361459e+003;1.329893e-001
3.363388e+003;1.331629e-001
3.365316e+003;1.329609e-001
3.367245e+003;1.326638e-001
3.369173e+003;1.327854e-001
3.371102e+003;1.327677e-001
3.373031e+003;1.327669e-001
3.374959e+003;1.321426e-001
3.376887e+003;1.315152e-001
3.378816e+003;1.316596e-001
3.380745e+003;1.318813e-001
3.382673e+003;1.312299e-001
3.384602e+003;1.305041e-001
3.386530e+003;1.302432e-001
3.388459e+003;1.300022e-001
3.390387e+003;1.296102e-001
3.392316e+003;1.290391e-001
3.394244e+003;1.286567e-001
3.396173e+003;1.283022e-001
3.398102e+003;1.281217e-001
3.400030e+003;1.281506e-001
3.401959e+003;1.277441e-001
3.403887e+003;1.271268e-001
3.405816e+003;1.269633e-001
3.407744e+003;1.264275e-001
3.409673e+003;1.253145e-001
3.411601e+003;1.249026e-001
3.413530e+003;1.251296e-001
3.415458e+003;1.246920e-001
3.417387e+003;1.240691e-001
3.419316e+003;1.237809e-001
3.421244e+003;1.234067e-001
3.423173e+003;1.228020e-001
3.425101e+003;1.222335e-001
3.427030e+003;1.214065e-001
3.428958e+003;1.208184e-001
3.430887e+003;1.203431e-001
3.432815e+003;1.196256e-001
3.434744e+003;1.194856e-001
3.436673e+003;1.192158e-001
3.438601e+003;1.184562e-001
3.440530e+003;1.174227e-001
3.442458e+003;1.162648e-001
3.444387e+003;1.155538e-001
3.446315e+003;1.148932e-001
3.448244e+003;1.142612e-001
3.450172e+003;1.139090e-001
3.452101e+003;1.131960e-001
3.454030e+003;1.124258e-001
3.455958e+003;1.127433e-001
3.457886e+003;1.124898e-001
3.459815e+003;1.116284e-001
3.461744e+003;1.111376e-001
3.463672e+003;1.101690e-001
3.465601e+003;1.085990e-001
3.467529e+003;1.077584e-001
3.469458e+003;1.076314e-001
3.471386e+003;1.068576e-001
3.473315e+003;1.059142e-001
3.475243e+003;1.053308e-001
3.477172e+003;1.047020e-001
3.479101e+003;1.037513e-001
3.481029e+003;1.028500e-001
3.482958e+003;1.024654e-001
3.484886e+003;1.022479e-001
3.486815e+003;1.014770e-001
3.488743e+003;1.004735e-001
3.490672e+003;9.989110e-002
3.492600e+003;9.941037e-002
3.494529e+003;9.864315e-002
3.496458e+003;9.818634e-002
3.498386e+003;9.754466e-002
3.500315e+003;9.636310e-002
3.502243e+003;9.533623e-002
3.504172e+003;9.462465e-002
3.506100e+003;9.369703e-002
3.508029e+003;9.217116e-002
3.509957e+003;9.137249e-002
3.511886e+003;9.149138e-002
3.513814e+003;9.114003e-002
3.515743e+003;9.047528e-002
3.517672e+003;8.946104e-002
3.519600e+003;8.850127e-002
3.521529e+003;8.774389e-002
3.523457e+003;8.704808e-002
3.525386e+003;8.664145e-002
3.527314e+003;8.614603e-002
3.529243e+003;8.505557e-002
3.531171e+003;8.368990e-002
3.533100e+003;8.272262e-002
3.535029e+003;8.288328e-002
3.536957e+003;8.255200e-002
3.538885e+003;8.134415e-002
3.540814e+003;8.012017e-002
3.542743e+003;7.906968e-002
3.544671e+003;7.841806e-002
3.546600e+003;7.788526e-002
3.548528e+003;7.713852e-002
3.550457e+003;7.635941e-002
3.552385e+003;7.546869e-002
3.554314e+003;7.477214e-002
3.556242e+003;7.416408e-002
3.558171e+003;7.334359e-002
3.560100e+003;7.224952e-002
3.562028e+003;7.164156e-002
3.563957e+003;7.090642e-002
3.565885e+003;7.002186e-002
3.567814e+003;6.985877e-002
3.569742e+003;6.964766e-002
3.571671e+003;6.855594e-002
3.573599e+003;6.768169e-002
3.575528e+003;6.746141e-002
3.577457e+003;6.674106e-002
3.579385e+003;6.563596e-002
3.581314e+003;6.519964e-002
3.583242e+003;6.476606e-002
3.585171e+003;6.387337e-002
3.587099e+003;6.290349e-002
3.589028e+003;6.238884e-002
3.590956e+003;6.185788e-002
3.592885e+003;6.074396e-002
3.594813e+003;6.020613e-002
3.596742e+003;6.030772e-002
3.598671e+003;5.991023e-002
3.600599e+003;5.925359e-002
3.602528e+003;5.839645e-002
3.604456e+003;5.825486e-002
3.606385e+003;5.833338e-002
3.608313e+003;5.754799e-002
3.610242e+003;5.658771e-002
3.612170e+003;5.577419e-002
3.614099e+003;5.467710e-002
3.616028e+003;5.440466e-002
3.617956e+003;5.450224e-002
3.619885e+003;5.399125e-002
3.621813e+003;5.330982e-002
3.623742e+003;5.316637e-002
3.625670e+003;5.265519e-002
3.627599e+003;5.163553e-002
3.629527e+003;5.090163e-002
3.631456e+003;5.038493e-002
3.633385e+003;4.989801e-002
3.635313e+003;4.988047e-002
3.637241e+003;4.944346e-002
3.639170e+003;4.850447e-002
3.641099e+003;4.786070e-002
3.643027e+003;4.744792e-002
3.644956e+003;4.698020e-002
3.646884e+003;4.585388e-002
3.648813e+003;4.467014e-002
3.650741e+003;4.436508e-002
3.652670e+003;4.387328e-002
3.654598e+003;4.288355e-002
3.656527e+003;4.215201e-002
3.658456e+003;4.182963e-002
3.660384e+003;4.133347e-002
3.662313e+003;4.080534e-002
3.664241e+003;3.983318e-002
3.666170e+003;3.883909e-002
3.668098e+003;3.818503e-002
3.670027e+003;3.803292e-002
3.671955e+003;3.765276e-002
3.673884e+003;3.664861e-002
3.675813e+003;3.604895e-002
3.677741e+003;3.570584e-002
3.679669e+003;3.529508e-002
3.681598e+003;3.494844e-002
3.683527e+003;3.460304e-002
3.685455e+003;3.438536e-002
3.687384e+003;3.371630e-002
3.689312e+003;3.272849e-002
3.691241e+003;3.258407e-002
3.693169e+003;3.229076e-002
3.695098e+003;3.182167e-002
3.697026e+003;3.161946e-002
3.698955e+003;3.150935e-002
3.700884e+003;3.144138e-002
3.702812e+003;3.126150e-002
3.704741e+003;3.075418e-002
3.706669e+003;3.074906e-002
3.708598e+003;3.065013e-002
3.710526e+003;2.979408e-002
3.712455e+003;2.912198e-002
3.714383e+003;2.902920e-002
3.716312e+003;2.916582e-002
3.718240e+003;2.914941e-002
3.720169e+003;2.916110e-002
3.722098e+003;2.932758e-002
3.724026e+003;2.904560e-002
3.725955e+003;2.906887e-002
3.727883e+003;2.924718e-002
3.729812e+003;2.898024e-002
3.731740e+003;2.886992e-002
3.733669e+003;2.906392e-002
3.735597e+003;2.860527e-002
3.737526e+003;2.785109e-002
3.739455e+003;2.784795e-002
3.741383e+003;2.868780e-002
3.743312e+003;2.855346e-002
3.745240e+003;2.789246e-002
3.747169e+003;2.818787e-002
3.749097e+003;2.809609e-002
3.751026e+003;2.769345e-002
3.752954e+003;2.764408e-002
3.754883e+003;2.796921e-002
3.756812e+003;2.836196e-002
3.758740e+003;2.870005e-002
3.760668e+003;2.835771e-002
3.762597e+003;2.784159e-002
3.764526e+003;2.775547e-002
3.766454e+003;2.743187e-002
3.768383e+003;2.741214e-002
3.770311e+003;2.739976e-002
3.772240e+003;2.741867e-002
3.774168e+003;2.777687e-002
3.776097e+003;2.773650e-002
3.778025e+003;2.744818e-002
3.779954e+003;2.711713e-002
3.781883e+003;2.706863e-002
3.783811e+003;2.719046e-002
3.785740e+003;2.767438e-002
3.787668e+003;2.828157e-002
3.789597e+003;2.864763e-002
3.791525e+003;2.808379e-002
3.793454e+003;2.745263e-002
3.795382e+003;2.744963e-002
3.797311e+003;2.765895e-002
3.799240e+003;2.774095e-002
3.801168e+003;2.769073e-002
3.803097e+003;2.774145e-002
3.805025e+003;2.760217e-002
3.806954e+003;2.733260e-002
3.808882e+003;2.763486e-002
3.810811e+003;2.778351e-002
3.812739e+003;2.807715e-002
3.814668e+003;2.810712e-002
3.816596e+003;2.805855e-002
3.818525e+003;2.802300e-002
3.820454e+003;2.732156e-002
3.822382e+003;2.745538e-002
3.824311e+003;2.786300e-002
3.826239e+003;2.823457e-002
3.828168e+003;2.842740e-002
3.830096e+003;2.832790e-002
3.832025e+003;2.810769e-002
3.833953e+003;2.785363e-002
3.835882e+003;2.745062e-002
3.837811e+003;2.743628e-002
3.839739e+003;2.774724e-002
3.841667e+003;2.793122e-002
3.843596e+003;2.817054e-002
3.845525e+003;2.861634e-002
3.847453e+003;2.812193e-002
3.849382e+003;2.738606e-002
3.851310e+003;2.736648e-002
3.853239e+003;2.729456e-002
3.855167e+003;2.758497e-002
3.857096e+003;2.828157e-002
3.859024e+003;2.860035e-002
3.860953e+003;2.876505e-002
3.862882e+003;2.859536e-002
3.864810e+003;2.804459e-002
3.866739e+003;2.835704e-002
3.868667e+003;2.923882e-002
3.870596e+003;2.936756e-002
3.872524e+003;2.925395e-002
3.874453e+003;2.900837e-002
3.876381e+003;2.890927e-002
3.878310e+003;2.923233e-002
3.880239e+003;2.936792e-002
3.882167e+003;2.878300e-002
3.884096e+003;2.875294e-002
3.886024e+003;2.900943e-002
3.887953e+003;2.959828e-002
3.889881e+003;2.995558e-002
3.891810e+003;2.975139e-002
3.893738e+003;2.986254e-002
3.895667e+003;2.978113e-002
3.897595e+003;2.944439e-002
3.899524e+003;2.985055e-002
3.901453e+003;3.049161e-002
3.903381e+003;3.054493e-002
3.905310e+003;3.054756e-002
3.907238e+003;3.096858e-002
3.909167e+003;3.089280e-002
3.911095e+003;3.033069e-002
3.913024e+003;3.030440e-002
3.914952e+003;3.053742e-002
3.916881e+003;3.079241e-002
3.918810e+003;3.100310e-002
3.920738e+003;3.126046e-002
3.922667e+003;3.143682e-002
3.924595e+003;3.116975e-002
3.926524e+003;3.150333e-002
3.928452e+003;3.168671e-002
3.930381e+003;3.127894e-002
3.932309e+003;3.108108e-002
3.934238e+003;3.092315e-002
3.936167e+003;3.110556e-002
3.938095e+003;3.193906e-002
3.940023e+003;3.200964e-002
3.941952e+003;3.187298e-002
3.943881e+003;3.177996e-002
3.945809e+003;3.190450e-002
3.947738e+003;3.229504e-002
3.949666e+003;3.299767e-002
3.951595e+003;3.280978e-002
3.953523e+003;3.240406e-002
3.955452e+003;3.267562e-002
3.957380e+003;3.302617e-002
3.959309e+003;3.341808e-002
3.961238e+003;3.370173e-002
3.963166e+003;3.335449e-002
3.965095e+003;3.274764e-002
3.967023e+003;3.277776e-002
3.968952e+003;3.325361e-002
3.970880e+003;3.315585e-002
3.972809e+003;3.289194e-002
3.974737e+003;3.277301e-002
3.976666e+003;3.292110e-002
3.978594e+003;3.314298e-002
3.980523e+003;3.333707e-002
3.982452e+003;3.325811e-002
3.984380e+003;3.307704e-002
3.986309e+003;3.266954e-002
3.988237e+003;3.239610e-002
3.990166e+003;3.266379e-002
3.992094e+003;3.289923e-002
3.994023e+003;3.296307e-002
3.995951e+003;3.313490e-002
3.997880e+003;3.349491e-002
3.999809e+003;3.333990e-002
4.001737e+003;0.000000e+000
