3.992094e+002;0.000000e+000
4.011380e+002;0.000000e+000
4.030665e+002;0.000000e+000
4.049951e+002;0.000000e+000
4.069236e+002;0.000000e+000
4.088522e+002;0.000000e+000
4.107807e+002;0.000000e+000
4.127093e+002;0.000000e+000
4.146378e+002;0.000000e+000
4.165664e+002;0.000000e+000
4.184949e+002;0.000000e+000
4.204235e+002;0.000000e+000
4.223520e+002;0.000000e+000
4.242806e+002;0.000000e+000
4.262091e+002;0.000000e+000
4.281377e+002;0.000000e+000
4.300662e+002;0.000000e+000
4.319948e+002;0.000000e+000
4.339233e+002;0.000000e+000
4.358519e+002;0.000000e+000
4.377804e+002;0.000000e+000
4.397090e+002;0.000000e+000
4.416375e+002;0.000000e+000
4.435660e+002;0.000000e+000
4.454946e+002;0.000000e+000
4.474232e+002;0.000000e+000
4.493517e+002;0.000000e+000
4.512802e+002;0.000000e+000
4.532088e+002;0.000000e+000
4.551373e+002;0.000000e+000
4.570659e+002;0.000000e+000
4.589944e+002;0.000000e+000
4.609230e+002;0.000000e+000
4.628515e+002;0.000000e+000
4.647801e+002;0.000000e+000
4.667086e+002;0.000000e+000
4.686372e+002;0.000000e+000
4.705657e+002;0.000000e+000
4.724943e+002;0.000000e+000
4.744228e+002;0.000000e+000
4.763513e+002;0.000000e+000
4.782799e+002;0.000000e+000
4.802085e+002;0.000000e+000
4.821370e+002;0.000000e+000
4.840656e+002;0.000000e+000
4.859941e+002;0.000000e+000
4.879226e+002;0.000000e+000
4.898512e+002;0.000000e+000
4.917798e+002;0.000000e+000
4.937083e+002;0.000000e+000
4.956368e+002;0.000000e+000
4.975654e+002;0.000000e+000
4.994939e+002;0.000000e+000
5.014225e+002;0.000000e+000
5.033510e+002;0.000000e+000
5.052796e+002;0.000000e+000
5.072081e+002;0.000000e+000
5.091367e+002;0.000000e+000
5.110652e+002;0.000000e+000
5.129938e+002;0.000000e+000
5.149223e+002;0.000000e+000
5.168509e+002;0.000000e+000
5.187794e+002;0.000000e+000
5.207079e+002;0.000000e+000
5.226365e+002;0.000000e+000
5.245651e+002;0.000000e+000
5.264936e+002;0.000000e+000
5.284222e+002;0.000000e+000
5.303507e+002;0.000000e+000
5.322792e+002;0.000000e+000
5.342078e+002;0.000000e+000
5.361364e+002;0.000000e+000
5.380649e+002;0.000000e+000
5.399935e+002;0.000000e+000
5.419220e+002;0.000000e+000
5.438505e+002;0.000000e+000
5.457791e+002;0.000000e+000
5.477076e+002;0.000000e+000
5.496362e+002;0.000000e+000
5.515648e+002;0.000000e+000
5.534933e+002;0.000000e+000
5.554218e+002;0.000000e+000
5.573504e+002;0.000000e+000
5.592789e+002;0.000000e+000
5.612075e+002;0.000000e+000
5.631360e+002;0.000000e+000
5.650646e+002;0.000000e+000
5.669931e+002;0.000000e+000
5.689217e+002;0.000000e+000
5.708502e+002;0.000000e+000
5.727787e+002;0.000000e+000
5.747073e+002;0.000000e+000
5.766359e+002;0.000000e+000
5.785644e+002;0.000000e+000
5.804930e+002;0.000000e+000
5.824215e+002;0.000000e+000
5.843500e+002;0.000000e+000
5.862786e+002;0.000000e+000
5.882072e+002;0.000000e+000
5.901357e+002;0.000000e+000
5.920643e+002;0.000000e+000
5.939928e+002;0.000000e+000
5.959213e+002;0.000000e+000
5.978499e+002;0.000000e+000
5.997784e+002;2.416548e-001
6.017070e+002;2.497849e-001
6.036355e+002;2.481394e-001
6.055641e+002;2.377482e-001
6.074926e+002;2.378918e-001
6.094211e+002;2.390165e-001
6.113497e+002;2.381543e-001
6.132783e+002;2.389940e-001
6.152068e+002;2.379968e-001
6.171354e+002;2.339745e-001
6.190639e+002;2.307257e-001
6.209924e+002;2.281181e-001
6.229210e+002;2.279645e-001
6.248495e+002;2.237583e-001
6.267781e+002;2.205576e-001
6.287067e+002;2.174755e-001
6.306352e+002;2.117843e-001
6.325637e+002;2.146335e-001
6.344923e+002;2.155941e-001
6.364208e+002;2.090811e-001
6.383494e+002;2.050081e-001
6.402780e+002;2.075963e-001
6.422065e+002;2.093400e-001
6.441350e+002;2.077429e-001
6.460636e+002;2.050387e-001
6.479921e+002;2.044711e-001
6.499207e+002;2.064295e-001
6.518492e+002;2.073155e-001
6.537778e+002;2.069381e-001
6.557063e+002;2.080858e-001
6.576349e+002;2.103309e-001
6.595634e+002;2.137757e-001
6.614919e+002;2.190967e-001
6.634205e+002;2.219029e-001
6.653491e+002;2.183910e-001
6.672776e+002;2.130064e-001
6.692062e+002;2.112758e-001
6.711347e+002;2.112342e-001
6.730632e+002;2.083353e-001
6.749918e+002;2.029685e-001
6.769203e+002;1.987958e-001
6.788489e+002;1.964507e-001
6.807775e+002;1.923373e-001
6.827060e+002;1.895032e-001
6.846345e+002;1.883142e-001
6.865631e+002;1.875359e-001
6.884916e+002;1.852008e-001
6.904202e+002;1.824414e-001
6.923488e+002;1.811314e-001
6.942773e+002;1.814135e-001
6.962058e+002;1.805446e-001
6.981344e+002;1.798069e-001
7.000629e+002;1.801474e-001
7.019915e+002;1.792513e-001
7.039200e+002;1.786912e-001
7.058486e+002;1.778067e-001
7.077771e+002;1.763715e-001
7.097057e+002;1.746912e-001
7.116342e+002;1.721560e-001
7.135627e+002;1.700732e-001
7.154913e+002;1.697627e-001
7.174199e+002;1.694850e-001
7.193484e+002;1.682534e-001
7.212770e+002;1.656612e-001
7.232055e+002;1.624066e-001
7.251340e+002;1.599773e-001
7.270626e+002;1.581952e-001
7.289911e+002;1.557667e-001
7.309197e+002;1.531663e-001
7.328483e+002;1.526522e-001
7.347768e+002;1.519828e-001
7.367053e+002;1.505800e-001
7.386339e+002;1.487958e-001
7.405624e+002;1.455343e-001
7.424910e+002;1.434179e-001
7.444196e+002;1.432765e-001
7.463481e+002;1.430977e-001
7.482766e+002;1.428298e-001
7.502052e+002;1.412028e-001
7.521337e+002;1.393407e-001
7.540623e+002;1.386602e-001
7.559908e+002;1.377605e-001
7.579194e+002;1.368990e-001
7.598479e+002;1.361568e-001
7.617765e+002;1.355673e-001
7.637050e+002;1.352825e-001
7.656335e+002;1.347180e-001
7.675621e+002;1.335970e-001
7.694907e+002;1.325410e-001
7.714192e+002;1.315181e-001
7.733478e+002;1.310996e-001
7.752763e+002;1.299444e-001
7.772048e+002;1.285879e-001
7.791334e+002;1.285201e-001
7.810620e+002;1.284905e-001
7.829905e+002;1.279486e-001
7.849191e+002;1.276764e-001
7.868476e+002;1.274283e-001
7.887761e+002;1.267584e-001
7.907047e+002;1.256379e-001
7.926332e+002;1.250838e-001
7.945618e+002;1.259319e-001
7.964903e+002;1.271237e-001
7.984189e+002;1.273105e-001
8.003474e+002;1.262843e-001
8.022759e+002;1.258223e-001
8.042045e+002;1.260868e-001
8.061331e+002;1.264364e-001
8.080616e+002;1.272483e-001
8.099902e+002;1.277567e-001
8.119187e+002;1.286079e-001
8.138472e+002;1.302284e-001
8.157758e+002;1.310260e-001
8.177043e+002;1.314928e-001
8.196329e+002;1.319399e-001
8.215615e+002;1.325358e-001
8.234900e+002;1.332637e-001
8.254185e+002;1.336362e-001
8.273471e+002;1.338304e-001
8.292756e+002;1.334875e-001
8.312042e+002;1.337971e-001
8.331328e+002;1.349218e-001
8.350613e+002;1.353833e-001
8.369898e+002;1.352164e-001
8.389184e+002;1.345823e-001
8.408469e+002;1.337114e-001
8.427755e+002;1.336578e-001
8.447040e+002;1.337323e-001
8.466326e+002;1.332684e-001
8.485611e+002;1.321957e-001
8.504897e+002;1.313271e-001
8.524182e+002;1.314872e-001
8.543467e+002;1.319358e-001
8.562753e+002;1.326053e-001
8.582039e+002;1.338939e-001
8.601324e+002;1.354381e-001
8.620610e+002;1.368091e-001
8.639895e+002;1.384247e-001
8.659180e+002;1.397031e-001
8.678466e+002;1.413895e-001
8.697751e+002;1.435986e-001
8.717037e+002;1.460786e-001
8.736323e+002;1.482829e-001
8.755608e+002;1.500911e-001
8.774893e+002;1.522638e-001
8.794179e+002;1.547903e-001
8.813464e+002;1.578040e-001
8.832750e+002;1.608235e-001
8.852036e+002;1.642156e-001
8.871321e+002;1.679011e-001
8.890606e+002;1.710492e-001
8.909892e+002;1.742394e-001
8.929177e+002;1.771912e-001
8.948463e+002;1.790605e-001
8.967748e+002;1.801515e-001
8.987034e+002;1.803105e-001
9.006319e+002;1.790475e-001
9.025605e+002;1.768588e-001
9.044890e+002;1.745671e-001
9.064175e+002;1.725350e-001
9.083461e+002;1.707339e-001
9.102747e+002;1.699623e-001
9.122032e+002;1.692333e-001
9.141318e+002;1.681975e-001
9.160603e+002;1.675768e-001
9.179888e+002;1.677613e-001
9.199174e+002;1.682623e-001
9.218459e+002;1.690713e-001
9.237745e+002;1.702623e-001
9.257031e+002;1.713912e-001
9.276316e+002;1.722003e-001
9.295601e+002;1.724198e-001
9.314887e+002;1.732470e-001
9.334172e+002;1.746397e-001
9.353458e+002;1.761444e-001
9.372744e+002;1.783138e-001
9.392029e+002;1.808146e-001
9.411314e+002;1.838516e-001
9.430600e+002;1.870085e-001
9.449885e+002;1.900308e-001
9.469171e+002;1.941746e-001
9.488456e+002;1.994373e-001
9.507742e+002;2.042568e-001
9.527027e+002;2.092061e-001
9.546313e+002;2.152789e-001
9.565598e+002;2.219029e-001
9.584883e+002;2.276486e-001
9.604169e+002;2.332120e-001
9.623455e+002;2.392415e-001
9.642740e+002;2.451819e-001
9.662026e+002;2.514515e-001
9.681311e+002;2.582293e-001
9.700596e+002;2.653172e-001
9.719882e+002;2.729558e-001
9.739167e+002;2.824118e-001
9.758453e+002;2.925805e-001
9.777739e+002;3.020572e-001
9.797024e+002;3.122798e-001
9.816309e+002;3.222805e-001
9.835595e+002;3.306051e-001
9.854880e+002;3.374059e-001
9.874166e+002;3.426054e-001
9.893452e+002;3.469879e-001
9.912737e+002;3.509779e-001
9.932022e+002;3.543917e-001
9.951307e+002;3.578921e-001
9.970593e+002;3.615149e-001
9.989879e+002;3.651096e-001
1.000916e+003;3.687006e-001
1.002845e+003;3.723048e-001
1.004773e+003;3.757845e-001
1.006702e+003;3.813839e-001
1.008631e+003;3.878751e-001
1.010559e+003;3.933486e-001
1.012488e+003;3.987691e-001
1.014416e+003;4.044054e-001
1.016345e+003;4.093727e-001
1.018273e+003;4.140581e-001
1.020202e+003;4.183580e-001
1.022130e+003;4.218467e-001
1.024059e+003;4.247648e-001
1.025988e+003;4.274667e-001
1.027916e+003;4.295967e-001
1.029845e+003;4.308348e-001
1.031773e+003;4.309503e-001
1.033702e+003;4.293711e-001
1.035630e+003;4.260945e-001
1.037559e+003;4.214675e-001
1.039487e+003;4.161898e-001
1.041416e+003;4.123096e-001
1.043344e+003;4.083974e-001
1.045273e+003;4.052771e-001
1.047202e+003;4.033355e-001
1.049130e+003;4.007218e-001
1.051059e+003;3.972865e-001
1.052987e+003;3.932346e-001
1.054916e+003;3.880174e-001
1.056844e+003;3.820603e-001
1.058773e+003;3.757820e-001
1.060701e+003;3.678412e-001
1.062630e+003;3.583708e-001
1.064558e+003;3.479557e-001
1.066487e+003;3.371516e-001
1.068416e+003;3.280723e-001
1.070344e+003;3.204869e-001
1.072273e+003;3.137655e-001
1.074201e+003;3.076883e-001
1.076130e+003;3.021723e-001
1.078058e+003;2.970592e-001
1.079987e+003;2.928255e-001
1.081915e+003;2.885885e-001
1.083844e+003;2.841324e-001
1.085773e+003;2.811001e-001
1.087701e+003;2.796156e-001
1.089630e+003;2.771796e-001
1.091558e+003;2.748352e-001
1.093487e+003;2.732911e-001
1.095415e+003;2.714535e-001
1.097344e+003;2.702653e-001
1.099272e+003;2.696483e-001
1.101201e+003;2.685583e-001
1.103129e+003;2.660206e-001
1.105058e+003;2.624687e-001
1.106987e+003;2.578263e-001
1.108915e+003;2.524525e-001
1.110844e+003;2.475504e-001
1.112772e+003;2.419195e-001
1.114701e+003;2.352949e-001
1.116629e+003;2.287313e-001
1.118558e+003;2.219811e-001
1.120486e+003;2.150580e-001
1.122415e+003;2.096193e-001
1.124344e+003;2.048841e-001
1.126272e+003;1.989637e-001
1.128201e+003;1.923068e-001
1.130129e+003;1.863756e-001
1.132058e+003;1.808324e-001
1.133986e+003;1.756553e-001
1.135915e+003;1.710399e-001
1.137843e+003;1.679427e-001
1.139772e+003;1.657381e-001
1.141700e+003;1.638225e-001
1.143629e+003;1.634654e-001
1.145557e+003;1.643432e-001
1.147486e+003;1.648258e-001
1.149415e+003;1.651679e-001
1.151343e+003;1.657462e-001
1.153272e+003;1.659780e-001
1.155200e+003;1.662412e-001
1.157129e+003;1.662597e-001
1.159057e+003;1.647071e-001
1.160986e+003;1.621559e-001
1.162914e+003;1.586942e-001
1.164843e+003;1.544633e-001
1.166771e+003;1.489187e-001
1.168700e+003;1.427654e-001
1.170629e+003;1.368425e-001
1.172557e+003;1.314288e-001
1.174486e+003;1.268281e-001
1.176414e+003;1.229493e-001
1.178343e+003;1.196679e-001
1.180271e+003;1.171359e-001
1.182200e+003;1.155472e-001
1.184128e+003;1.147157e-001
1.186057e+003;1.143898e-001
1.187986e+003;1.147204e-001
1.189914e+003;1.158198e-001
1.191843e+003;1.173594e-001
1.193771e+003;1.195867e-001
1.195700e+003;1.222574e-001
1.197628e+003;1.254941e-001
1.199557e+003;1.284599e-001
1.201485e+003;1.306267e-001
1.203414e+003;1.333874e-001
1.205343e+003;1.363575e-001
1.207271e+003;1.384853e-001
1.209200e+003;1.403005e-001
1.211128e+003;1.427530e-001
1.213057e+003;1.463392e-001
1.214985e+003;1.508779e-001
1.216914e+003;1.554324e-001
1.218842e+003;1.603543e-001
1.220771e+003;1.650945e-001
1.222699e+003;1.690619e-001
1.224628e+003;1.727879e-001
1.226557e+003;1.764266e-001
1.228485e+003;1.794691e-001
1.230414e+003;1.817691e-001
1.232342e+003;1.832386e-001
1.234271e+003;1.841290e-001
1.236199e+003;1.847431e-001
1.238128e+003;1.847832e-001
1.240056e+003;1.841596e-001
1.241985e+003;1.828996e-001
1.243913e+003;1.812326e-001
1.245842e+003;1.794839e-001
1.247771e+003;1.773107e-001
1.249699e+003;1.745004e-001
1.251628e+003;1.718698e-001
1.253556e+003;1.694655e-001
1.255485e+003;1.671538e-001
1.257413e+003;1.641057e-001
1.259342e+003;1.605091e-001
1.261270e+003;1.572789e-001
1.263199e+003;1.544022e-001
1.265127e+003;1.514136e-001
1.267056e+003;1.481375e-001
1.268985e+003;1.450605e-001
1.270913e+003;1.423585e-001
1.272842e+003;1.397318e-001
1.274770e+003;1.374374e-001
1.276699e+003;1.352324e-001
1.278627e+003;1.329758e-001
1.280556e+003;1.306135e-001
1.282484e+003;1.280863e-001
1.284413e+003;1.258326e-001
1.286342e+003;1.245105e-001
1.288270e+003;1.239215e-001
1.290199e+003;1.233936e-001
1.292127e+003;1.230250e-001
1.294056e+003;1.232157e-001
1.295984e+003;1.238624e-001
1.297913e+003;1.248022e-001
1.299841e+003;1.261951e-001
1.301770e+003;1.278430e-001
1.303698e+003;1.297641e-001
1.305627e+003;1.317808e-001
1.307556e+003;1.339969e-001
1.309484e+003;1.367827e-001
1.311413e+003;1.392357e-001
1.313341e+003;1.410561e-001
1.315270e+003;1.429414e-001
1.317198e+003;1.440755e-001
1.319127e+003;1.436252e-001
1.321055e+003;1.427003e-001
1.322984e+003;1.420912e-001
1.324912e+003;1.416599e-001
1.326841e+003;1.415778e-001
1.328770e+003;1.419597e-001
1.330698e+003;1.422693e-001
1.332627e+003;1.424010e-001
1.334555e+003;1.421272e-001
1.336484e+003;1.414205e-001
1.338412e+003;1.402728e-001
1.340341e+003;1.386713e-001
1.342269e+003;1.371202e-001
1.344198e+003;1.357897e-001
1.346126e+003;1.348721e-001
1.348055e+003;1.342430e-001
1.349984e+003;1.337510e-001
1.351912e+003;1.341319e-001
1.353841e+003;1.352286e-001
1.355769e+003;1.365154e-001
1.357698e+003;1.383608e-001
1.359626e+003;1.403792e-001
1.361555e+003;1.423021e-001
1.363483e+003;1.439383e-001
1.365412e+003;1.448613e-001
1.367341e+003;1.452811e-001
1.369269e+003;1.452577e-001
1.371198e+003;1.442437e-001
1.373126e+003;1.424290e-001
1.375055e+003;1.401349e-001
1.376983e+003;1.371244e-001
1.378912e+003;1.336278e-001
1.380840e+003;1.303163e-001
1.382769e+003;1.275114e-001
1.384698e+003;1.250082e-001
1.386626e+003;1.224177e-001
1.388555e+003;1.202968e-001
1.390483e+003;1.189735e-001
1.392412e+003;1.180240e-001
1.394340e+003;1.171805e-001
1.396269e+003;1.169402e-001
1.398197e+003;1.169722e-001
1.400126e+003;1.173395e-001
1.402054e+003;1.178484e-001
1.403983e+003;1.184207e-001
1.405911e+003;1.197881e-001
1.407840e+003;1.212667e-001
1.409769e+003;1.224241e-001
1.411697e+003;1.238315e-001
1.413626e+003;1.254908e-001
1.415554e+003;1.269260e-001
1.417483e+003;1.280689e-001
1.419411e+003;1.291419e-001
1.421340e+003;1.299984e-001
1.423268e+003;1.300973e-001
1.425197e+003;1.298157e-001
1.427125e+003;1.292056e-001
1.429054e+003;1.279018e-001
1.430983e+003;1.261090e-001
1.432911e+003;1.241088e-001
1.434840e+003;1.220494e-001
1.436768e+003;1.201097e-001
1.438697e+003;1.185234e-001
1.440625e+003;1.171961e-001
1.442554e+003;1.165245e-001
1.444482e+003;1.160939e-001
1.446411e+003;1.158256e-001
1.448340e+003;1.155395e-001
1.450268e+003;1.148598e-001
1.452197e+003;1.143270e-001
1.454125e+003;1.137798e-001
1.456054e+003;1.126035e-001
1.457982e+003;1.117573e-001
1.459911e+003;1.113301e-001
1.461839e+003;1.101503e-001
1.463768e+003;1.079944e-001
1.465697e+003;1.054298e-001
1.467625e+003;1.026857e-001
1.469554e+003;9.943686e-002
1.471482e+003;9.595126e-002
1.473411e+003;9.250817e-002
1.475339e+003;8.944023e-002
1.477268e+003;8.671427e-002
1.479196e+003;8.469199e-002
1.481125e+003;8.306838e-002
1.483053e+003;8.153460e-002
1.484982e+003;7.993799e-002
1.486911e+003;7.886120e-002
1.488839e+003;7.836051e-002
1.490768e+003;7.826626e-002
1.492696e+003;7.871239e-002
1.494625e+003;7.920267e-002
1.496553e+003;7.959271e-002
1.498482e+003;8.005355e-002
1.500410e+003;8.037055e-002
1.502339e+003;8.067459e-002
1.504267e+003;8.046406e-002
1.506196e+003;7.968935e-002
1.508125e+003;7.896030e-002
1.510053e+003;7.779032e-002
1.511982e+003;7.601374e-002
1.513910e+003;7.438416e-002
1.515839e+003;7.271903e-002
1.517767e+003;7.121662e-002
1.519696e+003;6.996257e-002
1.521624e+003;6.895626e-002
1.523553e+003;6.832711e-002
1.525481e+003;6.784543e-002
1.527410e+003;6.753441e-002
1.529339e+003;6.740282e-002
1.531267e+003;6.740863e-002
1.533196e+003;6.738452e-002
1.535124e+003;6.713884e-002
1.537053e+003;6.674988e-002
1.538981e+003;6.605138e-002
1.540910e+003;6.607846e-002
1.542838e+003;6.683709e-002
1.544767e+003;6.755257e-002
1.546695e+003;6.813695e-002
1.548624e+003;6.854010e-002
1.550553e+003;6.917252e-002
1.552481e+003;6.962996e-002
1.554410e+003;6.979231e-002
1.556338e+003;7.023880e-002
1.558267e+003;7.071909e-002
1.560195e+003;7.192258e-002
1.562124e+003;7.346797e-002
1.564052e+003;7.434601e-002
1.565981e+003;7.532770e-002
1.567910e+003;7.659159e-002
1.569838e+003;7.809156e-002
1.571767e+003;8.019010e-002
1.573695e+003;8.262602e-002
1.575624e+003;8.489028e-002
1.577552e+003;8.764333e-002
1.579481e+003;9.105176e-002
1.581409e+003;9.496406e-002
1.583338e+003;9.940016e-002
1.585266e+003;1.038296e-001
1.587195e+003;1.080629e-001
1.589124e+003;1.116260e-001
1.591052e+003;1.137368e-001
1.592981e+003;1.149809e-001
1.594909e+003;1.154321e-001
1.596838e+003;1.150590e-001
1.598766e+003;1.140419e-001
1.600695e+003;1.126463e-001
1.602623e+003;1.115642e-001
1.604552e+003;1.109354e-001
1.606480e+003;1.104303e-001
1.608409e+003;1.096934e-001
1.610338e+003;1.089614e-001
1.612266e+003;1.081725e-001
1.614195e+003;1.074139e-001
1.616123e+003;1.065540e-001
1.618052e+003;1.060903e-001
1.619980e+003;1.054960e-001
1.621909e+003;1.047053e-001
1.623837e+003;1.040650e-001
1.625766e+003;1.035002e-001
1.627694e+003;1.026798e-001
1.629623e+003;1.017830e-001
1.631552e+003;1.012774e-001
1.633480e+003;1.008585e-001
1.635409e+003;1.001313e-001
1.637337e+003;9.950394e-002
1.639266e+003;9.883983e-002
1.641194e+003;9.809472e-002
1.643123e+003;9.783191e-002
1.645051e+003;9.715357e-002
1.646980e+003;9.613458e-002
1.648909e+003;9.507582e-002
1.650837e+003;9.366903e-002
1.652766e+003;9.251957e-002
1.654694e+003;9.199049e-002
1.656623e+003;9.103922e-002
1.658551e+003;8.976812e-002
1.660480e+003;8.839025e-002
1.662408e+003;8.690619e-002
1.664337e+003;8.592916e-002
1.666266e+003;8.518528e-002
1.668194e+003;8.373108e-002
1.670123e+003;8.230820e-002
1.672051e+003;8.123799e-002
1.673980e+003;8.001661e-002
1.675908e+003;7.894123e-002
1.677837e+003;7.815959e-002
1.679765e+003;7.712486e-002
1.681694e+003;7.586842e-002
1.683622e+003;7.466191e-002
1.685551e+003;7.430760e-002
1.687479e+003;7.468902e-002
1.689408e+003;7.472704e-002
1.691337e+003;7.485303e-002
1.693265e+003;7.539920e-002
1.695194e+003;7.581031e-002
1.697122e+003;7.697005e-002
1.699051e+003;7.851642e-002
1.700979e+003;7.997750e-002
1.702908e+003;8.244451e-002
1.704836e+003;8.526487e-002
1.706765e+003;8.795600e-002
1.708693e+003;9.065484e-002
1.710622e+003;9.363668e-002
1.712551e+003;9.659775e-002
1.714479e+003;9.941920e-002
1.716408e+003;1.022516e-001
1.718336e+003;1.048889e-001
1.720265e+003;1.077741e-001
1.722193e+003;1.102705e-001
1.724122e+003;1.123133e-001
1.726050e+003;1.141204e-001
1.727979e+003;1.157495e-001
1.729908e+003;1.172500e-001
1.731836e+003;1.177238e-001
1.733765e+003;1.172756e-001
1.735693e+003;1.172101e-001
1.737622e+003;1.165675e-001
1.739550e+003;1.149094e-001
1.741479e+003;1.129976e-001
1.743407e+003;1.104959e-001
1.745336e+003;1.072622e-001
1.747265e+003;1.033684e-001
1.749193e+003;9.920451e-002
1.751122e+003;9.494498e-002
1.753050e+003;9.095909e-002
1.754979e+003;8.745477e-002
1.756907e+003;8.373763e-002
1.758836e+003;7.976826e-002
1.760764e+003;7.571866e-002
1.762693e+003;7.167169e-002
1.764621e+003;6.820424e-002
1.766550e+003;6.504904e-002
1.768479e+003;6.210162e-002
1.770407e+003;5.936712e-002
1.772336e+003;5.685167e-002
1.774264e+003;5.483977e-002
1.776193e+003;5.327918e-002
1.778121e+003;5.189593e-002
1.780050e+003;5.042873e-002
1.781978e+003;4.891086e-002
1.783907e+003;4.759767e-002
1.785835e+003;4.655288e-002
1.787764e+003;4.575653e-002
1.789693e+003;4.503834e-002
1.791621e+003;4.421604e-002
1.793550e+003;4.346900e-002
1.795478e+003;4.311040e-002
1.797407e+003;4.286684e-002
1.799335e+003;4.248914e-002
1.801264e+003;4.200526e-002
1.803192e+003;4.174419e-002
1.805121e+003;4.129434e-002
1.807049e+003;4.091536e-002
1.808978e+003;4.068990e-002
1.810907e+003;4.034497e-002
1.812835e+003;4.007719e-002
1.814764e+003;3.970798e-002
1.816692e+003;3.920071e-002
1.818621e+003;3.910825e-002
1.820549e+003;3.907348e-002
1.822478e+003;3.882243e-002
1.824406e+003;3.844132e-002
1.826335e+003;3.837276e-002
1.828264e+003;3.833508e-002
1.830192e+003;3.801646e-002
1.832121e+003;3.779880e-002
1.834049e+003;3.768159e-002
1.835978e+003;3.761525e-002
1.837906e+003;3.754086e-002
1.839835e+003;3.740631e-002
1.841763e+003;3.705228e-002
1.843692e+003;3.674516e-002
1.845620e+003;3.670647e-002
1.847549e+003;3.666761e-002
1.849478e+003;3.650954e-002
1.851406e+003;3.642399e-002
1.853335e+003;3.634318e-002
1.855263e+003;3.628428e-002
1.857192e+003;3.623652e-002
1.859120e+003;3.612906e-002
1.861049e+003;3.608322e-002
1.862977e+003;3.594203e-002
1.864906e+003;3.578125e-002
1.866834e+003;3.566052e-002
1.868763e+003;3.542132e-002
1.870692e+003;3.563412e-002
1.872620e+003;3.595287e-002
1.874549e+003;3.597122e-002
1.876477e+003;3.573386e-002
1.878406e+003;3.562703e-002
1.880334e+003;3.577060e-002
1.882263e+003;3.569566e-002
1.884191e+003;3.564570e-002
1.886120e+003;3.561987e-002
1.888048e+003;3.525835e-002
1.889977e+003;3.512296e-002
1.891906e+003;3.527064e-002
1.893834e+003;3.540557e-002
1.895763e+003;3.553569e-002
1.897691e+003;3.565739e-002
1.899620e+003;3.572063e-002
1.901548e+003;3.574469e-002
1.903477e+003;3.562742e-002
1.905405e+003;3.536613e-002
1.907334e+003;3.529235e-002
1.909262e+003;3.554295e-002
1.911191e+003;3.601518e-002
1.913120e+003;3.614505e-002
1.915048e+003;3.607066e-002
1.916977e+003;3.604232e-002
1.918905e+003;3.609471e-002
1.920834e+003;3.630020e-002
1.922762e+003;3.639895e-002
1.924691e+003;3.656566e-002
1.926619e+003;3.688755e-002
1.928548e+003;3.701144e-002
1.930477e+003;3.697330e-002
1.932405e+003;3.702804e-002
1.934334e+003;3.728524e-002
1.936262e+003;3.735796e-002
1.938191e+003;3.749986e-002
1.940119e+003;3.756871e-002
1.942048e+003;3.774838e-002
1.943976e+003;3.783303e-002
1.945905e+003;3.774820e-002
1.947833e+003;3.780017e-002
1.949762e+003;3.774686e-002
1.951691e+003;3.777878e-002
1.953619e+003;3.798265e-002
1.955548e+003;3.799682e-002
1.957476e+003;3.806692e-002
1.959405e+003;3.833009e-002
1.961333e+003;3.828818e-002
1.963262e+003;3.803870e-002
1.965190e+003;3.814743e-002
1.967119e+003;3.833158e-002
1.969047e+003;3.840053e-002
1.970976e+003;3.847995e-002
1.972905e+003;3.851359e-002
1.974833e+003;3.830205e-002
1.976762e+003;3.835344e-002
1.978690e+003;3.865173e-002
1.980619e+003;3.871335e-002
1.982547e+003;3.877584e-002
1.984476e+003;3.881489e-002
1.986404e+003;3.903709e-002
1.988333e+003;3.943207e-002
1.990261e+003;3.958869e-002
1.992190e+003;3.954231e-002
1.994119e+003;3.949165e-002
1.996047e+003;3.952148e-002
1.997976e+003;3.969756e-002
1.999904e+003;3.975333e-002
2.001833e+003;3.969959e-002
2.003761e+003;3.985181e-002
2.005690e+003;4.010037e-002
2.007618e+003;4.030592e-002
2.009547e+003;4.042311e-002
2.011476e+003;4.051855e-002
2.013404e+003;4.076749e-002
2.015333e+003;4.116915e-002
2.017261e+003;4.132152e-002
2.019190e+003;4.148204e-002
2.021118e+003;4.149739e-002
2.023047e+003;4.162927e-002
2.024975e+003;4.184689e-002
2.026904e+003;4.193552e-002
2.028833e+003;4.233837e-002
2.030761e+003;4.280624e-002
2.032690e+003;4.296003e-002
2.034618e+003;4.293318e-002
2.036547e+003;4.293080e-002
2.038475e+003;4.304728e-002
2.040404e+003;4.312108e-002
2.042332e+003;4.324079e-002
2.044261e+003;4.325463e-002
2.046189e+003;4.348661e-002
2.048118e+003;4.378315e-002
2.050047e+003;4.373184e-002
2.051975e+003;4.379385e-002
2.053904e+003;4.380624e-002
2.055832e+003;4.369428e-002
2.057761e+003;4.372920e-002
2.059689e+003;4.398931e-002
2.061618e+003;4.404148e-002
2.063546e+003;4.383317e-002
2.065475e+003;4.378219e-002
2.067404e+003;4.390429e-002
2.069332e+003;4.399444e-002
2.071260e+003;4.378054e-002
2.073189e+003;4.374533e-002
2.075118e+003;4.394373e-002
2.077046e+003;4.392441e-002
2.078975e+003;4.374184e-002
2.080903e+003;4.369634e-002
2.082832e+003;4.380312e-002
2.084760e+003;4.379964e-002
2.086689e+003;4.397611e-002
2.088617e+003;4.416391e-002
2.090546e+003;4.439774e-002
2.092475e+003;4.430922e-002
2.094403e+003;4.397560e-002
2.096332e+003;4.419953e-002
2.098260e+003;4.449034e-002
2.100189e+003;4.467580e-002
2.102117e+003;4.484145e-002
2.104046e+003;4.485149e-002
2.105974e+003;4.462413e-002
2.107903e+003;4.464928e-002
2.109832e+003;4.482136e-002
2.111760e+003;4.484803e-002
2.113688e+003;4.507234e-002
2.115617e+003;4.545972e-002
2.117546e+003;4.559748e-002
2.119474e+003;4.546034e-002
2.121403e+003;4.538761e-002
2.123331e+003;4.558184e-002
2.125260e+003;4.564010e-002
2.127188e+003;4.556955e-002
2.129117e+003;4.556914e-002
2.131045e+003;4.532531e-002
2.132974e+003;4.527577e-002
2.134903e+003;4.544353e-002
2.136831e+003;4.549349e-002
2.138760e+003;4.544099e-002
2.140688e+003;4.540435e-002
2.142617e+003;4.546354e-002
2.144545e+003;4.523870e-002
2.146474e+003;4.497079e-002
2.148402e+003;4.487911e-002
2.150331e+003;4.467940e-002
2.152260e+003;4.472277e-002
2.154188e+003;4.505374e-002
2.156117e+003;4.483572e-002
2.158045e+003;4.446740e-002
2.159974e+003;4.435275e-002
2.161902e+003;4.432420e-002
2.163831e+003;4.411439e-002
2.165759e+003;4.385682e-002
2.167688e+003;4.375504e-002
2.169616e+003;4.376662e-002
2.171545e+003;4.374808e-002
2.173474e+003;4.336321e-002
2.175402e+003;4.279282e-002
2.177331e+003;4.287978e-002
2.179259e+003;4.291800e-002
2.181188e+003;4.277125e-002
2.183116e+003;4.271677e-002
2.185045e+003;4.247526e-002
2.186973e+003;4.228888e-002
2.188902e+003;4.229217e-002
2.190831e+003;4.237994e-002
2.192759e+003;4.242637e-002
2.194688e+003;4.214033e-002
2.196616e+003;4.192202e-002
2.198545e+003;4.214752e-002
2.200473e+003;4.234243e-002
2.202402e+003;4.221562e-002
2.204330e+003;4.198293e-002
2.206259e+003;4.179428e-002
2.208188e+003;4.177433e-002
2.210116e+003;4.183675e-002
2.212044e+003;4.164751e-002
2.213973e+003;4.150468e-002
2.215902e+003;4.168587e-002
2.217830e+003;4.170156e-002
2.219759e+003;4.153848e-002
2.221687e+003;4.157187e-002
2.223616e+003;4.161176e-002
2.225544e+003;4.172359e-002
2.227473e+003;4.165560e-002
2.229401e+003;4.159135e-002
2.231330e+003;4.161074e-002
2.233259e+003;4.168266e-002
2.235187e+003;4.172242e-002
2.237116e+003;4.182037e-002
2.239044e+003;4.205115e-002
2.240973e+003;4.193246e-002
2.242901e+003;4.160604e-002
2.244830e+003;4.162949e-002
2.246758e+003;4.185656e-002
2.248687e+003;4.182306e-002
2.250615e+003;4.161530e-002
2.252544e+003;4.147960e-002
2.254473e+003;4.140841e-002
2.256401e+003;4.162085e-002
2.258330e+003;4.172428e-002
2.260258e+003;4.145634e-002
2.262187e+003;4.110723e-002
2.264115e+003;4.097441e-002
2.266044e+003;4.096305e-002
2.267972e+003;4.115046e-002
2.269901e+003;4.111320e-002
2.271830e+003;4.077113e-002
2.273758e+003;4.065916e-002
2.275687e+003;4.091430e-002
2.277615e+003;4.112238e-002
2.279544e+003;4.093112e-002
2.281472e+003;4.094455e-002
2.283401e+003;4.101676e-002
2.285329e+003;4.098570e-002
2.287258e+003;4.092449e-002
2.289187e+003;4.103490e-002
2.291115e+003;4.080800e-002
2.293043e+003;4.045064e-002
2.294972e+003;4.044399e-002
2.296901e+003;4.056646e-002
2.298829e+003;4.049734e-002
2.300758e+003;4.042857e-002
2.302686e+003;4.053466e-002
2.304615e+003;4.059887e-002
2.306543e+003;4.045941e-002
2.308472e+003;4.034122e-002
2.310400e+003;4.043224e-002
2.312329e+003;4.038213e-002
2.314258e+003;4.005194e-002
2.316186e+003;3.987971e-002
2.318115e+003;3.983216e-002
2.320043e+003;3.972192e-002
2.321972e+003;3.959102e-002
2.323900e+003;3.961987e-002
2.325829e+003;3.981771e-002
2.327757e+003;3.974200e-002
2.329686e+003;3.956336e-002
2.331615e+003;3.943541e-002
2.333543e+003;3.925087e-002
2.335472e+003;3.938163e-002
2.337400e+003;3.959766e-002
2.339329e+003;3.977671e-002
2.341257e+003;3.996438e-002
2.343186e+003;4.038151e-002
2.345114e+003;4.072357e-002
2.347043e+003;4.095577e-002
2.348971e+003;4.128184e-002
2.350900e+003;4.148262e-002
2.352829e+003;4.124518e-002
2.354757e+003;4.073182e-002
2.356686e+003;4.030450e-002
2.358614e+003;4.024307e-002
2.360543e+003;4.046043e-002
2.362471e+003;4.061284e-002
2.364400e+003;4.063929e-002
2.366328e+003;4.078918e-002
2.368257e+003;4.092664e-002
2.370186e+003;4.112536e-002
2.372114e+003;4.175507e-002
2.374042e+003;4.247965e-002
2.375971e+003;4.289939e-002
2.377900e+003;4.322655e-002
2.379828e+003;4.348522e-002
2.381757e+003;4.360987e-002
2.383685e+003;4.382529e-002
2.385614e+003;4.407097e-002
2.387542e+003;4.414007e-002
2.389471e+003;4.441579e-002
2.391399e+003;4.465964e-002
2.393328e+003;4.455569e-002
2.395257e+003;4.468564e-002
2.397185e+003;4.496804e-002
2.399114e+003;4.500350e-002
2.401042e+003;4.496149e-002
2.402971e+003;4.478874e-002
2.404899e+003;4.489274e-002
2.406828e+003;4.529368e-002
2.408756e+003;4.529864e-002
2.410685e+003;4.530552e-002
2.412614e+003;4.534995e-002
2.414542e+003;4.553945e-002
2.416471e+003;4.583238e-002
2.418399e+003;4.615576e-002
2.420328e+003;4.639468e-002
2.422256e+003;4.659231e-002
2.424185e+003;4.667882e-002
2.426113e+003;4.670081e-002
2.428042e+003;4.661485e-002
2.429970e+003;4.676199e-002
2.431899e+003;4.701878e-002
2.433828e+003;4.723576e-002
2.435756e+003;4.738950e-002
2.437685e+003;4.765894e-002
2.439613e+003;4.780218e-002
2.441542e+003;4.778202e-002
2.443470e+003;4.800844e-002
2.445399e+003;4.812414e-002
2.447327e+003;4.807554e-002
2.449256e+003;4.839748e-002
2.451185e+003;4.873245e-002
2.453113e+003;4.878509e-002
2.455042e+003;4.871681e-002
2.456970e+003;4.867760e-002
2.458899e+003;4.876400e-002
2.460827e+003;4.889600e-002
2.462756e+003;4.900344e-002
2.464684e+003;4.925558e-002
2.466613e+003;4.930859e-002
2.468542e+003;4.926097e-002
2.470470e+003;4.960608e-002
2.472398e+003;5.008333e-002
2.474327e+003;5.022733e-002
2.476256e+003;5.026966e-002
2.478184e+003;5.046144e-002
2.480113e+003;5.030943e-002
2.482041e+003;5.029154e-002
2.483970e+003;5.080542e-002
2.485898e+003;5.113793e-002
2.487827e+003;5.109782e-002
2.489755e+003;5.060750e-002
2.491684e+003;5.026531e-002
2.493613e+003;5.071041e-002
2.495541e+003;5.130596e-002
2.497470e+003;5.156429e-002
2.499398e+003;5.156057e-002
2.501327e+003;5.155572e-002
2.503255e+003;5.183373e-002
2.505184e+003;5.181346e-002
2.507112e+003;5.156038e-002
2.509041e+003;5.173290e-002
2.510969e+003;5.208327e-002
2.512898e+003;5.217659e-002
2.514827e+003;5.233082e-002
2.516755e+003;5.241246e-002
2.518684e+003;5.257986e-002
2.520612e+003;5.296778e-002
2.522541e+003;5.306710e-002
2.524469e+003;5.297261e-002
2.526398e+003;5.277240e-002
2.528326e+003;5.271313e-002
2.530255e+003;5.291677e-002
2.532184e+003;5.305471e-002
2.534112e+003;5.327592e-002
2.536041e+003;5.329221e-002
2.537969e+003;5.305751e-002
2.539898e+003;5.294570e-002
2.541826e+003;5.298470e-002
2.543755e+003;5.299092e-002
2.545683e+003;5.314112e-002
2.547612e+003;5.349162e-002
2.549541e+003;5.368988e-002
2.551469e+003;5.346696e-002
2.553397e+003;5.325648e-002
2.555326e+003;5.322861e-002
2.557255e+003;5.331967e-002
2.559183e+003;5.348668e-002
2.561112e+003;5.371530e-002
2.563040e+003;5.400660e-002
2.564969e+003;5.412950e-002
2.566897e+003;5.383092e-002
2.568826e+003;5.334893e-002
2.570754e+003;5.339303e-002
2.572683e+003;5.385493e-002
2.574612e+003;5.402664e-002
2.576540e+003;5.428754e-002
2.578469e+003;5.455972e-002
2.580397e+003;5.470920e-002
2.582326e+003;5.471130e-002
2.584254e+003;5.470634e-002
2.586183e+003;5.469364e-002
2.588111e+003;5.482575e-002
2.590040e+003;5.496103e-002
2.591969e+003;5.485027e-002
2.593897e+003;5.481681e-002
2.595826e+003;5.484181e-002
2.597754e+003;5.489925e-002
2.599683e+003;5.510990e-002
2.601611e+003;5.530092e-002
2.603540e+003;5.539946e-002
2.605468e+003;5.557441e-002
2.607397e+003;5.580381e-002
2.609325e+003;5.603012e-002
2.611254e+003;5.601244e-002
2.613183e+003;5.586436e-002
2.615111e+003;5.591972e-002
2.617040e+003;5.624082e-002
2.618968e+003;5.628732e-002
2.620897e+003;5.604067e-002
2.622825e+003;5.631169e-002
2.624754e+003;5.671432e-002
2.626682e+003;5.720899e-002
2.628611e+003;5.776291e-002
2.630540e+003;5.772242e-002
2.632468e+003;5.751504e-002
2.634396e+003;5.755737e-002
2.636325e+003;5.795806e-002
2.638254e+003;5.814068e-002
2.640182e+003;5.819118e-002
2.642111e+003;5.843246e-002
2.644039e+003;5.873296e-002
2.645968e+003;5.892384e-002
2.647896e+003;5.881714e-002
2.649825e+003;5.852003e-002
2.651753e+003;5.871104e-002
2.653682e+003;5.912711e-002
2.655611e+003;5.917536e-002
2.657539e+003;5.924968e-002
2.659468e+003;5.951309e-002
2.661396e+003;5.974142e-002
2.663325e+003;5.988813e-002
2.665253e+003;6.007290e-002
2.667182e+003;6.011753e-002
2.669110e+003;6.014995e-002
2.671039e+003;6.027586e-002
2.672968e+003;6.029782e-002
2.674896e+003;6.008324e-002
2.676825e+003;6.007438e-002
2.678753e+003;6.062378e-002
2.680682e+003;6.110457e-002
2.682610e+003;6.130363e-002
2.684539e+003;6.157139e-002
2.686467e+003;6.162236e-002
2.688396e+003;6.147858e-002
2.690324e+003;6.169332e-002
2.692253e+003;6.196693e-002
2.694182e+003;6.198971e-002
2.696110e+003;6.216275e-002
2.698039e+003;6.230821e-002
2.699967e+003;6.247997e-002
2.701896e+003;6.261536e-002
2.703824e+003;6.267626e-002
2.705753e+003;6.291441e-002
2.707681e+003;6.331624e-002
2.709610e+003;6.342658e-002
2.711539e+003;6.365383e-002
2.713467e+003;6.371058e-002
2.715396e+003;6.365955e-002
2.717324e+003;6.364424e-002
2.719253e+003;6.376606e-002
2.721181e+003;6.412309e-002
2.723110e+003;6.427313e-002
2.725038e+003;6.411318e-002
2.726967e+003;6.424931e-002
2.728896e+003;6.464995e-002
2.730824e+003;6.459808e-002
2.732752e+003;6.466714e-002
2.734681e+003;6.485607e-002
2.736610e+003;6.462415e-002
2.738538e+003;6.478833e-002
2.740467e+003;6.506344e-002
2.742395e+003;6.512748e-002
2.744324e+003;6.518593e-002
2.746252e+003;6.525943e-002
2.748181e+003;6.525419e-002
2.750109e+003;6.519436e-002
2.752038e+003;6.545328e-002
2.753967e+003;6.580333e-002
2.755895e+003;6.576516e-002
2.757824e+003;6.577723e-002
2.759752e+003;6.606527e-002
2.761681e+003;6.630270e-002
2.763609e+003;6.669957e-002
2.765538e+003;6.687083e-002
2.767466e+003;6.667449e-002
2.769395e+003;6.652568e-002
2.771323e+003;6.647053e-002
2.773252e+003;6.660253e-002
2.775181e+003;6.695320e-002
2.777109e+003;6.708949e-002
2.779038e+003;6.710105e-002
2.780966e+003;6.711145e-002
2.782895e+003;6.741992e-002
2.784823e+003;6.794132e-002
2.786752e+003;6.820358e-002
2.788680e+003;6.828047e-002
2.790609e+003;6.849363e-002
2.792538e+003;6.912670e-002
2.794466e+003;6.953728e-002
2.796395e+003;6.952822e-002
2.798323e+003;6.933896e-002
2.800252e+003;6.951664e-002
2.802180e+003;7.001680e-002
2.804109e+003;7.052682e-002
2.806037e+003;7.062092e-002
2.807966e+003;7.036038e-002
2.809895e+003;7.048184e-002
2.811823e+003;7.095713e-002
2.813751e+003;7.157952e-002
2.815680e+003;7.212564e-002
2.817609e+003;7.267433e-002
2.819537e+003;7.323600e-002
2.821466e+003;7.337678e-002
2.823394e+003;7.391339e-002
2.825323e+003;7.461773e-002
2.827251e+003;7.521650e-002
2.829180e+003;7.559845e-002
2.831108e+003;7.574450e-002
2.833037e+003;7.658183e-002
2.834966e+003;7.779563e-002
2.836894e+003;7.850856e-002
2.838823e+003;7.897937e-002
2.840751e+003;7.965807e-002
2.842680e+003;8.053082e-002
2.844608e+003;8.158386e-002
2.846537e+003;8.237436e-002
2.848465e+003;8.304933e-002
2.850394e+003;8.383664e-002
2.852323e+003;8.460401e-002
2.854251e+003;8.573528e-002
2.856180e+003;8.684868e-002
2.858108e+003;8.777772e-002
2.860037e+003;8.851390e-002
2.861965e+003;8.946938e-002
2.863894e+003;9.036434e-002
2.865822e+003;9.094340e-002
2.867751e+003;9.166259e-002
2.869679e+003;9.202977e-002
2.871608e+003;9.238716e-002
2.873536e+003;9.304839e-002
2.875465e+003;9.381319e-002
2.877394e+003;9.465531e-002
2.879322e+003;9.497380e-002
2.881251e+003;9.501165e-002
2.883179e+003;9.538724e-002
2.885108e+003;9.567938e-002
2.887036e+003;9.595031e-002
2.888965e+003;9.656539e-002
2.890893e+003;9.694941e-002
2.892822e+003;9.680259e-002
2.894750e+003;9.678992e-002
2.896679e+003;9.665843e-002
2.898608e+003;9.632911e-002
2.900536e+003;9.626739e-002
2.902465e+003;9.630739e-002
2.904393e+003;9.638909e-002
2.906322e+003;9.592316e-002
2.908250e+003;9.540152e-002
2.910179e+003;9.527495e-002
2.912107e+003;9.475181e-002
2.914036e+003;9.415119e-002
2.915965e+003;9.373728e-002
2.917893e+003;9.340495e-002
2.919822e+003;9.330500e-002
2.921750e+003;9.297553e-002
2.923679e+003;9.239675e-002
2.925607e+003;9.172946e-002
2.927536e+003;9.129275e-002
2.929464e+003;9.131013e-002
2.931393e+003;9.124827e-002
2.933322e+003;9.065194e-002
2.935250e+003;9.007967e-002
2.937178e+003;8.989093e-002
2.939107e+003;8.954772e-002
2.941036e+003;8.917642e-002
2.942964e+003;8.822946e-002
2.944893e+003;8.687710e-002
2.946821e+003;8.620514e-002
2.948750e+003;8.566517e-002
2.950678e+003;8.475917e-002
2.952607e+003;8.377407e-002
2.954535e+003;8.264489e-002
2.956464e+003;8.142523e-002
2.958393e+003;8.051172e-002
2.960321e+003;8.005227e-002
2.962250e+003;7.953987e-002
2.964178e+003;7.885134e-002
2.966107e+003;7.792323e-002
2.968035e+003;7.713713e-002
2.969964e+003;7.672975e-002
2.971892e+003;7.636423e-002
2.973821e+003;7.589423e-002
2.975750e+003;7.547299e-002
2.977678e+003;7.457350e-002
2.979607e+003;7.351141e-002
2.981535e+003;7.313557e-002
2.983464e+003;7.282763e-002
2.985392e+003;7.273305e-002
2.987321e+003;7.300732e-002
2.989249e+003;7.266489e-002
2.991178e+003;7.176702e-002
2.993106e+003;7.140373e-002
2.995035e+003;7.155998e-002
2.996964e+003;7.142123e-002
2.998892e+003;7.096228e-002
3.000821e+003;7.058720e-002
3.002749e+003;7.029481e-002
3.004678e+003;7.023954e-002
3.006606e+003;7.038075e-002
3.008535e+003;7.057343e-002
3.010463e+003;7.036193e-002
3.012392e+003;6.986620e-002
3.014321e+003;6.982157e-002
3.016249e+003;6.999562e-002
3.018177e+003;7.021574e-002
3.020106e+003;7.038839e-002
3.022035e+003;7.023709e-002
3.023963e+003;7.010631e-002
3.025892e+003;7.021605e-002
3.027820e+003;7.062041e-002
3.029749e+003;7.090244e-002
3.031677e+003;7.107446e-002
3.033606e+003;7.104535e-002
3.035534e+003;7.103252e-002
3.037463e+003;7.107279e-002
3.039392e+003;7.136992e-002
3.041320e+003;7.154943e-002
3.043249e+003;7.169155e-002
3.045177e+003;7.185779e-002
3.047106e+003;7.207099e-002
3.049034e+003;7.241613e-002
3.050963e+003;7.292274e-002
3.052891e+003;7.346122e-002
3.054820e+003;7.379285e-002
3.056749e+003;7.386932e-002
3.058677e+003;7.404575e-002
3.060606e+003;7.445817e-002
3.062534e+003;7.455242e-002
3.064463e+003;7.484847e-002
3.066391e+003;7.521851e-002
3.068320e+003;7.518802e-002
3.070248e+003;7.509450e-002
3.072177e+003;7.551719e-002
3.074105e+003;7.610015e-002
3.076034e+003;7.663824e-002
3.077963e+003;7.694109e-002
3.079891e+003;7.728461e-002
3.081820e+003;7.731724e-002
3.083748e+003;7.745693e-002
3.085677e+003;7.778763e-002
3.087605e+003;7.799155e-002
3.089534e+003;7.852897e-002
3.091462e+003;7.880399e-002
3.093391e+003;7.864491e-002
3.095320e+003;7.917316e-002
3.097248e+003;7.983556e-002
3.099177e+003;8.049130e-002
3.101105e+003;8.119909e-002
3.103034e+003;8.140162e-002
3.104962e+003;8.190698e-002
3.106891e+003;8.252820e-002
3.108819e+003;8.282345e-002
3.110748e+003;8.277289e-002
3.112677e+003;8.308848e-002
3.114605e+003;8.369347e-002
3.116533e+003;8.401134e-002
3.118462e+003;8.405895e-002
3.120391e+003;8.418563e-002
3.122319e+003;8.479594e-002
3.124248e+003;8.541659e-002
3.126176e+003;8.561634e-002
3.128105e+003;8.575949e-002
3.130033e+003;8.604220e-002
3.131962e+003;8.638597e-002
3.133890e+003;8.705176e-002
3.135819e+003;8.788253e-002
3.137748e+003;8.855124e-002
3.139676e+003;8.896852e-002
3.141605e+003;8.944569e-002
3.143533e+003;8.991189e-002
3.145462e+003;9.017908e-002
3.147390e+003;9.028377e-002
3.149319e+003;9.025551e-002
3.151247e+003;9.039274e-002
3.153176e+003;9.104453e-002
3.155104e+003;9.196015e-002
3.157033e+003;9.279494e-002
3.158962e+003;9.305332e-002
3.160890e+003;9.314081e-002
3.162819e+003;9.371993e-002
3.164747e+003;9.422602e-002
3.166676e+003;9.461971e-002
3.168604e+003;9.521310e-002
3.170533e+003;9.582978e-002
3.172461e+003;9.651130e-002
3.174390e+003;9.719257e-002
3.176319e+003;9.794819e-002
3.178247e+003;9.833878e-002
3.180176e+003;9.868877e-002
3.182104e+003;9.924973e-002
3.184033e+003;9.981588e-002
3.185961e+003;1.001619e-001
3.187890e+003;1.005176e-001
3.189818e+003;1.013925e-001
3.191747e+003;1.021065e-001
3.193676e+003;1.024301e-001
3.195604e+003;1.027605e-001
3.197532e+003;1.033769e-001
3.199461e+003;1.037404e-001
3.201390e+003;1.041728e-001
3.203318e+003;1.047555e-001
3.205247e+003;1.055224e-001
3.207175e+003;1.063483e-001
3.209104e+003;1.069234e-001
3.211032e+003;1.072903e-001
3.212961e+003;1.077268e-001
3.214889e+003;1.083139e-001
3.216818e+003;1.091478e-001
3.218747e+003;1.096612e-001
3.220675e+003;1.099003e-001
3.222604e+003;1.106092e-001
3.224532e+003;1.114297e-001
3.226461e+003;1.119531e-001
3.228389e+003;1.123916e-001
3.230318e+003;1.126124e-001
3.232246e+003;1.133346e-001
3.234175e+003;1.142615e-001
3.236104e+003;1.148819e-001
3.238032e+003;1.153274e-001
3.239961e+003;1.158471e-001
3.241889e+003;1.167575e-001
3.243818e+003;1.176292e-001
3.245746e+003;1.183339e-001
3.247675e+003;1.186163e-001
3.249603e+003;1.191371e-001
3.251532e+003;1.200738e-001
3.253460e+003;1.207707e-001
3.255389e+003;1.214814e-001
3.257318e+003;1.220269e-001
3.259246e+003;1.223067e-001
3.261175e+003;1.228622e-001
3.263103e+003;1.233465e-001
3.265032e+003;1.239826e-001
3.266960e+003;1.243619e-001
3.268889e+003;1.245721e-001
3.270817e+003;1.247015e-001
3.272746e+003;1.252425e-001
3.274675e+003;1.262152e-001
3.276603e+003;1.267574e-001
3.278531e+003;1.270759e-001
3.280460e+003;1.279448e-001
3.282389e+003;1.284464e-001
3.284317e+003;1.285552e-001
3.286246e+003;1.290346e-001
3.288174e+003;1.290442e-001
3.290103e+003;1.291186e-001
3.292031e+003;1.293724e-001
3.293960e+003;1.296491e-001
3.295888e+003;1.298826e-001
3.297817e+003;1.300542e-001
3.299746e+003;1.301466e-001
3.301674e+003;1.305085e-001
3.303603e+003;1.307923e-001
3.305531e+003;1.307168e-001
3.307460e+003;1.306178e-001
3.309388e+003;1.310986e-001
3.311317e+003;1.315063e-001
3.313245e+003;1.315760e-001
3.315174e+003;1.317617e-001
3.317103e+003;1.323043e-001
3.319031e+003;1.323779e-001
3.320960e+003;1.324838e-001
3.322888e+003;1.330947e-001
3.324817e+003;1.332666e-001
3.326745e+003;1.333985e-001
3.328674e+003;1.332924e-001
3.330602e+003;1.327345e-001
3.332531e+003;1.325908e-001
3.334459e+003;1.329261e-001
3.336388e+003;1.330922e-001
3.338317e+003;1.331504e-001
3.340245e+003;1.328427e-001
3.342174e+003;1.327308e-001
3.344102e+003;1.329041e-001
3.346031e+003;1.328193e-001
3.347959e+003;1.324600e-001
3.349888e+003;1.320065e-001
3.351816e+003;1.311658e-001
3.353745e+003;1.306854e-001
3.355674e+003;1.311415e-001
3.357602e+003;1.312506e-001
3.359531e+003;1.300154e-001
3.361459e+003;1.294053e-001
3.363388e+003;1.297645e-001
3.365316e+003;1.294971e-001
3.367245e+003;1.290167e-001
3.369173e+003;1.289813e-001
3.371102e+003;1.290840e-001
3.373031e+003;1.290883e-001
3.374959e+003;1.285808e-001
3.376887e+003;1.277749e-001
3.378816e+003;1.276637e-001
3.380745e+003;1.278315e-001
3.382673e+003;1.274875e-001
3.384602e+003;1.271986e-001
3.386530e+003;1.271571e-001
3.388459e+003;1.269305e-001
3.390387e+003;1.266392e-001
3.392316e+003;1.262706e-001
3.394244e+003;1.255381e-001
3.396173e+003;1.249985e-001
3.398102e+003;1.245474e-001
3.400030e+003;1.246597e-001
3.401959e+003;1.243770e-001
3.403887e+003;1.240715e-001
3.405816e+003;1.238143e-001
3.407744e+003;1.229218e-001
3.409673e+003;1.222016e-001
3.411601e+003;1.220727e-001
3.413530e+003;1.222576e-001
3.415458e+003;1.215946e-001
3.417387e+003;1.204908e-001
3.419316e+003;1.196297e-001
3.421244e+003;1.192350e-001
3.423173e+003;1.186039e-001
3.425101e+003;1.177014e-001
3.427030e+003;1.168940e-001
3.428958e+003;1.165784e-001
3.430887e+003;1.163132e-001
3.432815e+003;1.153415e-001
3.434744e+003;1.149008e-001
3.436673e+003;1.150567e-001
3.438601e+003;1.142048e-001
3.440530e+003;1.129262e-001
3.442458e+003;1.125666e-001
3.444387e+003;1.126163e-001
3.446315e+003;1.120445e-001
3.448244e+003;1.108984e-001
3.450172e+003;1.101741e-001
3.452101e+003;1.096007e-001
3.454030e+003;1.089155e-001
3.455958e+003;1.086013e-001
3.457886e+003;1.078732e-001
3.459815e+003;1.067215e-001
3.461744e+003;1.060849e-001
3.463672e+003;1.056830e-001
3.465601e+003;1.043294e-001
3.467529e+003;1.033052e-001
3.469458e+003;1.025624e-001
3.471386e+003;1.019889e-001
3.473315e+003;1.017586e-001
3.475243e+003;1.011647e-001
3.477172e+003;1.005726e-001
3.479101e+003;9.988330e-002
3.481029e+003;9.888107e-002
3.482958e+003;9.803376e-002
3.484886e+003;9.735494e-002
3.486815e+003;9.652331e-002
3.488743e+003;9.549513e-002
3.490672e+003;9.474868e-002
3.492600e+003;9.453332e-002
3.494529e+003;9.397776e-002
3.496458e+003;9.326031e-002
3.498386e+003;9.245016e-002
3.500315e+003;9.118687e-002
3.502243e+003;8.994645e-002
3.504172e+003;8.925267e-002
3.506100e+003;8.909807e-002
3.508029e+003;8.797864e-002
3.509957e+003;8.662212e-002
3.511886e+003;8.640869e-002
3.513814e+003;8.573326e-002
3.515743e+003;8.467415e-002
3.517672e+003;8.394509e-002
3.519600e+003;8.338764e-002
3.521529e+003;8.290016e-002
3.523457e+003;8.172653e-002
3.525386e+003;8.063797e-002
3.527314e+003;8.009323e-002
3.529243e+003;7.950174e-002
3.531171e+003;7.883243e-002
3.533100e+003;7.783233e-002
3.535029e+003;7.708118e-002
3.536957e+003;7.646280e-002
3.538885e+003;7.570912e-002
3.540814e+003;7.465192e-002
3.542743e+003;7.353967e-002
3.544671e+003;7.240270e-002
3.546600e+003;7.157307e-002
3.548528e+003;7.132512e-002
3.550457e+003;7.123532e-002
3.552385e+003;7.050191e-002
3.554314e+003;6.943222e-002
3.556242e+003;6.838350e-002
3.558171e+003;6.709444e-002
3.560100e+003;6.633505e-002
3.562028e+003;6.589672e-002
3.563957e+003;6.491628e-002
3.565885e+003;6.424239e-002
3.567814e+003;6.415650e-002
3.569742e+003;6.408223e-002
3.571671e+003;6.320681e-002
3.573599e+003;6.239657e-002
3.575528e+003;6.210702e-002
3.577457e+003;6.139556e-002
3.579385e+003;6.014059e-002
3.581314e+003;5.946301e-002
3.583242e+003;5.883619e-002
3.585171e+003;5.807795e-002
3.587099e+003;5.770985e-002
3.589028e+003;5.715505e-002
3.590956e+003;5.598978e-002
3.592885e+003;5.471171e-002
3.594813e+003;5.445814e-002
3.596742e+003;5.432035e-002
3.598671e+003;5.371212e-002
3.600599e+003;5.330034e-002
3.602528e+003;5.277815e-002
3.604456e+003;5.267580e-002
3.606385e+003;5.252855e-002
3.608313e+003;5.151591e-002
3.610242e+003;5.057455e-002
3.612170e+003;5.022562e-002
3.614099e+003;4.983197e-002
3.616028e+003;4.951286e-002
3.617956e+003;4.905140e-002
3.619885e+003;4.848739e-002
3.621813e+003;4.814272e-002
3.623742e+003;4.827460e-002
3.625670e+003;4.793147e-002
3.627599e+003;4.675719e-002
3.629527e+003;4.591491e-002
3.631456e+003;4.595409e-002
3.633385e+003;4.544964e-002
3.635313e+003;4.480813e-002
3.637241e+003;4.433443e-002
3.639170e+003;4.382207e-002
3.641099e+003;4.324896e-002
3.643027e+003;4.288168e-002
3.644956e+003;4.265861e-002
3.646884e+003;4.172289e-002
3.648813e+003;4.049738e-002
3.650741e+003;4.037442e-002
3.652670e+003;4.008213e-002
3.654598e+003;3.916384e-002
3.656527e+003;3.858919e-002
3.658456e+003;3.814693e-002
3.660384e+003;3.749545e-002
3.662313e+003;3.709472e-002
3.664241e+003;3.609752e-002
3.666170e+003;3.481491e-002
3.668098e+003;3.434803e-002
3.670027e+003;3.411400e-002
3.671955e+003;3.369084e-002
3.673884e+003;3.310801e-002
3.675813e+003;3.204766e-002
3.677741e+003;3.113543e-002
3.679669e+003;3.074258e-002
3.681598e+003;3.063949e-002
3.683527e+003;3.043943e-002
3.685455e+003;3.022280e-002
3.687384e+003;2.952365e-002
3.689312e+003;2.863482e-002
3.691241e+003;2.872143e-002
3.693169e+003;2.896090e-002
3.695098e+003;2.888048e-002
3.697026e+003;2.846416e-002
3.698955e+003;2.797564e-002
3.700884e+003;2.772658e-002
3.702812e+003;2.732579e-002
3.704741e+003;2.687162e-002
3.706669e+003;2.688431e-002
3.708598e+003;2.686150e-002
3.710526e+003;2.629124e-002
3.712455e+003;2.566570e-002
3.714383e+003;2.566872e-002
3.716312e+003;2.565438e-002
3.718240e+003;2.520360e-002
3.720169e+003;2.521680e-002
3.722098e+003;2.568619e-002
3.724026e+003;2.535318e-002
3.725955e+003;2.479840e-002
3.727883e+003;2.482303e-002
3.729812e+003;2.484492e-002
3.731740e+003;2.460515e-002
3.733669e+003;2.468605e-002
3.735597e+003;2.392772e-002
3.737526e+003;2.313458e-002
3.739455e+003;2.376695e-002
3.741383e+003;2.445471e-002
3.743312e+003;2.387979e-002
3.745240e+003;2.358811e-002
3.747169e+003;2.405791e-002
3.749097e+003;2.379631e-002
3.751026e+003;2.341987e-002
3.752954e+003;2.366123e-002
3.754883e+003;2.393332e-002
3.756812e+003;2.444465e-002
3.758740e+003;2.436915e-002
3.760668e+003;2.343820e-002
3.762597e+003;2.322968e-002
3.764526e+003;2.334291e-002
3.766454e+003;2.324390e-002
3.768383e+003;2.354592e-002
3.770311e+003;2.381927e-002
3.772240e+003;2.387048e-002
3.774168e+003;2.397625e-002
3.776097e+003;2.362292e-002
3.778025e+003;2.342697e-002
3.779954e+003;2.354180e-002
3.781883e+003;2.353987e-002
3.783811e+003;2.337116e-002
3.785740e+003;2.360525e-002
3.787668e+003;2.368628e-002
3.789597e+003;2.375757e-002
3.791525e+003;2.367803e-002
3.793454e+003;2.355739e-002
3.795382e+003;2.377475e-002
3.797311e+003;2.396753e-002
3.799240e+003;2.374444e-002
3.801168e+003;2.313356e-002
3.803097e+003;2.318221e-002
3.805025e+003;2.338274e-002
3.806954e+003;2.340214e-002
3.808882e+003;2.369034e-002
3.810811e+003;2.401806e-002
3.812739e+003;2.446144e-002
3.814668e+003;2.404867e-002
3.816596e+003;2.397916e-002
3.818525e+003;2.424066e-002
3.820454e+003;2.330019e-002
3.822382e+003;2.312539e-002
3.824311e+003;2.411290e-002
3.826239e+003;2.463710e-002
3.828168e+003;2.458243e-002
3.830096e+003;2.434368e-002
3.832025e+003;2.391484e-002
3.833953e+003;2.369360e-002
3.835882e+003;2.323157e-002
3.837811e+003;2.301679e-002
3.839739e+003;2.364951e-002
3.841667e+003;2.404128e-002
3.843596e+003;2.416821e-002
3.845525e+003;2.437336e-002
3.847453e+003;2.420166e-002
3.849382e+003;2.391900e-002
3.851310e+003;2.352067e-002
3.853239e+003;2.293232e-002
3.855167e+003;2.326331e-002
3.857096e+003;2.431613e-002
3.859024e+003;2.491261e-002
3.860953e+003;2.492054e-002
3.862882e+003;2.473284e-002
3.864810e+003;2.472134e-002
3.866739e+003;2.462247e-002
3.868667e+003;2.442467e-002
3.870596e+003;2.459999e-002
3.872524e+003;2.508925e-002
3.874453e+003;2.488524e-002
3.876381e+003;2.500252e-002
3.878310e+003;2.575854e-002
3.880239e+003;2.568046e-002
3.882167e+003;2.548292e-002
3.884096e+003;2.588369e-002
3.886024e+003;2.578572e-002
3.887953e+003;2.607298e-002
3.889881e+003;2.621346e-002
3.891810e+003;2.586959e-002
3.893738e+003;2.593666e-002
3.895667e+003;2.597314e-002
3.897595e+003;2.582507e-002
3.899524e+003;2.631156e-002
3.901453e+003;2.690133e-002
3.903381e+003;2.681061e-002
3.905310e+003;2.707413e-002
3.907238e+003;2.776112e-002
3.909167e+003;2.775331e-002
3.911095e+003;2.723921e-002
3.913024e+003;2.713406e-002
3.914952e+003;2.725512e-002
3.916881e+003;2.734350e-002
3.918810e+003;2.703080e-002
3.920738e+003;2.712601e-002
3.922667e+003;2.742160e-002
3.924595e+003;2.734294e-002
3.926524e+003;2.782915e-002
3.928452e+003;2.797790e-002
3.930381e+003;2.782046e-002
3.932309e+003;2.793907e-002
3.934238e+003;2.800695e-002
3.936167e+003;2.822892e-002
3.938095e+003;2.849253e-002
3.940023e+003;2.849080e-002
3.941952e+003;2.826831e-002
3.943881e+003;2.808885e-002
3.945809e+003;2.828606e-002
3.947738e+003;2.868476e-002
3.949666e+003;2.925987e-002
3.951595e+003;2.950851e-002
3.953523e+003;2.925122e-002
3.955452e+003;2.911008e-002
3.957380e+003;2.852179e-002
3.959309e+003;2.823433e-002
3.961238e+003;2.899307e-002
3.963166e+003;2.942734e-002
3.965095e+003;2.931060e-002
3.967023e+003;2.929213e-002
3.968952e+003;2.949347e-002
3.970880e+003;2.963648e-002
3.972809e+003;2.977180e-002
3.974737e+003;2.978404e-002
3.976666e+003;2.974469e-002
3.978594e+003;2.965571e-002
3.980523e+003;2.994709e-002
3.982452e+003;3.024554e-002
3.984380e+003;2.973578e-002
3.986309e+003;2.932984e-002
3.988237e+003;2.946081e-002
3.990166e+003;2.971581e-002
3.992094e+003;2.988104e-002
3.994023e+003;2.977354e-002
3.995951e+003;2.977978e-002
3.997880e+003;3.023118e-002
3.999809e+003;3.041228e-002
4.001737e+003;0.000000e+000
