3.992094e+002;0.000000e+000
4.011380e+002;0.000000e+000
4.030665e+002;0.000000e+000
4.049951e+002;0.000000e+000
4.069236e+002;0.000000e+000
4.088522e+002;0.000000e+000
4.107807e+002;0.000000e+000
4.127093e+002;0.000000e+000
4.146378e+002;0.000000e+000
4.165664e+002;0.000000e+000
4.184949e+002;0.000000e+000
4.204235e+002;0.000000e+000
4.223520e+002;0.000000e+000
4.242806e+002;0.000000e+000
4.262091e+002;0.000000e+000
4.281377e+002;0.000000e+000
4.300662e+002;0.000000e+000
4.319948e+002;0.000000e+000
4.339233e+002;0.000000e+000
4.358519e+002;0.000000e+000
4.377804e+002;0.000000e+000
4.397090e+002;0.000000e+000
4.416375e+002;0.000000e+000
4.435660e+002;0.000000e+000
4.454946e+002;0.000000e+000
4.474232e+002;0.000000e+000
4.493517e+002;0.000000e+000
4.512802e+002;0.000000e+000
4.532088e+002;0.000000e+000
4.551373e+002;0.000000e+000
4.570659e+002;0.000000e+000
4.589944e+002;0.000000e+000
4.609230e+002;0.000000e+000
4.628515e+002;0.000000e+000
4.647801e+002;0.000000e+000
4.667086e+002;0.000000e+000
4.686372e+002;0.000000e+000
4.705657e+002;0.000000e+000
4.724943e+002;0.000000e+000
4.744228e+002;0.000000e+000
4.763513e+002;0.000000e+000
4.782799e+002;0.000000e+000
4.802085e+002;0.000000e+000
4.821370e+002;0.000000e+000
4.840656e+002;0.000000e+000
4.859941e+002;0.000000e+000
4.879226e+002;0.000000e+000
4.898512e+002;0.000000e+000
4.917798e+002;0.000000e+000
4.937083e+002;0.000000e+000
4.956368e+002;0.000000e+000
4.975654e+002;0.000000e+000
4.994939e+002;0.000000e+000
5.014225e+002;0.000000e+000
5.033510e+002;0.000000e+000
5.052796e+002;0.000000e+000
5.072081e+002;0.000000e+000
5.091367e+002;0.000000e+000
5.110652e+002;0.000000e+000
5.129938e+002;0.000000e+000
5.149223e+002;0.000000e+000
5.168509e+002;0.000000e+000
5.187794e+002;0.000000e+000
5.207079e+002;0.000000e+000
5.226365e+002;0.000000e+000
5.245651e+002;0.000000e+000
5.264936e+002;0.000000e+000
5.284222e+002;0.000000e+000
5.303507e+002;0.000000e+000
5.322792e+002;0.000000e+000
5.342078e+002;0.000000e+000
5.361364e+002;0.000000e+000
5.380649e+002;0.000000e+000
5.399935e+002;0.000000e+000
5.419220e+002;0.000000e+000
5.438505e+002;0.000000e+000
5.457791e+002;0.000000e+000
5.477076e+002;0.000000e+000
5.496362e+002;0.000000e+000
5.515648e+002;0.000000e+000
5.534933e+002;0.000000e+000
5.554218e+002;0.000000e+000
5.573504e+002;0.000000e+000
5.592789e+002;0.000000e+000
5.612075e+002;0.000000e+000
5.631360e+002;0.000000e+000
5.650646e+002;0.000000e+000
5.669931e+002;0.000000e+000
5.689217e+002;0.000000e+000
5.708502e+002;0.000000e+000
5.727787e+002;0.000000e+000
5.747073e+002;0.000000e+000
5.766359e+002;0.000000e+000
5.785644e+002;0.000000e+000
5.804930e+002;0.000000e+000
5.824215e+002;0.000000e+000
5.843500e+002;0.000000e+000
5.862786e+002;0.000000e+000
5.882072e+002;0.000000e+000
5.901357e+002;0.000000e+000
5.920643e+002;0.000000e+000
5.939928e+002;0.000000e+000
5.959213e+002;0.000000e+000
5.978499e+002;0.000000e+000
5.997784e+002;2.460174e-001
6.017070e+002;2.494025e-001
6.036355e+002;2.504502e-001
6.055641e+002;2.444469e-001
6.074926e+002;2.400983e-001
6.094211e+002;2.420197e-001
6.113497e+002;2.429699e-001
6.132783e+002;2.387083e-001
6.152068e+002;2.385468e-001
6.171354e+002;2.474415e-001
6.190639e+002;2.472506e-001
6.209924e+002;2.426471e-001
6.229210e+002;2.403336e-001
6.248495e+002;2.316262e-001
6.267781e+002;2.260883e-001
6.287067e+002;2.220571e-001
6.306352e+002;2.216876e-001
6.325637e+002;2.217250e-001
6.344923e+002;2.216098e-001
6.364208e+002;2.222673e-001
6.383494e+002;2.215707e-001
6.402780e+002;2.216598e-001
6.422065e+002;2.219604e-001
6.441350e+002;2.157113e-001
6.460636e+002;2.097933e-001
6.479921e+002;2.092361e-001
6.499207e+002;2.136861e-001
6.518492e+002;2.172592e-001
6.537778e+002;2.162010e-001
6.557063e+002;2.165528e-001
6.576349e+002;2.183792e-001
6.595634e+002;2.225656e-001
6.614919e+002;2.260292e-001
6.634205e+002;2.252661e-001
6.653491e+002;2.248577e-001
6.672776e+002;2.257644e-001
6.692062e+002;2.239714e-001
6.711347e+002;2.173774e-001
6.730632e+002;2.114738e-001
6.749918e+002;2.074307e-001
6.769203e+002;2.053768e-001
6.788489e+002;2.022665e-001
6.807775e+002;1.991605e-001
6.827060e+002;1.969759e-001
6.846345e+002;1.944595e-001
6.865631e+002;1.914375e-001
6.884916e+002;1.906235e-001
6.904202e+002;1.901189e-001
6.923488e+002;1.890333e-001
6.942773e+002;1.896030e-001
6.962058e+002;1.889067e-001
6.981344e+002;1.859230e-001
7.000629e+002;1.842858e-001
7.019915e+002;1.852646e-001
7.039200e+002;1.857499e-001
7.058486e+002;1.840023e-001
7.077771e+002;1.817910e-001
7.097057e+002;1.807323e-001
7.116342e+002;1.792646e-001
7.135627e+002;1.765694e-001
7.154913e+002;1.761200e-001
7.174199e+002;1.741648e-001
7.193484e+002;1.718395e-001
7.212770e+002;1.711533e-001
7.232055e+002;1.696711e-001
7.251340e+002;1.675319e-001
7.270626e+002;1.658455e-001
7.289911e+002;1.641113e-001
7.309197e+002;1.623073e-001
7.328483e+002;1.596835e-001
7.347768e+002;1.575153e-001
7.367053e+002;1.565969e-001
7.386339e+002;1.548551e-001
7.405624e+002;1.520827e-001
7.424910e+002;1.510913e-001
7.444196e+002;1.520251e-001
7.463481e+002;1.515399e-001
7.482766e+002;1.501346e-001
7.502052e+002;1.493444e-001
7.521337e+002;1.483205e-001
7.540623e+002;1.463242e-001
7.559908e+002;1.449641e-001
7.579194e+002;1.441420e-001
7.598479e+002;1.437084e-001
7.617765e+002;1.430997e-001
7.637050e+002;1.422148e-001
7.656335e+002;1.415784e-001
7.675621e+002;1.407992e-001
7.694907e+002;1.403694e-001
7.714192e+002;1.388495e-001
7.733478e+002;1.373137e-001
7.752763e+002;1.366882e-001
7.772048e+002;1.363006e-001
7.791334e+002;1.359053e-001
7.810620e+002;1.349995e-001
7.829905e+002;1.340659e-001
7.849191e+002;1.329079e-001
7.868476e+002;1.320075e-001
7.887761e+002;1.325528e-001
7.907047e+002;1.326040e-001
7.926332e+002;1.313931e-001
7.945618e+002;1.303184e-001
7.964903e+002;1.305617e-001
7.984189e+002;1.310860e-001
8.003474e+002;1.313753e-001
8.022759e+002;1.311678e-001
8.042045e+002;1.313477e-001
8.061331e+002;1.314965e-001
8.080616e+002;1.306601e-001
8.099902e+002;1.311514e-001
8.119187e+002;1.326701e-001
8.138472e+002;1.332102e-001
8.157758e+002;1.337530e-001
8.177043e+002;1.347311e-001
8.196329e+002;1.359307e-001
8.215615e+002;1.360811e-001
8.234900e+002;1.358282e-001
8.254185e+002;1.365706e-001
8.273471e+002;1.366509e-001
8.292756e+002;1.360443e-001
8.312042e+002;1.357913e-001
8.331328e+002;1.361622e-001
8.350613e+002;1.358348e-001
8.369898e+002;1.353506e-001
8.389184e+002;1.353626e-001
8.408469e+002;1.349460e-001
8.427755e+002;1.348908e-001
8.447040e+002;1.350168e-001
8.466326e+002;1.344231e-001
8.485611e+002;1.343265e-001
8.504897e+002;1.339857e-001
8.524182e+002;1.326921e-001
8.543467e+002;1.327476e-001
8.562753e+002;1.337993e-001
8.582039e+002;1.345968e-001
8.601324e+002;1.353715e-001
8.620610e+002;1.362171e-001
8.639895e+002;1.374764e-001
8.659180e+002;1.392929e-001
8.678466e+002;1.410704e-001
8.697751e+002;1.438940e-001
8.717037e+002;1.470982e-001
8.736323e+002;1.495674e-001
8.755608e+002;1.512922e-001
8.774893e+002;1.537053e-001
8.794179e+002;1.567496e-001
8.813464e+002;1.595632e-001
8.832750e+002;1.621312e-001
8.852036e+002;1.649418e-001
8.871321e+002;1.686193e-001
8.890606e+002;1.725630e-001
8.909892e+002;1.754667e-001
8.929177e+002;1.778316e-001
8.948463e+002;1.798628e-001
8.967748e+002;1.803333e-001
8.987034e+002;1.797454e-001
9.006319e+002;1.786782e-001
9.025605e+002;1.763023e-001
9.044890e+002;1.737240e-001
9.064175e+002;1.722509e-001
9.083461e+002;1.710664e-001
9.102747e+002;1.697173e-001
9.122032e+002;1.687678e-001
9.141318e+002;1.682312e-001
9.160603e+002;1.679425e-001
9.179888e+002;1.681449e-001
9.199174e+002;1.685028e-001
9.218459e+002;1.687781e-001
9.237745e+002;1.697125e-001
9.257031e+002;1.708503e-001
9.276316e+002;1.714499e-001
9.295601e+002;1.723066e-001
9.314887e+002;1.737311e-001
9.334172e+002;1.750728e-001
9.353458e+002;1.773042e-001
9.372744e+002;1.800273e-001
9.392029e+002;1.821789e-001
9.411314e+002;1.852314e-001
9.430600e+002;1.892720e-001
9.449885e+002;1.935551e-001
9.469171e+002;1.986227e-001
9.488456e+002;2.037223e-001
9.507742e+002;2.092176e-001
9.527027e+002;2.149843e-001
9.546313e+002;2.206933e-001
9.565598e+002;2.269244e-001
9.584883e+002;2.330392e-001
9.604169e+002;2.386616e-001
9.623455e+002;2.446067e-001
9.642740e+002;2.510027e-001
9.662026e+002;2.568943e-001
9.681311e+002;2.629395e-001
9.700596e+002;2.701992e-001
9.719882e+002;2.775779e-001
9.739167e+002;2.847406e-001
9.758453e+002;2.925989e-001
9.777739e+002;3.012020e-001
9.797024e+002;3.098440e-001
9.816309e+002;3.185387e-001
9.835595e+002;3.262006e-001
9.854880e+002;3.323627e-001
9.874166e+002;3.381776e-001
9.893452e+002;3.425103e-001
9.912737e+002;3.453403e-001
9.932022e+002;3.482744e-001
9.951307e+002;3.511377e-001
9.970593e+002;3.544430e-001
9.989879e+002;3.583238e-001
1.000916e+003;3.624209e-001
1.002845e+003;3.669546e-001
1.004773e+003;3.713818e-001
1.006702e+003;3.757914e-001
1.008631e+003;3.803280e-001
1.010559e+003;3.854460e-001
1.012488e+003;3.912333e-001
1.014416e+003;3.967227e-001
1.016345e+003;4.012290e-001
1.018273e+003;4.052971e-001
1.020202e+003;4.087933e-001
1.022130e+003;4.115666e-001
1.024059e+003;4.137049e-001
1.025988e+003;4.152024e-001
1.027916e+003;4.161761e-001
1.029845e+003;4.160040e-001
1.031773e+003;4.154383e-001
1.033702e+003;4.140939e-001
1.035630e+003;4.120578e-001
1.037559e+003;4.086950e-001
1.039487e+003;4.047327e-001
1.041416e+003;4.009762e-001
1.043344e+003;3.968596e-001
1.045273e+003;3.930331e-001
1.047202e+003;3.904805e-001
1.049130e+003;3.876857e-001
1.051059e+003;3.824640e-001
1.052987e+003;3.770869e-001
1.054916e+003;3.714275e-001
1.056844e+003;3.649567e-001
1.058773e+003;3.580256e-001
1.060701e+003;3.500413e-001
1.062630e+003;3.419769e-001
1.064558e+003;3.340499e-001
1.066487e+003;3.261354e-001
1.068416e+003;3.190145e-001
1.070344e+003;3.128269e-001
1.072273e+003;3.071896e-001
1.074201e+003;3.017447e-001
1.076130e+003;2.968678e-001
1.078058e+003;2.932450e-001
1.079987e+003;2.893818e-001
1.081915e+003;2.852745e-001
1.083844e+003;2.815167e-001
1.085773e+003;2.788613e-001
1.087701e+003;2.770253e-001
1.089630e+003;2.756561e-001
1.091558e+003;2.746986e-001
1.093487e+003;2.729070e-001
1.095415e+003;2.709318e-001
1.097344e+003;2.695957e-001
1.099272e+003;2.683303e-001
1.101201e+003;2.657956e-001
1.103129e+003;2.622365e-001
1.105058e+003;2.578039e-001
1.106987e+003;2.526511e-001
1.108915e+003;2.471550e-001
1.110844e+003;2.410628e-001
1.112772e+003;2.354111e-001
1.114701e+003;2.287500e-001
1.116629e+003;2.209554e-001
1.118558e+003;2.143991e-001
1.120486e+003;2.089227e-001
1.122415e+003;2.039774e-001
1.124344e+003;1.985336e-001
1.126272e+003;1.928030e-001
1.128201e+003;1.877789e-001
1.130129e+003;1.835446e-001
1.132058e+003;1.794764e-001
1.133986e+003;1.756293e-001
1.135915e+003;1.725325e-001
1.137843e+003;1.701095e-001
1.139772e+003;1.683115e-001
1.141700e+003;1.670842e-001
1.143629e+003;1.669071e-001
1.145557e+003;1.671743e-001
1.147486e+003;1.671450e-001
1.149415e+003;1.674705e-001
1.151343e+003;1.676957e-001
1.153272e+003;1.671489e-001
1.155200e+003;1.667044e-001
1.157129e+003;1.660575e-001
1.159057e+003;1.640296e-001
1.160986e+003;1.611371e-001
1.162914e+003;1.578303e-001
1.164843e+003;1.535253e-001
1.166771e+003;1.487438e-001
1.168700e+003;1.440239e-001
1.170629e+003;1.392438e-001
1.172557e+003;1.342893e-001
1.174486e+003;1.297848e-001
1.176414e+003;1.258378e-001
1.178343e+003;1.225153e-001
1.180271e+003;1.201605e-001
1.182200e+003;1.181630e-001
1.184128e+003;1.166542e-001
1.186057e+003;1.161832e-001
1.187986e+003;1.169524e-001
1.189914e+003;1.182587e-001
1.191843e+003;1.199369e-001
1.193771e+003;1.220908e-001
1.195700e+003;1.246258e-001
1.197628e+003;1.276668e-001
1.199557e+003;1.306089e-001
1.201485e+003;1.334131e-001
1.203414e+003;1.363559e-001
1.205343e+003;1.388631e-001
1.207271e+003;1.410103e-001
1.209200e+003;1.435547e-001
1.211128e+003;1.463042e-001
1.213057e+003;1.495726e-001
1.214985e+003;1.533646e-001
1.216914e+003;1.573693e-001
1.218842e+003;1.615740e-001
1.220771e+003;1.661070e-001
1.222699e+003;1.704247e-001
1.224628e+003;1.743189e-001
1.226557e+003;1.774582e-001
1.228485e+003;1.801430e-001
1.230414e+003;1.822783e-001
1.232342e+003;1.842428e-001
1.234271e+003;1.859360e-001
1.236199e+003;1.864126e-001
1.238128e+003;1.853670e-001
1.240056e+003;1.845362e-001
1.241985e+003;1.839773e-001
1.243913e+003;1.824735e-001
1.245842e+003;1.799593e-001
1.247771e+003;1.778982e-001
1.249699e+003;1.762638e-001
1.251628e+003;1.737102e-001
1.253556e+003;1.710845e-001
1.255485e+003;1.687380e-001
1.257413e+003;1.659125e-001
1.259342e+003;1.629994e-001
1.261270e+003;1.602795e-001
1.263199e+003;1.570644e-001
1.265127e+003;1.538464e-001
1.267056e+003;1.512610e-001
1.268985e+003;1.487038e-001
1.270913e+003;1.454582e-001
1.272842e+003;1.422642e-001
1.274770e+003;1.394976e-001
1.276699e+003;1.368846e-001
1.278627e+003;1.347753e-001
1.280556e+003;1.329185e-001
1.282484e+003;1.309278e-001
1.284413e+003;1.290988e-001
1.286342e+003;1.277277e-001
1.288270e+003;1.262116e-001
1.290199e+003;1.252463e-001
1.292127e+003;1.254628e-001
1.294056e+003;1.258798e-001
1.295984e+003;1.263387e-001
1.297913e+003;1.272073e-001
1.299841e+003;1.284468e-001
1.301770e+003;1.299508e-001
1.303698e+003;1.318361e-001
1.305627e+003;1.340881e-001
1.307556e+003;1.366023e-001
1.309484e+003;1.387364e-001
1.311413e+003;1.405127e-001
1.313341e+003;1.420833e-001
1.315270e+003;1.430189e-001
1.317198e+003;1.431756e-001
1.319127e+003;1.429451e-001
1.321055e+003;1.426851e-001
1.322984e+003;1.420217e-001
1.324912e+003;1.412075e-001
1.326841e+003;1.405786e-001
1.328770e+003;1.404311e-001
1.330698e+003;1.408280e-001
1.332627e+003;1.409882e-001
1.334555e+003;1.405644e-001
1.336484e+003;1.396021e-001
1.338412e+003;1.381609e-001
1.340341e+003;1.367360e-001
1.342269e+003;1.356932e-001
1.344198e+003;1.345265e-001
1.346126e+003;1.334866e-001
1.348055e+003;1.329000e-001
1.349984e+003;1.325768e-001
1.351912e+003;1.331066e-001
1.353841e+003;1.339722e-001
1.355769e+003;1.354419e-001
1.357698e+003;1.375083e-001
1.359626e+003;1.394942e-001
1.361555e+003;1.415245e-001
1.363483e+003;1.431133e-001
1.365412e+003;1.438213e-001
1.367341e+003;1.437792e-001
1.369269e+003;1.436019e-001
1.371198e+003;1.428396e-001
1.373126e+003;1.412514e-001
1.375055e+003;1.391432e-001
1.376983e+003;1.365872e-001
1.378912e+003;1.338953e-001
1.380840e+003;1.312680e-001
1.382769e+003;1.287743e-001
1.384698e+003;1.260839e-001
1.386626e+003;1.236711e-001
1.388555e+003;1.219903e-001
1.390483e+003;1.206163e-001
1.392412e+003;1.197141e-001
1.394340e+003;1.193681e-001
1.396269e+003;1.196579e-001
1.398197e+003;1.201389e-001
1.400126e+003;1.206751e-001
1.402054e+003;1.213421e-001
1.403983e+003;1.222648e-001
1.405911e+003;1.235214e-001
1.407840e+003;1.250823e-001
1.409769e+003;1.269905e-001
1.411697e+003;1.290670e-001
1.413626e+003;1.307196e-001
1.415554e+003;1.324470e-001
1.417483e+003;1.339765e-001
1.419411e+003;1.350352e-001
1.421340e+003;1.357784e-001
1.423268e+003;1.361845e-001
1.425197e+003;1.359786e-001
1.427125e+003;1.350934e-001
1.429054e+003;1.338597e-001
1.430983e+003;1.321400e-001
1.432911e+003;1.302243e-001
1.434840e+003;1.282101e-001
1.436768e+003;1.261094e-001
1.438697e+003;1.246219e-001
1.440625e+003;1.233397e-001
1.442554e+003;1.224859e-001
1.444482e+003;1.216393e-001
1.446411e+003;1.201182e-001
1.448340e+003;1.186512e-001
1.450268e+003;1.176736e-001
1.452197e+003;1.168670e-001
1.454125e+003;1.161414e-001
1.456054e+003;1.149789e-001
1.457982e+003;1.138073e-001
1.459911e+003;1.131342e-001
1.461839e+003;1.118956e-001
1.463768e+003;1.098934e-001
1.465697e+003;1.072593e-001
1.467625e+003;1.040967e-001
1.469554e+003;1.007153e-001
1.471482e+003;9.716427e-002
1.473411e+003;9.345922e-002
1.475339e+003;8.991461e-002
1.477268e+003;8.665565e-002
1.479196e+003;8.384661e-002
1.481125e+003;8.153664e-002
1.483053e+003;7.976961e-002
1.484982e+003;7.831833e-002
1.486911e+003;7.725093e-002
1.488839e+003;7.633749e-002
1.490768e+003;7.592908e-002
1.492696e+003;7.630178e-002
1.494625e+003;7.685676e-002
1.496553e+003;7.735232e-002
1.498482e+003;7.806507e-002
1.500410e+003;7.910915e-002
1.502339e+003;7.999459e-002
1.504267e+003;8.016249e-002
1.506196e+003;7.979055e-002
1.508125e+003;7.932710e-002
1.510053e+003;7.875819e-002
1.511982e+003;7.780983e-002
1.513910e+003;7.631548e-002
1.515839e+003;7.466459e-002
1.517767e+003;7.325032e-002
1.519696e+003;7.179767e-002
1.521624e+003;7.019724e-002
1.523553e+003;6.915168e-002
1.525481e+003;6.848769e-002
1.527410e+003;6.761908e-002
1.529339e+003;6.673913e-002
1.531267e+003;6.633829e-002
1.533196e+003;6.611512e-002
1.535124e+003;6.610524e-002
1.537053e+003;6.638211e-002
1.538981e+003;6.594323e-002
1.540910e+003;6.578124e-002
1.542838e+003;6.664054e-002
1.544767e+003;6.708593e-002
1.546695e+003;6.737055e-002
1.548624e+003;6.804470e-002
1.550553e+003;6.916171e-002
1.552481e+003;6.981857e-002
1.554410e+003;7.009089e-002
1.556338e+003;7.063398e-002
1.558267e+003;7.125312e-002
1.560195e+003;7.241793e-002
1.562124e+003;7.411943e-002
1.564052e+003;7.552345e-002
1.565981e+003;7.712032e-002
1.567910e+003;7.902274e-002
1.569838e+003;8.141145e-002
1.571767e+003;8.419226e-002
1.573695e+003;8.697797e-002
1.575624e+003;8.998264e-002
1.577552e+003;9.346761e-002
1.579481e+003;9.726398e-002
1.581409e+003;1.011152e-001
1.583338e+003;1.051003e-001
1.585266e+003;1.089040e-001
1.587195e+003;1.124196e-001
1.589124e+003;1.158210e-001
1.591052e+003;1.188419e-001
1.592981e+003;1.211087e-001
1.594909e+003;1.227361e-001
1.596838e+003;1.239194e-001
1.598766e+003;1.247893e-001
1.600695e+003;1.256149e-001
1.602623e+003;1.259551e-001
1.604552e+003;1.260578e-001
1.606480e+003;1.260389e-001
1.608409e+003;1.255960e-001
1.610338e+003;1.252404e-001
1.612266e+003;1.250565e-001
1.614195e+003;1.247659e-001
1.616123e+003;1.242542e-001
1.618052e+003;1.240165e-001
1.619980e+003;1.237265e-001
1.621909e+003;1.229038e-001
1.623837e+003;1.218983e-001
1.625766e+003;1.211949e-001
1.627694e+003;1.206381e-001
1.629623e+003;1.197800e-001
1.631552e+003;1.187182e-001
1.633480e+003;1.176308e-001
1.635409e+003;1.167631e-001
1.637337e+003;1.162479e-001
1.639266e+003;1.153938e-001
1.641194e+003;1.141778e-001
1.643123e+003;1.130718e-001
1.645051e+003;1.117811e-001
1.646980e+003;1.106166e-001
1.648909e+003;1.094200e-001
1.650837e+003;1.074800e-001
1.652766e+003;1.050839e-001
1.654694e+003;1.039772e-001
1.656623e+003;1.031534e-001
1.658551e+003;1.016921e-001
1.660480e+003;1.002674e-001
1.662408e+003;9.859171e-002
1.664337e+003;9.699915e-002
1.666266e+003;9.556416e-002
1.668194e+003;9.392202e-002
1.670123e+003;9.248472e-002
1.672051e+003;9.126540e-002
1.673980e+003;8.994335e-002
1.675908e+003;8.864140e-002
1.677837e+003;8.739350e-002
1.679765e+003;8.616299e-002
1.681694e+003;8.507942e-002
1.683622e+003;8.393894e-002
1.685551e+003;8.355722e-002
1.687479e+003;8.378388e-002
1.689408e+003;8.382579e-002
1.691337e+003;8.405006e-002
1.693265e+003;8.445057e-002
1.695194e+003;8.511232e-002
1.697122e+003;8.641499e-002
1.699051e+003;8.790577e-002
1.700979e+003;8.986440e-002
1.702908e+003;9.248985e-002
1.704836e+003;9.518146e-002
1.706765e+003;9.808820e-002
1.708693e+003;1.008643e-001
1.710622e+003;1.038290e-001
1.712551e+003;1.069800e-001
1.714479e+003;1.096500e-001
1.716408e+003;1.118799e-001
1.718336e+003;1.142430e-001
1.720265e+003;1.169912e-001
1.722193e+003;1.193669e-001
1.724122e+003;1.212393e-001
1.726050e+003;1.228401e-001
1.727979e+003;1.237810e-001
1.729908e+003;1.242768e-001
1.731836e+003;1.245165e-001
1.733765e+003;1.237872e-001
1.735693e+003;1.230990e-001
1.737622e+003;1.219798e-001
1.739550e+003;1.197456e-001
1.741479e+003;1.168787e-001
1.743407e+003;1.130712e-001
1.745336e+003;1.088623e-001
1.747265e+003;1.044825e-001
1.749193e+003;9.982989e-002
1.751122e+003;9.528250e-002
1.753050e+003;9.085412e-002
1.754979e+003;8.670331e-002
1.756907e+003;8.250957e-002
1.758836e+003;7.854600e-002
1.760764e+003;7.454058e-002
1.762693e+003;7.056735e-002
1.764621e+003;6.659149e-002
1.766550e+003;6.285988e-002
1.768479e+003;5.961905e-002
1.770407e+003;5.664969e-002
1.772336e+003;5.376837e-002
1.774264e+003;5.127993e-002
1.776193e+003;4.909172e-002
1.778121e+003;4.689636e-002
1.780050e+003;4.502408e-002
1.781978e+003;4.323431e-002
1.783907e+003;4.146079e-002
1.785835e+003;4.003969e-002
1.787764e+003;3.891182e-002
1.789693e+003;3.772803e-002
1.791621e+003;3.658304e-002
1.793550e+003;3.585699e-002
1.795478e+003;3.523844e-002
1.797407e+003;3.436751e-002
1.799335e+003;3.345519e-002
1.801264e+003;3.273199e-002
1.803192e+003;3.217624e-002
1.805121e+003;3.160702e-002
1.807049e+003;3.109482e-002
1.808978e+003;3.057052e-002
1.810907e+003;3.004136e-002
1.812835e+003;2.937398e-002
1.814764e+003;2.888313e-002
1.816692e+003;2.875223e-002
1.818621e+003;2.849302e-002
1.820549e+003;2.798211e-002
1.822478e+003;2.759595e-002
1.824406e+003;2.735377e-002
1.826335e+003;2.736044e-002
1.828264e+003;2.704303e-002
1.830192e+003;2.645767e-002
1.832121e+003;2.622630e-002
1.834049e+003;2.605377e-002
1.835978e+003;2.594549e-002
1.837906e+003;2.604715e-002
1.839835e+003;2.571446e-002
1.841763e+003;2.521919e-002
1.843692e+003;2.507921e-002
1.845620e+003;2.501891e-002
1.847549e+003;2.486805e-002
1.849478e+003;2.450736e-002
1.851406e+003;2.415287e-002
1.853335e+003;2.405791e-002
1.855263e+003;2.402688e-002
1.857192e+003;2.387640e-002
1.859120e+003;2.376306e-002
1.861049e+003;2.366564e-002
1.862977e+003;2.356572e-002
1.864906e+003;2.340557e-002
1.866834e+003;2.309456e-002
1.868763e+003;2.262053e-002
1.870692e+003;2.262828e-002
1.872620e+003;2.288600e-002
1.874549e+003;2.293242e-002
1.876477e+003;2.299520e-002
1.878406e+003;2.295446e-002
1.880334e+003;2.300753e-002
1.882263e+003;2.293207e-002
1.884191e+003;2.264050e-002
1.886120e+003;2.242709e-002
1.888048e+003;2.251886e-002
1.889977e+003;2.252333e-002
1.891906e+003;2.250972e-002
1.893834e+003;2.246352e-002
1.895763e+003;2.257694e-002
1.897691e+003;2.262702e-002
1.899620e+003;2.251639e-002
1.901548e+003;2.245602e-002
1.903477e+003;2.262319e-002
1.905405e+003;2.264696e-002
1.907334e+003;2.253945e-002
1.909262e+003;2.258277e-002
1.911191e+003;2.285928e-002
1.913120e+003;2.315506e-002
1.915048e+003;2.335081e-002
1.916977e+003;2.342652e-002
1.918905e+003;2.338351e-002
1.920834e+003;2.348384e-002
1.922762e+003;2.364479e-002
1.924691e+003;2.376978e-002
1.926619e+003;2.392604e-002
1.928548e+003;2.393907e-002
1.930477e+003;2.398525e-002
1.932405e+003;2.405511e-002
1.934334e+003;2.411836e-002
1.936262e+003;2.411185e-002
1.938191e+003;2.425660e-002
1.940119e+003;2.435962e-002
1.942048e+003;2.434949e-002
1.943976e+003;2.441384e-002
1.945905e+003;2.471614e-002
1.947833e+003;2.494408e-002
1.949762e+003;2.498093e-002
1.951691e+003;2.515483e-002
1.953619e+003;2.537896e-002
1.955548e+003;2.539688e-002
1.957476e+003;2.521902e-002
1.959405e+003;2.500655e-002
1.961333e+003;2.526067e-002
1.963262e+003;2.573973e-002
1.965190e+003;2.575482e-002
1.967119e+003;2.546278e-002
1.969047e+003;2.538890e-002
1.970976e+003;2.533864e-002
1.972905e+003;2.533562e-002
1.974833e+003;2.553373e-002
1.976762e+003;2.567389e-002
1.978690e+003;2.579574e-002
1.980619e+003;2.588264e-002
1.982547e+003;2.579958e-002
1.984476e+003;2.582855e-002
1.986404e+003;2.601964e-002
1.988333e+003;2.606073e-002
1.990261e+003;2.590033e-002
1.992190e+003;2.577700e-002
1.994119e+003;2.607424e-002
1.996047e+003;2.647983e-002
1.997976e+003;2.668759e-002
1.999904e+003;2.693260e-002
2.001833e+003;2.707583e-002
2.003761e+003;2.710154e-002
2.005690e+003;2.718774e-002
2.007618e+003;2.754003e-002
2.009547e+003;2.786861e-002
2.011476e+003;2.790801e-002
2.013404e+003;2.791723e-002
2.015333e+003;2.824430e-002
2.017261e+003;2.866182e-002
2.019190e+003;2.882208e-002
2.021118e+003;2.905527e-002
2.023047e+003;2.968657e-002
2.024975e+003;2.992477e-002
2.026904e+003;3.006483e-002
2.028833e+003;3.018529e-002
2.030761e+003;3.004413e-002
2.032690e+003;2.991827e-002
2.034618e+003;2.983986e-002
2.036547e+003;3.000290e-002
2.038475e+003;3.038932e-002
2.040404e+003;3.080902e-002
2.042332e+003;3.100673e-002
2.044261e+003;3.090472e-002
2.046189e+003;3.105951e-002
2.048118e+003;3.118883e-002
2.050047e+003;3.099449e-002
2.051975e+003;3.103591e-002
2.053904e+003;3.119894e-002
2.055832e+003;3.109663e-002
2.057761e+003;3.114586e-002
2.059689e+003;3.135896e-002
2.061618e+003;3.140619e-002
2.063546e+003;3.124896e-002
2.065475e+003;3.128450e-002
2.067404e+003;3.146643e-002
2.069332e+003;3.172645e-002
2.071260e+003;3.180965e-002
2.073189e+003;3.171857e-002
2.075118e+003;3.176281e-002
2.077046e+003;3.186157e-002
2.078975e+003;3.192575e-002
2.080903e+003;3.197872e-002
2.082832e+003;3.193941e-002
2.084760e+003;3.187405e-002
2.086689e+003;3.199716e-002
2.088617e+003;3.214234e-002
2.090546e+003;3.233059e-002
2.092475e+003;3.252232e-002
2.094403e+003;3.262107e-002
2.096332e+003;3.264622e-002
2.098260e+003;3.254389e-002
2.100189e+003;3.247679e-002
2.102117e+003;3.249314e-002
2.104046e+003;3.251196e-002
2.105974e+003;3.246468e-002
2.107903e+003;3.234766e-002
2.109832e+003;3.255060e-002
2.111760e+003;3.295191e-002
2.113688e+003;3.318915e-002
2.115617e+003;3.328147e-002
2.117546e+003;3.327439e-002
2.119474e+003;3.313890e-002
2.121403e+003;3.310096e-002
2.123331e+003;3.306013e-002
2.125260e+003;3.307311e-002
2.127188e+003;3.332773e-002
2.129117e+003;3.355150e-002
2.131045e+003;3.364458e-002
2.132974e+003;3.349860e-002
2.134903e+003;3.307232e-002
2.136831e+003;3.283104e-002
2.138760e+003;3.328476e-002
2.140688e+003;3.358257e-002
2.142617e+003;3.326273e-002
2.144545e+003;3.303782e-002
2.146474e+003;3.311137e-002
2.148402e+003;3.327199e-002
2.150331e+003;3.299374e-002
2.152260e+003;3.268762e-002
2.154188e+003;3.264840e-002
2.156117e+003;3.273810e-002
2.158045e+003;3.278852e-002
2.159974e+003;3.286899e-002
2.161902e+003;3.283086e-002
2.163831e+003;3.262275e-002
2.165759e+003;3.246104e-002
2.167688e+003;3.222570e-002
2.169616e+003;3.197344e-002
2.171545e+003;3.191656e-002
2.173474e+003;3.199594e-002
2.175402e+003;3.189095e-002
2.177331e+003;3.133884e-002
2.179259e+003;3.099976e-002
2.181188e+003;3.101897e-002
2.183116e+003;3.080348e-002
2.185045e+003;3.068337e-002
2.186973e+003;3.063925e-002
2.188902e+003;3.048130e-002
2.190831e+003;3.030970e-002
2.192759e+003;3.011802e-002
2.194688e+003;2.987560e-002
2.196616e+003;2.976442e-002
2.198545e+003;2.988611e-002
2.200473e+003;3.013993e-002
2.202402e+003;3.015741e-002
2.204330e+003;2.993130e-002
2.206259e+003;2.994046e-002
2.208188e+003;2.981076e-002
2.210116e+003;2.945507e-002
2.212044e+003;2.954578e-002
2.213973e+003;2.977222e-002
2.215902e+003;2.963786e-002
2.217830e+003;2.959100e-002
2.219759e+003;2.984224e-002
2.221687e+003;2.993460e-002
2.223616e+003;2.971403e-002
2.225544e+003;2.969204e-002
2.227473e+003;2.997102e-002
2.229401e+003;2.992796e-002
2.231330e+003;2.974582e-002
2.233259e+003;2.983415e-002
2.235187e+003;3.010790e-002
2.237116e+003;3.031602e-002
2.239044e+003;3.020746e-002
2.240973e+003;2.979941e-002
2.242901e+003;2.960367e-002
2.244830e+003;2.959781e-002
2.246758e+003;2.982169e-002
2.248687e+003;3.000617e-002
2.250615e+003;2.987770e-002
2.252544e+003;2.967245e-002
2.254473e+003;2.985456e-002
2.256401e+003;3.016192e-002
2.258330e+003;2.984551e-002
2.260258e+003;2.955259e-002
2.262187e+003;2.967731e-002
2.264115e+003;2.994685e-002
2.266044e+003;2.991639e-002
2.267972e+003;2.968104e-002
2.269901e+003;2.966135e-002
2.271830e+003;2.958160e-002
2.273758e+003;2.947407e-002
2.275687e+003;2.948368e-002
2.277615e+003;2.946833e-002
2.279544e+003;2.916511e-002
2.281472e+003;2.919399e-002
2.283401e+003;2.953709e-002
2.285329e+003;2.968760e-002
2.287258e+003;2.951727e-002
2.289187e+003;2.944273e-002
2.291115e+003;2.958600e-002
2.293043e+003;2.957050e-002
2.294972e+003;2.942663e-002
2.296901e+003;2.924651e-002
2.298829e+003;2.917847e-002
2.300758e+003;2.928284e-002
2.302686e+003;2.938373e-002
2.304615e+003;2.929337e-002
2.306543e+003;2.925728e-002
2.308472e+003;2.911639e-002
2.310400e+003;2.922230e-002
2.312329e+003;2.942259e-002
2.314258e+003;2.946326e-002
2.316186e+003;2.949542e-002
2.318115e+003;2.946482e-002
2.320043e+003;2.926678e-002
2.321972e+003;2.896083e-002
2.323900e+003;2.872281e-002
2.325829e+003;2.844314e-002
2.327757e+003;2.830385e-002
2.329686e+003;2.851595e-002
2.331615e+003;2.866650e-002
2.333543e+003;2.884560e-002
2.335472e+003;2.909867e-002
2.337400e+003;2.926232e-002
2.339329e+003;2.933658e-002
2.341257e+003;2.911809e-002
2.343186e+003;2.928468e-002
2.345114e+003;2.979345e-002
2.347043e+003;3.005868e-002
2.348971e+003;3.016316e-002
2.350900e+003;3.008389e-002
2.352829e+003;3.020437e-002
2.354757e+003;3.038428e-002
2.356686e+003;3.030319e-002
2.358614e+003;3.008695e-002
2.360543e+003;3.002708e-002
2.362471e+003;3.017780e-002
2.364400e+003;3.023442e-002
2.366328e+003;3.039511e-002
2.368257e+003;3.069102e-002
2.370186e+003;3.102741e-002
2.372114e+003;3.178031e-002
2.374042e+003;3.237925e-002
2.375971e+003;3.258074e-002
2.377900e+003;3.293511e-002
2.379828e+003;3.303524e-002
2.381757e+003;3.310458e-002
2.383685e+003;3.312213e-002
2.385614e+003;3.297919e-002
2.387542e+003;3.310114e-002
2.389471e+003;3.345153e-002
2.391399e+003;3.356936e-002
2.393328e+003;3.330262e-002
2.395257e+003;3.335152e-002
2.397185e+003;3.367501e-002
2.399114e+003;3.388581e-002
2.401042e+003;3.394274e-002
2.402971e+003;3.402268e-002
2.404899e+003;3.434190e-002
2.406828e+003;3.473909e-002
2.408756e+003;3.509397e-002
2.410685e+003;3.503998e-002
2.412614e+003;3.487001e-002
2.414542e+003;3.509070e-002
2.416471e+003;3.568559e-002
2.418399e+003;3.611624e-002
2.420328e+003;3.622787e-002
2.422256e+003;3.631551e-002
2.424185e+003;3.648562e-002
2.426113e+003;3.640317e-002
2.428042e+003;3.624552e-002
2.429970e+003;3.646586e-002
2.431899e+003;3.675220e-002
2.433828e+003;3.679933e-002
2.435756e+003;3.718532e-002
2.437685e+003;3.774206e-002
2.439613e+003;3.819505e-002
2.441542e+003;3.857901e-002
2.443470e+003;3.851311e-002
2.445399e+003;3.831616e-002
2.447327e+003;3.864811e-002
2.449256e+003;3.884674e-002
2.451185e+003;3.868886e-002
2.453113e+003;3.881605e-002
2.455042e+003;3.917990e-002
2.456970e+003;3.936088e-002
2.458899e+003;3.929037e-002
2.460827e+003;3.946973e-002
2.462756e+003;3.975002e-002
2.464684e+003;3.981078e-002
2.466613e+003;3.964862e-002
2.468542e+003;3.972936e-002
2.470470e+003;3.998374e-002
2.472398e+003;4.024368e-002
2.474327e+003;4.056948e-002
2.476256e+003;4.100478e-002
2.478184e+003;4.120004e-002
2.480113e+003;4.124945e-002
2.482041e+003;4.125819e-002
2.483970e+003;4.135305e-002
2.485898e+003;4.150566e-002
2.487827e+003;4.167650e-002
2.489755e+003;4.183277e-002
2.491684e+003;4.200935e-002
2.493613e+003;4.235316e-002
2.495541e+003;4.241691e-002
2.497470e+003;4.219441e-002
2.499398e+003;4.235543e-002
2.501327e+003;4.281363e-002
2.503255e+003;4.306462e-002
2.505184e+003;4.309049e-002
2.507112e+003;4.316543e-002
2.509041e+003;4.330416e-002
2.510969e+003;4.350441e-002
2.512898e+003;4.357067e-002
2.514827e+003;4.358551e-002
2.516755e+003;4.383567e-002
2.518684e+003;4.404710e-002
2.520612e+003;4.408513e-002
2.522541e+003;4.460805e-002
2.524469e+003;4.481052e-002
2.526398e+003;4.462292e-002
2.528326e+003;4.469177e-002
2.530255e+003;4.468957e-002
2.532184e+003;4.461260e-002
2.534112e+003;4.462622e-002
2.536041e+003;4.467319e-002
2.537969e+003;4.504393e-002
2.539898e+003;4.536194e-002
2.541826e+003;4.511726e-002
2.543755e+003;4.497267e-002
2.545683e+003;4.517538e-002
2.547612e+003;4.526624e-002
2.549541e+003;4.519759e-002
2.551469e+003;4.526867e-002
2.553397e+003;4.549143e-002
2.555326e+003;4.563653e-002
2.557255e+003;4.575661e-002
2.559183e+003;4.602154e-002
2.561112e+003;4.602471e-002
2.563040e+003;4.599226e-002
2.564969e+003;4.593299e-002
2.566897e+003;4.578639e-002
2.568826e+003;4.601373e-002
2.570754e+003;4.625029e-002
2.572683e+003;4.624059e-002
2.574612e+003;4.626923e-002
2.576540e+003;4.646478e-002
2.578469e+003;4.673339e-002
2.580397e+003;4.681933e-002
2.582326e+003;4.676741e-002
2.584254e+003;4.674553e-002
2.586183e+003;4.709662e-002
2.588111e+003;4.749734e-002
2.590040e+003;4.729586e-002
2.591969e+003;4.702668e-002
2.593897e+003;4.722885e-002
2.595826e+003;4.770653e-002
2.597754e+003;4.820018e-002
2.599683e+003;4.830852e-002
2.601611e+003;4.809519e-002
2.603540e+003;4.821528e-002
2.605468e+003;4.842197e-002
2.607397e+003;4.876319e-002
2.609325e+003;4.874684e-002
2.611254e+003;4.862975e-002
2.613183e+003;4.908705e-002
2.615111e+003;4.958799e-002
2.617040e+003;4.968977e-002
2.618968e+003;4.977916e-002
2.620897e+003;5.001247e-002
2.622825e+003;5.019631e-002
2.624754e+003;5.039330e-002
2.626682e+003;5.034597e-002
2.628611e+003;5.039579e-002
2.630540e+003;5.100704e-002
2.632468e+003;5.136712e-002
2.634396e+003;5.147427e-002
2.636325e+003;5.168819e-002
2.638254e+003;5.183593e-002
2.640182e+003;5.206504e-002
2.642111e+003;5.240132e-002
2.644039e+003;5.231792e-002
2.645968e+003;5.228186e-002
2.647896e+003;5.253005e-002
2.649825e+003;5.261318e-002
2.651753e+003;5.298208e-002
2.653682e+003;5.324753e-002
2.655611e+003;5.345156e-002
2.657539e+003;5.365048e-002
2.659468e+003;5.354462e-002
2.661396e+003;5.365029e-002
2.663325e+003;5.411321e-002
2.665253e+003;5.431033e-002
2.667182e+003;5.434784e-002
2.669110e+003;5.456614e-002
2.671039e+003;5.473896e-002
2.672968e+003;5.497073e-002
2.674896e+003;5.518638e-002
2.676825e+003;5.534156e-002
2.678753e+003;5.576956e-002
2.680682e+003;5.616147e-002
2.682610e+003;5.626922e-002
2.684539e+003;5.661243e-002
2.686467e+003;5.674483e-002
2.688396e+003;5.649573e-002
2.690324e+003;5.657008e-002
2.692253e+003;5.708143e-002
2.694182e+003;5.714122e-002
2.696110e+003;5.688868e-002
2.698039e+003;5.731140e-002
2.699967e+003;5.800479e-002
2.701896e+003;5.803443e-002
2.703824e+003;5.784910e-002
2.705753e+003;5.813204e-002
2.707681e+003;5.856082e-002
2.709610e+003;5.887265e-002
2.711539e+003;5.931269e-002
2.713467e+003;5.948581e-002
2.715396e+003;5.931953e-002
2.717324e+003;5.925477e-002
2.719253e+003;5.944158e-002
2.721181e+003;5.967695e-002
2.723110e+003;5.986208e-002
2.725038e+003;6.025721e-002
2.726967e+003;6.064477e-002
2.728896e+003;6.065224e-002
2.730824e+003;6.065113e-002
2.732752e+003;6.077932e-002
2.734681e+003;6.079670e-002
2.736610e+003;6.100649e-002
2.738538e+003;6.116850e-002
2.740467e+003;6.122858e-002
2.742395e+003;6.128120e-002
2.744324e+003;6.119608e-002
2.746252e+003;6.115893e-002
2.748181e+003;6.137087e-002
2.750109e+003;6.160358e-002
2.752038e+003;6.188680e-002
2.753967e+003;6.208568e-002
2.755895e+003;6.222569e-002
2.757824e+003;6.221277e-002
2.759752e+003;6.223957e-002
2.761681e+003;6.253408e-002
2.763609e+003;6.282124e-002
2.765538e+003;6.284039e-002
2.767466e+003;6.303764e-002
2.769395e+003;6.365164e-002
2.771323e+003;6.413665e-002
2.773252e+003;6.399772e-002
2.775181e+003;6.384842e-002
2.777109e+003;6.416495e-002
2.779038e+003;6.438571e-002
2.780966e+003;6.436665e-002
2.782895e+003;6.429199e-002
2.784823e+003;6.448564e-002
2.786752e+003;6.501887e-002
2.788680e+003;6.531885e-002
2.790609e+003;6.566668e-002
2.792538e+003;6.615038e-002
2.794466e+003;6.637968e-002
2.796395e+003;6.647802e-002
2.798323e+003;6.694450e-002
2.800252e+003;6.755562e-002
2.802180e+003;6.761648e-002
2.804109e+003;6.758307e-002
2.806037e+003;6.797425e-002
2.807966e+003;6.872137e-002
2.809895e+003;6.920146e-002
2.811823e+003;6.938537e-002
2.813751e+003;6.960153e-002
2.815680e+003;7.012675e-002
2.817609e+003;7.047900e-002
2.819537e+003;7.125125e-002
2.821466e+003;7.197787e-002
2.823394e+003;7.230105e-002
2.825323e+003;7.290903e-002
2.827251e+003;7.382765e-002
2.829180e+003;7.454050e-002
2.831108e+003;7.512810e-002
2.833037e+003;7.599909e-002
2.834966e+003;7.715324e-002
2.836894e+003;7.838666e-002
2.838823e+003;7.947767e-002
2.840751e+003;8.044209e-002
2.842680e+003;8.153524e-002
2.844608e+003;8.300464e-002
2.846537e+003;8.478969e-002
2.848465e+003;8.632586e-002
2.850394e+003;8.763713e-002
2.852323e+003;8.885146e-002
2.854251e+003;8.963337e-002
2.856180e+003;9.038605e-002
2.858108e+003;9.094001e-002
2.860037e+003;9.116709e-002
2.861965e+003;9.163722e-002
2.863894e+003;9.203562e-002
2.865822e+003;9.231990e-002
2.867751e+003;9.235077e-002
2.869679e+003;9.270063e-002
2.871608e+003;9.351445e-002
2.873536e+003;9.389927e-002
2.875465e+003;9.391379e-002
2.877394e+003;9.404079e-002
2.879322e+003;9.433540e-002
2.881251e+003;9.458160e-002
2.883179e+003;9.476162e-002
2.885108e+003;9.514041e-002
2.887036e+003;9.583102e-002
2.888965e+003;9.642905e-002
2.890893e+003;9.678917e-002
2.892822e+003;9.689154e-002
2.894750e+003;9.712200e-002
2.896679e+003;9.746018e-002
2.898608e+003;9.771895e-002
2.900536e+003;9.810539e-002
2.902465e+003;9.830807e-002
2.904393e+003;9.807632e-002
2.906322e+003;9.802251e-002
2.908250e+003;9.835029e-002
2.910179e+003;9.871430e-002
2.912107e+003;9.869634e-002
2.914036e+003;9.863704e-002
2.915965e+003;9.902804e-002
2.917893e+003;9.936317e-002
2.919822e+003;9.970644e-002
2.921750e+003;1.000274e-001
2.923679e+003;9.994211e-002
2.925607e+003;9.954302e-002
2.927536e+003;9.921075e-002
2.929464e+003;9.893229e-002
2.931393e+003;9.866440e-002
2.933322e+003;9.820466e-002
2.935250e+003;9.735129e-002
2.937178e+003;9.693876e-002
2.939107e+003;9.680611e-002
2.941036e+003;9.568223e-002
2.942964e+003;9.451083e-002
2.944893e+003;9.323649e-002
2.946821e+003;9.171567e-002
2.948750e+003;9.043884e-002
2.950678e+003;8.911113e-002
2.952607e+003;8.777568e-002
2.954535e+003;8.643654e-002
2.956464e+003;8.546874e-002
2.958393e+003;8.449971e-002
2.960321e+003;8.336660e-002
2.962250e+003;8.230320e-002
2.964178e+003;8.130687e-002
2.966107e+003;8.060298e-002
2.968035e+003;8.021605e-002
2.969964e+003;8.000746e-002
2.971892e+003;7.939281e-002
2.973821e+003;7.828797e-002
2.975750e+003;7.715930e-002
2.977678e+003;7.630375e-002
2.979607e+003;7.604985e-002
2.981535e+003;7.561576e-002
2.983464e+003;7.514929e-002
2.985392e+003;7.411137e-002
2.987321e+003;7.312788e-002
2.989249e+003;7.322243e-002
2.991178e+003;7.335763e-002
2.993106e+003;7.276275e-002
2.995035e+003;7.238031e-002
2.996964e+003;7.217047e-002
2.998892e+003;7.193904e-002
3.000821e+003;7.154189e-002
3.002749e+003;7.100395e-002
3.004678e+003;7.098120e-002
3.006606e+003;7.111197e-002
3.008535e+003;7.122338e-002
3.010463e+003;7.134032e-002
3.012392e+003;7.100942e-002
3.014321e+003;7.110456e-002
3.016249e+003;7.121123e-002
3.018177e+003;7.108321e-002
3.020106e+003;7.152618e-002
3.022035e+003;7.157201e-002
3.023963e+003;7.120819e-002
3.025892e+003;7.151115e-002
3.027820e+003;7.179743e-002
3.029749e+003;7.195480e-002
3.031677e+003;7.163285e-002
3.033606e+003;7.132462e-002
3.035534e+003;7.148076e-002
3.037463e+003;7.193548e-002
3.039392e+003;7.244341e-002
3.041320e+003;7.265757e-002
3.043249e+003;7.309357e-002
3.045177e+003;7.364608e-002
3.047106e+003;7.391814e-002
3.049034e+003;7.442120e-002
3.050963e+003;7.496823e-002
3.052891e+003;7.511297e-002
3.054820e+003;7.494166e-002
3.056749e+003;7.515402e-002
3.058677e+003;7.561292e-002
3.060606e+003;7.579701e-002
3.062534e+003;7.634653e-002
3.064463e+003;7.696099e-002
3.066391e+003;7.718969e-002
3.068320e+003;7.739995e-002
3.070248e+003;7.783876e-002
3.072177e+003;7.816728e-002
3.074105e+003;7.854771e-002
3.076034e+003;7.890911e-002
3.077963e+003;7.914410e-002
3.079891e+003;7.959781e-002
3.081820e+003;7.974310e-002
3.083748e+003;7.995288e-002
3.085677e+003;8.057841e-002
3.087605e+003;8.122157e-002
3.089534e+003;8.192796e-002
3.091462e+003;8.227304e-002
3.093391e+003;8.231950e-002
3.095320e+003;8.228874e-002
3.097248e+003;8.231770e-002
3.099177e+003;8.253289e-002
3.101105e+003;8.311673e-002
3.103034e+003;8.369805e-002
3.104962e+003;8.408292e-002
3.106891e+003;8.447749e-002
3.108819e+003;8.496509e-002
3.110748e+003;8.523693e-002
3.112677e+003;8.552833e-002
3.114605e+003;8.591700e-002
3.116533e+003;8.632840e-002
3.118462e+003;8.694214e-002
3.120391e+003;8.758739e-002
3.122319e+003;8.801406e-002
3.124248e+003;8.864672e-002
3.126176e+003;8.922683e-002
3.128105e+003;8.964168e-002
3.130033e+003;8.999528e-002
3.131962e+003;9.017961e-002
3.133890e+003;9.032628e-002
3.135819e+003;9.067562e-002
3.137748e+003;9.106537e-002
3.139676e+003;9.139592e-002
3.141605e+003;9.204066e-002
3.143533e+003;9.228749e-002
3.145462e+003;9.227700e-002
3.147390e+003;9.306424e-002
3.149319e+003;9.411918e-002
3.151247e+003;9.465460e-002
3.153176e+003;9.469441e-002
3.155104e+003;9.543528e-002
3.157033e+003;9.634726e-002
3.158962e+003;9.636393e-002
3.160890e+003;9.675270e-002
3.162819e+003;9.742335e-002
3.164747e+003;9.790895e-002
3.166676e+003;9.849621e-002
3.168604e+003;9.901793e-002
3.170533e+003;9.956190e-002
3.172461e+003;1.001035e-001
3.174390e+003;1.009130e-001
3.176319e+003;1.015132e-001
3.178247e+003;1.015267e-001
3.180176e+003;1.019112e-001
3.182104e+003;1.025410e-001
3.184033e+003;1.027848e-001
3.185961e+003;1.035834e-001
3.187890e+003;1.043806e-001
3.189818e+003;1.045177e-001
3.191747e+003;1.049277e-001
3.193676e+003;1.058535e-001
3.195604e+003;1.061506e-001
3.197532e+003;1.064091e-001
3.199461e+003;1.077007e-001
3.201390e+003;1.080562e-001
3.203318e+003;1.077516e-001
3.205247e+003;1.083717e-001
3.207175e+003;1.093321e-001
3.209104e+003;1.099959e-001
3.211032e+003;1.106479e-001
3.212961e+003;1.109409e-001
3.214889e+003;1.108766e-001
3.216818e+003;1.111999e-001
3.218747e+003;1.121903e-001
3.220675e+003;1.128801e-001
3.222604e+003;1.136175e-001
3.224532e+003;1.141861e-001
3.226461e+003;1.139830e-001
3.228389e+003;1.139213e-001
3.230318e+003;1.144878e-001
3.232246e+003;1.150289e-001
3.234175e+003;1.160192e-001
3.236104e+003;1.169561e-001
3.238032e+003;1.171005e-001
3.239961e+003;1.173309e-001
3.241889e+003;1.177022e-001
3.243818e+003;1.184501e-001
3.245746e+003;1.194526e-001
3.247675e+003;1.197525e-001
3.249603e+003;1.198228e-001
3.251532e+003;1.208433e-001
3.253460e+003;1.218687e-001
3.255389e+003;1.221385e-001
3.257318e+003;1.220872e-001
3.259246e+003;1.222355e-001
3.261175e+003;1.227998e-001
3.263103e+003;1.229866e-001
3.265032e+003;1.227331e-001
3.266960e+003;1.230849e-001
3.268889e+003;1.241768e-001
3.270817e+003;1.248274e-001
3.272746e+003;1.249543e-001
3.274675e+003;1.251150e-001
3.276603e+003;1.252549e-001
3.278531e+003;1.256717e-001
3.280460e+003;1.261883e-001
3.282389e+003;1.262246e-001
3.284317e+003;1.266359e-001
3.286246e+003;1.273801e-001
3.288174e+003;1.273633e-001
3.290103e+003;1.268728e-001
3.292031e+003;1.269100e-001
3.293960e+003;1.273224e-001
3.295888e+003;1.275775e-001
3.297817e+003;1.273802e-001
3.299746e+003;1.270711e-001
3.301674e+003;1.268676e-001
3.303603e+003;1.275142e-001
3.305531e+003;1.282258e-001
3.307460e+003;1.283516e-001
3.309388e+003;1.282874e-001
3.311317e+003;1.282987e-001
3.313245e+003;1.286188e-001
3.315174e+003;1.289644e-001
3.317103e+003;1.289010e-001
3.319031e+003;1.288553e-001
3.320960e+003;1.287222e-001
3.322888e+003;1.288274e-001
3.324817e+003;1.292268e-001
3.326745e+003;1.290307e-001
3.328674e+003;1.285907e-001
3.330602e+003;1.285024e-001
3.332531e+003;1.285315e-001
3.334459e+003;1.287240e-001
3.336388e+003;1.293116e-001
3.338317e+003;1.293261e-001
3.340245e+003;1.287889e-001
3.342174e+003;1.283013e-001
3.344102e+003;1.283209e-001
3.346031e+003;1.283206e-001
3.347959e+003;1.280199e-001
3.349888e+003;1.277491e-001
3.351816e+003;1.277710e-001
3.353745e+003;1.275842e-001
3.355674e+003;1.269730e-001
3.357602e+003;1.263166e-001
3.359531e+003;1.260723e-001
3.361459e+003;1.261992e-001
3.363388e+003;1.264840e-001
3.365316e+003;1.262400e-001
3.367245e+003;1.260093e-001
3.369173e+003;1.259035e-001
3.371102e+003;1.256467e-001
3.373031e+003;1.253502e-001
3.374959e+003;1.247890e-001
3.376887e+003;1.242324e-001
3.378816e+003;1.239233e-001
3.380745e+003;1.236890e-001
3.382673e+003;1.239585e-001
3.384602e+003;1.238923e-001
3.386530e+003;1.232108e-001
3.388459e+003;1.230178e-001
3.390387e+003;1.227070e-001
3.392316e+003;1.221588e-001
3.394244e+003;1.218245e-001
3.396173e+003;1.217444e-001
3.398102e+003;1.218897e-001
3.400030e+003;1.209120e-001
3.401959e+003;1.201174e-001
3.403887e+003;1.200491e-001
3.405816e+003;1.193371e-001
3.407744e+003;1.188166e-001
3.409673e+003;1.187282e-001
3.411601e+003;1.185714e-001
3.413530e+003;1.181653e-001
3.415458e+003;1.174477e-001
3.417387e+003;1.168202e-001
3.419316e+003;1.158691e-001
3.421244e+003;1.146436e-001
3.423173e+003;1.145228e-001
3.425101e+003;1.142270e-001
3.427030e+003;1.135148e-001
3.428958e+003;1.136595e-001
3.430887e+003;1.131686e-001
3.432815e+003;1.119519e-001
3.434744e+003;1.117163e-001
3.436673e+003;1.115629e-001
3.438601e+003;1.107643e-001
3.440530e+003;1.099680e-001
3.442458e+003;1.093877e-001
3.444387e+003;1.087359e-001
3.446315e+003;1.080663e-001
3.448244e+003;1.082846e-001
3.450172e+003;1.082607e-001
3.452101e+003;1.071564e-001
3.454030e+003;1.062975e-001
3.455958e+003;1.056523e-001
3.457886e+003;1.046305e-001
3.459815e+003;1.040105e-001
3.461744e+003;1.035362e-001
3.463672e+003;1.025718e-001
3.465601e+003;1.015730e-001
3.467529e+003;1.008229e-001
3.469458e+003;1.008119e-001
3.471386e+003;1.005425e-001
3.473315e+003;9.979749e-002
3.475243e+003;9.875843e-002
3.477172e+003;9.789060e-002
3.479101e+003;9.758108e-002
3.481029e+003;9.728355e-002
3.482958e+003;9.644953e-002
3.484886e+003;9.557594e-002
3.486815e+003;9.489868e-002
3.488743e+003;9.425561e-002
3.490672e+003;9.395896e-002
3.492600e+003;9.318241e-002
3.494529e+003;9.196633e-002
3.496458e+003;9.105217e-002
3.498386e+003;9.058781e-002
3.500315e+003;9.012252e-002
3.502243e+003;8.938943e-002
3.504172e+003;8.870898e-002
3.506100e+003;8.840419e-002
3.508029e+003;8.797884e-002
3.509957e+003;8.660683e-002
3.511886e+003;8.509942e-002
3.513814e+003;8.447073e-002
3.515743e+003;8.394207e-002
3.517672e+003;8.305670e-002
3.519600e+003;8.252192e-002
3.521529e+003;8.184261e-002
3.523457e+003;8.104236e-002
3.525386e+003;8.070308e-002
3.527314e+003;7.993823e-002
3.529243e+003;7.904062e-002
3.531171e+003;7.834837e-002
3.533100e+003;7.708894e-002
3.535029e+003;7.580912e-002
3.536957e+003;7.535600e-002
3.538885e+003;7.494489e-002
3.540814e+003;7.429589e-002
3.542743e+003;7.378528e-002
3.544671e+003;7.311279e-002
3.546600e+003;7.240289e-002
3.548528e+003;7.130880e-002
3.550457e+003;7.044119e-002
3.552385e+003;6.990279e-002
3.554314e+003;6.904625e-002
3.556242e+003;6.803641e-002
3.558171e+003;6.765009e-002
3.560100e+003;6.709633e-002
3.562028e+003;6.607827e-002
3.563957e+003;6.563615e-002
3.565885e+003;6.464738e-002
3.567814e+003;6.348284e-002
3.569742e+003;6.303430e-002
3.571671e+003;6.261628e-002
3.573599e+003;6.225414e-002
3.575528e+003;6.172838e-002
3.577457e+003;6.076857e-002
3.579385e+003;5.993556e-002
3.581314e+003;5.910907e-002
3.583242e+003;5.800081e-002
3.585171e+003;5.720086e-002
3.587099e+003;5.700473e-002
3.589028e+003;5.663753e-002
3.590956e+003;5.562687e-002
3.592885e+003;5.476482e-002
3.594813e+003;5.408319e-002
3.596742e+003;5.345205e-002
3.598671e+003;5.266132e-002
3.600599e+003;5.183399e-002
3.602528e+003;5.191356e-002
3.604456e+003;5.186756e-002
3.606385e+003;5.143869e-002
3.608313e+003;5.068982e-002
3.610242e+003;4.957993e-002
3.612170e+003;4.850803e-002
3.614099e+003;4.794520e-002
3.616028e+003;4.755419e-002
3.617956e+003;4.667480e-002
3.619885e+003;4.585399e-002
3.621813e+003;4.571633e-002
3.623742e+003;4.487555e-002
3.625670e+003;4.374822e-002
3.627599e+003;4.295494e-002
3.629527e+003;4.208557e-002
3.631456e+003;4.152772e-002
3.633385e+003;4.090611e-002
3.635313e+003;4.048941e-002
3.637241e+003;3.991559e-002
3.639170e+003;3.894792e-002
3.641099e+003;3.781637e-002
3.643027e+003;3.711352e-002
3.644956e+003;3.668441e-002
3.646884e+003;3.560577e-002
3.648813e+003;3.407547e-002
3.650741e+003;3.305541e-002
3.652670e+003;3.246886e-002
3.654598e+003;3.137356e-002
3.656527e+003;3.042230e-002
3.658456e+003;2.976988e-002
3.660384e+003;2.909272e-002
3.662313e+003;2.839503e-002
3.664241e+003;2.755136e-002
3.666170e+003;2.594454e-002
3.668098e+003;2.493910e-002
3.670027e+003;2.416169e-002
3.671955e+003;2.327893e-002
3.673884e+003;2.227399e-002
3.675813e+003;2.116114e-002
3.677741e+003;2.067538e-002
3.679669e+003;2.026036e-002
3.681598e+003;2.007539e-002
3.683527e+003;1.975601e-002
3.685455e+003;1.889659e-002
3.687384e+003;1.810293e-002
3.689312e+003;1.765912e-002
3.691241e+003;1.727486e-002
3.693169e+003;1.710995e-002
3.695098e+003;1.719781e-002
3.697026e+003;1.649858e-002
3.698955e+003;1.572647e-002
3.700884e+003;1.550077e-002
3.702812e+003;1.530128e-002
3.704741e+003;1.524888e-002
3.706669e+003;1.548941e-002
3.708598e+003;1.503049e-002
3.710526e+003;1.446839e-002
3.712455e+003;1.408869e-002
3.714383e+003;1.382146e-002
3.716312e+003;1.376831e-002
3.718240e+003;1.356695e-002
3.720169e+003;1.350381e-002
3.722098e+003;1.366828e-002
3.724026e+003;1.343474e-002
3.725955e+003;1.251616e-002
3.727883e+003;1.223460e-002
3.729812e+003;1.246658e-002
3.731740e+003;1.266354e-002
3.733669e+003;1.267405e-002
3.735597e+003;1.222761e-002
3.737526e+003;1.203074e-002
3.739455e+003;1.189338e-002
3.741383e+003;1.142001e-002
3.743312e+003;1.102322e-002
3.745240e+003;1.120059e-002
3.747169e+003;1.138382e-002
3.749097e+003;1.121314e-002
3.751026e+003;1.159707e-002
3.752954e+003;1.182623e-002
3.754883e+003;1.163628e-002
3.756812e+003;1.166844e-002
3.758740e+003;1.200867e-002
3.760668e+003;1.213175e-002
3.762597e+003;1.211700e-002
3.764526e+003;1.172297e-002
3.766454e+003;1.147155e-002
3.768383e+003;1.156281e-002
3.770311e+003;1.151905e-002
3.772240e+003;1.180420e-002
3.774168e+003;1.178946e-002
3.776097e+003;1.116017e-002
3.778025e+003;1.113209e-002
3.779954e+003;1.158190e-002
3.781883e+003;1.176236e-002
3.783811e+003;1.159357e-002
3.785740e+003;1.136392e-002
3.787668e+003;1.123626e-002
3.789597e+003;1.104772e-002
3.791525e+003;1.110275e-002
3.793454e+003;1.119835e-002
3.795382e+003;1.076663e-002
3.797311e+003;1.075532e-002
3.799240e+003;1.088257e-002
3.801168e+003;1.128570e-002
3.803097e+003;1.200230e-002
3.805025e+003;1.171164e-002
3.806954e+003;1.119750e-002
3.808882e+003;1.172954e-002
3.810811e+003;1.189743e-002
3.812739e+003;1.151687e-002
3.814668e+003;1.074656e-002
3.816596e+003;1.057833e-002
3.818525e+003;1.144549e-002
3.820454e+003;1.137185e-002
3.822382e+003;1.091179e-002
3.824311e+003;1.112729e-002
3.826239e+003;1.110357e-002
3.828168e+003;1.143416e-002
3.830096e+003;1.178598e-002
3.832025e+003;1.198302e-002
3.833953e+003;1.211053e-002
3.835882e+003;1.159670e-002
3.837811e+003;1.108174e-002
3.839739e+003;1.148142e-002
3.841667e+003;1.172552e-002
3.843596e+003;1.192668e-002
3.845525e+003;1.201449e-002
3.847453e+003;1.188010e-002
3.849382e+003;1.213410e-002
3.851310e+003;1.195904e-002
3.853239e+003;1.143610e-002
3.855167e+003;1.148870e-002
3.857096e+003;1.221060e-002
3.859024e+003;1.259426e-002
3.860953e+003;1.212688e-002
3.862882e+003;1.224554e-002
3.864810e+003;1.255883e-002
3.866739e+003;1.250999e-002
3.868667e+003;1.253502e-002
3.870596e+003;1.265222e-002
3.872524e+003;1.272789e-002
3.874453e+003;1.292900e-002
3.876381e+003;1.348429e-002
3.878310e+003;1.350029e-002
3.880239e+003;1.347722e-002
3.882167e+003;1.360496e-002
3.884096e+003;1.385854e-002
3.886024e+003;1.370190e-002
3.887953e+003;1.356223e-002
3.889881e+003;1.385054e-002
3.891810e+003;1.380498e-002
3.893738e+003;1.348098e-002
3.895667e+003;1.371072e-002
3.897595e+003;1.351427e-002
3.899524e+003;1.333697e-002
3.901453e+003;1.364886e-002
3.903381e+003;1.405614e-002
3.905310e+003;1.474613e-002
3.907238e+003;1.521075e-002
3.909167e+003;1.509872e-002
3.911095e+003;1.513077e-002
3.913024e+003;1.529802e-002
3.914952e+003;1.524006e-002
3.916881e+003;1.529977e-002
3.918810e+003;1.516168e-002
3.920738e+003;1.502250e-002
3.922667e+003;1.529153e-002
3.924595e+003;1.524785e-002
3.926524e+003;1.530743e-002
3.928452e+003;1.553425e-002
3.930381e+003;1.581226e-002
3.932309e+003;1.601883e-002
3.934238e+003;1.600879e-002
3.936167e+003;1.568246e-002
3.938095e+003;1.549418e-002
3.940023e+003;1.636386e-002
3.941952e+003;1.677941e-002
3.943881e+003;1.630902e-002
3.945809e+003;1.635877e-002
3.947738e+003;1.678000e-002
3.949666e+003;1.676612e-002
3.951595e+003;1.663913e-002
3.953523e+003;1.694193e-002
3.955452e+003;1.739335e-002
3.957380e+003;1.739976e-002
3.959309e+003;1.709316e-002
3.961238e+003;1.684644e-002
3.963166e+003;1.721453e-002
3.965095e+003;1.767858e-002
3.967023e+003;1.800580e-002
3.968952e+003;1.789336e-002
3.970880e+003;1.726479e-002
3.972809e+003;1.728965e-002
3.974737e+003;1.797006e-002
3.976666e+003;1.861798e-002
3.978594e+003;1.874891e-002
3.980523e+003;1.875555e-002
3.982452e+003;1.799357e-002
3.984380e+003;1.750707e-002
3.986309e+003;1.780912e-002
3.988237e+003;1.774067e-002
3.990166e+003;1.794523e-002
3.992094e+003;1.839925e-002
3.994023e+003;1.835386e-002
3.995951e+003;1.813858e-002
3.997880e+003;1.793079e-002
3.999809e+003;1.800805e-002
4.001737e+003;0.000000e+000
