3.992094e+002;0.000000e+000
4.011380e+002;0.000000e+000
4.030665e+002;0.000000e+000
4.049951e+002;0.000000e+000
4.069236e+002;0.000000e+000
4.088522e+002;0.000000e+000
4.107807e+002;0.000000e+000
4.127093e+002;0.000000e+000
4.146378e+002;0.000000e+000
4.165664e+002;0.000000e+000
4.184949e+002;0.000000e+000
4.204235e+002;0.000000e+000
4.223520e+002;0.000000e+000
4.242806e+002;0.000000e+000
4.262091e+002;0.000000e+000
4.281377e+002;0.000000e+000
4.300662e+002;0.000000e+000
4.319948e+002;0.000000e+000
4.339233e+002;0.000000e+000
4.358519e+002;0.000000e+000
4.377804e+002;0.000000e+000
4.397090e+002;0.000000e+000
4.416375e+002;0.000000e+000
4.435660e+002;0.000000e+000
4.454946e+002;0.000000e+000
4.474232e+002;0.000000e+000
4.493517e+002;0.000000e+000
4.512802e+002;0.000000e+000
4.532088e+002;0.000000e+000
4.551373e+002;0.000000e+000
4.570659e+002;0.000000e+000
4.589944e+002;0.000000e+000
4.609230e+002;0.000000e+000
4.628515e+002;0.000000e+000
4.647801e+002;0.000000e+000
4.667086e+002;0.000000e+000
4.686372e+002;0.000000e+000
4.705657e+002;0.000000e+000
4.724943e+002;0.000000e+000
4.744228e+002;0.000000e+000
4.763513e+002;0.000000e+000
4.782799e+002;0.000000e+000
4.802085e+002;0.000000e+000
4.821370e+002;0.000000e+000
4.840656e+002;0.000000e+000
4.859941e+002;0.000000e+000
4.879226e+002;0.000000e+000
4.898512e+002;0.000000e+000
4.917798e+002;0.000000e+000
4.937083e+002;0.000000e+000
4.956368e+002;0.000000e+000
4.975654e+002;0.000000e+000
4.994939e+002;0.000000e+000
5.014225e+002;0.000000e+000
5.033510e+002;0.000000e+000
5.052796e+002;0.000000e+000
5.072081e+002;0.000000e+000
5.091367e+002;0.000000e+000
5.110652e+002;0.000000e+000
5.129938e+002;0.000000e+000
5.149223e+002;0.000000e+000
5.168509e+002;0.000000e+000
5.187794e+002;0.000000e+000
5.207079e+002;0.000000e+000
5.226365e+002;0.000000e+000
5.245651e+002;0.000000e+000
5.264936e+002;0.000000e+000
5.284222e+002;0.000000e+000
5.303507e+002;0.000000e+000
5.322792e+002;0.000000e+000
5.342078e+002;0.000000e+000
5.361364e+002;0.000000e+000
5.380649e+002;0.000000e+000
5.399935e+002;0.000000e+000
5.419220e+002;0.000000e+000
5.438505e+002;0.000000e+000
5.457791e+002;0.000000e+000
5.477076e+002;0.000000e+000
5.496362e+002;0.000000e+000
5.515648e+002;0.000000e+000
5.534933e+002;0.000000e+000
5.554218e+002;0.000000e+000
5.573504e+002;0.000000e+000
5.592789e+002;0.000000e+000
5.612075e+002;0.000000e+000
5.631360e+002;0.000000e+000
5.650646e+002;0.000000e+000
5.669931e+002;0.000000e+000
5.689217e+002;0.000000e+000
5.708502e+002;0.000000e+000
5.727787e+002;0.000000e+000
5.747073e+002;0.000000e+000
5.766359e+002;0.000000e+000
5.785644e+002;0.000000e+000
5.804930e+002;0.000000e+000
5.824215e+002;0.000000e+000
5.843500e+002;0.000000e+000
5.862786e+002;0.000000e+000
5.882072e+002;0.000000e+000
5.901357e+002;0.000000e+000
5.920643e+002;0.000000e+000
5.939928e+002;0.000000e+000
5.959213e+002;0.000000e+000
5.978499e+002;0.000000e+000
5.997784e+002;2.568504e-001
6.017070e+002;2.612893e-001
6.036355e+002;2.620266e-001
6.055641e+002;2.667046e-001
6.074926e+002;2.684173e-001
6.094211e+002;2.685772e-001
6.113497e+002;2.661473e-001
6.132783e+002;2.609769e-001
6.152068e+002;2.559198e-001
6.171354e+002;2.534478e-001
6.190639e+002;2.545240e-001
6.209924e+002;2.511009e-001
6.229210e+002;2.449969e-001
6.248495e+002;2.412418e-001
6.267781e+002;2.473914e-001
6.287067e+002;2.509802e-001
6.306352e+002;2.454590e-001
6.325637e+002;2.427776e-001
6.344923e+002;2.416086e-001
6.364208e+002;2.369087e-001
6.383494e+002;2.334419e-001
6.402780e+002;2.327642e-001
6.422065e+002;2.320760e-001
6.441350e+002;2.323305e-001
6.460636e+002;2.361380e-001
6.479921e+002;2.364645e-001
6.499207e+002;2.331865e-001
6.518492e+002;2.294327e-001
6.537778e+002;2.320696e-001
6.557063e+002;2.381622e-001
6.576349e+002;2.401279e-001
6.595634e+002;2.403667e-001
6.614919e+002;2.422529e-001
6.634205e+002;2.439102e-001
6.653491e+002;2.444139e-001
6.672776e+002;2.418869e-001
6.692062e+002;2.372355e-001
6.711347e+002;2.336140e-001
6.730632e+002;2.305032e-001
6.749918e+002;2.284626e-001
6.769203e+002;2.254559e-001
6.788489e+002;2.208898e-001
6.807775e+002;2.157437e-001
6.827060e+002;2.135667e-001
6.846345e+002;2.127199e-001
6.865631e+002;2.099614e-001
6.884916e+002;2.084250e-001
6.904202e+002;2.089535e-001
6.923488e+002;2.096794e-001
6.942773e+002;2.087068e-001
6.962058e+002;2.076827e-001
6.981344e+002;2.062450e-001
7.000629e+002;2.052189e-001
7.019915e+002;2.039489e-001
7.039200e+002;2.028054e-001
7.058486e+002;2.015443e-001
7.077771e+002;2.002254e-001
7.097057e+002;1.995178e-001
7.116342e+002;1.995012e-001
7.135627e+002;1.987930e-001
7.154913e+002;1.974344e-001
7.174199e+002;1.957248e-001
7.193484e+002;1.929826e-001
7.212770e+002;1.902337e-001
7.232055e+002;1.889387e-001
7.251340e+002;1.876233e-001
7.270626e+002;1.849957e-001
7.289911e+002;1.831587e-001
7.309197e+002;1.809193e-001
7.328483e+002;1.786949e-001
7.347768e+002;1.769674e-001
7.367053e+002;1.757996e-001
7.386339e+002;1.749129e-001
7.405624e+002;1.741752e-001
7.424910e+002;1.729633e-001
7.444196e+002;1.715894e-001
7.463481e+002;1.708716e-001
7.482766e+002;1.695419e-001
7.502052e+002;1.669419e-001
7.521337e+002;1.658026e-001
7.540623e+002;1.669304e-001
7.559908e+002;1.668623e-001
7.579194e+002;1.649958e-001
7.598479e+002;1.631090e-001
7.617765e+002;1.626474e-001
7.637050e+002;1.630425e-001
7.656335e+002;1.625887e-001
7.675621e+002;1.609170e-001
7.694907e+002;1.595249e-001
7.714192e+002;1.582227e-001
7.733478e+002;1.569364e-001
7.752763e+002;1.561368e-001
7.772048e+002;1.551866e-001
7.791334e+002;1.545040e-001
7.810620e+002;1.535660e-001
7.829905e+002;1.527051e-001
7.849191e+002;1.520951e-001
7.868476e+002;1.516270e-001
7.887761e+002;1.514075e-001
7.907047e+002;1.509358e-001
7.926332e+002;1.508085e-001
7.945618e+002;1.505616e-001
7.964903e+002;1.502057e-001
7.984189e+002;1.504972e-001
8.003474e+002;1.505308e-001
8.022759e+002;1.504245e-001
8.042045e+002;1.505595e-001
8.061331e+002;1.512064e-001
8.080616e+002;1.519586e-001
8.099902e+002;1.529945e-001
8.119187e+002;1.536671e-001
8.138472e+002;1.538353e-001
8.157758e+002;1.546288e-001
8.177043e+002;1.553943e-001
8.196329e+002;1.560270e-001
8.215615e+002;1.565438e-001
8.234900e+002;1.570922e-001
8.254185e+002;1.574934e-001
8.273471e+002;1.576565e-001
8.292756e+002;1.581877e-001
8.312042e+002;1.589902e-001
8.331328e+002;1.592056e-001
8.350613e+002;1.580526e-001
8.369898e+002;1.564364e-001
8.389184e+002;1.559684e-001
8.408469e+002;1.557548e-001
8.427755e+002;1.544165e-001
8.447040e+002;1.535110e-001
8.466326e+002;1.537402e-001
8.485611e+002;1.536504e-001
8.504897e+002;1.533679e-001
8.524182e+002;1.534358e-001
8.543467e+002;1.537232e-001
8.562753e+002;1.542120e-001
8.582039e+002;1.552890e-001
8.601324e+002;1.561613e-001
8.620610e+002;1.571850e-001
8.639895e+002;1.590678e-001
8.659180e+002;1.610893e-001
8.678466e+002;1.634051e-001
8.697751e+002;1.657254e-001
8.717037e+002;1.678388e-001
8.736323e+002;1.706706e-001
8.755608e+002;1.736189e-001
8.774893e+002;1.764413e-001
8.794179e+002;1.792570e-001
8.813464e+002;1.817828e-001
8.832750e+002;1.849941e-001
8.852036e+002;1.892429e-001
8.871321e+002;1.932238e-001
8.890606e+002;1.971818e-001
8.909892e+002;2.005032e-001
8.929177e+002;2.029575e-001
8.948463e+002;2.045919e-001
8.967748e+002;2.055335e-001
8.987034e+002;2.057362e-001
9.006319e+002;2.047639e-001
9.025605e+002;2.027912e-001
9.044890e+002;2.005236e-001
9.064175e+002;1.985871e-001
9.083461e+002;1.965936e-001
9.102747e+002;1.950461e-001
9.122032e+002;1.943111e-001
9.141318e+002;1.937647e-001
9.160603e+002;1.932650e-001
9.179888e+002;1.927550e-001
9.199174e+002;1.936644e-001
9.218459e+002;1.954895e-001
9.237745e+002;1.965058e-001
9.257031e+002;1.973860e-001
9.276316e+002;1.981789e-001
9.295601e+002;1.989501e-001
9.314887e+002;2.004247e-001
9.334172e+002;2.019398e-001
9.353458e+002;2.033451e-001
9.372744e+002;2.055180e-001
9.392029e+002;2.089145e-001
9.411314e+002;2.127495e-001
9.430600e+002;2.166327e-001
9.449885e+002;2.206953e-001
9.469171e+002;2.253505e-001
9.488456e+002;2.312990e-001
9.507742e+002;2.379585e-001
9.527027e+002;2.443694e-001
9.546313e+002;2.505423e-001
9.565598e+002;2.568738e-001
9.584883e+002;2.630662e-001
9.604169e+002;2.693419e-001
9.623455e+002;2.760774e-001
9.642740e+002;2.827257e-001
9.662026e+002;2.888954e-001
9.681311e+002;2.952703e-001
9.700596e+002;3.023798e-001
9.719882e+002;3.098857e-001
9.739167e+002;3.182932e-001
9.758453e+002;3.277683e-001
9.777739e+002;3.382758e-001
9.797024e+002;3.490705e-001
9.816309e+002;3.590202e-001
9.835595e+002;3.680274e-001
9.854880e+002;3.752019e-001
9.874166e+002;3.807161e-001
9.893452e+002;3.848714e-001
9.912737e+002;3.876571e-001
9.932022e+002;3.916199e-001
9.951307e+002;3.963332e-001
9.970593e+002;4.005197e-001
9.989879e+002;4.047051e-001
1.000916e+003;4.096712e-001
1.002845e+003;4.151231e-001
1.004773e+003;4.206056e-001
1.006702e+003;4.264938e-001
1.008631e+003;4.325798e-001
1.010559e+003;4.379556e-001
1.012488e+003;4.434876e-001
1.014416e+003;4.496315e-001
1.016345e+003;4.548924e-001
1.018273e+003;4.596580e-001
1.020202e+003;4.636992e-001
1.022130e+003;4.672913e-001
1.024059e+003;4.704432e-001
1.025988e+003;4.717503e-001
1.027916e+003;4.719273e-001
1.029845e+003;4.716863e-001
1.031773e+003;4.713137e-001
1.033702e+003;4.691837e-001
1.035630e+003;4.651359e-001
1.037559e+003;4.612515e-001
1.039487e+003;4.576564e-001
1.041416e+003;4.537311e-001
1.043344e+003;4.503652e-001
1.045273e+003;4.473614e-001
1.047202e+003;4.439849e-001
1.049130e+003;4.404366e-001
1.051059e+003;4.361016e-001
1.052987e+003;4.311431e-001
1.054916e+003;4.250781e-001
1.056844e+003;4.172642e-001
1.058773e+003;4.090275e-001
1.060701e+003;3.999958e-001
1.062630e+003;3.897098e-001
1.064558e+003;3.795627e-001
1.066487e+003;3.700169e-001
1.068416e+003;3.615673e-001
1.070344e+003;3.536911e-001
1.072273e+003;3.470443e-001
1.074201e+003;3.412807e-001
1.076130e+003;3.354214e-001
1.078058e+003;3.300133e-001
1.079987e+003;3.256848e-001
1.081915e+003;3.219454e-001
1.083844e+003;3.186344e-001
1.085773e+003;3.158440e-001
1.087701e+003;3.139177e-001
1.089630e+003;3.124031e-001
1.091558e+003;3.109781e-001
1.093487e+003;3.096883e-001
1.095415e+003;3.084755e-001
1.097344e+003;3.080417e-001
1.099272e+003;3.067197e-001
1.101201e+003;3.034527e-001
1.103129e+003;3.000852e-001
1.105058e+003;2.953313e-001
1.106987e+003;2.894275e-001
1.108915e+003;2.832721e-001
1.110844e+003;2.758663e-001
1.112772e+003;2.686196e-001
1.114701e+003;2.614946e-001
1.116629e+003;2.534412e-001
1.118558e+003;2.457846e-001
1.120486e+003;2.386436e-001
1.122415e+003;2.322693e-001
1.124344e+003;2.267810e-001
1.126272e+003;2.207751e-001
1.128201e+003;2.146975e-001
1.130129e+003;2.092705e-001
1.132058e+003;2.040305e-001
1.133986e+003;1.993228e-001
1.135915e+003;1.957826e-001
1.137843e+003;1.932586e-001
1.139772e+003;1.913144e-001
1.141700e+003;1.899037e-001
1.143629e+003;1.896399e-001
1.145557e+003;1.899614e-001
1.147486e+003;1.901974e-001
1.149415e+003;1.902039e-001
1.151343e+003;1.900459e-001
1.153272e+003;1.895140e-001
1.155200e+003;1.887511e-001
1.157129e+003;1.882179e-001
1.159057e+003;1.866281e-001
1.160986e+003;1.836210e-001
1.162914e+003;1.793507e-001
1.164843e+003;1.741417e-001
1.166771e+003;1.687107e-001
1.168700e+003;1.627716e-001
1.170629e+003;1.569195e-001
1.172557e+003;1.513722e-001
1.174486e+003;1.459241e-001
1.176414e+003;1.413147e-001
1.178343e+003;1.378103e-001
1.180271e+003;1.352683e-001
1.182200e+003;1.336348e-001
1.184128e+003;1.324556e-001
1.186057e+003;1.317172e-001
1.187986e+003;1.314569e-001
1.189914e+003;1.319286e-001
1.191843e+003;1.338679e-001
1.193771e+003;1.362412e-001
1.195700e+003;1.385033e-001
1.197628e+003;1.415345e-001
1.199557e+003;1.448764e-001
1.201485e+003;1.473832e-001
1.203414e+003;1.493401e-001
1.205343e+003;1.516143e-001
1.207271e+003;1.539333e-001
1.209200e+003;1.559230e-001
1.211128e+003;1.584031e-001
1.213057e+003;1.616328e-001
1.214985e+003;1.653800e-001
1.216914e+003;1.695021e-001
1.218842e+003;1.744202e-001
1.220771e+003;1.795948e-001
1.222699e+003;1.843693e-001
1.224628e+003;1.884958e-001
1.226557e+003;1.917700e-001
1.228485e+003;1.951476e-001
1.230414e+003;1.976987e-001
1.232342e+003;1.990907e-001
1.234271e+003;1.998086e-001
1.236199e+003;2.001750e-001
1.238128e+003;2.003120e-001
1.240056e+003;2.000311e-001
1.241985e+003;1.994348e-001
1.243913e+003;1.982846e-001
1.245842e+003;1.966842e-001
1.247771e+003;1.947657e-001
1.249699e+003;1.920777e-001
1.251628e+003;1.896702e-001
1.253556e+003;1.873940e-001
1.255485e+003;1.843006e-001
1.257413e+003;1.816062e-001
1.259342e+003;1.791712e-001
1.261270e+003;1.758224e-001
1.263199e+003;1.725150e-001
1.265127e+003;1.697989e-001
1.267056e+003;1.670108e-001
1.268985e+003;1.639947e-001
1.270913e+003;1.616442e-001
1.272842e+003;1.595541e-001
1.274770e+003;1.570360e-001
1.276699e+003;1.544378e-001
1.278627e+003;1.519529e-001
1.280556e+003;1.496162e-001
1.282484e+003;1.475754e-001
1.284413e+003;1.462879e-001
1.286342e+003;1.448855e-001
1.288270e+003;1.436664e-001
1.290199e+003;1.433917e-001
1.292127e+003;1.434079e-001
1.294056e+003;1.437856e-001
1.295984e+003;1.447613e-001
1.297913e+003;1.462068e-001
1.299841e+003;1.478932e-001
1.301770e+003;1.499163e-001
1.303698e+003;1.523585e-001
1.305627e+003;1.550005e-001
1.307556e+003;1.580637e-001
1.309484e+003;1.614689e-001
1.311413e+003;1.641675e-001
1.313341e+003;1.662639e-001
1.315270e+003;1.675484e-001
1.317198e+003;1.677443e-001
1.319127e+003;1.673306e-001
1.321055e+003;1.666538e-001
1.322984e+003;1.659101e-001
1.324912e+003;1.652492e-001
1.326841e+003;1.650245e-001
1.328770e+003;1.652160e-001
1.330698e+003;1.654678e-001
1.332627e+003;1.655999e-001
1.334555e+003;1.656064e-001
1.336484e+003;1.646404e-001
1.338412e+003;1.632620e-001
1.340341e+003;1.617513e-001
1.342269e+003;1.603518e-001
1.344198e+003;1.593128e-001
1.346126e+003;1.581283e-001
1.348055e+003;1.571776e-001
1.349984e+003;1.569501e-001
1.351912e+003;1.573640e-001
1.353841e+003;1.584246e-001
1.355769e+003;1.595057e-001
1.357698e+003;1.612411e-001
1.359626e+003;1.637562e-001
1.361555e+003;1.657071e-001
1.363483e+003;1.668981e-001
1.365412e+003;1.672821e-001
1.367341e+003;1.672343e-001
1.369269e+003;1.671191e-001
1.371198e+003;1.663201e-001
1.373126e+003;1.646288e-001
1.375055e+003;1.621611e-001
1.376983e+003;1.592293e-001
1.378912e+003;1.562480e-001
1.380840e+003;1.531655e-001
1.382769e+003;1.501977e-001
1.384698e+003;1.475427e-001
1.386626e+003;1.450154e-001
1.388555e+003;1.429699e-001
1.390483e+003;1.417527e-001
1.392412e+003;1.412542e-001
1.394340e+003;1.410872e-001
1.396269e+003;1.413091e-001
1.398197e+003;1.419045e-001
1.400126e+003;1.423381e-001
1.402054e+003;1.429794e-001
1.403983e+003;1.445369e-001
1.405911e+003;1.467318e-001
1.407840e+003;1.486522e-001
1.409769e+003;1.502084e-001
1.411697e+003;1.522150e-001
1.413626e+003;1.544391e-001
1.415554e+003;1.561436e-001
1.417483e+003;1.577825e-001
1.419411e+003;1.589982e-001
1.421340e+003;1.598291e-001
1.423268e+003;1.602502e-001
1.425197e+003;1.597441e-001
1.427125e+003;1.587602e-001
1.429054e+003;1.572401e-001
1.430983e+003;1.553308e-001
1.432911e+003;1.533794e-001
1.434840e+003;1.513057e-001
1.436768e+003;1.493533e-001
1.438697e+003;1.474095e-001
1.440625e+003;1.456134e-001
1.442554e+003;1.443630e-001
1.444482e+003;1.432997e-001
1.446411e+003;1.419776e-001
1.448340e+003;1.405063e-001
1.450268e+003;1.396032e-001
1.452197e+003;1.385801e-001
1.454125e+003;1.371131e-001
1.456054e+003;1.355553e-001
1.457982e+003;1.339853e-001
1.459911e+003;1.322111e-001
1.461839e+003;1.302648e-001
1.463768e+003;1.283317e-001
1.465697e+003;1.255890e-001
1.467625e+003;1.223603e-001
1.469554e+003;1.189893e-001
1.471482e+003;1.154453e-001
1.473411e+003;1.119005e-001
1.475339e+003;1.086098e-001
1.477268e+003;1.056378e-001
1.479196e+003;1.027649e-001
1.481125e+003;1.004550e-001
1.483053e+003;9.891972e-002
1.484982e+003;9.758092e-002
1.486911e+003;9.645913e-002
1.488839e+003;9.567831e-002
1.490768e+003;9.514524e-002
1.492696e+003;9.487757e-002
1.494625e+003;9.520378e-002
1.496553e+003;9.605810e-002
1.498482e+003;9.687547e-002
1.500410e+003;9.735631e-002
1.502339e+003;9.746661e-002
1.504267e+003;9.732521e-002
1.506196e+003;9.699563e-002
1.508125e+003;9.617944e-002
1.510053e+003;9.502592e-002
1.511982e+003;9.359747e-002
1.513910e+003;9.236142e-002
1.515839e+003;9.099410e-002
1.517767e+003;8.946812e-002
1.519696e+003;8.795295e-002
1.521624e+003;8.666006e-002
1.523553e+003;8.591054e-002
1.525481e+003;8.529156e-002
1.527410e+003;8.506963e-002
1.529339e+003;8.514307e-002
1.531267e+003;8.528301e-002
1.533196e+003;8.522116e-002
1.535124e+003;8.504602e-002
1.537053e+003;8.506189e-002
1.538981e+003;8.519475e-002
1.540910e+003;8.514816e-002
1.542838e+003;8.529212e-002
1.544767e+003;8.577818e-002
1.546695e+003;8.617209e-002
1.548624e+003;8.679219e-002
1.550553e+003;8.786086e-002
1.552481e+003;8.877341e-002
1.554410e+003;8.970742e-002
1.556338e+003;9.104886e-002
1.558267e+003;9.262007e-002
1.560195e+003;9.392469e-002
1.562124e+003;9.523266e-002
1.564052e+003;9.666117e-002
1.565981e+003;9.850715e-002
1.567910e+003;1.010137e-001
1.569838e+003;1.035400e-001
1.571767e+003;1.063484e-001
1.573695e+003;1.094022e-001
1.575624e+003;1.127917e-001
1.577552e+003;1.168399e-001
1.579481e+003;1.214322e-001
1.581409e+003;1.265761e-001
1.583338e+003;1.319337e-001
1.585266e+003;1.372381e-001
1.587195e+003;1.424963e-001
1.589124e+003;1.471781e-001
1.591052e+003;1.507764e-001
1.592981e+003;1.537742e-001
1.594909e+003;1.554102e-001
1.596838e+003;1.558555e-001
1.598766e+003;1.561177e-001
1.600695e+003;1.558269e-001
1.602623e+003;1.554123e-001
1.604552e+003;1.551005e-001
1.606480e+003;1.547054e-001
1.608409e+003;1.541743e-001
1.610338e+003;1.538655e-001
1.612266e+003;1.535667e-001
1.614195e+003;1.528910e-001
1.616123e+003;1.518095e-001
1.618052e+003;1.509086e-001
1.619980e+003;1.500908e-001
1.621909e+003;1.487998e-001
1.623837e+003;1.472811e-001
1.625766e+003;1.463099e-001
1.627694e+003;1.451002e-001
1.629623e+003;1.437747e-001
1.631552e+003;1.428221e-001
1.633480e+003;1.417193e-001
1.635409e+003;1.402782e-001
1.637337e+003;1.388604e-001
1.639266e+003;1.375306e-001
1.641194e+003;1.359756e-001
1.643123e+003;1.345874e-001
1.645051e+003;1.331644e-001
1.646980e+003;1.313035e-001
1.648909e+003;1.293989e-001
1.650837e+003;1.276627e-001
1.652766e+003;1.258132e-001
1.654694e+003;1.239784e-001
1.656623e+003;1.222930e-001
1.658551e+003;1.203616e-001
1.660480e+003;1.182447e-001
1.662408e+003;1.162941e-001
1.664337e+003;1.144347e-001
1.666266e+003;1.126291e-001
1.668194e+003;1.107143e-001
1.670123e+003;1.087137e-001
1.672051e+003;1.070182e-001
1.673980e+003;1.053621e-001
1.675908e+003;1.036027e-001
1.677837e+003;1.022212e-001
1.679765e+003;1.010385e-001
1.681694e+003;9.977593e-002
1.683622e+003;9.823981e-002
1.685551e+003;9.701286e-002
1.687479e+003;9.652235e-002
1.689408e+003;9.621244e-002
1.691337e+003;9.620164e-002
1.693265e+003;9.670559e-002
1.695194e+003;9.735677e-002
1.697122e+003;9.816965e-002
1.699051e+003;9.931136e-002
1.700979e+003;1.009725e-001
1.702908e+003;1.031048e-001
1.704836e+003;1.051692e-001
1.706765e+003;1.073607e-001
1.708693e+003;1.100449e-001
1.710622e+003;1.129434e-001
1.712551e+003;1.156560e-001
1.714479e+003;1.184388e-001
1.716408e+003;1.210924e-001
1.718336e+003;1.234023e-001
1.720265e+003;1.257709e-001
1.722193e+003;1.280678e-001
1.724122e+003;1.298917e-001
1.726050e+003;1.313516e-001
1.727979e+003;1.323526e-001
1.729908e+003;1.332419e-001
1.731836e+003;1.338737e-001
1.733765e+003;1.337821e-001
1.735693e+003;1.332459e-001
1.737622e+003;1.324993e-001
1.739550e+003;1.308929e-001
1.741479e+003;1.283932e-001
1.743407e+003;1.254313e-001
1.745336e+003;1.220364e-001
1.747265e+003;1.182638e-001
1.749193e+003;1.142620e-001
1.751122e+003;1.101412e-001
1.753050e+003;1.063339e-001
1.754979e+003;1.029762e-001
1.756907e+003;9.902450e-002
1.758836e+003;9.474584e-002
1.760764e+003;9.085035e-002
1.762693e+003;8.742575e-002
1.764621e+003;8.400917e-002
1.766550e+003;8.048233e-002
1.768479e+003;7.725453e-002
1.770407e+003;7.417076e-002
1.772336e+003;7.151326e-002
1.774264e+003;6.935408e-002
1.776193e+003;6.756766e-002
1.778121e+003;6.585287e-002
1.780050e+003;6.399591e-002
1.781978e+003;6.227387e-002
1.783907e+003;6.089356e-002
1.785835e+003;5.980423e-002
1.787764e+003;5.887060e-002
1.789693e+003;5.791535e-002
1.791621e+003;5.709088e-002
1.793550e+003;5.657174e-002
1.795478e+003;5.603359e-002
1.797407e+003;5.538515e-002
1.799335e+003;5.500586e-002
1.801264e+003;5.459053e-002
1.803192e+003;5.406671e-002
1.805121e+003;5.377849e-002
1.807049e+003;5.345864e-002
1.808978e+003;5.300641e-002
1.810907e+003;5.246364e-002
1.812835e+003;5.217536e-002
1.814764e+003;5.222719e-002
1.816692e+003;5.191277e-002
1.818621e+003;5.149039e-002
1.820549e+003;5.140180e-002
1.822478e+003;5.105150e-002
1.824406e+003;5.074635e-002
1.826335e+003;5.093695e-002
1.828264e+003;5.100764e-002
1.830192e+003;5.096124e-002
1.832121e+003;5.077104e-002
1.834049e+003;5.022744e-002
1.835978e+003;4.984479e-002
1.837906e+003;4.959467e-002
1.839835e+003;4.934834e-002
1.841763e+003;4.945942e-002
1.843692e+003;4.939241e-002
1.845620e+003;4.913895e-002
1.847549e+003;4.899910e-002
1.849478e+003;4.890067e-002
1.851406e+003;4.859558e-002
1.853335e+003;4.816575e-002
1.855263e+003;4.799634e-002
1.857192e+003;4.769684e-002
1.859120e+003;4.748089e-002
1.861049e+003;4.760969e-002
1.862977e+003;4.765084e-002
1.864906e+003;4.762607e-002
1.866834e+003;4.768996e-002
1.868763e+003;4.768460e-002
1.870692e+003;4.764178e-002
1.872620e+003;4.764167e-002
1.874549e+003;4.750204e-002
1.876477e+003;4.735550e-002
1.878406e+003;4.756603e-002
1.880334e+003;4.754137e-002
1.882263e+003;4.724525e-002
1.884191e+003;4.702539e-002
1.886120e+003;4.699072e-002
1.888048e+003;4.691467e-002
1.889977e+003;4.681265e-002
1.891906e+003;4.683930e-002
1.893834e+003;4.676162e-002
1.895763e+003;4.689695e-002
1.897691e+003;4.734807e-002
1.899620e+003;4.732779e-002
1.901548e+003;4.729165e-002
1.903477e+003;4.738654e-002
1.905405e+003;4.737527e-002
1.907334e+003;4.737320e-002
1.909262e+003;4.740162e-002
1.911191e+003;4.741869e-002
1.913120e+003;4.771544e-002
1.915048e+003;4.798242e-002
1.916977e+003;4.807091e-002
1.918905e+003;4.803205e-002
1.920834e+003;4.789118e-002
1.922762e+003;4.802768e-002
1.924691e+003;4.831700e-002
1.926619e+003;4.825227e-002
1.928548e+003;4.818474e-002
1.930477e+003;4.844368e-002
1.932405e+003;4.870232e-002
1.934334e+003;4.869238e-002
1.936262e+003;4.858480e-002
1.938191e+003;4.883162e-002
1.940119e+003;4.913339e-002
1.942048e+003;4.888965e-002
1.943976e+003;4.879855e-002
1.945905e+003;4.918827e-002
1.947833e+003;4.936939e-002
1.949762e+003;4.940325e-002
1.951691e+003;4.937952e-002
1.953619e+003;4.943217e-002
1.955548e+003;4.965581e-002
1.957476e+003;4.977292e-002
1.959405e+003;4.981245e-002
1.961333e+003;4.984668e-002
1.963262e+003;4.971570e-002
1.965190e+003;4.976114e-002
1.967119e+003;4.969281e-002
1.969047e+003;4.963791e-002
1.970976e+003;4.954665e-002
1.972905e+003;4.940978e-002
1.974833e+003;4.944490e-002
1.976762e+003;4.956292e-002
1.978690e+003;4.981354e-002
1.980619e+003;5.004619e-002
1.982547e+003;5.013357e-002
1.984476e+003;5.005987e-002
1.986404e+003;5.007523e-002
1.988333e+003;5.038597e-002
1.990261e+003;5.046419e-002
1.992190e+003;5.053509e-002
1.994119e+003;5.083939e-002
1.996047e+003;5.106767e-002
1.997976e+003;5.128768e-002
1.999904e+003;5.147207e-002
2.001833e+003;5.147267e-002
2.003761e+003;5.143783e-002
2.005690e+003;5.157579e-002
2.007618e+003;5.177714e-002
2.009547e+003;5.190388e-002
2.011476e+003;5.210542e-002
2.013404e+003;5.235755e-002
2.015333e+003;5.261191e-002
2.017261e+003;5.284068e-002
2.019190e+003;5.297886e-002
2.021118e+003;5.296643e-002
2.023047e+003;5.290198e-002
2.024975e+003;5.306111e-002
2.026904e+003;5.318591e-002
2.028833e+003;5.309634e-002
2.030761e+003;5.337508e-002
2.032690e+003;5.378262e-002
2.034618e+003;5.383276e-002
2.036547e+003;5.406825e-002
2.038475e+003;5.443335e-002
2.040404e+003;5.451103e-002
2.042332e+003;5.467466e-002
2.044261e+003;5.467064e-002
2.046189e+003;5.471073e-002
2.048118e+003;5.490707e-002
2.050047e+003;5.476099e-002
2.051975e+003;5.466628e-002
2.053904e+003;5.491414e-002
2.055832e+003;5.502312e-002
2.057761e+003;5.495201e-002
2.059689e+003;5.497307e-002
2.061618e+003;5.507442e-002
2.063546e+003;5.501496e-002
2.065475e+003;5.485079e-002
2.067404e+003;5.504475e-002
2.069332e+003;5.523917e-002
2.071260e+003;5.516279e-002
2.073189e+003;5.507867e-002
2.075118e+003;5.508635e-002
2.077046e+003;5.506758e-002
2.078975e+003;5.497168e-002
2.080903e+003;5.501439e-002
2.082832e+003;5.485974e-002
2.084760e+003;5.477501e-002
2.086689e+003;5.480903e-002
2.088617e+003;5.484045e-002
2.090546e+003;5.490801e-002
2.092475e+003;5.494050e-002
2.094403e+003;5.498356e-002
2.096332e+003;5.523913e-002
2.098260e+003;5.541496e-002
2.100189e+003;5.572435e-002
2.102117e+003;5.606604e-002
2.104046e+003;5.613907e-002
2.105974e+003;5.599397e-002
2.107903e+003;5.584254e-002
2.109832e+003;5.603935e-002
2.111760e+003;5.641627e-002
2.113688e+003;5.650747e-002
2.115617e+003;5.653159e-002
2.117546e+003;5.659171e-002
2.119474e+003;5.632101e-002
2.121403e+003;5.641721e-002
2.123331e+003;5.659420e-002
2.125260e+003;5.670073e-002
2.127188e+003;5.659722e-002
2.129117e+003;5.649019e-002
2.131045e+003;5.662262e-002
2.132974e+003;5.655370e-002
2.134903e+003;5.655683e-002
2.136831e+003;5.670617e-002
2.138760e+003;5.653317e-002
2.140688e+003;5.629215e-002
2.142617e+003;5.630128e-002
2.144545e+003;5.663225e-002
2.146474e+003;5.664425e-002
2.148402e+003;5.630429e-002
2.150331e+003;5.621627e-002
2.152260e+003;5.619228e-002
2.154188e+003;5.609085e-002
2.156117e+003;5.595371e-002
2.158045e+003;5.595096e-002
2.159974e+003;5.581002e-002
2.161902e+003;5.543740e-002
2.163831e+003;5.532572e-002
2.165759e+003;5.534920e-002
2.167688e+003;5.509895e-002
2.169616e+003;5.482132e-002
2.171545e+003;5.458181e-002
2.173474e+003;5.445668e-002
2.175402e+003;5.455592e-002
2.177331e+003;5.474648e-002
2.179259e+003;5.467105e-002
2.181188e+003;5.437822e-002
2.183116e+003;5.396154e-002
2.185045e+003;5.369854e-002
2.186973e+003;5.347539e-002
2.188902e+003;5.320464e-002
2.190831e+003;5.317505e-002
2.192759e+003;5.309219e-002
2.194688e+003;5.285737e-002
2.196616e+003;5.266854e-002
2.198545e+003;5.270457e-002
2.200473e+003;5.285341e-002
2.202402e+003;5.278927e-002
2.204330e+003;5.255978e-002
2.206259e+003;5.240693e-002
2.208188e+003;5.245620e-002
2.210116e+003;5.256969e-002
2.212044e+003;5.266233e-002
2.213973e+003;5.256329e-002
2.215902e+003;5.241871e-002
2.217830e+003;5.244573e-002
2.219759e+003;5.247329e-002
2.221687e+003;5.243725e-002
2.223616e+003;5.269649e-002
2.225544e+003;5.292339e-002
2.227473e+003;5.265414e-002
2.229401e+003;5.243056e-002
2.231330e+003;5.267056e-002
2.233259e+003;5.293956e-002
2.235187e+003;5.287676e-002
2.237116e+003;5.265874e-002
2.239044e+003;5.256494e-002
2.240973e+003;5.239444e-002
2.242901e+003;5.221583e-002
2.244830e+003;5.226695e-002
2.246758e+003;5.270931e-002
2.248687e+003;5.283802e-002
2.250615e+003;5.258929e-002
2.252544e+003;5.234383e-002
2.254473e+003;5.242521e-002
2.256401e+003;5.257332e-002
2.258330e+003;5.250507e-002
2.260258e+003;5.258895e-002
2.262187e+003;5.255350e-002
2.264115e+003;5.229251e-002
2.266044e+003;5.206567e-002
2.267972e+003;5.208648e-002
2.269901e+003;5.191034e-002
2.271830e+003;5.186069e-002
2.273758e+003;5.194515e-002
2.275687e+003;5.174328e-002
2.277615e+003;5.147047e-002
2.279544e+003;5.154721e-002
2.281472e+003;5.175492e-002
2.283401e+003;5.176814e-002
2.285329e+003;5.160642e-002
2.287258e+003;5.163187e-002
2.289187e+003;5.187181e-002
2.291115e+003;5.185493e-002
2.293043e+003;5.174346e-002
2.294972e+003;5.167845e-002
2.296901e+003;5.173921e-002
2.298829e+003;5.183425e-002
2.300758e+003;5.170924e-002
2.302686e+003;5.146816e-002
2.304615e+003;5.140937e-002
2.306543e+003;5.151344e-002
2.308472e+003;5.166393e-002
2.310400e+003;5.149793e-002
2.312329e+003;5.128858e-002
2.314258e+003;5.114467e-002
2.316186e+003;5.114184e-002
2.318115e+003;5.125461e-002
2.320043e+003;5.128731e-002
2.321972e+003;5.118225e-002
2.323900e+003;5.119008e-002
2.325829e+003;5.140157e-002
2.327757e+003;5.148882e-002
2.329686e+003;5.158896e-002
2.331615e+003;5.171487e-002
2.333543e+003;5.187764e-002
2.335472e+003;5.204887e-002
2.337400e+003;5.203381e-002
2.339329e+003;5.193410e-002
2.341257e+003;5.191744e-002
2.343186e+003;5.226340e-002
2.345114e+003;5.245033e-002
2.347043e+003;5.234618e-002
2.348971e+003;5.216479e-002
2.350900e+003;5.209447e-002
2.352829e+003;5.217103e-002
2.354757e+003;5.238390e-002
2.356686e+003;5.275458e-002
2.358614e+003;5.273210e-002
2.360543e+003;5.280887e-002
2.362471e+003;5.311289e-002
2.364400e+003;5.343593e-002
2.366328e+003;5.357138e-002
2.368257e+003;5.376664e-002
2.370186e+003;5.383831e-002
2.372114e+003;5.363530e-002
2.374042e+003;5.377737e-002
2.375971e+003;5.414312e-002
2.377900e+003;5.425765e-002
2.379828e+003;5.430564e-002
2.381757e+003;5.452159e-002
2.383685e+003;5.483748e-002
2.385614e+003;5.537111e-002
2.387542e+003;5.582735e-002
2.389471e+003;5.596057e-002
2.391399e+003;5.577272e-002
2.393328e+003;5.567335e-002
2.395257e+003;5.571927e-002
2.397185e+003;5.579133e-002
2.399114e+003;5.595665e-002
2.401042e+003;5.613187e-002
2.402971e+003;5.624372e-002
2.404899e+003;5.624493e-002
2.406828e+003;5.642094e-002
2.408756e+003;5.671708e-002
2.410685e+003;5.673297e-002
2.412614e+003;5.678656e-002
2.414542e+003;5.725317e-002
2.416471e+003;5.757757e-002
2.418399e+003;5.717444e-002
2.420328e+003;5.711816e-002
2.422256e+003;5.756425e-002
2.424185e+003;5.776405e-002
2.426113e+003;5.767091e-002
2.428042e+003;5.784754e-002
2.429970e+003;5.828632e-002
2.431899e+003;5.850407e-002
2.433828e+003;5.845797e-002
2.435756e+003;5.845808e-002
2.437685e+003;5.876684e-002
2.439613e+003;5.915194e-002
2.441542e+003;5.950295e-002
2.443470e+003;5.975910e-002
2.445399e+003;5.994195e-002
2.447327e+003;5.993929e-002
2.449256e+003;5.998680e-002
2.451185e+003;6.012613e-002
2.453113e+003;6.017024e-002
2.455042e+003;6.029935e-002
2.456970e+003;6.065765e-002
2.458899e+003;6.082845e-002
2.460827e+003;6.079808e-002
2.462756e+003;6.089764e-002
2.464684e+003;6.108077e-002
2.466613e+003;6.133458e-002
2.468542e+003;6.154661e-002
2.470470e+003;6.172838e-002
2.472398e+003;6.196693e-002
2.474327e+003;6.225766e-002
2.476256e+003;6.258069e-002
2.478184e+003;6.256656e-002
2.480113e+003;6.217204e-002
2.482041e+003;6.218539e-002
2.483970e+003;6.255443e-002
2.485898e+003;6.258191e-002
2.487827e+003;6.237461e-002
2.489755e+003;6.256948e-002
2.491684e+003;6.317741e-002
2.493613e+003;6.353423e-002
2.495541e+003;6.359161e-002
2.497470e+003;6.366055e-002
2.499398e+003;6.388546e-002
2.501327e+003;6.405492e-002
2.503255e+003;6.398354e-002
2.505184e+003;6.406906e-002
2.507112e+003;6.433173e-002
2.509041e+003;6.455026e-002
2.510969e+003;6.472206e-002
2.512898e+003;6.489554e-002
2.514827e+003;6.512760e-002
2.516755e+003;6.531815e-002
2.518684e+003;6.557241e-002
2.520612e+003;6.556832e-002
2.522541e+003;6.556628e-002
2.524469e+003;6.546765e-002
2.526398e+003;6.532463e-002
2.528326e+003;6.544726e-002
2.530255e+003;6.555022e-002
2.532184e+003;6.556331e-002
2.534112e+003;6.564286e-002
2.536041e+003;6.585762e-002
2.537969e+003;6.585068e-002
2.539898e+003;6.583568e-002
2.541826e+003;6.624855e-002
2.543755e+003;6.635003e-002
2.545683e+003;6.640597e-002
2.547612e+003;6.656031e-002
2.549541e+003;6.682222e-002
2.551469e+003;6.699615e-002
2.553397e+003;6.699375e-002
2.555326e+003;6.683342e-002
2.557255e+003;6.689325e-002
2.559183e+003;6.707828e-002
2.561112e+003;6.689537e-002
2.563040e+003;6.674242e-002
2.564969e+003;6.677654e-002
2.566897e+003;6.711482e-002
2.568826e+003;6.760611e-002
2.570754e+003;6.786182e-002
2.572683e+003;6.805365e-002
2.574612e+003;6.795650e-002
2.576540e+003;6.769381e-002
2.578469e+003;6.779628e-002
2.580397e+003;6.830388e-002
2.582326e+003;6.846631e-002
2.584254e+003;6.828539e-002
2.586183e+003;6.829438e-002
2.588111e+003;6.849832e-002
2.590040e+003;6.873810e-002
2.591969e+003;6.888691e-002
2.593897e+003;6.902128e-002
2.595826e+003;6.923173e-002
2.597754e+003;6.919711e-002
2.599683e+003;6.903044e-002
2.601611e+003;6.920644e-002
2.603540e+003;6.945143e-002
2.605468e+003;6.960507e-002
2.607397e+003;6.961160e-002
2.609325e+003;6.954195e-002
2.611254e+003;7.005951e-002
2.613183e+003;7.065990e-002
2.615111e+003;7.087997e-002
2.617040e+003;7.082111e-002
2.618968e+003;7.076035e-002
2.620897e+003;7.098835e-002
2.622825e+003;7.122420e-002
2.624754e+003;7.138022e-002
2.626682e+003;7.151204e-002
2.628611e+003;7.166013e-002
2.630540e+003;7.196548e-002
2.632468e+003;7.228019e-002
2.634396e+003;7.261359e-002
2.636325e+003;7.326659e-002
2.638254e+003;7.355702e-002
2.640182e+003;7.323667e-002
2.642111e+003;7.306487e-002
2.644039e+003;7.310440e-002
2.645968e+003;7.325157e-002
2.647896e+003;7.339718e-002
2.649825e+003;7.343218e-002
2.651753e+003;7.349662e-002
2.653682e+003;7.368966e-002
2.655611e+003;7.395581e-002
2.657539e+003;7.409695e-002
2.659468e+003;7.439183e-002
2.661396e+003;7.497891e-002
2.663325e+003;7.540894e-002
2.665253e+003;7.539371e-002
2.667182e+003;7.542758e-002
2.669110e+003;7.557412e-002
2.671039e+003;7.577349e-002
2.672968e+003;7.602700e-002
2.674896e+003;7.635803e-002
2.676825e+003;7.680911e-002
2.678753e+003;7.685194e-002
2.680682e+003;7.673394e-002
2.682610e+003;7.671599e-002
2.684539e+003;7.705835e-002
2.686467e+003;7.758950e-002
2.688396e+003;7.772224e-002
2.690324e+003;7.772236e-002
2.692253e+003;7.790270e-002
2.694182e+003;7.806460e-002
2.696110e+003;7.825833e-002
2.698039e+003;7.853460e-002
2.699967e+003;7.868625e-002
2.701896e+003;7.865576e-002
2.703824e+003;7.885925e-002
2.705753e+003;7.911539e-002
2.707681e+003;7.949884e-002
2.709610e+003;7.974584e-002
2.711539e+003;7.991030e-002
2.713467e+003;8.028672e-002
2.715396e+003;8.048384e-002
2.717324e+003;8.054566e-002
2.719253e+003;8.074278e-002
2.721181e+003;8.085676e-002
2.723110e+003;8.083597e-002
2.725038e+003;8.085145e-002
2.726967e+003;8.130387e-002
2.728896e+003;8.159925e-002
2.730824e+003;8.145757e-002
2.732752e+003;8.137037e-002
2.734681e+003;8.130835e-002
2.736610e+003;8.136849e-002
2.738538e+003;8.139271e-002
2.740467e+003;8.155163e-002
2.742395e+003;8.186650e-002
2.744324e+003;8.198361e-002
2.746252e+003;8.198246e-002
2.748181e+003;8.207274e-002
2.750109e+003;8.212094e-002
2.752038e+003;8.237577e-002
2.753967e+003;8.261452e-002
2.755895e+003;8.275998e-002
2.757824e+003;8.303396e-002
2.759752e+003;8.297560e-002
2.761681e+003;8.303368e-002
2.763609e+003;8.350139e-002
2.765538e+003;8.358473e-002
2.767466e+003;8.345264e-002
2.769395e+003;8.334886e-002
2.771323e+003;8.344217e-002
2.773252e+003;8.391470e-002
2.775181e+003;8.419259e-002
2.777109e+003;8.452149e-002
2.779038e+003;8.492433e-002
2.780966e+003;8.497473e-002
2.782895e+003;8.466284e-002
2.784823e+003;8.466227e-002
2.786752e+003;8.511958e-002
2.788680e+003;8.552890e-002
2.790609e+003;8.567005e-002
2.792538e+003;8.598295e-002
2.794466e+003;8.658919e-002
2.796395e+003;8.694825e-002
2.798323e+003;8.726969e-002
2.800252e+003;8.767427e-002
2.802180e+003;8.802079e-002
2.804109e+003;8.837255e-002
2.806037e+003;8.873967e-002
2.807966e+003;8.905361e-002
2.809895e+003;8.921695e-002
2.811823e+003;8.943685e-002
2.813751e+003;8.965308e-002
2.815680e+003;9.031204e-002
2.817609e+003;9.094790e-002
2.819537e+003;9.127644e-002
2.821466e+003;9.190249e-002
2.823394e+003;9.257320e-002
2.825323e+003;9.325908e-002
2.827251e+003;9.398541e-002
2.829180e+003;9.448768e-002
2.831108e+003;9.485345e-002
2.833037e+003;9.545583e-002
2.834966e+003;9.644808e-002
2.836894e+003;9.734719e-002
2.838823e+003;9.828094e-002
2.840751e+003;9.915555e-002
2.842680e+003;1.000220e-001
2.844608e+003;1.007565e-001
2.846537e+003;1.013725e-001
2.848465e+003;1.023176e-001
2.850394e+003;1.034075e-001
2.852323e+003;1.042906e-001
2.854251e+003;1.054600e-001
2.856180e+003;1.067479e-001
2.858108e+003;1.075120e-001
2.860037e+003;1.081087e-001
2.861965e+003;1.089852e-001
2.863894e+003;1.101521e-001
2.865822e+003;1.111474e-001
2.867751e+003;1.116522e-001
2.869679e+003;1.123516e-001
2.871608e+003;1.131493e-001
2.873536e+003;1.133949e-001
2.875465e+003;1.137677e-001
2.877394e+003;1.145839e-001
2.879322e+003;1.148987e-001
2.881251e+003;1.151228e-001
2.883179e+003;1.157991e-001
2.885108e+003;1.161095e-001
2.887036e+003;1.159744e-001
2.888965e+003;1.163934e-001
2.890893e+003;1.169169e-001
2.892822e+003;1.170129e-001
2.894750e+003;1.173103e-001
2.896679e+003;1.176958e-001
2.898608e+003;1.178894e-001
2.900536e+003;1.177740e-001
2.902465e+003;1.173798e-001
2.904393e+003;1.171583e-001
2.906322e+003;1.173194e-001
2.908250e+003;1.171717e-001
2.910179e+003;1.166563e-001
2.912107e+003;1.160188e-001
2.914036e+003;1.156809e-001
2.915965e+003;1.156757e-001
2.917893e+003;1.155815e-001
2.919822e+003;1.152696e-001
2.921750e+003;1.142369e-001
2.923679e+003;1.137639e-001
2.925607e+003;1.139485e-001
2.927536e+003;1.137866e-001
2.929464e+003;1.132104e-001
2.931393e+003;1.124111e-001
2.933322e+003;1.121068e-001
2.935250e+003;1.118937e-001
2.937178e+003;1.115652e-001
2.939107e+003;1.113485e-001
2.941036e+003;1.106175e-001
2.942964e+003;1.099482e-001
2.944893e+003;1.090199e-001
2.946821e+003;1.081401e-001
2.948750e+003;1.075548e-001
2.950678e+003;1.068010e-001
2.952607e+003;1.056911e-001
2.954535e+003;1.047423e-001
2.956464e+003;1.036584e-001
2.958393e+003;1.025457e-001
2.960321e+003;1.019493e-001
2.962250e+003;1.012275e-001
2.964178e+003;1.000433e-001
2.966107e+003;9.936193e-002
2.968035e+003;9.909435e-002
2.969964e+003;9.862310e-002
2.971892e+003;9.791040e-002
2.973821e+003;9.719949e-002
2.975750e+003;9.664212e-002
2.977678e+003;9.600615e-002
2.979607e+003;9.524437e-002
2.981535e+003;9.455565e-002
2.983464e+003;9.385975e-002
2.985392e+003;9.350430e-002
2.987321e+003;9.330972e-002
2.989249e+003;9.297143e-002
2.991178e+003;9.250157e-002
2.993106e+003;9.207679e-002
2.995035e+003;9.169157e-002
2.996964e+003;9.122640e-002
2.998892e+003;9.118038e-002
3.000821e+003;9.137923e-002
3.002749e+003;9.131029e-002
3.004678e+003;9.129856e-002
3.006606e+003;9.140128e-002
3.008535e+003;9.118851e-002
3.010463e+003;9.138582e-002
3.012392e+003;9.182688e-002
3.014321e+003;9.182639e-002
3.016249e+003;9.154207e-002
3.018177e+003;9.166497e-002
3.020106e+003;9.165969e-002
3.022035e+003;9.172291e-002
3.023963e+003;9.225278e-002
3.025892e+003;9.261655e-002
3.027820e+003;9.251986e-002
3.029749e+003;9.238823e-002
3.031677e+003;9.271154e-002
3.033606e+003;9.307044e-002
3.035534e+003;9.326598e-002
3.037463e+003;9.336966e-002
3.039392e+003;9.353393e-002
3.041320e+003;9.387998e-002
3.043249e+003;9.415276e-002
3.045177e+003;9.460104e-002
3.047106e+003;9.528527e-002
3.049034e+003;9.581396e-002
3.050963e+003;9.597027e-002
3.052891e+003;9.600297e-002
3.054820e+003;9.607980e-002
3.056749e+003;9.614806e-002
3.058677e+003;9.658468e-002
3.060606e+003;9.744915e-002
3.062534e+003;9.785362e-002
3.064463e+003;9.801628e-002
3.066391e+003;9.841462e-002
3.068320e+003;9.882861e-002
3.070248e+003;9.967668e-002
3.072177e+003;1.002959e-001
3.074105e+003;1.002967e-001
3.076034e+003;1.007167e-001
3.077963e+003;1.010979e-001
3.079891e+003;1.010934e-001
3.081820e+003;1.015102e-001
3.083748e+003;1.022567e-001
3.085677e+003;1.028730e-001
3.087605e+003;1.034227e-001
3.089534e+003;1.041498e-001
3.091462e+003;1.044699e-001
3.093391e+003;1.045975e-001
3.095320e+003;1.052713e-001
3.097248e+003;1.058627e-001
3.099177e+003;1.059978e-001
3.101105e+003;1.062359e-001
3.103034e+003;1.068397e-001
3.104962e+003;1.074542e-001
3.106891e+003;1.077928e-001
3.108819e+003;1.081297e-001
3.110748e+003;1.086489e-001
3.112677e+003;1.090965e-001
3.114605e+003;1.096319e-001
3.116533e+003;1.105923e-001
3.118462e+003;1.112268e-001
3.120391e+003;1.112346e-001
3.122319e+003;1.116187e-001
3.124248e+003;1.122242e-001
3.126176e+003;1.125567e-001
3.128105e+003;1.131318e-001
3.130033e+003;1.140356e-001
3.131962e+003;1.143410e-001
3.133890e+003;1.148058e-001
3.135819e+003;1.155891e-001
3.137748e+003;1.161734e-001
3.139676e+003;1.165825e-001
3.141605e+003;1.175758e-001
3.143533e+003;1.183038e-001
3.145462e+003;1.184507e-001
3.147390e+003;1.187043e-001
3.149319e+003;1.192938e-001
3.151247e+003;1.202268e-001
3.153176e+003;1.206383e-001
3.155104e+003;1.206559e-001
3.157033e+003;1.215316e-001
3.158962e+003;1.222690e-001
3.160890e+003;1.227051e-001
3.162819e+003;1.235672e-001
3.164747e+003;1.242833e-001
3.166676e+003;1.245920e-001
3.168604e+003;1.251498e-001
3.170533e+003;1.257797e-001
3.172461e+003;1.265124e-001
3.174390e+003;1.267639e-001
3.176319e+003;1.271459e-001
3.178247e+003;1.283879e-001
3.180176e+003;1.295916e-001
3.182104e+003;1.300751e-001
3.184033e+003;1.303347e-001
3.185961e+003;1.310778e-001
3.187890e+003;1.315184e-001
3.189818e+003;1.315684e-001
3.191747e+003;1.323104e-001
3.193676e+003;1.335762e-001
3.195604e+003;1.343399e-001
3.197532e+003;1.348432e-001
3.199461e+003;1.355698e-001
3.201390e+003;1.365116e-001
3.203318e+003;1.375106e-001
3.205247e+003;1.381824e-001
3.207175e+003;1.386065e-001
3.209104e+003;1.388322e-001
3.211032e+003;1.394922e-001
3.212961e+003;1.405183e-001
3.214889e+003;1.408621e-001
3.216818e+003;1.412563e-001
3.218747e+003;1.421281e-001
3.220675e+003;1.427974e-001
3.222604e+003;1.433128e-001
3.224532e+003;1.441359e-001
3.226461e+003;1.447456e-001
3.228389e+003;1.450851e-001
3.230318e+003;1.456693e-001
3.232246e+003;1.461609e-001
3.234175e+003;1.472890e-001
3.236104e+003;1.481951e-001
3.238032e+003;1.484005e-001
3.239961e+003;1.489758e-001
3.241889e+003;1.499079e-001
3.243818e+003;1.507175e-001
3.245746e+003;1.512903e-001
3.247675e+003;1.518124e-001
3.249603e+003;1.528574e-001
3.251532e+003;1.539124e-001
3.253460e+003;1.539398e-001
3.255389e+003;1.539861e-001
3.257318e+003;1.546312e-001
3.259246e+003;1.557062e-001
3.261175e+003;1.567236e-001
3.263103e+003;1.566742e-001
3.265032e+003;1.569700e-001
3.266960e+003;1.576927e-001
3.268889e+003;1.580326e-001
3.270817e+003;1.582272e-001
3.272746e+003;1.581033e-001
3.274675e+003;1.584767e-001
3.276603e+003;1.594252e-001
3.278531e+003;1.605571e-001
3.280460e+003;1.611618e-001
3.282389e+003;1.614308e-001
3.284317e+003;1.618226e-001
3.286246e+003;1.618694e-001
3.288174e+003;1.619231e-001
3.290103e+003;1.618371e-001
3.292031e+003;1.622084e-001
3.293960e+003;1.622591e-001
3.295888e+003;1.615434e-001
3.297817e+003;1.614686e-001
3.299746e+003;1.616793e-001
3.301674e+003;1.620585e-001
3.303603e+003;1.624606e-001
3.305531e+003;1.627007e-001
3.307460e+003;1.629124e-001
3.309388e+003;1.629683e-001
3.311317e+003;1.628752e-001
3.313245e+003;1.629270e-001
3.315174e+003;1.628580e-001
3.317103e+003;1.629454e-001
3.319031e+003;1.632235e-001
3.320960e+003;1.634512e-001
3.322888e+003;1.637396e-001
3.324817e+003;1.640613e-001
3.326745e+003;1.639689e-001
3.328674e+003;1.640842e-001
3.330602e+003;1.638783e-001
3.332531e+003;1.631600e-001
3.334459e+003;1.633460e-001
3.336388e+003;1.640068e-001
3.338317e+003;1.638672e-001
3.340245e+003;1.634862e-001
3.342174e+003;1.630952e-001
3.344102e+003;1.627702e-001
3.346031e+003;1.631529e-001
3.347959e+003;1.636525e-001
3.349888e+003;1.633804e-001
3.351816e+003;1.619876e-001
3.353745e+003;1.611932e-001
3.355674e+003;1.611555e-001
3.357602e+003;1.608587e-001
3.359531e+003;1.605927e-001
3.361459e+003;1.604374e-001
3.363388e+003;1.598372e-001
3.365316e+003;1.590255e-001
3.367245e+003;1.588119e-001
3.369173e+003;1.585856e-001
3.371102e+003;1.581457e-001
3.373031e+003;1.580235e-001
3.374959e+003;1.576992e-001
3.376887e+003;1.572051e-001
3.378816e+003;1.571569e-001
3.380745e+003;1.571531e-001
3.382673e+003;1.569723e-001
3.384602e+003;1.560152e-001
3.386530e+003;1.549469e-001
3.388459e+003;1.549195e-001
3.390387e+003;1.551723e-001
3.392316e+003;1.547328e-001
3.394244e+003;1.536914e-001
3.396173e+003;1.527949e-001
3.398102e+003;1.521333e-001
3.400030e+003;1.517493e-001
3.401959e+003;1.520351e-001
3.403887e+003;1.518003e-001
3.405816e+003;1.510834e-001
3.407744e+003;1.505042e-001
3.409673e+003;1.498367e-001
3.411601e+003;1.487622e-001
3.413530e+003;1.478782e-001
3.415458e+003;1.472509e-001
3.417387e+003;1.465463e-001
3.419316e+003;1.459925e-001
3.421244e+003;1.457951e-001
3.423173e+003;1.451758e-001
3.425101e+003;1.442184e-001
3.427030e+003;1.431701e-001
3.428958e+003;1.421285e-001
3.430887e+003;1.416751e-001
3.432815e+003;1.414592e-001
3.434744e+003;1.409461e-001
3.436673e+003;1.403662e-001
3.438601e+003;1.395762e-001
3.440530e+003;1.387402e-001
3.442458e+003;1.377345e-001
3.444387e+003;1.371678e-001
3.446315e+003;1.363572e-001
3.448244e+003;1.351692e-001
3.450172e+003;1.344033e-001
3.452101e+003;1.337136e-001
3.454030e+003;1.327827e-001
3.455958e+003;1.319031e-001
3.457886e+003;1.311621e-001
3.459815e+003;1.304033e-001
3.461744e+003;1.290228e-001
3.463672e+003;1.281818e-001
3.465601e+003;1.276930e-001
3.467529e+003;1.269635e-001
3.469458e+003;1.260722e-001
3.471386e+003;1.252836e-001
3.473315e+003;1.249002e-001
3.475243e+003;1.243578e-001
3.477172e+003;1.231181e-001
3.479101e+003;1.219881e-001
3.481029e+003;1.212714e-001
3.482958e+003;1.202137e-001
3.484886e+003;1.191650e-001
3.486815e+003;1.186865e-001
3.488743e+003;1.180756e-001
3.490672e+003;1.168849e-001
3.492600e+003;1.159382e-001
3.494529e+003;1.147595e-001
3.496458e+003;1.141760e-001
3.498386e+003;1.138726e-001
3.500315e+003;1.129907e-001
3.502243e+003;1.117903e-001
3.504172e+003;1.108182e-001
3.506100e+003;1.098474e-001
3.508029e+003;1.090467e-001
3.509957e+003;1.082437e-001
3.511886e+003;1.074763e-001
3.513814e+003;1.070240e-001
3.515743e+003;1.064391e-001
3.517672e+003;1.058370e-001
3.519600e+003;1.050718e-001
3.521529e+003;1.038150e-001
3.523457e+003;1.025422e-001
3.525386e+003;1.019017e-001
3.527314e+003;1.006960e-001
3.529243e+003;9.930732e-002
3.531171e+003;9.868889e-002
3.533100e+003;9.821991e-002
3.535029e+003;9.769293e-002
3.536957e+003;9.703681e-002
3.538885e+003;9.599520e-002
3.540814e+003;9.475017e-002
3.542743e+003;9.328684e-002
3.544671e+003;9.243098e-002
3.546600e+003;9.242475e-002
3.548528e+003;9.212188e-002
3.550457e+003;9.106529e-002
3.552385e+003;8.959060e-002
3.554314e+003;8.832674e-002
3.556242e+003;8.763032e-002
3.558171e+003;8.685986e-002
3.560100e+003;8.612841e-002
3.562028e+003;8.583656e-002
3.563957e+003;8.541832e-002
3.565885e+003;8.423527e-002
3.567814e+003;8.340394e-002
3.569742e+003;8.268959e-002
3.571671e+003;8.173413e-002
3.573599e+003;8.112188e-002
3.575528e+003;8.050182e-002
3.577457e+003;7.951356e-002
3.579385e+003;7.825924e-002
3.581314e+003;7.718664e-002
3.583242e+003;7.671227e-002
3.585171e+003;7.675723e-002
3.587099e+003;7.622958e-002
3.589028e+003;7.543033e-002
3.590956e+003;7.474125e-002
3.592885e+003;7.394269e-002
3.594813e+003;7.286827e-002
3.596742e+003;7.197849e-002
3.598671e+003;7.155412e-002
3.600599e+003;7.105538e-002
3.602528e+003;7.028215e-002
3.604456e+003;6.970543e-002
3.606385e+003;6.949680e-002
3.608313e+003;6.855457e-002
3.610242e+003;6.750511e-002
3.612170e+003;6.731495e-002
3.614099e+003;6.700327e-002
3.616028e+003;6.611477e-002
3.617956e+003;6.521307e-002
3.619885e+003;6.471995e-002
3.621813e+003;6.423797e-002
3.623742e+003;6.342796e-002
3.625670e+003;6.278628e-002
3.627599e+003;6.234562e-002
3.629527e+003;6.136686e-002
3.631456e+003;6.055292e-002
3.633385e+003;6.010714e-002
3.635313e+003;5.952153e-002
3.637241e+003;5.892312e-002
3.639170e+003;5.859670e-002
3.641099e+003;5.802175e-002
3.643027e+003;5.709927e-002
3.644956e+003;5.646041e-002
3.646884e+003;5.585090e-002
3.648813e+003;5.455957e-002
3.650741e+003;5.339415e-002
3.652670e+003;5.307979e-002
3.654598e+003;5.275013e-002
3.656527e+003;5.180424e-002
3.658456e+003;5.080668e-002
3.660384e+003;5.026260e-002
3.662313e+003;4.944290e-002
3.664241e+003;4.801743e-002
3.666170e+003;4.724495e-002
3.668098e+003;4.692756e-002
3.670027e+003;4.644697e-002
3.671955e+003;4.581283e-002
3.673884e+003;4.488106e-002
3.675813e+003;4.376907e-002
3.677741e+003;4.341641e-002
3.679669e+003;4.294715e-002
3.681598e+003;4.259158e-002
3.683527e+003;4.224564e-002
3.685455e+003;4.232690e-002
3.687384e+003;4.216067e-002
3.689312e+003;4.146039e-002
3.691241e+003;4.096137e-002
3.693169e+003;3.998519e-002
3.695098e+003;3.914317e-002
3.697026e+003;3.956202e-002
3.698955e+003;4.002294e-002
3.700884e+003;3.977744e-002
3.702812e+003;3.914164e-002
3.704741e+003;3.850978e-002
3.706669e+003;3.839148e-002
3.708598e+003;3.771943e-002
3.710526e+003;3.710901e-002
3.712455e+003;3.722823e-002
3.714383e+003;3.700567e-002
3.716312e+003;3.688120e-002
3.718240e+003;3.723026e-002
3.720169e+003;3.715149e-002
3.722098e+003;3.671466e-002
3.724026e+003;3.644868e-002
3.725955e+003;3.639283e-002
3.727883e+003;3.620162e-002
3.729812e+003;3.616053e-002
3.731740e+003;3.649779e-002
3.733669e+003;3.639113e-002
3.735597e+003;3.611213e-002
3.737526e+003;3.583087e-002
3.739455e+003;3.622507e-002
3.741383e+003;3.656090e-002
3.743312e+003;3.639056e-002
3.745240e+003;3.619345e-002
3.747169e+003;3.594898e-002
3.749097e+003;3.565732e-002
3.751026e+003;3.525242e-002
3.752954e+003;3.500134e-002
3.754883e+003;3.536667e-002
3.756812e+003;3.518483e-002
3.758740e+003;3.473540e-002
3.760668e+003;3.479821e-002
3.762597e+003;3.552159e-002
3.764526e+003;3.600852e-002
3.766454e+003;3.567681e-002
3.768383e+003;3.525436e-002
3.770311e+003;3.522489e-002
3.772240e+003;3.517175e-002
3.774168e+003;3.498729e-002
3.776097e+003;3.501545e-002
3.778025e+003;3.519866e-002
3.779954e+003;3.542034e-002
3.781883e+003;3.574128e-002
3.783811e+003;3.604488e-002
3.785740e+003;3.580582e-002
3.787668e+003;3.519126e-002
3.789597e+003;3.497551e-002
3.791525e+003;3.522993e-002
3.793454e+003;3.505521e-002
3.795382e+003;3.513087e-002
3.797311e+003;3.544741e-002
3.799240e+003;3.527520e-002
3.801168e+003;3.527862e-002
3.803097e+003;3.522062e-002
3.805025e+003;3.509300e-002
3.806954e+003;3.515749e-002
3.808882e+003;3.505449e-002
3.810811e+003;3.479089e-002
3.812739e+003;3.488355e-002
3.814668e+003;3.506265e-002
3.816596e+003;3.505083e-002
3.818525e+003;3.493867e-002
3.820454e+003;3.531495e-002
3.822382e+003;3.569300e-002
3.824311e+003;3.555316e-002
3.826239e+003;3.543447e-002
3.828168e+003;3.517208e-002
3.830096e+003;3.512152e-002
3.832025e+003;3.557495e-002
3.833953e+003;3.569142e-002
3.835882e+003;3.540007e-002
3.837811e+003;3.524929e-002
3.839739e+003;3.570289e-002
3.841667e+003;3.619615e-002
3.843596e+003;3.617054e-002
3.845525e+003;3.645459e-002
3.847453e+003;3.636656e-002
3.849382e+003;3.644990e-002
3.851310e+003;3.661126e-002
3.853239e+003;3.644093e-002
3.855167e+003;3.653171e-002
3.857096e+003;3.660279e-002
3.859024e+003;3.631166e-002
3.860953e+003;3.610947e-002
3.862882e+003;3.622085e-002
3.864810e+003;3.636440e-002
3.866739e+003;3.678292e-002
3.868667e+003;3.692048e-002
3.870596e+003;3.668113e-002
3.872524e+003;3.657590e-002
3.874453e+003;3.668401e-002
3.876381e+003;3.692868e-002
3.878310e+003;3.756449e-002
3.880239e+003;3.788329e-002
3.882167e+003;3.757439e-002
3.884096e+003;3.765207e-002
3.886024e+003;3.790035e-002
3.887953e+003;3.809549e-002
3.889881e+003;3.807147e-002
3.891810e+003;3.773002e-002
3.893738e+003;3.781196e-002
3.895667e+003;3.833693e-002
3.897595e+003;3.809252e-002
3.899524e+003;3.793101e-002
3.901453e+003;3.826796e-002
3.903381e+003;3.873066e-002
3.905310e+003;3.941893e-002
3.907238e+003;3.920974e-002
3.909167e+003;3.843694e-002
3.911095e+003;3.820778e-002
3.913024e+003;3.864963e-002
3.914952e+003;3.929595e-002
3.916881e+003;3.978663e-002
3.918810e+003;3.974432e-002
3.920738e+003;3.981310e-002
3.922667e+003;4.037791e-002
3.924595e+003;4.081193e-002
3.926524e+003;4.049072e-002
3.928452e+003;4.023790e-002
3.930381e+003;4.025735e-002
3.932309e+003;4.025982e-002
3.934238e+003;4.036020e-002
3.936167e+003;3.980689e-002
3.938095e+003;3.966913e-002
3.940023e+003;4.026073e-002
3.941952e+003;4.006952e-002
3.943881e+003;3.994469e-002
3.945809e+003;4.044995e-002
3.947738e+003;4.090196e-002
3.949666e+003;4.133030e-002
3.951595e+003;4.140695e-002
3.953523e+003;4.121815e-002
3.955452e+003;4.115830e-002
3.957380e+003;4.095173e-002
3.959309e+003;4.107761e-002
3.961238e+003;4.153498e-002
3.963166e+003;4.214114e-002
3.965095e+003;4.229191e-002
3.967023e+003;4.243280e-002
3.968952e+003;4.198515e-002
3.970880e+003;4.169309e-002
3.972809e+003;4.208130e-002
3.974737e+003;4.215731e-002
3.976666e+003;4.172056e-002
3.978594e+003;4.207699e-002
3.980523e+003;4.272207e-002
3.982452e+003;4.236704e-002
3.984380e+003;4.197833e-002
3.986309e+003;4.211565e-002
3.988237e+003;4.245290e-002
3.990166e+003;4.282061e-002
3.992094e+003;4.323907e-002
3.994023e+003;4.304842e-002
3.995951e+003;4.232957e-002
3.997880e+003;4.229005e-002
3.999809e+003;4.229593e-002
4.001737e+003;0.000000e+000
