3.992094e+002;0.000000e+000
4.011380e+002;0.000000e+000
4.030665e+002;0.000000e+000
4.049951e+002;0.000000e+000
4.069236e+002;0.000000e+000
4.088522e+002;0.000000e+000
4.107807e+002;0.000000e+000
4.127093e+002;0.000000e+000
4.146378e+002;0.000000e+000
4.165664e+002;0.000000e+000
4.184949e+002;0.000000e+000
4.204235e+002;0.000000e+000
4.223520e+002;0.000000e+000
4.242806e+002;0.000000e+000
4.262091e+002;0.000000e+000
4.281377e+002;0.000000e+000
4.300662e+002;0.000000e+000
4.319948e+002;0.000000e+000
4.339233e+002;0.000000e+000
4.358519e+002;0.000000e+000
4.377804e+002;0.000000e+000
4.397090e+002;0.000000e+000
4.416375e+002;0.000000e+000
4.435660e+002;0.000000e+000
4.454946e+002;0.000000e+000
4.474232e+002;0.000000e+000
4.493517e+002;0.000000e+000
4.512802e+002;0.000000e+000
4.532088e+002;0.000000e+000
4.551373e+002;0.000000e+000
4.570659e+002;0.000000e+000
4.589944e+002;0.000000e+000
4.609230e+002;0.000000e+000
4.628515e+002;0.000000e+000
4.647801e+002;0.000000e+000
4.667086e+002;0.000000e+000
4.686372e+002;0.000000e+000
4.705657e+002;0.000000e+000
4.724943e+002;0.000000e+000
4.744228e+002;0.000000e+000
4.763513e+002;0.000000e+000
4.782799e+002;0.000000e+000
4.802085e+002;0.000000e+000
4.821370e+002;0.000000e+000
4.840656e+002;0.000000e+000
4.859941e+002;0.000000e+000
4.879226e+002;0.000000e+000
4.898512e+002;0.000000e+000
4.917798e+002;0.000000e+000
4.937083e+002;0.000000e+000
4.956368e+002;0.000000e+000
4.975654e+002;0.000000e+000
4.994939e+002;0.000000e+000
5.014225e+002;0.000000e+000
5.033510e+002;0.000000e+000
5.052796e+002;0.000000e+000
5.072081e+002;0.000000e+000
5.091367e+002;0.000000e+000
5.110652e+002;0.000000e+000
5.129938e+002;0.000000e+000
5.149223e+002;0.000000e+000
5.168509e+002;0.000000e+000
5.187794e+002;0.000000e+000
5.207079e+002;0.000000e+000
5.226365e+002;0.000000e+000
5.245651e+002;0.000000e+000
5.264936e+002;0.000000e+000
5.284222e+002;0.000000e+000
5.303507e+002;0.000000e+000
5.322792e+002;0.000000e+000
5.342078e+002;0.000000e+000
5.361364e+002;0.000000e+000
5.380649e+002;0.000000e+000
5.399935e+002;0.000000e+000
5.419220e+002;0.000000e+000
5.438505e+002;0.000000e+000
5.457791e+002;0.000000e+000
5.477076e+002;0.000000e+000
5.496362e+002;0.000000e+000
5.515648e+002;0.000000e+000
5.534933e+002;0.000000e+000
5.554218e+002;0.000000e+000
5.573504e+002;0.000000e+000
5.592789e+002;0.000000e+000
5.612075e+002;0.000000e+000
5.631360e+002;0.000000e+000
5.650646e+002;0.000000e+000
5.669931e+002;0.000000e+000
5.689217e+002;0.000000e+000
5.708502e+002;0.000000e+000
5.727787e+002;0.000000e+000
5.747073e+002;0.000000e+000
5.766359e+002;0.000000e+000
5.785644e+002;0.000000e+000
5.804930e+002;0.000000e+000
5.824215e+002;0.000000e+000
5.843500e+002;0.000000e+000
5.862786e+002;0.000000e+000
5.882072e+002;0.000000e+000
5.901357e+002;0.000000e+000
5.920643e+002;0.000000e+000
5.939928e+002;0.000000e+000
5.959213e+002;0.000000e+000
5.978499e+002;0.000000e+000
5.997784e+002;2.306527e-001
6.017070e+002;2.258206e-001
6.036355e+002;2.229786e-001
6.055641e+002;2.269233e-001
6.074926e+002;2.302459e-001
6.094211e+002;2.223643e-001
6.113497e+002;2.162521e-001
6.132783e+002;2.197335e-001
6.152068e+002;2.226016e-001
6.171354e+002;2.167261e-001
6.190639e+002;2.125255e-001
6.209924e+002;2.168211e-001
6.229210e+002;2.190055e-001
6.248495e+002;2.175088e-001
6.267781e+002;2.124057e-001
6.287067e+002;2.061175e-001
6.306352e+002;2.050687e-001
6.325637e+002;2.078103e-001
6.344923e+002;2.060888e-001
6.364208e+002;1.994812e-001
6.383494e+002;2.011442e-001
6.402780e+002;2.057303e-001
6.422065e+002;2.003967e-001
6.441350e+002;1.941239e-001
6.460636e+002;1.949593e-001
6.479921e+002;1.964134e-001
6.499207e+002;1.990230e-001
6.518492e+002;1.990832e-001
6.537778e+002;1.968746e-001
6.557063e+002;1.988681e-001
6.576349e+002;2.021739e-001
6.595634e+002;2.043476e-001
6.614919e+002;2.060723e-001
6.634205e+002;2.046264e-001
6.653491e+002;2.033775e-001
6.672776e+002;2.027435e-001
6.692062e+002;1.983818e-001
6.711347e+002;1.942999e-001
6.730632e+002;1.924485e-001
6.749918e+002;1.886153e-001
6.769203e+002;1.834188e-001
6.788489e+002;1.782036e-001
6.807775e+002;1.762748e-001
6.827060e+002;1.760811e-001
6.846345e+002;1.731155e-001
6.865631e+002;1.704095e-001
6.884916e+002;1.695008e-001
6.904202e+002;1.686588e-001
6.923488e+002;1.676034e-001
6.942773e+002;1.673440e-001
6.962058e+002;1.666678e-001
6.981344e+002;1.650821e-001
7.000629e+002;1.644087e-001
7.019915e+002;1.649466e-001
7.039200e+002;1.649569e-001
7.058486e+002;1.633923e-001
7.077771e+002;1.603821e-001
7.097057e+002;1.583467e-001
7.116342e+002;1.570717e-001
7.135627e+002;1.556196e-001
7.154913e+002;1.555639e-001
7.174199e+002;1.539879e-001
7.193484e+002;1.512678e-001
7.212770e+002;1.498886e-001
7.232055e+002;1.479847e-001
7.251340e+002;1.454309e-001
7.270626e+002;1.441809e-001
7.289911e+002;1.430467e-001
7.309197e+002;1.421265e-001
7.328483e+002;1.408893e-001
7.347768e+002;1.388209e-001
7.367053e+002;1.369866e-001
7.386339e+002;1.358168e-001
7.405624e+002;1.346771e-001
7.424910e+002;1.329865e-001
7.444196e+002;1.311835e-001
7.463481e+002;1.307154e-001
7.482766e+002;1.300878e-001
7.502052e+002;1.287036e-001
7.521337e+002;1.276068e-001
7.540623e+002;1.261473e-001
7.559908e+002;1.249164e-001
7.579194e+002;1.240304e-001
7.598479e+002;1.239365e-001
7.617765e+002;1.241885e-001
7.637050e+002;1.228739e-001
7.656335e+002;1.210723e-001
7.675621e+002;1.200993e-001
7.694907e+002;1.187209e-001
7.714192e+002;1.174844e-001
7.733478e+002;1.177617e-001
7.752763e+002;1.172896e-001
7.772048e+002;1.164411e-001
7.791334e+002;1.158117e-001
7.810620e+002;1.148334e-001
7.829905e+002;1.139849e-001
7.849191e+002;1.137326e-001
7.868476e+002;1.127461e-001
7.887761e+002;1.122049e-001
7.907047e+002;1.122705e-001
7.926332e+002;1.119814e-001
7.945618e+002;1.103565e-001
7.964903e+002;1.100229e-001
7.984189e+002;1.113991e-001
8.003474e+002;1.114096e-001
8.022759e+002;1.108134e-001
8.042045e+002;1.109809e-001
8.061331e+002;1.115965e-001
8.080616e+002;1.113143e-001
8.099902e+002;1.112763e-001
8.119187e+002;1.124722e-001
8.138472e+002;1.131766e-001
8.157758e+002;1.137684e-001
8.177043e+002;1.139976e-001
8.196329e+002;1.145495e-001
8.215615e+002;1.148365e-001
8.234900e+002;1.148463e-001
8.254185e+002;1.154151e-001
8.273471e+002;1.157806e-001
8.292756e+002;1.160685e-001
8.312042e+002;1.159954e-001
8.331328e+002;1.158361e-001
8.350613e+002;1.152869e-001
8.369898e+002;1.145082e-001
8.389184e+002;1.143846e-001
8.408469e+002;1.141050e-001
8.427755e+002;1.136795e-001
8.447040e+002;1.134493e-001
8.466326e+002;1.131178e-001
8.485611e+002;1.131575e-001
8.504897e+002;1.128663e-001
8.524182e+002;1.121842e-001
8.543467e+002;1.122588e-001
8.562753e+002;1.129665e-001
8.582039e+002;1.133784e-001
8.601324e+002;1.141717e-001
8.620610e+002;1.154941e-001
8.639895e+002;1.174385e-001
8.659180e+002;1.196896e-001
8.678466e+002;1.213974e-001
8.697751e+002;1.234993e-001
8.717037e+002;1.258847e-001
8.736323e+002;1.281831e-001
8.755608e+002;1.301788e-001
8.774893e+002;1.322542e-001
8.794179e+002;1.346907e-001
8.813464e+002;1.374228e-001
8.832750e+002;1.400516e-001
8.852036e+002;1.427974e-001
8.871321e+002;1.466524e-001
8.890606e+002;1.505953e-001
8.909892e+002;1.536465e-001
8.929177e+002;1.560260e-001
8.948463e+002;1.579879e-001
8.967748e+002;1.588704e-001
8.987034e+002;1.582546e-001
9.006319e+002;1.567381e-001
9.025605e+002;1.547591e-001
9.044890e+002;1.526620e-001
9.064175e+002;1.510832e-001
9.083461e+002;1.496457e-001
9.102747e+002;1.481530e-001
9.122032e+002;1.470803e-001
9.141318e+002;1.462442e-001
9.160603e+002;1.457068e-001
9.179888e+002;1.454948e-001
9.199174e+002;1.455992e-001
9.218459e+002;1.462466e-001
9.237745e+002;1.471157e-001
9.257031e+002;1.476547e-001
9.276316e+002;1.484867e-001
9.295601e+002;1.500681e-001
9.314887e+002;1.511438e-001
9.334172e+002;1.519093e-001
9.353458e+002;1.535890e-001
9.372744e+002;1.559850e-001
9.392029e+002;1.584134e-001
9.411314e+002;1.610810e-001
9.430600e+002;1.645104e-001
9.449885e+002;1.684544e-001
9.469171e+002;1.725792e-001
9.488456e+002;1.774651e-001
9.507742e+002;1.828132e-001
9.527027e+002;1.882153e-001
9.546313e+002;1.944315e-001
9.565598e+002;2.003395e-001
9.584883e+002;2.058913e-001
9.604169e+002;2.118816e-001
9.623455e+002;2.173644e-001
9.642740e+002;2.229939e-001
9.662026e+002;2.286386e-001
9.681311e+002;2.345237e-001
9.700596e+002;2.410975e-001
9.719882e+002;2.481392e-001
9.739167e+002;2.551886e-001
9.758453e+002;2.629188e-001
9.777739e+002;2.715212e-001
9.797024e+002;2.803128e-001
9.816309e+002;2.890351e-001
9.835595e+002;2.966260e-001
9.854880e+002;3.028775e-001
9.874166e+002;3.079592e-001
9.893452e+002;3.119337e-001
9.912737e+002;3.150710e-001
9.932022e+002;3.172694e-001
9.951307e+002;3.190235e-001
9.970593e+002;3.218021e-001
9.989879e+002;3.254876e-001
1.000916e+003;3.290729e-001
1.002845e+003;3.332111e-001
1.004773e+003;3.374373e-001
1.006702e+003;3.417204e-001
1.008631e+003;3.467824e-001
1.010559e+003;3.511381e-001
1.012488e+003;3.558704e-001
1.014416e+003;3.612074e-001
1.016345e+003;3.664699e-001
1.018273e+003;3.706150e-001
1.020202e+003;3.731139e-001
1.022130e+003;3.755682e-001
1.024059e+003;3.784430e-001
1.025988e+003;3.800306e-001
1.027916e+003;3.815495e-001
1.029845e+003;3.825583e-001
1.031773e+003;3.824756e-001
1.033702e+003;3.814770e-001
1.035630e+003;3.790300e-001
1.037559e+003;3.747486e-001
1.039487e+003;3.705033e-001
1.041416e+003;3.668019e-001
1.043344e+003;3.634320e-001
1.045273e+003;3.604806e-001
1.047202e+003;3.577344e-001
1.049130e+003;3.546408e-001
1.051059e+003;3.513765e-001
1.052987e+003;3.484643e-001
1.054916e+003;3.433308e-001
1.056844e+003;3.367617e-001
1.058773e+003;3.306529e-001
1.060701e+003;3.232436e-001
1.062630e+003;3.146008e-001
1.064558e+003;3.067977e-001
1.066487e+003;2.989914e-001
1.068416e+003;2.915074e-001
1.070344e+003;2.852688e-001
1.072273e+003;2.800351e-001
1.074201e+003;2.747906e-001
1.076130e+003;2.696999e-001
1.078058e+003;2.646792e-001
1.079987e+003;2.603432e-001
1.081915e+003;2.566110e-001
1.083844e+003;2.533268e-001
1.085773e+003;2.513024e-001
1.087701e+003;2.497854e-001
1.089630e+003;2.482032e-001
1.091558e+003;2.469306e-001
1.093487e+003;2.455112e-001
1.095415e+003;2.439655e-001
1.097344e+003;2.430241e-001
1.099272e+003;2.419405e-001
1.101201e+003;2.405612e-001
1.103129e+003;2.380808e-001
1.105058e+003;2.342042e-001
1.106987e+003;2.300643e-001
1.108915e+003;2.251209e-001
1.110844e+003;2.199239e-001
1.112772e+003;2.144222e-001
1.114701e+003;2.083000e-001
1.116629e+003;2.010718e-001
1.118558e+003;1.948094e-001
1.120486e+003;1.900914e-001
1.122415e+003;1.854890e-001
1.124344e+003;1.800994e-001
1.126272e+003;1.747401e-001
1.128201e+003;1.696277e-001
1.130129e+003;1.644497e-001
1.132058e+003;1.602977e-001
1.133986e+003;1.569446e-001
1.135915e+003;1.535907e-001
1.137843e+003;1.507395e-001
1.139772e+003;1.486756e-001
1.141700e+003;1.472353e-001
1.143629e+003;1.466352e-001
1.145557e+003;1.469962e-001
1.147486e+003;1.475865e-001
1.149415e+003;1.483104e-001
1.151343e+003;1.489185e-001
1.153272e+003;1.491022e-001
1.155200e+003;1.486464e-001
1.157129e+003;1.482366e-001
1.159057e+003;1.473228e-001
1.160986e+003;1.448583e-001
1.162914e+003;1.418062e-001
1.164843e+003;1.380232e-001
1.166771e+003;1.331823e-001
1.168700e+003;1.283586e-001
1.170629e+003;1.235335e-001
1.172557e+003;1.183638e-001
1.174486e+003;1.136714e-001
1.176414e+003;1.094701e-001
1.178343e+003;1.061080e-001
1.180271e+003;1.039179e-001
1.182200e+003;1.015535e-001
1.184128e+003;9.999329e-002
1.186057e+003;9.968214e-002
1.187986e+003;1.000690e-001
1.189914e+003;1.010979e-001
1.191843e+003;1.028419e-001
1.193771e+003;1.047786e-001
1.195700e+003;1.073629e-001
1.197628e+003;1.107287e-001
1.199557e+003;1.138779e-001
1.201485e+003;1.166442e-001
1.203414e+003;1.190360e-001
1.205343e+003;1.209052e-001
1.207271e+003;1.232638e-001
1.209200e+003;1.259169e-001
1.211128e+003;1.283352e-001
1.213057e+003;1.312670e-001
1.214985e+003;1.352784e-001
1.216914e+003;1.392900e-001
1.218842e+003;1.431204e-001
1.220771e+003;1.473499e-001
1.222699e+003;1.517306e-001
1.224628e+003;1.553610e-001
1.226557e+003;1.581490e-001
1.228485e+003;1.608274e-001
1.230414e+003;1.630517e-001
1.232342e+003;1.648540e-001
1.234271e+003;1.658651e-001
1.236199e+003;1.661925e-001
1.238128e+003;1.656272e-001
1.240056e+003;1.647799e-001
1.241985e+003;1.635960e-001
1.243913e+003;1.620050e-001
1.245842e+003;1.599236e-001
1.247771e+003;1.580977e-001
1.249699e+003;1.565178e-001
1.251628e+003;1.542861e-001
1.253556e+003;1.516887e-001
1.255485e+003;1.492914e-001
1.257413e+003;1.466867e-001
1.259342e+003;1.437326e-001
1.261270e+003;1.410292e-001
1.263199e+003;1.379459e-001
1.265127e+003;1.347259e-001
1.267056e+003;1.314622e-001
1.268985e+003;1.280882e-001
1.270913e+003;1.252140e-001
1.272842e+003;1.226467e-001
1.274770e+003;1.199495e-001
1.276699e+003;1.176182e-001
1.278627e+003;1.156698e-001
1.280556e+003;1.138301e-001
1.282484e+003;1.118828e-001
1.284413e+003;1.101925e-001
1.286342e+003;1.088306e-001
1.288270e+003;1.075450e-001
1.290199e+003;1.068702e-001
1.292127e+003;1.070238e-001
1.294056e+003;1.073203e-001
1.295984e+003;1.078195e-001
1.297913e+003;1.087783e-001
1.299841e+003;1.102620e-001
1.301770e+003;1.119672e-001
1.303698e+003;1.135430e-001
1.305627e+003;1.154748e-001
1.307556e+003;1.177705e-001
1.309484e+003;1.201755e-001
1.311413e+003;1.223268e-001
1.313341e+003;1.239153e-001
1.315270e+003;1.248637e-001
1.317198e+003;1.250289e-001
1.319127e+003;1.246369e-001
1.321055e+003;1.242847e-001
1.322984e+003;1.236788e-001
1.324912e+003;1.228700e-001
1.326841e+003;1.225241e-001
1.328770e+003;1.226138e-001
1.330698e+003;1.228047e-001
1.332627e+003;1.227173e-001
1.334555e+003;1.223655e-001
1.336484e+003;1.213389e-001
1.338412e+003;1.195730e-001
1.340341e+003;1.181906e-001
1.342269e+003;1.171387e-001
1.344198e+003;1.161039e-001
1.346126e+003;1.151673e-001
1.348055e+003;1.145797e-001
1.349984e+003;1.143541e-001
1.351912e+003;1.147504e-001
1.353841e+003;1.157919e-001
1.355769e+003;1.173562e-001
1.357698e+003;1.193327e-001
1.359626e+003;1.210906e-001
1.361555e+003;1.227460e-001
1.363483e+003;1.242168e-001
1.365412e+003;1.251088e-001
1.367341e+003;1.253350e-001
1.369269e+003;1.252031e-001
1.371198e+003;1.246352e-001
1.373126e+003;1.230596e-001
1.375055e+003;1.206056e-001
1.376983e+003;1.179178e-001
1.378912e+003;1.151900e-001
1.380840e+003;1.126633e-001
1.382769e+003;1.102460e-001
1.384698e+003;1.076762e-001
1.386626e+003;1.051422e-001
1.388555e+003;1.032998e-001
1.390483e+003;1.019382e-001
1.392412e+003;1.008048e-001
1.394340e+003;1.001117e-001
1.396269e+003;1.001098e-001
1.398197e+003;1.005941e-001
1.400126e+003;1.010981e-001
1.402054e+003;1.016807e-001
1.403983e+003;1.023920e-001
1.405911e+003;1.035073e-001
1.407840e+003;1.045676e-001
1.409769e+003;1.054698e-001
1.411697e+003;1.069783e-001
1.413626e+003;1.085074e-001
1.415554e+003;1.101883e-001
1.417483e+003;1.118254e-001
1.419411e+003;1.128142e-001
1.421340e+003;1.134439e-001
1.423268e+003;1.139209e-001
1.425197e+003;1.138622e-001
1.427125e+003;1.133648e-001
1.429054e+003;1.123496e-001
1.430983e+003;1.109321e-001
1.432911e+003;1.092592e-001
1.434840e+003;1.073452e-001
1.436768e+003;1.054756e-001
1.438697e+003;1.041284e-001
1.440625e+003;1.030072e-001
1.442554e+003;1.020490e-001
1.444482e+003;1.011238e-001
1.446411e+003;9.982680e-002
1.448340e+003;9.869979e-002
1.450268e+003;9.795474e-002
1.452197e+003;9.741535e-002
1.454125e+003;9.679476e-002
1.456054e+003;9.574141e-002
1.457982e+003;9.468637e-002
1.459911e+003;9.392843e-002
1.461839e+003;9.273570e-002
1.463768e+003;9.094402e-002
1.465697e+003;8.868317e-002
1.467625e+003;8.587823e-002
1.469554e+003;8.271656e-002
1.471482e+003;7.951555e-002
1.473411e+003;7.637114e-002
1.475339e+003;7.326584e-002
1.477268e+003;7.034339e-002
1.479196e+003;6.791253e-002
1.481125e+003;6.574742e-002
1.483053e+003;6.394953e-002
1.484982e+003;6.267583e-002
1.486911e+003;6.179538e-002
1.488839e+003;6.116209e-002
1.490768e+003;6.088590e-002
1.492696e+003;6.109950e-002
1.494625e+003;6.145327e-002
1.496553e+003;6.190591e-002
1.498482e+003;6.251177e-002
1.500410e+003;6.323142e-002
1.502339e+003;6.397226e-002
1.504267e+003;6.406568e-002
1.506196e+003;6.342930e-002
1.508125e+003;6.274493e-002
1.510053e+003;6.218986e-002
1.511982e+003;6.118101e-002
1.513910e+003;5.963680e-002
1.515839e+003;5.784357e-002
1.517767e+003;5.638405e-002
1.519696e+003;5.502346e-002
1.521624e+003;5.357524e-002
1.523553e+003;5.281595e-002
1.525481e+003;5.225674e-002
1.527410e+003;5.155396e-002
1.529339e+003;5.122960e-002
1.531267e+003;5.113003e-002
1.533196e+003;5.072825e-002
1.535124e+003;5.059916e-002
1.537053e+003;5.075625e-002
1.538981e+003;5.033202e-002
1.540910e+003;5.040584e-002
1.542838e+003;5.110416e-002
1.544767e+003;5.142672e-002
1.546695e+003;5.140460e-002
1.548624e+003;5.175709e-002
1.550553e+003;5.285513e-002
1.552481e+003;5.369873e-002
1.554410e+003;5.387634e-002
1.556338e+003;5.412102e-002
1.558267e+003;5.445484e-002
1.560195e+003;5.513623e-002
1.562124e+003;5.635307e-002
1.564052e+003;5.756853e-002
1.565981e+003;5.915053e-002
1.567910e+003;6.074026e-002
1.569838e+003;6.235522e-002
1.571767e+003;6.474368e-002
1.573695e+003;6.725483e-002
1.575624e+003;6.971375e-002
1.577552e+003;7.236708e-002
1.579481e+003;7.537843e-002
1.581409e+003;7.889974e-002
1.583338e+003;8.254271e-002
1.585266e+003;8.584423e-002
1.587195e+003;8.886963e-002
1.589124e+003;9.192678e-002
1.591052e+003;9.441775e-002
1.592981e+003;9.617882e-002
1.594909e+003;9.775758e-002
1.596838e+003;9.896508e-002
1.598766e+003;9.941924e-002
1.600695e+003;9.973333e-002
1.602623e+003;1.000855e-001
1.604552e+003;1.001686e-001
1.606480e+003;1.000442e-001
1.608409e+003;9.966626e-002
1.610338e+003;9.936725e-002
1.612266e+003;9.934447e-002
1.614195e+003;9.910113e-002
1.616123e+003;9.846824e-002
1.618052e+003;9.833654e-002
1.619980e+003;9.827716e-002
1.621909e+003;9.781535e-002
1.623837e+003;9.728791e-002
1.625766e+003;9.696465e-002
1.627694e+003;9.684524e-002
1.629623e+003;9.620293e-002
1.631552e+003;9.535480e-002
1.633480e+003;9.465275e-002
1.635409e+003;9.394328e-002
1.637337e+003;9.348782e-002
1.639266e+003;9.279834e-002
1.641194e+003;9.171277e-002
1.643123e+003;9.081564e-002
1.645051e+003;8.984725e-002
1.646980e+003;8.893554e-002
1.648909e+003;8.798841e-002
1.650837e+003;8.659369e-002
1.652766e+003;8.481628e-002
1.654694e+003;8.361674e-002
1.656623e+003;8.279262e-002
1.658551e+003;8.179677e-002
1.660480e+003;8.044528e-002
1.662408e+003;7.903235e-002
1.664337e+003;7.759046e-002
1.666266e+003;7.612198e-002
1.668194e+003;7.475955e-002
1.670123e+003;7.353056e-002
1.672051e+003;7.236590e-002
1.673980e+003;7.101980e-002
1.675908e+003;6.958080e-002
1.677837e+003;6.868947e-002
1.679765e+003;6.784458e-002
1.681694e+003;6.676008e-002
1.683622e+003;6.585580e-002
1.685551e+003;6.561380e-002
1.687479e+003;6.566756e-002
1.689408e+003;6.585418e-002
1.691337e+003;6.616462e-002
1.693265e+003;6.648261e-002
1.695194e+003;6.693577e-002
1.697122e+003;6.807671e-002
1.699051e+003;6.941617e-002
1.700979e+003;7.120998e-002
1.702908e+003;7.382066e-002
1.704836e+003;7.620747e-002
1.706765e+003;7.856649e-002
1.708693e+003;8.134507e-002
1.710622e+003;8.429360e-002
1.712551e+003;8.706598e-002
1.714479e+003;8.972620e-002
1.716408e+003;9.217600e-002
1.718336e+003;9.465481e-002
1.720265e+003;9.714583e-002
1.722193e+003;9.916187e-002
1.724122e+003;1.008700e-001
1.726050e+003;1.021555e-001
1.727979e+003;1.032263e-001
1.729908e+003;1.041385e-001
1.731836e+003;1.044588e-001
1.733765e+003;1.037887e-001
1.735693e+003;1.029941e-001
1.737622e+003;1.019186e-001
1.739550e+003;9.984915e-002
1.741479e+003;9.712519e-002
1.743407e+003;9.403820e-002
1.745336e+003;9.095313e-002
1.747265e+003;8.757292e-002
1.749193e+003;8.386988e-002
1.751122e+003;8.002454e-002
1.753050e+003;7.651812e-002
1.754979e+003;7.314921e-002
1.756907e+003;6.921425e-002
1.758836e+003;6.547967e-002
1.760764e+003;6.189800e-002
1.762693e+003;5.838898e-002
1.764621e+003;5.482237e-002
1.766550e+003;5.139628e-002
1.768479e+003;4.823131e-002
1.770407e+003;4.533524e-002
1.772336e+003;4.278946e-002
1.774264e+003;4.033643e-002
1.776193e+003;3.826065e-002
1.778121e+003;3.643408e-002
1.780050e+003;3.460512e-002
1.781978e+003;3.287510e-002
1.783907e+003;3.149112e-002
1.785835e+003;3.040585e-002
1.787764e+003;2.939656e-002
1.789693e+003;2.835510e-002
1.791621e+003;2.730875e-002
1.793550e+003;2.656305e-002
1.795478e+003;2.592541e-002
1.797407e+003;2.509132e-002
1.799335e+003;2.429885e-002
1.801264e+003;2.362859e-002
1.803192e+003;2.306829e-002
1.805121e+003;2.257606e-002
1.807049e+003;2.226827e-002
1.808978e+003;2.186183e-002
1.810907e+003;2.146760e-002
1.812835e+003;2.101043e-002
1.814764e+003;2.053780e-002
1.816692e+003;2.041706e-002
1.818621e+003;2.031337e-002
1.820549e+003;1.986023e-002
1.822478e+003;1.936882e-002
1.824406e+003;1.897695e-002
1.826335e+003;1.897418e-002
1.828264e+003;1.899038e-002
1.830192e+003;1.861469e-002
1.832121e+003;1.838055e-002
1.834049e+003;1.819638e-002
1.835978e+003;1.793808e-002
1.837906e+003;1.790017e-002
1.839835e+003;1.771424e-002
1.841763e+003;1.741393e-002
1.843692e+003;1.718574e-002
1.845620e+003;1.717085e-002
1.847549e+003;1.713859e-002
1.849478e+003;1.687778e-002
1.851406e+003;1.654646e-002
1.853335e+003;1.628291e-002
1.855263e+003;1.602447e-002
1.857192e+003;1.607704e-002
1.859120e+003;1.628435e-002
1.861049e+003;1.629192e-002
1.862977e+003;1.605442e-002
1.864906e+003;1.594111e-002
1.866834e+003;1.581625e-002
1.868763e+003;1.550754e-002
1.870692e+003;1.540495e-002
1.872620e+003;1.543097e-002
1.874549e+003;1.564911e-002
1.876477e+003;1.590938e-002
1.878406e+003;1.568438e-002
1.880334e+003;1.548385e-002
1.882263e+003;1.535023e-002
1.884191e+003;1.532383e-002
1.886120e+003;1.523704e-002
1.888048e+003;1.519424e-002
1.889977e+003;1.511197e-002
1.891906e+003;1.509842e-002
1.893834e+003;1.511660e-002
1.895763e+003;1.519671e-002
1.897691e+003;1.545356e-002
1.899620e+003;1.554490e-002
1.901548e+003;1.538490e-002
1.903477e+003;1.529634e-002
1.905405e+003;1.529816e-002
1.907334e+003;1.526597e-002
1.909262e+003;1.528240e-002
1.911191e+003;1.548110e-002
1.913120e+003;1.578371e-002
1.915048e+003;1.593867e-002
1.916977e+003;1.598442e-002
1.918905e+003;1.620761e-002
1.920834e+003;1.638309e-002
1.922762e+003;1.621160e-002
1.924691e+003;1.615527e-002
1.926619e+003;1.637535e-002
1.928548e+003;1.656016e-002
1.930477e+003;1.649128e-002
1.932405e+003;1.659592e-002
1.934334e+003;1.684492e-002
1.936262e+003;1.677387e-002
1.938191e+003;1.686452e-002
1.940119e+003;1.714021e-002
1.942048e+003;1.718605e-002
1.943976e+003;1.714179e-002
1.945905e+003;1.724114e-002
1.947833e+003;1.747126e-002
1.949762e+003;1.770323e-002
1.951691e+003;1.792572e-002
1.953619e+003;1.814570e-002
1.955548e+003;1.804538e-002
1.957476e+003;1.797707e-002
1.959405e+003;1.791415e-002
1.961333e+003;1.817168e-002
1.963262e+003;1.846075e-002
1.965190e+003;1.822499e-002
1.967119e+003;1.789706e-002
1.969047e+003;1.785031e-002
1.970976e+003;1.804379e-002
1.972905e+003;1.826480e-002
1.974833e+003;1.841117e-002
1.976762e+003;1.855338e-002
1.978690e+003;1.851970e-002
1.980619e+003;1.835476e-002
1.982547e+003;1.836565e-002
1.984476e+003;1.844585e-002
1.986404e+003;1.865374e-002
1.988333e+003;1.890191e-002
1.990261e+003;1.905221e-002
1.992190e+003;1.903279e-002
1.994119e+003;1.907987e-002
1.996047e+003;1.914348e-002
1.997976e+003;1.933618e-002
1.999904e+003;1.960617e-002
2.001833e+003;1.966039e-002
2.003761e+003;1.957934e-002
2.005690e+003;1.944997e-002
2.007618e+003;1.993501e-002
2.009547e+003;2.050493e-002
2.011476e+003;2.026682e-002
2.013404e+003;2.021179e-002
2.015333e+003;2.089996e-002
2.017261e+003;2.128508e-002
2.019190e+003;2.110764e-002
2.021118e+003;2.109839e-002
2.023047e+003;2.158072e-002
2.024975e+003;2.181099e-002
2.026904e+003;2.207230e-002
2.028833e+003;2.218478e-002
2.030761e+003;2.201907e-002
2.032690e+003;2.201363e-002
2.034618e+003;2.205613e-002
2.036547e+003;2.213377e-002
2.038475e+003;2.242392e-002
2.040404e+003;2.273493e-002
2.042332e+003;2.295128e-002
2.044261e+003;2.313178e-002
2.046189e+003;2.329138e-002
2.048118e+003;2.314810e-002
2.050047e+003;2.302185e-002
2.051975e+003;2.318015e-002
2.053904e+003;2.316851e-002
2.055832e+003;2.304048e-002
2.057761e+003;2.308992e-002
2.059689e+003;2.318752e-002
2.061618e+003;2.325180e-002
2.063546e+003;2.313527e-002
2.065475e+003;2.337854e-002
2.067404e+003;2.362663e-002
2.069332e+003;2.361585e-002
2.071260e+003;2.386782e-002
2.073189e+003;2.392334e-002
2.075118e+003;2.365542e-002
2.077046e+003;2.380009e-002
2.078975e+003;2.404919e-002
2.080903e+003;2.419882e-002
2.082832e+003;2.404054e-002
2.084760e+003;2.370214e-002
2.086689e+003;2.371039e-002
2.088617e+003;2.376114e-002
2.090546e+003;2.385123e-002
2.092475e+003;2.392923e-002
2.094403e+003;2.406604e-002
2.096332e+003;2.423820e-002
2.098260e+003;2.421781e-002
2.100189e+003;2.415756e-002
2.102117e+003;2.432128e-002
2.104046e+003;2.445446e-002
2.105974e+003;2.455539e-002
2.107903e+003;2.471401e-002
2.109832e+003;2.491240e-002
2.111760e+003;2.501989e-002
2.113688e+003;2.507770e-002
2.115617e+003;2.512745e-002
2.117546e+003;2.519331e-002
2.119474e+003;2.506191e-002
2.121403e+003;2.486155e-002
2.123331e+003;2.483461e-002
2.125260e+003;2.488155e-002
2.127188e+003;2.511053e-002
2.129117e+003;2.546180e-002
2.131045e+003;2.560760e-002
2.132974e+003;2.553218e-002
2.134903e+003;2.534296e-002
2.136831e+003;2.524346e-002
2.138760e+003;2.537050e-002
2.140688e+003;2.526653e-002
2.142617e+003;2.507008e-002
2.144545e+003;2.506359e-002
2.146474e+003;2.519142e-002
2.148402e+003;2.539565e-002
2.150331e+003;2.508476e-002
2.152260e+003;2.484383e-002
2.154188e+003;2.474996e-002
2.156117e+003;2.462977e-002
2.158045e+003;2.461739e-002
2.159974e+003;2.468956e-002
2.161902e+003;2.481240e-002
2.163831e+003;2.472698e-002
2.165759e+003;2.447981e-002
2.167688e+003;2.418236e-002
2.169616e+003;2.403137e-002
2.171545e+003;2.390892e-002
2.173474e+003;2.393963e-002
2.175402e+003;2.399152e-002
2.177331e+003;2.360976e-002
2.179259e+003;2.314932e-002
2.181188e+003;2.303855e-002
2.183116e+003;2.292467e-002
2.185045e+003;2.281032e-002
2.186973e+003;2.278982e-002
2.188902e+003;2.273832e-002
2.190831e+003;2.278242e-002
2.192759e+003;2.265869e-002
2.194688e+003;2.225188e-002
2.196616e+003;2.203765e-002
2.198545e+003;2.229115e-002
2.200473e+003;2.241938e-002
2.202402e+003;2.230995e-002
2.204330e+003;2.218248e-002
2.206259e+003;2.197435e-002
2.208188e+003;2.186649e-002
2.210116e+003;2.191291e-002
2.212044e+003;2.207997e-002
2.213973e+003;2.197477e-002
2.215902e+003;2.185113e-002
2.217830e+003;2.201224e-002
2.219759e+003;2.219730e-002
2.221687e+003;2.226907e-002
2.223616e+003;2.205763e-002
2.225544e+003;2.176033e-002
2.227473e+003;2.199133e-002
2.229401e+003;2.215235e-002
2.231330e+003;2.197017e-002
2.233259e+003;2.198094e-002
2.235187e+003;2.216096e-002
2.237116e+003;2.217631e-002
2.239044e+003;2.220211e-002
2.240973e+003;2.216714e-002
2.242901e+003;2.210180e-002
2.244830e+003;2.192295e-002
2.246758e+003;2.187939e-002
2.248687e+003;2.213865e-002
2.250615e+003;2.218593e-002
2.252544e+003;2.184207e-002
2.254473e+003;2.174758e-002
2.256401e+003;2.184942e-002
2.258330e+003;2.174131e-002
2.260258e+003;2.159580e-002
2.262187e+003;2.167360e-002
2.264115e+003;2.190967e-002
2.266044e+003;2.195285e-002
2.267972e+003;2.180343e-002
2.269901e+003;2.169861e-002
2.271830e+003;2.157759e-002
2.273758e+003;2.152563e-002
2.275687e+003;2.149677e-002
2.277615e+003;2.134392e-002
2.279544e+003;2.106993e-002
2.281472e+003;2.098591e-002
2.283401e+003;2.111390e-002
2.285329e+003;2.146405e-002
2.287258e+003;2.154377e-002
2.289187e+003;2.150735e-002
2.291115e+003;2.146467e-002
2.293043e+003;2.133101e-002
2.294972e+003;2.130996e-002
2.296901e+003;2.119666e-002
2.298829e+003;2.088859e-002
2.300758e+003;2.085118e-002
2.302686e+003;2.096296e-002
2.304615e+003;2.073613e-002
2.306543e+003;2.045693e-002
2.308472e+003;2.052380e-002
2.310400e+003;2.090281e-002
2.312329e+003;2.102392e-002
2.314258e+003;2.103776e-002
2.316186e+003;2.122641e-002
2.318115e+003;2.132123e-002
2.320043e+003;2.087117e-002
2.321972e+003;2.052039e-002
2.323900e+003;2.060255e-002
2.325829e+003;2.034636e-002
2.327757e+003;1.997213e-002
2.329686e+003;2.018555e-002
2.331615e+003;2.039883e-002
2.333543e+003;2.046846e-002
2.335472e+003;2.075587e-002
2.337400e+003;2.080860e-002
2.339329e+003;2.054686e-002
2.341257e+003;2.057163e-002
2.343186e+003;2.076828e-002
2.345114e+003;2.113161e-002
2.347043e+003;2.158681e-002
2.348971e+003;2.190702e-002
2.350900e+003;2.175103e-002
2.352829e+003;2.165061e-002
2.354757e+003;2.167339e-002
2.356686e+003;2.153740e-002
2.358614e+003;2.146579e-002
2.360543e+003;2.163661e-002
2.362471e+003;2.166353e-002
2.364400e+003;2.137062e-002
2.366328e+003;2.126322e-002
2.368257e+003;2.171940e-002
2.370186e+003;2.222541e-002
2.372114e+003;2.260046e-002
2.374042e+003;2.299017e-002
2.375971e+003;2.338330e-002
2.377900e+003;2.387958e-002
2.379828e+003;2.412891e-002
2.381757e+003;2.406537e-002
2.383685e+003;2.391197e-002
2.385614e+003;2.404779e-002
2.387542e+003;2.420250e-002
2.389471e+003;2.412694e-002
2.391399e+003;2.408299e-002
2.393328e+003;2.399159e-002
2.395257e+003;2.399967e-002
2.397185e+003;2.441591e-002
2.399114e+003;2.493984e-002
2.401042e+003;2.510733e-002
2.402971e+003;2.508262e-002
2.404899e+003;2.521786e-002
2.406828e+003;2.528325e-002
2.408756e+003;2.558697e-002
2.410685e+003;2.588942e-002
2.412614e+003;2.581484e-002
2.414542e+003;2.569322e-002
2.416471e+003;2.590961e-002
2.418399e+003;2.629515e-002
2.420328e+003;2.653209e-002
2.422256e+003;2.661727e-002
2.424185e+003;2.676433e-002
2.426113e+003;2.685382e-002
2.428042e+003;2.687007e-002
2.429970e+003;2.717173e-002
2.431899e+003;2.724616e-002
2.433828e+003;2.702748e-002
2.435756e+003;2.710136e-002
2.437685e+003;2.756178e-002
2.439613e+003;2.822259e-002
2.441542e+003;2.860467e-002
2.443470e+003;2.852568e-002
2.445399e+003;2.840055e-002
2.447327e+003;2.870345e-002
2.449256e+003;2.904812e-002
2.451185e+003;2.895042e-002
2.453113e+003;2.894433e-002
2.455042e+003;2.920731e-002
2.456970e+003;2.914867e-002
2.458899e+003;2.902148e-002
2.460827e+003;2.943567e-002
2.462756e+003;2.979568e-002
2.464684e+003;2.997837e-002
2.466613e+003;3.012182e-002
2.468542e+003;3.018245e-002
2.470470e+003;3.031122e-002
2.472398e+003;3.054432e-002
2.474327e+003;3.073988e-002
2.476256e+003;3.088974e-002
2.478184e+003;3.098364e-002
2.480113e+003;3.100324e-002
2.482041e+003;3.083513e-002
2.483970e+003;3.089468e-002
2.485898e+003;3.117000e-002
2.487827e+003;3.129639e-002
2.489755e+003;3.136299e-002
2.491684e+003;3.146504e-002
2.493613e+003;3.170827e-002
2.495541e+003;3.189747e-002
2.497470e+003;3.169943e-002
2.499398e+003;3.185212e-002
2.501327e+003;3.241488e-002
2.503255e+003;3.263068e-002
2.505184e+003;3.248993e-002
2.507112e+003;3.233795e-002
2.509041e+003;3.256335e-002
2.510969e+003;3.291209e-002
2.512898e+003;3.307801e-002
2.514827e+003;3.342241e-002
2.516755e+003;3.358311e-002
2.518684e+003;3.338040e-002
2.520612e+003;3.338548e-002
2.522541e+003;3.374409e-002
2.524469e+003;3.405744e-002
2.526398e+003;3.411701e-002
2.528326e+003;3.395055e-002
2.530255e+003;3.394543e-002
2.532184e+003;3.397430e-002
2.534112e+003;3.411611e-002
2.536041e+003;3.426724e-002
2.537969e+003;3.438658e-002
2.539898e+003;3.461689e-002
2.541826e+003;3.461897e-002
2.543755e+003;3.459712e-002
2.545683e+003;3.472700e-002
2.547612e+003;3.463451e-002
2.549541e+003;3.457581e-002
2.551469e+003;3.487328e-002
2.553397e+003;3.506969e-002
2.555326e+003;3.504964e-002
2.557255e+003;3.517560e-002
2.559183e+003;3.534349e-002
2.561112e+003;3.498679e-002
2.563040e+003;3.479068e-002
2.564969e+003;3.525846e-002
2.566897e+003;3.574239e-002
2.568826e+003;3.595524e-002
2.570754e+003;3.583839e-002
2.572683e+003;3.558837e-002
2.574612e+003;3.546694e-002
2.576540e+003;3.583101e-002
2.578469e+003;3.618246e-002
2.580397e+003;3.627077e-002
2.582326e+003;3.616546e-002
2.584254e+003;3.619546e-002
2.586183e+003;3.664410e-002
2.588111e+003;3.711822e-002
2.590040e+003;3.712309e-002
2.591969e+003;3.683237e-002
2.593897e+003;3.666671e-002
2.595826e+003;3.677113e-002
2.597754e+003;3.704496e-002
2.599683e+003;3.726333e-002
2.601611e+003;3.699870e-002
2.603540e+003;3.724123e-002
2.605468e+003;3.751196e-002
2.607397e+003;3.750405e-002
2.609325e+003;3.742744e-002
2.611254e+003;3.765261e-002
2.613183e+003;3.826426e-002
2.615111e+003;3.838322e-002
2.617040e+003;3.837327e-002
2.618968e+003;3.837211e-002
2.620897e+003;3.855048e-002
2.622825e+003;3.891179e-002
2.624754e+003;3.898057e-002
2.626682e+003;3.906003e-002
2.628611e+003;3.960739e-002
2.630540e+003;3.994650e-002
2.632468e+003;3.988334e-002
2.634396e+003;3.987328e-002
2.636325e+003;4.016855e-002
2.638254e+003;4.023954e-002
2.640182e+003;4.008664e-002
2.642111e+003;4.020061e-002
2.644039e+003;4.055023e-002
2.645968e+003;4.091794e-002
2.647896e+003;4.110438e-002
2.649825e+003;4.109998e-002
2.651753e+003;4.123203e-002
2.653682e+003;4.120420e-002
2.655611e+003;4.146476e-002
2.657539e+003;4.194881e-002
2.659468e+003;4.196618e-002
2.661396e+003;4.217498e-002
2.663325e+003;4.261248e-002
2.665253e+003;4.267824e-002
2.667182e+003;4.274730e-002
2.669110e+003;4.298231e-002
2.671039e+003;4.323794e-002
2.672968e+003;4.315782e-002
2.674896e+003;4.306144e-002
2.676825e+003;4.315702e-002
2.678753e+003;4.358430e-002
2.680682e+003;4.386510e-002
2.682610e+003;4.388904e-002
2.684539e+003;4.401666e-002
2.686467e+003;4.418482e-002
2.688396e+003;4.422106e-002
2.690324e+003;4.423020e-002
2.692253e+003;4.461914e-002
2.694182e+003;4.491975e-002
2.696110e+003;4.497924e-002
2.698039e+003;4.535999e-002
2.699967e+003;4.577170e-002
2.701896e+003;4.573268e-002
2.703824e+003;4.563705e-002
2.705753e+003;4.583897e-002
2.707681e+003;4.637662e-002
2.709610e+003;4.667757e-002
2.711539e+003;4.671527e-002
2.713467e+003;4.689445e-002
2.715396e+003;4.709179e-002
2.717324e+003;4.715169e-002
2.719253e+003;4.719513e-002
2.721181e+003;4.713141e-002
2.723110e+003;4.696894e-002
2.725038e+003;4.717197e-002
2.726967e+003;4.755582e-002
2.728896e+003;4.787365e-002
2.730824e+003;4.796633e-002
2.732752e+003;4.802828e-002
2.734681e+003;4.817904e-002
2.736610e+003;4.804733e-002
2.738538e+003;4.813806e-002
2.740467e+003;4.842382e-002
2.742395e+003;4.851643e-002
2.744324e+003;4.858635e-002
2.746252e+003;4.858524e-002
2.748181e+003;4.849913e-002
2.750109e+003;4.864902e-002
2.752038e+003;4.916452e-002
2.753967e+003;4.927834e-002
2.755895e+003;4.906423e-002
2.757824e+003;4.897362e-002
2.759752e+003;4.905507e-002
2.761681e+003;4.907062e-002
2.763609e+003;4.922318e-002
2.765538e+003;4.963687e-002
2.767466e+003;4.994343e-002
2.769395e+003;5.018872e-002
2.771323e+003;5.028912e-002
2.773252e+003;5.032666e-002
2.775181e+003;5.076672e-002
2.777109e+003;5.115511e-002
2.779038e+003;5.117338e-002
2.780966e+003;5.120603e-002
2.782895e+003;5.126326e-002
2.784823e+003;5.155426e-002
2.786752e+003;5.162422e-002
2.788680e+003;5.189810e-002
2.790609e+003;5.276528e-002
2.792538e+003;5.291108e-002
2.794466e+003;5.288989e-002
2.796395e+003;5.319382e-002
2.798323e+003;5.362697e-002
2.800252e+003;5.399883e-002
2.802180e+003;5.390995e-002
2.804109e+003;5.389472e-002
2.806037e+003;5.436448e-002
2.807966e+003;5.504121e-002
2.809895e+003;5.529701e-002
2.811823e+003;5.564119e-002
2.813751e+003;5.596638e-002
2.815680e+003;5.627419e-002
2.817609e+003;5.674902e-002
2.819537e+003;5.729223e-002
2.821466e+003;5.769407e-002
2.823394e+003;5.799377e-002
2.825323e+003;5.860834e-002
2.827251e+003;5.951085e-002
2.829180e+003;6.061986e-002
2.831108e+003;6.152580e-002
2.833037e+003;6.223735e-002
2.834966e+003;6.278391e-002
2.836894e+003;6.345028e-002
2.838823e+003;6.432131e-002
2.840751e+003;6.537697e-002
2.842680e+003;6.655309e-002
2.844608e+003;6.731228e-002
2.846537e+003;6.777067e-002
2.848465e+003;6.851581e-002
2.850394e+003;6.949186e-002
2.852323e+003;7.042705e-002
2.854251e+003;7.098687e-002
2.856180e+003;7.194424e-002
2.858108e+003;7.292380e-002
2.860037e+003;7.334591e-002
2.861965e+003;7.402119e-002
2.863894e+003;7.497206e-002
2.865822e+003;7.574229e-002
2.867751e+003;7.592351e-002
2.869679e+003;7.622630e-002
2.871608e+003;7.688539e-002
2.873536e+003;7.755346e-002
2.875465e+003;7.784577e-002
2.877394e+003;7.822389e-002
2.879322e+003;7.872498e-002
2.881251e+003;7.930761e-002
2.883179e+003;7.966296e-002
2.885108e+003;7.951014e-002
2.887036e+003;7.957847e-002
2.888965e+003;7.986642e-002
2.890893e+003;8.013646e-002
2.892822e+003;8.001634e-002
2.894750e+003;8.002016e-002
2.896679e+003;8.037151e-002
2.898608e+003;8.057685e-002
2.900536e+003;8.078169e-002
2.902465e+003;8.067371e-002
2.904393e+003;8.017719e-002
2.906322e+003;8.025184e-002
2.908250e+003;8.033328e-002
2.910179e+003;8.003820e-002
2.912107e+003;7.971491e-002
2.914036e+003;7.954170e-002
2.915965e+003;7.953815e-002
2.917893e+003;7.914990e-002
2.919822e+003;7.877237e-002
2.921750e+003;7.845680e-002
2.923679e+003;7.804251e-002
2.925607e+003;7.733870e-002
2.927536e+003;7.685498e-002
2.929464e+003;7.659827e-002
2.931393e+003;7.655483e-002
2.933322e+003;7.669176e-002
2.935250e+003;7.637940e-002
2.937178e+003;7.594770e-002
2.939107e+003;7.563449e-002
2.941036e+003;7.490693e-002
2.942964e+003;7.423039e-002
2.944893e+003;7.362402e-002
2.946821e+003;7.297381e-002
2.948750e+003;7.196618e-002
2.950678e+003;7.095967e-002
2.952607e+003;7.007769e-002
2.954535e+003;6.886508e-002
2.956464e+003;6.791628e-002
2.958393e+003;6.715790e-002
2.960321e+003;6.626724e-002
2.962250e+003;6.541945e-002
2.964178e+003;6.482772e-002
2.966107e+003;6.433241e-002
2.968035e+003;6.387602e-002
2.969964e+003;6.341182e-002
2.971892e+003;6.292149e-002
2.973821e+003;6.217017e-002
2.975750e+003;6.137606e-002
2.977678e+003;6.083539e-002
2.979607e+003;6.031393e-002
2.981535e+003;5.981549e-002
2.983464e+003;5.958454e-002
2.985392e+003;5.895288e-002
2.987321e+003;5.838235e-002
2.989249e+003;5.826923e-002
2.991178e+003;5.811553e-002
2.993106e+003;5.763425e-002
2.995035e+003;5.711223e-002
2.996964e+003;5.678161e-002
2.998892e+003;5.658609e-002
3.000821e+003;5.650434e-002
3.002749e+003;5.649102e-002
3.004678e+003;5.639993e-002
3.006606e+003;5.616863e-002
3.008535e+003;5.625402e-002
3.010463e+003;5.609899e-002
3.012392e+003;5.574688e-002
3.014321e+003;5.596928e-002
3.016249e+003;5.614552e-002
3.018177e+003;5.604241e-002
3.020106e+003;5.630807e-002
3.022035e+003;5.653951e-002
3.023963e+003;5.662519e-002
3.025892e+003;5.679116e-002
3.027820e+003;5.683561e-002
3.029749e+003;5.683392e-002
3.031677e+003;5.673769e-002
3.033606e+003;5.647362e-002
3.035534e+003;5.656366e-002
3.037463e+003;5.717614e-002
3.039392e+003;5.757591e-002
3.041320e+003;5.765676e-002
3.043249e+003;5.755336e-002
3.045177e+003;5.800350e-002
3.047106e+003;5.854888e-002
3.049034e+003;5.893735e-002
3.050963e+003;5.951773e-002
3.052891e+003;5.956633e-002
3.054820e+003;5.952001e-002
3.056749e+003;5.999307e-002
3.058677e+003;6.050535e-002
3.060606e+003;6.060652e-002
3.062534e+003;6.074864e-002
3.064463e+003;6.070334e-002
3.066391e+003;6.074205e-002
3.068320e+003;6.137999e-002
3.070248e+003;6.214834e-002
3.072177e+003;6.241535e-002
3.074105e+003;6.258340e-002
3.076034e+003;6.314135e-002
3.077963e+003;6.367585e-002
3.079891e+003;6.390377e-002
3.081820e+003;6.381142e-002
3.083748e+003;6.375843e-002
3.085677e+003;6.437968e-002
3.087605e+003;6.466533e-002
3.089534e+003;6.496084e-002
3.091462e+003;6.571917e-002
3.093391e+003;6.604097e-002
3.095320e+003;6.606222e-002
3.097248e+003;6.615444e-002
3.099177e+003;6.670903e-002
3.101105e+003;6.733394e-002
3.103034e+003;6.777931e-002
3.104962e+003;6.807198e-002
3.106891e+003;6.855485e-002
3.108819e+003;6.893863e-002
3.110748e+003;6.904420e-002
3.112677e+003;6.926904e-002
3.114605e+003;6.967298e-002
3.116533e+003;7.039288e-002
3.118462e+003;7.093665e-002
3.120391e+003;7.081819e-002
3.122319e+003;7.096739e-002
3.124248e+003;7.189536e-002
3.126176e+003;7.252708e-002
3.128105e+003;7.274747e-002
3.130033e+003;7.316560e-002
3.131962e+003;7.383531e-002
3.133890e+003;7.426876e-002
3.135819e+003;7.424969e-002
3.137748e+003;7.450156e-002
3.139676e+003;7.520850e-002
3.141605e+003;7.589431e-002
3.143533e+003;7.597509e-002
3.145462e+003;7.612766e-002
3.147390e+003;7.664610e-002
3.149319e+003;7.699323e-002
3.151247e+003;7.740727e-002
3.153176e+003;7.803585e-002
3.155104e+003;7.885420e-002
3.157033e+003;7.953580e-002
3.158962e+003;7.982755e-002
3.160890e+003;8.008721e-002
3.162819e+003;8.019078e-002
3.164747e+003;8.068182e-002
3.166676e+003;8.150686e-002
3.168604e+003;8.203588e-002
3.170533e+003;8.262490e-002
3.172461e+003;8.274354e-002
3.174390e+003;8.303175e-002
3.176319e+003;8.374627e-002
3.178247e+003;8.419918e-002
3.180176e+003;8.478261e-002
3.182104e+003;8.534080e-002
3.184033e+003;8.602612e-002
3.185961e+003;8.725968e-002
3.187890e+003;8.768218e-002
3.189818e+003;8.720500e-002
3.191747e+003;8.760559e-002
3.193676e+003;8.859227e-002
3.195604e+003;8.906947e-002
3.197532e+003;8.926814e-002
3.199461e+003;8.988360e-002
3.201390e+003;9.009638e-002
3.203318e+003;8.994143e-002
3.205247e+003;9.075777e-002
3.207175e+003;9.208030e-002
3.209104e+003;9.264919e-002
3.211032e+003;9.277779e-002
3.212961e+003;9.362702e-002
3.214889e+003;9.436221e-002
3.216818e+003;9.445050e-002
3.218747e+003;9.488553e-002
3.220675e+003;9.557428e-002
3.222604e+003;9.605236e-002
3.224532e+003;9.625515e-002
3.226461e+003;9.636625e-002
3.228389e+003;9.660773e-002
3.230318e+003;9.725337e-002
3.232246e+003;9.793656e-002
3.234175e+003;9.887662e-002
3.236104e+003;9.958582e-002
3.238032e+003;1.000498e-001
3.239961e+003;1.004721e-001
3.241889e+003;1.008759e-001
3.243818e+003;1.015660e-001
3.245746e+003;1.025238e-001
3.247675e+003;1.027903e-001
3.249603e+003;1.027095e-001
3.251532e+003;1.036493e-001
3.253460e+003;1.042739e-001
3.255389e+003;1.043950e-001
3.257318e+003;1.049652e-001
3.259246e+003;1.054982e-001
3.261175e+003;1.058160e-001
3.263103e+003;1.061910e-001
3.265032e+003;1.063035e-001
3.266960e+003;1.066354e-001
3.268889e+003;1.071284e-001
3.270817e+003;1.073654e-001
3.272746e+003;1.077344e-001
3.274675e+003;1.085263e-001
3.276603e+003;1.094776e-001
3.278531e+003;1.098330e-001
3.280460e+003;1.099446e-001
3.282389e+003;1.098518e-001
3.284317e+003;1.100462e-001
3.286246e+003;1.108612e-001
3.288174e+003;1.111939e-001
3.290103e+003;1.107523e-001
3.292031e+003;1.104907e-001
3.293960e+003;1.111649e-001
3.295888e+003;1.117380e-001
3.297817e+003;1.116019e-001
3.299746e+003;1.115853e-001
3.301674e+003;1.117796e-001
3.303603e+003;1.121399e-001
3.305531e+003;1.123999e-001
3.307460e+003;1.129045e-001
3.309388e+003;1.129293e-001
3.311317e+003;1.125637e-001
3.313245e+003;1.126271e-001
3.315174e+003;1.126967e-001
3.317103e+003;1.126541e-001
3.319031e+003;1.128336e-001
3.320960e+003;1.130184e-001
3.322888e+003;1.134070e-001
3.324817e+003;1.135329e-001
3.326745e+003;1.136490e-001
3.328674e+003;1.137920e-001
3.330602e+003;1.137445e-001
3.332531e+003;1.139057e-001
3.334459e+003;1.138433e-001
3.336388e+003;1.138366e-001
3.338317e+003;1.135833e-001
3.340245e+003;1.133321e-001
3.342174e+003;1.132945e-001
3.344102e+003;1.133518e-001
3.346031e+003;1.131180e-001
3.347959e+003;1.128341e-001
3.349888e+003;1.130494e-001
3.351816e+003;1.131813e-001
3.353745e+003;1.128478e-001
3.355674e+003;1.123595e-001
3.357602e+003;1.120986e-001
3.359531e+003;1.119137e-001
3.361459e+003;1.119943e-001
3.363388e+003;1.124035e-001
3.365316e+003;1.118939e-001
3.367245e+003;1.111524e-001
3.369173e+003;1.106455e-001
3.371102e+003;1.104851e-001
3.373031e+003;1.106802e-001
3.374959e+003;1.103919e-001
3.376887e+003;1.098491e-001
3.378816e+003;1.096070e-001
3.380745e+003;1.095680e-001
3.382673e+003;1.093734e-001
3.384602e+003;1.088901e-001
3.386530e+003;1.083806e-001
3.388459e+003;1.081002e-001
3.390387e+003;1.082460e-001
3.392316e+003;1.086315e-001
3.394244e+003;1.085594e-001
3.396173e+003;1.079147e-001
3.398102e+003;1.074270e-001
3.400030e+003;1.071890e-001
3.401959e+003;1.066362e-001
3.403887e+003;1.057442e-001
3.405816e+003;1.047089e-001
3.407744e+003;1.045373e-001
3.409673e+003;1.047491e-001
3.411601e+003;1.045725e-001
3.413530e+003;1.042729e-001
3.415458e+003;1.036430e-001
3.417387e+003;1.028537e-001
3.419316e+003;1.021634e-001
3.421244e+003;1.013537e-001
3.423173e+003;1.008415e-001
3.425101e+003;1.007797e-001
3.427030e+003;1.007446e-001
3.428958e+003;1.008031e-001
3.430887e+003;1.003347e-001
3.432815e+003;9.923998e-002
3.434744e+003;9.835208e-002
3.436673e+003;9.786105e-002
3.438601e+003;9.754458e-002
3.440530e+003;9.693930e-002
3.442458e+003;9.597196e-002
3.444387e+003;9.545076e-002
3.446315e+003;9.508163e-002
3.448244e+003;9.434870e-002
3.450172e+003;9.387118e-002
3.452101e+003;9.336267e-002
3.454030e+003;9.288500e-002
3.455958e+003;9.276081e-002
3.457886e+003;9.156432e-002
3.459815e+003;9.038968e-002
3.461744e+003;9.023944e-002
3.463672e+003;9.002834e-002
3.465601e+003;8.910637e-002
3.467529e+003;8.820417e-002
3.469458e+003;8.793591e-002
3.471386e+003;8.781625e-002
3.473315e+003;8.765749e-002
3.475243e+003;8.675735e-002
3.477172e+003;8.508825e-002
3.479101e+003;8.403692e-002
3.481029e+003;8.371991e-002
3.482958e+003;8.334404e-002
3.484886e+003;8.300343e-002
3.486815e+003;8.225915e-002
3.488743e+003;8.186001e-002
3.490672e+003;8.156426e-002
3.492600e+003;8.081346e-002
3.494529e+003;7.962439e-002
3.496458e+003;7.841004e-002
3.498386e+003;7.756566e-002
3.500315e+003;7.704450e-002
3.502243e+003;7.666408e-002
3.504172e+003;7.625691e-002
3.506100e+003;7.587347e-002
3.508029e+003;7.511124e-002
3.509957e+003;7.386366e-002
3.511886e+003;7.311972e-002
3.513814e+003;7.269047e-002
3.515743e+003;7.196184e-002
3.517672e+003;7.084026e-002
3.519600e+003;6.984168e-002
3.521529e+003;6.938234e-002
3.523457e+003;6.869680e-002
3.525386e+003;6.817121e-002
3.527314e+003;6.788905e-002
3.529243e+003;6.697655e-002
3.531171e+003;6.586155e-002
3.533100e+003;6.509958e-002
3.535029e+003;6.437537e-002
3.536957e+003;6.408127e-002
3.538885e+003;6.342160e-002
3.540814e+003;6.268242e-002
3.542743e+003;6.243636e-002
3.544671e+003;6.173922e-002
3.546600e+003;6.107951e-002
3.548528e+003;6.029859e-002
3.550457e+003;5.935705e-002
3.552385e+003;5.845114e-002
3.554314e+003;5.736395e-002
3.556242e+003;5.664414e-002
3.558171e+003;5.601794e-002
3.560100e+003;5.528824e-002
3.562028e+003;5.441675e-002
3.563957e+003;5.391828e-002
3.565885e+003;5.344380e-002
3.567814e+003;5.277374e-002
3.569742e+003;5.216961e-002
3.571671e+003;5.165829e-002
3.573599e+003;5.120327e-002
3.575528e+003;5.032498e-002
3.577457e+003;4.936894e-002
3.579385e+003;4.876411e-002
3.581314e+003;4.808290e-002
3.583242e+003;4.732576e-002
3.585171e+003;4.659810e-002
3.587099e+003;4.607392e-002
3.589028e+003;4.563727e-002
3.590956e+003;4.505389e-002
3.592885e+003;4.432618e-002
3.594813e+003;4.381650e-002
3.596742e+003;4.339042e-002
3.598671e+003;4.255832e-002
3.600599e+003;4.165983e-002
3.602528e+003;4.154657e-002
3.604456e+003;4.127499e-002
3.606385e+003;4.083392e-002
3.608313e+003;3.994527e-002
3.610242e+003;3.855740e-002
3.612170e+003;3.779378e-002
3.614099e+003;3.764596e-002
3.616028e+003;3.740909e-002
3.617956e+003;3.676651e-002
3.619885e+003;3.610248e-002
3.621813e+003;3.559801e-002
3.623742e+003;3.447833e-002
3.625670e+003;3.371053e-002
3.627599e+003;3.299871e-002
3.629527e+003;3.216208e-002
3.631456e+003;3.154605e-002
3.633385e+003;3.110756e-002
3.635313e+003;3.063004e-002
3.637241e+003;2.989868e-002
3.639170e+003;2.878356e-002
3.641099e+003;2.776733e-002
3.643027e+003;2.723307e-002
3.644956e+003;2.695326e-002
3.646884e+003;2.589308e-002
3.648813e+003;2.466967e-002
3.650741e+003;2.368223e-002
3.652670e+003;2.283375e-002
3.654598e+003;2.199133e-002
3.656527e+003;2.137382e-002
3.658456e+003;2.089620e-002
3.660384e+003;2.018937e-002
3.662313e+003;1.922659e-002
3.664241e+003;1.843883e-002
3.666170e+003;1.720108e-002
3.668098e+003;1.587079e-002
3.670027e+003;1.523645e-002
3.671955e+003;1.506229e-002
3.673884e+003;1.417416e-002
3.675813e+003;1.280825e-002
3.677741e+003;1.234755e-002
3.679669e+003;1.226994e-002
3.681598e+003;1.193241e-002
3.683527e+003;1.124891e-002
3.685455e+003;1.069130e-002
3.687384e+003;1.011817e-002
3.689312e+003;9.798433e-003
3.691241e+003;9.563468e-003
3.693169e+003;9.338449e-003
3.695098e+003;9.455905e-003
3.697026e+003;8.997197e-003
3.698955e+003;8.224855e-003
3.700884e+003;8.251295e-003
3.702812e+003;8.292666e-003
3.704741e+003;7.720357e-003
3.706669e+003;7.453581e-003
3.708598e+003;6.999844e-003
3.710526e+003;6.647201e-003
3.712455e+003;6.526601e-003
3.714383e+003;6.510926e-003
3.716312e+003;6.733812e-003
3.718240e+003;6.917960e-003
3.720169e+003;6.777629e-003
3.722098e+003;6.688284e-003
3.724026e+003;6.525827e-003
3.725955e+003;5.928767e-003
3.727883e+003;5.471083e-003
3.729812e+003;5.431927e-003
3.731740e+003;5.830495e-003
3.733669e+003;5.959099e-003
3.735597e+003;5.316996e-003
3.737526e+003;5.219366e-003
3.739455e+003;5.454474e-003
3.741383e+003;5.250890e-003
3.743312e+003;4.528130e-003
3.745240e+003;4.403999e-003
3.747169e+003;4.802998e-003
3.749097e+003;4.796264e-003
3.751026e+003;4.603403e-003
3.752954e+003;4.658157e-003
3.754883e+003;4.791406e-003
3.756812e+003;4.337763e-003
3.758740e+003;4.463951e-003
3.760668e+003;5.107039e-003
3.762597e+003;5.538196e-003
3.764526e+003;5.140567e-003
3.766454e+003;5.054843e-003
3.768383e+003;4.789966e-003
3.770311e+003;4.490666e-003
3.772240e+003;4.853992e-003
3.774168e+003;5.036674e-003
3.776097e+003;4.682439e-003
3.778025e+003;4.539045e-003
3.779954e+003;4.818879e-003
3.781883e+003;4.511055e-003
3.783811e+003;4.148651e-003
3.785740e+003;4.060179e-003
3.787668e+003;4.420367e-003
3.789597e+003;4.510620e-003
3.791525e+003;4.367014e-003
3.793454e+003;4.399280e-003
3.795382e+003;4.236505e-003
3.797311e+003;4.170998e-003
3.799240e+003;4.266486e-003
3.801168e+003;4.195420e-003
3.803097e+003;4.502518e-003
3.805025e+003;4.235401e-003
3.806954e+003;3.704267e-003
3.808882e+003;4.100149e-003
3.810811e+003;4.049678e-003
3.812739e+003;3.985402e-003
3.814668e+003;3.994097e-003
3.816596e+003;4.047136e-003
3.818525e+003;4.256280e-003
3.820454e+003;3.945143e-003
3.822382e+003;3.985135e-003
3.824311e+003;4.814959e-003
3.826239e+003;5.140433e-003
3.828168e+003;5.393177e-003
3.830096e+003;5.290163e-003
3.832025e+003;5.102849e-003
3.833953e+003;5.299689e-003
3.835882e+003;4.731175e-003
3.837811e+003;3.547098e-003
3.839739e+003;3.400572e-003
3.841667e+003;4.272375e-003
3.843596e+003;5.243277e-003
3.845525e+003;5.430786e-003
3.847453e+003;5.323000e-003
3.849382e+003;5.230265e-003
3.851310e+003;4.947050e-003
3.853239e+003;4.685956e-003
3.855167e+003;4.494583e-003
3.857096e+003;5.082197e-003
3.859024e+003;5.300930e-003
3.860953e+003;4.687229e-003
3.862882e+003;5.163937e-003
3.864810e+003;5.804000e-003
3.866739e+003;5.786371e-003
3.868667e+003;5.578066e-003
3.870596e+003;5.769683e-003
3.872524e+003;5.976870e-003
3.874453e+003;6.336398e-003
3.876381e+003;6.587721e-003
3.878310e+003;6.284255e-003
3.880239e+003;6.424898e-003
3.882167e+003;6.608141e-003
3.884096e+003;6.363666e-003
3.886024e+003;6.199112e-003
3.887953e+003;6.186777e-003
3.889881e+003;6.433809e-003
3.891810e+003;6.449918e-003
3.893738e+003;6.060692e-003
3.895667e+003;6.365381e-003
3.897595e+003;6.756023e-003
3.899524e+003;6.530368e-003
3.901453e+003;6.470937e-003
3.903381e+003;6.785000e-003
3.905310e+003;7.740258e-003
3.907238e+003;8.426899e-003
3.909167e+003;8.326879e-003
3.911095e+003;7.684776e-003
3.913024e+003;7.264657e-003
3.914952e+003;7.270722e-003
3.916881e+003;7.667205e-003
3.918810e+003;8.425919e-003
3.920738e+003;8.630289e-003
3.922667e+003;8.313841e-003
3.924595e+003;7.973258e-003
3.926524e+003;7.887581e-003
3.928452e+003;8.168062e-003
3.930381e+003;8.042279e-003
3.932309e+003;8.029317e-003
3.934238e+003;8.291044e-003
3.936167e+003;8.222930e-003
3.938095e+003;8.197032e-003
3.940023e+003;8.850849e-003
3.941952e+003;9.108267e-003
3.943881e+003;9.006737e-003
3.945809e+003;9.180413e-003
3.947738e+003;9.470907e-003
3.949666e+003;9.312991e-003
3.951595e+003;9.094158e-003
3.953523e+003;9.512833e-003
3.955452e+003;1.013892e-002
3.957380e+003;1.027695e-002
3.959309e+003;1.037257e-002
3.961238e+003;1.027359e-002
3.963166e+003;9.662962e-003
3.965095e+003;9.836934e-003
3.967023e+003;1.031254e-002
3.968952e+003;1.044639e-002
3.970880e+003;1.008802e-002
3.972809e+003;9.556389e-003
3.974737e+003;9.846627e-003
3.976666e+003;1.020812e-002
3.978594e+003;1.043515e-002
3.980523e+003;1.108124e-002
3.982452e+003;1.082237e-002
3.984380e+003;1.019703e-002
3.986309e+003;1.024974e-002
3.988237e+003;1.026742e-002
3.990166e+003;1.028520e-002
3.992094e+003;1.060539e-002
3.994023e+003;1.057042e-002
3.995951e+003;1.063228e-002
3.997880e+003;1.072917e-002
3.999809e+003;1.058407e-002
4.001737e+003;0.000000e+000
