3.992094e+002;0.000000e+000
4.011380e+002;0.000000e+000
4.030665e+002;0.000000e+000
4.049951e+002;0.000000e+000
4.069236e+002;0.000000e+000
4.088522e+002;0.000000e+000
4.107807e+002;0.000000e+000
4.127093e+002;0.000000e+000
4.146378e+002;0.000000e+000
4.165664e+002;0.000000e+000
4.184949e+002;0.000000e+000
4.204235e+002;0.000000e+000
4.223520e+002;0.000000e+000
4.242806e+002;0.000000e+000
4.262091e+002;0.000000e+000
4.281377e+002;0.000000e+000
4.300662e+002;0.000000e+000
4.319948e+002;0.000000e+000
4.339233e+002;0.000000e+000
4.358519e+002;0.000000e+000
4.377804e+002;0.000000e+000
4.397090e+002;0.000000e+000
4.416375e+002;0.000000e+000
4.435660e+002;0.000000e+000
4.454946e+002;0.000000e+000
4.474232e+002;0.000000e+000
4.493517e+002;0.000000e+000
4.512802e+002;0.000000e+000
4.532088e+002;0.000000e+000
4.551373e+002;0.000000e+000
4.570659e+002;0.000000e+000
4.589944e+002;0.000000e+000
4.609230e+002;0.000000e+000
4.628515e+002;0.000000e+000
4.647801e+002;0.000000e+000
4.667086e+002;0.000000e+000
4.686372e+002;0.000000e+000
4.705657e+002;0.000000e+000
4.724943e+002;0.000000e+000
4.744228e+002;0.000000e+000
4.763513e+002;0.000000e+000
4.782799e+002;0.000000e+000
4.802085e+002;0.000000e+000
4.821370e+002;0.000000e+000
4.840656e+002;0.000000e+000
4.859941e+002;0.000000e+000
4.879226e+002;0.000000e+000
4.898512e+002;0.000000e+000
4.917798e+002;0.000000e+000
4.937083e+002;0.000000e+000
4.956368e+002;0.000000e+000
4.975654e+002;0.000000e+000
4.994939e+002;0.000000e+000
5.014225e+002;0.000000e+000
5.033510e+002;0.000000e+000
5.052796e+002;0.000000e+000
5.072081e+002;0.000000e+000
5.091367e+002;0.000000e+000
5.110652e+002;0.000000e+000
5.129938e+002;0.000000e+000
5.149223e+002;0.000000e+000
5.168509e+002;0.000000e+000
5.187794e+002;0.000000e+000
5.207079e+002;0.000000e+000
5.226365e+002;0.000000e+000
5.245651e+002;0.000000e+000
5.264936e+002;0.000000e+000
5.284222e+002;0.000000e+000
5.303507e+002;0.000000e+000
5.322792e+002;0.000000e+000
5.342078e+002;0.000000e+000
5.361364e+002;0.000000e+000
5.380649e+002;0.000000e+000
5.399935e+002;0.000000e+000
5.419220e+002;0.000000e+000
5.438505e+002;0.000000e+000
5.457791e+002;0.000000e+000
5.477076e+002;0.000000e+000
5.496362e+002;0.000000e+000
5.515648e+002;0.000000e+000
5.534933e+002;0.000000e+000
5.554218e+002;0.000000e+000
5.573504e+002;0.000000e+000
5.592789e+002;0.000000e+000
5.612075e+002;0.000000e+000
5.631360e+002;0.000000e+000
5.650646e+002;0.000000e+000
5.669931e+002;0.000000e+000
5.689217e+002;0.000000e+000
5.708502e+002;0.000000e+000
5.727787e+002;0.000000e+000
5.747073e+002;0.000000e+000
5.766359e+002;0.000000e+000
5.785644e+002;0.000000e+000
5.804930e+002;0.000000e+000
5.824215e+002;0.000000e+000
5.843500e+002;0.000000e+000
5.862786e+002;0.000000e+000
5.882072e+002;0.000000e+000
5.901357e+002;0.000000e+000
5.920643e+002;0.000000e+000
5.939928e+002;0.000000e+000
5.959213e+002;0.000000e+000
5.978499e+002;0.000000e+000
5.997784e+002;2.167014e-001
6.017070e+002;2.115103e-001
6.036355e+002;1.998303e-001
6.055641e+002;1.994759e-001
6.074926e+002;2.087409e-001
6.094211e+002;2.146720e-001
6.113497e+002;2.143563e-001
6.132783e+002;2.089804e-001
6.152068e+002;2.043965e-001
6.171354e+002;2.048659e-001
6.190639e+002;2.080504e-001
6.209924e+002;2.026327e-001
6.229210e+002;1.923232e-001
6.248495e+002;1.908543e-001
6.267781e+002;1.930393e-001
6.287067e+002;1.947811e-001
6.306352e+002;1.946625e-001
6.325637e+002;1.881109e-001
6.344923e+002;1.825801e-001
6.364208e+002;1.834346e-001
6.383494e+002;1.848096e-001
6.402780e+002;1.855447e-001
6.422065e+002;1.892533e-001
6.441350e+002;1.892439e-001
6.460636e+002;1.822461e-001
6.479921e+002;1.787048e-001
6.499207e+002;1.794613e-001
6.518492e+002;1.802442e-001
6.537778e+002;1.822018e-001
6.557063e+002;1.840810e-001
6.576349e+002;1.836214e-001
6.595634e+002;1.856860e-001
6.614919e+002;1.895082e-001
6.634205e+002;1.884045e-001
6.653491e+002;1.861010e-001
6.672776e+002;1.863561e-001
6.692062e+002;1.858576e-001
6.711347e+002;1.831143e-001
6.730632e+002;1.800412e-001
6.749918e+002;1.770625e-001
6.769203e+002;1.738941e-001
6.788489e+002;1.705505e-001
6.807775e+002;1.660109e-001
6.827060e+002;1.622742e-001
6.846345e+002;1.608546e-001
6.865631e+002;1.617343e-001
6.884916e+002;1.621856e-001
6.904202e+002;1.602534e-001
6.923488e+002;1.586698e-001
6.942773e+002;1.583921e-001
6.962058e+002;1.572052e-001
6.981344e+002;1.567134e-001
7.000629e+002;1.555524e-001
7.019915e+002;1.536701e-001
7.039200e+002;1.528427e-001
7.058486e+002;1.529790e-001
7.077771e+002;1.532443e-001
7.097057e+002;1.517328e-001
7.116342e+002;1.494098e-001
7.135627e+002;1.469803e-001
7.154913e+002;1.456356e-001
7.174199e+002;1.451544e-001
7.193484e+002;1.432152e-001
7.212770e+002;1.402277e-001
7.232055e+002;1.390254e-001
7.251340e+002;1.390935e-001
7.270626e+002;1.379860e-001
7.289911e+002;1.359124e-001
7.309197e+002;1.340086e-001
7.328483e+002;1.327272e-001
7.347768e+002;1.313265e-001
7.367053e+002;1.292088e-001
7.386339e+002;1.271974e-001
7.405624e+002;1.252876e-001
7.424910e+002;1.251695e-001
7.444196e+002;1.255720e-001
7.463481e+002;1.243250e-001
7.482766e+002;1.230880e-001
7.502052e+002;1.211099e-001
7.521337e+002;1.193208e-001
7.540623e+002;1.199289e-001
7.559908e+002;1.197438e-001
7.579194e+002;1.188819e-001
7.598479e+002;1.189845e-001
7.617765e+002;1.183202e-001
7.637050e+002;1.168349e-001
7.656335e+002;1.155618e-001
7.675621e+002;1.137507e-001
7.694907e+002;1.132414e-001
7.714192e+002;1.130147e-001
7.733478e+002;1.117436e-001
7.752763e+002;1.100444e-001
7.772048e+002;1.092466e-001
7.791334e+002;1.094543e-001
7.810620e+002;1.096414e-001
7.829905e+002;1.093195e-001
7.849191e+002;1.078831e-001
7.868476e+002;1.060560e-001
7.887761e+002;1.056142e-001
7.907047e+002;1.057864e-001
7.926332e+002;1.057272e-001
7.945618e+002;1.056164e-001
7.964903e+002;1.056862e-001
7.984189e+002;1.055360e-001
8.003474e+002;1.044883e-001
8.022759e+002;1.036718e-001
8.042045e+002;1.035827e-001
8.061331e+002;1.041530e-001
8.080616e+002;1.047247e-001
8.099902e+002;1.049319e-001
8.119187e+002;1.050047e-001
8.138472e+002;1.052786e-001
8.157758e+002;1.057005e-001
8.177043e+002;1.063216e-001
8.196329e+002;1.067052e-001
8.215615e+002;1.066551e-001
8.234900e+002;1.068934e-001
8.254185e+002;1.065857e-001
8.273471e+002;1.067556e-001
8.292756e+002;1.071850e-001
8.312042e+002;1.066816e-001
8.331328e+002;1.069405e-001
8.350613e+002;1.074190e-001
8.369898e+002;1.068595e-001
8.389184e+002;1.057462e-001
8.408469e+002;1.054465e-001
8.427755e+002;1.049883e-001
8.447040e+002;1.046156e-001
8.466326e+002;1.043641e-001
8.485611e+002;1.045196e-001
8.504897e+002;1.048924e-001
8.524182e+002;1.048481e-001
8.543467e+002;1.050283e-001
8.562753e+002;1.056014e-001
8.582039e+002;1.058210e-001
8.601324e+002;1.067537e-001
8.620610e+002;1.087954e-001
8.639895e+002;1.099141e-001
8.659180e+002;1.112604e-001
8.678466e+002;1.133398e-001
8.697751e+002;1.153552e-001
8.717037e+002;1.179430e-001
8.736323e+002;1.207301e-001
8.755608e+002;1.232704e-001
8.774893e+002;1.257929e-001
8.794179e+002;1.281854e-001
8.813464e+002;1.305603e-001
8.832750e+002;1.335497e-001
8.852036e+002;1.368425e-001
8.871321e+002;1.403013e-001
8.890606e+002;1.437408e-001
8.909892e+002;1.461989e-001
8.929177e+002;1.486623e-001
8.948463e+002;1.507920e-001
8.967748e+002;1.518164e-001
8.987034e+002;1.520696e-001
9.006319e+002;1.511848e-001
9.025605e+002;1.491214e-001
9.044890e+002;1.474020e-001
9.064175e+002;1.458578e-001
9.083461e+002;1.439284e-001
9.102747e+002;1.421718e-001
9.122032e+002;1.411101e-001
9.141318e+002;1.404180e-001
9.160603e+002;1.396623e-001
9.179888e+002;1.392207e-001
9.199174e+002;1.393318e-001
9.218459e+002;1.398093e-001
9.237745e+002;1.407255e-001
9.257031e+002;1.415218e-001
9.276316e+002;1.418257e-001
9.295601e+002;1.419627e-001
9.314887e+002;1.431109e-001
9.334172e+002;1.446895e-001
9.353458e+002;1.463144e-001
9.372744e+002;1.481127e-001
9.392029e+002;1.499248e-001
9.411314e+002;1.525024e-001
9.430600e+002;1.556617e-001
9.449885e+002;1.592969e-001
9.469171e+002;1.636977e-001
9.488456e+002;1.687918e-001
9.507742e+002;1.741723e-001
9.527027e+002;1.792803e-001
9.546313e+002;1.848992e-001
9.565598e+002;1.906611e-001
9.584883e+002;1.962933e-001
9.604169e+002;2.018045e-001
9.623455e+002;2.066077e-001
9.642740e+002;2.115169e-001
9.662026e+002;2.170957e-001
9.681311e+002;2.227029e-001
9.700596e+002;2.280322e-001
9.719882e+002;2.341791e-001
9.739167e+002;2.409305e-001
9.758453e+002;2.481132e-001
9.777739e+002;2.561443e-001
9.797024e+002;2.641956e-001
9.816309e+002;2.719710e-001
9.835595e+002;2.789627e-001
9.854880e+002;2.838256e-001
9.874166e+002;2.873348e-001
9.893452e+002;2.903610e-001
9.912737e+002;2.932087e-001
9.932022e+002;2.954013e-001
9.951307e+002;2.968093e-001
9.970593e+002;2.990473e-001
9.989879e+002;3.023591e-001
1.000916e+003;3.062684e-001
1.002845e+003;3.100429e-001
1.004773e+003;3.135626e-001
1.006702e+003;3.173215e-001
1.008631e+003;3.212149e-001
1.010559e+003;3.250447e-001
1.012488e+003;3.297447e-001
1.014416e+003;3.346582e-001
1.016345e+003;3.377334e-001
1.018273e+003;3.401390e-001
1.020202e+003;3.428448e-001
1.022130e+003;3.456304e-001
1.024059e+003;3.479303e-001
1.025988e+003;3.495198e-001
1.027916e+003;3.496888e-001
1.029845e+003;3.499746e-001
1.031773e+003;3.498505e-001
1.033702e+003;3.482980e-001
1.035630e+003;3.462771e-001
1.037559e+003;3.427621e-001
1.039487e+003;3.383875e-001
1.041416e+003;3.354345e-001
1.043344e+003;3.330584e-001
1.045273e+003;3.304058e-001
1.047202e+003;3.278902e-001
1.049130e+003;3.244712e-001
1.051059e+003;3.208024e-001
1.052987e+003;3.173488e-001
1.054916e+003;3.128661e-001
1.056844e+003;3.074537e-001
1.058773e+003;3.011709e-001
1.060701e+003;2.935863e-001
1.062630e+003;2.867234e-001
1.064558e+003;2.795990e-001
1.066487e+003;2.725662e-001
1.068416e+003;2.664931e-001
1.070344e+003;2.620781e-001
1.072273e+003;2.576395e-001
1.074201e+003;2.519395e-001
1.076130e+003;2.473269e-001
1.078058e+003;2.443117e-001
1.079987e+003;2.413887e-001
1.081915e+003;2.380530e-001
1.083844e+003;2.344836e-001
1.085773e+003;2.320815e-001
1.087701e+003;2.310481e-001
1.089630e+003;2.299422e-001
1.091558e+003;2.285461e-001
1.093487e+003;2.275512e-001
1.095415e+003;2.270391e-001
1.097344e+003;2.260738e-001
1.099272e+003;2.247186e-001
1.101201e+003;2.233050e-001
1.103129e+003;2.210202e-001
1.105058e+003;2.172912e-001
1.106987e+003;2.122558e-001
1.108915e+003;2.075602e-001
1.110844e+003;2.021824e-001
1.112772e+003;1.958074e-001
1.114701e+003;1.902891e-001
1.116629e+003;1.847127e-001
1.118558e+003;1.787496e-001
1.120486e+003;1.737540e-001
1.122415e+003;1.695569e-001
1.124344e+003;1.654363e-001
1.126272e+003;1.612097e-001
1.128201e+003;1.566015e-001
1.130129e+003;1.522194e-001
1.132058e+003;1.486928e-001
1.133986e+003;1.451816e-001
1.135915e+003;1.420142e-001
1.137843e+003;1.399911e-001
1.139772e+003;1.393522e-001
1.141700e+003;1.387451e-001
1.143629e+003;1.381547e-001
1.145557e+003;1.387746e-001
1.147486e+003;1.391909e-001
1.149415e+003;1.389747e-001
1.151343e+003;1.391701e-001
1.153272e+003;1.401193e-001
1.155200e+003;1.402619e-001
1.157129e+003;1.394287e-001
1.159057e+003;1.383957e-001
1.160986e+003;1.373043e-001
1.162914e+003;1.351766e-001
1.164843e+003;1.316935e-001
1.166771e+003;1.272677e-001
1.168700e+003;1.227469e-001
1.170629e+003;1.178588e-001
1.172557e+003;1.127714e-001
1.174486e+003;1.081945e-001
1.176414e+003;1.041441e-001
1.178343e+003;1.007497e-001
1.180271e+003;9.802026e-002
1.182200e+003;9.592266e-002
1.184128e+003;9.458601e-002
1.186057e+003;9.425870e-002
1.187986e+003;9.454708e-002
1.189914e+003;9.518588e-002
1.191843e+003;9.668852e-002
1.193771e+003;9.897028e-002
1.195700e+003;1.011747e-001
1.197628e+003;1.037134e-001
1.199557e+003;1.061281e-001
1.201485e+003;1.082084e-001
1.203414e+003;1.105858e-001
1.205343e+003;1.124506e-001
1.207271e+003;1.140703e-001
1.209200e+003;1.159517e-001
1.211128e+003;1.181441e-001
1.213057e+003;1.207717e-001
1.214985e+003;1.239222e-001
1.216914e+003;1.273132e-001
1.218842e+003;1.308686e-001
1.220771e+003;1.346533e-001
1.222699e+003;1.383746e-001
1.224628e+003;1.413156e-001
1.226557e+003;1.440442e-001
1.228485e+003;1.467087e-001
1.230414e+003;1.482639e-001
1.232342e+003;1.497677e-001
1.234271e+003;1.511126e-001
1.236199e+003;1.516627e-001
1.238128e+003;1.516521e-001
1.240056e+003;1.512407e-001
1.241985e+003;1.502389e-001
1.243913e+003;1.491572e-001
1.245842e+003;1.477094e-001
1.247771e+003;1.456734e-001
1.249699e+003;1.431915e-001
1.251628e+003;1.409651e-001
1.253556e+003;1.390597e-001
1.255485e+003;1.371657e-001
1.257413e+003;1.347447e-001
1.259342e+003;1.317639e-001
1.261270e+003;1.291401e-001
1.263199e+003;1.266431e-001
1.265127e+003;1.244428e-001
1.267056e+003;1.221073e-001
1.268985e+003;1.196044e-001
1.270913e+003;1.170634e-001
1.272842e+003;1.147375e-001
1.274770e+003;1.128496e-001
1.276699e+003;1.110774e-001
1.278627e+003;1.093058e-001
1.280556e+003;1.076100e-001
1.282484e+003;1.059987e-001
1.284413e+003;1.043944e-001
1.286342e+003;1.031236e-001
1.288270e+003;1.025898e-001
1.290199e+003;1.021006e-001
1.292127e+003;1.019944e-001
1.294056e+003;1.023156e-001
1.295984e+003;1.028956e-001
1.297913e+003;1.035538e-001
1.299841e+003;1.048060e-001
1.301770e+003;1.067582e-001
1.303698e+003;1.090536e-001
1.305627e+003;1.113165e-001
1.307556e+003;1.131785e-001
1.309484e+003;1.151018e-001
1.311413e+003;1.170837e-001
1.313341e+003;1.182854e-001
1.315270e+003;1.189144e-001
1.317198e+003;1.188866e-001
1.319127e+003;1.185827e-001
1.321055e+003;1.179062e-001
1.322984e+003;1.167024e-001
1.324912e+003;1.160813e-001
1.326841e+003;1.159369e-001
1.328770e+003;1.155649e-001
1.330698e+003;1.153929e-001
1.332627e+003;1.149655e-001
1.334555e+003;1.144686e-001
1.336484e+003;1.137717e-001
1.338412e+003;1.128425e-001
1.340341e+003;1.119582e-001
1.342269e+003;1.107464e-001
1.344198e+003;1.095654e-001
1.346126e+003;1.086758e-001
1.348055e+003;1.081155e-001
1.349984e+003;1.082793e-001
1.351912e+003;1.089160e-001
1.353841e+003;1.097955e-001
1.355769e+003;1.111358e-001
1.357698e+003;1.125032e-001
1.359626e+003;1.141232e-001
1.361555e+003;1.155911e-001
1.363483e+003;1.165147e-001
1.365412e+003;1.171836e-001
1.367341e+003;1.173679e-001
1.369269e+003;1.171704e-001
1.371198e+003;1.163180e-001
1.373126e+003;1.151598e-001
1.375055e+003;1.138297e-001
1.376983e+003;1.117491e-001
1.378912e+003;1.092432e-001
1.380840e+003;1.066765e-001
1.382769e+003;1.044166e-001
1.384698e+003;1.024813e-001
1.386626e+003;1.006203e-001
1.388555e+003;9.907008e-002
1.390483e+003;9.780012e-002
1.392412e+003;9.690094e-002
1.394340e+003;9.658740e-002
1.396269e+003;9.687120e-002
1.398197e+003;9.711218e-002
1.400126e+003;9.742182e-002
1.402054e+003;9.787375e-002
1.403983e+003;9.882012e-002
1.405911e+003;9.987392e-002
1.407840e+003;1.012827e-001
1.409769e+003;1.026536e-001
1.411697e+003;1.036571e-001
1.413626e+003;1.049720e-001
1.415554e+003;1.064369e-001
1.417483e+003;1.079155e-001
1.419411e+003;1.090823e-001
1.421340e+003;1.098858e-001
1.423268e+003;1.102117e-001
1.425197e+003;1.098513e-001
1.427125e+003;1.092970e-001
1.429054e+003;1.081863e-001
1.430983e+003;1.067400e-001
1.432911e+003;1.054052e-001
1.434840e+003;1.040585e-001
1.436768e+003;1.024251e-001
1.438697e+003;1.011403e-001
1.440625e+003;9.991153e-002
1.442554e+003;9.869272e-002
1.444482e+003;9.773368e-002
1.446411e+003;9.647096e-002
1.448340e+003;9.515279e-002
1.450268e+003;9.431181e-002
1.452197e+003;9.342997e-002
1.454125e+003;9.223574e-002
1.456054e+003;9.073728e-002
1.457982e+003;8.965023e-002
1.459911e+003;8.903376e-002
1.461839e+003;8.812258e-002
1.463768e+003;8.646388e-002
1.465697e+003;8.430526e-002
1.467625e+003;8.165719e-002
1.469554e+003;7.864789e-002
1.471482e+003;7.565764e-002
1.473411e+003;7.266419e-002
1.475339e+003;6.988068e-002
1.477268e+003;6.758233e-002
1.479196e+003;6.531014e-002
1.481125e+003;6.310572e-002
1.483053e+003;6.140148e-002
1.484982e+003;5.984584e-002
1.486911e+003;5.842624e-002
1.488839e+003;5.742922e-002
1.490768e+003;5.698512e-002
1.492696e+003;5.706140e-002
1.494625e+003;5.740162e-002
1.496553e+003;5.781741e-002
1.498482e+003;5.847294e-002
1.500410e+003;5.897868e-002
1.502339e+003;5.934258e-002
1.504267e+003;5.915277e-002
1.506196e+003;5.842245e-002
1.508125e+003;5.796237e-002
1.510053e+003;5.749825e-002
1.511982e+003;5.647671e-002
1.513910e+003;5.502459e-002
1.515839e+003;5.359923e-002
1.517767e+003;5.235463e-002
1.519696e+003;5.084684e-002
1.521624e+003;4.925830e-002
1.523553e+003;4.833370e-002
1.525481e+003;4.781535e-002
1.527410e+003;4.741030e-002
1.529339e+003;4.706516e-002
1.531267e+003;4.700195e-002
1.533196e+003;4.679428e-002
1.535124e+003;4.656067e-002
1.537053e+003;4.641319e-002
1.538981e+003;4.629334e-002
1.540910e+003;4.649653e-002
1.542838e+003;4.709097e-002
1.544767e+003;4.752880e-002
1.546695e+003;4.799175e-002
1.548624e+003;4.863360e-002
1.550553e+003;4.902766e-002
1.552481e+003;4.928491e-002
1.554410e+003;4.969352e-002
1.556338e+003;5.012375e-002
1.558267e+003;5.036714e-002
1.560195e+003;5.142578e-002
1.562124e+003;5.320565e-002
1.564052e+003;5.469337e-002
1.565981e+003;5.595398e-002
1.567910e+003;5.732104e-002
1.569838e+003;5.903395e-002
1.571767e+003;6.110759e-002
1.573695e+003;6.318308e-002
1.575624e+003;6.545547e-002
1.577552e+003;6.870798e-002
1.579481e+003;7.233416e-002
1.581409e+003;7.565635e-002
1.583338e+003;7.885953e-002
1.585266e+003;8.202227e-002
1.587195e+003;8.536673e-002
1.589124e+003;8.861470e-002
1.591052e+003;9.118794e-002
1.592981e+003;9.319296e-002
1.594909e+003;9.449646e-002
1.596838e+003;9.539855e-002
1.598766e+003;9.624246e-002
1.600695e+003;9.690707e-002
1.602623e+003;9.722743e-002
1.604552e+003;9.755072e-002
1.606480e+003;9.775044e-002
1.608409e+003;9.759842e-002
1.610338e+003;9.753487e-002
1.612266e+003;9.755300e-002
1.614195e+003;9.712709e-002
1.616123e+003;9.645396e-002
1.618052e+003;9.621434e-002
1.619980e+003;9.626095e-002
1.621909e+003;9.587283e-002
1.623837e+003;9.513291e-002
1.625766e+003;9.464747e-002
1.627694e+003;9.409839e-002
1.629623e+003;9.359677e-002
1.631552e+003;9.307052e-002
1.633480e+003;9.207822e-002
1.635409e+003;9.089945e-002
1.637337e+003;8.996911e-002
1.639266e+003;8.920572e-002
1.641194e+003;8.854157e-002
1.643123e+003;8.747710e-002
1.645051e+003;8.592322e-002
1.646980e+003;8.465072e-002
1.648909e+003;8.389705e-002
1.650837e+003;8.263340e-002
1.652766e+003;8.081509e-002
1.654694e+003;7.974079e-002
1.656623e+003;7.857606e-002
1.658551e+003;7.695458e-002
1.660480e+003;7.546215e-002
1.662408e+003;7.416911e-002
1.664337e+003;7.272279e-002
1.666266e+003;7.095128e-002
1.668194e+003;6.936477e-002
1.670123e+003;6.818742e-002
1.672051e+003;6.718331e-002
1.673980e+003;6.578513e-002
1.675908e+003;6.429664e-002
1.677837e+003;6.324368e-002
1.679765e+003;6.246467e-002
1.681694e+003;6.157425e-002
1.683622e+003;6.052516e-002
1.685551e+003;5.992635e-002
1.687479e+003;5.984557e-002
1.689408e+003;5.973161e-002
1.691337e+003;6.009652e-002
1.693265e+003;6.057612e-002
1.695194e+003;6.091788e-002
1.697122e+003;6.186865e-002
1.699051e+003;6.322892e-002
1.700979e+003;6.496707e-002
1.702908e+003;6.723645e-002
1.704836e+003;6.935357e-002
1.706765e+003;7.174122e-002
1.708693e+003;7.445428e-002
1.710622e+003;7.685071e-002
1.712551e+003;7.916430e-002
1.714479e+003;8.154564e-002
1.716408e+003;8.347718e-002
1.718336e+003;8.543134e-002
1.720265e+003;8.775654e-002
1.722193e+003;8.960425e-002
1.724122e+003;9.079306e-002
1.726050e+003;9.204102e-002
1.727979e+003;9.283995e-002
1.729908e+003;9.296138e-002
1.731836e+003;9.306359e-002
1.733765e+003;9.287864e-002
1.735693e+003;9.251244e-002
1.737622e+003;9.186430e-002
1.739550e+003;9.045921e-002
1.741479e+003;8.868935e-002
1.743407e+003;8.671273e-002
1.745336e+003;8.414111e-002
1.747265e+003;8.090730e-002
1.749193e+003;7.746941e-002
1.751122e+003;7.428181e-002
1.753050e+003;7.114924e-002
1.754979e+003;6.800366e-002
1.756907e+003;6.476209e-002
1.758836e+003;6.150461e-002
1.760764e+003;5.815094e-002
1.762693e+003;5.480403e-002
1.764621e+003;5.149699e-002
1.766550e+003;4.810896e-002
1.768479e+003;4.495194e-002
1.770407e+003;4.203691e-002
1.772336e+003;3.918352e-002
1.774264e+003;3.656350e-002
1.776193e+003;3.430356e-002
1.778121e+003;3.214659e-002
1.780050e+003;3.002985e-002
1.781978e+003;2.819685e-002
1.783907e+003;2.687588e-002
1.785835e+003;2.574508e-002
1.787764e+003;2.465694e-002
1.789693e+003;2.364423e-002
1.791621e+003;2.253701e-002
1.793550e+003;2.183966e-002
1.795478e+003;2.148981e-002
1.797407e+003;2.077992e-002
1.799335e+003;2.000940e-002
1.801264e+003;1.952177e-002
1.803192e+003;1.926251e-002
1.805121e+003;1.882481e-002
1.807049e+003;1.825913e-002
1.808978e+003;1.773757e-002
1.810907e+003;1.730641e-002
1.812835e+003;1.701397e-002
1.814764e+003;1.692466e-002
1.816692e+003;1.677235e-002
1.818621e+003;1.628053e-002
1.820549e+003;1.581773e-002
1.822478e+003;1.557351e-002
1.824406e+003;1.546139e-002
1.826335e+003;1.509722e-002
1.828264e+003;1.463604e-002
1.830192e+003;1.439906e-002
1.832121e+003;1.424013e-002
1.834049e+003;1.408677e-002
1.835978e+003;1.385146e-002
1.837906e+003;1.367222e-002
1.839835e+003;1.375566e-002
1.841763e+003;1.350935e-002
1.843692e+003;1.305809e-002
1.845620e+003;1.297116e-002
1.847549e+003;1.278102e-002
1.849478e+003;1.238175e-002
1.851406e+003;1.210279e-002
1.853335e+003;1.200918e-002
1.855263e+003;1.204563e-002
1.857192e+003;1.198322e-002
1.859120e+003;1.169833e-002
1.861049e+003;1.156063e-002
1.862977e+003;1.142719e-002
1.864906e+003;1.125523e-002
1.866834e+003;1.132056e-002
1.868763e+003;1.126360e-002
1.870692e+003;1.094244e-002
1.872620e+003;1.072313e-002
1.874549e+003;1.070818e-002
1.876477e+003;1.073647e-002
1.878406e+003;1.083090e-002
1.880334e+003;1.086548e-002
1.882263e+003;1.060380e-002
1.884191e+003;1.038849e-002
1.886120e+003;1.038424e-002
1.888048e+003;1.045867e-002
1.889977e+003;1.036921e-002
1.891906e+003;1.038642e-002
1.893834e+003;1.041608e-002
1.895763e+003;1.030959e-002
1.897691e+003;1.037115e-002
1.899620e+003;1.058984e-002
1.901548e+003;1.072832e-002
1.903477e+003;1.074289e-002
1.905405e+003;1.072153e-002
1.907334e+003;1.053899e-002
1.909262e+003;1.039663e-002
1.911191e+003;1.052337e-002
1.913120e+003;1.072856e-002
1.915048e+003;1.083603e-002
1.916977e+003;1.088696e-002
1.918905e+003;1.093527e-002
1.920834e+003;1.093191e-002
1.922762e+003;1.084323e-002
1.924691e+003;1.088641e-002
1.926619e+003;1.115707e-002
1.928548e+003;1.131831e-002
1.930477e+003;1.127536e-002
1.932405e+003;1.147553e-002
1.934334e+003;1.147934e-002
1.936262e+003;1.145151e-002
1.938191e+003;1.160184e-002
1.940119e+003;1.154875e-002
1.942048e+003;1.174047e-002
1.943976e+003;1.202764e-002
1.945905e+003;1.220004e-002
1.947833e+003;1.222914e-002
1.949762e+003;1.211431e-002
1.951691e+003;1.208082e-002
1.953619e+003;1.222816e-002
1.955548e+003;1.242931e-002
1.957476e+003;1.255538e-002
1.959405e+003;1.260163e-002
1.961333e+003;1.250232e-002
1.963262e+003;1.251104e-002
1.965190e+003;1.250204e-002
1.967119e+003;1.241656e-002
1.969047e+003;1.240094e-002
1.970976e+003;1.253355e-002
1.972905e+003;1.267886e-002
1.974833e+003;1.255657e-002
1.976762e+003;1.236235e-002
1.978690e+003;1.256466e-002
1.980619e+003;1.309715e-002
1.982547e+003;1.313174e-002
1.984476e+003;1.285684e-002
1.986404e+003;1.288022e-002
1.988333e+003;1.286244e-002
1.990261e+003;1.299946e-002
1.992190e+003;1.360243e-002
1.994119e+003;1.384240e-002
1.996047e+003;1.375439e-002
1.997976e+003;1.381746e-002
1.999904e+003;1.399995e-002
2.001833e+003;1.388447e-002
2.003761e+003;1.366192e-002
2.005690e+003;1.371920e-002
2.007618e+003;1.402828e-002
2.009547e+003;1.423151e-002
2.011476e+003;1.462638e-002
2.013404e+003;1.499397e-002
2.015333e+003;1.495535e-002
2.017261e+003;1.516920e-002
2.019190e+003;1.547712e-002
2.021118e+003;1.547966e-002
2.023047e+003;1.565196e-002
2.024975e+003;1.615042e-002
2.026904e+003;1.632632e-002
2.028833e+003;1.612408e-002
2.030761e+003;1.621422e-002
2.032690e+003;1.649744e-002
2.034618e+003;1.680758e-002
2.036547e+003;1.686135e-002
2.038475e+003;1.699071e-002
2.040404e+003;1.718791e-002
2.042332e+003;1.722297e-002
2.044261e+003;1.730358e-002
2.046189e+003;1.736552e-002
2.048118e+003;1.696098e-002
2.050047e+003;1.667645e-002
2.051975e+003;1.700243e-002
2.053904e+003;1.745850e-002
2.055832e+003;1.736834e-002
2.057761e+003;1.716292e-002
2.059689e+003;1.721949e-002
2.061618e+003;1.744653e-002
2.063546e+003;1.763045e-002
2.065475e+003;1.739893e-002
2.067404e+003;1.723914e-002
2.069332e+003;1.754512e-002
2.071260e+003;1.790220e-002
2.073189e+003;1.782880e-002
2.075118e+003;1.766871e-002
2.077046e+003;1.780370e-002
2.078975e+003;1.782400e-002
2.080903e+003;1.771548e-002
2.082832e+003;1.771544e-002
2.084760e+003;1.780823e-002
2.086689e+003;1.775742e-002
2.088617e+003;1.756496e-002
2.090546e+003;1.768041e-002
2.092475e+003;1.798024e-002
2.094403e+003;1.806182e-002
2.096332e+003;1.805940e-002
2.098260e+003;1.815900e-002
2.100189e+003;1.818370e-002
2.102117e+003;1.801747e-002
2.104046e+003;1.820585e-002
2.105974e+003;1.857997e-002
2.107903e+003;1.854705e-002
2.109832e+003;1.845667e-002
2.111760e+003;1.846600e-002
2.113688e+003;1.869169e-002
2.115617e+003;1.894289e-002
2.117546e+003;1.903074e-002
2.119474e+003;1.891669e-002
2.121403e+003;1.873251e-002
2.123331e+003;1.879855e-002
2.125260e+003;1.896667e-002
2.127188e+003;1.892337e-002
2.129117e+003;1.898529e-002
2.131045e+003;1.904303e-002
2.132974e+003;1.902462e-002
2.134903e+003;1.878226e-002
2.136831e+003;1.863586e-002
2.138760e+003;1.884883e-002
2.140688e+003;1.883924e-002
2.142617e+003;1.864247e-002
2.144545e+003;1.862016e-002
2.146474e+003;1.897730e-002
2.148402e+003;1.882976e-002
2.150331e+003;1.864153e-002
2.152260e+003;1.859533e-002
2.154188e+003;1.829632e-002
2.156117e+003;1.796066e-002
2.158045e+003;1.772590e-002
2.159974e+003;1.784410e-002
2.161902e+003;1.792575e-002
2.163831e+003;1.797396e-002
2.165759e+003;1.792769e-002
2.167688e+003;1.767786e-002
2.169616e+003;1.727479e-002
2.171545e+003;1.706938e-002
2.173474e+003;1.695371e-002
2.175402e+003;1.653775e-002
2.177331e+003;1.627476e-002
2.179259e+003;1.628157e-002
2.181188e+003;1.640766e-002
2.183116e+003;1.634205e-002
2.185045e+003;1.615283e-002
2.186973e+003;1.625388e-002
2.188902e+003;1.619974e-002
2.190831e+003;1.593011e-002
2.192759e+003;1.579419e-002
2.194688e+003;1.569689e-002
2.196616e+003;1.570475e-002
2.198545e+003;1.557261e-002
2.200473e+003;1.540361e-002
2.202402e+003;1.535308e-002
2.204330e+003;1.552251e-002
2.206259e+003;1.571448e-002
2.208188e+003;1.572032e-002
2.210116e+003;1.562836e-002
2.212044e+003;1.560675e-002
2.213973e+003;1.562630e-002
2.215902e+003;1.564828e-002
2.217830e+003;1.554789e-002
2.219759e+003;1.545765e-002
2.221687e+003;1.555197e-002
2.223616e+003;1.569235e-002
2.225544e+003;1.575193e-002
2.227473e+003;1.578618e-002
2.229401e+003;1.583164e-002
2.231330e+003;1.577917e-002
2.233259e+003;1.581188e-002
2.235187e+003;1.587141e-002
2.237116e+003;1.574684e-002
2.239044e+003;1.588288e-002
2.240973e+003;1.613350e-002
2.242901e+003;1.626457e-002
2.244830e+003;1.609127e-002
2.246758e+003;1.603568e-002
2.248687e+003;1.613553e-002
2.250615e+003;1.598191e-002
2.252544e+003;1.568562e-002
2.254473e+003;1.556674e-002
2.256401e+003;1.563179e-002
2.258330e+003;1.567143e-002
2.260258e+003;1.577333e-002
2.262187e+003;1.581766e-002
2.264115e+003;1.566910e-002
2.266044e+003;1.551743e-002
2.267972e+003;1.560061e-002
2.269901e+003;1.585752e-002
2.271830e+003;1.583494e-002
2.273758e+003;1.549597e-002
2.275687e+003;1.550661e-002
2.277615e+003;1.585862e-002
2.279544e+003;1.584845e-002
2.281472e+003;1.561987e-002
2.283401e+003;1.576048e-002
2.285329e+003;1.595871e-002
2.287258e+003;1.579759e-002
2.289187e+003;1.564701e-002
2.291115e+003;1.554737e-002
2.293043e+003;1.554318e-002
2.294972e+003;1.579244e-002
2.296901e+003;1.603351e-002
2.298829e+003;1.586244e-002
2.300758e+003;1.559727e-002
2.302686e+003;1.531704e-002
2.304615e+003;1.550812e-002
2.306543e+003;1.579790e-002
2.308472e+003;1.561524e-002
2.310400e+003;1.550438e-002
2.312329e+003;1.544769e-002
2.314258e+003;1.529201e-002
2.316186e+003;1.527997e-002
2.318115e+003;1.537003e-002
2.320043e+003;1.534563e-002
2.321972e+003;1.514329e-002
2.323900e+003;1.495658e-002
2.325829e+003;1.497219e-002
2.327757e+003;1.509464e-002
2.329686e+003;1.504960e-002
2.331615e+003;1.505821e-002
2.333543e+003;1.493899e-002
2.335472e+003;1.484966e-002
2.337400e+003;1.499448e-002
2.339329e+003;1.539702e-002
2.341257e+003;1.554188e-002
2.343186e+003;1.567665e-002
2.345114e+003;1.592186e-002
2.347043e+003;1.625009e-002
2.348971e+003;1.649218e-002
2.350900e+003;1.629364e-002
2.352829e+003;1.603420e-002
2.354757e+003;1.606342e-002
2.356686e+003;1.612913e-002
2.358614e+003;1.600377e-002
2.360543e+003;1.588381e-002
2.362471e+003;1.612955e-002
2.364400e+003;1.637222e-002
2.366328e+003;1.670689e-002
2.368257e+003;1.713804e-002
2.370186e+003;1.734979e-002
2.372114e+003;1.749806e-002
2.374042e+003;1.770495e-002
2.375971e+003;1.802272e-002
2.377900e+003;1.830579e-002
2.379828e+003;1.856175e-002
2.381757e+003;1.899544e-002
2.383685e+003;1.924287e-002
2.385614e+003;1.901267e-002
2.387542e+003;1.886983e-002
2.389471e+003;1.909150e-002
2.391399e+003;1.943728e-002
2.393328e+003;1.962014e-002
2.395257e+003;1.942114e-002
2.397185e+003;1.930774e-002
2.399114e+003;1.959840e-002
2.401042e+003;1.994282e-002
2.402971e+003;1.997685e-002
2.404899e+003;1.990234e-002
2.406828e+003;1.986144e-002
2.408756e+003;2.006155e-002
2.410685e+003;2.050716e-002
2.412614e+003;2.102761e-002
2.414542e+003;2.108180e-002
2.416471e+003;2.096456e-002
2.418399e+003;2.128556e-002
2.420328e+003;2.151007e-002
2.422256e+003;2.128859e-002
2.424185e+003;2.149461e-002
2.426113e+003;2.200189e-002
2.428042e+003;2.192598e-002
2.429970e+003;2.199809e-002
2.431899e+003;2.249447e-002
2.433828e+003;2.256053e-002
2.435756e+003;2.231424e-002
2.437685e+003;2.242873e-002
2.439613e+003;2.268082e-002
2.441542e+003;2.291062e-002
2.443470e+003;2.315621e-002
2.445399e+003;2.325310e-002
2.447327e+003;2.352462e-002
2.449256e+003;2.389446e-002
2.451185e+003;2.383527e-002
2.453113e+003;2.368569e-002
2.455042e+003;2.381920e-002
2.456970e+003;2.425061e-002
2.458899e+003;2.450789e-002
2.460827e+003;2.458990e-002
2.462756e+003;2.459077e-002
2.464684e+003;2.440077e-002
2.466613e+003;2.441471e-002
2.468542e+003;2.473309e-002
2.470470e+003;2.505138e-002
2.472398e+003;2.531349e-002
2.474327e+003;2.544922e-002
2.476256e+003;2.550885e-002
2.478184e+003;2.554599e-002
2.480113e+003;2.562043e-002
2.482041e+003;2.570479e-002
2.483970e+003;2.590989e-002
2.485898e+003;2.634211e-002
2.487827e+003;2.670224e-002
2.489755e+003;2.668917e-002
2.491684e+003;2.650716e-002
2.493613e+003;2.651533e-002
2.495541e+003;2.691117e-002
2.497470e+003;2.717973e-002
2.499398e+003;2.680106e-002
2.501327e+003;2.687768e-002
2.503255e+003;2.739961e-002
2.505184e+003;2.761371e-002
2.507112e+003;2.787469e-002
2.509041e+003;2.824532e-002
2.510969e+003;2.850321e-002
2.512898e+003;2.865241e-002
2.514827e+003;2.850587e-002
2.516755e+003;2.857706e-002
2.518684e+003;2.879089e-002
2.520612e+003;2.869711e-002
2.522541e+003;2.873704e-002
2.524469e+003;2.879613e-002
2.526398e+003;2.896569e-002
2.528326e+003;2.931286e-002
2.530255e+003;2.943028e-002
2.532184e+003;2.950287e-002
2.534112e+003;2.954617e-002
2.536041e+003;2.961076e-002
2.537969e+003;2.955929e-002
2.539898e+003;2.954638e-002
2.541826e+003;2.979895e-002
2.543755e+003;2.992441e-002
2.545683e+003;3.028802e-002
2.547612e+003;3.057969e-002
2.549541e+003;3.055125e-002
2.551469e+003;3.060053e-002
2.553397e+003;3.055278e-002
2.555326e+003;3.035844e-002
2.557255e+003;3.039338e-002
2.559183e+003;3.064035e-002
2.561112e+003;3.099538e-002
2.563040e+003;3.127684e-002
2.564969e+003;3.146646e-002
2.566897e+003;3.147245e-002
2.568826e+003;3.147562e-002
2.570754e+003;3.148289e-002
2.572683e+003;3.139529e-002
2.574612e+003;3.134497e-002
2.576540e+003;3.150298e-002
2.578469e+003;3.161386e-002
2.580397e+003;3.160652e-002
2.582326e+003;3.155870e-002
2.584254e+003;3.163054e-002
2.586183e+003;3.176577e-002
2.588111e+003;3.212254e-002
2.590040e+003;3.230896e-002
2.591969e+003;3.222492e-002
2.593897e+003;3.248357e-002
2.595826e+003;3.275872e-002
2.597754e+003;3.290537e-002
2.599683e+003;3.303725e-002
2.601611e+003;3.317467e-002
2.603540e+003;3.325565e-002
2.605468e+003;3.358973e-002
2.607397e+003;3.362557e-002
2.609325e+003;3.349212e-002
2.611254e+003;3.370860e-002
2.613183e+003;3.382692e-002
2.615111e+003;3.380032e-002
2.617040e+003;3.405590e-002
2.618968e+003;3.458941e-002
2.620897e+003;3.491648e-002
2.622825e+003;3.497767e-002
2.624754e+003;3.530496e-002
2.626682e+003;3.573797e-002
2.628611e+003;3.575290e-002
2.630540e+003;3.575052e-002
2.632468e+003;3.611008e-002
2.634396e+003;3.639596e-002
2.636325e+003;3.644648e-002
2.638254e+003;3.652944e-002
2.640182e+003;3.635348e-002
2.642111e+003;3.660611e-002
2.644039e+003;3.721019e-002
2.645968e+003;3.747364e-002
2.647896e+003;3.765160e-002
2.649825e+003;3.784923e-002
2.651753e+003;3.780961e-002
2.653682e+003;3.782393e-002
2.655611e+003;3.778489e-002
2.657539e+003;3.789221e-002
2.659468e+003;3.798439e-002
2.661396e+003;3.829061e-002
2.663325e+003;3.886069e-002
2.665253e+003;3.926788e-002
2.667182e+003;3.917870e-002
2.669110e+003;3.911224e-002
2.671039e+003;3.927851e-002
2.672968e+003;3.961214e-002
2.674896e+003;3.967233e-002
2.676825e+003;3.945779e-002
2.678753e+003;3.943515e-002
2.680682e+003;3.990495e-002
2.682610e+003;4.048614e-002
2.684539e+003;4.055616e-002
2.686467e+003;4.065592e-002
2.688396e+003;4.093090e-002
2.690324e+003;4.120001e-002
2.692253e+003;4.155014e-002
2.694182e+003;4.176860e-002
2.696110e+003;4.206312e-002
2.698039e+003;4.215388e-002
2.699967e+003;4.207049e-002
2.701896e+003;4.218280e-002
2.703824e+003;4.208298e-002
2.705753e+003;4.235561e-002
2.707681e+003;4.278993e-002
2.709610e+003;4.297251e-002
2.711539e+003;4.349020e-002
2.713467e+003;4.403250e-002
2.715396e+003;4.383838e-002
2.717324e+003;4.371143e-002
2.719253e+003;4.378439e-002
2.721181e+003;4.394443e-002
2.723110e+003;4.421541e-002
2.725038e+003;4.431920e-002
2.726967e+003;4.466680e-002
2.728896e+003;4.498542e-002
2.730824e+003;4.510186e-002
2.732752e+003;4.519888e-002
2.734681e+003;4.506786e-002
2.736610e+003;4.487610e-002
2.738538e+003;4.509039e-002
2.740467e+003;4.536441e-002
2.742395e+003;4.546317e-002
2.744324e+003;4.553073e-002
2.746252e+003;4.560554e-002
2.748181e+003;4.559623e-002
2.750109e+003;4.552256e-002
2.752038e+003;4.566454e-002
2.753967e+003;4.570963e-002
2.755895e+003;4.597962e-002
2.757824e+003;4.629095e-002
2.759752e+003;4.610244e-002
2.761681e+003;4.639056e-002
2.763609e+003;4.688116e-002
2.765538e+003;4.699368e-002
2.767466e+003;4.678479e-002
2.769395e+003;4.682472e-002
2.771323e+003;4.729838e-002
2.773252e+003;4.770557e-002
2.775181e+003;4.769773e-002
2.777109e+003;4.755434e-002
2.779038e+003;4.798594e-002
2.780966e+003;4.843271e-002
2.782895e+003;4.861778e-002
2.784823e+003;4.890267e-002
2.786752e+003;4.914819e-002
2.788680e+003;4.912148e-002
2.790609e+003;4.945055e-002
2.792538e+003;4.999365e-002
2.794466e+003;5.019081e-002
2.796395e+003;5.018311e-002
2.798323e+003;5.035378e-002
2.800252e+003;5.088994e-002
2.802180e+003;5.157900e-002
2.804109e+003;5.169558e-002
2.806037e+003;5.177389e-002
2.807966e+003;5.237504e-002
2.809895e+003;5.294023e-002
2.811823e+003;5.331742e-002
2.813751e+003;5.354121e-002
2.815680e+003;5.385556e-002
2.817609e+003;5.445221e-002
2.819537e+003;5.469507e-002
2.821466e+003;5.527153e-002
2.823394e+003;5.641042e-002
2.825323e+003;5.698025e-002
2.827251e+003;5.729189e-002
2.829180e+003;5.794026e-002
2.831108e+003;5.821239e-002
2.833037e+003;5.858752e-002
2.834966e+003;5.931953e-002
2.836894e+003;6.053673e-002
2.838823e+003;6.202135e-002
2.840751e+003;6.295543e-002
2.842680e+003;6.363238e-002
2.844608e+003;6.455261e-002
2.846537e+003;6.545874e-002
2.848465e+003;6.663331e-002
2.850394e+003;6.757621e-002
2.852323e+003;6.804939e-002
2.854251e+003;6.881205e-002
2.856180e+003;6.965517e-002
2.858108e+003;7.063206e-002
2.860037e+003;7.153592e-002
2.861965e+003;7.192238e-002
2.863894e+003;7.213198e-002
2.865822e+003;7.240771e-002
2.867751e+003;7.306844e-002
2.869679e+003;7.393201e-002
2.871608e+003;7.430375e-002
2.873536e+003;7.472365e-002
2.875465e+003;7.534283e-002
2.877394e+003;7.595974e-002
2.879322e+003;7.619388e-002
2.881251e+003;7.614156e-002
2.883179e+003;7.617042e-002
2.885108e+003;7.628459e-002
2.887036e+003;7.667591e-002
2.888965e+003;7.700905e-002
2.890893e+003;7.714628e-002
2.892822e+003;7.758190e-002
2.894750e+003;7.813543e-002
2.896679e+003;7.834575e-002
2.898608e+003;7.840568e-002
2.900536e+003;7.818870e-002
2.902465e+003;7.787880e-002
2.904393e+003;7.796883e-002
2.906322e+003;7.792054e-002
2.908250e+003;7.745590e-002
2.910179e+003;7.742612e-002
2.912107e+003;7.751630e-002
2.914036e+003;7.760385e-002
2.915965e+003;7.752977e-002
2.917893e+003;7.686313e-002
2.919822e+003;7.619076e-002
2.921750e+003;7.557787e-002
2.923679e+003;7.583646e-002
2.925607e+003;7.628207e-002
2.927536e+003;7.566120e-002
2.929464e+003;7.492504e-002
2.931393e+003;7.444358e-002
2.933322e+003;7.400540e-002
2.935250e+003;7.362889e-002
2.937178e+003;7.345627e-002
2.939107e+003;7.301909e-002
2.941036e+003;7.226192e-002
2.942964e+003;7.205582e-002
2.944893e+003;7.172043e-002
2.946821e+003;7.073558e-002
2.948750e+003;7.009474e-002
2.950678e+003;6.935688e-002
2.952607e+003;6.834236e-002
2.954535e+003;6.752256e-002
2.956464e+003;6.693187e-002
2.958393e+003;6.625230e-002
2.960321e+003;6.513519e-002
2.962250e+003;6.414413e-002
2.964178e+003;6.379151e-002
2.966107e+003;6.362533e-002
2.968035e+003;6.265980e-002
2.969964e+003;6.144747e-002
2.971892e+003;6.081118e-002
2.973821e+003;6.036529e-002
2.975750e+003;5.986029e-002
2.977678e+003;5.948988e-002
2.979607e+003;5.883304e-002
2.981535e+003;5.793261e-002
2.983464e+003;5.750789e-002
2.985392e+003;5.738868e-002
2.987321e+003;5.714934e-002
2.989249e+003;5.668793e-002
2.991178e+003;5.629155e-002
2.993106e+003;5.601888e-002
2.995035e+003;5.579393e-002
2.996964e+003;5.568563e-002
2.998892e+003;5.548834e-002
3.000821e+003;5.485662e-002
3.002749e+003;5.437758e-002
3.004678e+003;5.445202e-002
3.006606e+003;5.441473e-002
3.008535e+003;5.434063e-002
3.010463e+003;5.443624e-002
3.012392e+003;5.449649e-002
3.014321e+003;5.453834e-002
3.016249e+003;5.442689e-002
3.018177e+003;5.408777e-002
3.020106e+003;5.399080e-002
3.022035e+003;5.401377e-002
3.023963e+003;5.421564e-002
3.025892e+003;5.430334e-002
3.027820e+003;5.428806e-002
3.029749e+003;5.463685e-002
3.031677e+003;5.525723e-002
3.033606e+003;5.525572e-002
3.035534e+003;5.511309e-002
3.037463e+003;5.562096e-002
3.039392e+003;5.612769e-002
3.041320e+003;5.612870e-002
3.043249e+003;5.632278e-002
3.045177e+003;5.660156e-002
3.047106e+003;5.668378e-002
3.049034e+003;5.688532e-002
3.050963e+003;5.721027e-002
3.052891e+003;5.738883e-002
3.054820e+003;5.780882e-002
3.056749e+003;5.821830e-002
3.058677e+003;5.837746e-002
3.060606e+003;5.860826e-002
3.062534e+003;5.903626e-002
3.064463e+003;5.928519e-002
3.066391e+003;5.928090e-002
3.068320e+003;5.962897e-002
3.070248e+003;5.999361e-002
3.072177e+003;6.013675e-002
3.074105e+003;6.053377e-002
3.076034e+003;6.116736e-002
3.077963e+003;6.158311e-002
3.079891e+003;6.167479e-002
3.081820e+003;6.213236e-002
3.083748e+003;6.280615e-002
3.085677e+003;6.313638e-002
3.087605e+003;6.339277e-002
3.089534e+003;6.382976e-002
3.091462e+003;6.434713e-002
3.093391e+003;6.477994e-002
3.095320e+003;6.500097e-002
3.097248e+003;6.530333e-002
3.099177e+003;6.563075e-002
3.101105e+003;6.612843e-002
3.103034e+003;6.651386e-002
3.104962e+003;6.673967e-002
3.106891e+003;6.688587e-002
3.108819e+003;6.703876e-002
3.110748e+003;6.723808e-002
3.112677e+003;6.804888e-002
3.114605e+003;6.885794e-002
3.116533e+003;6.901343e-002
3.118462e+003;6.933729e-002
3.120391e+003;7.003887e-002
3.122319e+003;7.040690e-002
3.124248e+003;7.034484e-002
3.126176e+003;7.064333e-002
3.128105e+003;7.132009e-002
3.130033e+003;7.180427e-002
3.131962e+003;7.226794e-002
3.133890e+003;7.292948e-002
3.135819e+003;7.313561e-002
3.137748e+003;7.353625e-002
3.139676e+003;7.422771e-002
3.141605e+003;7.438356e-002
3.143533e+003;7.440799e-002
3.145462e+003;7.452382e-002
3.147390e+003;7.518274e-002
3.149319e+003;7.618227e-002
3.151247e+003;7.679147e-002
3.153176e+003;7.712147e-002
3.155104e+003;7.742161e-002
3.157033e+003;7.741951e-002
3.158962e+003;7.783344e-002
3.160890e+003;7.868090e-002
3.162819e+003;7.905847e-002
3.164747e+003;7.928423e-002
3.166676e+003;7.966706e-002
3.168604e+003;8.010945e-002
3.170533e+003;8.075216e-002
3.172461e+003;8.156630e-002
3.174390e+003;8.206586e-002
3.176319e+003;8.236940e-002
3.178247e+003;8.304945e-002
3.180176e+003;8.339362e-002
3.182104e+003;8.370999e-002
3.184033e+003;8.452060e-002
3.185961e+003;8.532971e-002
3.187890e+003;8.541542e-002
3.189818e+003;8.553611e-002
3.191747e+003;8.567287e-002
3.193676e+003;8.605088e-002
3.195604e+003;8.657569e-002
3.197532e+003;8.714899e-002
3.199461e+003;8.798606e-002
3.201390e+003;8.876771e-002
3.203318e+003;8.925206e-002
3.205247e+003;8.965487e-002
3.207175e+003;8.984407e-002
3.209104e+003;9.006906e-002
3.211032e+003;9.054667e-002
3.212961e+003;9.085423e-002
3.214889e+003;9.106717e-002
3.216818e+003;9.180170e-002
3.218747e+003;9.250038e-002
3.220675e+003;9.276024e-002
3.222604e+003;9.329087e-002
3.224532e+003;9.404560e-002
3.226461e+003;9.442826e-002
3.228389e+003;9.487728e-002
3.230318e+003;9.515101e-002
3.232246e+003;9.539297e-002
3.234175e+003;9.580483e-002
3.236104e+003;9.661042e-002
3.238032e+003;9.757461e-002
3.239961e+003;9.789347e-002
3.241889e+003;9.808729e-002
3.243818e+003;9.833180e-002
3.245746e+003;9.866673e-002
3.247675e+003;9.967222e-002
3.249603e+003;1.003444e-001
3.251532e+003;1.004971e-001
3.253460e+003;1.008071e-001
3.255389e+003;1.008460e-001
3.257318e+003;1.010995e-001
3.259246e+003;1.017086e-001
3.261175e+003;1.019223e-001
3.263103e+003;1.027006e-001
3.265032e+003;1.036608e-001
3.266960e+003;1.039206e-001
3.268889e+003;1.038745e-001
3.270817e+003;1.038791e-001
3.272746e+003;1.041551e-001
3.274675e+003;1.051527e-001
3.276603e+003;1.056868e-001
3.278531e+003;1.059549e-001
3.280460e+003;1.063428e-001
3.282389e+003;1.061995e-001
3.284317e+003;1.062509e-001
3.286246e+003;1.064600e-001
3.288174e+003;1.062653e-001
3.290103e+003;1.064555e-001
3.292031e+003;1.068613e-001
3.293960e+003;1.071889e-001
3.295888e+003;1.074775e-001
3.297817e+003;1.072257e-001
3.299746e+003;1.071000e-001
3.301674e+003;1.072899e-001
3.303603e+003;1.077523e-001
3.305531e+003;1.079998e-001
3.307460e+003;1.078501e-001
3.309388e+003;1.081232e-001
3.311317e+003;1.083899e-001
3.313245e+003;1.080568e-001
3.315174e+003;1.076346e-001
3.317103e+003;1.084893e-001
3.319031e+003;1.089850e-001
3.320960e+003;1.088212e-001
3.322888e+003;1.087542e-001
3.324817e+003;1.090345e-001
3.326745e+003;1.093644e-001
3.328674e+003;1.092754e-001
3.330602e+003;1.090043e-001
3.332531e+003;1.090385e-001
3.334459e+003;1.089739e-001
3.336388e+003;1.086522e-001
3.338317e+003;1.085313e-001
3.340245e+003;1.086942e-001
3.342174e+003;1.088256e-001
3.344102e+003;1.091317e-001
3.346031e+003;1.094620e-001
3.347959e+003;1.092731e-001
3.349888e+003;1.084617e-001
3.351816e+003;1.078376e-001
3.353745e+003;1.076765e-001
3.355674e+003;1.075502e-001
3.357602e+003;1.074881e-001
3.359531e+003;1.075425e-001
3.361459e+003;1.074009e-001
3.363388e+003;1.073189e-001
3.365316e+003;1.077637e-001
3.367245e+003;1.081205e-001
3.369173e+003;1.076489e-001
3.371102e+003;1.071257e-001
3.373031e+003;1.066303e-001
3.374959e+003;1.058613e-001
3.376887e+003;1.057531e-001
3.378816e+003;1.055789e-001
3.380745e+003;1.052974e-001
3.382673e+003;1.052748e-001
3.384602e+003;1.047753e-001
3.386530e+003;1.042476e-001
3.388459e+003;1.044189e-001
3.390387e+003;1.044610e-001
3.392316e+003;1.038607e-001
3.394244e+003;1.030763e-001
3.396173e+003;1.028425e-001
3.398102e+003;1.028978e-001
3.400030e+003;1.026294e-001
3.401959e+003;1.020119e-001
3.403887e+003;1.013804e-001
3.405816e+003;1.013901e-001
3.407744e+003;1.009239e-001
3.409673e+003;1.004124e-001
3.411601e+003;1.001523e-001
3.413530e+003;9.960712e-002
3.415458e+003;9.951936e-002
3.417387e+003;9.930203e-002
3.419316e+003;9.861304e-002
3.421244e+003;9.807885e-002
3.423173e+003;9.785515e-002
3.425101e+003;9.749854e-002
3.427030e+003;9.680188e-002
3.428958e+003;9.602607e-002
3.430887e+003;9.589295e-002
3.432815e+003;9.600396e-002
3.434744e+003;9.515815e-002
3.436673e+003;9.405416e-002
3.438601e+003;9.333412e-002
3.440530e+003;9.268066e-002
3.442458e+003;9.206355e-002
3.444387e+003;9.175668e-002
3.446315e+003;9.136876e-002
3.448244e+003;9.047777e-002
3.450172e+003;8.992293e-002
3.452101e+003;8.953314e-002
3.454030e+003;8.906019e-002
3.455958e+003;8.875348e-002
3.457886e+003;8.791291e-002
3.459815e+003;8.706242e-002
3.461744e+003;8.656942e-002
3.463672e+003;8.632383e-002
3.465601e+003;8.611406e-002
3.467529e+003;8.553229e-002
3.469458e+003;8.469099e-002
3.471386e+003;8.400302e-002
3.473315e+003;8.351031e-002
3.475243e+003;8.322712e-002
3.477172e+003;8.245937e-002
3.479101e+003;8.160193e-002
3.481029e+003;8.128745e-002
3.482958e+003;8.036494e-002
3.484886e+003;7.893920e-002
3.486815e+003;7.867017e-002
3.488743e+003;7.875167e-002
3.490672e+003;7.801145e-002
3.492600e+003;7.738403e-002
3.494529e+003;7.697728e-002
3.496458e+003;7.646979e-002
3.498386e+003;7.568194e-002
3.500315e+003;7.519322e-002
3.502243e+003;7.481080e-002
3.504172e+003;7.433277e-002
3.506100e+003;7.345738e-002
3.508029e+003;7.253949e-002
3.509957e+003;7.188907e-002
3.511886e+003;7.137565e-002
3.513814e+003;7.052486e-002
3.515743e+003;6.978448e-002
3.517672e+003;6.888477e-002
3.519600e+003;6.786995e-002
3.521529e+003;6.736432e-002
3.523457e+003;6.744295e-002
3.525386e+003;6.733201e-002
3.527314e+003;6.680563e-002
3.529243e+003;6.575888e-002
3.531171e+003;6.472944e-002
3.533100e+003;6.374020e-002
3.535029e+003;6.310783e-002
3.536957e+003;6.273896e-002
3.538885e+003;6.193995e-002
3.540814e+003;6.105602e-002
3.542743e+003;6.044571e-002
3.544671e+003;5.991445e-002
3.546600e+003;5.945553e-002
3.548528e+003;5.881301e-002
3.550457e+003;5.790849e-002
3.552385e+003;5.727665e-002
3.554314e+003;5.648800e-002
3.556242e+003;5.617946e-002
3.558171e+003;5.611132e-002
3.560100e+003;5.524458e-002
3.562028e+003;5.414245e-002
3.563957e+003;5.366604e-002
3.565885e+003;5.307702e-002
3.567814e+003;5.189571e-002
3.569742e+003;5.108992e-002
3.571671e+003;5.044811e-002
3.573599e+003;4.958821e-002
3.575528e+003;4.918760e-002
3.577457e+003;4.853755e-002
3.579385e+003;4.783450e-002
3.581314e+003;4.718238e-002
3.583242e+003;4.669649e-002
3.585171e+003;4.615705e-002
3.587099e+003;4.537651e-002
3.589028e+003;4.468549e-002
3.590956e+003;4.417638e-002
3.592885e+003;4.338558e-002
3.594813e+003;4.251282e-002
3.596742e+003;4.194180e-002
3.598671e+003;4.146323e-002
3.600599e+003;4.074860e-002
3.602528e+003;3.994963e-002
3.604456e+003;3.958942e-002
3.606385e+003;3.918291e-002
3.608313e+003;3.841638e-002
3.610242e+003;3.761030e-002
3.612170e+003;3.652306e-002
3.614099e+003;3.572365e-002
3.616028e+003;3.552688e-002
3.617956e+003;3.484384e-002
3.619885e+003;3.412378e-002
3.621813e+003;3.333914e-002
3.623742e+003;3.236072e-002
3.625670e+003;3.174952e-002
3.627599e+003;3.076894e-002
3.629527e+003;2.942787e-002
3.631456e+003;2.874441e-002
3.633385e+003;2.794405e-002
3.635313e+003;2.699730e-002
3.637241e+003;2.646930e-002
3.639170e+003;2.591570e-002
3.641099e+003;2.494672e-002
3.643027e+003;2.395034e-002
3.644956e+003;2.311092e-002
3.646884e+003;2.228752e-002
3.648813e+003;2.153270e-002
3.650741e+003;2.108938e-002
3.652670e+003;2.027098e-002
3.654598e+003;1.902257e-002
3.656527e+003;1.782573e-002
3.658456e+003;1.691058e-002
3.660384e+003;1.649497e-002
3.662313e+003;1.603936e-002
3.664241e+003;1.531848e-002
3.666170e+003;1.458416e-002
3.668098e+003;1.368938e-002
3.670027e+003;1.248312e-002
3.671955e+003;1.210286e-002
3.673884e+003;1.149683e-002
3.675813e+003;1.009073e-002
3.677741e+003;9.387506e-003
3.679669e+003;9.459054e-003
3.681598e+003;9.243464e-003
3.683527e+003;8.742076e-003
3.685455e+003;8.342111e-003
3.687384e+003;7.947712e-003
3.689312e+003;7.743563e-003
3.691241e+003;7.455334e-003
3.693169e+003;7.080766e-003
3.695098e+003;7.020081e-003
3.697026e+003;6.937992e-003
3.698955e+003;6.439829e-003
3.700884e+003;6.033243e-003
3.702812e+003;6.012278e-003
3.704741e+003;5.653152e-003
3.706669e+003;5.072475e-003
3.708598e+003;4.521200e-003
3.710526e+003;4.401087e-003
3.712455e+003;5.199514e-003
3.714383e+003;5.158941e-003
3.716312e+003;4.450728e-003
3.718240e+003;4.617233e-003
3.720169e+003;4.998093e-003
3.722098e+003;4.889309e-003
3.724026e+003;4.580163e-003
3.725955e+003;4.247714e-003
3.727883e+003;4.036367e-003
3.729812e+003;4.380503e-003
3.731740e+003;4.664387e-003
3.733669e+003;4.174711e-003
3.735597e+003;3.511055e-003
3.737526e+003;3.587153e-003
3.739455e+003;3.888439e-003
3.741383e+003;3.614483e-003
3.743312e+003;3.064386e-003
3.745240e+003;2.861852e-003
3.747169e+003;2.738663e-003
3.749097e+003;2.134496e-003
3.751026e+003;2.068906e-003
3.752954e+003;2.727460e-003
3.754883e+003;3.275727e-003
3.756812e+003;3.300667e-003
3.758740e+003;3.437908e-003
3.760668e+003;3.207327e-003
3.762597e+003;2.988312e-003
3.764526e+003;2.892938e-003
3.766454e+003;3.196012e-003
3.768383e+003;3.037458e-003
3.770311e+003;2.507620e-003
3.772240e+003;2.488391e-003
3.774168e+003;2.648611e-003
3.776097e+003;2.714289e-003
3.778025e+003;2.793550e-003
3.779954e+003;2.791783e-003
3.781883e+003;2.935168e-003
3.783811e+003;3.353555e-003
3.785740e+003;3.720943e-003
3.787668e+003;3.313721e-003
3.789597e+003;2.407587e-003
3.791525e+003;2.031587e-003
3.793454e+003;2.258746e-003
3.795382e+003;2.539747e-003
3.797311e+003;2.819395e-003
3.799240e+003;2.794784e-003
3.801168e+003;2.616409e-003
3.803097e+003;2.244458e-003
3.805025e+003;2.134929e-003
3.806954e+003;2.467497e-003
3.808882e+003;3.068423e-003
3.810811e+003;2.858517e-003
3.812739e+003;2.713556e-003
3.814668e+003;2.642577e-003
3.816596e+003;2.298117e-003
3.818525e+003;2.519317e-003
3.820454e+003;2.874760e-003
3.822382e+003;2.931766e-003
3.824311e+003;2.863053e-003
3.826239e+003;2.465131e-003
3.828168e+003;2.289956e-003
3.830096e+003;2.431710e-003
3.832025e+003;2.791916e-003
3.833953e+003;2.962790e-003
3.835882e+003;2.232701e-003
3.837811e+003;1.452937e-003
3.839739e+003;1.907834e-003
3.841667e+003;2.632276e-003
3.843596e+003;2.596176e-003
3.845525e+003;2.607676e-003
3.847453e+003;2.976568e-003
3.849382e+003;3.068323e-003
3.851310e+003;2.982440e-003
3.853239e+003;2.670847e-003
3.855167e+003;2.695418e-003
3.857096e+003;3.274759e-003
3.859024e+003;3.645255e-003
3.860953e+003;4.073457e-003
3.862882e+003;4.051852e-003
3.864810e+003;4.076167e-003
3.866739e+003;4.112157e-003
3.868667e+003;3.542187e-003
3.870596e+003;2.911517e-003
3.872524e+003;3.081571e-003
3.874453e+003;3.574158e-003
3.876381e+003;3.890879e-003
3.878310e+003;3.952666e-003
3.880239e+003;3.944307e-003
3.882167e+003;3.978547e-003
3.884096e+003;4.056267e-003
3.886024e+003;4.274717e-003
3.887953e+003;4.512494e-003
3.889881e+003;4.425087e-003
3.891810e+003;4.480656e-003
3.893738e+003;5.013344e-003
3.895667e+003;5.145261e-003
3.897595e+003;5.153911e-003
3.899524e+003;5.554372e-003
3.901453e+003;5.497423e-003
3.903381e+003;5.098926e-003
3.905310e+003;5.255652e-003
3.907238e+003;5.568400e-003
3.909167e+003;5.560379e-003
3.911095e+003;5.026350e-003
3.913024e+003;4.556791e-003
3.914952e+003;4.718747e-003
3.916881e+003;5.630058e-003
3.918810e+003;5.934847e-003
3.920738e+003;5.684002e-003
3.922667e+003;5.994741e-003
3.924595e+003;6.109617e-003
3.926524e+003;5.820253e-003
3.928452e+003;6.168158e-003
3.930381e+003;6.613591e-003
3.932309e+003;6.729370e-003
3.934238e+003;6.595963e-003
3.936167e+003;6.446420e-003
3.938095e+003;6.427353e-003
3.940023e+003;6.424528e-003
3.941952e+003;6.554956e-003
3.943881e+003;6.809771e-003
3.945809e+003;6.906312e-003
3.947738e+003;7.222914e-003
3.949666e+003;7.259906e-003
3.951595e+003;7.205564e-003
3.953523e+003;7.352975e-003
3.955452e+003;7.143481e-003
3.957380e+003;6.966610e-003
3.959309e+003;7.344416e-003
3.961238e+003;7.749938e-003
3.963166e+003;7.696377e-003
3.965095e+003;7.755166e-003
3.967023e+003;8.116340e-003
3.968952e+003;7.792744e-003
3.970880e+003;7.781680e-003
3.972809e+003;8.156279e-003
3.974737e+003;8.200003e-003
3.976666e+003;8.096051e-003
3.978594e+003;8.138318e-003
3.980523e+003;8.052574e-003
3.982452e+003;8.014670e-003
3.984380e+003;8.249573e-003
3.986309e+003;8.551273e-003
3.988237e+003;8.622312e-003
3.990166e+003;8.438994e-003
3.992094e+003;8.022567e-003
3.994023e+003;7.604719e-003
3.995951e+003;7.599795e-003
3.997880e+003;7.704269e-003
3.999809e+003;8.032052e-003
4.001737e+003;0.000000e+000
