3.992094e+002;0.000000e+000
4.011380e+002;0.000000e+000
4.030665e+002;0.000000e+000
4.049951e+002;0.000000e+000
4.069236e+002;0.000000e+000
4.088522e+002;0.000000e+000
4.107807e+002;0.000000e+000
4.127093e+002;0.000000e+000
4.146378e+002;0.000000e+000
4.165664e+002;0.000000e+000
4.184949e+002;0.000000e+000
4.204235e+002;0.000000e+000
4.223520e+002;0.000000e+000
4.242806e+002;0.000000e+000
4.262091e+002;0.000000e+000
4.281377e+002;0.000000e+000
4.300662e+002;0.000000e+000
4.319948e+002;0.000000e+000
4.339233e+002;0.000000e+000
4.358519e+002;0.000000e+000
4.377804e+002;0.000000e+000
4.397090e+002;0.000000e+000
4.416375e+002;0.000000e+000
4.435660e+002;0.000000e+000
4.454946e+002;0.000000e+000
4.474232e+002;0.000000e+000
4.493517e+002;0.000000e+000
4.512802e+002;0.000000e+000
4.532088e+002;0.000000e+000
4.551373e+002;0.000000e+000
4.570659e+002;0.000000e+000
4.589944e+002;0.000000e+000
4.609230e+002;0.000000e+000
4.628515e+002;0.000000e+000
4.647801e+002;0.000000e+000
4.667086e+002;0.000000e+000
4.686372e+002;0.000000e+000
4.705657e+002;0.000000e+000
4.724943e+002;0.000000e+000
4.744228e+002;0.000000e+000
4.763513e+002;0.000000e+000
4.782799e+002;0.000000e+000
4.802085e+002;0.000000e+000
4.821370e+002;0.000000e+000
4.840656e+002;0.000000e+000
4.859941e+002;0.000000e+000
4.879226e+002;0.000000e+000
4.898512e+002;0.000000e+000
4.917798e+002;0.000000e+000
4.937083e+002;0.000000e+000
4.956368e+002;0.000000e+000
4.975654e+002;0.000000e+000
4.994939e+002;0.000000e+000
5.014225e+002;0.000000e+000
5.033510e+002;0.000000e+000
5.052796e+002;0.000000e+000
5.072081e+002;0.000000e+000
5.091367e+002;0.000000e+000
5.110652e+002;0.000000e+000
5.129938e+002;0.000000e+000
5.149223e+002;0.000000e+000
5.168509e+002;0.000000e+000
5.187794e+002;0.000000e+000
5.207079e+002;0.000000e+000
5.226365e+002;0.000000e+000
5.245651e+002;0.000000e+000
5.264936e+002;0.000000e+000
5.284222e+002;0.000000e+000
5.303507e+002;0.000000e+000
5.322792e+002;0.000000e+000
5.342078e+002;0.000000e+000
5.361364e+002;0.000000e+000
5.380649e+002;0.000000e+000
5.399935e+002;0.000000e+000
5.419220e+002;0.000000e+000
5.438505e+002;0.000000e+000
5.457791e+002;0.000000e+000
5.477076e+002;0.000000e+000
5.496362e+002;0.000000e+000
5.515648e+002;0.000000e+000
5.534933e+002;0.000000e+000
5.554218e+002;0.000000e+000
5.573504e+002;0.000000e+000
5.592789e+002;0.000000e+000
5.612075e+002;0.000000e+000
5.631360e+002;0.000000e+000
5.650646e+002;0.000000e+000
5.669931e+002;0.000000e+000
5.689217e+002;0.000000e+000
5.708502e+002;0.000000e+000
5.727787e+002;0.000000e+000
5.747073e+002;0.000000e+000
5.766359e+002;0.000000e+000
5.785644e+002;0.000000e+000
5.804930e+002;0.000000e+000
5.824215e+002;0.000000e+000
5.843500e+002;0.000000e+000
5.862786e+002;0.000000e+000
5.882072e+002;0.000000e+000
5.901357e+002;0.000000e+000
5.920643e+002;0.000000e+000
5.939928e+002;0.000000e+000
5.959213e+002;0.000000e+000
5.978499e+002;0.000000e+000
5.997784e+002;2.714743e-001
6.017070e+002;2.654682e-001
6.036355e+002;2.651030e-001
6.055641e+002;2.620207e-001
6.074926e+002;2.567221e-001
6.094211e+002;2.659740e-001
6.113497e+002;2.639353e-001
6.132783e+002;2.576319e-001
6.152068e+002;2.602741e-001
6.171354e+002;2.645760e-001
6.190639e+002;2.591608e-001
6.209924e+002;2.490544e-001
6.229210e+002;2.464318e-001
6.248495e+002;2.489145e-001
6.267781e+002;2.522126e-001
6.287067e+002;2.542158e-001
6.306352e+002;2.502583e-001
6.325637e+002;2.429768e-001
6.344923e+002;2.367959e-001
6.364208e+002;2.352502e-001
6.383494e+002;2.371007e-001
6.402780e+002;2.388804e-001
6.422065e+002;2.381873e-001
6.441350e+002;2.354279e-001
6.460636e+002;2.333613e-001
6.479921e+002;2.302164e-001
6.499207e+002;2.315595e-001
6.518492e+002;2.382942e-001
6.537778e+002;2.377052e-001
6.557063e+002;2.349553e-001
6.576349e+002;2.392541e-001
6.595634e+002;2.424149e-001
6.614919e+002;2.464955e-001
6.634205e+002;2.489824e-001
6.653491e+002;2.470661e-001
6.672776e+002;2.431068e-001
6.692062e+002;2.401677e-001
6.711347e+002;2.387367e-001
6.730632e+002;2.353340e-001
6.749918e+002;2.310103e-001
6.769203e+002;2.262433e-001
6.788489e+002;2.219278e-001
6.807775e+002;2.202902e-001
6.827060e+002;2.195276e-001
6.846345e+002;2.172584e-001
6.865631e+002;2.157510e-001
6.884916e+002;2.151634e-001
6.904202e+002;2.137193e-001
6.923488e+002;2.127118e-001
6.942773e+002;2.121909e-001
6.962058e+002;2.111830e-001
6.981344e+002;2.104033e-001
7.000629e+002;2.098871e-001
7.019915e+002;2.090733e-001
7.039200e+002;2.085640e-001
7.058486e+002;2.067268e-001
7.077771e+002;2.052401e-001
7.097057e+002;2.046170e-001
7.116342e+002;2.030516e-001
7.135627e+002;2.012819e-001
7.154913e+002;1.997454e-001
7.174199e+002;1.974321e-001
7.193484e+002;1.953052e-001
7.212770e+002;1.935866e-001
7.232055e+002;1.924640e-001
7.251340e+002;1.897112e-001
7.270626e+002;1.856813e-001
7.289911e+002;1.841110e-001
7.309197e+002;1.825137e-001
7.328483e+002;1.805581e-001
7.347768e+002;1.771306e-001
7.367053e+002;1.748636e-001
7.386339e+002;1.739482e-001
7.405624e+002;1.735157e-001
7.424910e+002;1.728097e-001
7.444196e+002;1.719354e-001
7.463481e+002;1.709062e-001
7.482766e+002;1.689173e-001
7.502052e+002;1.680017e-001
7.521337e+002;1.671720e-001
7.540623e+002;1.650673e-001
7.559908e+002;1.652126e-001
7.579194e+002;1.660993e-001
7.598479e+002;1.656980e-001
7.617765e+002;1.643954e-001
7.637050e+002;1.629585e-001
7.656335e+002;1.621931e-001
7.675621e+002;1.612333e-001
7.694907e+002;1.600985e-001
7.714192e+002;1.597061e-001
7.733478e+002;1.588396e-001
7.752763e+002;1.576256e-001
7.772048e+002;1.561979e-001
7.791334e+002;1.548265e-001
7.810620e+002;1.544650e-001
7.829905e+002;1.540028e-001
7.849191e+002;1.526060e-001
7.868476e+002;1.519461e-001
7.887761e+002;1.515636e-001
7.907047e+002;1.509898e-001
7.926332e+002;1.508498e-001
7.945618e+002;1.509361e-001
7.964903e+002;1.508325e-001
7.984189e+002;1.501365e-001
8.003474e+002;1.494214e-001
8.022759e+002;1.488190e-001
8.042045e+002;1.498693e-001
8.061331e+002;1.517762e-001
8.080616e+002;1.534258e-001
8.099902e+002;1.536493e-001
8.119187e+002;1.534544e-001
8.138472e+002;1.551527e-001
8.157758e+002;1.564936e-001
8.177043e+002;1.569164e-001
8.196329e+002;1.573677e-001
8.215615e+002;1.572443e-001
8.234900e+002;1.566567e-001
8.254185e+002;1.574888e-001
8.273471e+002;1.592265e-001
8.292756e+002;1.586046e-001
8.312042e+002;1.573222e-001
8.331328e+002;1.570838e-001
8.350613e+002;1.566886e-001
8.369898e+002;1.563063e-001
8.389184e+002;1.564005e-001
8.408469e+002;1.559348e-001
8.427755e+002;1.556248e-001
8.447040e+002;1.552617e-001
8.466326e+002;1.545640e-001
8.485611e+002;1.542106e-001
8.504897e+002;1.541955e-001
8.524182e+002;1.546690e-001
8.543467e+002;1.545308e-001
8.562753e+002;1.541670e-001
8.582039e+002;1.546800e-001
8.601324e+002;1.562000e-001
8.620610e+002;1.584633e-001
8.639895e+002;1.602533e-001
8.659180e+002;1.616837e-001
8.678466e+002;1.632539e-001
8.697751e+002;1.649198e-001
8.717037e+002;1.670441e-001
8.736323e+002;1.699811e-001
8.755608e+002;1.730796e-001
8.774893e+002;1.759320e-001
8.794179e+002;1.785854e-001
8.813464e+002;1.815431e-001
8.832750e+002;1.847876e-001
8.852036e+002;1.877684e-001
8.871321e+002;1.911938e-001
8.890606e+002;1.951052e-001
8.909892e+002;1.985658e-001
8.929177e+002;2.011965e-001
8.948463e+002;2.032481e-001
8.967748e+002;2.045160e-001
8.987034e+002;2.045409e-001
9.006319e+002;2.032342e-001
9.025605e+002;2.016592e-001
9.044890e+002;1.996608e-001
9.064175e+002;1.975934e-001
9.083461e+002;1.961939e-001
9.102747e+002;1.951923e-001
9.122032e+002;1.941405e-001
9.141318e+002;1.935060e-001
9.160603e+002;1.932047e-001
9.179888e+002;1.939798e-001
9.199174e+002;1.950838e-001
9.218459e+002;1.957158e-001
9.237745e+002;1.963512e-001
9.257031e+002;1.975154e-001
9.276316e+002;1.983755e-001
9.295601e+002;1.988663e-001
9.314887e+002;1.997571e-001
9.334172e+002;2.015621e-001
9.353458e+002;2.041341e-001
9.372744e+002;2.067662e-001
9.392029e+002;2.095641e-001
9.411314e+002;2.125613e-001
9.430600e+002;2.161386e-001
9.449885e+002;2.208622e-001
9.469171e+002;2.263846e-001
9.488456e+002;2.326230e-001
9.507742e+002;2.389569e-001
9.527027e+002;2.453162e-001
9.546313e+002;2.516037e-001
9.565598e+002;2.575940e-001
9.584883e+002;2.642233e-001
9.604169e+002;2.710734e-001
9.623455e+002;2.776461e-001
9.642740e+002;2.842142e-001
9.662026e+002;2.908017e-001
9.681311e+002;2.976314e-001
9.700596e+002;3.045281e-001
9.719882e+002;3.119601e-001
9.739167e+002;3.205928e-001
9.758453e+002;3.296258e-001
9.777739e+002;3.396694e-001
9.797024e+002;3.506683e-001
9.816309e+002;3.608732e-001
9.835595e+002;3.699999e-001
9.854880e+002;3.769225e-001
9.874166e+002;3.818099e-001
9.893452e+002;3.855670e-001
9.912737e+002;3.886380e-001
9.932022e+002;3.919136e-001
9.951307e+002;3.957193e-001
9.970593e+002;4.005349e-001
9.989879e+002;4.066853e-001
1.000916e+003;4.120411e-001
1.002845e+003;4.161461e-001
1.004773e+003;4.209137e-001
1.006702e+003;4.267630e-001
1.008631e+003;4.331445e-001
1.010559e+003;4.395429e-001
1.012488e+003;4.451059e-001
1.014416e+003;4.497060e-001
1.016345e+003;4.540066e-001
1.018273e+003;4.588837e-001
1.020202e+003;4.630935e-001
1.022130e+003;4.652423e-001
1.024059e+003;4.670678e-001
1.025988e+003;4.700249e-001
1.027916e+003;4.720213e-001
1.029845e+003;4.730793e-001
1.031773e+003;4.731945e-001
1.033702e+003;4.714486e-001
1.035630e+003;4.684116e-001
1.037559e+003;4.631984e-001
1.039487e+003;4.572394e-001
1.041416e+003;4.523256e-001
1.043344e+003;4.482493e-001
1.045273e+003;4.441515e-001
1.047202e+003;4.415284e-001
1.049130e+003;4.398176e-001
1.051059e+003;4.366976e-001
1.052987e+003;4.329625e-001
1.054916e+003;4.288101e-001
1.056844e+003;4.231437e-001
1.058773e+003;4.156009e-001
1.060701e+003;4.065920e-001
1.062630e+003;3.954741e-001
1.064558e+003;3.829397e-001
1.066487e+003;3.714595e-001
1.068416e+003;3.618312e-001
1.070344e+003;3.540052e-001
1.072273e+003;3.469898e-001
1.074201e+003;3.412026e-001
1.076130e+003;3.360430e-001
1.078058e+003;3.309109e-001
1.079987e+003;3.256670e-001
1.081915e+003;3.204461e-001
1.083844e+003;3.168222e-001
1.085773e+003;3.130123e-001
1.087701e+003;3.102656e-001
1.089630e+003;3.094797e-001
1.091558e+003;3.089933e-001
1.093487e+003;3.082711e-001
1.095415e+003;3.074825e-001
1.097344e+003;3.060367e-001
1.099272e+003;3.041368e-001
1.101201e+003;3.022144e-001
1.103129e+003;3.002340e-001
1.105058e+003;2.970969e-001
1.106987e+003;2.923828e-001
1.108915e+003;2.865465e-001
1.110844e+003;2.797403e-001
1.112772e+003;2.728439e-001
1.114701e+003;2.665522e-001
1.116629e+003;2.593165e-001
1.118558e+003;2.518846e-001
1.120486e+003;2.448530e-001
1.122415e+003;2.373190e-001
1.124344e+003;2.305886e-001
1.126272e+003;2.246450e-001
1.128201e+003;2.181927e-001
1.130129e+003;2.126522e-001
1.132058e+003;2.076649e-001
1.133986e+003;2.027155e-001
1.135915e+003;1.986497e-001
1.137843e+003;1.949545e-001
1.139772e+003;1.923283e-001
1.141700e+003;1.917636e-001
1.143629e+003;1.920595e-001
1.145557e+003;1.923437e-001
1.147486e+003;1.925202e-001
1.149415e+003;1.931272e-001
1.151343e+003;1.935767e-001
1.153272e+003;1.937412e-001
1.155200e+003;1.938028e-001
1.157129e+003;1.937161e-001
1.159057e+003;1.928356e-001
1.160986e+003;1.904137e-001
1.162914e+003;1.867059e-001
1.164843e+003;1.825875e-001
1.166771e+003;1.767226e-001
1.168700e+003;1.699957e-001
1.170629e+003;1.634755e-001
1.172557e+003;1.575028e-001
1.174486e+003;1.519685e-001
1.176414e+003;1.468865e-001
1.178343e+003;1.432337e-001
1.180271e+003;1.409504e-001
1.182200e+003;1.386163e-001
1.184128e+003;1.367364e-001
1.186057e+003;1.357513e-001
1.187986e+003;1.354906e-001
1.189914e+003;1.360129e-001
1.191843e+003;1.375065e-001
1.193771e+003;1.399206e-001
1.195700e+003;1.428967e-001
1.197628e+003;1.459471e-001
1.199557e+003;1.493354e-001
1.201485e+003;1.525683e-001
1.203414e+003;1.553120e-001
1.205343e+003;1.580574e-001
1.207271e+003;1.608402e-001
1.209200e+003;1.629858e-001
1.211128e+003;1.651943e-001
1.213057e+003;1.678061e-001
1.214985e+003;1.711276e-001
1.216914e+003;1.754231e-001
1.218842e+003;1.801074e-001
1.220771e+003;1.848278e-001
1.222699e+003;1.891840e-001
1.224628e+003;1.932195e-001
1.226557e+003;1.972451e-001
1.228485e+003;2.008346e-001
1.230414e+003;2.030928e-001
1.232342e+003;2.046959e-001
1.234271e+003;2.055718e-001
1.236199e+003;2.056804e-001
1.238128e+003;2.059261e-001
1.240056e+003;2.054932e-001
1.241985e+003;2.045306e-001
1.243913e+003;2.032837e-001
1.245842e+003;2.019493e-001
1.247771e+003;2.003036e-001
1.249699e+003;1.976195e-001
1.251628e+003;1.948279e-001
1.253556e+003;1.922589e-001
1.255485e+003;1.894173e-001
1.257413e+003;1.862071e-001
1.259342e+003;1.830587e-001
1.261270e+003;1.800526e-001
1.263199e+003;1.774531e-001
1.265127e+003;1.746840e-001
1.267056e+003;1.714072e-001
1.268985e+003;1.687554e-001
1.270913e+003;1.666221e-001
1.272842e+003;1.646685e-001
1.274770e+003;1.628195e-001
1.276699e+003;1.604135e-001
1.278627e+003;1.579652e-001
1.280556e+003;1.561516e-001
1.282484e+003;1.543003e-001
1.284413e+003;1.523567e-001
1.286342e+003;1.506653e-001
1.288270e+003;1.494063e-001
1.290199e+003;1.489333e-001
1.292127e+003;1.488687e-001
1.294056e+003;1.489593e-001
1.295984e+003;1.493782e-001
1.297913e+003;1.505053e-001
1.299841e+003;1.522756e-001
1.301770e+003;1.545482e-001
1.303698e+003;1.568334e-001
1.305627e+003;1.594697e-001
1.307556e+003;1.627102e-001
1.309484e+003;1.659139e-001
1.311413e+003;1.689340e-001
1.313341e+003;1.713943e-001
1.315270e+003;1.729553e-001
1.317198e+003;1.739839e-001
1.319127e+003;1.742773e-001
1.321055e+003;1.733484e-001
1.322984e+003;1.719224e-001
1.324912e+003;1.708169e-001
1.326841e+003;1.700778e-001
1.328770e+003;1.696271e-001
1.330698e+003;1.698683e-001
1.332627e+003;1.701710e-001
1.334555e+003;1.701218e-001
1.336484e+003;1.693012e-001
1.338412e+003;1.680753e-001
1.340341e+003;1.670176e-001
1.342269e+003;1.655101e-001
1.344198e+003;1.637513e-001
1.346126e+003;1.618574e-001
1.348055e+003;1.605769e-001
1.349984e+003;1.601866e-001
1.351912e+003;1.605073e-001
1.353841e+003;1.617856e-001
1.355769e+003;1.636986e-001
1.357698e+003;1.656661e-001
1.359626e+003;1.675761e-001
1.361555e+003;1.692263e-001
1.363483e+003;1.703561e-001
1.365412e+003;1.712839e-001
1.367341e+003;1.717782e-001
1.369269e+003;1.714532e-001
1.371198e+003;1.704602e-001
1.373126e+003;1.686728e-001
1.375055e+003;1.661324e-001
1.376983e+003;1.631786e-001
1.378912e+003;1.599563e-001
1.380840e+003;1.565474e-001
1.382769e+003;1.532770e-001
1.384698e+003;1.503665e-001
1.386626e+003;1.478396e-001
1.388555e+003;1.458450e-001
1.390483e+003;1.444508e-001
1.392412e+003;1.435821e-001
1.394340e+003;1.432800e-001
1.396269e+003;1.433966e-001
1.398197e+003;1.436388e-001
1.400126e+003;1.439465e-001
1.402054e+003;1.445885e-001
1.403983e+003;1.459385e-001
1.405911e+003;1.476205e-001
1.407840e+003;1.494810e-001
1.409769e+003;1.513265e-001
1.411697e+003;1.529226e-001
1.413626e+003;1.545985e-001
1.415554e+003;1.564070e-001
1.417483e+003;1.578209e-001
1.419411e+003;1.588146e-001
1.421340e+003;1.598146e-001
1.423268e+003;1.601956e-001
1.425197e+003;1.596072e-001
1.427125e+003;1.584647e-001
1.429054e+003;1.574342e-001
1.430983e+003;1.562670e-001
1.432911e+003;1.545574e-001
1.434840e+003;1.524693e-001
1.436768e+003;1.504643e-001
1.438697e+003;1.483051e-001
1.440625e+003;1.464363e-001
1.442554e+003;1.450087e-001
1.444482e+003;1.437350e-001
1.446411e+003;1.423405e-001
1.448340e+003;1.413085e-001
1.450268e+003;1.405709e-001
1.452197e+003;1.398041e-001
1.454125e+003;1.390215e-001
1.456054e+003;1.375485e-001
1.457982e+003;1.356875e-001
1.459911e+003;1.344501e-001
1.461839e+003;1.332644e-001
1.463768e+003;1.312013e-001
1.465697e+003;1.279419e-001
1.467625e+003;1.246194e-001
1.469554e+003;1.215982e-001
1.471482e+003;1.181973e-001
1.473411e+003;1.148074e-001
1.475339e+003;1.117770e-001
1.477268e+003;1.091175e-001
1.479196e+003;1.065433e-001
1.481125e+003;1.044879e-001
1.483053e+003;1.029119e-001
1.484982e+003;1.014104e-001
1.486911e+003;1.004803e-001
1.488839e+003;9.974892e-002
1.490768e+003;9.922457e-002
1.492696e+003;9.923103e-002
1.494625e+003;9.971178e-002
1.496553e+003;1.003150e-001
1.498482e+003;1.009554e-001
1.500410e+003;1.017241e-001
1.502339e+003;1.022366e-001
1.504267e+003;1.020349e-001
1.506196e+003;1.012051e-001
1.508125e+003;1.006751e-001
1.510053e+003;1.000208e-001
1.511982e+003;9.878268e-002
1.513910e+003;9.698851e-002
1.515839e+003;9.521962e-002
1.517767e+003;9.374283e-002
1.519696e+003;9.230269e-002
1.521624e+003;9.122325e-002
1.523553e+003;9.080894e-002
1.525481e+003;9.053805e-002
1.527410e+003;9.033424e-002
1.529339e+003;8.994319e-002
1.531267e+003;8.984065e-002
1.533196e+003;9.003547e-002
1.535124e+003;8.997371e-002
1.537053e+003;8.967561e-002
1.538981e+003;8.956055e-002
1.540910e+003;8.967630e-002
1.542838e+003;8.997563e-002
1.544767e+003;9.056401e-002
1.546695e+003;9.133846e-002
1.548624e+003;9.157994e-002
1.550553e+003;9.196158e-002
1.552481e+003;9.280249e-002
1.554410e+003;9.388779e-002
1.556338e+003;9.501363e-002
1.558267e+003;9.598342e-002
1.560195e+003;9.717355e-002
1.562124e+003;9.854789e-002
1.564052e+003;9.994353e-002
1.565981e+003;1.016758e-001
1.567910e+003;1.037172e-001
1.569838e+003;1.059530e-001
1.571767e+003;1.083578e-001
1.573695e+003;1.111758e-001
1.575624e+003;1.141775e-001
1.577552e+003;1.179259e-001
1.579481e+003;1.222811e-001
1.581409e+003;1.267944e-001
1.583338e+003;1.316112e-001
1.585266e+003;1.368514e-001
1.587195e+003;1.417368e-001
1.589124e+003;1.458591e-001
1.591052e+003;1.496124e-001
1.592981e+003;1.523850e-001
1.594909e+003;1.539264e-001
1.596838e+003;1.540971e-001
1.598766e+003;1.535427e-001
1.600695e+003;1.528021e-001
1.602623e+003;1.521969e-001
1.604552e+003;1.516474e-001
1.606480e+003;1.510468e-001
1.608409e+003;1.504974e-001
1.610338e+003;1.498784e-001
1.612266e+003;1.490085e-001
1.614195e+003;1.479917e-001
1.616123e+003;1.470670e-001
1.618052e+003;1.461096e-001
1.619980e+003;1.450935e-001
1.621909e+003;1.441569e-001
1.623837e+003;1.434795e-001
1.625766e+003;1.425620e-001
1.627694e+003;1.410577e-001
1.629623e+003;1.396259e-001
1.631552e+003;1.385905e-001
1.633480e+003;1.374444e-001
1.635409e+003;1.360542e-001
1.637337e+003;1.349325e-001
1.639266e+003;1.339483e-001
1.641194e+003;1.327128e-001
1.643123e+003;1.313556e-001
1.645051e+003;1.300059e-001
1.646980e+003;1.286533e-001
1.648909e+003;1.271972e-001
1.650837e+003;1.253860e-001
1.652766e+003;1.233310e-001
1.654694e+003;1.216168e-001
1.656623e+003;1.200954e-001
1.658551e+003;1.184681e-001
1.660480e+003;1.165698e-001
1.662408e+003;1.143132e-001
1.664337e+003;1.124871e-001
1.666266e+003;1.109839e-001
1.668194e+003;1.095582e-001
1.670123e+003;1.078913e-001
1.672051e+003;1.062103e-001
1.673980e+003;1.048471e-001
1.675908e+003;1.035780e-001
1.677837e+003;1.021170e-001
1.679765e+003;1.006303e-001
1.681694e+003;9.942457e-002
1.683622e+003;9.874462e-002
1.685551e+003;9.813509e-002
1.687479e+003;9.755959e-002
1.689408e+003;9.724451e-002
1.691337e+003;9.745669e-002
1.693265e+003;9.798796e-002
1.695194e+003;9.836321e-002
1.697122e+003;9.891210e-002
1.699051e+003;1.002940e-001
1.700979e+003;1.022240e-001
1.702908e+003;1.041096e-001
1.704836e+003;1.059091e-001
1.706765e+003;1.083127e-001
1.708693e+003;1.114045e-001
1.710622e+003;1.147936e-001
1.712551e+003;1.177104e-001
1.714479e+003;1.204822e-001
1.716408e+003;1.229524e-001
1.718336e+003;1.255404e-001
1.720265e+003;1.282336e-001
1.722193e+003;1.304952e-001
1.724122e+003;1.324941e-001
1.726050e+003;1.341318e-001
1.727979e+003;1.353313e-001
1.729908e+003;1.359653e-001
1.731836e+003;1.361990e-001
1.733765e+003;1.361385e-001
1.735693e+003;1.357016e-001
1.737622e+003;1.346834e-001
1.739550e+003;1.326592e-001
1.741479e+003;1.304013e-001
1.743407e+003;1.277659e-001
1.745336e+003;1.241429e-001
1.747265e+003;1.203520e-001
1.749193e+003;1.167888e-001
1.751122e+003;1.131178e-001
1.753050e+003;1.096159e-001
1.754979e+003;1.060688e-001
1.756907e+003;1.022929e-001
1.758836e+003;9.839027e-002
1.760764e+003;9.454123e-002
1.762693e+003;9.123667e-002
1.764621e+003;8.805622e-002
1.766550e+003;8.479582e-002
1.768479e+003;8.149771e-002
1.770407e+003;7.848653e-002
1.772336e+003;7.613762e-002
1.774264e+003;7.418534e-002
1.776193e+003;7.224321e-002
1.778121e+003;7.006036e-002
1.780050e+003;6.840433e-002
1.781978e+003;6.750836e-002
1.783907e+003;6.651818e-002
1.785835e+003;6.538174e-002
1.787764e+003;6.464065e-002
1.789693e+003;6.414495e-002
1.791621e+003;6.338824e-002
1.793550e+003;6.248782e-002
1.795478e+003;6.209444e-002
1.797407e+003;6.172108e-002
1.799335e+003;6.142759e-002
1.801264e+003;6.114741e-002
1.803192e+003;6.077673e-002
1.805121e+003;6.044529e-002
1.807049e+003;6.013207e-002
1.808978e+003;5.972119e-002
1.810907e+003;5.964592e-002
1.812835e+003;5.941104e-002
1.814764e+003;5.896844e-002
1.816692e+003;5.867413e-002
1.818621e+003;5.834119e-002
1.820549e+003;5.798812e-002
1.822478e+003;5.778312e-002
1.824406e+003;5.780382e-002
1.826335e+003;5.752446e-002
1.828264e+003;5.721413e-002
1.830192e+003;5.704920e-002
1.832121e+003;5.691111e-002
1.834049e+003;5.663954e-002
1.835978e+003;5.634572e-002
1.837906e+003;5.612305e-002
1.839835e+003;5.583229e-002
1.841763e+003;5.566186e-002
1.843692e+003;5.563026e-002
1.845620e+003;5.569188e-002
1.847549e+003;5.553405e-002
1.849478e+003;5.518555e-002
1.851406e+003;5.499300e-002
1.853335e+003;5.496731e-002
1.855263e+003;5.490610e-002
1.857192e+003;5.492121e-002
1.859120e+003;5.511001e-002
1.861049e+003;5.508360e-002
1.862977e+003;5.462491e-002
1.864906e+003;5.424842e-002
1.866834e+003;5.416471e-002
1.868763e+003;5.429035e-002
1.870692e+003;5.432621e-002
1.872620e+003;5.421895e-002
1.874549e+003;5.407519e-002
1.876477e+003;5.390954e-002
1.878406e+003;5.379581e-002
1.880334e+003;5.389652e-002
1.882263e+003;5.399328e-002
1.884191e+003;5.420750e-002
1.886120e+003;5.429914e-002
1.888048e+003;5.421163e-002
1.889977e+003;5.420911e-002
1.891906e+003;5.414538e-002
1.893834e+003;5.414448e-002
1.895763e+003;5.450100e-002
1.897691e+003;5.458448e-002
1.899620e+003;5.430297e-002
1.901548e+003;5.426820e-002
1.903477e+003;5.444462e-002
1.905405e+003;5.450307e-002
1.907334e+003;5.454664e-002
1.909262e+003;5.476121e-002
1.911191e+003;5.505189e-002
1.913120e+003;5.506946e-002
1.915048e+003;5.506570e-002
1.916977e+003;5.529437e-002
1.918905e+003;5.551217e-002
1.920834e+003;5.548977e-002
1.922762e+003;5.538771e-002
1.924691e+003;5.537717e-002
1.926619e+003;5.554685e-002
1.928548e+003;5.571829e-002
1.930477e+003;5.578372e-002
1.932405e+003;5.606480e-002
1.934334e+003;5.624923e-002
1.936262e+003;5.611675e-002
1.938191e+003;5.620310e-002
1.940119e+003;5.630098e-002
1.942048e+003;5.623719e-002
1.943976e+003;5.612637e-002
1.945905e+003;5.627789e-002
1.947833e+003;5.668782e-002
1.949762e+003;5.681741e-002
1.951691e+003;5.669016e-002
1.953619e+003;5.681039e-002
1.955548e+003;5.693873e-002
1.957476e+003;5.695532e-002
1.959405e+003;5.703987e-002
1.961333e+003;5.697715e-002
1.963262e+003;5.676349e-002
1.965190e+003;5.668344e-002
1.967119e+003;5.672701e-002
1.969047e+003;5.684033e-002
1.970976e+003;5.703261e-002
1.972905e+003;5.714723e-002
1.974833e+003;5.722747e-002
1.976762e+003;5.719678e-002
1.978690e+003;5.722732e-002
1.980619e+003;5.729643e-002
1.982547e+003;5.722180e-002
1.984476e+003;5.723942e-002
1.986404e+003;5.741327e-002
1.988333e+003;5.759690e-002
1.990261e+003;5.781192e-002
1.992190e+003;5.792114e-002
1.994119e+003;5.781215e-002
1.996047e+003;5.783112e-002
1.997976e+003;5.801754e-002
1.999904e+003;5.823649e-002
2.001833e+003;5.858198e-002
2.003761e+003;5.879362e-002
2.005690e+003;5.890350e-002
2.007618e+003;5.899166e-002
2.009547e+003;5.919883e-002
2.011476e+003;5.949398e-002
2.013404e+003;5.966729e-002
2.015333e+003;5.970545e-002
2.017261e+003;5.982621e-002
2.019190e+003;6.005650e-002
2.021118e+003;6.035996e-002
2.023047e+003;6.059372e-002
2.024975e+003;6.069404e-002
2.026904e+003;6.084618e-002
2.028833e+003;6.088155e-002
2.030761e+003;6.091651e-002
2.032690e+003;6.112105e-002
2.034618e+003;6.129440e-002
2.036547e+003;6.140976e-002
2.038475e+003;6.155340e-002
2.040404e+003;6.157463e-002
2.042332e+003;6.157922e-002
2.044261e+003;6.173411e-002
2.046189e+003;6.185704e-002
2.048118e+003;6.192165e-002
2.050047e+003;6.200156e-002
2.051975e+003;6.212785e-002
2.053904e+003;6.226603e-002
2.055832e+003;6.233323e-002
2.057761e+003;6.224515e-002
2.059689e+003;6.204448e-002
2.061618e+003;6.204933e-002
2.063546e+003;6.225043e-002
2.065475e+003;6.231399e-002
2.067404e+003;6.228779e-002
2.069332e+003;6.224706e-002
2.071260e+003;6.235928e-002
2.073189e+003;6.277828e-002
2.075118e+003;6.280604e-002
2.077046e+003;6.271055e-002
2.078975e+003;6.257005e-002
2.080903e+003;6.234661e-002
2.082832e+003;6.231521e-002
2.084760e+003;6.242852e-002
2.086689e+003;6.245644e-002
2.088617e+003;6.243142e-002
2.090546e+003;6.238930e-002
2.092475e+003;6.245835e-002
2.094403e+003;6.275370e-002
2.096332e+003;6.315760e-002
2.098260e+003;6.328493e-002
2.100189e+003;6.324437e-002
2.102117e+003;6.316178e-002
2.104046e+003;6.318550e-002
2.105974e+003;6.342938e-002
2.107903e+003;6.344783e-002
2.109832e+003;6.353396e-002
2.111760e+003;6.377941e-002
2.113688e+003;6.378637e-002
2.115617e+003;6.371641e-002
2.117546e+003;6.362019e-002
2.119474e+003;6.368472e-002
2.121403e+003;6.362053e-002
2.123331e+003;6.347904e-002
2.125260e+003;6.372907e-002
2.127188e+003;6.373805e-002
2.129117e+003;6.380286e-002
2.131045e+003;6.394135e-002
2.132974e+003;6.408522e-002
2.134903e+003;6.407666e-002
2.136831e+003;6.396443e-002
2.138760e+003;6.389748e-002
2.140688e+003;6.377074e-002
2.142617e+003;6.356971e-002
2.144545e+003;6.338989e-002
2.146474e+003;6.316940e-002
2.148402e+003;6.329849e-002
2.150331e+003;6.338364e-002
2.152260e+003;6.322616e-002
2.154188e+003;6.320344e-002
2.156117e+003;6.321356e-002
2.158045e+003;6.319159e-002
2.159974e+003;6.310158e-002
2.161902e+003;6.292372e-002
2.163831e+003;6.274593e-002
2.165759e+003;6.265727e-002
2.167688e+003;6.250534e-002
2.169616e+003;6.221537e-002
2.171545e+003;6.191546e-002
2.173474e+003;6.184565e-002
2.175402e+003;6.174843e-002
2.177331e+003;6.167873e-002
2.179259e+003;6.152706e-002
2.181188e+003;6.122473e-002
2.183116e+003;6.113188e-002
2.185045e+003;6.123015e-002
2.186973e+003;6.125556e-002
2.188902e+003;6.098925e-002
2.190831e+003;6.096756e-002
2.192759e+003;6.105789e-002
2.194688e+003;6.089653e-002
2.196616e+003;6.073321e-002
2.198545e+003;6.070166e-002
2.200473e+003;6.052013e-002
2.202402e+003;6.025549e-002
2.204330e+003;5.997501e-002
2.206259e+003;5.972815e-002
2.208188e+003;5.981987e-002
2.210116e+003;5.997227e-002
2.212044e+003;6.000704e-002
2.213973e+003;5.989326e-002
2.215902e+003;6.003146e-002
2.217830e+003;6.017332e-002
2.219759e+003;6.000662e-002
2.221687e+003;6.014995e-002
2.223616e+003;6.019878e-002
2.225544e+003;6.014264e-002
2.227473e+003;6.023631e-002
2.229401e+003;6.050029e-002
2.231330e+003;6.074205e-002
2.233259e+003;6.074994e-002
2.235187e+003;6.048539e-002
2.237116e+003;6.016377e-002
2.239044e+003;6.033331e-002
2.240973e+003;6.072086e-002
2.242901e+003;6.091651e-002
2.244830e+003;6.066344e-002
2.246758e+003;6.030083e-002
2.248687e+003;6.028595e-002
2.250615e+003;6.048368e-002
2.252544e+003;6.047370e-002
2.254473e+003;6.011913e-002
2.256401e+003;5.969565e-002
2.258330e+003;5.969219e-002
2.260258e+003;5.985831e-002
2.262187e+003;5.974139e-002
2.264115e+003;5.975682e-002
2.266044e+003;5.996690e-002
2.267972e+003;5.991840e-002
2.269901e+003;5.983949e-002
2.271830e+003;5.987744e-002
2.273758e+003;5.977636e-002
2.275687e+003;5.962160e-002
2.277615e+003;5.945591e-002
2.279544e+003;5.921971e-002
2.281472e+003;5.938490e-002
2.283401e+003;5.982040e-002
2.285329e+003;5.984782e-002
2.287258e+003;5.967573e-002
2.289187e+003;5.950283e-002
2.291115e+003;5.910892e-002
2.293043e+003;5.894433e-002
2.294972e+003;5.912847e-002
2.296901e+003;5.936743e-002
2.298829e+003;5.944101e-002
2.300758e+003;5.921110e-002
2.302686e+003;5.908045e-002
2.304615e+003;5.932822e-002
2.306543e+003;5.948566e-002
2.308472e+003;5.945842e-002
2.310400e+003;5.930050e-002
2.312329e+003;5.898756e-002
2.314258e+003;5.897599e-002
2.316186e+003;5.910660e-002
2.318115e+003;5.917753e-002
2.320043e+003;5.937449e-002
2.321972e+003;5.939846e-002
2.323900e+003;5.925313e-002
2.325829e+003;5.903778e-002
2.327757e+003;5.904306e-002
2.329686e+003;5.935538e-002
2.331615e+003;5.954319e-002
2.333543e+003;5.971249e-002
2.335472e+003;5.983633e-002
2.337400e+003;5.958663e-002
2.339329e+003;5.948801e-002
2.341257e+003;5.979382e-002
2.343186e+003;6.018675e-002
2.345114e+003;6.034092e-002
2.347043e+003;6.026668e-002
2.348971e+003;6.044681e-002
2.350900e+003;6.055182e-002
2.352829e+003;6.048665e-002
2.354757e+003;6.049739e-002
2.356686e+003;6.062214e-002
2.358614e+003;6.079606e-002
2.360543e+003;6.086222e-002
2.362471e+003;6.103063e-002
2.364400e+003;6.125437e-002
2.366328e+003;6.128207e-002
2.368257e+003;6.139468e-002
2.370186e+003;6.167808e-002
2.372114e+003;6.189647e-002
2.374042e+003;6.216417e-002
2.375971e+003;6.232891e-002
2.377900e+003;6.224339e-002
2.379828e+003;6.236333e-002
2.381757e+003;6.263128e-002
2.383685e+003;6.280604e-002
2.385614e+003;6.302032e-002
2.387542e+003;6.323716e-002
2.389471e+003;6.321938e-002
2.391399e+003;6.298248e-002
2.393328e+003;6.306281e-002
2.395257e+003;6.303358e-002
2.397185e+003;6.314484e-002
2.399114e+003;6.372853e-002
2.401042e+003;6.404736e-002
2.402971e+003;6.395717e-002
2.404899e+003;6.386209e-002
2.406828e+003;6.402835e-002
2.408756e+003;6.421693e-002
2.410685e+003;6.455118e-002
2.412614e+003;6.478433e-002
2.414542e+003;6.474983e-002
2.416471e+003;6.496523e-002
2.418399e+003;6.521985e-002
2.420328e+003;6.509431e-002
2.422256e+003;6.509165e-002
2.424185e+003;6.533572e-002
2.426113e+003;6.565160e-002
2.428042e+003;6.589352e-002
2.429970e+003;6.612141e-002
2.431899e+003;6.635119e-002
2.433828e+003;6.646856e-002
2.435756e+003;6.647199e-002
2.437685e+003;6.658036e-002
2.439613e+003;6.683524e-002
2.441542e+003;6.713176e-002
2.443470e+003;6.752381e-002
2.445399e+003;6.750302e-002
2.447327e+003;6.749342e-002
2.449256e+003;6.751672e-002
2.451185e+003;6.743761e-002
2.453113e+003;6.776664e-002
2.455042e+003;6.816392e-002
2.456970e+003;6.828298e-002
2.458899e+003;6.835309e-002
2.460827e+003;6.851818e-002
2.462756e+003;6.884521e-002
2.464684e+003;6.897285e-002
2.466613e+003;6.884591e-002
2.468542e+003;6.894663e-002
2.470470e+003;6.909733e-002
2.472398e+003;6.902458e-002
2.474327e+003;6.936648e-002
2.476256e+003;6.991115e-002
2.478184e+003;6.987348e-002
2.480113e+003;6.992151e-002
2.482041e+003;7.025041e-002
2.483970e+003;7.051462e-002
2.485898e+003;7.063725e-002
2.487827e+003;7.041010e-002
2.489755e+003;7.021812e-002
2.491684e+003;7.045604e-002
2.493613e+003;7.066910e-002
2.495541e+003;7.081580e-002
2.497470e+003;7.120515e-002
2.499398e+003;7.111903e-002
2.501327e+003;7.116146e-002
2.503255e+003;7.149564e-002
2.505184e+003;7.152084e-002
2.507112e+003;7.164618e-002
2.509041e+003;7.210080e-002
2.510969e+003;7.249216e-002
2.512898e+003;7.231612e-002
2.514827e+003;7.211003e-002
2.516755e+003;7.219239e-002
2.518684e+003;7.244533e-002
2.520612e+003;7.284714e-002
2.522541e+003;7.306691e-002
2.524469e+003;7.301740e-002
2.526398e+003;7.293230e-002
2.528326e+003;7.296044e-002
2.530255e+003;7.317270e-002
2.532184e+003;7.329138e-002
2.534112e+003;7.341421e-002
2.536041e+003;7.367918e-002
2.537969e+003;7.375527e-002
2.539898e+003;7.362936e-002
2.541826e+003;7.350207e-002
2.543755e+003;7.371153e-002
2.545683e+003;7.411310e-002
2.547612e+003;7.445683e-002
2.549541e+003;7.449542e-002
2.551469e+003;7.433457e-002
2.553397e+003;7.423491e-002
2.555326e+003;7.415146e-002
2.557255e+003;7.433642e-002
2.559183e+003;7.466601e-002
2.561112e+003;7.470953e-002
2.563040e+003;7.471240e-002
2.564969e+003;7.486933e-002
2.566897e+003;7.520906e-002
2.568826e+003;7.554514e-002
2.570754e+003;7.560141e-002
2.572683e+003;7.543278e-002
2.574612e+003;7.548308e-002
2.576540e+003;7.574205e-002
2.578469e+003;7.555362e-002
2.580397e+003;7.537878e-002
2.582326e+003;7.550216e-002
2.584254e+003;7.577326e-002
2.586183e+003;7.597679e-002
2.588111e+003;7.591578e-002
2.590040e+003;7.588184e-002
2.591969e+003;7.623222e-002
2.593897e+003;7.670148e-002
2.595826e+003;7.720889e-002
2.597754e+003;7.725473e-002
2.599683e+003;7.707042e-002
2.601611e+003;7.695197e-002
2.603540e+003;7.699165e-002
2.605468e+003;7.719357e-002
2.607397e+003;7.736926e-002
2.609325e+003;7.735971e-002
2.611254e+003;7.747285e-002
2.613183e+003;7.788815e-002
2.615111e+003;7.815772e-002
2.617040e+003;7.822520e-002
2.618968e+003;7.825174e-002
2.620897e+003;7.848582e-002
2.622825e+003;7.867497e-002
2.624754e+003;7.870830e-002
2.626682e+003;7.882167e-002
2.628611e+003;7.898860e-002
2.630540e+003;7.909949e-002
2.632468e+003;7.950505e-002
2.634396e+003;7.982659e-002
2.636325e+003;8.013403e-002
2.638254e+003;8.038128e-002
2.640182e+003;8.045521e-002
2.642111e+003;8.065324e-002
2.644039e+003;8.093584e-002
2.645968e+003;8.103861e-002
2.647896e+003;8.109863e-002
2.649825e+003;8.120340e-002
2.651753e+003;8.131870e-002
2.653682e+003;8.145689e-002
2.655611e+003;8.164367e-002
2.657539e+003;8.188286e-002
2.659468e+003;8.204416e-002
2.661396e+003;8.226723e-002
2.663325e+003;8.240101e-002
2.665253e+003;8.256627e-002
2.667182e+003;8.277028e-002
2.669110e+003;8.283993e-002
2.671039e+003;8.304247e-002
2.672968e+003;8.322600e-002
2.674896e+003;8.350533e-002
2.676825e+003;8.384685e-002
2.678753e+003;8.402630e-002
2.680682e+003;8.415189e-002
2.682610e+003;8.428825e-002
2.684539e+003;8.447178e-002
2.686467e+003;8.438911e-002
2.688396e+003;8.438984e-002
2.690324e+003;8.468930e-002
2.692253e+003;8.499786e-002
2.694182e+003;8.526056e-002
2.696110e+003;8.519161e-002
2.698039e+003;8.531532e-002
2.699967e+003;8.563050e-002
2.701896e+003;8.581052e-002
2.703824e+003;8.615463e-002
2.705753e+003;8.661233e-002
2.707681e+003;8.684254e-002
2.709610e+003;8.682846e-002
2.711539e+003;8.688236e-002
2.713467e+003;8.723222e-002
2.715396e+003;8.715535e-002
2.717324e+003;8.698116e-002
2.719253e+003;8.709700e-002
2.721181e+003;8.718973e-002
2.723110e+003;8.754896e-002
2.725038e+003;8.814811e-002
2.726967e+003;8.826856e-002
2.728896e+003;8.829340e-002
2.730824e+003;8.835866e-002
2.732752e+003;8.825979e-002
2.734681e+003;8.841666e-002
2.736610e+003;8.871630e-002
2.738538e+003;8.883324e-002
2.740467e+003;8.871496e-002
2.742395e+003;8.841544e-002
2.744324e+003;8.812420e-002
2.746252e+003;8.819698e-002
2.748181e+003;8.859560e-002
2.750109e+003;8.889578e-002
2.752038e+003;8.914790e-002
2.753967e+003;8.926415e-002
2.755895e+003;8.937494e-002
2.757824e+003;8.948575e-002
2.759752e+003;8.957236e-002
2.761681e+003;8.990398e-002
2.763609e+003;9.015506e-002
2.765538e+003;9.005626e-002
2.767466e+003;8.995651e-002
2.769395e+003;9.037283e-002
2.771323e+003;9.055483e-002
2.773252e+003;9.043819e-002
2.775181e+003;9.071547e-002
2.777109e+003;9.114322e-002
2.779038e+003;9.130526e-002
2.780966e+003;9.137645e-002
2.782895e+003;9.165417e-002
2.784823e+003;9.190704e-002
2.786752e+003;9.204045e-002
2.788680e+003;9.227995e-002
2.790609e+003;9.278066e-002
2.792538e+003;9.324072e-002
2.794466e+003;9.333421e-002
2.796395e+003;9.315374e-002
2.798323e+003;9.342791e-002
2.800252e+003;9.389030e-002
2.802180e+003;9.430292e-002
2.804109e+003;9.469160e-002
2.806037e+003;9.483820e-002
2.807966e+003;9.492877e-002
2.809895e+003;9.517518e-002
2.811823e+003;9.541117e-002
2.813751e+003;9.588440e-002
2.815680e+003;9.625085e-002
2.817609e+003;9.656344e-002
2.819537e+003;9.707339e-002
2.821466e+003;9.795611e-002
2.823394e+003;9.879225e-002
2.825323e+003;9.896150e-002
2.827251e+003;9.922941e-002
2.829180e+003;9.978168e-002
2.831108e+003;1.004756e-001
2.833037e+003;1.012768e-001
2.834966e+003;1.017821e-001
2.836894e+003;1.022196e-001
2.838823e+003;1.029871e-001
2.840751e+003;1.037101e-001
2.842680e+003;1.044275e-001
2.844608e+003;1.048945e-001
2.846537e+003;1.054277e-001
2.848465e+003;1.060490e-001
2.850394e+003;1.062706e-001
2.852323e+003;1.062489e-001
2.854251e+003;1.068770e-001
2.856180e+003;1.081926e-001
2.858108e+003;1.096648e-001
2.860037e+003;1.108736e-001
2.861965e+003;1.117874e-001
2.863894e+003;1.127449e-001
2.865822e+003;1.138266e-001
2.867751e+003;1.148321e-001
2.869679e+003;1.153564e-001
2.871608e+003;1.156555e-001
2.873536e+003;1.165216e-001
2.875465e+003;1.170371e-001
2.877394e+003;1.173092e-001
2.879322e+003;1.177961e-001
2.881251e+003;1.183707e-001
2.883179e+003;1.189766e-001
2.885108e+003;1.191991e-001
2.887036e+003;1.194328e-001
2.888965e+003;1.198642e-001
2.890893e+003;1.199052e-001
2.892822e+003;1.200963e-001
2.894750e+003;1.201732e-001
2.896679e+003;1.202011e-001
2.898608e+003;1.203895e-001
2.900536e+003;1.207525e-001
2.902465e+003;1.206333e-001
2.904393e+003;1.202387e-001
2.906322e+003;1.198345e-001
2.908250e+003;1.189264e-001
2.910179e+003;1.184022e-001
2.912107e+003;1.178453e-001
2.914036e+003;1.169798e-001
2.915965e+003;1.160048e-001
2.917893e+003;1.149764e-001
2.919822e+003;1.141932e-001
2.921750e+003;1.132570e-001
2.923679e+003;1.122689e-001
2.925607e+003;1.117264e-001
2.927536e+003;1.118037e-001
2.929464e+003;1.121847e-001
2.931393e+003;1.123372e-001
2.933322e+003;1.121958e-001
2.935250e+003;1.121945e-001
2.937178e+003;1.126099e-001
2.939107e+003;1.122565e-001
2.941036e+003;1.113068e-001
2.942964e+003;1.110865e-001
2.944893e+003;1.111049e-001
2.946821e+003;1.106962e-001
2.948750e+003;1.096609e-001
2.950678e+003;1.087726e-001
2.952607e+003;1.082764e-001
2.954535e+003;1.074611e-001
2.956464e+003;1.065305e-001
2.958393e+003;1.056169e-001
2.960321e+003;1.046934e-001
2.962250e+003;1.042114e-001
2.964178e+003;1.038157e-001
2.966107e+003;1.033097e-001
2.968035e+003;1.026381e-001
2.969964e+003;1.020135e-001
2.971892e+003;1.019465e-001
2.973821e+003;1.016369e-001
2.975750e+003;1.008585e-001
2.977678e+003;1.003763e-001
2.979607e+003;9.969823e-002
2.981535e+003;9.917199e-002
2.983464e+003;9.889605e-002
2.985392e+003;9.837735e-002
2.987321e+003;9.784943e-002
2.989249e+003;9.779721e-002
2.991178e+003;9.777177e-002
2.993106e+003;9.748108e-002
2.995035e+003;9.746279e-002
2.996964e+003;9.745811e-002
2.998892e+003;9.690885e-002
3.000821e+003;9.635740e-002
3.002749e+003;9.627968e-002
3.004678e+003;9.619069e-002
3.006606e+003;9.603607e-002
3.008535e+003;9.598833e-002
3.010463e+003;9.621910e-002
3.012392e+003;9.651639e-002
3.014321e+003;9.669801e-002
3.016249e+003;9.695222e-002
3.018177e+003;9.705479e-002
3.020106e+003;9.714777e-002
3.022035e+003;9.711972e-002
3.023963e+003;9.730540e-002
3.025892e+003;9.754508e-002
3.027820e+003;9.808014e-002
3.029749e+003;9.848042e-002
3.031677e+003;9.846883e-002
3.033606e+003;9.843677e-002
3.035534e+003;9.848919e-002
3.037463e+003;9.871929e-002
3.039392e+003;9.899991e-002
3.041320e+003;9.912778e-002
3.043249e+003;9.922649e-002
3.045177e+003;9.971311e-002
3.047106e+003;1.001330e-001
3.049034e+003;1.004249e-001
3.050963e+003;1.010258e-001
3.052891e+003;1.014099e-001
3.054820e+003;1.015235e-001
3.056749e+003;1.014696e-001
3.058677e+003;1.015792e-001
3.060606e+003;1.021193e-001
3.062534e+003;1.026261e-001
3.064463e+003;1.031207e-001
3.066391e+003;1.038322e-001
3.068320e+003;1.038609e-001
3.070248e+003;1.040055e-001
3.072177e+003;1.047650e-001
3.074105e+003;1.051226e-001
3.076034e+003;1.051722e-001
3.077963e+003;1.053881e-001
3.079891e+003;1.059388e-001
3.081820e+003;1.064816e-001
3.083748e+003;1.070947e-001
3.085677e+003;1.074661e-001
3.087605e+003;1.076231e-001
3.089534e+003;1.078921e-001
3.091462e+003;1.084286e-001
3.093391e+003;1.086891e-001
3.095320e+003;1.090320e-001
3.097248e+003;1.096021e-001
3.099177e+003;1.099856e-001
3.101105e+003;1.104550e-001
3.103034e+003;1.108293e-001
3.104962e+003;1.113142e-001
3.106891e+003;1.121720e-001
3.108819e+003;1.128384e-001
3.110748e+003;1.129510e-001
3.112677e+003;1.130104e-001
3.114605e+003;1.133703e-001
3.116533e+003;1.140804e-001
3.118462e+003;1.143308e-001
3.120391e+003;1.145816e-001
3.122319e+003;1.151975e-001
3.124248e+003;1.158387e-001
3.126176e+003;1.161963e-001
3.128105e+003;1.166807e-001
3.130033e+003;1.173663e-001
3.131962e+003;1.177483e-001
3.133890e+003;1.178437e-001
3.135819e+003;1.182724e-001
3.137748e+003;1.193197e-001
3.139676e+003;1.201231e-001
3.141605e+003;1.202426e-001
3.143533e+003;1.205278e-001
3.145462e+003;1.211954e-001
3.147390e+003;1.221443e-001
3.149319e+003;1.231167e-001
3.151247e+003;1.237707e-001
3.153176e+003;1.237315e-001
3.155104e+003;1.237278e-001
3.157033e+003;1.242900e-001
3.158962e+003;1.252112e-001
3.160890e+003;1.260793e-001
3.162819e+003;1.266276e-001
3.164747e+003;1.266783e-001
3.166676e+003;1.270866e-001
3.168604e+003;1.282045e-001
3.170533e+003;1.291286e-001
3.172461e+003;1.295491e-001
3.174390e+003;1.298595e-001
3.176319e+003;1.305152e-001
3.178247e+003;1.310255e-001
3.180176e+003;1.316186e-001
3.182104e+003;1.323824e-001
3.184033e+003;1.330841e-001
3.185961e+003;1.336512e-001
3.187890e+003;1.340929e-001
3.189818e+003;1.342601e-001
3.191747e+003;1.346680e-001
3.193676e+003;1.357444e-001
3.195604e+003;1.365010e-001
3.197532e+003;1.370601e-001
3.199461e+003;1.378423e-001
3.201390e+003;1.381281e-001
3.203318e+003;1.384627e-001
3.205247e+003;1.395631e-001
3.207175e+003;1.407305e-001
3.209104e+003;1.412089e-001
3.211032e+003;1.416630e-001
3.212961e+003;1.423230e-001
3.214889e+003;1.426144e-001
3.216818e+003;1.429441e-001
3.218747e+003;1.438050e-001
3.220675e+003;1.445355e-001
3.222604e+003;1.450520e-001
3.224532e+003;1.459115e-001
3.226461e+003;1.470323e-001
3.228389e+003;1.479268e-001
3.230318e+003;1.492365e-001
3.232246e+003;1.499512e-001
3.234175e+003;1.500202e-001
3.236104e+003;1.511349e-001
3.238032e+003;1.519175e-001
3.239961e+003;1.523068e-001
3.241889e+003;1.527062e-001
3.243818e+003;1.528900e-001
3.245746e+003;1.540941e-001
3.247675e+003;1.559919e-001
3.249603e+003;1.567276e-001
3.251532e+003;1.571309e-001
3.253460e+003;1.577461e-001
3.255389e+003;1.580713e-001
3.257318e+003;1.584351e-001
3.259246e+003;1.591993e-001
3.261175e+003;1.602606e-001
3.263103e+003;1.608800e-001
3.265032e+003;1.612000e-001
3.266960e+003;1.615492e-001
3.268889e+003;1.618064e-001
3.270817e+003;1.622074e-001
3.272746e+003;1.629261e-001
3.274675e+003;1.633072e-001
3.276603e+003;1.635977e-001
3.278531e+003;1.642368e-001
3.280460e+003;1.643208e-001
3.282389e+003;1.641932e-001
3.284317e+003;1.647264e-001
3.286246e+003;1.653858e-001
3.288174e+003;1.653783e-001
3.290103e+003;1.650715e-001
3.292031e+003;1.651600e-001
3.293960e+003;1.658704e-001
3.295888e+003;1.659156e-001
3.297817e+003;1.657659e-001
3.299746e+003;1.662086e-001
3.301674e+003;1.663111e-001
3.303603e+003;1.664736e-001
3.305531e+003;1.669319e-001
3.307460e+003;1.672754e-001
3.309388e+003;1.678273e-001
3.311317e+003;1.679339e-001
3.313245e+003;1.672060e-001
3.315174e+003;1.669776e-001
3.317103e+003;1.675213e-001
3.319031e+003;1.680192e-001
3.320960e+003;1.683034e-001
3.322888e+003;1.684550e-001
3.324817e+003;1.684816e-001
3.326745e+003;1.683491e-001
3.328674e+003;1.682882e-001
3.330602e+003;1.683274e-001
3.332531e+003;1.684004e-001
3.334459e+003;1.680773e-001
3.336388e+003;1.673235e-001
3.338317e+003;1.671049e-001
3.340245e+003;1.668964e-001
3.342174e+003;1.663841e-001
3.344102e+003;1.660770e-001
3.346031e+003;1.655054e-001
3.347959e+003;1.647150e-001
3.349888e+003;1.645568e-001
3.351816e+003;1.641766e-001
3.353745e+003;1.636718e-001
3.355674e+003;1.637341e-001
3.357602e+003;1.638041e-001
3.359531e+003;1.630648e-001
3.361459e+003;1.622398e-001
3.363388e+003;1.621441e-001
3.365316e+003;1.622669e-001
3.367245e+003;1.617178e-001
3.369173e+003;1.608342e-001
3.371102e+003;1.602820e-001
3.373031e+003;1.601626e-001
3.374959e+003;1.597909e-001
3.376887e+003;1.589312e-001
3.378816e+003;1.585197e-001
3.380745e+003;1.588430e-001
3.382673e+003;1.589162e-001
3.384602e+003;1.585296e-001
3.386530e+003;1.580748e-001
3.388459e+003;1.572460e-001
3.390387e+003;1.570899e-001
3.392316e+003;1.567362e-001
3.394244e+003;1.558043e-001
3.396173e+003;1.551861e-001
3.398102e+003;1.545705e-001
3.400030e+003;1.538361e-001
3.401959e+003;1.532015e-001
3.403887e+003;1.526748e-001
3.405816e+003;1.522591e-001
3.407744e+003;1.515803e-001
3.409673e+003;1.506604e-001
3.411601e+003;1.499557e-001
3.413530e+003;1.494540e-001
3.415458e+003;1.494799e-001
3.417387e+003;1.493446e-001
3.419316e+003;1.482687e-001
3.421244e+003;1.472281e-001
3.423173e+003;1.463290e-001
3.425101e+003;1.454659e-001
3.427030e+003;1.449120e-001
3.428958e+003;1.447501e-001
3.430887e+003;1.441745e-001
3.432815e+003;1.431773e-001
3.434744e+003;1.419625e-001
3.436673e+003;1.411443e-001
3.438601e+003;1.407977e-001
3.440530e+003;1.399821e-001
3.442458e+003;1.387382e-001
3.444387e+003;1.381029e-001
3.446315e+003;1.378888e-001
3.448244e+003;1.371514e-001
3.450172e+003;1.359917e-001
3.452101e+003;1.349616e-001
3.454030e+003;1.340643e-001
3.455958e+003;1.332807e-001
3.457886e+003;1.322844e-001
3.459815e+003;1.313962e-001
3.461744e+003;1.307792e-001
3.463672e+003;1.298468e-001
3.465601e+003;1.289936e-001
3.467529e+003;1.283554e-001
3.469458e+003;1.276941e-001
3.471386e+003;1.271553e-001
3.473315e+003;1.264280e-001
3.475243e+003;1.253927e-001
3.477172e+003;1.245814e-001
3.479101e+003;1.240145e-001
3.481029e+003;1.236598e-001
3.482958e+003;1.231968e-001
3.484886e+003;1.218812e-001
3.486815e+003;1.203814e-001
3.488743e+003;1.196762e-001
3.490672e+003;1.186759e-001
3.492600e+003;1.176219e-001
3.494529e+003;1.171850e-001
3.496458e+003;1.167441e-001
3.498386e+003;1.161066e-001
3.500315e+003;1.152300e-001
3.502243e+003;1.142042e-001
3.504172e+003;1.131826e-001
3.506100e+003;1.122944e-001
3.508029e+003;1.113700e-001
3.509957e+003;1.106361e-001
3.511886e+003;1.098790e-001
3.513814e+003;1.091295e-001
3.515743e+003;1.082306e-001
3.517672e+003;1.071975e-001
3.519600e+003;1.061761e-001
3.521529e+003;1.052636e-001
3.523457e+003;1.046598e-001
3.525386e+003;1.039304e-001
3.527314e+003;1.030551e-001
3.529243e+003;1.023040e-001
3.531171e+003;1.011394e-001
3.533100e+003;1.000908e-001
3.535029e+003;9.922928e-002
3.536957e+003;9.836226e-002
3.538885e+003;9.729467e-002
3.540814e+003;9.682722e-002
3.542743e+003;9.663206e-002
3.544671e+003;9.539393e-002
3.546600e+003;9.407304e-002
3.548528e+003;9.326360e-002
3.550457e+003;9.239732e-002
3.552385e+003;9.173131e-002
3.554314e+003;9.129889e-002
3.556242e+003;9.014030e-002
3.558171e+003;8.908887e-002
3.560100e+003;8.859016e-002
3.562028e+003;8.793084e-002
3.563957e+003;8.698829e-002
3.565885e+003;8.641459e-002
3.567814e+003;8.570924e-002
3.569742e+003;8.489189e-002
3.571671e+003;8.441411e-002
3.573599e+003;8.347445e-002
3.575528e+003;8.246506e-002
3.577457e+003;8.169129e-002
3.579385e+003;8.147592e-002
3.581314e+003;8.122797e-002
3.583242e+003;8.014344e-002
3.585171e+003;7.878210e-002
3.587099e+003;7.805052e-002
3.589028e+003;7.791986e-002
3.590956e+003;7.769731e-002
3.592885e+003;7.655910e-002
3.594813e+003;7.545915e-002
3.596742e+003;7.507583e-002
3.598671e+003;7.407200e-002
3.600599e+003;7.298149e-002
3.602528e+003;7.285506e-002
3.604456e+003;7.274488e-002
3.606385e+003;7.225522e-002
3.608313e+003;7.160042e-002
3.610242e+003;7.113402e-002
3.612170e+003;7.050631e-002
3.614099e+003;6.967407e-002
3.616028e+003;6.913471e-002
3.617956e+003;6.897863e-002
3.619885e+003;6.866020e-002
3.621813e+003;6.830718e-002
3.623742e+003;6.783799e-002
3.625670e+003;6.715453e-002
3.627599e+003;6.660284e-002
3.629527e+003;6.579631e-002
3.631456e+003;6.485261e-002
3.633385e+003;6.438605e-002
3.635313e+003;6.391633e-002
3.637241e+003;6.325050e-002
3.639170e+003;6.277177e-002
3.641099e+003;6.235484e-002
3.643027e+003;6.166994e-002
3.644956e+003;6.117193e-002
3.646884e+003;6.088383e-002
3.648813e+003;6.021184e-002
3.650741e+003;5.936864e-002
3.652670e+003;5.898320e-002
3.654598e+003;5.865900e-002
3.656527e+003;5.782313e-002
3.658456e+003;5.714636e-002
3.660384e+003;5.626922e-002
3.662313e+003;5.488102e-002
3.664241e+003;5.411175e-002
3.666170e+003;5.387646e-002
3.668098e+003;5.343755e-002
3.670027e+003;5.294124e-002
3.671955e+003;5.235631e-002
3.673884e+003;5.171808e-002
3.675813e+003;5.116704e-002
3.677741e+003;5.048541e-002
3.679669e+003;4.986415e-002
3.681598e+003;4.947606e-002
3.683527e+003;4.926639e-002
3.685455e+003;4.907948e-002
3.687384e+003;4.852388e-002
3.689312e+003;4.779392e-002
3.691241e+003;4.747465e-002
3.693169e+003;4.695052e-002
3.695098e+003;4.588404e-002
3.697026e+003;4.576920e-002
3.698955e+003;4.618543e-002
3.700884e+003;4.607816e-002
3.702812e+003;4.595881e-002
3.704741e+003;4.606236e-002
3.706669e+003;4.537882e-002
3.708598e+003;4.435601e-002
3.710526e+003;4.420466e-002
3.712455e+003;4.451733e-002
3.714383e+003;4.458991e-002
3.716312e+003;4.450488e-002
3.718240e+003;4.445569e-002
3.720169e+003;4.365431e-002
3.722098e+003;4.298388e-002
3.724026e+003;4.325620e-002
3.725955e+003;4.379934e-002
3.727883e+003;4.398682e-002
3.729812e+003;4.374562e-002
3.731740e+003;4.316983e-002
3.733669e+003;4.291500e-002
3.735597e+003;4.334593e-002
3.737526e+003;4.376101e-002
3.739455e+003;4.351599e-002
3.741383e+003;4.283111e-002
3.743312e+003;4.208959e-002
3.745240e+003;4.183937e-002
3.747169e+003;4.205830e-002
3.749097e+003;4.211741e-002
3.751026e+003;4.214406e-002
3.752954e+003;4.229257e-002
3.754883e+003;4.273169e-002
3.756812e+003;4.287609e-002
3.758740e+003;4.255097e-002
3.760668e+003;4.262305e-002
3.762597e+003;4.283868e-002
3.764526e+003;4.233753e-002
3.766454e+003;4.176531e-002
3.768383e+003;4.216436e-002
3.770311e+003;4.282112e-002
3.772240e+003;4.309038e-002
3.774168e+003;4.292217e-002
3.776097e+003;4.230378e-002
3.778025e+003;4.176904e-002
3.779954e+003;4.192768e-002
3.781883e+003;4.233881e-002
3.783811e+003;4.249455e-002
3.785740e+003;4.241757e-002
3.787668e+003;4.236924e-002
3.789597e+003;4.239386e-002
3.791525e+003;4.222826e-002
3.793454e+003;4.230860e-002
3.795382e+003;4.249444e-002
3.797311e+003;4.273710e-002
3.799240e+003;4.279048e-002
3.801168e+003;4.238111e-002
3.803097e+003;4.210649e-002
3.805025e+003;4.214519e-002
3.806954e+003;4.198034e-002
3.808882e+003;4.223604e-002
3.810811e+003;4.237720e-002
3.812739e+003;4.272697e-002
3.814668e+003;4.291427e-002
3.816596e+003;4.263544e-002
3.818525e+003;4.262608e-002
3.820454e+003;4.239181e-002
3.822382e+003;4.205596e-002
3.824311e+003;4.192571e-002
3.826239e+003;4.207641e-002
3.828168e+003;4.258727e-002
3.830096e+003;4.290381e-002
3.832025e+003;4.282957e-002
3.833953e+003;4.254593e-002
3.835882e+003;4.207173e-002
3.837811e+003;4.208407e-002
3.839739e+003;4.253683e-002
3.841667e+003;4.280299e-002
3.843596e+003;4.319204e-002
3.845525e+003;4.342216e-002
3.847453e+003;4.336226e-002
3.849382e+003;4.294211e-002
3.851310e+003;4.281747e-002
3.853239e+003;4.289690e-002
3.855167e+003;4.287850e-002
3.857096e+003;4.329592e-002
3.859024e+003;4.396427e-002
3.860953e+003;4.433124e-002
3.862882e+003;4.430229e-002
3.864810e+003;4.368816e-002
3.866739e+003;4.359306e-002
3.868667e+003;4.368908e-002
3.870596e+003;4.362804e-002
3.872524e+003;4.418023e-002
3.874453e+003;4.456703e-002
3.876381e+003;4.427275e-002
3.878310e+003;4.404185e-002
3.880239e+003;4.448572e-002
3.882167e+003;4.540365e-002
3.884096e+003;4.516994e-002
3.886024e+003;4.494316e-002
3.887953e+003;4.533987e-002
3.889881e+003;4.548797e-002
3.891810e+003;4.536242e-002
3.893738e+003;4.524389e-002
3.895667e+003;4.475645e-002
3.897595e+003;4.490204e-002
3.899524e+003;4.575701e-002
3.901453e+003;4.610631e-002
3.903381e+003;4.597792e-002
3.905310e+003;4.579412e-002
3.907238e+003;4.605543e-002
3.909167e+003;4.633312e-002
3.911095e+003;4.601822e-002
3.913024e+003;4.624189e-002
3.914952e+003;4.732431e-002
3.916881e+003;4.807410e-002
3.918810e+003;4.740003e-002
3.920738e+003;4.693601e-002
3.922667e+003;4.707517e-002
3.924595e+003;4.751660e-002
3.926524e+003;4.749601e-002
3.928452e+003;4.725338e-002
3.930381e+003;4.717603e-002
3.932309e+003;4.724278e-002
3.934238e+003;4.709367e-002
3.936167e+003;4.707934e-002
3.938095e+003;4.753682e-002
3.940023e+003;4.824239e-002
3.941952e+003;4.815223e-002
3.943881e+003;4.813817e-002
3.945809e+003;4.836485e-002
3.947738e+003;4.826742e-002
3.949666e+003;4.812962e-002
3.951595e+003;4.791934e-002
3.953523e+003;4.799926e-002
3.955452e+003;4.799534e-002
3.957380e+003;4.786495e-002
3.959309e+003;4.790017e-002
3.961238e+003;4.786987e-002
3.963166e+003;4.855215e-002
3.965095e+003;4.910122e-002
3.967023e+003;4.882057e-002
3.968952e+003;4.827356e-002
3.970880e+003;4.837004e-002
3.972809e+003;4.872426e-002
3.974737e+003;4.872452e-002
3.976666e+003;4.846090e-002
3.978594e+003;4.861655e-002
3.980523e+003;4.873538e-002
3.982452e+003;4.841648e-002
3.984380e+003;4.885569e-002
3.986309e+003;4.936872e-002
3.988237e+003;4.913766e-002
3.990166e+003;4.931167e-002
3.992094e+003;4.965355e-002
3.994023e+003;4.966896e-002
3.995951e+003;4.942233e-002
3.997880e+003;4.986720e-002
3.999809e+003;5.031513e-002
4.001737e+003;0.000000e+000
