3.992094e+002;0.000000e+000
4.011380e+002;0.000000e+000
4.030665e+002;0.000000e+000
4.049951e+002;0.000000e+000
4.069236e+002;0.000000e+000
4.088522e+002;0.000000e+000
4.107807e+002;0.000000e+000
4.127093e+002;0.000000e+000
4.146378e+002;0.000000e+000
4.165664e+002;0.000000e+000
4.184949e+002;0.000000e+000
4.204235e+002;0.000000e+000
4.223520e+002;0.000000e+000
4.242806e+002;0.000000e+000
4.262091e+002;0.000000e+000
4.281377e+002;0.000000e+000
4.300662e+002;0.000000e+000
4.319948e+002;0.000000e+000
4.339233e+002;0.000000e+000
4.358519e+002;0.000000e+000
4.377804e+002;0.000000e+000
4.397090e+002;0.000000e+000
4.416375e+002;0.000000e+000
4.435660e+002;0.000000e+000
4.454946e+002;0.000000e+000
4.474232e+002;0.000000e+000
4.493517e+002;0.000000e+000
4.512802e+002;0.000000e+000
4.532088e+002;0.000000e+000
4.551373e+002;0.000000e+000
4.570659e+002;0.000000e+000
4.589944e+002;0.000000e+000
4.609230e+002;0.000000e+000
4.628515e+002;0.000000e+000
4.647801e+002;0.000000e+000
4.667086e+002;0.000000e+000
4.686372e+002;0.000000e+000
4.705657e+002;0.000000e+000
4.724943e+002;0.000000e+000
4.744228e+002;0.000000e+000
4.763513e+002;0.000000e+000
4.782799e+002;0.000000e+000
4.802085e+002;0.000000e+000
4.821370e+002;0.000000e+000
4.840656e+002;0.000000e+000
4.859941e+002;0.000000e+000
4.879226e+002;0.000000e+000
4.898512e+002;0.000000e+000
4.917798e+002;0.000000e+000
4.937083e+002;0.000000e+000
4.956368e+002;0.000000e+000
4.975654e+002;0.000000e+000
4.994939e+002;0.000000e+000
5.014225e+002;0.000000e+000
5.033510e+002;0.000000e+000
5.052796e+002;0.000000e+000
5.072081e+002;0.000000e+000
5.091367e+002;0.000000e+000
5.110652e+002;0.000000e+000
5.129938e+002;0.000000e+000
5.149223e+002;0.000000e+000
5.168509e+002;0.000000e+000
5.187794e+002;0.000000e+000
5.207079e+002;0.000000e+000
5.226365e+002;0.000000e+000
5.245651e+002;0.000000e+000
5.264936e+002;0.000000e+000
5.284222e+002;0.000000e+000
5.303507e+002;0.000000e+000
5.322792e+002;0.000000e+000
5.342078e+002;0.000000e+000
5.361364e+002;0.000000e+000
5.380649e+002;0.000000e+000
5.399935e+002;0.000000e+000
5.419220e+002;0.000000e+000
5.438505e+002;0.000000e+000
5.457791e+002;0.000000e+000
5.477076e+002;0.000000e+000
5.496362e+002;0.000000e+000
5.515648e+002;0.000000e+000
5.534933e+002;0.000000e+000
5.554218e+002;0.000000e+000
5.573504e+002;0.000000e+000
5.592789e+002;0.000000e+000
5.612075e+002;0.000000e+000
5.631360e+002;0.000000e+000
5.650646e+002;0.000000e+000
5.669931e+002;0.000000e+000
5.689217e+002;0.000000e+000
5.708502e+002;0.000000e+000
5.727787e+002;0.000000e+000
5.747073e+002;0.000000e+000
5.766359e+002;0.000000e+000
5.785644e+002;0.000000e+000
5.804930e+002;0.000000e+000
5.824215e+002;0.000000e+000
5.843500e+002;0.000000e+000
5.862786e+002;0.000000e+000
5.882072e+002;0.000000e+000
5.901357e+002;0.000000e+000
5.920643e+002;0.000000e+000
5.939928e+002;0.000000e+000
5.959213e+002;0.000000e+000
5.978499e+002;0.000000e+000
5.997784e+002;2.831275e-001
6.017070e+002;2.816786e-001
6.036355e+002;2.759875e-001
6.055641e+002;2.737839e-001
6.074926e+002;2.762221e-001
6.094211e+002;2.825736e-001
6.113497e+002;2.855840e-001
6.132783e+002;2.763754e-001
6.152068e+002;2.672432e-001
6.171354e+002;2.657262e-001
6.190639e+002;2.639002e-001
6.209924e+002;2.583498e-001
6.229210e+002;2.526438e-001
6.248495e+002;2.505921e-001
6.267781e+002;2.518985e-001
6.287067e+002;2.505330e-001
6.306352e+002;2.468617e-001
6.325637e+002;2.464052e-001
6.344923e+002;2.459524e-001
6.364208e+002;2.443302e-001
6.383494e+002;2.437916e-001
6.402780e+002;2.423187e-001
6.422065e+002;2.446300e-001
6.441350e+002;2.419763e-001
6.460636e+002;2.348045e-001
6.479921e+002;2.347859e-001
6.499207e+002;2.394932e-001
6.518492e+002;2.430229e-001
6.537778e+002;2.404173e-001
6.557063e+002;2.406461e-001
6.576349e+002;2.450297e-001
6.595634e+002;2.483772e-001
6.614919e+002;2.492464e-001
6.634205e+002;2.509740e-001
6.653491e+002;2.529853e-001
6.672776e+002;2.479444e-001
6.692062e+002;2.438935e-001
6.711347e+002;2.444617e-001
6.730632e+002;2.418011e-001
6.749918e+002;2.354574e-001
6.769203e+002;2.300285e-001
6.788489e+002;2.267422e-001
6.807775e+002;2.243353e-001
6.827060e+002;2.235861e-001
6.846345e+002;2.227116e-001
6.865631e+002;2.204807e-001
6.884916e+002;2.171427e-001
6.904202e+002;2.142615e-001
6.923488e+002;2.134836e-001
6.942773e+002;2.128454e-001
6.962058e+002;2.123632e-001
6.981344e+002;2.129676e-001
7.000629e+002;2.129748e-001
7.019915e+002;2.122812e-001
7.039200e+002;2.103545e-001
7.058486e+002;2.087767e-001
7.077771e+002;2.076266e-001
7.097057e+002;2.054595e-001
7.116342e+002;2.036117e-001
7.135627e+002;2.028908e-001
7.154913e+002;2.009936e-001
7.174199e+002;1.980827e-001
7.193484e+002;1.957109e-001
7.212770e+002;1.934138e-001
7.232055e+002;1.917795e-001
7.251340e+002;1.889822e-001
7.270626e+002;1.864016e-001
7.289911e+002;1.850062e-001
7.309197e+002;1.810903e-001
7.328483e+002;1.779580e-001
7.347768e+002;1.767797e-001
7.367053e+002;1.748304e-001
7.386339e+002;1.740524e-001
7.405624e+002;1.735688e-001
7.424910e+002;1.714451e-001
7.444196e+002;1.686729e-001
7.463481e+002;1.673711e-001
7.482766e+002;1.673985e-001
7.502052e+002;1.661126e-001
7.521337e+002;1.649341e-001
7.540623e+002;1.646776e-001
7.559908e+002;1.645783e-001
7.579194e+002;1.635037e-001
7.598479e+002;1.631104e-001
7.617765e+002;1.626801e-001
7.637050e+002;1.618799e-001
7.656335e+002;1.616606e-001
7.675621e+002;1.600865e-001
7.694907e+002;1.583077e-001
7.714192e+002;1.574939e-001
7.733478e+002;1.564932e-001
7.752763e+002;1.552686e-001
7.772048e+002;1.552162e-001
7.791334e+002;1.554007e-001
7.810620e+002;1.546567e-001
7.829905e+002;1.537762e-001
7.849191e+002;1.533486e-001
7.868476e+002;1.520619e-001
7.887761e+002;1.506576e-001
7.907047e+002;1.499610e-001
7.926332e+002;1.500306e-001
7.945618e+002;1.503463e-001
7.964903e+002;1.497308e-001
7.984189e+002;1.490219e-001
8.003474e+002;1.496299e-001
8.022759e+002;1.505246e-001
8.042045e+002;1.504412e-001
8.061331e+002;1.496000e-001
8.080616e+002;1.497056e-001
8.099902e+002;1.508892e-001
8.119187e+002;1.515710e-001
8.138472e+002;1.523244e-001
8.157758e+002;1.536175e-001
8.177043e+002;1.548765e-001
8.196329e+002;1.556950e-001
8.215615e+002;1.561323e-001
8.234900e+002;1.562169e-001
8.254185e+002;1.564466e-001
8.273471e+002;1.563774e-001
8.292756e+002;1.573728e-001
8.312042e+002;1.576281e-001
8.331328e+002;1.567548e-001
8.350613e+002;1.564834e-001
8.369898e+002;1.571715e-001
8.389184e+002;1.573583e-001
8.408469e+002;1.560234e-001
8.427755e+002;1.547128e-001
8.447040e+002;1.549990e-001
8.466326e+002;1.549828e-001
8.485611e+002;1.543645e-001
8.504897e+002;1.543686e-001
8.524182e+002;1.549518e-001
8.543467e+002;1.549457e-001
8.562753e+002;1.549369e-001
8.582039e+002;1.553666e-001
8.601324e+002;1.568035e-001
8.620610e+002;1.581589e-001
8.639895e+002;1.592275e-001
8.659180e+002;1.613828e-001
8.678466e+002;1.633314e-001
8.697751e+002;1.651932e-001
8.717037e+002;1.682136e-001
8.736323e+002;1.704733e-001
8.755608e+002;1.723728e-001
8.774893e+002;1.756363e-001
8.794179e+002;1.791903e-001
8.813464e+002;1.819290e-001
8.832750e+002;1.843380e-001
8.852036e+002;1.874660e-001
8.871321e+002;1.918445e-001
8.890606e+002;1.959112e-001
8.909892e+002;1.989918e-001
8.929177e+002;2.016512e-001
8.948463e+002;2.037478e-001
8.967748e+002;2.053196e-001
8.987034e+002;2.054524e-001
9.006319e+002;2.036355e-001
9.025605e+002;2.013886e-001
9.044890e+002;1.991917e-001
9.064175e+002;1.975431e-001
9.083461e+002;1.962167e-001
9.102747e+002;1.951419e-001
9.122032e+002;1.940412e-001
9.141318e+002;1.934290e-001
9.160603e+002;1.935934e-001
9.179888e+002;1.939681e-001
9.199174e+002;1.947840e-001
9.218459e+002;1.957386e-001
9.237745e+002;1.964174e-001
9.257031e+002;1.973045e-001
9.276316e+002;1.978180e-001
9.295601e+002;1.984448e-001
9.314887e+002;1.993073e-001
9.334172e+002;2.011080e-001
9.353458e+002;2.035082e-001
9.372744e+002;2.055962e-001
9.392029e+002;2.077984e-001
9.411314e+002;2.103588e-001
9.430600e+002;2.140122e-001
9.449885e+002;2.188843e-001
9.469171e+002;2.239918e-001
9.488456e+002;2.288511e-001
9.507742e+002;2.344471e-001
9.527027e+002;2.407966e-001
9.546313e+002;2.469599e-001
9.565598e+002;2.528676e-001
9.584883e+002;2.588153e-001
9.604169e+002;2.653255e-001
9.623455e+002;2.720811e-001
9.642740e+002;2.785844e-001
9.662026e+002;2.848771e-001
9.681311e+002;2.921964e-001
9.700596e+002;3.001194e-001
9.719882e+002;3.089128e-001
9.739167e+002;3.185036e-001
9.758453e+002;3.282904e-001
9.777739e+002;3.392471e-001
9.797024e+002;3.508838e-001
9.816309e+002;3.619199e-001
9.835595e+002;3.713164e-001
9.854880e+002;3.781953e-001
9.874166e+002;3.825609e-001
9.893452e+002;3.858895e-001
9.912737e+002;3.900636e-001
9.932022e+002;3.942903e-001
9.951307e+002;3.988802e-001
9.970593e+002;4.035999e-001
9.989879e+002;4.085367e-001
1.000916e+003;4.133182e-001
1.002845e+003;4.176222e-001
1.004773e+003;4.217272e-001
1.006702e+003;4.270794e-001
1.008631e+003;4.334029e-001
1.010559e+003;4.398300e-001
1.012488e+003;4.460915e-001
1.014416e+003;4.521833e-001
1.016345e+003;4.576438e-001
1.018273e+003;4.628966e-001
1.020202e+003;4.672854e-001
1.022130e+003;4.720531e-001
1.024059e+003;4.779961e-001
1.025988e+003;4.832721e-001
1.027916e+003;4.860519e-001
1.029845e+003;4.871309e-001
1.031773e+003;4.869055e-001
1.033702e+003;4.853839e-001
1.035630e+003;4.823394e-001
1.037559e+003;4.773672e-001
1.039487e+003;4.712264e-001
1.041416e+003;4.652914e-001
1.043344e+003;4.609450e-001
1.045273e+003;4.582681e-001
1.047202e+003;4.562251e-001
1.049130e+003;4.534572e-001
1.051059e+003;4.507942e-001
1.052987e+003;4.482559e-001
1.054916e+003;4.440838e-001
1.056844e+003;4.375010e-001
1.058773e+003;4.281193e-001
1.060701e+003;4.169444e-001
1.062630e+003;4.051073e-001
1.064558e+003;3.919928e-001
1.066487e+003;3.784674e-001
1.068416e+003;3.673018e-001
1.070344e+003;3.584721e-001
1.072273e+003;3.509459e-001
1.074201e+003;3.437559e-001
1.076130e+003;3.375586e-001
1.078058e+003;3.321787e-001
1.079987e+003;3.266150e-001
1.081915e+003;3.219554e-001
1.083844e+003;3.188877e-001
1.085773e+003;3.166202e-001
1.087701e+003;3.142674e-001
1.089630e+003;3.126863e-001
1.091558e+003;3.118351e-001
1.093487e+003;3.105644e-001
1.095415e+003;3.091977e-001
1.097344e+003;3.083476e-001
1.099272e+003;3.079391e-001
1.101201e+003;3.071565e-001
1.103129e+003;3.053252e-001
1.105058e+003;3.011468e-001
1.106987e+003;2.955667e-001
1.108915e+003;2.901167e-001
1.110844e+003;2.847985e-001
1.112772e+003;2.790252e-001
1.114701e+003;2.724193e-001
1.116629e+003;2.640492e-001
1.118558e+003;2.558305e-001
1.120486e+003;2.483557e-001
1.122415e+003;2.408520e-001
1.124344e+003;2.332793e-001
1.126272e+003;2.266271e-001
1.128201e+003;2.198853e-001
1.130129e+003;2.130847e-001
1.132058e+003;2.073404e-001
1.133986e+003;2.023784e-001
1.135915e+003;1.979488e-001
1.137843e+003;1.945280e-001
1.139772e+003;1.925628e-001
1.141700e+003;1.912518e-001
1.143629e+003;1.906122e-001
1.145557e+003;1.915416e-001
1.147486e+003;1.924271e-001
1.149415e+003;1.930693e-001
1.151343e+003;1.935290e-001
1.153272e+003;1.934500e-001
1.155200e+003;1.930747e-001
1.157129e+003;1.925036e-001
1.159057e+003;1.906381e-001
1.160986e+003;1.876842e-001
1.162914e+003;1.838767e-001
1.164843e+003;1.792103e-001
1.166771e+003;1.730459e-001
1.168700e+003;1.659464e-001
1.170629e+003;1.594525e-001
1.172557e+003;1.538591e-001
1.174486e+003;1.490531e-001
1.176414e+003;1.449053e-001
1.178343e+003;1.416642e-001
1.180271e+003;1.395649e-001
1.182200e+003;1.378893e-001
1.184128e+003;1.362331e-001
1.186057e+003;1.352485e-001
1.187986e+003;1.354516e-001
1.189914e+003;1.363033e-001
1.191843e+003;1.377219e-001
1.193771e+003;1.401345e-001
1.195700e+003;1.427544e-001
1.197628e+003;1.456060e-001
1.199557e+003;1.490909e-001
1.201485e+003;1.524068e-001
1.203414e+003;1.554634e-001
1.205343e+003;1.584814e-001
1.207271e+003;1.608550e-001
1.209200e+003;1.625142e-001
1.211128e+003;1.642337e-001
1.213057e+003;1.667791e-001
1.214985e+003;1.705207e-001
1.216914e+003;1.750522e-001
1.218842e+003;1.799470e-001
1.220771e+003;1.849109e-001
1.222699e+003;1.894179e-001
1.224628e+003;1.936601e-001
1.226557e+003;1.973238e-001
1.228485e+003;2.005372e-001
1.230414e+003;2.037020e-001
1.232342e+003;2.056536e-001
1.234271e+003;2.069310e-001
1.236199e+003;2.074125e-001
1.238128e+003;2.068656e-001
1.240056e+003;2.060864e-001
1.241985e+003;2.057971e-001
1.243913e+003;2.048993e-001
1.245842e+003;2.029613e-001
1.247771e+003;2.006665e-001
1.249699e+003;1.983725e-001
1.251628e+003;1.959409e-001
1.253556e+003;1.928113e-001
1.255485e+003;1.893670e-001
1.257413e+003;1.857905e-001
1.259342e+003;1.821953e-001
1.261270e+003;1.788713e-001
1.263199e+003;1.759654e-001
1.265127e+003;1.733119e-001
1.267056e+003;1.705757e-001
1.268985e+003;1.678134e-001
1.270913e+003;1.653200e-001
1.272842e+003;1.630092e-001
1.274770e+003;1.606531e-001
1.276699e+003;1.583742e-001
1.278627e+003;1.560970e-001
1.280556e+003;1.535892e-001
1.282484e+003;1.511156e-001
1.284413e+003;1.489169e-001
1.286342e+003;1.471757e-001
1.288270e+003;1.460323e-001
1.290199e+003;1.450676e-001
1.292127e+003;1.445218e-001
1.294056e+003;1.444686e-001
1.295984e+003;1.450237e-001
1.297913e+003;1.460176e-001
1.299841e+003;1.477168e-001
1.301770e+003;1.501382e-001
1.303698e+003;1.524980e-001
1.305627e+003;1.550163e-001
1.307556e+003;1.584063e-001
1.309484e+003;1.619535e-001
1.311413e+003;1.646244e-001
1.313341e+003;1.669001e-001
1.315270e+003;1.690276e-001
1.317198e+003;1.701199e-001
1.319127e+003;1.699993e-001
1.321055e+003;1.690838e-001
1.322984e+003;1.677247e-001
1.324912e+003;1.665207e-001
1.326841e+003;1.657626e-001
1.328770e+003;1.656854e-001
1.330698e+003;1.660022e-001
1.332627e+003;1.668591e-001
1.334555e+003;1.674404e-001
1.336484e+003;1.669490e-001
1.338412e+003;1.658339e-001
1.340341e+003;1.643787e-001
1.342269e+003;1.626283e-001
1.344198e+003;1.611185e-001
1.346126e+003;1.597558e-001
1.348055e+003;1.582931e-001
1.349984e+003;1.572375e-001
1.351912e+003;1.573040e-001
1.353841e+003;1.584978e-001
1.355769e+003;1.604274e-001
1.357698e+003;1.628563e-001
1.359626e+003;1.647703e-001
1.361555e+003;1.662799e-001
1.363483e+003;1.677993e-001
1.365412e+003;1.688013e-001
1.367341e+003;1.686070e-001
1.369269e+003;1.681892e-001
1.371198e+003;1.676041e-001
1.373126e+003;1.658126e-001
1.375055e+003;1.632247e-001
1.376983e+003;1.601380e-001
1.378912e+003;1.565203e-001
1.380840e+003;1.529389e-001
1.382769e+003;1.495671e-001
1.384698e+003;1.463504e-001
1.386626e+003;1.433512e-001
1.388555e+003;1.410906e-001
1.390483e+003;1.396638e-001
1.392412e+003;1.387159e-001
1.394340e+003;1.380960e-001
1.396269e+003;1.377537e-001
1.398197e+003;1.378213e-001
1.400126e+003;1.380910e-001
1.402054e+003;1.388294e-001
1.403983e+003;1.399732e-001
1.405911e+003;1.412296e-001
1.407840e+003;1.429064e-001
1.409769e+003;1.452570e-001
1.411697e+003;1.473665e-001
1.413626e+003;1.488908e-001
1.415554e+003;1.506542e-001
1.417483e+003;1.526350e-001
1.419411e+003;1.540384e-001
1.421340e+003;1.549653e-001
1.423268e+003;1.553806e-001
1.425197e+003;1.551650e-001
1.427125e+003;1.544863e-001
1.429054e+003;1.529274e-001
1.430983e+003;1.512459e-001
1.432911e+003;1.494093e-001
1.434840e+003;1.471033e-001
1.436768e+003;1.447784e-001
1.438697e+003;1.428294e-001
1.440625e+003;1.411581e-001
1.442554e+003;1.398648e-001
1.444482e+003;1.387915e-001
1.446411e+003;1.379041e-001
1.448340e+003;1.375678e-001
1.450268e+003;1.369271e-001
1.452197e+003;1.361055e-001
1.454125e+003;1.353002e-001
1.456054e+003;1.341498e-001
1.457982e+003;1.331798e-001
1.459911e+003;1.320410e-001
1.461839e+003;1.303331e-001
1.463768e+003;1.281397e-001
1.465697e+003;1.254166e-001
1.467625e+003;1.221298e-001
1.469554e+003;1.187164e-001
1.471482e+003;1.152190e-001
1.473411e+003;1.116759e-001
1.475339e+003;1.082585e-001
1.477268e+003;1.053082e-001
1.479196e+003;1.032000e-001
1.481125e+003;1.012899e-001
1.483053e+003;9.912869e-002
1.484982e+003;9.730636e-002
1.486911e+003;9.618077e-002
1.488839e+003;9.516986e-002
1.490768e+003;9.469359e-002
1.492696e+003;9.477559e-002
1.494625e+003;9.505273e-002
1.496553e+003;9.538253e-002
1.498482e+003;9.594866e-002
1.500410e+003;9.633055e-002
1.502339e+003;9.659382e-002
1.504267e+003;9.670988e-002
1.506196e+003;9.626310e-002
1.508125e+003;9.564205e-002
1.510053e+003;9.463730e-002
1.511982e+003;9.306642e-002
1.513910e+003;9.139927e-002
1.515839e+003;8.986526e-002
1.517767e+003;8.838692e-002
1.519696e+003;8.667705e-002
1.521624e+003;8.527958e-002
1.523553e+003;8.458360e-002
1.525481e+003;8.418161e-002
1.527410e+003;8.397524e-002
1.529339e+003;8.399478e-002
1.531267e+003;8.370440e-002
1.533196e+003;8.335428e-002
1.535124e+003;8.348581e-002
1.537053e+003;8.380357e-002
1.538981e+003;8.383448e-002
1.540910e+003;8.368134e-002
1.542838e+003;8.357906e-002
1.544767e+003;8.381747e-002
1.546695e+003;8.452849e-002
1.548624e+003;8.529612e-002
1.550553e+003;8.616719e-002
1.552481e+003;8.694942e-002
1.554410e+003;8.749513e-002
1.556338e+003;8.813231e-002
1.558267e+003;8.888020e-002
1.560195e+003;8.995052e-002
1.562124e+003;9.149473e-002
1.564052e+003;9.299298e-002
1.565981e+003;9.437604e-002
1.567910e+003;9.602330e-002
1.569838e+003;9.791800e-002
1.571767e+003;1.000727e-001
1.573695e+003;1.027548e-001
1.575624e+003;1.058323e-001
1.577552e+003;1.094166e-001
1.579481e+003;1.137258e-001
1.581409e+003;1.182960e-001
1.583338e+003;1.230827e-001
1.585266e+003;1.280713e-001
1.587195e+003;1.330041e-001
1.589124e+003;1.374213e-001
1.591052e+003;1.410496e-001
1.592981e+003;1.436203e-001
1.594909e+003;1.448509e-001
1.596838e+003;1.447872e-001
1.598766e+003;1.439149e-001
1.600695e+003;1.430569e-001
1.602623e+003;1.424849e-001
1.604552e+003;1.419354e-001
1.606480e+003;1.411561e-001
1.608409e+003;1.401140e-001
1.610338e+003;1.393981e-001
1.612266e+003;1.388916e-001
1.614195e+003;1.382380e-001
1.616123e+003;1.373856e-001
1.618052e+003;1.366060e-001
1.619980e+003;1.360855e-001
1.621909e+003;1.351641e-001
1.623837e+003;1.340059e-001
1.625766e+003;1.331482e-001
1.627694e+003;1.325346e-001
1.629623e+003;1.317998e-001
1.631552e+003;1.309897e-001
1.633480e+003;1.300223e-001
1.635409e+003;1.288799e-001
1.637337e+003;1.281885e-001
1.639266e+003;1.276200e-001
1.641194e+003;1.265971e-001
1.643123e+003;1.254231e-001
1.645051e+003;1.242601e-001
1.646980e+003;1.230945e-001
1.648909e+003;1.222260e-001
1.650837e+003;1.211256e-001
1.652766e+003;1.192463e-001
1.654694e+003;1.174892e-001
1.656623e+003;1.161014e-001
1.658551e+003;1.146033e-001
1.660480e+003;1.130428e-001
1.662408e+003;1.113492e-001
1.664337e+003;1.097045e-001
1.666266e+003;1.079918e-001
1.668194e+003;1.061569e-001
1.670123e+003;1.046390e-001
1.672051e+003;1.036098e-001
1.673980e+003;1.023956e-001
1.675908e+003;1.009542e-001
1.677837e+003;9.972119e-002
1.679765e+003;9.855060e-002
1.681694e+003;9.728637e-002
1.683622e+003;9.611408e-002
1.685551e+003;9.533210e-002
1.687479e+003;9.483198e-002
1.689408e+003;9.476191e-002
1.691337e+003;9.493373e-002
1.693265e+003;9.556875e-002
1.695194e+003;9.643278e-002
1.697122e+003;9.749431e-002
1.699051e+003;9.870128e-002
1.700979e+003;1.000588e-001
1.702908e+003;1.022217e-001
1.704836e+003;1.047523e-001
1.706765e+003;1.073262e-001
1.708693e+003;1.102453e-001
1.710622e+003;1.133066e-001
1.712551e+003;1.164330e-001
1.714479e+003;1.193228e-001
1.716408e+003;1.220068e-001
1.718336e+003;1.246322e-001
1.720265e+003;1.269575e-001
1.722193e+003;1.292297e-001
1.724122e+003;1.315684e-001
1.726050e+003;1.337514e-001
1.727979e+003;1.355084e-001
1.729908e+003;1.364791e-001
1.731836e+003;1.367120e-001
1.733765e+003;1.365684e-001
1.735693e+003;1.362856e-001
1.737622e+003;1.352834e-001
1.739550e+003;1.332469e-001
1.741479e+003;1.306478e-001
1.743407e+003;1.277644e-001
1.745336e+003;1.244928e-001
1.747265e+003;1.207544e-001
1.749193e+003;1.166274e-001
1.751122e+003;1.123356e-001
1.753050e+003;1.080578e-001
1.754979e+003;1.036796e-001
1.756907e+003;9.910958e-002
1.758836e+003;9.517770e-002
1.760764e+003;9.140696e-002
1.762693e+003;8.736655e-002
1.764621e+003;8.373529e-002
1.766550e+003;8.058639e-002
1.768479e+003;7.742216e-002
1.770407e+003;7.440642e-002
1.772336e+003;7.182875e-002
1.774264e+003;6.961218e-002
1.776193e+003;6.745584e-002
1.778121e+003;6.535005e-002
1.780050e+003;6.379154e-002
1.781978e+003;6.243085e-002
1.783907e+003;6.098151e-002
1.785835e+003;5.965931e-002
1.787764e+003;5.864789e-002
1.789693e+003;5.772900e-002
1.791621e+003;5.679196e-002
1.793550e+003;5.636115e-002
1.795478e+003;5.607811e-002
1.797407e+003;5.556910e-002
1.799335e+003;5.510666e-002
1.801264e+003;5.454788e-002
1.803192e+003;5.402450e-002
1.805121e+003;5.367057e-002
1.807049e+003;5.330405e-002
1.808978e+003;5.281834e-002
1.810907e+003;5.256845e-002
1.812835e+003;5.230197e-002
1.814764e+003;5.195176e-002
1.816692e+003;5.182085e-002
1.818621e+003;5.169248e-002
1.820549e+003;5.138550e-002
1.822478e+003;5.117606e-002
1.824406e+003;5.079890e-002
1.826335e+003;5.041808e-002
1.828264e+003;5.035791e-002
1.830192e+003;5.026357e-002
1.832121e+003;4.986757e-002
1.834049e+003;4.964783e-002
1.835978e+003;4.964333e-002
1.837906e+003;4.919264e-002
1.839835e+003;4.879588e-002
1.841763e+003;4.885265e-002
1.843692e+003;4.879351e-002
1.845620e+003;4.869524e-002
1.847549e+003;4.839789e-002
1.849478e+003;4.817745e-002
1.851406e+003;4.832189e-002
1.853335e+003;4.815368e-002
1.855263e+003;4.780528e-002
1.857192e+003;4.761464e-002
1.859120e+003;4.774096e-002
1.861049e+003;4.776962e-002
1.862977e+003;4.758011e-002
1.864906e+003;4.733688e-002
1.866834e+003;4.719298e-002
1.868763e+003;4.711716e-002
1.870692e+003;4.699090e-002
1.872620e+003;4.709075e-002
1.874549e+003;4.706401e-002
1.876477e+003;4.701295e-002
1.878406e+003;4.702218e-002
1.880334e+003;4.725390e-002
1.882263e+003;4.731681e-002
1.884191e+003;4.718526e-002
1.886120e+003;4.701878e-002
1.888048e+003;4.678162e-002
1.889977e+003;4.675369e-002
1.891906e+003;4.697474e-002
1.893834e+003;4.705349e-002
1.895763e+003;4.709932e-002
1.897691e+003;4.702210e-002
1.899620e+003;4.684034e-002
1.901548e+003;4.678907e-002
1.903477e+003;4.693213e-002
1.905405e+003;4.712609e-002
1.907334e+003;4.736618e-002
1.909262e+003;4.765143e-002
1.911191e+003;4.752887e-002
1.913120e+003;4.742856e-002
1.915048e+003;4.768497e-002
1.916977e+003;4.777950e-002
1.918905e+003;4.784457e-002
1.920834e+003;4.815457e-002
1.922762e+003;4.837370e-002
1.924691e+003;4.835307e-002
1.926619e+003;4.826394e-002
1.928548e+003;4.843541e-002
1.930477e+003;4.856668e-002
1.932405e+003;4.857375e-002
1.934334e+003;4.872367e-002
1.936262e+003;4.888691e-002
1.938191e+003;4.895893e-002
1.940119e+003;4.894765e-002
1.942048e+003;4.894165e-002
1.943976e+003;4.909911e-002
1.945905e+003;4.942771e-002
1.947833e+003;4.940633e-002
1.949762e+003;4.932080e-002
1.951691e+003;4.945496e-002
1.953619e+003;4.975144e-002
1.955548e+003;4.990024e-002
1.957476e+003;4.976333e-002
1.959405e+003;4.983839e-002
1.961333e+003;5.023634e-002
1.963262e+003;5.035780e-002
1.965190e+003;5.008873e-002
1.967119e+003;5.001176e-002
1.969047e+003;5.001856e-002
1.970976e+003;4.990741e-002
1.972905e+003;5.005303e-002
1.974833e+003;5.029511e-002
1.976762e+003;5.014625e-002
1.978690e+003;4.998462e-002
1.980619e+003;5.021815e-002
1.982547e+003;5.060117e-002
1.984476e+003;5.075979e-002
1.986404e+003;5.067712e-002
1.988333e+003;5.074679e-002
1.990261e+003;5.084173e-002
1.992190e+003;5.082925e-002
1.994119e+003;5.114680e-002
1.996047e+003;5.156743e-002
1.997976e+003;5.160105e-002
1.999904e+003;5.151240e-002
2.001833e+003;5.180267e-002
2.003761e+003;5.216565e-002
2.005690e+003;5.225114e-002
2.007618e+003;5.226583e-002
2.009547e+003;5.246517e-002
2.011476e+003;5.240053e-002
2.013404e+003;5.250631e-002
2.015333e+003;5.300720e-002
2.017261e+003;5.315850e-002
2.019190e+003;5.327270e-002
2.021118e+003;5.374410e-002
2.023047e+003;5.418145e-002
2.024975e+003;5.424418e-002
2.026904e+003;5.421760e-002
2.028833e+003;5.432895e-002
2.030761e+003;5.457798e-002
2.032690e+003;5.464685e-002
2.034618e+003;5.457655e-002
2.036547e+003;5.465106e-002
2.038475e+003;5.478140e-002
2.040404e+003;5.496355e-002
2.042332e+003;5.518412e-002
2.044261e+003;5.534751e-002
2.046189e+003;5.544790e-002
2.048118e+003;5.555762e-002
2.050047e+003;5.560108e-002
2.051975e+003;5.566371e-002
2.053904e+003;5.580772e-002
2.055832e+003;5.581323e-002
2.057761e+003;5.573400e-002
2.059689e+003;5.580554e-002
2.061618e+003;5.605187e-002
2.063546e+003;5.624606e-002
2.065475e+003;5.628891e-002
2.067404e+003;5.606823e-002
2.069332e+003;5.597576e-002
2.071260e+003;5.577612e-002
2.073189e+003;5.580433e-002
2.075118e+003;5.594531e-002
2.077046e+003;5.595104e-002
2.078975e+003;5.612271e-002
2.080903e+003;5.635202e-002
2.082832e+003;5.649841e-002
2.084760e+003;5.640744e-002
2.086689e+003;5.626409e-002
2.088617e+003;5.632006e-002
2.090546e+003;5.622166e-002
2.092475e+003;5.621872e-002
2.094403e+003;5.649498e-002
2.096332e+003;5.670692e-002
2.098260e+003;5.675854e-002
2.100189e+003;5.684049e-002
2.102117e+003;5.704429e-002
2.104046e+003;5.723076e-002
2.105974e+003;5.706223e-002
2.107903e+003;5.699955e-002
2.109832e+003;5.732263e-002
2.111760e+003;5.739549e-002
2.113688e+003;5.724044e-002
2.115617e+003;5.751379e-002
2.117546e+003;5.785178e-002
2.119474e+003;5.782733e-002
2.121403e+003;5.759554e-002
2.123331e+003;5.732138e-002
2.125260e+003;5.725370e-002
2.127188e+003;5.745592e-002
2.129117e+003;5.767443e-002
2.131045e+003;5.783921e-002
2.132974e+003;5.784675e-002
2.134903e+003;5.796090e-002
2.136831e+003;5.801520e-002
2.138760e+003;5.789006e-002
2.140688e+003;5.766910e-002
2.142617e+003;5.739042e-002
2.144545e+003;5.743493e-002
2.146474e+003;5.754031e-002
2.148402e+003;5.735132e-002
2.150331e+003;5.730206e-002
2.152260e+003;5.735658e-002
2.154188e+003;5.723182e-002
2.156117e+003;5.686621e-002
2.158045e+003;5.658548e-002
2.159974e+003;5.669552e-002
2.161902e+003;5.671247e-002
2.163831e+003;5.670670e-002
2.165759e+003;5.661198e-002
2.167688e+003;5.639944e-002
2.169616e+003;5.615155e-002
2.171545e+003;5.588105e-002
2.173474e+003;5.594640e-002
2.175402e+003;5.587171e-002
2.177331e+003;5.545637e-002
2.179259e+003;5.543002e-002
2.181188e+003;5.536652e-002
2.183116e+003;5.499529e-002
2.185045e+003;5.483060e-002
2.186973e+003;5.484260e-002
2.188902e+003;5.482185e-002
2.190831e+003;5.485000e-002
2.192759e+003;5.488079e-002
2.194688e+003;5.454709e-002
2.196616e+003;5.441029e-002
2.198545e+003;5.450998e-002
2.200473e+003;5.444481e-002
2.202402e+003;5.456122e-002
2.204330e+003;5.461435e-002
2.206259e+003;5.446911e-002
2.208188e+003;5.453068e-002
2.210116e+003;5.448695e-002
2.212044e+003;5.419466e-002
2.213973e+003;5.433102e-002
2.215902e+003;5.443651e-002
2.217830e+003;5.440635e-002
2.219759e+003;5.463347e-002
2.221687e+003;5.466226e-002
2.223616e+003;5.450686e-002
2.225544e+003;5.441491e-002
2.227473e+003;5.415604e-002
2.229401e+003;5.402116e-002
2.231330e+003;5.416958e-002
2.233259e+003;5.447741e-002
2.235187e+003;5.473821e-002
2.237116e+003;5.469762e-002
2.239044e+003;5.443963e-002
2.240973e+003;5.422631e-002
2.242901e+003;5.438727e-002
2.244830e+003;5.468740e-002
2.246758e+003;5.475494e-002
2.248687e+003;5.460371e-002
2.250615e+003;5.437819e-002
2.252544e+003;5.411749e-002
2.254473e+003;5.416598e-002
2.256401e+003;5.429516e-002
2.258330e+003;5.422578e-002
2.260258e+003;5.430714e-002
2.262187e+003;5.429944e-002
2.264115e+003;5.405238e-002
2.266044e+003;5.382593e-002
2.267972e+003;5.407178e-002
2.269901e+003;5.419894e-002
2.271830e+003;5.400806e-002
2.273758e+003;5.372074e-002
2.275687e+003;5.352734e-002
2.277615e+003;5.356137e-002
2.279544e+003;5.364073e-002
2.281472e+003;5.343942e-002
2.283401e+003;5.313783e-002
2.285329e+003;5.303086e-002
2.287258e+003;5.335684e-002
2.289187e+003;5.362551e-002
2.291115e+003;5.336437e-002
2.293043e+003;5.343515e-002
2.294972e+003;5.365108e-002
2.296901e+003;5.368051e-002
2.298829e+003;5.383850e-002
2.300758e+003;5.383107e-002
2.302686e+003;5.359181e-002
2.304615e+003;5.326974e-002
2.306543e+003;5.319479e-002
2.308472e+003;5.327165e-002
2.310400e+003;5.332941e-002
2.312329e+003;5.317341e-002
2.314258e+003;5.307908e-002
2.316186e+003;5.341521e-002
2.318115e+003;5.329757e-002
2.320043e+003;5.290108e-002
2.321972e+003;5.293421e-002
2.323900e+003;5.316659e-002
2.325829e+003;5.330866e-002
2.327757e+003;5.310181e-002
2.329686e+003;5.273644e-002
2.331615e+003;5.297014e-002
2.333543e+003;5.327109e-002
2.335472e+003;5.317307e-002
2.337400e+003;5.332499e-002
2.339329e+003;5.350818e-002
2.341257e+003;5.341285e-002
2.343186e+003;5.371373e-002
2.345114e+003;5.397020e-002
2.347043e+003;5.436962e-002
2.348971e+003;5.493185e-002
2.350900e+003;5.514281e-002
2.352829e+003;5.504821e-002
2.354757e+003;5.459522e-002
2.356686e+003;5.431855e-002
2.358614e+003;5.425397e-002
2.360543e+003;5.445424e-002
2.362471e+003;5.469386e-002
2.364400e+003;5.487448e-002
2.366328e+003;5.508872e-002
2.368257e+003;5.553122e-002
2.370186e+003;5.600426e-002
2.372114e+003;5.619168e-002
2.374042e+003;5.620325e-002
2.375971e+003;5.648713e-002
2.377900e+003;5.673921e-002
2.379828e+003;5.689238e-002
2.381757e+003;5.717179e-002
2.383685e+003;5.724021e-002
2.385614e+003;5.732913e-002
2.387542e+003;5.761215e-002
2.389471e+003;5.766743e-002
2.391399e+003;5.759460e-002
2.393328e+003;5.809333e-002
2.395257e+003;5.859252e-002
2.397185e+003;5.863412e-002
2.399114e+003;5.851548e-002
2.401042e+003;5.846619e-002
2.402971e+003;5.882496e-002
2.404899e+003;5.930589e-002
2.406828e+003;5.936154e-002
2.408756e+003;5.935143e-002
2.410685e+003;5.951404e-002
2.412614e+003;5.949432e-002
2.414542e+003;5.936568e-002
2.416471e+003;5.971485e-002
2.418399e+003;6.019718e-002
2.420328e+003;6.026037e-002
2.422256e+003;6.025386e-002
2.424185e+003;6.052702e-002
2.426113e+003;6.078363e-002
2.428042e+003;6.087034e-002
2.429970e+003;6.120161e-002
2.431899e+003;6.136583e-002
2.433828e+003;6.123545e-002
2.435756e+003;6.168163e-002
2.437685e+003;6.208484e-002
2.439613e+003;6.207857e-002
2.441542e+003;6.213985e-002
2.443470e+003;6.247936e-002
2.445399e+003;6.279559e-002
2.447327e+003;6.282020e-002
2.449256e+003;6.301504e-002
2.451185e+003;6.327435e-002
2.453113e+003;6.360097e-002
2.455042e+003;6.388999e-002
2.456970e+003;6.364040e-002
2.458899e+003;6.355916e-002
2.460827e+003;6.375463e-002
2.462756e+003;6.401887e-002
2.464684e+003;6.413484e-002
2.466613e+003;6.412186e-002
2.468542e+003;6.434578e-002
2.470470e+003;6.450605e-002
2.472398e+003;6.458712e-002
2.474327e+003;6.487481e-002
2.476256e+003;6.512272e-002
2.478184e+003;6.508622e-002
2.480113e+003;6.514347e-002
2.482041e+003;6.556528e-002
2.483970e+003;6.586117e-002
2.485898e+003;6.600922e-002
2.487827e+003;6.598218e-002
2.489755e+003;6.579489e-002
2.491684e+003;6.579793e-002
2.493613e+003;6.602573e-002
2.495541e+003;6.628850e-002
2.497470e+003;6.645099e-002
2.499398e+003;6.661288e-002
2.501327e+003;6.681406e-002
2.503255e+003;6.679466e-002
2.505184e+003;6.679570e-002
2.507112e+003;6.709904e-002
2.509041e+003;6.737175e-002
2.510969e+003;6.748401e-002
2.512898e+003;6.755148e-002
2.514827e+003;6.768037e-002
2.516755e+003;6.795321e-002
2.518684e+003;6.790408e-002
2.520612e+003;6.785620e-002
2.522541e+003;6.792554e-002
2.524469e+003;6.782056e-002
2.526398e+003;6.775735e-002
2.528326e+003;6.811004e-002
2.530255e+003;6.863160e-002
2.532184e+003;6.885002e-002
2.534112e+003;6.901599e-002
2.536041e+003;6.904225e-002
2.537969e+003;6.889114e-002
2.539898e+003;6.890842e-002
2.541826e+003;6.917337e-002
2.543755e+003;6.942386e-002
2.545683e+003;6.958336e-002
2.547612e+003;6.951014e-002
2.549541e+003;6.975234e-002
2.551469e+003;7.004339e-002
2.553397e+003;7.013867e-002
2.555326e+003;7.009634e-002
2.557255e+003;6.983472e-002
2.559183e+003;6.960235e-002
2.561112e+003;6.944260e-002
2.563040e+003;6.980550e-002
2.564969e+003;7.036743e-002
2.566897e+003;7.038037e-002
2.568826e+003;7.019934e-002
2.570754e+003;7.010853e-002
2.572683e+003;7.046824e-002
2.574612e+003;7.047701e-002
2.576540e+003;7.026560e-002
2.578469e+003;7.073285e-002
2.580397e+003;7.117692e-002
2.582326e+003;7.092857e-002
2.584254e+003;7.078043e-002
2.586183e+003;7.102194e-002
2.588111e+003;7.126011e-002
2.590040e+003;7.147087e-002
2.591969e+003;7.154830e-002
2.593897e+003;7.160307e-002
2.595826e+003;7.194475e-002
2.597754e+003;7.221062e-002
2.599683e+003;7.217200e-002
2.601611e+003;7.213660e-002
2.603540e+003;7.219771e-002
2.605468e+003;7.219524e-002
2.607397e+003;7.232704e-002
2.609325e+003;7.261837e-002
2.611254e+003;7.301015e-002
2.613183e+003;7.296523e-002
2.615111e+003;7.270414e-002
2.617040e+003;7.319913e-002
2.618968e+003;7.378080e-002
2.620897e+003;7.384823e-002
2.622825e+003;7.416380e-002
2.624754e+003;7.444736e-002
2.626682e+003;7.432994e-002
2.628611e+003;7.435022e-002
2.630540e+003;7.439473e-002
2.632468e+003;7.457417e-002
2.634396e+003;7.485437e-002
2.636325e+003;7.519405e-002
2.638254e+003;7.568829e-002
2.640182e+003;7.584917e-002
2.642111e+003;7.592138e-002
2.644039e+003;7.586696e-002
2.645968e+003;7.563300e-002
2.647896e+003;7.559916e-002
2.649825e+003;7.580348e-002
2.651753e+003;7.620759e-002
2.653682e+003;7.640547e-002
2.655611e+003;7.640199e-002
2.657539e+003;7.663855e-002
2.659468e+003;7.702112e-002
2.661396e+003;7.734384e-002
2.663325e+003;7.774787e-002
2.665253e+003;7.793901e-002
2.667182e+003;7.791661e-002
2.669110e+003;7.798088e-002
2.671039e+003;7.809482e-002
2.672968e+003;7.801990e-002
2.674896e+003;7.799195e-002
2.676825e+003;7.833344e-002
2.678753e+003;7.867811e-002
2.680682e+003;7.882675e-002
2.682610e+003;7.907393e-002
2.684539e+003;7.917376e-002
2.686467e+003;7.911786e-002
2.688396e+003;7.914115e-002
2.690324e+003;7.962675e-002
2.692253e+003;8.022708e-002
2.694182e+003;8.046043e-002
2.696110e+003;8.038774e-002
2.698039e+003;8.021553e-002
2.699967e+003;8.013161e-002
2.701896e+003;8.053142e-002
2.703824e+003;8.116573e-002
2.705753e+003;8.142072e-002
2.707681e+003;8.115020e-002
2.709610e+003;8.092242e-002
2.711539e+003;8.144954e-002
2.713467e+003;8.227797e-002
2.715396e+003;8.239616e-002
2.717324e+003;8.220822e-002
2.719253e+003;8.229539e-002
2.721181e+003;8.245833e-002
2.723110e+003;8.235890e-002
2.725038e+003;8.242837e-002
2.726967e+003;8.294596e-002
2.728896e+003;8.315846e-002
2.730824e+003;8.317868e-002
2.732752e+003;8.324791e-002
2.734681e+003;8.316913e-002
2.736610e+003;8.317495e-002
2.738538e+003;8.328174e-002
2.740467e+003;8.338210e-002
2.742395e+003;8.371890e-002
2.744324e+003;8.392511e-002
2.746252e+003;8.380269e-002
2.748181e+003;8.380079e-002
2.750109e+003;8.396161e-002
2.752038e+003;8.404355e-002
2.753967e+003;8.429368e-002
2.755895e+003;8.476279e-002
2.757824e+003;8.481386e-002
2.759752e+003;8.453514e-002
2.761681e+003;8.449255e-002
2.763609e+003;8.469715e-002
2.765538e+003;8.472139e-002
2.767466e+003;8.470641e-002
2.769395e+003;8.492162e-002
2.771323e+003;8.528249e-002
2.773252e+003;8.570722e-002
2.775181e+003;8.609492e-002
2.777109e+003;8.633875e-002
2.779038e+003;8.634215e-002
2.780966e+003;8.629166e-002
2.782895e+003;8.636571e-002
2.784823e+003;8.650932e-002
2.786752e+003;8.684929e-002
2.788680e+003;8.729221e-002
2.790609e+003;8.759943e-002
2.792538e+003;8.781787e-002
2.794466e+003;8.798070e-002
2.796395e+003;8.832459e-002
2.798323e+003;8.873101e-002
2.800252e+003;8.888333e-002
2.802180e+003;8.894339e-002
2.804109e+003;8.916625e-002
2.806037e+003;8.945607e-002
2.807966e+003;9.017745e-002
2.809895e+003;9.057360e-002
2.811823e+003;9.069938e-002
2.813751e+003;9.107935e-002
2.815680e+003;9.150741e-002
2.817609e+003;9.185594e-002
2.819537e+003;9.232999e-002
2.821466e+003;9.282050e-002
2.823394e+003;9.345306e-002
2.825323e+003;9.419992e-002
2.827251e+003;9.462205e-002
2.829180e+003;9.490994e-002
2.831108e+003;9.558180e-002
2.833037e+003;9.666803e-002
2.834966e+003;9.757449e-002
2.836894e+003;9.817293e-002
2.838823e+003;9.915234e-002
2.840751e+003;1.000631e-001
2.842680e+003;1.008106e-001
2.844608e+003;1.017492e-001
2.846537e+003;1.028009e-001
2.848465e+003;1.035770e-001
2.850394e+003;1.045039e-001
2.852323e+003;1.056675e-001
2.854251e+003;1.066886e-001
2.856180e+003;1.077132e-001
2.858108e+003;1.086125e-001
2.860037e+003;1.094970e-001
2.861965e+003;1.102460e-001
2.863894e+003;1.109461e-001
2.865822e+003;1.117145e-001
2.867751e+003;1.124183e-001
2.869679e+003;1.129289e-001
2.871608e+003;1.134974e-001
2.873536e+003;1.143972e-001
2.875465e+003;1.151979e-001
2.877394e+003;1.154208e-001
2.879322e+003;1.155893e-001
2.881251e+003;1.160276e-001
2.883179e+003;1.164376e-001
2.885108e+003;1.167554e-001
2.887036e+003;1.172889e-001
2.888965e+003;1.178789e-001
2.890893e+003;1.183305e-001
2.892822e+003;1.186562e-001
2.894750e+003;1.189921e-001
2.896679e+003;1.190094e-001
2.898608e+003;1.188462e-001
2.900536e+003;1.187700e-001
2.902465e+003;1.186893e-001
2.904393e+003;1.190312e-001
2.906322e+003;1.194121e-001
2.908250e+003;1.190951e-001
2.910179e+003;1.181815e-001
2.912107e+003;1.177546e-001
2.914036e+003;1.176034e-001
2.915965e+003;1.171141e-001
2.917893e+003;1.164272e-001
2.919822e+003;1.160111e-001
2.921750e+003;1.159115e-001
2.923679e+003;1.150473e-001
2.925607e+003;1.141707e-001
2.927536e+003;1.140460e-001
2.929464e+003;1.137378e-001
2.931393e+003;1.135406e-001
2.933322e+003;1.131750e-001
2.935250e+003;1.125949e-001
2.937178e+003;1.122406e-001
2.939107e+003;1.121592e-001
2.941036e+003;1.116525e-001
2.942964e+003;1.106619e-001
2.944893e+003;1.096815e-001
2.946821e+003;1.089263e-001
2.948750e+003;1.079526e-001
2.950678e+003;1.070526e-001
2.952607e+003;1.062953e-001
2.954535e+003;1.051277e-001
2.956464e+003;1.041596e-001
2.958393e+003;1.034474e-001
2.960321e+003;1.024770e-001
2.962250e+003;1.013642e-001
2.964178e+003;1.006770e-001
2.966107e+003;1.005123e-001
2.968035e+003;1.001653e-001
2.969964e+003;9.934339e-002
2.971892e+003;9.829552e-002
2.973821e+003;9.752757e-002
2.975750e+003;9.681340e-002
2.977678e+003;9.593250e-002
2.979607e+003;9.567905e-002
2.981535e+003;9.534716e-002
2.983464e+003;9.435347e-002
2.985392e+003;9.350623e-002
2.987321e+003;9.307052e-002
2.989249e+003;9.308797e-002
2.991178e+003;9.296043e-002
2.993106e+003;9.295206e-002
2.995035e+003;9.287220e-002
2.996964e+003;9.251276e-002
2.998892e+003;9.218132e-002
3.000821e+003;9.174629e-002
3.002749e+003;9.128041e-002
3.004678e+003;9.122252e-002
3.006606e+003;9.123854e-002
3.008535e+003;9.103860e-002
3.010463e+003;9.141375e-002
3.012392e+003;9.177322e-002
3.014321e+003;9.185325e-002
3.016249e+003;9.176372e-002
3.018177e+003;9.177342e-002
3.020106e+003;9.210099e-002
3.022035e+003;9.203841e-002
3.023963e+003;9.168052e-002
3.025892e+003;9.185545e-002
3.027820e+003;9.228228e-002
3.029749e+003;9.245164e-002
3.031677e+003;9.260195e-002
3.033606e+003;9.299109e-002
3.035534e+003;9.343588e-002
3.037463e+003;9.388101e-002
3.039392e+003;9.412304e-002
3.041320e+003;9.390750e-002
3.043249e+003;9.373712e-002
3.045177e+003;9.400693e-002
3.047106e+003;9.415868e-002
3.049034e+003;9.441796e-002
3.050963e+003;9.489810e-002
3.052891e+003;9.528530e-002
3.054820e+003;9.589738e-002
3.056749e+003;9.655728e-002
3.058677e+003;9.674168e-002
3.060606e+003;9.671059e-002
3.062534e+003;9.704684e-002
3.064463e+003;9.741498e-002
3.066391e+003;9.807342e-002
3.068320e+003;9.878372e-002
3.070248e+003;9.880040e-002
3.072177e+003;9.880856e-002
3.074105e+003;9.930441e-002
3.076034e+003;9.972416e-002
3.077963e+003;9.979440e-002
3.079891e+003;1.002963e-001
3.081820e+003;1.009692e-001
3.083748e+003;1.011055e-001
3.085677e+003;1.014243e-001
3.087605e+003;1.018381e-001
3.089534e+003;1.024715e-001
3.091462e+003;1.029268e-001
3.093391e+003;1.028338e-001
3.095320e+003;1.030706e-001
3.097248e+003;1.036508e-001
3.099177e+003;1.045562e-001
3.101105e+003;1.051591e-001
3.103034e+003;1.056498e-001
3.104962e+003;1.060890e-001
3.106891e+003;1.064143e-001
3.108819e+003;1.069396e-001
3.110748e+003;1.075722e-001
3.112677e+003;1.080600e-001
3.114605e+003;1.083345e-001
3.116533e+003;1.082276e-001
3.118462e+003;1.085843e-001
3.120391e+003;1.093177e-001
3.122319e+003;1.095210e-001
3.124248e+003;1.101634e-001
3.126176e+003;1.111551e-001
3.128105e+003;1.115242e-001
3.130033e+003;1.119601e-001
3.131962e+003;1.123240e-001
3.133890e+003;1.122190e-001
3.135819e+003;1.128867e-001
3.137748e+003;1.138832e-001
3.139676e+003;1.144015e-001
3.141605e+003;1.149951e-001
3.143533e+003;1.159051e-001
3.145462e+003;1.165830e-001
3.147390e+003;1.168278e-001
3.149319e+003;1.173245e-001
3.151247e+003;1.180534e-001
3.153176e+003;1.185299e-001
3.155104e+003;1.190408e-001
3.157033e+003;1.197352e-001
3.158962e+003;1.201617e-001
3.160890e+003;1.206771e-001
3.162819e+003;1.212388e-001
3.164747e+003;1.216142e-001
3.166676e+003;1.221837e-001
3.168604e+003;1.225400e-001
3.170533e+003;1.230245e-001
3.172461e+003;1.238918e-001
3.174390e+003;1.244545e-001
3.176319e+003;1.249798e-001
3.178247e+003;1.258759e-001
3.180176e+003;1.267142e-001
3.182104e+003;1.271991e-001
3.184033e+003;1.278125e-001
3.185961e+003;1.282343e-001
3.187890e+003;1.286853e-001
3.189818e+003;1.294691e-001
3.191747e+003;1.303573e-001
3.193676e+003;1.310302e-001
3.195604e+003;1.316824e-001
3.197532e+003;1.325243e-001
3.199461e+003;1.330667e-001
3.201390e+003;1.334518e-001
3.203318e+003;1.341804e-001
3.205247e+003;1.349330e-001
3.207175e+003;1.355410e-001
3.209104e+003;1.361131e-001
3.211032e+003;1.369164e-001
3.212961e+003;1.375300e-001
3.214889e+003;1.380820e-001
3.216818e+003;1.390559e-001
3.218747e+003;1.400066e-001
3.220675e+003;1.405264e-001
3.222604e+003;1.410250e-001
3.224532e+003;1.416843e-001
3.226461e+003;1.421181e-001
3.228389e+003;1.427474e-001
3.230318e+003;1.435137e-001
3.232246e+003;1.441399e-001
3.234175e+003;1.451576e-001
3.236104e+003;1.463256e-001
3.238032e+003;1.471115e-001
3.239961e+003;1.480339e-001
3.241889e+003;1.486989e-001
3.243818e+003;1.493865e-001
3.245746e+003;1.500423e-001
3.247675e+003;1.509856e-001
3.249603e+003;1.522427e-001
3.251532e+003;1.533175e-001
3.253460e+003;1.537787e-001
3.255389e+003;1.545341e-001
3.257318e+003;1.557465e-001
3.259246e+003;1.565812e-001
3.261175e+003;1.568686e-001
3.263103e+003;1.570066e-001
3.265032e+003;1.578130e-001
3.266960e+003;1.585512e-001
3.268889e+003;1.590740e-001
3.270817e+003;1.595537e-001
3.272746e+003;1.600351e-001
3.274675e+003;1.607856e-001
3.276603e+003;1.609496e-001
3.278531e+003;1.610516e-001
3.280460e+003;1.608857e-001
3.282389e+003;1.609923e-001
3.284317e+003;1.619457e-001
3.286246e+003;1.622509e-001
3.288174e+003;1.622735e-001
3.290103e+003;1.625358e-001
3.292031e+003;1.626851e-001
3.293960e+003;1.626339e-001
3.295888e+003;1.627045e-001
3.297817e+003;1.630443e-001
3.299746e+003;1.636534e-001
3.301674e+003;1.638347e-001
3.303603e+003;1.638140e-001
3.305531e+003;1.642882e-001
3.307460e+003;1.645287e-001
3.309388e+003;1.644922e-001
3.311317e+003;1.645560e-001
3.313245e+003;1.648474e-001
3.315174e+003;1.648812e-001
3.317103e+003;1.651120e-001
3.319031e+003;1.655855e-001
3.320960e+003;1.660246e-001
3.322888e+003;1.660415e-001
3.324817e+003;1.659940e-001
3.326745e+003;1.658589e-001
3.328674e+003;1.655121e-001
3.330602e+003;1.657903e-001
3.332531e+003;1.659876e-001
3.334459e+003;1.651932e-001
3.336388e+003;1.650686e-001
3.338317e+003;1.654070e-001
3.340245e+003;1.651935e-001
3.342174e+003;1.644018e-001
3.344102e+003;1.638678e-001
3.346031e+003;1.636700e-001
3.347959e+003;1.631662e-001
3.349888e+003;1.622348e-001
3.351816e+003;1.616563e-001
3.353745e+003;1.617022e-001
3.355674e+003;1.616320e-001
3.357602e+003;1.609878e-001
3.359531e+003;1.603426e-001
3.361459e+003;1.601851e-001
3.363388e+003;1.595418e-001
3.365316e+003;1.588485e-001
3.367245e+003;1.586116e-001
3.369173e+003;1.583798e-001
3.371102e+003;1.582809e-001
3.373031e+003;1.580135e-001
3.374959e+003;1.574058e-001
3.376887e+003;1.569664e-001
3.378816e+003;1.564945e-001
3.380745e+003;1.563395e-001
3.382673e+003;1.561376e-001
3.384602e+003;1.554840e-001
3.386530e+003;1.549711e-001
3.388459e+003;1.545813e-001
3.390387e+003;1.540578e-001
3.392316e+003;1.536054e-001
3.394244e+003;1.533957e-001
3.396173e+003;1.530263e-001
3.398102e+003;1.523527e-001
3.400030e+003;1.515379e-001
3.401959e+003;1.508335e-001
3.403887e+003;1.503297e-001
3.405816e+003;1.496183e-001
3.407744e+003;1.487543e-001
3.409673e+003;1.478447e-001
3.411601e+003;1.469836e-001
3.413530e+003;1.466423e-001
3.415458e+003;1.463857e-001
3.417387e+003;1.459351e-001
3.419316e+003;1.452862e-001
3.421244e+003;1.446202e-001
3.423173e+003;1.441949e-001
3.425101e+003;1.434658e-001
3.427030e+003;1.424120e-001
3.428958e+003;1.416504e-001
3.430887e+003;1.410626e-001
3.432815e+003;1.400711e-001
3.434744e+003;1.392155e-001
3.436673e+003;1.387715e-001
3.438601e+003;1.381732e-001
3.440530e+003;1.374394e-001
3.442458e+003;1.360403e-001
3.444387e+003;1.349864e-001
3.446315e+003;1.350028e-001
3.448244e+003;1.343543e-001
3.450172e+003;1.332045e-001
3.452101e+003;1.326264e-001
3.454030e+003;1.314087e-001
3.455958e+003;1.305002e-001
3.457886e+003;1.302029e-001
3.459815e+003;1.292099e-001
3.461744e+003;1.284435e-001
3.463672e+003;1.275531e-001
3.465601e+003;1.268344e-001
3.467529e+003;1.260411e-001
3.469458e+003;1.250178e-001
3.471386e+003;1.240764e-001
3.473315e+003;1.233919e-001
3.475243e+003;1.225970e-001
3.477172e+003;1.221953e-001
3.479101e+003;1.218023e-001
3.481029e+003;1.208336e-001
3.482958e+003;1.196720e-001
3.484886e+003;1.185345e-001
3.486815e+003;1.179403e-001
3.488743e+003;1.175786e-001
3.490672e+003;1.166471e-001
3.492600e+003;1.153610e-001
3.494529e+003;1.144454e-001
3.496458e+003;1.134591e-001
3.498386e+003;1.122049e-001
3.500315e+003;1.115052e-001
3.502243e+003;1.110152e-001
3.504172e+003;1.102911e-001
3.506100e+003;1.096081e-001
3.508029e+003;1.088726e-001
3.509957e+003;1.080343e-001
3.511886e+003;1.070499e-001
3.513814e+003;1.059959e-001
3.515743e+003;1.051620e-001
3.517672e+003;1.045457e-001
3.519600e+003;1.037094e-001
3.521529e+003;1.027938e-001
3.523457e+003;1.015615e-001
3.525386e+003;1.005138e-001
3.527314e+003;9.991721e-002
3.529243e+003;9.903171e-002
3.531171e+003;9.853192e-002
3.533100e+003;9.757635e-002
3.535029e+003;9.615555e-002
3.536957e+003;9.553341e-002
3.538885e+003;9.525324e-002
3.540814e+003;9.436048e-002
3.542743e+003;9.356266e-002
3.544671e+003;9.265059e-002
3.546600e+003;9.173094e-002
3.548528e+003;9.066913e-002
3.550457e+003;8.944516e-002
3.552385e+003;8.826360e-002
3.554314e+003;8.727589e-002
3.556242e+003;8.647463e-002
3.558171e+003;8.571065e-002
3.560100e+003;8.533233e-002
3.562028e+003;8.491655e-002
3.563957e+003;8.423205e-002
3.565885e+003;8.323876e-002
3.567814e+003;8.216477e-002
3.569742e+003;8.138619e-002
3.571671e+003;8.084754e-002
3.573599e+003;8.014013e-002
3.575528e+003;7.937670e-002
3.577457e+003;7.890363e-002
3.579385e+003;7.805622e-002
3.581314e+003;7.697562e-002
3.583242e+003;7.651681e-002
3.585171e+003;7.598255e-002
3.587099e+003;7.489146e-002
3.589028e+003;7.386523e-002
3.590956e+003;7.326243e-002
3.592885e+003;7.335740e-002
3.594813e+003;7.271264e-002
3.596742e+003;7.167533e-002
3.598671e+003;7.086004e-002
3.600599e+003;6.997978e-002
3.602528e+003;6.935074e-002
3.604456e+003;6.888411e-002
3.606385e+003;6.872218e-002
3.608313e+003;6.850938e-002
3.610242e+003;6.758141e-002
3.612170e+003;6.671251e-002
3.614099e+003;6.579851e-002
3.616028e+003;6.528970e-002
3.617956e+003;6.483649e-002
3.619885e+003;6.404790e-002
3.621813e+003;6.358264e-002
3.623742e+003;6.348978e-002
3.625670e+003;6.312503e-002
3.627599e+003;6.235335e-002
3.629527e+003;6.152431e-002
3.631456e+003;6.117991e-002
3.633385e+003;6.109153e-002
3.635313e+003;6.031530e-002
3.637241e+003;5.927721e-002
3.639170e+003;5.872371e-002
3.641099e+003;5.832432e-002
3.643027e+003;5.779122e-002
3.644956e+003;5.696208e-002
3.646884e+003;5.606506e-002
3.648813e+003;5.512141e-002
3.650741e+003;5.443057e-002
3.652670e+003;5.398360e-002
3.654598e+003;5.312147e-002
3.656527e+003;5.201263e-002
3.658456e+003;5.143052e-002
3.660384e+003;5.114304e-002
3.662313e+003;5.077700e-002
3.664241e+003;5.014685e-002
3.666170e+003;4.964415e-002
3.668098e+003;4.898534e-002
3.670027e+003;4.771944e-002
3.671955e+003;4.650667e-002
3.673884e+003;4.575922e-002
3.675813e+003;4.482529e-002
3.677741e+003;4.413064e-002
3.679669e+003;4.396624e-002
3.681598e+003;4.377399e-002
3.683527e+003;4.290582e-002
3.685455e+003;4.233804e-002
3.687384e+003;4.203633e-002
3.689312e+003;4.165341e-002
3.691241e+003;4.165232e-002
3.693169e+003;4.153899e-002
3.695098e+003;4.108472e-002
3.697026e+003;4.070602e-002
3.698955e+003;4.067156e-002
3.700884e+003;4.038166e-002
3.702812e+003;3.943301e-002
3.704741e+003;3.863004e-002
3.706669e+003;3.877363e-002
3.708598e+003;3.888747e-002
3.710526e+003;3.826166e-002
3.712455e+003;3.787233e-002
3.714383e+003;3.804662e-002
3.716312e+003;3.790950e-002
3.718240e+003;3.760351e-002
3.720169e+003;3.716268e-002
3.722098e+003;3.684016e-002
3.724026e+003;3.673344e-002
3.725955e+003;3.634408e-002
3.727883e+003;3.642255e-002
3.729812e+003;3.644727e-002
3.731740e+003;3.618664e-002
3.733669e+003;3.606598e-002
3.735597e+003;3.640093e-002
3.737526e+003;3.673009e-002
3.739455e+003;3.682699e-002
3.741383e+003;3.675515e-002
3.743312e+003;3.619564e-002
3.745240e+003;3.534536e-002
3.747169e+003;3.545457e-002
3.749097e+003;3.559693e-002
3.751026e+003;3.494187e-002
3.752954e+003;3.423050e-002
3.754883e+003;3.457104e-002
3.756812e+003;3.540834e-002
3.758740e+003;3.587909e-002
3.760668e+003;3.596230e-002
3.762597e+003;3.589568e-002
3.764526e+003;3.576095e-002
3.766454e+003;3.590896e-002
3.768383e+003;3.618113e-002
3.770311e+003;3.602177e-002
3.772240e+003;3.554759e-002
3.774168e+003;3.529389e-002
3.776097e+003;3.524175e-002
3.778025e+003;3.516784e-002
3.779954e+003;3.511283e-002
3.781883e+003;3.546960e-002
3.783811e+003;3.540686e-002
3.785740e+003;3.514161e-002
3.787668e+003;3.528638e-002
3.789597e+003;3.567893e-002
3.791525e+003;3.578017e-002
3.793454e+003;3.539453e-002
3.795382e+003;3.534266e-002
3.797311e+003;3.570969e-002
3.799240e+003;3.586509e-002
3.801168e+003;3.580089e-002
3.803097e+003;3.593923e-002
3.805025e+003;3.592353e-002
3.806954e+003;3.567659e-002
3.808882e+003;3.576833e-002
3.810811e+003;3.592404e-002
3.812739e+003;3.611980e-002
3.814668e+003;3.594963e-002
3.816596e+003;3.552429e-002
3.818525e+003;3.543936e-002
3.820454e+003;3.524994e-002
3.822382e+003;3.544486e-002
3.824311e+003;3.590327e-002
3.826239e+003;3.604207e-002
3.828168e+003;3.545101e-002
3.830096e+003;3.519111e-002
3.832025e+003;3.524325e-002
3.833953e+003;3.497297e-002
3.835882e+003;3.487231e-002
3.837811e+003;3.469089e-002
3.839739e+003;3.499390e-002
3.841667e+003;3.574070e-002
3.843596e+003;3.623717e-002
3.845525e+003;3.652479e-002
3.847453e+003;3.711764e-002
3.849382e+003;3.723307e-002
3.851310e+003;3.624437e-002
3.853239e+003;3.588621e-002
3.855167e+003;3.640699e-002
3.857096e+003;3.661685e-002
3.859024e+003;3.626569e-002
3.860953e+003;3.623241e-002
3.862882e+003;3.652536e-002
3.864810e+003;3.682941e-002
3.866739e+003;3.723101e-002
3.868667e+003;3.727188e-002
3.870596e+003;3.690260e-002
3.872524e+003;3.726343e-002
3.874453e+003;3.760409e-002
3.876381e+003;3.783838e-002
3.878310e+003;3.806171e-002
3.880239e+003;3.759368e-002
3.882167e+003;3.752786e-002
3.884096e+003;3.815066e-002
3.886024e+003;3.866532e-002
3.887953e+003;3.867684e-002
3.889881e+003;3.858358e-002
3.891810e+003;3.850819e-002
3.893738e+003;3.830805e-002
3.895667e+003;3.790711e-002
3.897595e+003;3.778648e-002
3.899524e+003;3.853828e-002
3.901453e+003;3.856971e-002
3.903381e+003;3.847133e-002
3.905310e+003;3.910354e-002
3.907238e+003;3.938759e-002
3.909167e+003;3.939887e-002
3.911095e+003;3.937503e-002
3.913024e+003;3.970268e-002
3.914952e+003;3.996965e-002
3.916881e+003;3.969284e-002
3.918810e+003;3.945855e-002
3.920738e+003;3.986031e-002
3.922667e+003;4.070915e-002
3.924595e+003;4.073237e-002
3.926524e+003;4.038228e-002
3.928452e+003;4.031447e-002
3.930381e+003;3.995224e-002
3.932309e+003;3.953893e-002
3.934238e+003;3.990695e-002
3.936167e+003;4.065570e-002
3.938095e+003;4.106443e-002
3.940023e+003;4.080829e-002
3.941952e+003;4.053230e-002
3.943881e+003;4.104844e-002
3.945809e+003;4.189038e-002
3.947738e+003;4.180807e-002
3.949666e+003;4.176510e-002
3.951595e+003;4.178086e-002
3.953523e+003;4.118296e-002
3.955452e+003;4.102000e-002
3.957380e+003;4.171786e-002
3.959309e+003;4.227157e-002
3.961238e+003;4.223622e-002
3.963166e+003;4.238893e-002
3.965095e+003;4.264421e-002
3.967023e+003;4.250519e-002
3.968952e+003;4.257104e-002
3.970880e+003;4.279608e-002
3.972809e+003;4.273213e-002
3.974737e+003;4.254096e-002
3.976666e+003;4.256406e-002
3.978594e+003;4.288029e-002
3.980523e+003;4.315940e-002
3.982452e+003;4.278485e-002
3.984380e+003;4.221219e-002
3.986309e+003;4.191377e-002
3.988237e+003;4.185707e-002
3.990166e+003;4.196008e-002
3.992094e+003;4.204217e-002
3.994023e+003;4.220485e-002
3.995951e+003;4.243054e-002
3.997880e+003;4.199409e-002
3.999809e+003;4.188079e-002
4.001737e+003;0.000000e+000
