3.992094e+002;0.000000e+000
4.011380e+002;0.000000e+000
4.030665e+002;0.000000e+000
4.049951e+002;0.000000e+000
4.069236e+002;0.000000e+000
4.088522e+002;0.000000e+000
4.107807e+002;0.000000e+000
4.127093e+002;0.000000e+000
4.146378e+002;0.000000e+000
4.165664e+002;0.000000e+000
4.184949e+002;0.000000e+000
4.204235e+002;0.000000e+000
4.223520e+002;0.000000e+000
4.242806e+002;0.000000e+000
4.262091e+002;0.000000e+000
4.281377e+002;0.000000e+000
4.300662e+002;0.000000e+000
4.319948e+002;0.000000e+000
4.339233e+002;0.000000e+000
4.358519e+002;0.000000e+000
4.377804e+002;0.000000e+000
4.397090e+002;0.000000e+000
4.416375e+002;0.000000e+000
4.435660e+002;0.000000e+000
4.454946e+002;0.000000e+000
4.474232e+002;0.000000e+000
4.493517e+002;0.000000e+000
4.512802e+002;0.000000e+000
4.532088e+002;0.000000e+000
4.551373e+002;0.000000e+000
4.570659e+002;0.000000e+000
4.589944e+002;0.000000e+000
4.609230e+002;0.000000e+000
4.628515e+002;0.000000e+000
4.647801e+002;0.000000e+000
4.667086e+002;0.000000e+000
4.686372e+002;0.000000e+000
4.705657e+002;0.000000e+000
4.724943e+002;0.000000e+000
4.744228e+002;0.000000e+000
4.763513e+002;0.000000e+000
4.782799e+002;0.000000e+000
4.802085e+002;0.000000e+000
4.821370e+002;0.000000e+000
4.840656e+002;0.000000e+000
4.859941e+002;0.000000e+000
4.879226e+002;0.000000e+000
4.898512e+002;0.000000e+000
4.917798e+002;0.000000e+000
4.937083e+002;0.000000e+000
4.956368e+002;0.000000e+000
4.975654e+002;0.000000e+000
4.994939e+002;0.000000e+000
5.014225e+002;0.000000e+000
5.033510e+002;0.000000e+000
5.052796e+002;0.000000e+000
5.072081e+002;0.000000e+000
5.091367e+002;0.000000e+000
5.110652e+002;0.000000e+000
5.129938e+002;0.000000e+000
5.149223e+002;0.000000e+000
5.168509e+002;0.000000e+000
5.187794e+002;0.000000e+000
5.207079e+002;0.000000e+000
5.226365e+002;0.000000e+000
5.245651e+002;0.000000e+000
5.264936e+002;0.000000e+000
5.284222e+002;0.000000e+000
5.303507e+002;0.000000e+000
5.322792e+002;0.000000e+000
5.342078e+002;0.000000e+000
5.361364e+002;0.000000e+000
5.380649e+002;0.000000e+000
5.399935e+002;0.000000e+000
5.419220e+002;0.000000e+000
5.438505e+002;0.000000e+000
5.457791e+002;0.000000e+000
5.477076e+002;0.000000e+000
5.496362e+002;0.000000e+000
5.515648e+002;0.000000e+000
5.534933e+002;0.000000e+000
5.554218e+002;0.000000e+000
5.573504e+002;0.000000e+000
5.592789e+002;0.000000e+000
5.612075e+002;0.000000e+000
5.631360e+002;0.000000e+000
5.650646e+002;0.000000e+000
5.669931e+002;0.000000e+000
5.689217e+002;0.000000e+000
5.708502e+002;0.000000e+000
5.727787e+002;0.000000e+000
5.747073e+002;0.000000e+000
5.766359e+002;0.000000e+000
5.785644e+002;0.000000e+000
5.804930e+002;0.000000e+000
5.824215e+002;0.000000e+000
5.843500e+002;0.000000e+000
5.862786e+002;0.000000e+000
5.882072e+002;0.000000e+000
5.901357e+002;0.000000e+000
5.920643e+002;0.000000e+000
5.939928e+002;0.000000e+000
5.959213e+002;0.000000e+000
5.978499e+002;0.000000e+000
5.997784e+002;2.377098e-001
6.017070e+002;2.297166e-001
6.036355e+002;2.250858e-001
6.055641e+002;2.232877e-001
6.074926e+002;2.286153e-001
6.094211e+002;2.298246e-001
6.113497e+002;2.276339e-001
6.132783e+002;2.231016e-001
6.152068e+002;2.236765e-001
6.171354e+002;2.228601e-001
6.190639e+002;2.212070e-001
6.209924e+002;2.141818e-001
6.229210e+002;2.086212e-001
6.248495e+002;2.082976e-001
6.267781e+002;2.038089e-001
6.287067e+002;2.041770e-001
6.306352e+002;2.065201e-001
6.325637e+002;2.053582e-001
6.344923e+002;2.014066e-001
6.364208e+002;1.978648e-001
6.383494e+002;2.002660e-001
6.402780e+002;2.015737e-001
6.422065e+002;1.962465e-001
6.441350e+002;1.954582e-001
6.460636e+002;2.008190e-001
6.479921e+002;1.982814e-001
6.499207e+002;1.946663e-001
6.518492e+002;1.984774e-001
6.537778e+002;1.991304e-001
6.557063e+002;2.031593e-001
6.576349e+002;2.071947e-001
6.595634e+002;2.062683e-001
6.614919e+002;2.060241e-001
6.634205e+002;2.059427e-001
6.653491e+002;2.030643e-001
6.672776e+002;2.017433e-001
6.692062e+002;2.005172e-001
6.711347e+002;1.974150e-001
6.730632e+002;1.957922e-001
6.749918e+002;1.943460e-001
6.769203e+002;1.887105e-001
6.788489e+002;1.841346e-001
6.807775e+002;1.807143e-001
6.827060e+002;1.776815e-001
6.846345e+002;1.762971e-001
6.865631e+002;1.744816e-001
6.884916e+002;1.730568e-001
6.904202e+002;1.722104e-001
6.923488e+002;1.709002e-001
6.942773e+002;1.692668e-001
6.962058e+002;1.676779e-001
6.981344e+002;1.680716e-001
7.000629e+002;1.680869e-001
7.019915e+002;1.666068e-001
7.039200e+002;1.654888e-001
7.058486e+002;1.644040e-001
7.077771e+002;1.630524e-001
7.097057e+002;1.626393e-001
7.116342e+002;1.622629e-001
7.135627e+002;1.606496e-001
7.154913e+002;1.591114e-001
7.174199e+002;1.579094e-001
7.193484e+002;1.555648e-001
7.212770e+002;1.533098e-001
7.232055e+002;1.510996e-001
7.251340e+002;1.483506e-001
7.270626e+002;1.465432e-001
7.289911e+002;1.460366e-001
7.309197e+002;1.452746e-001
7.328483e+002;1.432971e-001
7.347768e+002;1.409535e-001
7.367053e+002;1.393738e-001
7.386339e+002;1.387025e-001
7.405624e+002;1.375216e-001
7.424910e+002;1.356291e-001
7.444196e+002;1.344103e-001
7.463481e+002;1.338725e-001
7.482766e+002;1.331600e-001
7.502052e+002;1.317634e-001
7.521337e+002;1.302020e-001
7.540623e+002;1.294737e-001
7.559908e+002;1.303218e-001
7.579194e+002;1.299867e-001
7.598479e+002;1.281589e-001
7.617765e+002;1.271763e-001
7.637050e+002;1.269564e-001
7.656335e+002;1.268993e-001
7.675621e+002;1.261234e-001
7.694907e+002;1.250882e-001
7.714192e+002;1.242516e-001
7.733478e+002;1.236593e-001
7.752763e+002;1.225059e-001
7.772048e+002;1.210016e-001
7.791334e+002;1.200174e-001
7.810620e+002;1.207440e-001
7.829905e+002;1.205519e-001
7.849191e+002;1.197985e-001
7.868476e+002;1.200833e-001
7.887761e+002;1.204499e-001
7.907047e+002;1.194559e-001
7.926332e+002;1.189571e-001
7.945618e+002;1.184184e-001
7.964903e+002;1.185216e-001
7.984189e+002;1.187331e-001
8.003474e+002;1.182837e-001
8.022759e+002;1.180809e-001
8.042045e+002;1.188060e-001
8.061331e+002;1.199720e-001
8.080616e+002;1.202827e-001
8.099902e+002;1.202089e-001
8.119187e+002;1.201868e-001
8.138472e+002;1.206781e-001
8.157758e+002;1.222148e-001
8.177043e+002;1.231072e-001
8.196329e+002;1.229803e-001
8.215615e+002;1.237101e-001
8.234900e+002;1.247844e-001
8.254185e+002;1.253031e-001
8.273471e+002;1.254240e-001
8.292756e+002;1.254570e-001
8.312042e+002;1.255870e-001
8.331328e+002;1.252490e-001
8.350613e+002;1.248001e-001
8.369898e+002;1.245353e-001
8.389184e+002;1.237286e-001
8.408469e+002;1.231364e-001
8.427755e+002;1.234275e-001
8.447040e+002;1.233584e-001
8.466326e+002;1.231206e-001
8.485611e+002;1.225675e-001
8.504897e+002;1.221946e-001
8.524182e+002;1.226859e-001
8.543467e+002;1.236547e-001
8.562753e+002;1.242527e-001
8.582039e+002;1.239108e-001
8.601324e+002;1.241318e-001
8.620610e+002;1.257379e-001
8.639895e+002;1.278688e-001
8.659180e+002;1.297671e-001
8.678466e+002;1.312365e-001
8.697751e+002;1.332955e-001
8.717037e+002;1.356322e-001
8.736323e+002;1.377842e-001
8.755608e+002;1.396040e-001
8.774893e+002;1.421749e-001
8.794179e+002;1.453258e-001
8.813464e+002;1.480490e-001
8.832750e+002;1.503982e-001
8.852036e+002;1.530631e-001
8.871321e+002;1.565515e-001
8.890606e+002;1.598446e-001
8.909892e+002;1.625489e-001
8.929177e+002;1.651857e-001
8.948463e+002;1.673934e-001
8.967748e+002;1.678658e-001
8.987034e+002;1.670089e-001
9.006319e+002;1.654669e-001
9.025605e+002;1.632032e-001
9.044890e+002;1.610280e-001
9.064175e+002;1.596034e-001
9.083461e+002;1.578306e-001
9.102747e+002;1.558269e-001
9.122032e+002;1.545381e-001
9.141318e+002;1.540712e-001
9.160603e+002;1.540981e-001
9.179888e+002;1.543318e-001
9.199174e+002;1.542718e-001
9.218459e+002;1.549085e-001
9.237745e+002;1.561669e-001
9.257031e+002;1.569738e-001
9.276316e+002;1.576687e-001
9.295601e+002;1.586478e-001
9.314887e+002;1.597694e-001
9.334172e+002;1.612289e-001
9.353458e+002;1.624896e-001
9.372744e+002;1.635567e-001
9.392029e+002;1.656440e-001
9.411314e+002;1.686245e-001
9.430600e+002;1.721036e-001
9.449885e+002;1.759882e-001
9.469171e+002;1.801586e-001
9.488456e+002;1.848855e-001
9.507742e+002;1.896588e-001
9.527027e+002;1.944520e-001
9.546313e+002;1.995599e-001
9.565598e+002;2.048855e-001
9.584883e+002;2.101201e-001
9.604169e+002;2.158279e-001
9.623455e+002;2.219556e-001
9.642740e+002;2.279527e-001
9.662026e+002;2.330481e-001
9.681311e+002;2.385538e-001
9.700596e+002;2.448243e-001
9.719882e+002;2.511877e-001
9.739167e+002;2.585504e-001
9.758453e+002;2.669626e-001
9.777739e+002;2.759743e-001
9.797024e+002;2.855310e-001
9.816309e+002;2.953282e-001
9.835595e+002;3.040697e-001
9.854880e+002;3.099171e-001
9.874166e+002;3.140373e-001
9.893452e+002;3.175229e-001
9.912737e+002;3.210601e-001
9.932022e+002;3.243241e-001
9.951307e+002;3.265108e-001
9.970593e+002;3.288761e-001
9.989879e+002;3.328231e-001
1.000916e+003;3.378483e-001
1.002845e+003;3.421028e-001
1.004773e+003;3.455478e-001
1.006702e+003;3.502006e-001
1.008631e+003;3.553736e-001
1.010559e+003;3.602819e-001
1.012488e+003;3.651940e-001
1.014416e+003;3.708263e-001
1.016345e+003;3.759751e-001
1.018273e+003;3.800022e-001
1.020202e+003;3.833559e-001
1.022130e+003;3.864767e-001
1.024059e+003;3.882351e-001
1.025988e+003;3.891959e-001
1.027916e+003;3.901276e-001
1.029845e+003;3.903445e-001
1.031773e+003;3.895721e-001
1.033702e+003;3.878012e-001
1.035630e+003;3.854503e-001
1.037559e+003;3.818646e-001
1.039487e+003;3.784699e-001
1.041416e+003;3.756807e-001
1.043344e+003;3.721921e-001
1.045273e+003;3.688252e-001
1.047202e+003;3.654305e-001
1.049130e+003;3.617716e-001
1.051059e+003;3.583830e-001
1.052987e+003;3.542399e-001
1.054916e+003;3.491205e-001
1.056844e+003;3.442824e-001
1.058773e+003;3.386648e-001
1.060701e+003;3.317002e-001
1.062630e+003;3.237282e-001
1.064558e+003;3.157563e-001
1.066487e+003;3.076533e-001
1.068416e+003;3.001506e-001
1.070344e+003;2.934705e-001
1.072273e+003;2.872849e-001
1.074201e+003;2.818335e-001
1.076130e+003;2.771734e-001
1.078058e+003;2.725087e-001
1.079987e+003;2.681708e-001
1.081915e+003;2.642868e-001
1.083844e+003;2.604314e-001
1.085773e+003;2.578837e-001
1.087701e+003;2.559921e-001
1.089630e+003;2.541796e-001
1.091558e+003;2.530372e-001
1.093487e+003;2.529179e-001
1.095415e+003;2.522259e-001
1.097344e+003;2.498188e-001
1.099272e+003;2.474550e-001
1.101201e+003;2.459765e-001
1.103129e+003;2.438168e-001
1.105058e+003;2.398859e-001
1.106987e+003;2.350499e-001
1.108915e+003;2.297861e-001
1.110844e+003;2.241319e-001
1.112772e+003;2.187834e-001
1.114701e+003;2.130131e-001
1.116629e+003;2.065868e-001
1.118558e+003;2.002449e-001
1.120486e+003;1.946316e-001
1.122415e+003;1.892903e-001
1.124344e+003;1.841911e-001
1.126272e+003;1.792243e-001
1.128201e+003;1.740858e-001
1.130129e+003;1.691845e-001
1.132058e+003;1.643833e-001
1.133986e+003;1.595387e-001
1.135915e+003;1.559397e-001
1.137843e+003;1.536350e-001
1.139772e+003;1.521563e-001
1.141700e+003;1.512148e-001
1.143629e+003;1.504590e-001
1.145557e+003;1.507340e-001
1.147486e+003;1.516598e-001
1.149415e+003;1.520320e-001
1.151343e+003;1.517075e-001
1.153272e+003;1.513924e-001
1.155200e+003;1.516811e-001
1.157129e+003;1.510865e-001
1.159057e+003;1.495779e-001
1.160986e+003;1.474843e-001
1.162914e+003;1.441535e-001
1.164843e+003;1.393646e-001
1.166771e+003;1.341131e-001
1.168700e+003;1.291680e-001
1.170629e+003;1.244707e-001
1.172557e+003;1.196473e-001
1.174486e+003;1.149701e-001
1.176414e+003;1.113919e-001
1.178343e+003;1.088450e-001
1.180271e+003;1.066269e-001
1.182200e+003;1.051346e-001
1.184128e+003;1.043051e-001
1.186057e+003;1.039338e-001
1.187986e+003;1.041330e-001
1.189914e+003;1.050889e-001
1.191843e+003;1.069190e-001
1.193771e+003;1.090584e-001
1.195700e+003;1.113167e-001
1.197628e+003;1.140959e-001
1.199557e+003;1.167762e-001
1.201485e+003;1.185938e-001
1.203414e+003;1.198243e-001
1.205343e+003;1.214514e-001
1.207271e+003;1.233800e-001
1.209200e+003;1.252303e-001
1.211128e+003;1.272408e-001
1.213057e+003;1.300108e-001
1.214985e+003;1.337613e-001
1.216914e+003;1.378520e-001
1.218842e+003;1.417141e-001
1.220771e+003;1.457444e-001
1.222699e+003;1.498038e-001
1.224628e+003;1.533144e-001
1.226557e+003;1.566479e-001
1.228485e+003;1.595278e-001
1.230414e+003;1.611175e-001
1.232342e+003;1.620483e-001
1.234271e+003;1.631841e-001
1.236199e+003;1.638717e-001
1.238128e+003;1.637578e-001
1.240056e+003;1.632521e-001
1.241985e+003;1.622927e-001
1.243913e+003;1.612600e-001
1.245842e+003;1.600026e-001
1.247771e+003;1.582504e-001
1.249699e+003;1.561956e-001
1.251628e+003;1.538839e-001
1.253556e+003;1.512336e-001
1.255485e+003;1.486531e-001
1.257413e+003;1.463135e-001
1.259342e+003;1.437307e-001
1.261270e+003;1.407768e-001
1.263199e+003;1.373039e-001
1.265127e+003;1.342951e-001
1.267056e+003;1.318353e-001
1.268985e+003;1.293506e-001
1.270913e+003;1.269563e-001
1.272842e+003;1.243938e-001
1.274770e+003;1.220323e-001
1.276699e+003;1.195911e-001
1.278627e+003;1.172642e-001
1.280556e+003;1.156406e-001
1.282484e+003;1.141454e-001
1.284413e+003;1.127588e-001
1.286342e+003;1.117152e-001
1.288270e+003;1.108641e-001
1.290199e+003;1.102996e-001
1.292127e+003;1.102055e-001
1.294056e+003;1.102700e-001
1.295984e+003;1.107388e-001
1.297913e+003;1.121644e-001
1.299841e+003;1.136596e-001
1.301770e+003;1.150937e-001
1.303698e+003;1.168827e-001
1.305627e+003;1.190743e-001
1.307556e+003;1.214371e-001
1.309484e+003;1.233517e-001
1.311413e+003;1.251101e-001
1.313341e+003;1.271163e-001
1.315270e+003;1.284971e-001
1.317198e+003;1.288215e-001
1.319127e+003;1.286297e-001
1.321055e+003;1.284443e-001
1.322984e+003;1.278105e-001
1.324912e+003;1.270625e-001
1.326841e+003;1.267628e-001
1.328770e+003;1.267015e-001
1.330698e+003;1.267111e-001
1.332627e+003;1.266344e-001
1.334555e+003;1.264854e-001
1.336484e+003;1.257558e-001
1.338412e+003;1.245543e-001
1.340341e+003;1.231884e-001
1.342269e+003;1.218191e-001
1.344198e+003;1.206464e-001
1.346126e+003;1.198255e-001
1.348055e+003;1.195194e-001
1.349984e+003;1.196099e-001
1.351912e+003;1.199227e-001
1.353841e+003;1.204583e-001
1.355769e+003;1.213691e-001
1.357698e+003;1.230005e-001
1.359626e+003;1.248354e-001
1.361555e+003;1.264720e-001
1.363483e+003;1.276093e-001
1.365412e+003;1.281172e-001
1.367341e+003;1.282955e-001
1.369269e+003;1.274436e-001
1.371198e+003;1.262143e-001
1.373126e+003;1.251978e-001
1.375055e+003;1.236493e-001
1.376983e+003;1.212637e-001
1.378912e+003;1.185492e-001
1.380840e+003;1.156962e-001
1.382769e+003;1.126344e-001
1.384698e+003;1.100083e-001
1.386626e+003;1.080668e-001
1.388555e+003;1.064521e-001
1.390483e+003;1.050826e-001
1.392412e+003;1.043689e-001
1.394340e+003;1.039862e-001
1.396269e+003;1.037620e-001
1.398197e+003;1.036298e-001
1.400126e+003;1.038494e-001
1.402054e+003;1.043567e-001
1.403983e+003;1.052968e-001
1.405911e+003;1.066974e-001
1.407840e+003;1.077437e-001
1.409769e+003;1.086865e-001
1.411697e+003;1.101236e-001
1.413626e+003;1.117687e-001
1.415554e+003;1.131976e-001
1.417483e+003;1.141871e-001
1.419411e+003;1.148705e-001
1.421340e+003;1.151685e-001
1.423268e+003;1.152032e-001
1.425197e+003;1.151560e-001
1.427125e+003;1.145834e-001
1.429054e+003;1.136394e-001
1.430983e+003;1.122652e-001
1.432911e+003;1.104678e-001
1.434840e+003;1.090005e-001
1.436768e+003;1.075389e-001
1.438697e+003;1.061041e-001
1.440625e+003;1.049234e-001
1.442554e+003;1.040865e-001
1.444482e+003;1.032083e-001
1.446411e+003;1.023663e-001
1.448340e+003;1.015510e-001
1.450268e+003;1.007422e-001
1.452197e+003;1.000380e-001
1.454125e+003;9.938817e-002
1.456054e+003;9.864298e-002
1.457982e+003;9.791954e-002
1.459911e+003;9.708641e-002
1.461839e+003;9.582858e-002
1.463768e+003;9.421182e-002
1.465697e+003;9.212586e-002
1.467625e+003;8.939789e-002
1.469554e+003;8.630811e-002
1.471482e+003;8.327400e-002
1.473411e+003;8.038212e-002
1.475339e+003;7.764331e-002
1.477268e+003;7.530603e-002
1.479196e+003;7.341912e-002
1.481125e+003;7.171949e-002
1.483053e+003;7.027576e-002
1.484982e+003;6.916544e-002
1.486911e+003;6.830738e-002
1.488839e+003;6.787049e-002
1.490768e+003;6.754950e-002
1.492696e+003;6.772780e-002
1.494625e+003;6.818811e-002
1.496553e+003;6.825832e-002
1.498482e+003;6.842760e-002
1.500410e+003;6.870379e-002
1.502339e+003;6.869723e-002
1.504267e+003;6.860102e-002
1.506196e+003;6.839502e-002
1.508125e+003;6.769957e-002
1.510053e+003;6.660806e-002
1.511982e+003;6.541961e-002
1.513910e+003;6.435209e-002
1.515839e+003;6.307978e-002
1.517767e+003;6.185486e-002
1.519696e+003;6.093069e-002
1.521624e+003;6.025047e-002
1.523553e+003;5.975454e-002
1.525481e+003;5.921767e-002
1.527410e+003;5.889356e-002
1.529339e+003;5.862479e-002
1.531267e+003;5.852511e-002
1.533196e+003;5.855942e-002
1.535124e+003;5.836874e-002
1.537053e+003;5.811162e-002
1.538981e+003;5.766289e-002
1.540910e+003;5.747487e-002
1.542838e+003;5.803057e-002
1.544767e+003;5.885744e-002
1.546695e+003;5.946210e-002
1.548624e+003;5.987037e-002
1.550553e+003;6.025816e-002
1.552481e+003;6.081866e-002
1.554410e+003;6.153851e-002
1.556338e+003;6.199135e-002
1.558267e+003;6.224129e-002
1.560195e+003;6.293854e-002
1.562124e+003;6.396980e-002
1.564052e+003;6.514966e-002
1.565981e+003;6.630792e-002
1.567910e+003;6.741431e-002
1.569838e+003;6.895549e-002
1.571767e+003;7.088227e-002
1.573695e+003;7.290993e-002
1.575624e+003;7.504503e-002
1.577552e+003;7.785346e-002
1.579481e+003;8.115291e-002
1.581409e+003;8.440739e-002
1.583338e+003;8.802067e-002
1.585266e+003;9.177326e-002
1.587195e+003;9.546801e-002
1.589124e+003;9.860422e-002
1.591052e+003;1.008110e-001
1.592981e+003;1.023413e-001
1.594909e+003;1.031075e-001
1.596838e+003;1.029984e-001
1.598766e+003;1.025675e-001
1.600695e+003;1.019794e-001
1.602623e+003;1.016040e-001
1.604552e+003;1.014252e-001
1.606480e+003;1.008139e-001
1.608409e+003;1.004606e-001
1.610338e+003;1.007285e-001
1.612266e+003;1.004662e-001
1.614195e+003;9.967501e-002
1.616123e+003;9.897103e-002
1.618052e+003;9.873231e-002
1.619980e+003;9.861948e-002
1.621909e+003;9.791210e-002
1.623837e+003;9.734752e-002
1.625766e+003;9.722888e-002
1.627694e+003;9.683033e-002
1.629623e+003;9.604380e-002
1.631552e+003;9.505017e-002
1.633480e+003;9.411551e-002
1.635409e+003;9.329288e-002
1.637337e+003;9.255049e-002
1.639266e+003;9.198865e-002
1.641194e+003;9.137425e-002
1.643123e+003;9.089210e-002
1.645051e+003;9.022471e-002
1.646980e+003;8.923070e-002
1.648909e+003;8.808670e-002
1.650837e+003;8.708444e-002
1.652766e+003;8.577193e-002
1.654694e+003;8.461404e-002
1.656623e+003;8.347397e-002
1.658551e+003;8.216354e-002
1.660480e+003;8.088566e-002
1.662408e+003;7.975130e-002
1.664337e+003;7.870048e-002
1.666266e+003;7.765274e-002
1.668194e+003;7.639255e-002
1.670123e+003;7.508091e-002
1.672051e+003;7.408343e-002
1.673980e+003;7.319062e-002
1.675908e+003;7.202441e-002
1.677837e+003;7.099389e-002
1.679765e+003;7.013182e-002
1.681694e+003;6.912702e-002
1.683622e+003;6.811268e-002
1.685551e+003;6.782638e-002
1.687479e+003;6.780007e-002
1.689408e+003;6.763204e-002
1.691337e+003;6.773826e-002
1.693265e+003;6.799722e-002
1.695194e+003;6.847271e-002
1.697122e+003;6.956349e-002
1.699051e+003;7.054077e-002
1.700979e+003;7.173731e-002
1.702908e+003;7.369307e-002
1.704836e+003;7.552830e-002
1.706765e+003;7.729190e-002
1.708693e+003;7.943565e-002
1.710622e+003;8.222611e-002
1.712551e+003;8.497759e-002
1.714479e+003;8.734808e-002
1.716408e+003;8.946221e-002
1.718336e+003;9.170774e-002
1.720265e+003;9.415173e-002
1.722193e+003;9.608307e-002
1.724122e+003;9.757714e-002
1.726050e+003;9.884271e-002
1.727979e+003;1.001018e-001
1.729908e+003;1.013933e-001
1.731836e+003;1.018895e-001
1.733765e+003;1.015275e-001
1.735693e+003;1.013887e-001
1.737622e+003;1.009740e-001
1.739550e+003;9.959107e-002
1.741479e+003;9.727439e-002
1.743407e+003;9.472466e-002
1.745336e+003;9.219263e-002
1.747265e+003;8.961707e-002
1.749193e+003;8.648118e-002
1.751122e+003;8.261468e-002
1.753050e+003;7.933538e-002
1.754979e+003;7.643226e-002
1.756907e+003;7.328954e-002
1.758836e+003;7.039728e-002
1.760764e+003;6.734528e-002
1.762693e+003;6.411249e-002
1.764621e+003;6.096714e-002
1.766550e+003;5.814447e-002
1.768479e+003;5.563026e-002
1.770407e+003;5.334346e-002
1.772336e+003;5.104870e-002
1.774264e+003;4.900021e-002
1.776193e+003;4.748762e-002
1.778121e+003;4.629879e-002
1.780050e+003;4.514244e-002
1.781978e+003;4.391873e-002
1.783907e+003;4.274244e-002
1.785835e+003;4.179534e-002
1.787764e+003;4.115433e-002
1.789693e+003;4.049269e-002
1.791621e+003;3.975485e-002
1.793550e+003;3.918266e-002
1.795478e+003;3.872494e-002
1.797407e+003;3.810645e-002
1.799335e+003;3.782425e-002
1.801264e+003;3.759191e-002
1.803192e+003;3.705117e-002
1.805121e+003;3.663873e-002
1.807049e+003;3.622197e-002
1.808978e+003;3.598696e-002
1.810907e+003;3.572574e-002
1.812835e+003;3.528167e-002
1.814764e+003;3.499196e-002
1.816692e+003;3.476824e-002
1.818621e+003;3.474642e-002
1.820549e+003;3.455571e-002
1.822478e+003;3.413231e-002
1.824406e+003;3.423472e-002
1.826335e+003;3.422816e-002
1.828264e+003;3.386969e-002
1.830192e+003;3.364114e-002
1.832121e+003;3.349577e-002
1.834049e+003;3.325711e-002
1.835978e+003;3.309124e-002
1.837906e+003;3.303857e-002
1.839835e+003;3.308788e-002
1.841763e+003;3.293136e-002
1.843692e+003;3.259871e-002
1.845620e+003;3.253921e-002
1.847549e+003;3.261607e-002
1.849478e+003;3.235540e-002
1.851406e+003;3.194134e-002
1.853335e+003;3.173380e-002
1.855263e+003;3.171758e-002
1.857192e+003;3.170171e-002
1.859120e+003;3.145962e-002
1.861049e+003;3.123718e-002
1.862977e+003;3.144512e-002
1.864906e+003;3.142286e-002
1.866834e+003;3.132673e-002
1.868763e+003;3.130455e-002
1.870692e+003;3.131139e-002
1.872620e+003;3.156048e-002
1.874549e+003;3.164280e-002
1.876477e+003;3.147744e-002
1.878406e+003;3.128799e-002
1.880334e+003;3.089283e-002
1.882263e+003;3.093044e-002
1.884191e+003;3.112461e-002
1.886120e+003;3.109784e-002
1.888048e+003;3.103538e-002
1.889977e+003;3.095745e-002
1.891906e+003;3.105086e-002
1.893834e+003;3.123910e-002
1.895763e+003;3.127403e-002
1.897691e+003;3.133970e-002
1.899620e+003;3.130472e-002
1.901548e+003;3.141328e-002
1.903477e+003;3.139155e-002
1.905405e+003;3.140666e-002
1.907334e+003;3.158350e-002
1.909262e+003;3.162872e-002
1.911191e+003;3.164964e-002
1.913120e+003;3.158389e-002
1.915048e+003;3.164690e-002
1.916977e+003;3.192390e-002
1.918905e+003;3.221214e-002
1.920834e+003;3.240352e-002
1.922762e+003;3.257057e-002
1.924691e+003;3.254553e-002
1.926619e+003;3.258014e-002
1.928548e+003;3.258331e-002
1.930477e+003;3.263093e-002
1.932405e+003;3.271884e-002
1.934334e+003;3.266400e-002
1.936262e+003;3.258549e-002
1.938191e+003;3.274489e-002
1.940119e+003;3.308734e-002
1.942048e+003;3.315947e-002
1.943976e+003;3.331124e-002
1.945905e+003;3.361175e-002
1.947833e+003;3.361186e-002
1.949762e+003;3.357198e-002
1.951691e+003;3.358884e-002
1.953619e+003;3.353296e-002
1.955548e+003;3.354409e-002
1.957476e+003;3.373417e-002
1.959405e+003;3.379537e-002
1.961333e+003;3.385304e-002
1.963262e+003;3.379236e-002
1.965190e+003;3.375297e-002
1.967119e+003;3.406619e-002
1.969047e+003;3.404411e-002
1.970976e+003;3.383549e-002
1.972905e+003;3.397793e-002
1.974833e+003;3.392601e-002
1.976762e+003;3.397549e-002
1.978690e+003;3.414317e-002
1.980619e+003;3.434369e-002
1.982547e+003;3.446417e-002
1.984476e+003;3.466914e-002
1.986404e+003;3.464474e-002
1.988333e+003;3.446008e-002
1.990261e+003;3.454754e-002
1.992190e+003;3.467312e-002
1.994119e+003;3.464912e-002
1.996047e+003;3.492273e-002
1.997976e+003;3.524333e-002
1.999904e+003;3.502960e-002
2.001833e+003;3.490581e-002
2.003761e+003;3.510076e-002
2.005690e+003;3.545831e-002
2.007618e+003;3.571203e-002
2.009547e+003;3.561563e-002
2.011476e+003;3.575020e-002
2.013404e+003;3.631667e-002
2.015333e+003;3.655589e-002
2.017261e+003;3.652966e-002
2.019190e+003;3.677614e-002
2.021118e+003;3.706080e-002
2.023047e+003;3.710519e-002
2.024975e+003;3.711728e-002
2.026904e+003;3.722986e-002
2.028833e+003;3.732254e-002
2.030761e+003;3.743084e-002
2.032690e+003;3.734193e-002
2.034618e+003;3.750636e-002
2.036547e+003;3.803440e-002
2.038475e+003;3.829875e-002
2.040404e+003;3.847224e-002
2.042332e+003;3.855320e-002
2.044261e+003;3.829282e-002
2.046189e+003;3.833838e-002
2.048118e+003;3.854023e-002
2.050047e+003;3.858311e-002
2.051975e+003;3.857413e-002
2.053904e+003;3.860983e-002
2.055832e+003;3.871690e-002
2.057761e+003;3.874606e-002
2.059689e+003;3.870118e-002
2.061618e+003;3.878562e-002
2.063546e+003;3.853241e-002
2.065475e+003;3.844161e-002
2.067404e+003;3.868596e-002
2.069332e+003;3.871823e-002
2.071260e+003;3.861729e-002
2.073189e+003;3.864373e-002
2.075118e+003;3.863931e-002
2.077046e+003;3.858094e-002
2.078975e+003;3.852966e-002
2.080903e+003;3.862620e-002
2.082832e+003;3.895984e-002
2.084760e+003;3.929261e-002
2.086689e+003;3.929051e-002
2.088617e+003;3.918157e-002
2.090546e+003;3.925261e-002
2.092475e+003;3.922704e-002
2.094403e+003;3.919212e-002
2.096332e+003;3.914603e-002
2.098260e+003;3.918914e-002
2.100189e+003;3.949669e-002
2.102117e+003;3.962612e-002
2.104046e+003;3.960416e-002
2.105974e+003;3.968914e-002
2.107903e+003;4.003428e-002
2.109832e+003;4.023271e-002
2.111760e+003;4.008140e-002
2.113688e+003;3.995061e-002
2.115617e+003;3.984103e-002
2.117546e+003;3.982919e-002
2.119474e+003;3.974647e-002
2.121403e+003;3.979294e-002
2.123331e+003;4.010870e-002
2.125260e+003;4.036122e-002
2.127188e+003;4.022093e-002
2.129117e+003;4.008587e-002
2.131045e+003;4.045610e-002
2.132974e+003;4.071571e-002
2.134903e+003;4.040297e-002
2.136831e+003;4.020770e-002
2.138760e+003;4.012563e-002
2.140688e+003;4.011738e-002
2.142617e+003;4.018033e-002
2.144545e+003;4.017978e-002
2.146474e+003;3.985098e-002
2.148402e+003;3.978401e-002
2.150331e+003;3.998439e-002
2.152260e+003;4.008133e-002
2.154188e+003;3.979211e-002
2.156117e+003;3.958230e-002
2.158045e+003;3.964122e-002
2.159974e+003;3.949851e-002
2.161902e+003;3.929378e-002
2.163831e+003;3.931166e-002
2.165759e+003;3.947503e-002
2.167688e+003;3.950410e-002
2.169616e+003;3.949814e-002
2.171545e+003;3.929911e-002
2.173474e+003;3.884120e-002
2.175402e+003;3.867162e-002
2.177331e+003;3.866220e-002
2.179259e+003;3.847456e-002
2.181188e+003;3.808142e-002
2.183116e+003;3.783014e-002
2.185045e+003;3.760745e-002
2.186973e+003;3.759119e-002
2.188902e+003;3.763697e-002
2.190831e+003;3.742260e-002
2.192759e+003;3.754668e-002
2.194688e+003;3.748631e-002
2.196616e+003;3.709559e-002
2.198545e+003;3.697384e-002
2.200473e+003;3.721870e-002
2.202402e+003;3.724921e-002
2.204330e+003;3.701212e-002
2.206259e+003;3.709700e-002
2.208188e+003;3.722903e-002
2.210116e+003;3.714222e-002
2.212044e+003;3.694235e-002
2.213973e+003;3.688744e-002
2.215902e+003;3.720604e-002
2.217830e+003;3.734427e-002
2.219759e+003;3.723697e-002
2.221687e+003;3.695382e-002
2.223616e+003;3.680416e-002
2.225544e+003;3.711111e-002
2.227473e+003;3.743326e-002
2.229401e+003;3.743441e-002
2.231330e+003;3.739487e-002
2.233259e+003;3.721279e-002
2.235187e+003;3.713536e-002
2.237116e+003;3.724192e-002
2.239044e+003;3.733449e-002
2.240973e+003;3.754047e-002
2.242901e+003;3.770038e-002
2.244830e+003;3.758674e-002
2.246758e+003;3.748090e-002
2.248687e+003;3.718185e-002
2.250615e+003;3.706365e-002
2.252544e+003;3.722000e-002
2.254473e+003;3.714684e-002
2.256401e+003;3.696414e-002
2.258330e+003;3.699870e-002
2.260258e+003;3.705824e-002
2.262187e+003;3.693672e-002
2.264115e+003;3.687540e-002
2.266044e+003;3.686201e-002
2.267972e+003;3.674196e-002
2.269901e+003;3.687583e-002
2.271830e+003;3.706397e-002
2.273758e+003;3.695025e-002
2.275687e+003;3.687269e-002
2.277615e+003;3.668877e-002
2.279544e+003;3.639438e-002
2.281472e+003;3.653575e-002
2.283401e+003;3.656559e-002
2.285329e+003;3.621887e-002
2.287258e+003;3.621595e-002
2.289187e+003;3.650364e-002
2.291115e+003;3.640050e-002
2.293043e+003;3.631627e-002
2.294972e+003;3.624167e-002
2.296901e+003;3.612592e-002
2.298829e+003;3.634289e-002
2.300758e+003;3.663624e-002
2.302686e+003;3.655251e-002
2.304615e+003;3.656429e-002
2.306543e+003;3.651264e-002
2.308472e+003;3.639877e-002
2.310400e+003;3.642280e-002
2.312329e+003;3.621081e-002
2.314258e+003;3.583356e-002
2.316186e+003;3.604855e-002
2.318115e+003;3.632592e-002
2.320043e+003;3.628828e-002
2.321972e+003;3.617087e-002
2.323900e+003;3.608722e-002
2.325829e+003;3.616424e-002
2.327757e+003;3.619510e-002
2.329686e+003;3.604394e-002
2.331615e+003;3.584598e-002
2.333543e+003;3.585732e-002
2.335472e+003;3.580071e-002
2.337400e+003;3.585796e-002
2.339329e+003;3.603411e-002
2.341257e+003;3.620976e-002
2.343186e+003;3.664118e-002
2.345114e+003;3.713081e-002
2.347043e+003;3.732875e-002
2.348971e+003;3.716712e-002
2.350900e+003;3.697244e-002
2.352829e+003;3.686833e-002
2.354757e+003;3.664266e-002
2.356686e+003;3.652501e-002
2.358614e+003;3.654032e-002
2.360543e+003;3.664522e-002
2.362471e+003;3.707260e-002
2.364400e+003;3.760604e-002
2.366328e+003;3.773981e-002
2.368257e+003;3.786199e-002
2.370186e+003;3.806688e-002
2.372114e+003;3.840950e-002
2.374042e+003;3.863779e-002
2.375971e+003;3.879616e-002
2.377900e+003;3.898210e-002
2.379828e+003;3.906612e-002
2.381757e+003;3.956387e-002
2.383685e+003;4.007581e-002
2.385614e+003;3.998385e-002
2.387542e+003;3.989351e-002
2.389471e+003;3.980979e-002
2.391399e+003;3.978227e-002
2.393328e+003;4.007843e-002
2.395257e+003;4.038857e-002
2.397185e+003;4.061273e-002
2.399114e+003;4.085922e-002
2.401042e+003;4.099276e-002
2.402971e+003;4.110508e-002
2.404899e+003;4.108035e-002
2.406828e+003;4.110122e-002
2.408756e+003;4.120861e-002
2.410685e+003;4.134091e-002
2.412614e+003;4.163248e-002
2.414542e+003;4.183146e-002
2.416471e+003;4.196450e-002
2.418399e+003;4.217564e-002
2.420328e+003;4.228275e-002
2.422256e+003;4.220594e-002
2.424185e+003;4.224582e-002
2.426113e+003;4.253731e-002
2.428042e+003;4.274642e-002
2.429970e+003;4.271027e-002
2.431899e+003;4.259034e-002
2.433828e+003;4.259505e-002
2.435756e+003;4.275622e-002
2.437685e+003;4.297302e-002
2.439613e+003;4.321729e-002
2.441542e+003;4.351624e-002
2.443470e+003;4.355829e-002
2.445399e+003;4.362262e-002
2.447327e+003;4.365852e-002
2.449256e+003;4.364925e-002
2.451185e+003;4.393702e-002
2.453113e+003;4.414428e-002
2.455042e+003;4.393655e-002
2.456970e+003;4.369656e-002
2.458899e+003;4.402630e-002
2.460827e+003;4.463368e-002
2.462756e+003;4.510462e-002
2.464684e+003;4.510289e-002
2.466613e+003;4.480670e-002
2.468542e+003;4.484605e-002
2.470470e+003;4.520042e-002
2.472398e+003;4.555082e-002
2.474327e+003;4.551468e-002
2.476256e+003;4.542889e-002
2.478184e+003;4.553816e-002
2.480113e+003;4.581430e-002
2.482041e+003;4.610959e-002
2.483970e+003;4.590503e-002
2.485898e+003;4.573831e-002
2.487827e+003;4.611545e-002
2.489755e+003;4.649137e-002
2.491684e+003;4.642182e-002
2.493613e+003;4.626507e-002
2.495541e+003;4.644829e-002
2.497470e+003;4.683222e-002
2.499398e+003;4.677833e-002
2.501327e+003;4.687451e-002
2.503255e+003;4.731833e-002
2.505184e+003;4.729424e-002
2.507112e+003;4.709278e-002
2.509041e+003;4.724071e-002
2.510969e+003;4.732705e-002
2.512898e+003;4.756414e-002
2.514827e+003;4.797695e-002
2.516755e+003;4.802095e-002
2.518684e+003;4.784050e-002
2.520612e+003;4.799708e-002
2.522541e+003;4.804763e-002
2.524469e+003;4.818592e-002
2.526398e+003;4.833226e-002
2.528326e+003;4.829330e-002
2.530255e+003;4.821343e-002
2.532184e+003;4.831367e-002
2.534112e+003;4.844086e-002
2.536041e+003;4.828697e-002
2.537969e+003;4.795937e-002
2.539898e+003;4.806806e-002
2.541826e+003;4.870276e-002
2.543755e+003;4.894372e-002
2.545683e+003;4.895748e-002
2.547612e+003;4.869164e-002
2.549541e+003;4.857446e-002
2.551469e+003;4.887883e-002
2.553397e+003;4.910753e-002
2.555326e+003;4.934704e-002
2.557255e+003;4.939189e-002
2.559183e+003;4.913153e-002
2.561112e+003;4.917368e-002
2.563040e+003;4.925529e-002
2.564969e+003;4.909725e-002
2.566897e+003;4.905874e-002
2.568826e+003;4.929630e-002
2.570754e+003;4.935272e-002
2.572683e+003;4.949871e-002
2.574612e+003;4.949637e-002
2.576540e+003;4.923662e-002
2.578469e+003;4.932666e-002
2.580397e+003;4.965938e-002
2.582326e+003;4.996663e-002
2.584254e+003;5.013893e-002
2.586183e+003;5.004478e-002
2.588111e+003;4.995016e-002
2.590040e+003;5.002931e-002
2.591969e+003;5.021033e-002
2.593897e+003;5.026357e-002
2.595826e+003;5.021811e-002
2.597754e+003;5.038991e-002
2.599683e+003;5.048559e-002
2.601611e+003;5.041622e-002
2.603540e+003;5.040982e-002
2.605468e+003;5.055955e-002
2.607397e+003;5.090189e-002
2.609325e+003;5.117572e-002
2.611254e+003;5.145532e-002
2.613183e+003;5.136622e-002
2.615111e+003;5.114315e-002
2.617040e+003;5.132769e-002
2.618968e+003;5.176534e-002
2.620897e+003;5.193025e-002
2.622825e+003;5.177247e-002
2.624754e+003;5.174817e-002
2.626682e+003;5.178691e-002
2.628611e+003;5.195389e-002
2.630540e+003;5.225701e-002
2.632468e+003;5.256453e-002
2.634396e+003;5.262299e-002
2.636325e+003;5.252631e-002
2.638254e+003;5.255851e-002
2.640182e+003;5.251932e-002
2.642111e+003;5.271302e-002
2.644039e+003;5.316165e-002
2.645968e+003;5.334050e-002
2.647896e+003;5.343125e-002
2.649825e+003;5.354649e-002
2.651753e+003;5.388929e-002
2.653682e+003;5.409865e-002
2.655611e+003;5.382796e-002
2.657539e+003;5.364354e-002
2.659468e+003;5.380546e-002
2.661396e+003;5.421054e-002
2.663325e+003;5.446460e-002
2.665253e+003;5.445116e-002
2.667182e+003;5.452384e-002
2.669110e+003;5.464527e-002
2.671039e+003;5.480782e-002
2.672968e+003;5.498724e-002
2.674896e+003;5.515534e-002
2.676825e+003;5.530344e-002
2.678753e+003;5.554195e-002
2.680682e+003;5.584424e-002
2.682610e+003;5.580079e-002
2.684539e+003;5.583350e-002
2.686467e+003;5.593057e-002
2.688396e+003;5.625866e-002
2.690324e+003;5.656819e-002
2.692253e+003;5.666725e-002
2.694182e+003;5.666154e-002
2.696110e+003;5.699831e-002
2.698039e+003;5.731646e-002
2.699967e+003;5.725510e-002
2.701896e+003;5.729608e-002
2.703824e+003;5.751901e-002
2.705753e+003;5.755904e-002
2.707681e+003;5.767080e-002
2.709610e+003;5.798521e-002
2.711539e+003;5.810935e-002
2.713467e+003;5.823634e-002
2.715396e+003;5.847245e-002
2.717324e+003;5.840714e-002
2.719253e+003;5.857804e-002
2.721181e+003;5.881346e-002
2.723110e+003;5.897375e-002
2.725038e+003;5.880102e-002
2.726967e+003;5.851919e-002
2.728896e+003;5.867880e-002
2.730824e+003;5.891257e-002
2.732752e+003;5.894934e-002
2.734681e+003;5.919055e-002
2.736610e+003;5.946362e-002
2.738538e+003;5.953027e-002
2.740467e+003;5.939987e-002
2.742395e+003;5.942905e-002
2.744324e+003;5.971276e-002
2.746252e+003;5.981793e-002
2.748181e+003;5.977271e-002
2.750109e+003;5.990148e-002
2.752038e+003;5.979321e-002
2.753967e+003;5.957200e-002
2.755895e+003;5.972530e-002
2.757824e+003;6.011015e-002
2.759752e+003;6.046079e-002
2.761681e+003;6.074613e-002
2.763609e+003;6.097781e-002
2.765538e+003;6.072928e-002
2.767466e+003;6.052554e-002
2.769395e+003;6.075577e-002
2.771323e+003;6.098174e-002
2.773252e+003;6.108649e-002
2.775181e+003;6.104668e-002
2.777109e+003;6.126922e-002
2.779038e+003;6.162309e-002
2.780966e+003;6.185172e-002
2.782895e+003;6.197591e-002
2.784823e+003;6.186170e-002
2.786752e+003;6.176978e-002
2.788680e+003;6.193105e-002
2.790609e+003;6.235595e-002
2.792538e+003;6.292284e-002
2.794466e+003;6.328891e-002
2.796395e+003;6.338479e-002
2.798323e+003;6.362759e-002
2.800252e+003;6.402874e-002
2.802180e+003;6.424416e-002
2.804109e+003;6.412324e-002
2.806037e+003;6.433510e-002
2.807966e+003;6.467737e-002
2.809895e+003;6.509781e-002
2.811823e+003;6.535786e-002
2.813751e+003;6.545035e-002
2.815680e+003;6.561530e-002
2.817609e+003;6.600949e-002
2.819537e+003;6.641373e-002
2.821466e+003;6.688293e-002
2.823394e+003;6.731847e-002
2.825323e+003;6.764684e-002
2.827251e+003;6.809791e-002
2.829180e+003;6.876671e-002
2.831108e+003;6.942379e-002
2.833037e+003;6.991298e-002
2.834966e+003;7.072268e-002
2.836894e+003;7.175682e-002
2.838823e+003;7.228524e-002
2.840751e+003;7.278685e-002
2.842680e+003;7.361786e-002
2.844608e+003;7.440311e-002
2.846537e+003;7.524250e-002
2.848465e+003;7.589021e-002
2.850394e+003;7.649595e-002
2.852323e+003;7.749214e-002
2.854251e+003;7.860290e-002
2.856180e+003;7.924402e-002
2.858108e+003;7.987338e-002
2.860037e+003;8.053385e-002
2.861965e+003;8.121227e-002
2.863894e+003;8.226615e-002
2.865822e+003;8.323173e-002
2.867751e+003;8.366182e-002
2.869679e+003;8.409160e-002
2.871608e+003;8.462020e-002
2.873536e+003;8.492650e-002
2.875465e+003;8.544180e-002
2.877394e+003;8.631680e-002
2.879322e+003;8.659777e-002
2.881251e+003;8.649889e-002
2.883179e+003;8.701363e-002
2.885108e+003;8.772613e-002
2.887036e+003;8.779601e-002
2.888965e+003;8.767901e-002
2.890893e+003;8.746385e-002
2.892822e+003;8.736967e-002
2.894750e+003;8.759436e-002
2.896679e+003;8.774868e-002
2.898608e+003;8.793612e-002
2.900536e+003;8.812907e-002
2.902465e+003;8.788265e-002
2.904393e+003;8.750073e-002
2.906322e+003;8.740882e-002
2.908250e+003;8.724008e-002
2.910179e+003;8.663583e-002
2.912107e+003;8.608332e-002
2.914036e+003;8.586854e-002
2.915965e+003;8.540698e-002
2.917893e+003;8.506532e-002
2.919822e+003;8.477801e-002
2.921750e+003;8.410845e-002
2.923679e+003;8.407290e-002
2.925607e+003;8.397998e-002
2.927536e+003;8.313654e-002
2.929464e+003;8.259348e-002
2.931393e+003;8.219212e-002
2.933322e+003;8.164747e-002
2.935250e+003;8.134487e-002
2.937178e+003;8.106876e-002
2.939107e+003;8.090686e-002
2.941036e+003;8.077363e-002
2.942964e+003;7.991066e-002
2.944893e+003;7.901288e-002
2.946821e+003;7.838825e-002
2.948750e+003;7.792351e-002
2.950678e+003;7.735160e-002
2.952607e+003;7.648959e-002
2.954535e+003;7.547133e-002
2.956464e+003;7.445959e-002
2.958393e+003;7.346389e-002
2.960321e+003;7.305817e-002
2.962250e+003;7.266446e-002
2.964178e+003;7.195280e-002
2.966107e+003;7.096677e-002
2.968035e+003;7.004362e-002
2.969964e+003;6.979133e-002
2.971892e+003;6.956202e-002
2.973821e+003;6.904365e-002
2.975750e+003;6.840418e-002
2.977678e+003;6.795143e-002
2.979607e+003;6.774023e-002
2.981535e+003;6.728505e-002
2.983464e+003;6.663977e-002
2.985392e+003;6.622123e-002
2.987321e+003;6.584832e-002
2.989249e+003;6.533317e-002
2.991178e+003;6.520845e-002
2.993106e+003;6.551773e-002
2.995035e+003;6.516198e-002
2.996964e+003;6.485219e-002
2.998892e+003;6.493952e-002
3.000821e+003;6.505108e-002
3.002749e+003;6.516310e-002
3.004678e+003;6.479021e-002
3.006606e+003;6.406345e-002
3.008535e+003;6.370912e-002
3.010463e+003;6.384025e-002
3.012392e+003;6.384189e-002
3.014321e+003;6.421892e-002
3.016249e+003;6.451735e-002
3.018177e+003;6.480341e-002
3.020106e+003;6.490639e-002
3.022035e+003;6.476079e-002
3.023963e+003;6.487515e-002
3.025892e+003;6.506629e-002
3.027820e+003;6.515036e-002
3.029749e+003;6.521380e-002
3.031677e+003;6.522886e-002
3.033606e+003;6.547762e-002
3.035534e+003;6.569022e-002
3.037463e+003;6.562462e-002
3.039392e+003;6.560632e-002
3.041320e+003;6.577372e-002
3.043249e+003;6.604702e-002
3.045177e+003;6.639076e-002
3.047106e+003;6.694346e-002
3.049034e+003;6.713992e-002
3.050963e+003;6.730358e-002
3.052891e+003;6.748486e-002
3.054820e+003;6.749044e-002
3.056749e+003;6.761667e-002
3.058677e+003;6.801350e-002
3.060606e+003;6.865823e-002
3.062534e+003;6.922983e-002
3.064463e+003;6.943743e-002
3.066391e+003;6.935234e-002
3.068320e+003;6.962833e-002
3.070248e+003;6.981849e-002
3.072177e+003;6.980674e-002
3.074105e+003;6.993672e-002
3.076034e+003;7.015058e-002
3.077963e+003;7.055328e-002
3.079891e+003;7.121275e-002
3.081820e+003;7.170464e-002
3.083748e+003;7.203333e-002
3.085677e+003;7.222279e-002
3.087605e+003;7.238955e-002
3.089534e+003;7.281368e-002
3.091462e+003;7.331844e-002
3.093391e+003;7.358269e-002
3.095320e+003;7.379524e-002
3.097248e+003;7.386480e-002
3.099177e+003;7.391126e-002
3.101105e+003;7.444960e-002
3.103034e+003;7.512061e-002
3.104962e+003;7.569823e-002
3.106891e+003;7.613607e-002
3.108819e+003;7.649990e-002
3.110748e+003;7.678985e-002
3.112677e+003;7.680018e-002
3.114605e+003;7.698595e-002
3.116533e+003;7.745638e-002
3.118462e+003;7.794096e-002
3.120391e+003;7.834305e-002
3.122319e+003;7.908594e-002
3.124248e+003;7.925058e-002
3.126176e+003;7.927281e-002
3.128105e+003;7.984491e-002
3.130033e+003;8.018923e-002
3.131962e+003;8.045692e-002
3.133890e+003;8.084036e-002
3.135819e+003;8.125521e-002
3.137748e+003;8.194344e-002
3.139676e+003;8.245621e-002
3.141605e+003;8.266622e-002
3.143533e+003;8.310012e-002
3.145462e+003;8.355798e-002
3.147390e+003;8.406526e-002
3.149319e+003;8.486868e-002
3.151247e+003;8.534253e-002
3.153176e+003;8.583325e-002
3.155104e+003;8.606741e-002
3.157033e+003;8.620874e-002
3.158962e+003;8.660270e-002
3.160890e+003;8.707295e-002
3.162819e+003;8.744192e-002
3.164747e+003;8.789307e-002
3.166676e+003;8.846816e-002
3.168604e+003;8.902945e-002
3.170533e+003;8.936887e-002
3.172461e+003;8.968351e-002
3.174390e+003;9.030580e-002
3.176319e+003;9.114894e-002
3.178247e+003;9.159320e-002
3.180176e+003;9.192694e-002
3.182104e+003;9.274366e-002
3.184033e+003;9.340741e-002
3.185961e+003;9.387426e-002
3.187890e+003;9.444654e-002
3.189818e+003;9.487435e-002
3.191747e+003;9.489352e-002
3.193676e+003;9.507360e-002
3.195604e+003;9.566340e-002
3.197532e+003;9.639699e-002
3.199461e+003;9.687547e-002
3.201390e+003;9.728608e-002
3.203318e+003;9.755184e-002
3.205247e+003;9.787109e-002
3.207175e+003;9.884474e-002
3.209104e+003;9.921221e-002
3.211032e+003;9.930928e-002
3.212961e+003;9.996960e-002
3.214889e+003;1.006191e-001
3.216818e+003;1.013085e-001
3.218747e+003;1.023480e-001
3.220675e+003;1.027761e-001
3.222604e+003;1.028563e-001
3.224532e+003;1.034335e-001
3.226461e+003;1.040806e-001
3.228389e+003;1.045684e-001
3.230318e+003;1.051411e-001
3.232246e+003;1.055190e-001
3.234175e+003;1.061154e-001
3.236104e+003;1.067681e-001
3.238032e+003;1.073007e-001
3.239961e+003;1.079611e-001
3.241889e+003;1.084779e-001
3.243818e+003;1.086627e-001
3.245746e+003;1.092314e-001
3.247675e+003;1.106010e-001
3.249603e+003;1.112492e-001
3.251532e+003;1.112410e-001
3.253460e+003;1.119714e-001
3.255389e+003;1.128575e-001
3.257318e+003;1.131126e-001
3.259246e+003;1.132289e-001
3.261175e+003;1.136062e-001
3.263103e+003;1.141323e-001
3.265032e+003;1.145412e-001
3.266960e+003;1.152957e-001
3.268889e+003;1.160005e-001
3.270817e+003;1.164451e-001
3.272746e+003;1.170562e-001
3.274675e+003;1.175027e-001
3.276603e+003;1.175108e-001
3.278531e+003;1.177579e-001
3.280460e+003;1.182022e-001
3.282389e+003;1.184648e-001
3.284317e+003;1.186242e-001
3.286246e+003;1.186965e-001
3.288174e+003;1.189356e-001
3.290103e+003;1.191795e-001
3.292031e+003;1.195410e-001
3.293960e+003;1.195086e-001
3.295888e+003;1.190571e-001
3.297817e+003;1.196587e-001
3.299746e+003;1.200417e-001
3.301674e+003;1.204176e-001
3.303603e+003;1.209647e-001
3.305531e+003;1.212381e-001
3.307460e+003;1.211058e-001
3.309388e+003;1.210663e-001
3.311317e+003;1.216904e-001
3.313245e+003;1.222452e-001
3.315174e+003;1.222140e-001
3.317103e+003;1.217562e-001
3.319031e+003;1.219122e-001
3.320960e+003;1.225952e-001
3.322888e+003;1.230512e-001
3.324817e+003;1.232908e-001
3.326745e+003;1.232696e-001
3.328674e+003;1.227625e-001
3.330602e+003;1.225363e-001
3.332531e+003;1.229569e-001
3.334459e+003;1.229960e-001
3.336388e+003;1.226602e-001
3.338317e+003;1.229402e-001
3.340245e+003;1.230620e-001
3.342174e+003;1.228748e-001
3.344102e+003;1.230026e-001
3.346031e+003;1.233318e-001
3.347959e+003;1.230226e-001
3.349888e+003;1.224271e-001
3.351816e+003;1.220502e-001
3.353745e+003;1.216983e-001
3.355674e+003;1.216246e-001
3.357602e+003;1.217753e-001
3.359531e+003;1.219666e-001
3.361459e+003;1.217203e-001
3.363388e+003;1.210272e-001
3.365316e+003;1.204112e-001
3.367245e+003;1.201546e-001
3.369173e+003;1.205450e-001
3.371102e+003;1.207461e-001
3.373031e+003;1.201720e-001
3.374959e+003;1.194111e-001
3.376887e+003;1.188533e-001
3.378816e+003;1.189921e-001
3.380745e+003;1.187341e-001
3.382673e+003;1.184307e-001
3.384602e+003;1.184208e-001
3.386530e+003;1.183977e-001
3.388459e+003;1.182477e-001
3.390387e+003;1.176736e-001
3.392316e+003;1.169935e-001
3.394244e+003;1.166136e-001
3.396173e+003;1.163503e-001
3.398102e+003;1.165947e-001
3.400030e+003;1.169572e-001
3.401959e+003;1.161046e-001
3.403887e+003;1.149961e-001
3.405816e+003;1.147567e-001
3.407744e+003;1.143182e-001
3.409673e+003;1.135067e-001
3.411601e+003;1.130317e-001
3.413530e+003;1.126431e-001
3.415458e+003;1.126891e-001
3.417387e+003;1.127040e-001
3.419316e+003;1.116252e-001
3.421244e+003;1.106012e-001
3.423173e+003;1.106130e-001
3.425101e+003;1.102945e-001
3.427030e+003;1.098491e-001
3.428958e+003;1.092008e-001
3.430887e+003;1.086874e-001
3.432815e+003;1.082551e-001
3.434744e+003;1.072803e-001
3.436673e+003;1.067168e-001
3.438601e+003;1.065400e-001
3.440530e+003;1.061780e-001
3.442458e+003;1.058604e-001
3.444387e+003;1.046859e-001
3.446315e+003;1.032573e-001
3.448244e+003;1.027506e-001
3.450172e+003;1.029002e-001
3.452101e+003;1.027185e-001
3.454030e+003;1.015741e-001
3.455958e+003;1.005313e-001
3.457886e+003;9.978552e-002
3.459815e+003;9.905227e-002
3.461744e+003;9.886722e-002
3.463672e+003;9.864993e-002
3.465601e+003;9.780394e-002
3.467529e+003;9.695226e-002
3.469458e+003;9.575500e-002
3.471386e+003;9.488788e-002
3.473315e+003;9.476278e-002
3.475243e+003;9.477127e-002
3.477172e+003;9.396517e-002
3.479101e+003;9.263381e-002
3.481029e+003;9.184931e-002
3.482958e+003;9.118516e-002
3.484886e+003;9.068456e-002
3.486815e+003;8.977982e-002
3.488743e+003;8.899365e-002
3.490672e+003;8.833369e-002
3.492600e+003;8.787408e-002
3.494529e+003;8.756948e-002
3.496458e+003;8.710375e-002
3.498386e+003;8.601191e-002
3.500315e+003;8.455429e-002
3.502243e+003;8.380180e-002
3.504172e+003;8.377572e-002
3.506100e+003;8.362614e-002
3.508029e+003;8.232606e-002
3.509957e+003;8.134379e-002
3.511886e+003;8.078022e-002
3.513814e+003;7.948125e-002
3.515743e+003;7.869460e-002
3.517672e+003;7.862689e-002
3.519600e+003;7.828984e-002
3.521529e+003;7.755793e-002
3.523457e+003;7.633381e-002
3.525386e+003;7.536700e-002
3.527314e+003;7.440567e-002
3.529243e+003;7.380141e-002
3.531171e+003;7.361437e-002
3.533100e+003;7.338663e-002
3.535029e+003;7.251463e-002
3.536957e+003;7.165028e-002
3.538885e+003;7.122560e-002
3.540814e+003;7.046208e-002
3.542743e+003;6.945138e-002
3.544671e+003;6.857692e-002
3.546600e+003;6.788301e-002
3.548528e+003;6.744558e-002
3.550457e+003;6.679489e-002
3.552385e+003;6.582261e-002
3.554314e+003;6.481168e-002
3.556242e+003;6.428073e-002
3.558171e+003;6.391913e-002
3.560100e+003;6.305782e-002
3.562028e+003;6.185314e-002
3.563957e+003;6.112330e-002
3.565885e+003;6.094251e-002
3.567814e+003;6.042941e-002
3.569742e+003;6.000163e-002
3.571671e+003;5.909366e-002
3.573599e+003;5.805989e-002
3.575528e+003;5.766603e-002
3.577457e+003;5.736142e-002
3.579385e+003;5.703061e-002
3.581314e+003;5.639563e-002
3.583242e+003;5.567934e-002
3.585171e+003;5.504971e-002
3.587099e+003;5.462314e-002
3.589028e+003;5.386824e-002
3.590956e+003;5.301570e-002
3.592885e+003;5.283653e-002
3.594813e+003;5.265332e-002
3.596742e+003;5.226396e-002
3.598671e+003;5.162904e-002
3.600599e+003;5.106055e-002
3.602528e+003;5.074158e-002
3.604456e+003;5.037808e-002
3.606385e+003;4.961625e-002
3.608313e+003;4.866418e-002
3.610242e+003;4.830863e-002
3.612170e+003;4.803272e-002
3.614099e+003;4.765883e-002
3.616028e+003;4.730639e-002
3.617956e+003;4.672258e-002
3.619885e+003;4.616685e-002
3.621813e+003;4.593251e-002
3.623742e+003;4.556521e-002
3.625670e+003;4.507091e-002
3.627599e+003;4.429638e-002
3.629527e+003;4.345918e-002
3.631456e+003;4.313052e-002
3.633385e+003;4.276511e-002
3.635313e+003;4.227672e-002
3.637241e+003;4.184525e-002
3.639170e+003;4.140257e-002
3.641099e+003;4.104480e-002
3.643027e+003;4.062430e-002
3.644956e+003;3.970743e-002
3.646884e+003;3.874993e-002
3.648813e+003;3.845316e-002
3.650741e+003;3.835311e-002
3.652670e+003;3.812982e-002
3.654598e+003;3.752540e-002
3.656527e+003;3.629757e-002
3.658456e+003;3.549969e-002
3.660384e+003;3.502084e-002
3.662313e+003;3.463893e-002
3.664241e+003;3.454427e-002
3.666170e+003;3.393361e-002
3.668098e+003;3.271291e-002
3.670027e+003;3.161853e-002
3.671955e+003;3.105275e-002
3.673884e+003;3.080301e-002
3.675813e+003;3.026955e-002
3.677741e+003;2.986751e-002
3.679669e+003;2.932190e-002
3.681598e+003;2.861879e-002
3.683527e+003;2.858272e-002
3.685455e+003;2.853962e-002
3.687384e+003;2.774462e-002
3.689312e+003;2.679073e-002
3.691241e+003;2.636606e-002
3.693169e+003;2.654470e-002
3.695098e+003;2.619044e-002
3.697026e+003;2.572750e-002
3.698955e+003;2.573256e-002
3.700884e+003;2.564946e-002
3.702812e+003;2.543454e-002
3.704741e+003;2.545593e-002
3.706669e+003;2.474435e-002
3.708598e+003;2.397135e-002
3.710526e+003;2.388655e-002
3.712455e+003;2.370182e-002
3.714383e+003;2.420482e-002
3.716312e+003;2.459323e-002
3.718240e+003;2.408015e-002
3.720169e+003;2.382256e-002
3.722098e+003;2.397411e-002
3.724026e+003;2.330155e-002
3.725955e+003;2.256060e-002
3.727883e+003;2.265436e-002
3.729812e+003;2.253945e-002
3.731740e+003;2.208321e-002
3.733669e+003;2.208911e-002
3.735597e+003;2.255320e-002
3.737526e+003;2.291960e-002
3.739455e+003;2.299502e-002
3.741383e+003;2.259739e-002
3.743312e+003;2.224957e-002
3.745240e+003;2.229760e-002
3.747169e+003;2.265324e-002
3.749097e+003;2.290832e-002
3.751026e+003;2.317613e-002
3.752954e+003;2.283756e-002
3.754883e+003;2.261051e-002
3.756812e+003;2.247057e-002
3.758740e+003;2.215305e-002
3.760668e+003;2.187392e-002
3.762597e+003;2.207366e-002
3.764526e+003;2.235114e-002
3.766454e+003;2.209168e-002
3.768383e+003;2.187290e-002
3.770311e+003;2.204187e-002
3.772240e+003;2.194065e-002
3.774168e+003;2.153963e-002
3.776097e+003;2.139122e-002
3.778025e+003;2.162299e-002
3.779954e+003;2.196477e-002
3.781883e+003;2.205107e-002
3.783811e+003;2.171094e-002
3.785740e+003;2.191256e-002
3.787668e+003;2.164480e-002
3.789597e+003;2.161457e-002
3.791525e+003;2.204794e-002
3.793454e+003;2.207464e-002
3.795382e+003;2.187214e-002
3.797311e+003;2.187486e-002
3.799240e+003;2.144936e-002
3.801168e+003;2.095684e-002
3.803097e+003;2.116399e-002
3.805025e+003;2.143435e-002
3.806954e+003;2.162798e-002
3.808882e+003;2.196334e-002
3.810811e+003;2.207771e-002
3.812739e+003;2.174577e-002
3.814668e+003;2.144312e-002
3.816596e+003;2.145419e-002
3.818525e+003;2.146398e-002
3.820454e+003;2.111811e-002
3.822382e+003;2.102058e-002
3.824311e+003;2.148591e-002
3.826239e+003;2.170833e-002
3.828168e+003;2.166608e-002
3.830096e+003;2.150930e-002
3.832025e+003;2.152048e-002
3.833953e+003;2.189144e-002
3.835882e+003;2.221948e-002
3.837811e+003;2.240564e-002
3.839739e+003;2.210615e-002
3.841667e+003;2.151345e-002
3.843596e+003;2.159259e-002
3.845525e+003;2.232104e-002
3.847453e+003;2.283508e-002
3.849382e+003;2.283910e-002
3.851310e+003;2.266870e-002
3.853239e+003;2.251185e-002
3.855167e+003;2.212564e-002
3.857096e+003;2.213070e-002
3.859024e+003;2.226272e-002
3.860953e+003;2.274872e-002
3.862882e+003;2.305798e-002
3.864810e+003;2.269510e-002
3.866739e+003;2.248753e-002
3.868667e+003;2.254664e-002
3.870596e+003;2.253917e-002
3.872524e+003;2.250051e-002
3.874453e+003;2.274607e-002
3.876381e+003;2.341116e-002
3.878310e+003;2.315569e-002
3.880239e+003;2.266193e-002
3.882167e+003;2.306633e-002
3.884096e+003;2.326470e-002
3.886024e+003;2.342113e-002
3.887953e+003;2.377934e-002
3.889881e+003;2.390441e-002
3.891810e+003;2.370444e-002
3.893738e+003;2.325680e-002
3.895667e+003;2.334459e-002
3.897595e+003;2.398644e-002
3.899524e+003;2.408278e-002
3.901453e+003;2.396984e-002
3.903381e+003;2.424539e-002
3.905310e+003;2.480689e-002
3.907238e+003;2.511979e-002
3.909167e+003;2.535936e-002
3.911095e+003;2.511042e-002
3.913024e+003;2.452994e-002
3.914952e+003;2.413742e-002
3.916881e+003;2.403389e-002
3.918810e+003;2.464516e-002
3.920738e+003;2.507163e-002
3.922667e+003;2.516751e-002
3.924595e+003;2.502319e-002
3.926524e+003;2.508374e-002
3.928452e+003;2.529793e-002
3.930381e+003;2.538557e-002
3.932309e+003;2.539719e-002
3.934238e+003;2.556282e-002
3.936167e+003;2.587824e-002
3.938095e+003;2.595921e-002
3.940023e+003;2.572261e-002
3.941952e+003;2.530738e-002
3.943881e+003;2.581354e-002
3.945809e+003;2.641560e-002
3.947738e+003;2.611780e-002
3.949666e+003;2.610485e-002
3.951595e+003;2.625956e-002
3.953523e+003;2.657753e-002
3.955452e+003;2.682833e-002
3.957380e+003;2.689284e-002
3.959309e+003;2.637500e-002
3.961238e+003;2.593610e-002
3.963166e+003;2.638838e-002
3.965095e+003;2.630976e-002
3.967023e+003;2.652036e-002
3.968952e+003;2.723360e-002
3.970880e+003;2.729580e-002
3.972809e+003;2.734566e-002
3.974737e+003;2.725558e-002
3.976666e+003;2.690937e-002
3.978594e+003;2.725043e-002
3.980523e+003;2.768381e-002
3.982452e+003;2.804717e-002
3.984380e+003;2.765594e-002
3.986309e+003;2.694420e-002
3.988237e+003;2.647423e-002
3.990166e+003;2.727498e-002
3.992094e+003;2.812359e-002
3.994023e+003;2.788904e-002
3.995951e+003;2.770023e-002
3.997880e+003;2.748238e-002
3.999809e+003;2.745203e-002
4.001737e+003;0.000000e+000
