3.992094e+002;0.000000e+000
4.011380e+002;0.000000e+000
4.030665e+002;0.000000e+000
4.049951e+002;0.000000e+000
4.069236e+002;0.000000e+000
4.088522e+002;0.000000e+000
4.107807e+002;0.000000e+000
4.127093e+002;0.000000e+000
4.146378e+002;0.000000e+000
4.165664e+002;0.000000e+000
4.184949e+002;0.000000e+000
4.204235e+002;0.000000e+000
4.223520e+002;0.000000e+000
4.242806e+002;0.000000e+000
4.262091e+002;0.000000e+000
4.281377e+002;0.000000e+000
4.300662e+002;0.000000e+000
4.319948e+002;0.000000e+000
4.339233e+002;0.000000e+000
4.358519e+002;0.000000e+000
4.377804e+002;0.000000e+000
4.397090e+002;0.000000e+000
4.416375e+002;0.000000e+000
4.435660e+002;0.000000e+000
4.454946e+002;0.000000e+000
4.474232e+002;0.000000e+000
4.493517e+002;0.000000e+000
4.512802e+002;0.000000e+000
4.532088e+002;0.000000e+000
4.551373e+002;0.000000e+000
4.570659e+002;0.000000e+000
4.589944e+002;0.000000e+000
4.609230e+002;0.000000e+000
4.628515e+002;0.000000e+000
4.647801e+002;0.000000e+000
4.667086e+002;0.000000e+000
4.686372e+002;0.000000e+000
4.705657e+002;0.000000e+000
4.724943e+002;0.000000e+000
4.744228e+002;0.000000e+000
4.763513e+002;0.000000e+000
4.782799e+002;0.000000e+000
4.802085e+002;0.000000e+000
4.821370e+002;0.000000e+000
4.840656e+002;0.000000e+000
4.859941e+002;0.000000e+000
4.879226e+002;0.000000e+000
4.898512e+002;0.000000e+000
4.917798e+002;0.000000e+000
4.937083e+002;0.000000e+000
4.956368e+002;0.000000e+000
4.975654e+002;0.000000e+000
4.994939e+002;0.000000e+000
5.014225e+002;0.000000e+000
5.033510e+002;0.000000e+000
5.052796e+002;0.000000e+000
5.072081e+002;0.000000e+000
5.091367e+002;0.000000e+000
5.110652e+002;0.000000e+000
5.129938e+002;0.000000e+000
5.149223e+002;0.000000e+000
5.168509e+002;0.000000e+000
5.187794e+002;0.000000e+000
5.207079e+002;0.000000e+000
5.226365e+002;0.000000e+000
5.245651e+002;0.000000e+000
5.264936e+002;0.000000e+000
5.284222e+002;0.000000e+000
5.303507e+002;0.000000e+000
5.322792e+002;0.000000e+000
5.342078e+002;0.000000e+000
5.361364e+002;0.000000e+000
5.380649e+002;0.000000e+000
5.399935e+002;0.000000e+000
5.419220e+002;0.000000e+000
5.438505e+002;0.000000e+000
5.457791e+002;0.000000e+000
5.477076e+002;0.000000e+000
5.496362e+002;0.000000e+000
5.515648e+002;0.000000e+000
5.534933e+002;0.000000e+000
5.554218e+002;0.000000e+000
5.573504e+002;0.000000e+000
5.592789e+002;0.000000e+000
5.612075e+002;0.000000e+000
5.631360e+002;0.000000e+000
5.650646e+002;0.000000e+000
5.669931e+002;0.000000e+000
5.689217e+002;0.000000e+000
5.708502e+002;0.000000e+000
5.727787e+002;0.000000e+000
5.747073e+002;0.000000e+000
5.766359e+002;0.000000e+000
5.785644e+002;0.000000e+000
5.804930e+002;0.000000e+000
5.824215e+002;0.000000e+000
5.843500e+002;0.000000e+000
5.862786e+002;0.000000e+000
5.882072e+002;0.000000e+000
5.901357e+002;0.000000e+000
5.920643e+002;0.000000e+000
5.939928e+002;0.000000e+000
5.959213e+002;0.000000e+000
5.978499e+002;0.000000e+000
5.997784e+002;2.626618e-001
6.017070e+002;2.515654e-001
6.036355e+002;2.561294e-001
6.055641e+002;2.576927e-001
6.074926e+002;2.524728e-001
6.094211e+002;2.474634e-001
6.113497e+002;2.509221e-001
6.132783e+002;2.535004e-001
6.152068e+002;2.463632e-001
6.171354e+002;2.399830e-001
6.190639e+002;2.433504e-001
6.209924e+002;2.443069e-001
6.229210e+002;2.362102e-001
6.248495e+002;2.296335e-001
6.267781e+002;2.307068e-001
6.287067e+002;2.320125e-001
6.306352e+002;2.331488e-001
6.325637e+002;2.303916e-001
6.344923e+002;2.224583e-001
6.364208e+002;2.216128e-001
6.383494e+002;2.239515e-001
6.402780e+002;2.190379e-001
6.422065e+002;2.168199e-001
6.441350e+002;2.168918e-001
6.460636e+002;2.107293e-001
6.479921e+002;2.110262e-001
6.499207e+002;2.160183e-001
6.518492e+002;2.189941e-001
6.537778e+002;2.208507e-001
6.557063e+002;2.218537e-001
6.576349e+002;2.214739e-001
6.595634e+002;2.232639e-001
6.614919e+002;2.263445e-001
6.634205e+002;2.286174e-001
6.653491e+002;2.268260e-001
6.672776e+002;2.220840e-001
6.692062e+002;2.180342e-001
6.711347e+002;2.161522e-001
6.730632e+002;2.152151e-001
6.749918e+002;2.130012e-001
6.769203e+002;2.086154e-001
6.788489e+002;2.044011e-001
6.807775e+002;2.009494e-001
6.827060e+002;1.980065e-001
6.846345e+002;1.965776e-001
6.865631e+002;1.963381e-001
6.884916e+002;1.952352e-001
6.904202e+002;1.936920e-001
6.923488e+002;1.914251e-001
6.942773e+002;1.905611e-001
6.962058e+002;1.902534e-001
6.981344e+002;1.894648e-001
7.000629e+002;1.886507e-001
7.019915e+002;1.881196e-001
7.039200e+002;1.878915e-001
7.058486e+002;1.864429e-001
7.077771e+002;1.848504e-001
7.097057e+002;1.839346e-001
7.116342e+002;1.827178e-001
7.135627e+002;1.807073e-001
7.154913e+002;1.781760e-001
7.174199e+002;1.763127e-001
7.193484e+002;1.760680e-001
7.212770e+002;1.749163e-001
7.232055e+002;1.705690e-001
7.251340e+002;1.666735e-001
7.270626e+002;1.662788e-001
7.289911e+002;1.648315e-001
7.309197e+002;1.618361e-001
7.328483e+002;1.612651e-001
7.347768e+002;1.601467e-001
7.367053e+002;1.575244e-001
7.386339e+002;1.543588e-001
7.405624e+002;1.513434e-001
7.424910e+002;1.503242e-001
7.444196e+002;1.496172e-001
7.463481e+002;1.479888e-001
7.482766e+002;1.476811e-001
7.502052e+002;1.480915e-001
7.521337e+002;1.472525e-001
7.540623e+002;1.455493e-001
7.559908e+002;1.440327e-001
7.579194e+002;1.433875e-001
7.598479e+002;1.422587e-001
7.617765e+002;1.404515e-001
7.637050e+002;1.404635e-001
7.656335e+002;1.410870e-001
7.675621e+002;1.401834e-001
7.694907e+002;1.394752e-001
7.714192e+002;1.391759e-001
7.733478e+002;1.373419e-001
7.752763e+002;1.354079e-001
7.772048e+002;1.351091e-001
7.791334e+002;1.360770e-001
7.810620e+002;1.356710e-001
7.829905e+002;1.350824e-001
7.849191e+002;1.344105e-001
7.868476e+002;1.328011e-001
7.887761e+002;1.328669e-001
7.907047e+002;1.330804e-001
7.926332e+002;1.323738e-001
7.945618e+002;1.320499e-001
7.964903e+002;1.323865e-001
7.984189e+002;1.333622e-001
8.003474e+002;1.331296e-001
8.022759e+002;1.323189e-001
8.042045e+002;1.321646e-001
8.061331e+002;1.327078e-001
8.080616e+002;1.330275e-001
8.099902e+002;1.333535e-001
8.119187e+002;1.341712e-001
8.138472e+002;1.351245e-001
8.157758e+002;1.359247e-001
8.177043e+002;1.373923e-001
8.196329e+002;1.386428e-001
8.215615e+002;1.390269e-001
8.234900e+002;1.393219e-001
8.254185e+002;1.386718e-001
8.273471e+002;1.382397e-001
8.292756e+002;1.383451e-001
8.312042e+002;1.388295e-001
8.331328e+002;1.398285e-001
8.350613e+002;1.393559e-001
8.369898e+002;1.381409e-001
8.389184e+002;1.368390e-001
8.408469e+002;1.361978e-001
8.427755e+002;1.364441e-001
8.447040e+002;1.365448e-001
8.466326e+002;1.359650e-001
8.485611e+002;1.353826e-001
8.504897e+002;1.354078e-001
8.524182e+002;1.356330e-001
8.543467e+002;1.355457e-001
8.562753e+002;1.359956e-001
8.582039e+002;1.371294e-001
8.601324e+002;1.383023e-001
8.620610e+002;1.392278e-001
8.639895e+002;1.407972e-001
8.659180e+002;1.427134e-001
8.678466e+002;1.447653e-001
8.697751e+002;1.473397e-001
8.717037e+002;1.498909e-001
8.736323e+002;1.517140e-001
8.755608e+002;1.532778e-001
8.774893e+002;1.553639e-001
8.794179e+002;1.580436e-001
8.813464e+002;1.611246e-001
8.832750e+002;1.640266e-001
8.852036e+002;1.674122e-001
8.871321e+002;1.714511e-001
8.890606e+002;1.752128e-001
8.909892e+002;1.783158e-001
8.929177e+002;1.816133e-001
8.948463e+002;1.841831e-001
8.967748e+002;1.849564e-001
8.987034e+002;1.839602e-001
9.006319e+002;1.822778e-001
9.025605e+002;1.802462e-001
9.044890e+002;1.780226e-001
9.064175e+002;1.759240e-001
9.083461e+002;1.741448e-001
9.102747e+002;1.731623e-001
9.122032e+002;1.726139e-001
9.141318e+002;1.714336e-001
9.160603e+002;1.705030e-001
9.179888e+002;1.706155e-001
9.199174e+002;1.710084e-001
9.218459e+002;1.717424e-001
9.237745e+002;1.722339e-001
9.257031e+002;1.728711e-001
9.276316e+002;1.742507e-001
9.295601e+002;1.750051e-001
9.314887e+002;1.757452e-001
9.334172e+002;1.770662e-001
9.353458e+002;1.787636e-001
9.372744e+002;1.805463e-001
9.392029e+002;1.826285e-001
9.411314e+002;1.856113e-001
9.430600e+002;1.897122e-001
9.449885e+002;1.936689e-001
9.469171e+002;1.976144e-001
9.488456e+002;2.023932e-001
9.507742e+002;2.077772e-001
9.527027e+002;2.141061e-001
9.546313e+002;2.206462e-001
9.565598e+002;2.264615e-001
9.584883e+002;2.321781e-001
9.604169e+002;2.382914e-001
9.623455e+002;2.443345e-001
9.642740e+002;2.503933e-001
9.662026e+002;2.566604e-001
9.681311e+002;2.632053e-001
9.700596e+002;2.700102e-001
9.719882e+002;2.779517e-001
9.739167e+002;2.868192e-001
9.758453e+002;2.966746e-001
9.777739e+002;3.068811e-001
9.797024e+002;3.176355e-001
9.816309e+002;3.287223e-001
9.835595e+002;3.383960e-001
9.854880e+002;3.456040e-001
9.874166e+002;3.513392e-001
9.893452e+002;3.553740e-001
9.912737e+002;3.585557e-001
9.932022e+002;3.616713e-001
9.951307e+002;3.654694e-001
9.970593e+002;3.702508e-001
9.989879e+002;3.753349e-001
1.000916e+003;3.808458e-001
1.002845e+003;3.856985e-001
1.004773e+003;3.899197e-001
1.006702e+003;3.961734e-001
1.008631e+003;4.036399e-001
1.010559e+003;4.101084e-001
1.012488e+003;4.159054e-001
1.014416e+003;4.219872e-001
1.016345e+003;4.280627e-001
1.018273e+003;4.343489e-001
1.020202e+003;4.387407e-001
1.022130e+003;4.428214e-001
1.024059e+003;4.470955e-001
1.025988e+003;4.498130e-001
1.027916e+003;4.514602e-001
1.029845e+003;4.526034e-001
1.031773e+003;4.524996e-001
1.033702e+003;4.503901e-001
1.035630e+003;4.465223e-001
1.037559e+003;4.421342e-001
1.039487e+003;4.368306e-001
1.041416e+003;4.316419e-001
1.043344e+003;4.280031e-001
1.045273e+003;4.250191e-001
1.047202e+003;4.226163e-001
1.049130e+003;4.205897e-001
1.051059e+003;4.183150e-001
1.052987e+003;4.147632e-001
1.054916e+003;4.085139e-001
1.056844e+003;4.006357e-001
1.058773e+003;3.920702e-001
1.060701e+003;3.827929e-001
1.062630e+003;3.722250e-001
1.064558e+003;3.610116e-001
1.066487e+003;3.499471e-001
1.068416e+003;3.407381e-001
1.070344e+003;3.334002e-001
1.072273e+003;3.262466e-001
1.074201e+003;3.197610e-001
1.076130e+003;3.149852e-001
1.078058e+003;3.093223e-001
1.079987e+003;3.028351e-001
1.081915e+003;2.984882e-001
1.083844e+003;2.956706e-001
1.085773e+003;2.928939e-001
1.087701e+003;2.905157e-001
1.089630e+003;2.885661e-001
1.091558e+003;2.872207e-001
1.093487e+003;2.862377e-001
1.095415e+003;2.856157e-001
1.097344e+003;2.849427e-001
1.099272e+003;2.833891e-001
1.101201e+003;2.818409e-001
1.103129e+003;2.798188e-001
1.105058e+003;2.760338e-001
1.106987e+003;2.712739e-001
1.108915e+003;2.657419e-001
1.110844e+003;2.596100e-001
1.112772e+003;2.529796e-001
1.114701e+003;2.461716e-001
1.116629e+003;2.390686e-001
1.118558e+003;2.316173e-001
1.120486e+003;2.245731e-001
1.122415e+003;2.184921e-001
1.124344e+003;2.126722e-001
1.126272e+003;2.067605e-001
1.128201e+003;2.005660e-001
1.130129e+003;1.943139e-001
1.132058e+003;1.880069e-001
1.133986e+003;1.822289e-001
1.135915e+003;1.779619e-001
1.137843e+003;1.753394e-001
1.139772e+003;1.735475e-001
1.141700e+003;1.722971e-001
1.143629e+003;1.720576e-001
1.145557e+003;1.728636e-001
1.147486e+003;1.739917e-001
1.149415e+003;1.750114e-001
1.151343e+003;1.757975e-001
1.153272e+003;1.760851e-001
1.155200e+003;1.761444e-001
1.157129e+003;1.756309e-001
1.159057e+003;1.741212e-001
1.160986e+003;1.716064e-001
1.162914e+003;1.673106e-001
1.164843e+003;1.614995e-001
1.166771e+003;1.548530e-001
1.168700e+003;1.483745e-001
1.170629e+003;1.419126e-001
1.172557e+003;1.361033e-001
1.174486e+003;1.313476e-001
1.176414e+003;1.274386e-001
1.178343e+003;1.243275e-001
1.180271e+003;1.220094e-001
1.182200e+003;1.203795e-001
1.184128e+003;1.193386e-001
1.186057e+003;1.186767e-001
1.187986e+003;1.184778e-001
1.189914e+003;1.196295e-001
1.191843e+003;1.214412e-001
1.193771e+003;1.238636e-001
1.195700e+003;1.271084e-001
1.197628e+003;1.302077e-001
1.199557e+003;1.328893e-001
1.201485e+003;1.355972e-001
1.203414e+003;1.383659e-001
1.205343e+003;1.411546e-001
1.207271e+003;1.433363e-001
1.209200e+003;1.451266e-001
1.211128e+003;1.472045e-001
1.213057e+003;1.505919e-001
1.214985e+003;1.548613e-001
1.216914e+003;1.592805e-001
1.218842e+003;1.639769e-001
1.220771e+003;1.685962e-001
1.222699e+003;1.732967e-001
1.224628e+003;1.776774e-001
1.226557e+003;1.808982e-001
1.228485e+003;1.835542e-001
1.230414e+003;1.860363e-001
1.232342e+003;1.878848e-001
1.234271e+003;1.892155e-001
1.236199e+003;1.898223e-001
1.238128e+003;1.899203e-001
1.240056e+003;1.893547e-001
1.241985e+003;1.881453e-001
1.243913e+003;1.865478e-001
1.245842e+003;1.848644e-001
1.247771e+003;1.830258e-001
1.249699e+003;1.802182e-001
1.251628e+003;1.771174e-001
1.253556e+003;1.745638e-001
1.255485e+003;1.717217e-001
1.257413e+003;1.685629e-001
1.259342e+003;1.655886e-001
1.261270e+003;1.625123e-001
1.263199e+003;1.595420e-001
1.265127e+003;1.567358e-001
1.267056e+003;1.532341e-001
1.268985e+003;1.496862e-001
1.270913e+003;1.467074e-001
1.272842e+003;1.441802e-001
1.274770e+003;1.420329e-001
1.276699e+003;1.397162e-001
1.278627e+003;1.372425e-001
1.280556e+003;1.349017e-001
1.282484e+003;1.328031e-001
1.284413e+003;1.306277e-001
1.286342e+003;1.291113e-001
1.288270e+003;1.282876e-001
1.290199e+003;1.275346e-001
1.292127e+003;1.272979e-001
1.294056e+003;1.276623e-001
1.295984e+003;1.284763e-001
1.297913e+003;1.295351e-001
1.299841e+003;1.312586e-001
1.301770e+003;1.334208e-001
1.303698e+003;1.358087e-001
1.305627e+003;1.382640e-001
1.307556e+003;1.408706e-001
1.309484e+003;1.439515e-001
1.311413e+003;1.468557e-001
1.313341e+003;1.495629e-001
1.315270e+003;1.516341e-001
1.317198e+003;1.522648e-001
1.319127e+003;1.515696e-001
1.321055e+003;1.504304e-001
1.322984e+003;1.494599e-001
1.324912e+003;1.485804e-001
1.326841e+003;1.478705e-001
1.328770e+003;1.476906e-001
1.330698e+003;1.478127e-001
1.332627e+003;1.480768e-001
1.334555e+003;1.479675e-001
1.336484e+003;1.469560e-001
1.338412e+003;1.453245e-001
1.340341e+003;1.437213e-001
1.342269e+003;1.426028e-001
1.344198e+003;1.412037e-001
1.346126e+003;1.397735e-001
1.348055e+003;1.391041e-001
1.349984e+003;1.385918e-001
1.351912e+003;1.387724e-001
1.353841e+003;1.398074e-001
1.355769e+003;1.411982e-001
1.357698e+003;1.432350e-001
1.359626e+003;1.455413e-001
1.361555e+003;1.473660e-001
1.363483e+003;1.485887e-001
1.365412e+003;1.490812e-001
1.367341e+003;1.493998e-001
1.369269e+003;1.494316e-001
1.371198e+003;1.485332e-001
1.373126e+003;1.469973e-001
1.375055e+003;1.445974e-001
1.376983e+003;1.416243e-001
1.378912e+003;1.384977e-001
1.380840e+003;1.352347e-001
1.382769e+003;1.320693e-001
1.384698e+003;1.291583e-001
1.386626e+003;1.262491e-001
1.388555e+003;1.238650e-001
1.390483e+003;1.227164e-001
1.392412e+003;1.221418e-001
1.394340e+003;1.216170e-001
1.396269e+003;1.215074e-001
1.398197e+003;1.217719e-001
1.400126e+003;1.222553e-001
1.402054e+003;1.228902e-001
1.403983e+003;1.237072e-001
1.405911e+003;1.252112e-001
1.407840e+003;1.269574e-001
1.409769e+003;1.283413e-001
1.411697e+003;1.297870e-001
1.413626e+003;1.315393e-001
1.415554e+003;1.332604e-001
1.417483e+003;1.346483e-001
1.419411e+003;1.357819e-001
1.421340e+003;1.368487e-001
1.423268e+003;1.370456e-001
1.425197e+003;1.366290e-001
1.427125e+003;1.361813e-001
1.429054e+003;1.348686e-001
1.430983e+003;1.328059e-001
1.432911e+003;1.310160e-001
1.434840e+003;1.289425e-001
1.436768e+003;1.266592e-001
1.438697e+003;1.251201e-001
1.440625e+003;1.238259e-001
1.442554e+003;1.227560e-001
1.444482e+003;1.221391e-001
1.446411e+003;1.213260e-001
1.448340e+003;1.204461e-001
1.450268e+003;1.198037e-001
1.452197e+003;1.193915e-001
1.454125e+003;1.184972e-001
1.456054e+003;1.170935e-001
1.457982e+003;1.159524e-001
1.459911e+003;1.151720e-001
1.461839e+003;1.138917e-001
1.463768e+003;1.115764e-001
1.465697e+003;1.088987e-001
1.467625e+003;1.059522e-001
1.469554e+003;1.026043e-001
1.471482e+003;9.911000e-002
1.473411e+003;9.561764e-002
1.475339e+003;9.245967e-002
1.477268e+003;8.970486e-002
1.479196e+003;8.791092e-002
1.481125e+003;8.649708e-002
1.483053e+003;8.468748e-002
1.484982e+003;8.286154e-002
1.486911e+003;8.145797e-002
1.488839e+003;8.057190e-002
1.490768e+003;8.060350e-002
1.492696e+003;8.116601e-002
1.494625e+003;8.166418e-002
1.496553e+003;8.201195e-002
1.498482e+003;8.250777e-002
1.500410e+003;8.286555e-002
1.502339e+003;8.333103e-002
1.504267e+003;8.312663e-002
1.506196e+003;8.211465e-002
1.508125e+003;8.175433e-002
1.510053e+003;8.108266e-002
1.511982e+003;7.938044e-002
1.513910e+003;7.772521e-002
1.515839e+003;7.603071e-002
1.517767e+003;7.460324e-002
1.519696e+003;7.335348e-002
1.521624e+003;7.232019e-002
1.523553e+003;7.184771e-002
1.525481e+003;7.159839e-002
1.527410e+003;7.152224e-002
1.529339e+003;7.136600e-002
1.531267e+003;7.120475e-002
1.533196e+003;7.117567e-002
1.535124e+003;7.109523e-002
1.537053e+003;7.060941e-002
1.538981e+003;6.980884e-002
1.540910e+003;7.005449e-002
1.542838e+003;7.093372e-002
1.544767e+003;7.162551e-002
1.546695e+003;7.228403e-002
1.548624e+003;7.283488e-002
1.550553e+003;7.375374e-002
1.552481e+003;7.450427e-002
1.554410e+003;7.468993e-002
1.556338e+003;7.488071e-002
1.558267e+003;7.503770e-002
1.560195e+003;7.624356e-002
1.562124e+003;7.840603e-002
1.564052e+003;7.999240e-002
1.565981e+003;8.141133e-002
1.567910e+003;8.277594e-002
1.569838e+003;8.429871e-002
1.571767e+003;8.678281e-002
1.573695e+003;8.947264e-002
1.575624e+003;9.184972e-002
1.577552e+003;9.513451e-002
1.579481e+003;9.902559e-002
1.581409e+003;1.033498e-001
1.583338e+003;1.082582e-001
1.585266e+003;1.132429e-001
1.587195e+003;1.176848e-001
1.589124e+003;1.214009e-001
1.591052e+003;1.238028e-001
1.592981e+003;1.254807e-001
1.594909e+003;1.265332e-001
1.596838e+003;1.266112e-001
1.598766e+003;1.260291e-001
1.600695e+003;1.251806e-001
1.602623e+003;1.245815e-001
1.604552e+003;1.241082e-001
1.606480e+003;1.236733e-001
1.608409e+003;1.232074e-001
1.610338e+003;1.230099e-001
1.612266e+003;1.227914e-001
1.614195e+003;1.222242e-001
1.616123e+003;1.211833e-001
1.618052e+003;1.205530e-001
1.619980e+003;1.200827e-001
1.621909e+003;1.191865e-001
1.623837e+003;1.183027e-001
1.625766e+003;1.175630e-001
1.627694e+003;1.169395e-001
1.629623e+003;1.161073e-001
1.631552e+003;1.152147e-001
1.633480e+003;1.142772e-001
1.635409e+003;1.129328e-001
1.637337e+003;1.121332e-001
1.639266e+003;1.116149e-001
1.641194e+003;1.106047e-001
1.643123e+003;1.097103e-001
1.645051e+003;1.085828e-001
1.646980e+003;1.072251e-001
1.648909e+003;1.059624e-001
1.650837e+003;1.041355e-001
1.652766e+003;1.022572e-001
1.654694e+003;1.014616e-001
1.656623e+003;1.004521e-001
1.658551e+003;9.891827e-002
1.660480e+003;9.720853e-002
1.662408e+003;9.556962e-002
1.664337e+003;9.435178e-002
1.666266e+003;9.297714e-002
1.668194e+003;9.127820e-002
1.670123e+003;8.982671e-002
1.672051e+003;8.846499e-002
1.673980e+003;8.696534e-002
1.675908e+003;8.574718e-002
1.677837e+003;8.460075e-002
1.679765e+003;8.328102e-002
1.681694e+003;8.165931e-002
1.683622e+003;8.003100e-002
1.685551e+003;7.944930e-002
1.687479e+003;7.977547e-002
1.689408e+003;7.994679e-002
1.691337e+003;8.001187e-002
1.693265e+003;8.006351e-002
1.695194e+003;8.018867e-002
1.697122e+003;8.110806e-002
1.699051e+003;8.218054e-002
1.700979e+003;8.336046e-002
1.702908e+003;8.563429e-002
1.704836e+003;8.839492e-002
1.706765e+003;9.112941e-002
1.708693e+003;9.363533e-002
1.710622e+003;9.626310e-002
1.712551e+003;9.893982e-002
1.714479e+003;1.016301e-001
1.716408e+003;1.044926e-001
1.718336e+003;1.074753e-001
1.720265e+003;1.102698e-001
1.722193e+003;1.126200e-001
1.724122e+003;1.146823e-001
1.726050e+003;1.164551e-001
1.727979e+003;1.180981e-001
1.729908e+003;1.193868e-001
1.731836e+003;1.198973e-001
1.733765e+003;1.197999e-001
1.735693e+003;1.198326e-001
1.737622e+003;1.191749e-001
1.739550e+003;1.174322e-001
1.741479e+003;1.154744e-001
1.743407e+003;1.127268e-001
1.745336e+003;1.092197e-001
1.747265e+003;1.054971e-001
1.749193e+003;1.015717e-001
1.751122e+003;9.724865e-002
1.753050e+003;9.332915e-002
1.754979e+003;8.970314e-002
1.756907e+003;8.589240e-002
1.758836e+003;8.200823e-002
1.760764e+003;7.813063e-002
1.762693e+003;7.416879e-002
1.764621e+003;7.058985e-002
1.766550e+003;6.740503e-002
1.768479e+003;6.441688e-002
1.770407e+003;6.154630e-002
1.772336e+003;5.904655e-002
1.774264e+003;5.713785e-002
1.776193e+003;5.532467e-002
1.778121e+003;5.386040e-002
1.780050e+003;5.263248e-002
1.781978e+003;5.138714e-002
1.783907e+003;5.025851e-002
1.785835e+003;4.896616e-002
1.787764e+003;4.795852e-002
1.789693e+003;4.716221e-002
1.791621e+003;4.659205e-002
1.793550e+003;4.603974e-002
1.795478e+003;4.550641e-002
1.797407e+003;4.513546e-002
1.799335e+003;4.476494e-002
1.801264e+003;4.442090e-002
1.803192e+003;4.418020e-002
1.805121e+003;4.376413e-002
1.807049e+003;4.345296e-002
1.808978e+003;4.307212e-002
1.810907e+003;4.263218e-002
1.812835e+003;4.252949e-002
1.814764e+003;4.235097e-002
1.816692e+003;4.183532e-002
1.818621e+003;4.157512e-002
1.820549e+003;4.144704e-002
1.822478e+003;4.119352e-002
1.824406e+003;4.094445e-002
1.826335e+003;4.081710e-002
1.828264e+003;4.064351e-002
1.830192e+003;4.048200e-002
1.832121e+003;4.041449e-002
1.834049e+003;4.017390e-002
1.835978e+003;3.991131e-002
1.837906e+003;3.973637e-002
1.839835e+003;3.971462e-002
1.841763e+003;3.947557e-002
1.843692e+003;3.908646e-002
1.845620e+003;3.899547e-002
1.847549e+003;3.880181e-002
1.849478e+003;3.868071e-002
1.851406e+003;3.848542e-002
1.853335e+003;3.840081e-002
1.855263e+003;3.842659e-002
1.857192e+003;3.832947e-002
1.859120e+003;3.829542e-002
1.861049e+003;3.839289e-002
1.862977e+003;3.833577e-002
1.864906e+003;3.815984e-002
1.866834e+003;3.796605e-002
1.868763e+003;3.775170e-002
1.870692e+003;3.795119e-002
1.872620e+003;3.813130e-002
1.874549e+003;3.809925e-002
1.876477e+003;3.791539e-002
1.878406e+003;3.772695e-002
1.880334e+003;3.777072e-002
1.882263e+003;3.773974e-002
1.884191e+003;3.764900e-002
1.886120e+003;3.762649e-002
1.888048e+003;3.741581e-002
1.889977e+003;3.736912e-002
1.891906e+003;3.741708e-002
1.893834e+003;3.749455e-002
1.895763e+003;3.761709e-002
1.897691e+003;3.769496e-002
1.899620e+003;3.773338e-002
1.901548e+003;3.761330e-002
1.903477e+003;3.758699e-002
1.905405e+003;3.765232e-002
1.907334e+003;3.765323e-002
1.909262e+003;3.792400e-002
1.911191e+003;3.830570e-002
1.913120e+003;3.812692e-002
1.915048e+003;3.805429e-002
1.916977e+003;3.824859e-002
1.918905e+003;3.840925e-002
1.920834e+003;3.857865e-002
1.922762e+003;3.881406e-002
1.924691e+003;3.909571e-002
1.926619e+003;3.935251e-002
1.928548e+003;3.940518e-002
1.930477e+003;3.924191e-002
1.932405e+003;3.902733e-002
1.934334e+003;3.917482e-002
1.936262e+003;3.935961e-002
1.938191e+003;3.958924e-002
1.940119e+003;3.980213e-002
1.942048e+003;3.992914e-002
1.943976e+003;3.984746e-002
1.945905e+003;3.984055e-002
1.947833e+003;4.006265e-002
1.949762e+003;3.999424e-002
1.951691e+003;3.998178e-002
1.953619e+003;4.014217e-002
1.955548e+003;4.018669e-002
1.957476e+003;4.029112e-002
1.959405e+003;4.042079e-002
1.961333e+003;4.050618e-002
1.963262e+003;4.034879e-002
1.965190e+003;4.021529e-002
1.967119e+003;4.032592e-002
1.969047e+003;4.060669e-002
1.970976e+003;4.079777e-002
1.972905e+003;4.071203e-002
1.974833e+003;4.049421e-002
1.976762e+003;4.050313e-002
1.978690e+003;4.066985e-002
1.980619e+003;4.074980e-002
1.982547e+003;4.099491e-002
1.984476e+003;4.117553e-002
1.986404e+003;4.129660e-002
1.988333e+003;4.150563e-002
1.990261e+003;4.154121e-002
1.992190e+003;4.152360e-002
1.994119e+003;4.164265e-002
1.996047e+003;4.171975e-002
1.997976e+003;4.191837e-002
1.999904e+003;4.211529e-002
2.001833e+003;4.214774e-002
2.003761e+003;4.218031e-002
2.005690e+003;4.224100e-002
2.007618e+003;4.232851e-002
2.009547e+003;4.255868e-002
2.011476e+003;4.276171e-002
2.013404e+003;4.310044e-002
2.015333e+003;4.349914e-002
2.017261e+003;4.351573e-002
2.019190e+003;4.354998e-002
2.021118e+003;4.364306e-002
2.023047e+003;4.385469e-002
2.024975e+003;4.422734e-002
2.026904e+003;4.439616e-002
2.028833e+003;4.462123e-002
2.030761e+003;4.473823e-002
2.032690e+003;4.494702e-002
2.034618e+003;4.509807e-002
2.036547e+003;4.498325e-002
2.038475e+003;4.512939e-002
2.040404e+003;4.539560e-002
2.042332e+003;4.537463e-002
2.044261e+003;4.528768e-002
2.046189e+003;4.555991e-002
2.048118e+003;4.595634e-002
2.050047e+003;4.596868e-002
2.051975e+003;4.579799e-002
2.053904e+003;4.580075e-002
2.055832e+003;4.599340e-002
2.057761e+003;4.616858e-002
2.059689e+003;4.610126e-002
2.061618e+003;4.608406e-002
2.063546e+003;4.625283e-002
2.065475e+003;4.631837e-002
2.067404e+003;4.629636e-002
2.069332e+003;4.624620e-002
2.071260e+003;4.618366e-002
2.073189e+003;4.621266e-002
2.075118e+003;4.624612e-002
2.077046e+003;4.612462e-002
2.078975e+003;4.590404e-002
2.080903e+003;4.596927e-002
2.082832e+003;4.613210e-002
2.084760e+003;4.604235e-002
2.086689e+003;4.619151e-002
2.088617e+003;4.640527e-002
2.090546e+003;4.663783e-002
2.092475e+003;4.668937e-002
2.094403e+003;4.666226e-002
2.096332e+003;4.685292e-002
2.098260e+003;4.679723e-002
2.100189e+003;4.671383e-002
2.102117e+003;4.672394e-002
2.104046e+003;4.705434e-002
2.105974e+003;4.727122e-002
2.107903e+003;4.726901e-002
2.109832e+003;4.733920e-002
2.111760e+003;4.732576e-002
2.113688e+003;4.730185e-002
2.115617e+003;4.742161e-002
2.117546e+003;4.758899e-002
2.119474e+003;4.748004e-002
2.121403e+003;4.735757e-002
2.123331e+003;4.764023e-002
2.125260e+003;4.770439e-002
2.127188e+003;4.754492e-002
2.129117e+003;4.757224e-002
2.131045e+003;4.757634e-002
2.132974e+003;4.759146e-002
2.134903e+003;4.749390e-002
2.136831e+003;4.743961e-002
2.138760e+003;4.760736e-002
2.140688e+003;4.777691e-002
2.142617e+003;4.790676e-002
2.144545e+003;4.763775e-002
2.146474e+003;4.735162e-002
2.148402e+003;4.722486e-002
2.150331e+003;4.700789e-002
2.152260e+003;4.702343e-002
2.154188e+003;4.725681e-002
2.156117e+003;4.716901e-002
2.158045e+003;4.684155e-002
2.159974e+003;4.662691e-002
2.161902e+003;4.656384e-002
2.163831e+003;4.644881e-002
2.165759e+003;4.635376e-002
2.167688e+003;4.603613e-002
2.169616e+003;4.588939e-002
2.171545e+003;4.585204e-002
2.173474e+003;4.548591e-002
2.175402e+003;4.524260e-002
2.177331e+003;4.532413e-002
2.179259e+003;4.534583e-002
2.181188e+003;4.527029e-002
2.183116e+003;4.521076e-002
2.185045e+003;4.508010e-002
2.186973e+003;4.491398e-002
2.188902e+003;4.469335e-002
2.190831e+003;4.466761e-002
2.192759e+003;4.459817e-002
2.194688e+003;4.440636e-002
2.196616e+003;4.435208e-002
2.198545e+003;4.452379e-002
2.200473e+003;4.469692e-002
2.202402e+003;4.453436e-002
2.204330e+003;4.421328e-002
2.206259e+003;4.407904e-002
2.208188e+003;4.407288e-002
2.210116e+003;4.405872e-002
2.212044e+003;4.399052e-002
2.213973e+003;4.376046e-002
2.215902e+003;4.378183e-002
2.217830e+003;4.398157e-002
2.219759e+003;4.402300e-002
2.221687e+003;4.405509e-002
2.223616e+003;4.411821e-002
2.225544e+003;4.411007e-002
2.227473e+003;4.417073e-002
2.229401e+003;4.410724e-002
2.231330e+003;4.397464e-002
2.233259e+003;4.415224e-002
2.235187e+003;4.440178e-002
2.237116e+003;4.457732e-002
2.239044e+003;4.462578e-002
2.240973e+003;4.434361e-002
2.242901e+003;4.413097e-002
2.244830e+003;4.425525e-002
2.246758e+003;4.424843e-002
2.248687e+003;4.416494e-002
2.250615e+003;4.401391e-002
2.252544e+003;4.374701e-002
2.254473e+003;4.378714e-002
2.256401e+003;4.407401e-002
2.258330e+003;4.405557e-002
2.260258e+003;4.390509e-002
2.262187e+003;4.392973e-002
2.264115e+003;4.387896e-002
2.266044e+003;4.373133e-002
2.267972e+003;4.373730e-002
2.269901e+003;4.392863e-002
2.271830e+003;4.377754e-002
2.273758e+003;4.350895e-002
2.275687e+003;4.343355e-002
2.277615e+003;4.329834e-002
2.279544e+003;4.317326e-002
2.281472e+003;4.354914e-002
2.283401e+003;4.374082e-002
2.285329e+003;4.350222e-002
2.287258e+003;4.310279e-002
2.289187e+003;4.322509e-002
2.291115e+003;4.333637e-002
2.293043e+003;4.303426e-002
2.294972e+003;4.296691e-002
2.296901e+003;4.288867e-002
2.298829e+003;4.289844e-002
2.300758e+003;4.278646e-002
2.302686e+003;4.284665e-002
2.304615e+003;4.309415e-002
2.306543e+003;4.314996e-002
2.308472e+003;4.304428e-002
2.310400e+003;4.296888e-002
2.312329e+003;4.274057e-002
2.314258e+003;4.244091e-002
2.316186e+003;4.237413e-002
2.318115e+003;4.243898e-002
2.320043e+003;4.241399e-002
2.321972e+003;4.206203e-002
2.323900e+003;4.188786e-002
2.325829e+003;4.205673e-002
2.327757e+003;4.201899e-002
2.329686e+003;4.164707e-002
2.331615e+003;4.179793e-002
2.333543e+003;4.197694e-002
2.335472e+003;4.180117e-002
2.337400e+003;4.186980e-002
2.339329e+003;4.209886e-002
2.341257e+003;4.217396e-002
2.343186e+003;4.239883e-002
2.345114e+003;4.297711e-002
2.347043e+003;4.359903e-002
2.348971e+003;4.387401e-002
2.350900e+003;4.386833e-002
2.352829e+003;4.359284e-002
2.354757e+003;4.321191e-002
2.356686e+003;4.273355e-002
2.358614e+003;4.228706e-002
2.360543e+003;4.257579e-002
2.362471e+003;4.297642e-002
2.364400e+003;4.308859e-002
2.366328e+003;4.344113e-002
2.368257e+003;4.370986e-002
2.370186e+003;4.391026e-002
2.372114e+003;4.459688e-002
2.374042e+003;4.515288e-002
2.375971e+003;4.539309e-002
2.377900e+003;4.566546e-002
2.379828e+003;4.592514e-002
2.381757e+003;4.620271e-002
2.383685e+003;4.650365e-002
2.385614e+003;4.670738e-002
2.387542e+003;4.693257e-002
2.389471e+003;4.735675e-002
2.391399e+003;4.748304e-002
2.393328e+003;4.730185e-002
2.395257e+003;4.751002e-002
2.397185e+003;4.784938e-002
2.399114e+003;4.795856e-002
2.401042e+003;4.802198e-002
2.402971e+003;4.789592e-002
2.404899e+003;4.796514e-002
2.406828e+003;4.829822e-002
2.408756e+003;4.838896e-002
2.410685e+003;4.846698e-002
2.412614e+003;4.821732e-002
2.414542e+003;4.820832e-002
2.416471e+003;4.856635e-002
2.418399e+003;4.897317e-002
2.420328e+003;4.927630e-002
2.422256e+003;4.932076e-002
2.424185e+003;4.936360e-002
2.426113e+003;4.959716e-002
2.428042e+003;4.976980e-002
2.429970e+003;4.989682e-002
2.431899e+003;5.002499e-002
2.433828e+003;5.034865e-002
2.435756e+003;5.053208e-002
2.437685e+003;5.064938e-002
2.439613e+003;5.062072e-002
2.441542e+003;5.083261e-002
2.443470e+003;5.122069e-002
2.445399e+003;5.121192e-002
2.447327e+003;5.123463e-002
2.449256e+003;5.157877e-002
2.451185e+003;5.178576e-002
2.453113e+003;5.171446e-002
2.455042e+003;5.175477e-002
2.456970e+003;5.177351e-002
2.458899e+003;5.181226e-002
2.460827e+003;5.190571e-002
2.462756e+003;5.182574e-002
2.464684e+003;5.197163e-002
2.466613e+003;5.229304e-002
2.468542e+003;5.243571e-002
2.470470e+003;5.259841e-002
2.472398e+003;5.280061e-002
2.474327e+003;5.307983e-002
2.476256e+003;5.312705e-002
2.478184e+003;5.320472e-002
2.480113e+003;5.348832e-002
2.482041e+003;5.359867e-002
2.483970e+003;5.393498e-002
2.485898e+003;5.442768e-002
2.487827e+003;5.448616e-002
2.489755e+003;5.382574e-002
2.491684e+003;5.339333e-002
2.493613e+003;5.367661e-002
2.495541e+003;5.419751e-002
2.497470e+003;5.436113e-002
2.499398e+003;5.453481e-002
2.501327e+003;5.475073e-002
2.503255e+003;5.492001e-002
2.505184e+003;5.491204e-002
2.507112e+003;5.485715e-002
2.509041e+003;5.507149e-002
2.510969e+003;5.521362e-002
2.512898e+003;5.547659e-002
2.514827e+003;5.562800e-002
2.516755e+003;5.565753e-002
2.518684e+003;5.602929e-002
2.520612e+003;5.603894e-002
2.522541e+003;5.589066e-002
2.524469e+003;5.605270e-002
2.526398e+003;5.606887e-002
2.528326e+003;5.591738e-002
2.530255e+003;5.577084e-002
2.532184e+003;5.567911e-002
2.534112e+003;5.613583e-002
2.536041e+003;5.636695e-002
2.537969e+003;5.628457e-002
2.539898e+003;5.633293e-002
2.541826e+003;5.639476e-002
2.543755e+003;5.633575e-002
2.545683e+003;5.627759e-002
2.547612e+003;5.671602e-002
2.549541e+003;5.693506e-002
2.551469e+003;5.677768e-002
2.553397e+003;5.681722e-002
2.555326e+003;5.720264e-002
2.557255e+003;5.740706e-002
2.559183e+003;5.721662e-002
2.561112e+003;5.721553e-002
2.563040e+003;5.747975e-002
2.564969e+003;5.768919e-002
2.566897e+003;5.765324e-002
2.568826e+003;5.716442e-002
2.570754e+003;5.705725e-002
2.572683e+003;5.740381e-002
2.574612e+003;5.744394e-002
2.576540e+003;5.740937e-002
2.578469e+003;5.736766e-002
2.580397e+003;5.740339e-002
2.582326e+003;5.758192e-002
2.584254e+003;5.784626e-002
2.586183e+003;5.789487e-002
2.588111e+003;5.777589e-002
2.590040e+003;5.791168e-002
2.591969e+003;5.818163e-002
2.593897e+003;5.852492e-002
2.595826e+003;5.865479e-002
2.597754e+003;5.835093e-002
2.599683e+003;5.825396e-002
2.601611e+003;5.847063e-002
2.603540e+003;5.880083e-002
2.605468e+003;5.902222e-002
2.607397e+003;5.934053e-002
2.609325e+003;5.962855e-002
2.611254e+003;5.961632e-002
2.613183e+003;5.954201e-002
2.615111e+003;5.951545e-002
2.617040e+003;5.963855e-002
2.618968e+003;5.994648e-002
2.620897e+003;6.011232e-002
2.622825e+003;6.008123e-002
2.624754e+003;6.005475e-002
2.626682e+003;6.035253e-002
2.628611e+003;6.089996e-002
2.630540e+003;6.080852e-002
2.632468e+003;6.063692e-002
2.634396e+003;6.083928e-002
2.636325e+003;6.118227e-002
2.638254e+003;6.133515e-002
2.640182e+003;6.145682e-002
2.642111e+003;6.169381e-002
2.644039e+003;6.194125e-002
2.645968e+003;6.235645e-002
2.647896e+003;6.269995e-002
2.649825e+003;6.275952e-002
2.651753e+003;6.266332e-002
2.653682e+003;6.264104e-002
2.655611e+003;6.246413e-002
2.657539e+003;6.263052e-002
2.659468e+003;6.301899e-002
2.661396e+003;6.318324e-002
2.663325e+003;6.297512e-002
2.665253e+003;6.293008e-002
2.667182e+003;6.321038e-002
2.669110e+003;6.363465e-002
2.671039e+003;6.394704e-002
2.672968e+003;6.404240e-002
2.674896e+003;6.388424e-002
2.676825e+003;6.403008e-002
2.678753e+003;6.456606e-002
2.680682e+003;6.464268e-002
2.682610e+003;6.483718e-002
2.684539e+003;6.529932e-002
2.686467e+003;6.544958e-002
2.688396e+003;6.534723e-002
2.690324e+003;6.548163e-002
2.692253e+003;6.572680e-002
2.694182e+003;6.588511e-002
2.696110e+003;6.592900e-002
2.698039e+003;6.603313e-002
2.699967e+003;6.629209e-002
2.701896e+003;6.674902e-002
2.703824e+003;6.696445e-002
2.705753e+003;6.699727e-002
2.707681e+003;6.698038e-002
2.709610e+003;6.686097e-002
2.711539e+003;6.708670e-002
2.713467e+003;6.746528e-002
2.715396e+003;6.759883e-002
2.717324e+003;6.786642e-002
2.719253e+003;6.797150e-002
2.721181e+003;6.803349e-002
2.723110e+003;6.809054e-002
2.725038e+003;6.821719e-002
2.726967e+003;6.843559e-002
2.728896e+003;6.851038e-002
2.730824e+003;6.841201e-002
2.732752e+003;6.856641e-002
2.734681e+003;6.884136e-002
2.736610e+003;6.884699e-002
2.738538e+003;6.892158e-002
2.740467e+003;6.885130e-002
2.742395e+003;6.894135e-002
2.744324e+003;6.891385e-002
2.746252e+003;6.883585e-002
2.748181e+003;6.903037e-002
2.750109e+003;6.905795e-002
2.752038e+003;6.907387e-002
2.753967e+003;6.937946e-002
2.755895e+003;6.956894e-002
2.757824e+003;6.956696e-002
2.759752e+003;6.987508e-002
2.761681e+003;7.019681e-002
2.763609e+003;7.032489e-002
2.765538e+003;7.027728e-002
2.767466e+003;7.024179e-002
2.769395e+003;7.028242e-002
2.771323e+003;7.054794e-002
2.773252e+003;7.072716e-002
2.775181e+003;7.103311e-002
2.777109e+003;7.123790e-002
2.779038e+003;7.124114e-002
2.780966e+003;7.127292e-002
2.782895e+003;7.153494e-002
2.784823e+003;7.185799e-002
2.786752e+003;7.189915e-002
2.788680e+003;7.195824e-002
2.790609e+003;7.215823e-002
2.792538e+003;7.255732e-002
2.794466e+003;7.293332e-002
2.796395e+003;7.335325e-002
2.798323e+003;7.358241e-002
2.800252e+003;7.370619e-002
2.802180e+003;7.382148e-002
2.804109e+003;7.409900e-002
2.806037e+003;7.438978e-002
2.807966e+003;7.443918e-002
2.809895e+003;7.477829e-002
2.811823e+003;7.561304e-002
2.813751e+003;7.639702e-002
2.815680e+003;7.664863e-002
2.817609e+003;7.689240e-002
2.819537e+003;7.734804e-002
2.821466e+003;7.763154e-002
2.823394e+003;7.827678e-002
2.825323e+003;7.889751e-002
2.827251e+003;7.931254e-002
2.829180e+003;7.984889e-002
2.831108e+003;8.038878e-002
2.833037e+003;8.096562e-002
2.834966e+003;8.190423e-002
2.836894e+003;8.306481e-002
2.838823e+003;8.372092e-002
2.840751e+003;8.432687e-002
2.842680e+003;8.518254e-002
2.844608e+003;8.631729e-002
2.846537e+003;8.719694e-002
2.848465e+003;8.805825e-002
2.850394e+003;8.917577e-002
2.852323e+003;9.000009e-002
2.854251e+003;9.106516e-002
2.856180e+003;9.218960e-002
2.858108e+003;9.271470e-002
2.860037e+003;9.333470e-002
2.861965e+003;9.460739e-002
2.863894e+003;9.541072e-002
2.865822e+003;9.580383e-002
2.867751e+003;9.627993e-002
2.869679e+003;9.681220e-002
2.871608e+003;9.769086e-002
2.873536e+003;9.846043e-002
2.875465e+003;9.873817e-002
2.877394e+003;9.898721e-002
2.879322e+003;9.930095e-002
2.881251e+003;9.943740e-002
2.883179e+003;9.969335e-002
2.885108e+003;1.001250e-001
2.887036e+003;1.004038e-001
2.888965e+003;1.009848e-001
2.890893e+003;1.017998e-001
2.892822e+003;1.022582e-001
2.894750e+003;1.024150e-001
2.896679e+003;1.021378e-001
2.898608e+003;1.019609e-001
2.900536e+003;1.020054e-001
2.902465e+003;1.021498e-001
2.904393e+003;1.021415e-001
2.906322e+003;1.018091e-001
2.908250e+003;1.015726e-001
2.910179e+003;1.014219e-001
2.912107e+003;1.008907e-001
2.914036e+003;1.005050e-001
2.915965e+003;1.001304e-001
2.917893e+003;9.949236e-002
2.919822e+003;9.925364e-002
2.921750e+003;9.922229e-002
2.923679e+003;9.845020e-002
2.925607e+003;9.770675e-002
2.927536e+003;9.745047e-002
2.929464e+003;9.717152e-002
2.931393e+003;9.685369e-002
2.933322e+003;9.627642e-002
2.935250e+003;9.546785e-002
2.937178e+003;9.520588e-002
2.939107e+003;9.508090e-002
2.941036e+003;9.451676e-002
2.942964e+003;9.384613e-002
2.944893e+003;9.288381e-002
2.946821e+003;9.212876e-002
2.948750e+003;9.139968e-002
2.950678e+003;9.031094e-002
2.952607e+003;8.899874e-002
2.954535e+003;8.798715e-002
2.956464e+003;8.698209e-002
2.958393e+003;8.622947e-002
2.960321e+003;8.600928e-002
2.962250e+003;8.512744e-002
2.964178e+003;8.394549e-002
2.966107e+003;8.310658e-002
2.968035e+003;8.259107e-002
2.969964e+003;8.215044e-002
2.971892e+003;8.156966e-002
2.973821e+003;8.105375e-002
2.975750e+003;8.069307e-002
2.977678e+003;7.998463e-002
2.979607e+003;7.920597e-002
2.981535e+003;7.875473e-002
2.983464e+003;7.818656e-002
2.985392e+003;7.775532e-002
2.987321e+003;7.760836e-002
2.989249e+003;7.750628e-002
2.991178e+003;7.693622e-002
2.993106e+003;7.674485e-002
2.995035e+003;7.667183e-002
2.996964e+003;7.610773e-002
2.998892e+003;7.604330e-002
3.000821e+003;7.583607e-002
3.002749e+003;7.525452e-002
3.004678e+003;7.528238e-002
3.006606e+003;7.567985e-002
3.008535e+003;7.583946e-002
3.010463e+003;7.532112e-002
3.012392e+003;7.481308e-002
3.014321e+003;7.527722e-002
3.016249e+003;7.565563e-002
3.018177e+003;7.564428e-002
3.020106e+003;7.594782e-002
3.022035e+003;7.579058e-002
3.023963e+003;7.542994e-002
3.025892e+003;7.572979e-002
3.027820e+003;7.612506e-002
3.029749e+003;7.638331e-002
3.031677e+003;7.643428e-002
3.033606e+003;7.611317e-002
3.035534e+003;7.608321e-002
3.037463e+003;7.622532e-002
3.039392e+003;7.671592e-002
3.041320e+003;7.702132e-002
3.043249e+003;7.731486e-002
3.045177e+003;7.751634e-002
3.047106e+003;7.767679e-002
3.049034e+003;7.793925e-002
3.050963e+003;7.860195e-002
3.052891e+003;7.910808e-002
3.054820e+003;7.916266e-002
3.056749e+003;7.918596e-002
3.058677e+003;7.958236e-002
3.060606e+003;8.023331e-002
3.062534e+003;8.051679e-002
3.064463e+003;8.055013e-002
3.066391e+003;8.078652e-002
3.068320e+003;8.092997e-002
3.070248e+003;8.104907e-002
3.072177e+003;8.148983e-002
3.074105e+003;8.198798e-002
3.076034e+003;8.240061e-002
3.077963e+003;8.305875e-002
3.079891e+003;8.339711e-002
3.081820e+003;8.336315e-002
3.083748e+003;8.374602e-002
3.085677e+003;8.396579e-002
3.087605e+003;8.407117e-002
3.089534e+003;8.467806e-002
3.091462e+003;8.520068e-002
3.093391e+003;8.504469e-002
3.095320e+003;8.528007e-002
3.097248e+003;8.613516e-002
3.099177e+003;8.683258e-002
3.101105e+003;8.698942e-002
3.103034e+003;8.693643e-002
3.104962e+003;8.753230e-002
3.106891e+003;8.832816e-002
3.108819e+003;8.875129e-002
3.110748e+003;8.886817e-002
3.112677e+003;8.913387e-002
3.114605e+003;8.966583e-002
3.116533e+003;9.002776e-002
3.118462e+003;8.997490e-002
3.120391e+003;9.033493e-002
3.122319e+003;9.088086e-002
3.124248e+003;9.130056e-002
3.126176e+003;9.198733e-002
3.128105e+003;9.262914e-002
3.130033e+003;9.282900e-002
3.131962e+003;9.293687e-002
3.133890e+003;9.359171e-002
3.135819e+003;9.432754e-002
3.137748e+003;9.487275e-002
3.139676e+003;9.532785e-002
3.141605e+003;9.562623e-002
3.143533e+003;9.601945e-002
3.145462e+003;9.647216e-002
3.147390e+003;9.697302e-002
3.149319e+003;9.743609e-002
3.151247e+003;9.769982e-002
3.153176e+003;9.801258e-002
3.155104e+003;9.856040e-002
3.157033e+003;9.902351e-002
3.158962e+003;9.937071e-002
3.160890e+003;9.989832e-002
3.162819e+003;1.004164e-001
3.164747e+003;1.014959e-001
3.166676e+003;1.024548e-001
3.168604e+003;1.029070e-001
3.170533e+003;1.033259e-001
3.172461e+003;1.036186e-001
3.174390e+003;1.043063e-001
3.176319e+003;1.047706e-001
3.178247e+003;1.050457e-001
3.180176e+003;1.055576e-001
3.182104e+003;1.063708e-001
3.184033e+003;1.072873e-001
3.185961e+003;1.078404e-001
3.187890e+003;1.080418e-001
3.189818e+003;1.084120e-001
3.191747e+003;1.090298e-001
3.193676e+003;1.098856e-001
3.195604e+003;1.105130e-001
3.197532e+003;1.108098e-001
3.199461e+003;1.112699e-001
3.201390e+003;1.121979e-001
3.203318e+003;1.129152e-001
3.205247e+003;1.135618e-001
3.207175e+003;1.141469e-001
3.209104e+003;1.142284e-001
3.211032e+003;1.148879e-001
3.212961e+003;1.158375e-001
3.214889e+003;1.165262e-001
3.216818e+003;1.173279e-001
3.218747e+003;1.177182e-001
3.220675e+003;1.179807e-001
3.222604e+003;1.185187e-001
3.224532e+003;1.192575e-001
3.226461e+003;1.201708e-001
3.228389e+003;1.207952e-001
3.230318e+003;1.210645e-001
3.232246e+003;1.218020e-001
3.234175e+003;1.225139e-001
3.236104e+003;1.229238e-001
3.238032e+003;1.235991e-001
3.239961e+003;1.242978e-001
3.241889e+003;1.248582e-001
3.243818e+003;1.254385e-001
3.245746e+003;1.264009e-001
3.247675e+003;1.272847e-001
3.249603e+003;1.278289e-001
3.251532e+003;1.287154e-001
3.253460e+003;1.297827e-001
3.255389e+003;1.310289e-001
3.257318e+003;1.319078e-001
3.259246e+003;1.319779e-001
3.261175e+003;1.319421e-001
3.263103e+003;1.324033e-001
3.265032e+003;1.333562e-001
3.266960e+003;1.342771e-001
3.268889e+003;1.345294e-001
3.270817e+003;1.343682e-001
3.272746e+003;1.351070e-001
3.274675e+003;1.360356e-001
3.276603e+003;1.360810e-001
3.278531e+003;1.360702e-001
3.280460e+003;1.365057e-001
3.282389e+003;1.371403e-001
3.284317e+003;1.374447e-001
3.286246e+003;1.377155e-001
3.288174e+003;1.383918e-001
3.290103e+003;1.385406e-001
3.292031e+003;1.382161e-001
3.293960e+003;1.379634e-001
3.295888e+003;1.382817e-001
3.297817e+003;1.387820e-001
3.299746e+003;1.391281e-001
3.301674e+003;1.390439e-001
3.303603e+003;1.388303e-001
3.305531e+003;1.390863e-001
3.307460e+003;1.394837e-001
3.309388e+003;1.400614e-001
3.311317e+003;1.405584e-001
3.313245e+003;1.403978e-001
3.315174e+003;1.402949e-001
3.317103e+003;1.404232e-001
3.319031e+003;1.405084e-001
3.320960e+003;1.408825e-001
3.322888e+003;1.414844e-001
3.324817e+003;1.419732e-001
3.326745e+003;1.422196e-001
3.328674e+003;1.422090e-001
3.330602e+003;1.419833e-001
3.332531e+003;1.415359e-001
3.334459e+003;1.414779e-001
3.336388e+003;1.420441e-001
3.338317e+003;1.419913e-001
3.340245e+003;1.416223e-001
3.342174e+003;1.413368e-001
3.344102e+003;1.407536e-001
3.346031e+003;1.402796e-001
3.347959e+003;1.400860e-001
3.349888e+003;1.401524e-001
3.351816e+003;1.396157e-001
3.353745e+003;1.387981e-001
3.355674e+003;1.386625e-001
3.357602e+003;1.388309e-001
3.359531e+003;1.384396e-001
3.361459e+003;1.379223e-001
3.363388e+003;1.379211e-001
3.365316e+003;1.376301e-001
3.367245e+003;1.372144e-001
3.369173e+003;1.371517e-001
3.371102e+003;1.373506e-001
3.373031e+003;1.372594e-001
3.374959e+003;1.366595e-001
3.376887e+003;1.357126e-001
3.378816e+003;1.354305e-001
3.380745e+003;1.355639e-001
3.382673e+003;1.353497e-001
3.384602e+003;1.350170e-001
3.386530e+003;1.347174e-001
3.388459e+003;1.344960e-001
3.390387e+003;1.342240e-001
3.392316e+003;1.338367e-001
3.394244e+003;1.331424e-001
3.396173e+003;1.322017e-001
3.398102e+003;1.318126e-001
3.400030e+003;1.321244e-001
3.401959e+003;1.320836e-001
3.403887e+003;1.317257e-001
3.405816e+003;1.314831e-001
3.407744e+003;1.304557e-001
3.409673e+003;1.294794e-001
3.411601e+003;1.291204e-001
3.413530e+003;1.289451e-001
3.415458e+003;1.281773e-001
3.417387e+003;1.272126e-001
3.419316e+003;1.269823e-001
3.421244e+003;1.265400e-001
3.423173e+003;1.258162e-001
3.425101e+003;1.251483e-001
3.427030e+003;1.242204e-001
3.428958e+003;1.233174e-001
3.430887e+003;1.226826e-001
3.432815e+003;1.222337e-001
3.434744e+003;1.218574e-001
3.436673e+003;1.211413e-001
3.438601e+003;1.200868e-001
3.440530e+003;1.192544e-001
3.442458e+003;1.183461e-001
3.444387e+003;1.175369e-001
3.446315e+003;1.170682e-001
3.448244e+003;1.170322e-001
3.450172e+003;1.166694e-001
3.452101e+003;1.152603e-001
3.454030e+003;1.141275e-001
3.455958e+003;1.139780e-001
3.457886e+003;1.137158e-001
3.459815e+003;1.128400e-001
3.461744e+003;1.120465e-001
3.463672e+003;1.116019e-001
3.465601e+003;1.104044e-001
3.467529e+003;1.093964e-001
3.469458e+003;1.085547e-001
3.471386e+003;1.076733e-001
3.473315e+003;1.071421e-001
3.475243e+003;1.066412e-001
3.477172e+003;1.059271e-001
3.479101e+003;1.048068e-001
3.481029e+003;1.037526e-001
3.482958e+003;1.032664e-001
3.484886e+003;1.028697e-001
3.486815e+003;1.018472e-001
3.488743e+003;1.013814e-001
3.490672e+003;1.014962e-001
3.492600e+003;1.007919e-001
3.494529e+003;9.944561e-002
3.496458e+003;9.837427e-002
3.498386e+003;9.753363e-002
3.500315e+003;9.661473e-002
3.502243e+003;9.587424e-002
3.504172e+003;9.532727e-002
3.506100e+003;9.453373e-002
3.508029e+003;9.350377e-002
3.509957e+003;9.295961e-002
3.511886e+003;9.282383e-002
3.513814e+003;9.179757e-002
3.515743e+003;9.049088e-002
3.517672e+003;8.975806e-002
3.519600e+003;8.904038e-002
3.521529e+003;8.791339e-002
3.523457e+003;8.686677e-002
3.525386e+003;8.647564e-002
3.527314e+003;8.587379e-002
3.529243e+003;8.476428e-002
3.531171e+003;8.411098e-002
3.533100e+003;8.362591e-002
3.535029e+003;8.286848e-002
3.536957e+003;8.217447e-002
3.538885e+003;8.168446e-002
3.540814e+003;8.070391e-002
3.542743e+003;7.918123e-002
3.544671e+003;7.803005e-002
3.546600e+003;7.753330e-002
3.548528e+003;7.719737e-002
3.550457e+003;7.652868e-002
3.552385e+003;7.521547e-002
3.554314e+003;7.442588e-002
3.556242e+003;7.403659e-002
3.558171e+003;7.319184e-002
3.560100e+003;7.218566e-002
3.562028e+003;7.130919e-002
3.563957e+003;7.025072e-002
3.565885e+003;6.943708e-002
3.567814e+003;6.914873e-002
3.569742e+003;6.924817e-002
3.571671e+003;6.882634e-002
3.573599e+003;6.793500e-002
3.575528e+003;6.713191e-002
3.577457e+003;6.635346e-002
3.579385e+003;6.555526e-002
3.581314e+003;6.470490e-002
3.583242e+003;6.390546e-002
3.585171e+003;6.318412e-002
3.587099e+003;6.292548e-002
3.589028e+003;6.231086e-002
3.590956e+003;6.114126e-002
3.592885e+003;6.015981e-002
3.594813e+003;5.980370e-002
3.596742e+003;5.941385e-002
3.598671e+003;5.872617e-002
3.600599e+003;5.839743e-002
3.602528e+003;5.777839e-002
3.604456e+003;5.749273e-002
3.606385e+003;5.710373e-002
3.608313e+003;5.605013e-002
3.610242e+003;5.559968e-002
3.612170e+003;5.559076e-002
3.614099e+003;5.504050e-002
3.616028e+003;5.442825e-002
3.617956e+003;5.402014e-002
3.619885e+003;5.336961e-002
3.621813e+003;5.284083e-002
3.623742e+003;5.277718e-002
3.625670e+003;5.208689e-002
3.627599e+003;5.127367e-002
3.629527e+003;5.084244e-002
3.631456e+003;5.045965e-002
3.633385e+003;4.991927e-002
3.635313e+003;4.970701e-002
3.637241e+003;4.961867e-002
3.639170e+003;4.904146e-002
3.641099e+003;4.816012e-002
3.643027e+003;4.746042e-002
3.644956e+003;4.684450e-002
3.646884e+003;4.591811e-002
3.648813e+003;4.487742e-002
3.650741e+003;4.475686e-002
3.652670e+003;4.462229e-002
3.654598e+003;4.354807e-002
3.656527e+003;4.267981e-002
3.658456e+003;4.226317e-002
3.660384e+003;4.158136e-002
3.662313e+003;4.099546e-002
3.664241e+003;4.041122e-002
3.666170e+003;3.946998e-002
3.668098e+003;3.836563e-002
3.670027e+003;3.751438e-002
3.671955e+003;3.693971e-002
3.673884e+003;3.611804e-002
3.675813e+003;3.538094e-002
3.677741e+003;3.505636e-002
3.679669e+003;3.483648e-002
3.681598e+003;3.475959e-002
3.683527e+003;3.411987e-002
3.685455e+003;3.319409e-002
3.687384e+003;3.227534e-002
3.689312e+003;3.170496e-002
3.691241e+003;3.191327e-002
3.693169e+003;3.170984e-002
3.695098e+003;3.163278e-002
3.697026e+003;3.157606e-002
3.698955e+003;3.125270e-002
3.700884e+003;3.118004e-002
3.702812e+003;3.084104e-002
3.704741e+003;3.042454e-002
3.706669e+003;3.034754e-002
3.708598e+003;3.000628e-002
3.710526e+003;2.941372e-002
3.712455e+003;2.892637e-002
3.714383e+003;2.906848e-002
3.716312e+003;2.929354e-002
3.718240e+003;2.889765e-002
3.720169e+003;2.875666e-002
3.722098e+003;2.854805e-002
3.724026e+003;2.785074e-002
3.725955e+003;2.775105e-002
3.727883e+003;2.808832e-002
3.729812e+003;2.805749e-002
3.731740e+003;2.763878e-002
3.733669e+003;2.774597e-002
3.735597e+003;2.751631e-002
3.737526e+003;2.703697e-002
3.739455e+003;2.723960e-002
3.741383e+003;2.782611e-002
3.743312e+003;2.740142e-002
3.745240e+003;2.699261e-002
3.747169e+003;2.752834e-002
3.749097e+003;2.702974e-002
3.751026e+003;2.651402e-002
3.752954e+003;2.689238e-002
3.754883e+003;2.732300e-002
3.756812e+003;2.775942e-002
3.758740e+003;2.784883e-002
3.760668e+003;2.733433e-002
3.762597e+003;2.703609e-002
3.764526e+003;2.699800e-002
3.766454e+003;2.684441e-002
3.768383e+003;2.689203e-002
3.770311e+003;2.689435e-002
3.772240e+003;2.697191e-002
3.774168e+003;2.705171e-002
3.776097e+003;2.703929e-002
3.778025e+003;2.710781e-002
3.779954e+003;2.680768e-002
3.781883e+003;2.663220e-002
3.783811e+003;2.667120e-002
3.785740e+003;2.687253e-002
3.787668e+003;2.715578e-002
3.789597e+003;2.742478e-002
3.791525e+003;2.724210e-002
3.793454e+003;2.718439e-002
3.795382e+003;2.748965e-002
3.797311e+003;2.740191e-002
3.799240e+003;2.692876e-002
3.801168e+003;2.661096e-002
3.803097e+003;2.715352e-002
3.805025e+003;2.722182e-002
3.806954e+003;2.639809e-002
3.808882e+003;2.662797e-002
3.810811e+003;2.705735e-002
3.812739e+003;2.718326e-002
3.814668e+003;2.670876e-002
3.816596e+003;2.666342e-002
3.818525e+003;2.701792e-002
3.820454e+003;2.623271e-002
3.822382e+003;2.642792e-002
3.824311e+003;2.766982e-002
3.826239e+003;2.830728e-002
3.828168e+003;2.809768e-002
3.830096e+003;2.773445e-002
3.832025e+003;2.740572e-002
3.833953e+003;2.683337e-002
3.835882e+003;2.605465e-002
3.837811e+003;2.611935e-002
3.839739e+003;2.702515e-002
3.841667e+003;2.792115e-002
3.843596e+003;2.800215e-002
3.845525e+003;2.786840e-002
3.847453e+003;2.787621e-002
3.849382e+003;2.771474e-002
3.851310e+003;2.729315e-002
3.853239e+003;2.658627e-002
3.855167e+003;2.657538e-002
3.857096e+003;2.770288e-002
3.859024e+003;2.858010e-002
3.860953e+003;2.867177e-002
3.862882e+003;2.846561e-002
3.864810e+003;2.814947e-002
3.866739e+003;2.774194e-002
3.868667e+003;2.754836e-002
3.870596e+003;2.792264e-002
3.872524e+003;2.850053e-002
3.874453e+003;2.854889e-002
3.876381e+003;2.873857e-002
3.878310e+003;2.908457e-002
3.880239e+003;2.899647e-002
3.882167e+003;2.874228e-002
3.884096e+003;2.921302e-002
3.886024e+003;2.945624e-002
3.887953e+003;2.938483e-002
3.889881e+003;2.927164e-002
3.891810e+003;2.915735e-002
3.893738e+003;2.968820e-002
3.895667e+003;2.981967e-002
3.897595e+003;2.923322e-002
3.899524e+003;2.952081e-002
3.901453e+003;3.001853e-002
3.903381e+003;2.982077e-002
3.905310e+003;3.004856e-002
3.907238e+003;3.050049e-002
3.909167e+003;3.074642e-002
3.911095e+003;3.099680e-002
3.913024e+003;3.102438e-002
3.914952e+003;3.070592e-002
3.916881e+003;3.059566e-002
3.918810e+003;3.074386e-002
3.920738e+003;3.111699e-002
3.922667e+003;3.133767e-002
3.924595e+003;3.101072e-002
3.926524e+003;3.090546e-002
3.928452e+003;3.090191e-002
3.930381e+003;3.079522e-002
3.932309e+003;3.121564e-002
3.934238e+003;3.139536e-002
3.936167e+003;3.125437e-002
3.938095e+003;3.121628e-002
3.940023e+003;3.161714e-002
3.941952e+003;3.213293e-002
3.943881e+003;3.223045e-002
3.945809e+003;3.227352e-002
3.947738e+003;3.254224e-002
3.949666e+003;3.290856e-002
3.951595e+003;3.293987e-002
3.953523e+003;3.304164e-002
3.955452e+003;3.335363e-002
3.957380e+003;3.296275e-002
3.959309e+003;3.279141e-002
3.961238e+003;3.312907e-002
3.963166e+003;3.338065e-002
3.965095e+003;3.343944e-002
3.967023e+003;3.363126e-002
3.968952e+003;3.383269e-002
3.970880e+003;3.343489e-002
3.972809e+003;3.311326e-002
3.974737e+003;3.307829e-002
3.976666e+003;3.300729e-002
3.978594e+003;3.317878e-002
3.980523e+003;3.354985e-002
3.982452e+003;3.361941e-002
3.984380e+003;3.329625e-002
3.986309e+003;3.277054e-002
3.988237e+003;3.271470e-002
3.990166e+003;3.356184e-002
3.992094e+003;3.389617e-002
3.994023e+003;3.376425e-002
3.995951e+003;3.377732e-002
3.997880e+003;3.391383e-002
3.999809e+003;3.340873e-002
4.001737e+003;0.000000e+000
