3.992094e+002;0.000000e+000
4.011380e+002;0.000000e+000
4.030665e+002;0.000000e+000
4.049951e+002;0.000000e+000
4.069236e+002;0.000000e+000
4.088522e+002;0.000000e+000
4.107807e+002;0.000000e+000
4.127093e+002;0.000000e+000
4.146378e+002;0.000000e+000
4.165664e+002;0.000000e+000
4.184949e+002;0.000000e+000
4.204235e+002;0.000000e+000
4.223520e+002;0.000000e+000
4.242806e+002;0.000000e+000
4.262091e+002;0.000000e+000
4.281377e+002;0.000000e+000
4.300662e+002;0.000000e+000
4.319948e+002;0.000000e+000
4.339233e+002;0.000000e+000
4.358519e+002;0.000000e+000
4.377804e+002;0.000000e+000
4.397090e+002;0.000000e+000
4.416375e+002;0.000000e+000
4.435660e+002;0.000000e+000
4.454946e+002;0.000000e+000
4.474232e+002;0.000000e+000
4.493517e+002;0.000000e+000
4.512802e+002;0.000000e+000
4.532088e+002;0.000000e+000
4.551373e+002;0.000000e+000
4.570659e+002;0.000000e+000
4.589944e+002;0.000000e+000
4.609230e+002;0.000000e+000
4.628515e+002;0.000000e+000
4.647801e+002;0.000000e+000
4.667086e+002;0.000000e+000
4.686372e+002;0.000000e+000
4.705657e+002;0.000000e+000
4.724943e+002;0.000000e+000
4.744228e+002;0.000000e+000
4.763513e+002;0.000000e+000
4.782799e+002;0.000000e+000
4.802085e+002;0.000000e+000
4.821370e+002;0.000000e+000
4.840656e+002;0.000000e+000
4.859941e+002;0.000000e+000
4.879226e+002;0.000000e+000
4.898512e+002;0.000000e+000
4.917798e+002;0.000000e+000
4.937083e+002;0.000000e+000
4.956368e+002;0.000000e+000
4.975654e+002;0.000000e+000
4.994939e+002;0.000000e+000
5.014225e+002;0.000000e+000
5.033510e+002;0.000000e+000
5.052796e+002;0.000000e+000
5.072081e+002;0.000000e+000
5.091367e+002;0.000000e+000
5.110652e+002;0.000000e+000
5.129938e+002;0.000000e+000
5.149223e+002;0.000000e+000
5.168509e+002;0.000000e+000
5.187794e+002;0.000000e+000
5.207079e+002;0.000000e+000
5.226365e+002;0.000000e+000
5.245651e+002;0.000000e+000
5.264936e+002;0.000000e+000
5.284222e+002;0.000000e+000
5.303507e+002;0.000000e+000
5.322792e+002;0.000000e+000
5.342078e+002;0.000000e+000
5.361364e+002;0.000000e+000
5.380649e+002;0.000000e+000
5.399935e+002;0.000000e+000
5.419220e+002;0.000000e+000
5.438505e+002;0.000000e+000
5.457791e+002;0.000000e+000
5.477076e+002;0.000000e+000
5.496362e+002;0.000000e+000
5.515648e+002;0.000000e+000
5.534933e+002;0.000000e+000
5.554218e+002;0.000000e+000
5.573504e+002;0.000000e+000
5.592789e+002;0.000000e+000
5.612075e+002;0.000000e+000
5.631360e+002;0.000000e+000
5.650646e+002;0.000000e+000
5.669931e+002;0.000000e+000
5.689217e+002;0.000000e+000
5.708502e+002;0.000000e+000
5.727787e+002;0.000000e+000
5.747073e+002;0.000000e+000
5.766359e+002;0.000000e+000
5.785644e+002;0.000000e+000
5.804930e+002;0.000000e+000
5.824215e+002;0.000000e+000
5.843500e+002;0.000000e+000
5.862786e+002;0.000000e+000
5.882072e+002;0.000000e+000
5.901357e+002;0.000000e+000
5.920643e+002;0.000000e+000
5.939928e+002;0.000000e+000
5.959213e+002;0.000000e+000
5.978499e+002;0.000000e+000
5.997784e+002;2.504254e-001
6.017070e+002;2.571542e-001
6.036355e+002;2.576053e-001
6.055641e+002;2.517101e-001
6.074926e+002;2.459096e-001
6.094211e+002;2.396223e-001
6.113497e+002;2.388477e-001
6.132783e+002;2.441184e-001
6.152068e+002;2.420833e-001
6.171354e+002;2.364724e-001
6.190639e+002;2.315431e-001
6.209924e+002;2.326828e-001
6.229210e+002;2.307263e-001
6.248495e+002;2.241371e-001
6.267781e+002;2.236811e-001
6.287067e+002;2.270261e-001
6.306352e+002;2.259642e-001
6.325637e+002;2.189555e-001
6.344923e+002;2.155433e-001
6.364208e+002;2.164314e-001
6.383494e+002;2.167897e-001
6.402780e+002;2.148645e-001
6.422065e+002;2.133317e-001
6.441350e+002;2.144292e-001
6.460636e+002;2.127872e-001
6.479921e+002;2.116853e-001
6.499207e+002;2.090319e-001
6.518492e+002;2.079587e-001
6.537778e+002;2.121484e-001
6.557063e+002;2.144962e-001
6.576349e+002;2.144970e-001
6.595634e+002;2.152238e-001
6.614919e+002;2.156719e-001
6.634205e+002;2.160075e-001
6.653491e+002;2.170126e-001
6.672776e+002;2.148260e-001
6.692062e+002;2.128185e-001
6.711347e+002;2.122041e-001
6.730632e+002;2.089363e-001
6.749918e+002;2.060609e-001
6.769203e+002;2.014029e-001
6.788489e+002;1.963718e-001
6.807775e+002;1.935964e-001
6.827060e+002;1.899791e-001
6.846345e+002;1.853688e-001
6.865631e+002;1.845926e-001
6.884916e+002;1.847523e-001
6.904202e+002;1.859232e-001
6.923488e+002;1.857849e-001
6.942773e+002;1.834722e-001
6.962058e+002;1.819447e-001
6.981344e+002;1.803083e-001
7.000629e+002;1.793730e-001
7.019915e+002;1.792466e-001
7.039200e+002;1.780078e-001
7.058486e+002;1.762218e-001
7.077771e+002;1.753997e-001
7.097057e+002;1.756326e-001
7.116342e+002;1.744636e-001
7.135627e+002;1.720698e-001
7.154913e+002;1.708750e-001
7.174199e+002;1.695770e-001
7.193484e+002;1.680422e-001
7.212770e+002;1.659354e-001
7.232055e+002;1.629739e-001
7.251340e+002;1.606123e-001
7.270626e+002;1.588894e-001
7.289911e+002;1.571813e-001
7.309197e+002;1.555177e-001
7.328483e+002;1.537299e-001
7.347768e+002;1.521309e-001
7.367053e+002;1.507579e-001
7.386339e+002;1.487941e-001
7.405624e+002;1.482756e-001
7.424910e+002;1.488299e-001
7.444196e+002;1.478254e-001
7.463481e+002;1.467135e-001
7.482766e+002;1.451063e-001
7.502052e+002;1.438502e-001
7.521337e+002;1.433684e-001
7.540623e+002;1.424580e-001
7.559908e+002;1.413251e-001
7.579194e+002;1.403600e-001
7.598479e+002;1.398890e-001
7.617765e+002;1.380519e-001
7.637050e+002;1.366661e-001
7.656335e+002;1.369588e-001
7.675621e+002;1.363956e-001
7.694907e+002;1.350101e-001
7.714192e+002;1.342133e-001
7.733478e+002;1.336885e-001
7.752763e+002;1.325275e-001
7.772048e+002;1.324214e-001
7.791334e+002;1.325625e-001
7.810620e+002;1.321506e-001
7.829905e+002;1.314070e-001
7.849191e+002;1.304079e-001
7.868476e+002;1.300616e-001
7.887761e+002;1.303269e-001
7.907047e+002;1.305270e-001
7.926332e+002;1.295300e-001
7.945618e+002;1.285219e-001
7.964903e+002;1.289577e-001
7.984189e+002;1.300301e-001
8.003474e+002;1.309378e-001
8.022759e+002;1.319260e-001
8.042045e+002;1.322645e-001
8.061331e+002;1.316732e-001
8.080616e+002;1.314548e-001
8.099902e+002;1.318828e-001
8.119187e+002;1.320671e-001
8.138472e+002;1.330936e-001
8.157758e+002;1.342163e-001
8.177043e+002;1.350485e-001
8.196329e+002;1.354092e-001
8.215615e+002;1.361220e-001
8.234900e+002;1.363165e-001
8.254185e+002;1.353024e-001
8.273471e+002;1.348543e-001
8.292756e+002;1.356775e-001
8.312042e+002;1.365973e-001
8.331328e+002;1.368128e-001
8.350613e+002;1.362155e-001
8.369898e+002;1.353637e-001
8.389184e+002;1.346934e-001
8.408469e+002;1.337901e-001
8.427755e+002;1.330976e-001
8.447040e+002;1.335801e-001
8.466326e+002;1.336584e-001
8.485611e+002;1.331434e-001
8.504897e+002;1.331204e-001
8.524182e+002;1.342767e-001
8.543467e+002;1.354606e-001
8.562753e+002;1.355218e-001
8.582039e+002;1.357928e-001
8.601324e+002;1.367075e-001
8.620610e+002;1.378744e-001
8.639895e+002;1.394217e-001
8.659180e+002;1.412877e-001
8.678466e+002;1.433036e-001
8.697751e+002;1.454659e-001
8.717037e+002;1.480758e-001
8.736323e+002;1.502987e-001
8.755608e+002;1.529509e-001
8.774893e+002;1.560994e-001
8.794179e+002;1.582867e-001
8.813464e+002;1.605575e-001
8.832750e+002;1.639705e-001
8.852036e+002;1.672809e-001
8.871321e+002;1.706613e-001
8.890606e+002;1.744277e-001
8.909892e+002;1.774979e-001
8.929177e+002;1.796115e-001
8.948463e+002;1.816520e-001
8.967748e+002;1.826414e-001
8.987034e+002;1.824097e-001
9.006319e+002;1.814609e-001
9.025605e+002;1.791949e-001
9.044890e+002;1.764694e-001
9.064175e+002;1.745516e-001
9.083461e+002;1.729870e-001
9.102747e+002;1.720141e-001
9.122032e+002;1.712055e-001
9.141318e+002;1.706658e-001
9.160603e+002;1.708999e-001
9.179888e+002;1.714817e-001
9.199174e+002;1.724507e-001
9.218459e+002;1.730102e-001
9.237745e+002;1.732101e-001
9.257031e+002;1.738860e-001
9.276316e+002;1.743817e-001
9.295601e+002;1.747060e-001
9.314887e+002;1.762019e-001
9.334172e+002;1.783726e-001
9.353458e+002;1.800834e-001
9.372744e+002;1.820891e-001
9.392029e+002;1.846292e-001
9.411314e+002;1.878852e-001
9.430600e+002;1.918791e-001
9.449885e+002;1.957304e-001
9.469171e+002;1.996640e-001
9.488456e+002;2.049979e-001
9.507742e+002;2.107695e-001
9.527027e+002;2.160766e-001
9.546313e+002;2.215387e-001
9.565598e+002;2.270603e-001
9.584883e+002;2.324935e-001
9.604169e+002;2.383459e-001
9.623455e+002;2.441730e-001
9.642740e+002;2.501572e-001
9.662026e+002;2.557553e-001
9.681311e+002;2.616107e-001
9.700596e+002;2.682253e-001
9.719882e+002;2.757076e-001
9.739167e+002;2.836150e-001
9.758453e+002;2.923989e-001
9.777739e+002;3.023895e-001
9.797024e+002;3.121890e-001
9.816309e+002;3.218252e-001
9.835595e+002;3.304179e-001
9.854880e+002;3.371527e-001
9.874166e+002;3.430563e-001
9.893452e+002;3.479609e-001
9.912737e+002;3.515252e-001
9.932022e+002;3.549703e-001
9.951307e+002;3.593835e-001
9.970593e+002;3.636526e-001
9.989879e+002;3.684909e-001
1.000916e+003;3.737700e-001
1.002845e+003;3.786971e-001
1.004773e+003;3.841563e-001
1.006702e+003;3.900232e-001
1.008631e+003;3.950493e-001
1.010559e+003;4.006534e-001
1.012488e+003;4.077837e-001
1.014416e+003;4.141544e-001
1.016345e+003;4.185548e-001
1.018273e+003;4.229539e-001
1.020202e+003;4.270866e-001
1.022130e+003;4.294278e-001
1.024059e+003;4.313040e-001
1.025988e+003;4.336692e-001
1.027916e+003;4.345607e-001
1.029845e+003;4.344036e-001
1.031773e+003;4.332660e-001
1.033702e+003;4.306781e-001
1.035630e+003;4.270717e-001
1.037559e+003;4.241036e-001
1.039487e+003;4.204316e-001
1.041416e+003;4.162580e-001
1.043344e+003;4.129150e-001
1.045273e+003;4.097176e-001
1.047202e+003;4.062587e-001
1.049130e+003;4.031954e-001
1.051059e+003;4.003794e-001
1.052987e+003;3.961415e-001
1.054916e+003;3.910047e-001
1.056844e+003;3.850566e-001
1.058773e+003;3.773482e-001
1.060701e+003;3.695383e-001
1.062630e+003;3.614548e-001
1.064558e+003;3.520288e-001
1.066487e+003;3.423178e-001
1.068416e+003;3.341579e-001
1.070344e+003;3.278102e-001
1.072273e+003;3.221336e-001
1.074201e+003;3.162684e-001
1.076130e+003;3.107001e-001
1.078058e+003;3.054980e-001
1.079987e+003;3.012582e-001
1.081915e+003;2.969728e-001
1.083844e+003;2.924432e-001
1.085773e+003;2.891869e-001
1.087701e+003;2.879662e-001
1.089630e+003;2.864095e-001
1.091558e+003;2.850294e-001
1.093487e+003;2.832812e-001
1.095415e+003;2.812904e-001
1.097344e+003;2.800033e-001
1.099272e+003;2.776350e-001
1.101201e+003;2.741568e-001
1.103129e+003;2.706206e-001
1.105058e+003;2.662445e-001
1.106987e+003;2.609442e-001
1.108915e+003;2.555713e-001
1.110844e+003;2.490467e-001
1.112772e+003;2.422542e-001
1.114701e+003;2.352399e-001
1.116629e+003;2.279638e-001
1.118558e+003;2.218598e-001
1.120486e+003;2.164897e-001
1.122415e+003;2.106212e-001
1.124344e+003;2.047645e-001
1.126272e+003;1.992249e-001
1.128201e+003;1.939031e-001
1.130129e+003;1.887431e-001
1.132058e+003;1.834126e-001
1.133986e+003;1.791270e-001
1.135915e+003;1.754138e-001
1.137843e+003;1.722153e-001
1.139772e+003;1.702446e-001
1.141700e+003;1.688118e-001
1.143629e+003;1.680846e-001
1.145557e+003;1.685231e-001
1.147486e+003;1.690784e-001
1.149415e+003;1.697504e-001
1.151343e+003;1.703369e-001
1.153272e+003;1.704905e-001
1.155200e+003;1.698613e-001
1.157129e+003;1.685928e-001
1.159057e+003;1.667332e-001
1.160986e+003;1.635806e-001
1.162914e+003;1.592646e-001
1.164843e+003;1.544839e-001
1.166771e+003;1.489213e-001
1.168700e+003;1.428021e-001
1.170629e+003;1.366916e-001
1.172557e+003;1.305645e-001
1.174486e+003;1.257289e-001
1.176414e+003;1.231330e-001
1.178343e+003;1.206787e-001
1.180271e+003;1.182938e-001
1.182200e+003;1.166657e-001
1.184128e+003;1.153308e-001
1.186057e+003;1.145364e-001
1.187986e+003;1.145074e-001
1.189914e+003;1.149652e-001
1.191843e+003;1.164641e-001
1.193771e+003;1.188792e-001
1.195700e+003;1.216891e-001
1.197628e+003;1.243792e-001
1.199557e+003;1.270877e-001
1.201485e+003;1.298238e-001
1.203414e+003;1.324241e-001
1.205343e+003;1.343867e-001
1.207271e+003;1.361780e-001
1.209200e+003;1.382004e-001
1.211128e+003;1.406047e-001
1.213057e+003;1.439462e-001
1.214985e+003;1.479201e-001
1.216914e+003;1.524554e-001
1.218842e+003;1.571855e-001
1.220771e+003;1.613508e-001
1.222699e+003;1.649282e-001
1.224628e+003;1.683941e-001
1.226557e+003;1.716148e-001
1.228485e+003;1.742193e-001
1.230414e+003;1.764171e-001
1.232342e+003;1.777411e-001
1.234271e+003;1.784847e-001
1.236199e+003;1.788779e-001
1.238128e+003;1.788405e-001
1.240056e+003;1.783885e-001
1.241985e+003;1.776103e-001
1.243913e+003;1.764145e-001
1.245842e+003;1.748604e-001
1.247771e+003;1.727095e-001
1.249699e+003;1.702123e-001
1.251628e+003;1.680161e-001
1.253556e+003;1.655583e-001
1.255485e+003;1.625212e-001
1.257413e+003;1.594359e-001
1.259342e+003;1.568903e-001
1.261270e+003;1.545690e-001
1.263199e+003;1.515541e-001
1.265127e+003;1.484691e-001
1.267056e+003;1.457074e-001
1.268985e+003;1.433572e-001
1.270913e+003;1.409190e-001
1.272842e+003;1.384329e-001
1.274770e+003;1.360977e-001
1.276699e+003;1.338319e-001
1.278627e+003;1.319713e-001
1.280556e+003;1.300740e-001
1.282484e+003;1.279050e-001
1.284413e+003;1.263068e-001
1.286342e+003;1.251493e-001
1.288270e+003;1.246081e-001
1.290199e+003;1.242149e-001
1.292127e+003;1.240041e-001
1.294056e+003;1.246360e-001
1.295984e+003;1.257603e-001
1.297913e+003;1.269109e-001
1.299841e+003;1.286370e-001
1.301770e+003;1.304703e-001
1.303698e+003;1.321606e-001
1.305627e+003;1.343935e-001
1.307556e+003;1.370402e-001
1.309484e+003;1.394384e-001
1.311413e+003;1.416465e-001
1.313341e+003;1.439919e-001
1.315270e+003;1.456504e-001
1.317198e+003;1.462806e-001
1.319127e+003;1.462499e-001
1.321055e+003;1.456258e-001
1.322984e+003;1.448472e-001
1.324912e+003;1.444521e-001
1.326841e+003;1.441479e-001
1.328770e+003;1.441583e-001
1.330698e+003;1.445774e-001
1.332627e+003;1.448930e-001
1.334555e+003;1.445901e-001
1.336484e+003;1.438108e-001
1.338412e+003;1.425700e-001
1.340341e+003;1.412349e-001
1.342269e+003;1.397145e-001
1.344198e+003;1.381328e-001
1.346126e+003;1.369055e-001
1.348055e+003;1.363938e-001
1.349984e+003;1.362655e-001
1.351912e+003;1.364813e-001
1.353841e+003;1.374522e-001
1.355769e+003;1.387579e-001
1.357698e+003;1.404300e-001
1.359626e+003;1.421021e-001
1.361555e+003;1.437732e-001
1.363483e+003;1.450527e-001
1.365412e+003;1.459211e-001
1.367341e+003;1.462928e-001
1.369269e+003;1.458913e-001
1.371198e+003;1.446548e-001
1.373126e+003;1.429212e-001
1.375055e+003;1.408776e-001
1.376983e+003;1.386858e-001
1.378912e+003;1.362033e-001
1.380840e+003;1.331887e-001
1.382769e+003;1.304916e-001
1.384698e+003;1.283308e-001
1.386626e+003;1.264011e-001
1.388555e+003;1.249157e-001
1.390483e+003;1.236405e-001
1.392412e+003;1.228826e-001
1.394340e+003;1.224067e-001
1.396269e+003;1.224298e-001
1.398197e+003;1.229644e-001
1.400126e+003;1.236762e-001
1.402054e+003;1.245170e-001
1.403983e+003;1.253865e-001
1.405911e+003;1.267640e-001
1.407840e+003;1.285260e-001
1.409769e+003;1.303857e-001
1.411697e+003;1.320226e-001
1.413626e+003;1.335316e-001
1.415554e+003;1.348457e-001
1.417483e+003;1.360657e-001
1.419411e+003;1.370127e-001
1.421340e+003;1.375393e-001
1.423268e+003;1.375078e-001
1.425197e+003;1.368358e-001
1.427125e+003;1.360286e-001
1.429054e+003;1.346284e-001
1.430983e+003;1.327163e-001
1.432911e+003;1.309115e-001
1.434840e+003;1.290056e-001
1.436768e+003;1.269699e-001
1.438697e+003;1.251189e-001
1.440625e+003;1.235680e-001
1.442554e+003;1.224716e-001
1.444482e+003;1.214080e-001
1.446411e+003;1.201202e-001
1.448340e+003;1.190846e-001
1.450268e+003;1.183502e-001
1.452197e+003;1.175279e-001
1.454125e+003;1.165196e-001
1.456054e+003;1.152331e-001
1.457982e+003;1.137022e-001
1.459911e+003;1.121660e-001
1.461839e+003;1.107891e-001
1.463768e+003;1.091704e-001
1.465697e+003;1.066353e-001
1.467625e+003;1.036647e-001
1.469554e+003;1.008922e-001
1.471482e+003;9.763858e-002
1.473411e+003;9.416963e-002
1.475339e+003;9.131295e-002
1.477268e+003;8.858594e-002
1.479196e+003;8.628411e-002
1.481125e+003;8.464295e-002
1.483053e+003;8.314931e-002
1.484982e+003;8.181629e-002
1.486911e+003;8.105806e-002
1.488839e+003;8.073010e-002
1.490768e+003;8.063836e-002
1.492696e+003;8.067798e-002
1.494625e+003;8.099142e-002
1.496553e+003;8.162248e-002
1.498482e+003;8.211910e-002
1.500410e+003;8.279121e-002
1.502339e+003;8.327255e-002
1.504267e+003;8.302806e-002
1.506196e+003;8.218567e-002
1.508125e+003;8.147696e-002
1.510053e+003;8.103981e-002
1.511982e+003;8.001921e-002
1.513910e+003;7.856454e-002
1.515839e+003;7.730662e-002
1.517767e+003;7.605857e-002
1.519696e+003;7.488780e-002
1.521624e+003;7.424446e-002
1.523553e+003;7.390177e-002
1.525481e+003;7.363407e-002
1.527410e+003;7.348759e-002
1.529339e+003;7.312592e-002
1.531267e+003;7.287336e-002
1.533196e+003;7.309777e-002
1.535124e+003;7.323866e-002
1.537053e+003;7.346836e-002
1.538981e+003;7.356431e-002
1.540910e+003;7.339758e-002
1.542838e+003;7.363316e-002
1.544767e+003;7.412320e-002
1.546695e+003;7.462209e-002
1.548624e+003;7.530114e-002
1.550553e+003;7.602166e-002
1.552481e+003;7.663800e-002
1.554410e+003;7.732487e-002
1.556338e+003;7.821604e-002
1.558267e+003;7.916103e-002
1.560195e+003;8.008996e-002
1.562124e+003;8.127467e-002
1.564052e+003;8.250637e-002
1.565981e+003;8.374639e-002
1.567910e+003;8.552647e-002
1.569838e+003;8.775752e-002
1.571767e+003;8.997364e-002
1.573695e+003;9.243483e-002
1.575624e+003;9.536487e-002
1.577552e+003;9.894818e-002
1.579481e+003;1.030546e-001
1.581409e+003;1.074396e-001
1.583338e+003;1.118267e-001
1.585266e+003;1.164888e-001
1.587195e+003;1.209984e-001
1.589124e+003;1.244606e-001
1.591052e+003;1.272339e-001
1.592981e+003;1.296175e-001
1.594909e+003;1.309891e-001
1.596838e+003;1.312179e-001
1.598766e+003;1.309216e-001
1.600695e+003;1.304992e-001
1.602623e+003;1.300011e-001
1.604552e+003;1.297419e-001
1.606480e+003;1.295643e-001
1.608409e+003;1.288928e-001
1.610338e+003;1.284472e-001
1.612266e+003;1.283761e-001
1.614195e+003;1.278016e-001
1.616123e+003;1.268601e-001
1.618052e+003;1.259832e-001
1.619980e+003;1.253213e-001
1.621909e+003;1.245633e-001
1.623837e+003;1.234883e-001
1.625766e+003;1.226053e-001
1.627694e+003;1.217080e-001
1.629623e+003;1.206817e-001
1.631552e+003;1.197210e-001
1.633480e+003;1.188352e-001
1.635409e+003;1.176096e-001
1.637337e+003;1.163850e-001
1.639266e+003;1.152743e-001
1.641194e+003;1.140568e-001
1.643123e+003;1.129815e-001
1.645051e+003;1.118419e-001
1.646980e+003;1.106348e-001
1.648909e+003;1.095011e-001
1.650837e+003;1.081190e-001
1.652766e+003;1.064010e-001
1.654694e+003;1.047551e-001
1.656623e+003;1.030721e-001
1.658551e+003;1.013025e-001
1.660480e+003;9.982421e-002
1.662408e+003;9.834015e-002
1.664337e+003;9.673001e-002
1.666266e+003;9.517482e-002
1.668194e+003;9.339069e-002
1.670123e+003;9.186970e-002
1.672051e+003;9.061414e-002
1.673980e+003;8.911853e-002
1.675908e+003;8.759023e-002
1.677837e+003;8.641099e-002
1.679765e+003;8.528797e-002
1.681694e+003;8.406301e-002
1.683622e+003;8.294488e-002
1.685551e+003;8.215497e-002
1.687479e+003;8.165419e-002
1.689408e+003;8.132526e-002
1.691337e+003;8.096898e-002
1.693265e+003;8.111668e-002
1.695194e+003;8.163720e-002
1.697122e+003;8.222067e-002
1.699051e+003;8.308800e-002
1.700979e+003;8.428981e-002
1.702908e+003;8.572623e-002
1.704836e+003;8.740488e-002
1.706765e+003;8.936138e-002
1.708693e+003;9.150983e-002
1.710622e+003;9.362645e-002
1.712551e+003;9.586969e-002
1.714479e+003;9.851804e-002
1.716408e+003;1.010867e-001
1.718336e+003;1.031279e-001
1.720265e+003;1.050388e-001
1.722193e+003;1.070700e-001
1.724122e+003;1.087290e-001
1.726050e+003;1.100920e-001
1.727979e+003;1.112796e-001
1.729908e+003;1.121469e-001
1.731836e+003;1.123591e-001
1.733765e+003;1.119603e-001
1.735693e+003;1.116658e-001
1.737622e+003;1.108873e-001
1.739550e+003;1.092166e-001
1.741479e+003;1.067802e-001
1.743407e+003;1.041602e-001
1.745336e+003;1.015292e-001
1.747265e+003;9.830047e-002
1.749193e+003;9.465028e-002
1.751122e+003;9.108535e-002
1.753050e+003;8.775667e-002
1.754979e+003;8.431391e-002
1.756907e+003;8.089931e-002
1.758836e+003;7.783531e-002
1.760764e+003;7.440056e-002
1.762693e+003;7.076818e-002
1.764621e+003;6.758261e-002
1.766550e+003;6.459466e-002
1.768479e+003;6.187759e-002
1.770407e+003;5.951366e-002
1.772336e+003;5.738400e-002
1.774264e+003;5.511031e-002
1.776193e+003;5.294057e-002
1.778121e+003;5.119895e-002
1.780050e+003;4.975991e-002
1.781978e+003;4.864220e-002
1.783907e+003;4.766474e-002
1.785835e+003;4.658268e-002
1.787764e+003;4.565527e-002
1.789693e+003;4.481100e-002
1.791621e+003;4.405846e-002
1.793550e+003;4.369688e-002
1.795478e+003;4.337797e-002
1.797407e+003;4.287923e-002
1.799335e+003;4.237497e-002
1.801264e+003;4.200760e-002
1.803192e+003;4.158624e-002
1.805121e+003;4.105540e-002
1.807049e+003;4.054576e-002
1.808978e+003;4.009449e-002
1.810907e+003;4.001724e-002
1.812835e+003;4.002498e-002
1.814764e+003;3.970504e-002
1.816692e+003;3.940162e-002
1.818621e+003;3.907642e-002
1.820549e+003;3.864529e-002
1.822478e+003;3.849375e-002
1.824406e+003;3.852572e-002
1.826335e+003;3.836516e-002
1.828264e+003;3.806554e-002
1.830192e+003;3.789171e-002
1.832121e+003;3.762786e-002
1.834049e+003;3.735374e-002
1.835978e+003;3.729733e-002
1.837906e+003;3.728228e-002
1.839835e+003;3.705849e-002
1.841763e+003;3.657309e-002
1.843692e+003;3.626069e-002
1.845620e+003;3.637063e-002
1.847549e+003;3.628057e-002
1.849478e+003;3.616244e-002
1.851406e+003;3.588855e-002
1.853335e+003;3.544990e-002
1.855263e+003;3.521817e-002
1.857192e+003;3.533033e-002
1.859120e+003;3.536602e-002
1.861049e+003;3.521117e-002
1.862977e+003;3.528929e-002
1.864906e+003;3.505877e-002
1.866834e+003;3.471347e-002
1.868763e+003;3.453369e-002
1.870692e+003;3.448590e-002
1.872620e+003;3.471519e-002
1.874549e+003;3.486703e-002
1.876477e+003;3.469423e-002
1.878406e+003;3.452884e-002
1.880334e+003;3.446022e-002
1.882263e+003;3.441424e-002
1.884191e+003;3.448781e-002
1.886120e+003;3.455288e-002
1.888048e+003;3.452027e-002
1.889977e+003;3.455959e-002
1.891906e+003;3.456210e-002
1.893834e+003;3.432124e-002
1.895763e+003;3.419135e-002
1.897691e+003;3.429747e-002
1.899620e+003;3.446818e-002
1.901548e+003;3.437385e-002
1.903477e+003;3.435004e-002
1.905405e+003;3.457864e-002
1.907334e+003;3.473970e-002
1.909262e+003;3.478274e-002
1.911191e+003;3.472793e-002
1.913120e+003;3.482550e-002
1.915048e+003;3.493874e-002
1.916977e+003;3.507702e-002
1.918905e+003;3.528555e-002
1.920834e+003;3.544885e-002
1.922762e+003;3.539633e-002
1.924691e+003;3.537365e-002
1.926619e+003;3.547125e-002
1.928548e+003;3.548333e-002
1.930477e+003;3.559747e-002
1.932405e+003;3.561631e-002
1.934334e+003;3.552896e-002
1.936262e+003;3.567656e-002
1.938191e+003;3.598022e-002
1.940119e+003;3.606234e-002
1.942048e+003;3.584962e-002
1.943976e+003;3.591000e-002
1.945905e+003;3.621138e-002
1.947833e+003;3.645048e-002
1.949762e+003;3.662709e-002
1.951691e+003;3.667111e-002
1.953619e+003;3.665906e-002
1.955548e+003;3.660859e-002
1.957476e+003;3.655589e-002
1.959405e+003;3.651167e-002
1.961333e+003;3.638241e-002
1.963262e+003;3.622795e-002
1.965190e+003;3.649001e-002
1.967119e+003;3.679637e-002
1.969047e+003;3.668794e-002
1.970976e+003;3.653351e-002
1.972905e+003;3.670986e-002
1.974833e+003;3.684466e-002
1.976762e+003;3.679064e-002
1.978690e+003;3.695891e-002
1.980619e+003;3.720871e-002
1.982547e+003;3.758588e-002
1.984476e+003;3.779949e-002
1.986404e+003;3.768113e-002
1.988333e+003;3.739288e-002
1.990261e+003;3.726614e-002
1.992190e+003;3.726686e-002
1.994119e+003;3.730109e-002
1.996047e+003;3.756774e-002
1.997976e+003;3.790429e-002
1.999904e+003;3.807553e-002
2.001833e+003;3.829879e-002
2.003761e+003;3.837841e-002
2.005690e+003;3.840357e-002
2.007618e+003;3.859111e-002
2.009547e+003;3.873816e-002
2.011476e+003;3.910078e-002
2.013404e+003;3.938396e-002
2.015333e+003;3.966151e-002
2.017261e+003;3.983002e-002
2.019190e+003;3.985533e-002
2.021118e+003;3.998055e-002
2.023047e+003;4.003097e-002
2.024975e+003;4.001673e-002
2.026904e+003;4.017357e-002
2.028833e+003;4.059600e-002
2.030761e+003;4.094015e-002
2.032690e+003;4.096039e-002
2.034618e+003;4.089693e-002
2.036547e+003;4.110515e-002
2.038475e+003;4.147274e-002
2.040404e+003;4.146177e-002
2.042332e+003;4.119662e-002
2.044261e+003;4.130192e-002
2.046189e+003;4.172873e-002
2.048118e+003;4.171647e-002
2.050047e+003;4.160549e-002
2.051975e+003;4.165330e-002
2.053904e+003;4.178877e-002
2.055832e+003;4.189640e-002
2.057761e+003;4.193994e-002
2.059689e+003;4.195621e-002
2.061618e+003;4.188557e-002
2.063546e+003;4.193724e-002
2.065475e+003;4.194826e-002
2.067404e+003;4.185637e-002
2.069332e+003;4.167777e-002
2.071260e+003;4.162012e-002
2.073189e+003;4.163956e-002
2.075118e+003;4.171983e-002
2.077046e+003;4.187480e-002
2.078975e+003;4.190414e-002
2.080903e+003;4.209962e-002
2.082832e+003;4.208524e-002
2.084760e+003;4.193928e-002
2.086689e+003;4.205706e-002
2.088617e+003;4.223023e-002
2.090546e+003;4.233161e-002
2.092475e+003;4.260846e-002
2.094403e+003;4.270226e-002
2.096332e+003;4.252020e-002
2.098260e+003;4.245323e-002
2.100189e+003;4.259768e-002
2.102117e+003;4.276851e-002
2.104046e+003;4.300122e-002
2.105974e+003;4.303839e-002
2.107903e+003;4.296423e-002
2.109832e+003;4.287283e-002
2.111760e+003;4.280533e-002
2.113688e+003;4.300598e-002
2.115617e+003;4.322341e-002
2.117546e+003;4.313696e-002
2.119474e+003;4.312620e-002
2.121403e+003;4.318172e-002
2.123331e+003;4.344512e-002
2.125260e+003;4.355972e-002
2.127188e+003;4.325360e-002
2.129117e+003;4.317422e-002
2.131045e+003;4.323863e-002
2.132974e+003;4.331012e-002
2.134903e+003;4.346739e-002
2.136831e+003;4.331148e-002
2.138760e+003;4.304241e-002
2.140688e+003;4.315028e-002
2.142617e+003;4.318684e-002
2.144545e+003;4.327022e-002
2.146474e+003;4.331679e-002
2.148402e+003;4.312152e-002
2.150331e+003;4.315372e-002
2.152260e+003;4.302727e-002
2.154188e+003;4.255160e-002
2.156117e+003;4.246821e-002
2.158045e+003;4.259055e-002
2.159974e+003;4.263017e-002
2.161902e+003;4.255850e-002
2.163831e+003;4.235163e-002
2.165759e+003;4.214373e-002
2.167688e+003;4.200694e-002
2.169616e+003;4.208068e-002
2.171545e+003;4.187670e-002
2.173474e+003;4.176130e-002
2.175402e+003;4.199870e-002
2.177331e+003;4.185459e-002
2.179259e+003;4.119807e-002
2.181188e+003;4.088659e-002
2.183116e+003;4.100583e-002
2.185045e+003;4.117640e-002
2.186973e+003;4.101767e-002
2.188902e+003;4.058035e-002
2.190831e+003;4.036068e-002
2.192759e+003;4.016001e-002
2.194688e+003;4.003435e-002
2.196616e+003;4.023434e-002
2.198545e+003;4.026404e-002
2.200473e+003;3.982160e-002
2.202402e+003;3.970475e-002
2.204330e+003;4.015914e-002
2.206259e+003;4.040384e-002
2.208188e+003;4.013028e-002
2.210116e+003;3.968013e-002
2.212044e+003;3.958165e-002
2.213973e+003;3.967055e-002
2.215902e+003;3.997259e-002
2.217830e+003;4.035602e-002
2.219759e+003;4.037606e-002
2.221687e+003;4.030290e-002
2.223616e+003;4.008915e-002
2.225544e+003;4.004056e-002
2.227473e+003;4.009358e-002
2.229401e+003;4.004562e-002
2.231330e+003;4.001713e-002
2.233259e+003;4.007494e-002
2.235187e+003;3.994360e-002
2.237116e+003;3.978074e-002
2.239044e+003;3.982069e-002
2.240973e+003;3.997662e-002
2.242901e+003;4.002363e-002
2.244830e+003;4.022642e-002
2.246758e+003;4.015728e-002
2.248687e+003;4.007003e-002
2.250615e+003;4.026869e-002
2.252544e+003;4.027306e-002
2.254473e+003;4.009478e-002
2.256401e+003;3.994955e-002
2.258330e+003;3.987400e-002
2.260258e+003;3.999562e-002
2.262187e+003;3.995664e-002
2.264115e+003;3.979970e-002
2.266044e+003;3.992606e-002
2.267972e+003;3.990448e-002
2.269901e+003;3.960909e-002
2.271830e+003;3.922846e-002
2.273758e+003;3.933034e-002
2.275687e+003;3.957044e-002
2.277615e+003;3.943374e-002
2.279544e+003;3.944789e-002
2.281472e+003;3.972341e-002
2.283401e+003;3.976143e-002
2.285329e+003;3.964699e-002
2.287258e+003;3.978899e-002
2.289187e+003;3.987244e-002
2.291115e+003;3.963007e-002
2.293043e+003;3.950671e-002
2.294972e+003;3.939121e-002
2.296901e+003;3.918352e-002
2.298829e+003;3.940047e-002
2.300758e+003;3.962013e-002
2.302686e+003;3.963759e-002
2.304615e+003;3.953654e-002
2.306543e+003;3.933890e-002
2.308472e+003;3.932406e-002
2.310400e+003;3.942339e-002
2.312329e+003;3.937202e-002
2.314258e+003;3.944281e-002
2.316186e+003;3.979360e-002
2.318115e+003;3.987411e-002
2.320043e+003;3.971023e-002
2.321972e+003;3.936832e-002
2.323900e+003;3.926911e-002
2.325829e+003;3.958263e-002
2.327757e+003;3.955762e-002
2.329686e+003;3.950642e-002
2.331615e+003;3.984262e-002
2.333543e+003;4.009049e-002
2.335472e+003;3.993474e-002
2.337400e+003;3.986322e-002
2.339329e+003;4.007130e-002
2.341257e+003;4.018887e-002
2.343186e+003;4.015587e-002
2.345114e+003;4.022569e-002
2.347043e+003;4.068008e-002
2.348971e+003;4.108184e-002
2.350900e+003;4.113589e-002
2.352829e+003;4.111699e-002
2.354757e+003;4.104120e-002
2.356686e+003;4.114533e-002
2.358614e+003;4.143983e-002
2.360543e+003;4.137772e-002
2.362471e+003;4.112843e-002
2.364400e+003;4.110271e-002
2.366328e+003;4.150001e-002
2.368257e+003;4.206670e-002
2.370186e+003;4.240025e-002
2.372114e+003;4.233728e-002
2.374042e+003;4.235711e-002
2.375971e+003;4.251121e-002
2.377900e+003;4.250690e-002
2.379828e+003;4.268917e-002
2.381757e+003;4.297740e-002
2.383685e+003;4.313012e-002
2.385614e+003;4.304889e-002
2.387542e+003;4.318223e-002
2.389471e+003;4.342689e-002
2.391399e+003;4.373346e-002
2.393328e+003;4.402286e-002
2.395257e+003;4.404523e-002
2.397185e+003;4.385990e-002
2.399114e+003;4.387353e-002
2.401042e+003;4.395033e-002
2.402971e+003;4.403169e-002
2.404899e+003;4.417066e-002
2.406828e+003;4.443400e-002
2.408756e+003;4.497399e-002
2.410685e+003;4.565703e-002
2.412614e+003;4.577398e-002
2.414542e+003;4.566962e-002
2.416471e+003;4.583282e-002
2.418399e+003;4.591767e-002
2.420328e+003;4.578510e-002
2.422256e+003;4.570150e-002
2.424185e+003;4.631332e-002
2.426113e+003;4.680771e-002
2.428042e+003;4.689847e-002
2.429970e+003;4.693664e-002
2.431899e+003;4.686728e-002
2.433828e+003;4.680136e-002
2.435756e+003;4.711553e-002
2.437685e+003;4.713119e-002
2.439613e+003;4.709729e-002
2.441542e+003;4.742472e-002
2.443470e+003;4.751501e-002
2.445399e+003;4.776212e-002
2.447327e+003;4.815127e-002
2.449256e+003;4.834478e-002
2.451185e+003;4.848987e-002
2.453113e+003;4.854582e-002
2.455042e+003;4.848064e-002
2.456970e+003;4.846694e-002
2.458899e+003;4.874398e-002
2.460827e+003;4.877353e-002
2.462756e+003;4.897892e-002
2.464684e+003;4.913766e-002
2.466613e+003;4.915539e-002
2.468542e+003;4.895429e-002
2.470470e+003;4.891999e-002
2.472398e+003;4.944294e-002
2.474327e+003;5.001496e-002
2.476256e+003;5.004165e-002
2.478184e+003;5.005950e-002
2.480113e+003;5.033142e-002
2.482041e+003;5.057072e-002
2.483970e+003;5.061174e-002
2.485898e+003;5.059179e-002
2.487827e+003;5.089552e-002
2.489755e+003;5.099076e-002
2.491684e+003;5.110312e-002
2.493613e+003;5.158053e-002
2.495541e+003;5.194896e-002
2.497470e+003;5.194885e-002
2.499398e+003;5.194056e-002
2.501327e+003;5.195228e-002
2.503255e+003;5.202306e-002
2.505184e+003;5.205633e-002
2.507112e+003;5.196543e-002
2.509041e+003;5.221590e-002
2.510969e+003;5.256266e-002
2.512898e+003;5.290052e-002
2.514827e+003;5.314124e-002
2.516755e+003;5.312353e-002
2.518684e+003;5.294648e-002
2.520612e+003;5.285730e-002
2.522541e+003;5.302259e-002
2.524469e+003;5.319273e-002
2.526398e+003;5.323977e-002
2.528326e+003;5.346261e-002
2.530255e+003;5.367091e-002
2.532184e+003;5.354379e-002
2.534112e+003;5.344567e-002
2.536041e+003;5.354229e-002
2.537969e+003;5.366244e-002
2.539898e+003;5.399459e-002
2.541826e+003;5.411385e-002
2.543755e+003;5.398878e-002
2.545683e+003;5.410867e-002
2.547612e+003;5.427136e-002
2.549541e+003;5.409178e-002
2.551469e+003;5.406277e-002
2.553397e+003;5.418937e-002
2.555326e+003;5.411276e-002
2.557255e+003;5.440999e-002
2.559183e+003;5.496145e-002
2.561112e+003;5.527710e-002
2.563040e+003;5.524854e-002
2.564969e+003;5.506273e-002
2.566897e+003;5.503196e-002
2.568826e+003;5.511716e-002
2.570754e+003;5.515463e-002
2.572683e+003;5.548321e-002
2.574612e+003;5.575535e-002
2.576540e+003;5.567975e-002
2.578469e+003;5.567478e-002
2.580397e+003;5.576639e-002
2.582326e+003;5.603030e-002
2.584254e+003;5.643804e-002
2.586183e+003;5.652026e-002
2.588111e+003;5.630369e-002
2.590040e+003;5.644155e-002
2.591969e+003;5.653898e-002
2.593897e+003;5.642702e-002
2.595826e+003;5.652132e-002
2.597754e+003;5.677481e-002
2.599683e+003;5.686315e-002
2.601611e+003;5.682927e-002
2.603540e+003;5.689574e-002
2.605468e+003;5.699831e-002
2.607397e+003;5.709299e-002
2.609325e+003;5.735257e-002
2.611254e+003;5.763769e-002
2.613183e+003;5.769793e-002
2.615111e+003;5.781949e-002
2.617040e+003;5.798562e-002
2.618968e+003;5.802031e-002
2.620897e+003;5.796616e-002
2.622825e+003;5.822224e-002
2.624754e+003;5.853792e-002
2.626682e+003;5.871438e-002
2.628611e+003;5.900832e-002
2.630540e+003;5.930065e-002
2.632468e+003;5.933259e-002
2.634396e+003;5.947376e-002
2.636325e+003;5.967466e-002
2.638254e+003;5.988623e-002
2.640182e+003;6.014550e-002
2.642111e+003;5.995013e-002
2.644039e+003;5.981443e-002
2.645968e+003;5.994046e-002
2.647896e+003;6.022546e-002
2.649825e+003;6.058298e-002
2.651753e+003;6.083009e-002
2.653682e+003;6.086100e-002
2.655611e+003;6.077498e-002
2.657539e+003;6.098692e-002
2.659468e+003;6.141407e-002
2.661396e+003;6.152954e-002
2.663325e+003;6.159804e-002
2.665253e+003;6.165558e-002
2.667182e+003;6.172918e-002
2.669110e+003;6.215419e-002
2.671039e+003;6.256848e-002
2.672968e+003;6.285474e-002
2.674896e+003;6.266937e-002
2.676825e+003;6.252053e-002
2.678753e+003;6.278904e-002
2.680682e+003;6.315485e-002
2.682610e+003;6.350711e-002
2.684539e+003;6.381269e-002
2.686467e+003;6.390577e-002
2.688396e+003;6.390700e-002
2.690324e+003;6.395744e-002
2.692253e+003;6.407785e-002
2.694182e+003;6.431424e-002
2.696110e+003;6.436938e-002
2.698039e+003;6.481337e-002
2.699967e+003;6.516422e-002
2.701896e+003;6.539126e-002
2.703824e+003;6.574022e-002
2.705753e+003;6.550683e-002
2.707681e+003;6.535155e-002
2.709610e+003;6.559079e-002
2.711539e+003;6.563573e-002
2.713467e+003;6.573062e-002
2.715396e+003;6.590582e-002
2.717324e+003;6.620634e-002
2.719253e+003;6.632452e-002
2.721181e+003;6.666503e-002
2.723110e+003;6.708427e-002
2.725038e+003;6.743602e-002
2.726967e+003;6.734876e-002
2.728896e+003;6.702337e-002
2.730824e+003;6.703408e-002
2.732752e+003;6.734610e-002
2.734681e+003;6.751703e-002
2.736610e+003;6.740297e-002
2.738538e+003;6.729127e-002
2.740467e+003;6.745204e-002
2.742395e+003;6.783056e-002
2.744324e+003;6.813388e-002
2.746252e+003;6.817649e-002
2.748181e+003;6.774589e-002
2.750109e+003;6.770143e-002
2.752038e+003;6.829392e-002
2.753967e+003;6.865481e-002
2.755895e+003;6.858236e-002
2.757824e+003;6.859175e-002
2.759752e+003;6.859047e-002
2.761681e+003;6.838033e-002
2.763609e+003;6.836834e-002
2.765538e+003;6.872746e-002
2.767466e+003;6.901824e-002
2.769395e+003;6.888516e-002
2.771323e+003;6.904520e-002
2.773252e+003;6.945582e-002
2.775181e+003;6.952099e-002
2.777109e+003;6.942856e-002
2.779038e+003;6.961615e-002
2.780966e+003;6.988663e-002
2.782895e+003;7.016102e-002
2.784823e+003;7.050023e-002
2.786752e+003;7.062747e-002
2.788680e+003;7.100649e-002
2.790609e+003;7.150713e-002
2.792538e+003;7.165528e-002
2.794466e+003;7.171660e-002
2.796395e+003;7.184082e-002
2.798323e+003;7.198338e-002
2.800252e+003;7.207874e-002
2.802180e+003;7.238372e-002
2.804109e+003;7.286509e-002
2.806037e+003;7.331841e-002
2.807966e+003;7.355019e-002
2.809895e+003;7.369602e-002
2.811823e+003;7.405938e-002
2.813751e+003;7.436945e-002
2.815680e+003;7.453424e-002
2.817609e+003;7.491748e-002
2.819537e+003;7.551099e-002
2.821466e+003;7.610449e-002
2.823394e+003;7.651654e-002
2.825323e+003;7.688188e-002
2.827251e+003;7.754435e-002
2.829180e+003;7.786626e-002
2.831108e+003;7.804608e-002
2.833037e+003;7.865881e-002
2.834966e+003;7.943458e-002
2.836894e+003;8.034576e-002
2.838823e+003;8.115646e-002
2.840751e+003;8.196204e-002
2.842680e+003;8.242412e-002
2.844608e+003;8.255040e-002
2.846537e+003;8.309069e-002
2.848465e+003;8.396246e-002
2.850394e+003;8.518822e-002
2.852323e+003;8.619843e-002
2.854251e+003;8.685771e-002
2.856180e+003;8.764119e-002
2.858108e+003;8.857626e-002
2.860037e+003;8.966803e-002
2.861965e+003;9.070791e-002
2.863894e+003;9.152881e-002
2.865822e+003;9.250588e-002
2.867751e+003;9.348692e-002
2.869679e+003;9.433268e-002
2.871608e+003;9.474670e-002
2.873536e+003;9.505334e-002
2.875465e+003;9.552800e-002
2.877394e+003;9.595229e-002
2.879322e+003;9.596296e-002
2.881251e+003;9.587602e-002
2.883179e+003;9.633134e-002
2.885108e+003;9.713240e-002
2.887036e+003;9.755570e-002
2.888965e+003;9.761398e-002
2.890893e+003;9.798650e-002
2.892822e+003;9.834293e-002
2.894750e+003;9.848346e-002
2.896679e+003;9.833471e-002
2.898608e+003;9.763563e-002
2.900536e+003;9.681191e-002
2.902465e+003;9.654254e-002
2.904393e+003;9.668807e-002
2.906322e+003;9.669048e-002
2.908250e+003;9.650079e-002
2.910179e+003;9.586511e-002
2.912107e+003;9.520122e-002
2.914036e+003;9.466676e-002
2.915965e+003;9.409806e-002
2.917893e+003;9.384091e-002
2.919822e+003;9.356829e-002
2.921750e+003;9.319884e-002
2.923679e+003;9.269559e-002
2.925607e+003;9.257521e-002
2.927536e+003;9.236396e-002
2.929464e+003;9.205901e-002
2.931393e+003;9.186974e-002
2.933322e+003;9.174988e-002
2.935250e+003;9.150263e-002
2.937178e+003;9.108609e-002
2.939107e+003;9.073074e-002
2.941036e+003;9.054103e-002
2.942964e+003;9.042297e-002
2.944893e+003;8.986799e-002
2.946821e+003;8.903173e-002
2.948750e+003;8.822930e-002
2.950678e+003;8.724867e-002
2.952607e+003;8.612372e-002
2.954535e+003;8.518846e-002
2.956464e+003;8.405682e-002
2.958393e+003;8.337126e-002
2.960321e+003;8.297447e-002
2.962250e+003;8.222659e-002
2.964178e+003;8.157462e-002
2.966107e+003;8.123740e-002
2.968035e+003;8.074378e-002
2.969964e+003;8.002956e-002
2.971892e+003;7.959948e-002
2.973821e+003;7.938664e-002
2.975750e+003;7.896944e-002
2.977678e+003;7.842183e-002
2.979607e+003;7.800682e-002
2.981535e+003;7.750850e-002
2.983464e+003;7.690953e-002
2.985392e+003;7.625750e-002
2.987321e+003;7.558651e-002
2.989249e+003;7.550780e-002
2.991178e+003;7.539092e-002
2.993106e+003;7.490949e-002
2.995035e+003;7.465333e-002
2.996964e+003;7.476778e-002
2.998892e+003;7.469288e-002
3.000821e+003;7.444492e-002
3.002749e+003;7.423794e-002
3.004678e+003;7.413720e-002
3.006606e+003;7.424584e-002
3.008535e+003;7.435998e-002
3.010463e+003;7.417265e-002
3.012392e+003;7.436870e-002
3.014321e+003;7.482572e-002
3.016249e+003;7.477777e-002
3.018177e+003;7.451957e-002
3.020106e+003;7.447068e-002
3.022035e+003;7.487535e-002
3.023963e+003;7.521146e-002
3.025892e+003;7.524495e-002
3.027820e+003;7.521512e-002
3.029749e+003;7.552452e-002
3.031677e+003;7.613429e-002
3.033606e+003;7.650074e-002
3.035534e+003;7.624637e-002
3.037463e+003;7.638912e-002
3.039392e+003;7.704118e-002
3.041320e+003;7.731589e-002
3.043249e+003;7.735600e-002
3.045177e+003;7.761973e-002
3.047106e+003;7.764664e-002
3.049034e+003;7.739076e-002
3.050963e+003;7.783214e-002
3.052891e+003;7.829821e-002
3.054820e+003;7.839671e-002
3.056749e+003;7.884693e-002
3.058677e+003;7.900648e-002
3.060606e+003;7.913288e-002
3.062534e+003;7.981919e-002
3.064463e+003;8.015723e-002
3.066391e+003;8.053876e-002
3.068320e+003;8.107223e-002
3.070248e+003;8.102363e-002
3.072177e+003;8.100479e-002
3.074105e+003;8.145349e-002
3.076034e+003;8.207183e-002
3.077963e+003;8.281355e-002
3.079891e+003;8.320360e-002
3.081820e+003;8.325963e-002
3.083748e+003;8.345136e-002
3.085677e+003;8.374204e-002
3.087605e+003;8.390585e-002
3.089534e+003;8.412047e-002
3.091462e+003;8.478397e-002
3.093391e+003;8.559971e-002
3.095320e+003;8.595524e-002
3.097248e+003;8.598545e-002
3.099177e+003;8.614655e-002
3.101105e+003;8.688325e-002
3.103034e+003;8.757190e-002
3.104962e+003;8.760105e-002
3.106891e+003;8.803800e-002
3.108819e+003;8.877487e-002
3.110748e+003;8.943396e-002
3.112677e+003;8.957773e-002
3.114605e+003;8.950456e-002
3.116533e+003;8.984827e-002
3.118462e+003;9.018417e-002
3.120391e+003;9.040073e-002
3.122319e+003;9.075508e-002
3.124248e+003;9.106815e-002
3.126176e+003;9.165940e-002
3.128105e+003;9.240729e-002
3.130033e+003;9.292895e-002
3.131962e+003;9.325378e-002
3.133890e+003;9.394377e-002
3.135819e+003;9.438387e-002
3.137748e+003;9.457983e-002
3.139676e+003;9.510931e-002
3.141605e+003;9.584089e-002
3.143533e+003;9.641978e-002
3.145462e+003;9.686180e-002
3.147390e+003;9.697318e-002
3.149319e+003;9.743638e-002
3.151247e+003;9.807499e-002
3.153176e+003;9.853879e-002
3.155104e+003;9.949219e-002
3.157033e+003;1.001203e-001
3.158962e+003;1.005458e-001
3.160890e+003;1.007312e-001
3.162819e+003;1.006054e-001
3.164747e+003;1.011089e-001
3.166676e+003;1.021119e-001
3.168604e+003;1.026438e-001
3.170533e+003;1.028210e-001
3.172461e+003;1.032890e-001
3.174390e+003;1.040424e-001
3.176319e+003;1.046592e-001
3.178247e+003;1.052475e-001
3.180176e+003;1.060421e-001
3.182104e+003;1.067079e-001
3.184033e+003;1.069885e-001
3.185961e+003;1.075851e-001
3.187890e+003;1.082786e-001
3.189818e+003;1.086823e-001
3.191747e+003;1.092154e-001
3.193676e+003;1.098890e-001
3.195604e+003;1.102584e-001
3.197532e+003;1.105825e-001
3.199461e+003;1.111183e-001
3.201390e+003;1.116964e-001
3.203318e+003;1.122369e-001
3.205247e+003;1.127527e-001
3.207175e+003;1.131910e-001
3.209104e+003;1.138949e-001
3.211032e+003;1.145440e-001
3.212961e+003;1.151327e-001
3.214889e+003;1.157516e-001
3.216818e+003;1.162826e-001
3.218747e+003;1.167602e-001
3.220675e+003;1.171895e-001
3.222604e+003;1.177868e-001
3.224532e+003;1.183900e-001
3.226461e+003;1.191147e-001
3.228389e+003;1.202204e-001
3.230318e+003;1.211100e-001
3.232246e+003;1.212990e-001
3.234175e+003;1.216848e-001
3.236104e+003;1.222896e-001
3.238032e+003;1.225492e-001
3.239961e+003;1.227608e-001
3.241889e+003;1.232038e-001
3.243818e+003;1.239723e-001
3.245746e+003;1.248774e-001
3.247675e+003;1.253787e-001
3.249603e+003;1.260286e-001
3.251532e+003;1.266415e-001
3.253460e+003;1.269900e-001
3.255389e+003;1.275308e-001
3.257318e+003;1.281097e-001
3.259246e+003;1.286763e-001
3.261175e+003;1.293472e-001
3.263103e+003;1.297975e-001
3.265032e+003;1.299623e-001
3.266960e+003;1.305379e-001
3.268889e+003;1.307386e-001
3.270817e+003;1.309226e-001
3.272746e+003;1.316511e-001
3.274675e+003;1.322601e-001
3.276603e+003;1.324691e-001
3.278531e+003;1.327962e-001
3.280460e+003;1.336455e-001
3.282389e+003;1.341516e-001
3.284317e+003;1.343079e-001
3.286246e+003;1.343156e-001
3.288174e+003;1.345427e-001
3.290103e+003;1.347582e-001
3.292031e+003;1.347652e-001
3.293960e+003;1.349941e-001
3.295888e+003;1.348307e-001
3.297817e+003;1.347314e-001
3.299746e+003;1.350289e-001
3.301674e+003;1.354043e-001
3.303603e+003;1.353980e-001
3.305531e+003;1.357504e-001
3.307460e+003;1.362779e-001
3.309388e+003;1.360875e-001
3.311317e+003;1.362497e-001
3.313245e+003;1.363795e-001
3.315174e+003;1.363432e-001
3.317103e+003;1.365338e-001
3.319031e+003;1.369790e-001
3.320960e+003;1.378954e-001
3.322888e+003;1.380397e-001
3.324817e+003;1.379210e-001
3.326745e+003;1.379256e-001
3.328674e+003;1.378667e-001
3.330602e+003;1.379256e-001
3.332531e+003;1.375836e-001
3.334459e+003;1.373174e-001
3.336388e+003;1.372790e-001
3.338317e+003;1.373473e-001
3.340245e+003;1.373546e-001
3.342174e+003;1.371158e-001
3.344102e+003;1.370487e-001
3.346031e+003;1.368170e-001
3.347959e+003;1.370722e-001
3.349888e+003;1.371281e-001
3.351816e+003;1.366121e-001
3.353745e+003;1.362456e-001
3.355674e+003;1.354771e-001
3.357602e+003;1.347567e-001
3.359531e+003;1.347717e-001
3.361459e+003;1.344920e-001
3.363388e+003;1.339866e-001
3.365316e+003;1.336008e-001
3.367245e+003;1.337227e-001
3.369173e+003;1.339379e-001
3.371102e+003;1.335939e-001
3.373031e+003;1.331594e-001
3.374959e+003;1.327494e-001
3.376887e+003;1.325404e-001
3.378816e+003;1.321762e-001
3.380745e+003;1.318032e-001
3.382673e+003;1.317821e-001
3.384602e+003;1.313996e-001
3.386530e+003;1.310410e-001
3.388459e+003;1.308304e-001
3.390387e+003;1.305335e-001
3.392316e+003;1.301620e-001
3.394244e+003;1.296831e-001
3.396173e+003;1.293426e-001
3.398102e+003;1.291054e-001
3.400030e+003;1.286493e-001
3.401959e+003;1.276066e-001
3.403887e+003;1.269185e-001
3.405816e+003;1.267115e-001
3.407744e+003;1.263758e-001
3.409673e+003;1.261417e-001
3.411601e+003;1.256877e-001
3.413530e+003;1.252794e-001
3.415458e+003;1.249752e-001
3.417387e+003;1.245485e-001
3.419316e+003;1.239295e-001
3.421244e+003;1.228625e-001
3.423173e+003;1.223185e-001
3.425101e+003;1.217524e-001
3.427030e+003;1.207883e-001
3.428958e+003;1.201175e-001
3.430887e+003;1.199356e-001
3.432815e+003;1.192779e-001
3.434744e+003;1.181319e-001
3.436673e+003;1.173514e-001
3.438601e+003;1.170930e-001
3.440530e+003;1.168661e-001
3.442458e+003;1.159459e-001
3.444387e+003;1.148949e-001
3.446315e+003;1.142919e-001
3.448244e+003;1.142228e-001
3.450172e+003;1.138801e-001
3.452101e+003;1.128218e-001
3.454030e+003;1.121513e-001
3.455958e+003;1.116600e-001
3.457886e+003;1.101210e-001
3.459815e+003;1.087888e-001
3.461744e+003;1.079933e-001
3.463672e+003;1.075406e-001
3.465601e+003;1.074688e-001
3.467529e+003;1.065192e-001
3.469458e+003;1.054042e-001
3.471386e+003;1.048779e-001
3.473315e+003;1.048787e-001
3.475243e+003;1.042394e-001
3.477172e+003;1.027369e-001
3.479101e+003;1.016632e-001
3.481029e+003;1.009088e-001
3.482958e+003;1.002406e-001
3.484886e+003;9.952823e-002
3.486815e+003;9.883002e-002
3.488743e+003;9.855878e-002
3.490672e+003;9.811673e-002
3.492600e+003;9.705077e-002
3.494529e+003;9.564584e-002
3.496458e+003;9.456331e-002
3.498386e+003;9.395081e-002
3.500315e+003;9.314545e-002
3.502243e+003;9.222569e-002
3.504172e+003;9.141498e-002
3.506100e+003;9.084962e-002
3.508029e+003;9.019156e-002
3.509957e+003;8.933713e-002
3.511886e+003;8.851475e-002
3.513814e+003;8.736972e-002
3.515743e+003;8.631498e-002
3.517672e+003;8.616389e-002
3.519600e+003;8.597111e-002
3.521529e+003;8.480891e-002
3.523457e+003;8.384207e-002
3.525386e+003;8.343152e-002
3.527314e+003;8.297031e-002
3.529243e+003;8.203728e-002
3.531171e+003;8.098902e-002
3.533100e+003;8.020019e-002
3.535029e+003;7.918438e-002
3.536957e+003;7.808241e-002
3.538885e+003;7.773297e-002
3.540814e+003;7.763273e-002
3.542743e+003;7.673999e-002
3.544671e+003;7.564487e-002
3.546600e+003;7.454766e-002
3.548528e+003;7.348339e-002
3.550457e+003;7.288727e-002
3.552385e+003;7.253382e-002
3.554314e+003;7.166701e-002
3.556242e+003;7.059285e-002
3.558171e+003;6.971266e-002
3.560100e+003;6.931575e-002
3.562028e+003;6.910149e-002
3.563957e+003;6.840293e-002
3.565885e+003;6.726036e-002
3.567814e+003;6.646080e-002
3.569742e+003;6.574639e-002
3.571671e+003;6.478144e-002
3.573599e+003;6.394450e-002
3.575528e+003;6.332517e-002
3.577457e+003;6.292004e-002
3.579385e+003;6.222454e-002
3.581314e+003;6.121931e-002
3.583242e+003;6.009264e-002
3.585171e+003;5.936776e-002
3.587099e+003;5.900787e-002
3.589028e+003;5.869500e-002
3.590956e+003;5.827188e-002
3.592885e+003;5.778119e-002
3.594813e+003;5.693087e-002
3.596742e+003;5.642079e-002
3.598671e+003;5.597037e-002
3.600599e+003;5.547644e-002
3.602528e+003;5.486215e-002
3.604456e+003;5.444669e-002
3.606385e+003;5.443027e-002
3.608313e+003;5.387004e-002
3.610242e+003;5.315472e-002
3.612170e+003;5.247848e-002
3.614099e+003;5.162765e-002
3.616028e+003;5.108728e-002
3.617956e+003;5.046073e-002
3.619885e+003;4.958710e-002
3.621813e+003;4.925336e-002
3.623742e+003;4.916689e-002
3.625670e+003;4.888105e-002
3.627599e+003;4.825212e-002
3.629527e+003;4.768312e-002
3.631456e+003;4.737061e-002
3.633385e+003;4.655163e-002
3.635313e+003;4.582465e-002
3.637241e+003;4.534848e-002
3.639170e+003;4.488036e-002
3.641099e+003;4.414073e-002
3.643027e+003;4.317246e-002
3.644956e+003;4.276796e-002
3.646884e+003;4.261106e-002
3.648813e+003;4.212193e-002
3.650741e+003;4.104884e-002
3.652670e+003;4.014300e-002
3.654598e+003;3.987360e-002
3.656527e+003;3.979716e-002
3.658456e+003;3.906706e-002
3.660384e+003;3.787580e-002
3.662313e+003;3.694177e-002
3.664241e+003;3.624596e-002
3.666170e+003;3.524954e-002
3.668098e+003;3.416410e-002
3.670027e+003;3.346703e-002
3.671955e+003;3.356865e-002
3.673884e+003;3.316472e-002
3.675813e+003;3.217271e-002
3.677741e+003;3.130982e-002
3.679669e+003;3.048382e-002
3.681598e+003;3.021427e-002
3.683527e+003;2.992846e-002
3.685455e+003;2.976083e-002
3.687384e+003;2.914473e-002
3.689312e+003;2.806460e-002
3.691241e+003;2.793903e-002
3.693169e+003;2.789426e-002
3.695098e+003;2.735960e-002
3.697026e+003;2.682728e-002
3.698955e+003;2.671764e-002
3.700884e+003;2.726380e-002
3.702812e+003;2.708761e-002
3.704741e+003;2.629512e-002
3.706669e+003;2.576994e-002
3.708598e+003;2.515873e-002
3.710526e+003;2.507549e-002
3.712455e+003;2.518166e-002
3.714383e+003;2.514247e-002
3.716312e+003;2.516533e-002
3.718240e+003;2.492331e-002
3.720169e+003;2.469507e-002
3.722098e+003;2.438787e-002
3.724026e+003;2.408754e-002
3.725955e+003;2.408036e-002
3.727883e+003;2.360126e-002
3.729812e+003;2.336546e-002
3.731740e+003;2.375638e-002
3.733669e+003;2.387118e-002
3.735597e+003;2.357901e-002
3.737526e+003;2.318899e-002
3.739455e+003;2.319762e-002
3.741383e+003;2.295914e-002
3.743312e+003;2.276674e-002
3.745240e+003;2.289162e-002
3.747169e+003;2.287804e-002
3.749097e+003;2.279649e-002
3.751026e+003;2.300159e-002
3.752954e+003;2.302301e-002
3.754883e+003;2.316991e-002
3.756812e+003;2.339567e-002
3.758740e+003;2.298335e-002
3.760668e+003;2.265327e-002
3.762597e+003;2.250812e-002
3.764526e+003;2.209580e-002
3.766454e+003;2.159224e-002
3.768383e+003;2.159218e-002
3.770311e+003;2.180824e-002
3.772240e+003;2.227245e-002
3.774168e+003;2.278514e-002
3.776097e+003;2.296435e-002
3.778025e+003;2.249049e-002
3.779954e+003;2.183691e-002
3.781883e+003;2.193441e-002
3.783811e+003;2.285834e-002
3.785740e+003;2.310512e-002
3.787668e+003;2.265209e-002
3.789597e+003;2.247933e-002
3.791525e+003;2.246474e-002
3.793454e+003;2.252110e-002
3.795382e+003;2.269387e-002
3.797311e+003;2.277533e-002
3.799240e+003;2.245679e-002
3.801168e+003;2.210849e-002
3.803097e+003;2.236088e-002
3.805025e+003;2.257306e-002
3.806954e+003;2.211647e-002
3.808882e+003;2.169986e-002
3.810811e+003;2.186280e-002
3.812739e+003;2.224797e-002
3.814668e+003;2.235087e-002
3.816596e+003;2.223890e-002
3.818525e+003;2.260406e-002
3.820454e+003;2.269164e-002
3.822382e+003;2.230266e-002
3.824311e+003;2.233981e-002
3.826239e+003;2.277746e-002
3.828168e+003;2.281856e-002
3.830096e+003;2.249880e-002
3.832025e+003;2.263362e-002
3.833953e+003;2.316697e-002
3.835882e+003;2.299743e-002
3.837811e+003;2.196654e-002
3.839739e+003;2.195860e-002
3.841667e+003;2.291262e-002
3.843596e+003;2.348366e-002
3.845525e+003;2.349108e-002
3.847453e+003;2.320444e-002
3.849382e+003;2.279621e-002
3.851310e+003;2.246739e-002
3.853239e+003;2.240850e-002
3.855167e+003;2.263271e-002
3.857096e+003;2.266940e-002
3.859024e+003;2.308600e-002
3.860953e+003;2.357961e-002
3.862882e+003;2.347289e-002
3.864810e+003;2.312535e-002
3.866739e+003;2.342473e-002
3.868667e+003;2.370637e-002
3.870596e+003;2.367761e-002
3.872524e+003;2.394995e-002
3.874453e+003;2.458229e-002
3.876381e+003;2.463660e-002
3.878310e+003;2.436782e-002
3.880239e+003;2.439866e-002
3.882167e+003;2.474726e-002
3.884096e+003;2.472348e-002
3.886024e+003;2.432671e-002
3.887953e+003;2.497093e-002
3.889881e+003;2.513798e-002
3.891810e+003;2.477353e-002
3.893738e+003;2.493394e-002
3.895667e+003;2.511193e-002
3.897595e+003;2.525691e-002
3.899524e+003;2.517102e-002
3.901453e+003;2.493633e-002
3.903381e+003;2.515596e-002
3.905310e+003;2.572543e-002
3.907238e+003;2.579240e-002
3.909167e+003;2.528806e-002
3.911095e+003;2.487369e-002
3.913024e+003;2.488657e-002
3.914952e+003;2.500676e-002
3.916881e+003;2.531574e-002
3.918810e+003;2.591570e-002
3.920738e+003;2.638303e-002
3.922667e+003;2.652776e-002
3.924595e+003;2.643074e-002
3.926524e+003;2.640817e-002
3.928452e+003;2.641070e-002
3.930381e+003;2.684603e-002
3.932309e+003;2.706839e-002
3.934238e+003;2.697135e-002
3.936167e+003;2.674544e-002
3.938095e+003;2.656358e-002
3.940023e+003;2.668593e-002
3.941952e+003;2.685526e-002
3.943881e+003;2.660169e-002
3.945809e+003;2.594792e-002
3.947738e+003;2.600993e-002
3.949666e+003;2.654914e-002
3.951595e+003;2.716291e-002
3.953523e+003;2.798472e-002
3.955452e+003;2.859801e-002
3.957380e+003;2.873166e-002
3.959309e+003;2.876328e-002
3.961238e+003;2.886723e-002
3.963166e+003;2.883448e-002
3.965095e+003;2.809970e-002
3.967023e+003;2.770051e-002
3.968952e+003;2.805152e-002
3.970880e+003;2.815439e-002
3.972809e+003;2.839602e-002
3.974737e+003;2.832585e-002
3.976666e+003;2.845414e-002
3.978594e+003;2.862572e-002
3.980523e+003;2.842457e-002
3.982452e+003;2.823836e-002
3.984380e+003;2.808673e-002
3.986309e+003;2.773498e-002
3.988237e+003;2.795886e-002
3.990166e+003;2.876168e-002
3.992094e+003;2.886521e-002
3.994023e+003;2.852880e-002
3.995951e+003;2.817436e-002
3.997880e+003;2.803144e-002
3.999809e+003;2.855229e-002
4.001737e+003;0.000000e+000
