3.992094e+002;0.000000e+000
4.011380e+002;0.000000e+000
4.030665e+002;0.000000e+000
4.049951e+002;0.000000e+000
4.069236e+002;0.000000e+000
4.088522e+002;0.000000e+000
4.107807e+002;0.000000e+000
4.127093e+002;0.000000e+000
4.146378e+002;0.000000e+000
4.165664e+002;0.000000e+000
4.184949e+002;0.000000e+000
4.204235e+002;0.000000e+000
4.223520e+002;0.000000e+000
4.242806e+002;0.000000e+000
4.262091e+002;0.000000e+000
4.281377e+002;0.000000e+000
4.300662e+002;0.000000e+000
4.319948e+002;0.000000e+000
4.339233e+002;0.000000e+000
4.358519e+002;0.000000e+000
4.377804e+002;0.000000e+000
4.397090e+002;0.000000e+000
4.416375e+002;0.000000e+000
4.435660e+002;0.000000e+000
4.454946e+002;0.000000e+000
4.474232e+002;0.000000e+000
4.493517e+002;0.000000e+000
4.512802e+002;0.000000e+000
4.532088e+002;0.000000e+000
4.551373e+002;0.000000e+000
4.570659e+002;0.000000e+000
4.589944e+002;0.000000e+000
4.609230e+002;0.000000e+000
4.628515e+002;0.000000e+000
4.647801e+002;0.000000e+000
4.667086e+002;0.000000e+000
4.686372e+002;0.000000e+000
4.705657e+002;0.000000e+000
4.724943e+002;0.000000e+000
4.744228e+002;0.000000e+000
4.763513e+002;0.000000e+000
4.782799e+002;0.000000e+000
4.802085e+002;0.000000e+000
4.821370e+002;0.000000e+000
4.840656e+002;0.000000e+000
4.859941e+002;0.000000e+000
4.879226e+002;0.000000e+000
4.898512e+002;0.000000e+000
4.917798e+002;0.000000e+000
4.937083e+002;0.000000e+000
4.956368e+002;0.000000e+000
4.975654e+002;0.000000e+000
4.994939e+002;0.000000e+000
5.014225e+002;0.000000e+000
5.033510e+002;0.000000e+000
5.052796e+002;0.000000e+000
5.072081e+002;0.000000e+000
5.091367e+002;0.000000e+000
5.110652e+002;0.000000e+000
5.129938e+002;0.000000e+000
5.149223e+002;0.000000e+000
5.168509e+002;0.000000e+000
5.187794e+002;0.000000e+000
5.207079e+002;0.000000e+000
5.226365e+002;0.000000e+000
5.245651e+002;0.000000e+000
5.264936e+002;0.000000e+000
5.284222e+002;0.000000e+000
5.303507e+002;0.000000e+000
5.322792e+002;0.000000e+000
5.342078e+002;0.000000e+000
5.361364e+002;0.000000e+000
5.380649e+002;0.000000e+000
5.399935e+002;0.000000e+000
5.419220e+002;0.000000e+000
5.438505e+002;0.000000e+000
5.457791e+002;0.000000e+000
5.477076e+002;0.000000e+000
5.496362e+002;0.000000e+000
5.515648e+002;0.000000e+000
5.534933e+002;0.000000e+000
5.554218e+002;0.000000e+000
5.573504e+002;0.000000e+000
5.592789e+002;0.000000e+000
5.612075e+002;0.000000e+000
5.631360e+002;0.000000e+000
5.650646e+002;0.000000e+000
5.669931e+002;0.000000e+000
5.689217e+002;0.000000e+000
5.708502e+002;0.000000e+000
5.727787e+002;0.000000e+000
5.747073e+002;0.000000e+000
5.766359e+002;0.000000e+000
5.785644e+002;0.000000e+000
5.804930e+002;0.000000e+000
5.824215e+002;0.000000e+000
5.843500e+002;0.000000e+000
5.862786e+002;0.000000e+000
5.882072e+002;0.000000e+000
5.901357e+002;0.000000e+000
5.920643e+002;0.000000e+000
5.939928e+002;0.000000e+000
5.959213e+002;0.000000e+000
5.978499e+002;0.000000e+000
5.997784e+002;2.069908e-001
6.017070e+002;2.000029e-001
6.036355e+002;1.919085e-001
6.055641e+002;1.945695e-001
6.074926e+002;2.013594e-001
6.094211e+002;2.033150e-001
6.113497e+002;2.015305e-001
6.132783e+002;2.013585e-001
6.152068e+002;1.999410e-001
6.171354e+002;1.939572e-001
6.190639e+002;1.951458e-001
6.209924e+002;1.975609e-001
6.229210e+002;1.924187e-001
6.248495e+002;1.893159e-001
6.267781e+002;1.852954e-001
6.287067e+002;1.839903e-001
6.306352e+002;1.882099e-001
6.325637e+002;1.875867e-001
6.344923e+002;1.824179e-001
6.364208e+002;1.757171e-001
6.383494e+002;1.713170e-001
6.402780e+002;1.716682e-001
6.422065e+002;1.748326e-001
6.441350e+002;1.759940e-001
6.460636e+002;1.727399e-001
6.479921e+002;1.708611e-001
6.499207e+002;1.756460e-001
6.518492e+002;1.794812e-001
6.537778e+002;1.789939e-001
6.557063e+002;1.788353e-001
6.576349e+002;1.776976e-001
6.595634e+002;1.798369e-001
6.614919e+002;1.814482e-001
6.634205e+002;1.797842e-001
6.653491e+002;1.786379e-001
6.672776e+002;1.766405e-001
6.692062e+002;1.754380e-001
6.711347e+002;1.747251e-001
6.730632e+002;1.737359e-001
6.749918e+002;1.722385e-001
6.769203e+002;1.688362e-001
6.788489e+002;1.642787e-001
6.807775e+002;1.611035e-001
6.827060e+002;1.588166e-001
6.846345e+002;1.572823e-001
6.865631e+002;1.563788e-001
6.884916e+002;1.557195e-001
6.904202e+002;1.543503e-001
6.923488e+002;1.536482e-001
6.942773e+002;1.543484e-001
6.962058e+002;1.531307e-001
6.981344e+002;1.513434e-001
7.000629e+002;1.507102e-001
7.019915e+002;1.500758e-001
7.039200e+002;1.486781e-001
7.058486e+002;1.476178e-001
7.077771e+002;1.471512e-001
7.097057e+002;1.453554e-001
7.116342e+002;1.436623e-001
7.135627e+002;1.423411e-001
7.154913e+002;1.416997e-001
7.174199e+002;1.410094e-001
7.193484e+002;1.391379e-001
7.212770e+002;1.371004e-001
7.232055e+002;1.349942e-001
7.251340e+002;1.338961e-001
7.270626e+002;1.332041e-001
7.289911e+002;1.323158e-001
7.309197e+002;1.305872e-001
7.328483e+002;1.281614e-001
7.347768e+002;1.261956e-001
7.367053e+002;1.255192e-001
7.386339e+002;1.243617e-001
7.405624e+002;1.217630e-001
7.424910e+002;1.202384e-001
7.444196e+002;1.201794e-001
7.463481e+002;1.196204e-001
7.482766e+002;1.181806e-001
7.502052e+002;1.162388e-001
7.521337e+002;1.155871e-001
7.540623e+002;1.159334e-001
7.559908e+002;1.147603e-001
7.579194e+002;1.131149e-001
7.598479e+002;1.123505e-001
7.617765e+002;1.114848e-001
7.637050e+002;1.111642e-001
7.656335e+002;1.106801e-001
7.675621e+002;1.091057e-001
7.694907e+002;1.082022e-001
7.714192e+002;1.080216e-001
7.733478e+002;1.064080e-001
7.752763e+002;1.051155e-001
7.772048e+002;1.044723e-001
7.791334e+002;1.039403e-001
7.810620e+002;1.033233e-001
7.829905e+002;1.024347e-001
7.849191e+002;1.018385e-001
7.868476e+002;1.011648e-001
7.887761e+002;1.004773e-001
7.907047e+002;9.971761e-002
7.926332e+002;1.001892e-001
7.945618e+002;1.013047e-001
7.964903e+002;1.019796e-001
7.984189e+002;1.014452e-001
8.003474e+002;1.003263e-001
8.022759e+002;9.957990e-002
8.042045e+002;9.907433e-002
8.061331e+002;9.917832e-002
8.080616e+002;9.982997e-002
8.099902e+002;9.982818e-002
8.119187e+002;9.948752e-002
8.138472e+002;1.004291e-001
8.157758e+002;1.018275e-001
8.177043e+002;1.031068e-001
8.196329e+002;1.032794e-001
8.215615e+002;1.031386e-001
8.234900e+002;1.036219e-001
8.254185e+002;1.034580e-001
8.273471e+002;1.032992e-001
8.292756e+002;1.028905e-001
8.312042e+002;1.028638e-001
8.331328e+002;1.038205e-001
8.350613e+002;1.038921e-001
8.369898e+002;1.032517e-001
8.389184e+002;1.029345e-001
8.408469e+002;1.026368e-001
8.427755e+002;1.024950e-001
8.447040e+002;1.028994e-001
8.466326e+002;1.029202e-001
8.485611e+002;1.021942e-001
8.504897e+002;1.019008e-001
8.524182e+002;1.023375e-001
8.543467e+002;1.020710e-001
8.562753e+002;1.016897e-001
8.582039e+002;1.019166e-001
8.601324e+002;1.023696e-001
8.620610e+002;1.036516e-001
8.639895e+002;1.051183e-001
8.659180e+002;1.069888e-001
8.678466e+002;1.094597e-001
8.697751e+002;1.116714e-001
8.717037e+002;1.141792e-001
8.736323e+002;1.168910e-001
8.755608e+002;1.190157e-001
8.774893e+002;1.209562e-001
8.794179e+002;1.234579e-001
8.813464e+002;1.264320e-001
8.832750e+002;1.293398e-001
8.852036e+002;1.320543e-001
8.871321e+002;1.351981e-001
8.890606e+002;1.386681e-001
8.909892e+002;1.417045e-001
8.929177e+002;1.446016e-001
8.948463e+002;1.468007e-001
8.967748e+002;1.477982e-001
8.987034e+002;1.481882e-001
9.006319e+002;1.475595e-001
9.025605e+002;1.458867e-001
9.044890e+002;1.441737e-001
9.064175e+002;1.424967e-001
9.083461e+002;1.405000e-001
9.102747e+002;1.385831e-001
9.122032e+002;1.372314e-001
9.141318e+002;1.364861e-001
9.160603e+002;1.361533e-001
9.179888e+002;1.359520e-001
9.199174e+002;1.355419e-001
9.218459e+002;1.356955e-001
9.237745e+002;1.367911e-001
9.257031e+002;1.380257e-001
9.276316e+002;1.385516e-001
9.295601e+002;1.386043e-001
9.314887e+002;1.393354e-001
9.334172e+002;1.414293e-001
9.353458e+002;1.436294e-001
9.372744e+002;1.451649e-001
9.392029e+002;1.471176e-001
9.411314e+002;1.497767e-001
9.430600e+002;1.523151e-001
9.449885e+002;1.551949e-001
9.469171e+002;1.593842e-001
9.488456e+002;1.642996e-001
9.507742e+002;1.692073e-001
9.527027e+002;1.742354e-001
9.546313e+002;1.798501e-001
9.565598e+002;1.859983e-001
9.584883e+002;1.914881e-001
9.604169e+002;1.964911e-001
9.623455e+002;2.011456e-001
9.642740e+002;2.062520e-001
9.662026e+002;2.115599e-001
9.681311e+002;2.170487e-001
9.700596e+002;2.228170e-001
9.719882e+002;2.291145e-001
9.739167e+002;2.356839e-001
9.758453e+002;2.428461e-001
9.777739e+002;2.510910e-001
9.797024e+002;2.590837e-001
9.816309e+002;2.663749e-001
9.835595e+002;2.729014e-001
9.854880e+002;2.777641e-001
9.874166e+002;2.822572e-001
9.893452e+002;2.858654e-001
9.912737e+002;2.879828e-001
9.932022e+002;2.900128e-001
9.951307e+002;2.921711e-001
9.970593e+002;2.938694e-001
9.989879e+002;2.966281e-001
1.000916e+003;3.007873e-001
1.002845e+003;3.043441e-001
1.004773e+003;3.072603e-001
1.006702e+003;3.110789e-001
1.008631e+003;3.147686e-001
1.010559e+003;3.178189e-001
1.012488e+003;3.218442e-001
1.014416e+003;3.267614e-001
1.016345e+003;3.305451e-001
1.018273e+003;3.340459e-001
1.020202e+003;3.366839e-001
1.022130e+003;3.386178e-001
1.024059e+003;3.402702e-001
1.025988e+003;3.416621e-001
1.027916e+003;3.429166e-001
1.029845e+003;3.440461e-001
1.031773e+003;3.446412e-001
1.033702e+003;3.439285e-001
1.035630e+003;3.416848e-001
1.037559e+003;3.384576e-001
1.039487e+003;3.350151e-001
1.041416e+003;3.318918e-001
1.043344e+003;3.290710e-001
1.045273e+003;3.266273e-001
1.047202e+003;3.239270e-001
1.049130e+003;3.207631e-001
1.051059e+003;3.175258e-001
1.052987e+003;3.134937e-001
1.054916e+003;3.084338e-001
1.056844e+003;3.032118e-001
1.058773e+003;2.972327e-001
1.060701e+003;2.903170e-001
1.062630e+003;2.842349e-001
1.064558e+003;2.776148e-001
1.066487e+003;2.704536e-001
1.068416e+003;2.646259e-001
1.070344e+003;2.601807e-001
1.072273e+003;2.556990e-001
1.074201e+003;2.507755e-001
1.076130e+003;2.469090e-001
1.078058e+003;2.440011e-001
1.079987e+003;2.407089e-001
1.081915e+003;2.378907e-001
1.083844e+003;2.353031e-001
1.085773e+003;2.323603e-001
1.087701e+003;2.296409e-001
1.089630e+003;2.276781e-001
1.091558e+003;2.261849e-001
1.093487e+003;2.246206e-001
1.095415e+003;2.236942e-001
1.097344e+003;2.226904e-001
1.099272e+003;2.210940e-001
1.101201e+003;2.196275e-001
1.103129e+003;2.172431e-001
1.105058e+003;2.137991e-001
1.106987e+003;2.094658e-001
1.108915e+003;2.047606e-001
1.110844e+003;1.997418e-001
1.112772e+003;1.944543e-001
1.114701e+003;1.890468e-001
1.116629e+003;1.837886e-001
1.118558e+003;1.789003e-001
1.120486e+003;1.737521e-001
1.122415e+003;1.691679e-001
1.124344e+003;1.655113e-001
1.126272e+003;1.617790e-001
1.128201e+003;1.573290e-001
1.130129e+003;1.528136e-001
1.132058e+003;1.485152e-001
1.133986e+003;1.448744e-001
1.135915e+003;1.416148e-001
1.137843e+003;1.391838e-001
1.139772e+003;1.377469e-001
1.141700e+003;1.363234e-001
1.143629e+003;1.357499e-001
1.145557e+003;1.362274e-001
1.147486e+003;1.365283e-001
1.149415e+003;1.366116e-001
1.151343e+003;1.369555e-001
1.153272e+003;1.371008e-001
1.155200e+003;1.366889e-001
1.157129e+003;1.355391e-001
1.159057e+003;1.343248e-001
1.160986e+003;1.334542e-001
1.162914e+003;1.314474e-001
1.164843e+003;1.281656e-001
1.166771e+003;1.240994e-001
1.168700e+003;1.198120e-001
1.170629e+003;1.151145e-001
1.172557e+003;1.105809e-001
1.174486e+003;1.063934e-001
1.176414e+003;1.026671e-001
1.178343e+003;9.957465e-002
1.180271e+003;9.693122e-002
1.182200e+003;9.551124e-002
1.184128e+003;9.504011e-002
1.186057e+003;9.505466e-002
1.187986e+003;9.513769e-002
1.189914e+003;9.559707e-002
1.191843e+003;9.720824e-002
1.193771e+003;9.995157e-002
1.195700e+003;1.029803e-001
1.197628e+003;1.053889e-001
1.199557e+003;1.073449e-001
1.201485e+003;1.096268e-001
1.203414e+003;1.120562e-001
1.205343e+003;1.139243e-001
1.207271e+003;1.158368e-001
1.209200e+003;1.176118e-001
1.211128e+003;1.197681e-001
1.213057e+003;1.228098e-001
1.214985e+003;1.266517e-001
1.216914e+003;1.305715e-001
1.218842e+003;1.341621e-001
1.220771e+003;1.377455e-001
1.222699e+003;1.411104e-001
1.224628e+003;1.440163e-001
1.226557e+003;1.468090e-001
1.228485e+003;1.495281e-001
1.230414e+003;1.516123e-001
1.232342e+003;1.530463e-001
1.234271e+003;1.539805e-001
1.236199e+003;1.543142e-001
1.238128e+003;1.539647e-001
1.240056e+003;1.536070e-001
1.241985e+003;1.528487e-001
1.243913e+003;1.512529e-001
1.245842e+003;1.494014e-001
1.247771e+003;1.477910e-001
1.249699e+003;1.456837e-001
1.251628e+003;1.432561e-001
1.253556e+003;1.410100e-001
1.255485e+003;1.386216e-001
1.257413e+003;1.356046e-001
1.259342e+003;1.329003e-001
1.261270e+003;1.309375e-001
1.263199e+003;1.285164e-001
1.265127e+003;1.256991e-001
1.267056e+003;1.229197e-001
1.268985e+003;1.202275e-001
1.270913e+003;1.177145e-001
1.272842e+003;1.153270e-001
1.274770e+003;1.128917e-001
1.276699e+003;1.106665e-001
1.278627e+003;1.090657e-001
1.280556e+003;1.072694e-001
1.282484e+003;1.052622e-001
1.284413e+003;1.032783e-001
1.286342e+003;1.020320e-001
1.288270e+003;1.016141e-001
1.290199e+003;1.007227e-001
1.292127e+003;1.001907e-001
1.294056e+003;1.007230e-001
1.295984e+003;1.013040e-001
1.297913e+003;1.016946e-001
1.299841e+003;1.026538e-001
1.301770e+003;1.042690e-001
1.303698e+003;1.062486e-001
1.305627e+003;1.079009e-001
1.307556e+003;1.095489e-001
1.309484e+003;1.114640e-001
1.311413e+003;1.133236e-001
1.313341e+003;1.150303e-001
1.315270e+003;1.160824e-001
1.317198e+003;1.164134e-001
1.319127e+003;1.161998e-001
1.321055e+003;1.155582e-001
1.322984e+003;1.146334e-001
1.324912e+003;1.141438e-001
1.326841e+003;1.141518e-001
1.328770e+003;1.140555e-001
1.330698e+003;1.139478e-001
1.332627e+003;1.134545e-001
1.334555e+003;1.129831e-001
1.336484e+003;1.121677e-001
1.338412e+003;1.109582e-001
1.340341e+003;1.101475e-001
1.342269e+003;1.091835e-001
1.344198e+003;1.081972e-001
1.346126e+003;1.077032e-001
1.348055e+003;1.072090e-001
1.349984e+003;1.069512e-001
1.351912e+003;1.072938e-001
1.353841e+003;1.081975e-001
1.355769e+003;1.095266e-001
1.357698e+003;1.111507e-001
1.359626e+003;1.132190e-001
1.361555e+003;1.147511e-001
1.363483e+003;1.157450e-001
1.365412e+003;1.163286e-001
1.367341e+003;1.163630e-001
1.369269e+003;1.162332e-001
1.371198e+003;1.156367e-001
1.373126e+003;1.143645e-001
1.375055e+003;1.127825e-001
1.376983e+003;1.109165e-001
1.378912e+003;1.084388e-001
1.380840e+003;1.055417e-001
1.382769e+003;1.029529e-001
1.384698e+003;1.008906e-001
1.386626e+003;9.903250e-002
1.388555e+003;9.729752e-002
1.390483e+003;9.587482e-002
1.392412e+003;9.494968e-002
1.394340e+003;9.450086e-002
1.396269e+003;9.463392e-002
1.398197e+003;9.473801e-002
1.400126e+003;9.495273e-002
1.402054e+003;9.565555e-002
1.403983e+003;9.655434e-002
1.405911e+003;9.758747e-002
1.407840e+003;9.883530e-002
1.409769e+003;9.978332e-002
1.411697e+003;1.007729e-001
1.413626e+003;1.024225e-001
1.415554e+003;1.043583e-001
1.417483e+003;1.060231e-001
1.419411e+003;1.072475e-001
1.421340e+003;1.078815e-001
1.423268e+003;1.077056e-001
1.425197e+003;1.072547e-001
1.427125e+003;1.071306e-001
1.429054e+003;1.062970e-001
1.430983e+003;1.047372e-001
1.432911e+003;1.030538e-001
1.434840e+003;1.012981e-001
1.436768e+003;9.964700e-002
1.438697e+003;9.869529e-002
1.440625e+003;9.784191e-002
1.442554e+003;9.695334e-002
1.444482e+003;9.607881e-002
1.446411e+003;9.506819e-002
1.448340e+003;9.411354e-002
1.450268e+003;9.338593e-002
1.452197e+003;9.291557e-002
1.454125e+003;9.241032e-002
1.456054e+003;9.149956e-002
1.457982e+003;9.047745e-002
1.459911e+003;8.961850e-002
1.461839e+003;8.864542e-002
1.463768e+003;8.674996e-002
1.465697e+003;8.430696e-002
1.467625e+003;8.164987e-002
1.469554e+003;7.851539e-002
1.471482e+003;7.506925e-002
1.473411e+003;7.149950e-002
1.475339e+003;6.830036e-002
1.477268e+003;6.543721e-002
1.479196e+003;6.292077e-002
1.481125e+003;6.082739e-002
1.483053e+003;5.896790e-002
1.484982e+003;5.722433e-002
1.486911e+003;5.568461e-002
1.488839e+003;5.445765e-002
1.490768e+003;5.382503e-002
1.492696e+003;5.389634e-002
1.494625e+003;5.421624e-002
1.496553e+003;5.482823e-002
1.498482e+003;5.557742e-002
1.500410e+003;5.606103e-002
1.502339e+003;5.661243e-002
1.504267e+003;5.639219e-002
1.506196e+003;5.557381e-002
1.508125e+003;5.514059e-002
1.510053e+003;5.432321e-002
1.511982e+003;5.276686e-002
1.513910e+003;5.106152e-002
1.515839e+003;4.932703e-002
1.517767e+003;4.788304e-002
1.519696e+003;4.604040e-002
1.521624e+003;4.417986e-002
1.523553e+003;4.334011e-002
1.525481e+003;4.273048e-002
1.527410e+003;4.185035e-002
1.529339e+003;4.118467e-002
1.531267e+003;4.088390e-002
1.533196e+003;4.058621e-002
1.535124e+003;4.051502e-002
1.537053e+003;4.056736e-002
1.538981e+003;4.048225e-002
1.540910e+003;4.049149e-002
1.542838e+003;4.070497e-002
1.544767e+003;4.102758e-002
1.546695e+003;4.153873e-002
1.548624e+003;4.191246e-002
1.550553e+003;4.231339e-002
1.552481e+003;4.270102e-002
1.554410e+003;4.313089e-002
1.556338e+003;4.366644e-002
1.558267e+003;4.410801e-002
1.560195e+003;4.495389e-002
1.562124e+003;4.611117e-002
1.564052e+003;4.724111e-002
1.565981e+003;4.854200e-002
1.567910e+003;5.028562e-002
1.569838e+003;5.199930e-002
1.571767e+003;5.389540e-002
1.573695e+003;5.596502e-002
1.575624e+003;5.800096e-002
1.577552e+003;6.089626e-002
1.579481e+003;6.436469e-002
1.581409e+003;6.767835e-002
1.583338e+003;7.094961e-002
1.585266e+003;7.415563e-002
1.587195e+003;7.734467e-002
1.589124e+003;8.033989e-002
1.591052e+003;8.276904e-002
1.592981e+003;8.466481e-002
1.594909e+003;8.594692e-002
1.596838e+003;8.685767e-002
1.598766e+003;8.760843e-002
1.600695e+003;8.791807e-002
1.602623e+003;8.788045e-002
1.604552e+003;8.782517e-002
1.606480e+003;8.772293e-002
1.608409e+003;8.748148e-002
1.610338e+003;8.729509e-002
1.612266e+003;8.718179e-002
1.614195e+003;8.684019e-002
1.616123e+003;8.601033e-002
1.618052e+003;8.554899e-002
1.619980e+003;8.576628e-002
1.621909e+003;8.551219e-002
1.623837e+003;8.509877e-002
1.625766e+003;8.500390e-002
1.627694e+003;8.483062e-002
1.629623e+003;8.430949e-002
1.631552e+003;8.364936e-002
1.633480e+003;8.303930e-002
1.635409e+003;8.242051e-002
1.637337e+003;8.194584e-002
1.639266e+003;8.148311e-002
1.641194e+003;8.106261e-002
1.643123e+003;8.058770e-002
1.645051e+003;7.963192e-002
1.646980e+003;7.858070e-002
1.648909e+003;7.777463e-002
1.650837e+003;7.650761e-002
1.652766e+003;7.492752e-002
1.654694e+003;7.390761e-002
1.656623e+003;7.281831e-002
1.658551e+003;7.155526e-002
1.660480e+003;7.023296e-002
1.662408e+003;6.891921e-002
1.664337e+003;6.780890e-002
1.666266e+003;6.649729e-002
1.668194e+003;6.487496e-002
1.670123e+003;6.347601e-002
1.672051e+003;6.251636e-002
1.673980e+003;6.136911e-002
1.675908e+003;6.029444e-002
1.677837e+003;5.941088e-002
1.679765e+003;5.847412e-002
1.681694e+003;5.749662e-002
1.683622e+003;5.648075e-002
1.685551e+003;5.626137e-002
1.687479e+003;5.659050e-002
1.689408e+003;5.653498e-002
1.691337e+003;5.691210e-002
1.693265e+003;5.778002e-002
1.695194e+003;5.852018e-002
1.697122e+003;5.971165e-002
1.699051e+003;6.144904e-002
1.700979e+003;6.364343e-002
1.702908e+003;6.632745e-002
1.704836e+003;6.910922e-002
1.706765e+003;7.214148e-002
1.708693e+003;7.531264e-002
1.710622e+003;7.820553e-002
1.712551e+003;8.097596e-002
1.714479e+003;8.360288e-002
1.716408e+003;8.604284e-002
1.718336e+003;8.862819e-002
1.720265e+003;9.117898e-002
1.722193e+003;9.320631e-002
1.724122e+003;9.460698e-002
1.726050e+003;9.602445e-002
1.727979e+003;9.749950e-002
1.729908e+003;9.805173e-002
1.731836e+003;9.796462e-002
1.733765e+003;9.791783e-002
1.735693e+003;9.784146e-002
1.737622e+003;9.707434e-002
1.739550e+003;9.561945e-002
1.741479e+003;9.360557e-002
1.743407e+003;9.063859e-002
1.745336e+003;8.734804e-002
1.747265e+003;8.403812e-002
1.749193e+003;8.052799e-002
1.751122e+003;7.687096e-002
1.753050e+003;7.299992e-002
1.754979e+003;6.896178e-002
1.756907e+003;6.525843e-002
1.758836e+003;6.171539e-002
1.760764e+003;5.783221e-002
1.762693e+003;5.375003e-002
1.764621e+003;5.008397e-002
1.766550e+003;4.653127e-002
1.768479e+003;4.291841e-002
1.770407e+003;3.949557e-002
1.772336e+003;3.625867e-002
1.774264e+003;3.349681e-002
1.776193e+003;3.109695e-002
1.778121e+003;2.873602e-002
1.780050e+003;2.636482e-002
1.781978e+003;2.437781e-002
1.783907e+003;2.286190e-002
1.785835e+003;2.158350e-002
1.787764e+003;2.032237e-002
1.789693e+003;1.896134e-002
1.791621e+003;1.764587e-002
1.793550e+003;1.691864e-002
1.795478e+003;1.642215e-002
1.797407e+003;1.565563e-002
1.799335e+003;1.489513e-002
1.801264e+003;1.437488e-002
1.803192e+003;1.395437e-002
1.805121e+003;1.336274e-002
1.807049e+003;1.284985e-002
1.808978e+003;1.250416e-002
1.810907e+003;1.197154e-002
1.812835e+003;1.147652e-002
1.814764e+003;1.124714e-002
1.816692e+003;1.094897e-002
1.818621e+003;1.046811e-002
1.820549e+003;1.023343e-002
1.822478e+003;1.003132e-002
1.824406e+003;9.889606e-003
1.826335e+003;9.744144e-003
1.828264e+003;9.532781e-003
1.830192e+003;9.289701e-003
1.832121e+003;9.081909e-003
1.834049e+003;8.824237e-003
1.835978e+003;8.647154e-003
1.837906e+003;8.558674e-003
1.839835e+003;8.300129e-003
1.841763e+003;8.027056e-003
1.843692e+003;7.814571e-003
1.845620e+003;7.846621e-003
1.847549e+003;7.573597e-003
1.849478e+003;7.294476e-003
1.851406e+003;7.250911e-003
1.853335e+003;7.241746e-003
1.855263e+003;7.277764e-003
1.857192e+003;7.186025e-003
1.859120e+003;7.007824e-003
1.861049e+003;7.045910e-003
1.862977e+003;6.865108e-003
1.864906e+003;6.428227e-003
1.866834e+003;6.391540e-003
1.868763e+003;6.540257e-003
1.870692e+003;6.390397e-003
1.872620e+003;6.166477e-003
1.874549e+003;6.057433e-003
1.876477e+003;6.120840e-003
1.878406e+003;6.108709e-003
1.880334e+003;6.069832e-003
1.882263e+003;5.974820e-003
1.884191e+003;5.747891e-003
1.886120e+003;5.744870e-003
1.888048e+003;5.922620e-003
1.889977e+003;6.010430e-003
1.891906e+003;5.818473e-003
1.893834e+003;5.482323e-003
1.895763e+003;5.457024e-003
1.897691e+003;5.822268e-003
1.899620e+003;6.109012e-003
1.901548e+003;6.204859e-003
1.903477e+003;6.217867e-003
1.905405e+003;6.152564e-003
1.907334e+003;6.039190e-003
1.909262e+003;5.952347e-003
1.911191e+003;6.063952e-003
1.913120e+003;6.028404e-003
1.915048e+003;5.934141e-003
1.916977e+003;6.028606e-003
1.918905e+003;6.179753e-003
1.920834e+003;6.351192e-003
1.922762e+003;6.259480e-003
1.924691e+003;6.232824e-003
1.926619e+003;6.343761e-003
1.928548e+003;6.411413e-003
1.930477e+003;6.572314e-003
1.932405e+003;6.725803e-003
1.934334e+003;6.536220e-003
1.936262e+003;6.463101e-003
1.938191e+003;6.733812e-003
1.940119e+003;6.841949e-003
1.942048e+003;6.940787e-003
1.943976e+003;7.147590e-003
1.945905e+003;7.169013e-003
1.947833e+003;7.045574e-003
1.949762e+003;7.039209e-003
1.951691e+003;7.243936e-003
1.953619e+003;7.305832e-003
1.955548e+003;7.541263e-003
1.957476e+003;7.573900e-003
1.959405e+003;7.445087e-003
1.961333e+003;7.354896e-003
1.963262e+003;7.426885e-003
1.965190e+003;7.505494e-003
1.967119e+003;7.471278e-003
1.969047e+003;7.444244e-003
1.970976e+003;7.562369e-003
1.972905e+003;7.684303e-003
1.974833e+003;7.747004e-003
1.976762e+003;7.904721e-003
1.978690e+003;8.151518e-003
1.980619e+003;8.300096e-003
1.982547e+003;8.241300e-003
1.984476e+003;8.065671e-003
1.986404e+003;8.077519e-003
1.988333e+003;8.246940e-003
1.990261e+003;8.218878e-003
1.992190e+003;8.516570e-003
1.994119e+003;8.824170e-003
1.996047e+003;8.660810e-003
1.997976e+003;8.703672e-003
1.999904e+003;9.061914e-003
2.001833e+003;9.023380e-003
2.003761e+003;8.863395e-003
2.005690e+003;8.959752e-003
2.007618e+003;9.333269e-003
2.009547e+003;9.513206e-003
2.011476e+003;9.490820e-003
2.013404e+003;9.683900e-003
2.015333e+003;9.777692e-003
2.017261e+003;9.926251e-003
2.019190e+003;1.027509e-002
2.021118e+003;1.053067e-002
2.023047e+003;1.088522e-002
2.024975e+003;1.132886e-002
2.026904e+003;1.137386e-002
2.028833e+003;1.125333e-002
2.030761e+003;1.141437e-002
2.032690e+003;1.147196e-002
2.034618e+003;1.163648e-002
2.036547e+003;1.189399e-002
2.038475e+003;1.195989e-002
2.040404e+003;1.203690e-002
2.042332e+003;1.216296e-002
2.044261e+003;1.239218e-002
2.046189e+003;1.236143e-002
2.048118e+003;1.218433e-002
2.050047e+003;1.225488e-002
2.051975e+003;1.230999e-002
2.053904e+003;1.238795e-002
2.055832e+003;1.245771e-002
2.057761e+003;1.240899e-002
2.059689e+003;1.233416e-002
2.061618e+003;1.242689e-002
2.063546e+003;1.244987e-002
2.065475e+003;1.245819e-002
2.067404e+003;1.242385e-002
2.069332e+003;1.258945e-002
2.071260e+003;1.283637e-002
2.073189e+003;1.278016e-002
2.075118e+003;1.252810e-002
2.077046e+003;1.261002e-002
2.078975e+003;1.267569e-002
2.080903e+003;1.256207e-002
2.082832e+003;1.253956e-002
2.084760e+003;1.265785e-002
2.086689e+003;1.268384e-002
2.088617e+003;1.242327e-002
2.090546e+003;1.247868e-002
2.092475e+003;1.291975e-002
2.094403e+003;1.303791e-002
2.096332e+003;1.279712e-002
2.098260e+003;1.264587e-002
2.100189e+003;1.261896e-002
2.102117e+003;1.261954e-002
2.104046e+003;1.284210e-002
2.105974e+003;1.307205e-002
2.107903e+003;1.309227e-002
2.109832e+003;1.303463e-002
2.111760e+003;1.312054e-002
2.113688e+003;1.332146e-002
2.115617e+003;1.337565e-002
2.117546e+003;1.332009e-002
2.119474e+003;1.331620e-002
2.121403e+003;1.333048e-002
2.123331e+003;1.332324e-002
2.125260e+003;1.345569e-002
2.127188e+003;1.347021e-002
2.129117e+003;1.344280e-002
2.131045e+003;1.345852e-002
2.132974e+003;1.357816e-002
2.134903e+003;1.348221e-002
2.136831e+003;1.320070e-002
2.138760e+003;1.326171e-002
2.140688e+003;1.325245e-002
2.142617e+003;1.313854e-002
2.144545e+003;1.318666e-002
2.146474e+003;1.346573e-002
2.148402e+003;1.346037e-002
2.150331e+003;1.321652e-002
2.152260e+003;1.296655e-002
2.154188e+003;1.263676e-002
2.156117e+003;1.259034e-002
2.158045e+003;1.266849e-002
2.159974e+003;1.273550e-002
2.161902e+003;1.262370e-002
2.163831e+003;1.247166e-002
2.165759e+003;1.222263e-002
2.167688e+003;1.201340e-002
2.169616e+003;1.193772e-002
2.171545e+003;1.189736e-002
2.173474e+003;1.177005e-002
2.175402e+003;1.136096e-002
2.177331e+003;1.101377e-002
2.179259e+003;1.085760e-002
2.181188e+003;1.074449e-002
2.183116e+003;1.075332e-002
2.185045e+003;1.065755e-002
2.186973e+003;1.071742e-002
2.188902e+003;1.073627e-002
2.190831e+003;1.054394e-002
2.192759e+003;1.027292e-002
2.194688e+003;1.005451e-002
2.196616e+003;1.011067e-002
2.198545e+003;1.022478e-002
2.200473e+003;1.013529e-002
2.202402e+003;1.003895e-002
2.204330e+003;1.026549e-002
2.206259e+003;1.045141e-002
2.208188e+003;1.037552e-002
2.210116e+003;1.017539e-002
2.212044e+003;1.010257e-002
2.213973e+003;1.011274e-002
2.215902e+003;1.012858e-002
2.217830e+003;1.014137e-002
2.219759e+003;1.011586e-002
2.221687e+003;1.008849e-002
2.223616e+003;1.018783e-002
2.225544e+003;1.030365e-002
2.227473e+003;1.032635e-002
2.229401e+003;1.009205e-002
2.231330e+003;9.868489e-003
2.233259e+003;9.777624e-003
2.235187e+003;9.734215e-003
2.237116e+003;9.801009e-003
2.239044e+003;1.003101e-002
2.240973e+003;1.011718e-002
2.242901e+003;1.018638e-002
2.244830e+003;1.022009e-002
2.246758e+003;1.019537e-002
2.248687e+003;1.013974e-002
2.250615e+003;1.013574e-002
2.252544e+003;1.003939e-002
2.254473e+003;1.006913e-002
2.256401e+003;1.011335e-002
2.258330e+003;1.002105e-002
2.260258e+003;1.018926e-002
2.262187e+003;1.032992e-002
2.264115e+003;1.022240e-002
2.266044e+003;1.002715e-002
2.267972e+003;1.015341e-002
2.269901e+003;1.022033e-002
2.271830e+003;1.001620e-002
2.273758e+003;9.999787e-003
2.275687e+003;1.024479e-002
2.277615e+003;1.041160e-002
2.279544e+003;1.029310e-002
2.281472e+003;1.024533e-002
2.283401e+003;1.029151e-002
2.285329e+003;1.030579e-002
2.287258e+003;1.018868e-002
2.289187e+003;1.016548e-002
2.291115e+003;1.006496e-002
2.293043e+003;1.001016e-002
2.294972e+003;1.007530e-002
2.296901e+003;1.018926e-002
2.298829e+003;1.004590e-002
2.300758e+003;9.846864e-003
2.302686e+003;9.774168e-003
2.304615e+003;9.994565e-003
2.306543e+003;1.024330e-002
2.308472e+003;1.024737e-002
2.310400e+003;1.010976e-002
2.312329e+003;9.925030e-003
2.314258e+003;9.771593e-003
2.316186e+003;9.848457e-003
2.318115e+003;9.766204e-003
2.320043e+003;9.424820e-003
2.321972e+003;9.164405e-003
2.323900e+003;9.221058e-003
2.325829e+003;9.332931e-003
2.327757e+003;9.240993e-003
2.329686e+003;9.191512e-003
2.331615e+003;9.399526e-003
2.333543e+003;9.379380e-003
2.335472e+003;9.266920e-003
2.337400e+003;9.307880e-003
2.339329e+003;9.650358e-003
2.341257e+003;9.945337e-003
2.343186e+003;1.007673e-002
2.345114e+003;1.032208e-002
2.347043e+003;1.065507e-002
2.348971e+003;1.086396e-002
2.350900e+003;1.074788e-002
2.352829e+003;1.060410e-002
2.354757e+003;1.070166e-002
2.356686e+003;1.069548e-002
2.358614e+003;1.044571e-002
2.360543e+003;1.039958e-002
2.362471e+003;1.056098e-002
2.364400e+003;1.060682e-002
2.366328e+003;1.069151e-002
2.368257e+003;1.086535e-002
2.370186e+003;1.096439e-002
2.372114e+003;1.129257e-002
2.374042e+003;1.173543e-002
2.375971e+003;1.215318e-002
2.377900e+003;1.241468e-002
2.379828e+003;1.241751e-002
2.381757e+003;1.269728e-002
2.383685e+003;1.311119e-002
2.385614e+003;1.300697e-002
2.387542e+003;1.304508e-002
2.389471e+003;1.349417e-002
2.391399e+003;1.381353e-002
2.393328e+003;1.391249e-002
2.395257e+003;1.379920e-002
2.397185e+003;1.379017e-002
2.399114e+003;1.390418e-002
2.401042e+003;1.400837e-002
2.402971e+003;1.412833e-002
2.404899e+003;1.407486e-002
2.406828e+003;1.413137e-002
2.408756e+003;1.434094e-002
2.410685e+003;1.466925e-002
2.412614e+003;1.495213e-002
2.414542e+003;1.475484e-002
2.416471e+003;1.470839e-002
2.418399e+003;1.519421e-002
2.420328e+003;1.561915e-002
2.422256e+003;1.560157e-002
2.424185e+003;1.585371e-002
2.426113e+003;1.617150e-002
2.428042e+003;1.599160e-002
2.429970e+003;1.594506e-002
2.431899e+003;1.634514e-002
2.433828e+003;1.669625e-002
2.435756e+003;1.681678e-002
2.437685e+003;1.675331e-002
2.439613e+003;1.656773e-002
2.441542e+003;1.681912e-002
2.443470e+003;1.724821e-002
2.445399e+003;1.751931e-002
2.447327e+003;1.785290e-002
2.449256e+003;1.812307e-002
2.451185e+003;1.816788e-002
2.453113e+003;1.805267e-002
2.455042e+003;1.800646e-002
2.456970e+003;1.833924e-002
2.458899e+003;1.841622e-002
2.460827e+003;1.832621e-002
2.462756e+003;1.848021e-002
2.464684e+003;1.863126e-002
2.466613e+003;1.858806e-002
2.468542e+003;1.871147e-002
2.470470e+003;1.911217e-002
2.472398e+003;1.934952e-002
2.474327e+003;1.939636e-002
2.476256e+003;1.949110e-002
2.478184e+003;1.970293e-002
2.480113e+003;1.988801e-002
2.482041e+003;2.000607e-002
2.483970e+003;2.018628e-002
2.485898e+003;2.049233e-002
2.487827e+003;2.070850e-002
2.489755e+003;2.059786e-002
2.491684e+003;2.047850e-002
2.493613e+003;2.059970e-002
2.495541e+003;2.084635e-002
2.497470e+003;2.117721e-002
2.499398e+003;2.129005e-002
2.501327e+003;2.123514e-002
2.503255e+003;2.125216e-002
2.505184e+003;2.149336e-002
2.507112e+003;2.192755e-002
2.509041e+003;2.229212e-002
2.510969e+003;2.247284e-002
2.512898e+003;2.266528e-002
2.514827e+003;2.261135e-002
2.516755e+003;2.257418e-002
2.518684e+003;2.275630e-002
2.520612e+003;2.269663e-002
2.522541e+003;2.275169e-002
2.524469e+003;2.306874e-002
2.526398e+003;2.336913e-002
2.528326e+003;2.367071e-002
2.530255e+003;2.354963e-002
2.532184e+003;2.350325e-002
2.534112e+003;2.365507e-002
2.536041e+003;2.349482e-002
2.537969e+003;2.331735e-002
2.539898e+003;2.366330e-002
2.541826e+003;2.388809e-002
2.543755e+003;2.393833e-002
2.545683e+003;2.436446e-002
2.547612e+003;2.476304e-002
2.549541e+003;2.460529e-002
2.551469e+003;2.443483e-002
2.553397e+003;2.447911e-002
2.555326e+003;2.443855e-002
2.557255e+003;2.455992e-002
2.559183e+003;2.475494e-002
2.561112e+003;2.472277e-002
2.563040e+003;2.482310e-002
2.564969e+003;2.503765e-002
2.566897e+003;2.506521e-002
2.568826e+003;2.493935e-002
2.570754e+003;2.488801e-002
2.572683e+003;2.520090e-002
2.574612e+003;2.549205e-002
2.576540e+003;2.568788e-002
2.578469e+003;2.583084e-002
2.580397e+003;2.598594e-002
2.582326e+003;2.579493e-002
2.584254e+003;2.547491e-002
2.586183e+003;2.569892e-002
2.588111e+003;2.613072e-002
2.590040e+003;2.616000e-002
2.591969e+003;2.643383e-002
2.593897e+003;2.689453e-002
2.595826e+003;2.689865e-002
2.597754e+003;2.671426e-002
2.599683e+003;2.665764e-002
2.601611e+003;2.706793e-002
2.603540e+003;2.736249e-002
2.605468e+003;2.755281e-002
2.607397e+003;2.758317e-002
2.609325e+003;2.738500e-002
2.611254e+003;2.745686e-002
2.613183e+003;2.770411e-002
2.615111e+003;2.784205e-002
2.617040e+003;2.800508e-002
2.618968e+003;2.847293e-002
2.620897e+003;2.894238e-002
2.622825e+003;2.913694e-002
2.624754e+003;2.920168e-002
2.626682e+003;2.948925e-002
2.628611e+003;2.978379e-002
2.630540e+003;2.978674e-002
2.632468e+003;2.995473e-002
2.634396e+003;3.007853e-002
2.636325e+003;2.996793e-002
2.638254e+003;2.997596e-002
2.640182e+003;3.023420e-002
2.642111e+003;3.073679e-002
2.644039e+003;3.117053e-002
2.645968e+003;3.135287e-002
2.647896e+003;3.126872e-002
2.649825e+003;3.126780e-002
2.651753e+003;3.125679e-002
2.653682e+003;3.144377e-002
2.655611e+003;3.177176e-002
2.657539e+003;3.216240e-002
2.659468e+003;3.234255e-002
2.661396e+003;3.245469e-002
2.663325e+003;3.279727e-002
2.665253e+003;3.293429e-002
2.667182e+003;3.279684e-002
2.669110e+003;3.314427e-002
2.671039e+003;3.344445e-002
2.672968e+003;3.361504e-002
2.674896e+003;3.387564e-002
2.676825e+003;3.409980e-002
2.678753e+003;3.410131e-002
2.680682e+003;3.443350e-002
2.682610e+003;3.501186e-002
2.684539e+003;3.507565e-002
2.686467e+003;3.496226e-002
2.688396e+003;3.499275e-002
2.690324e+003;3.535618e-002
2.692253e+003;3.589870e-002
2.694182e+003;3.610641e-002
2.696110e+003;3.607278e-002
2.698039e+003;3.613489e-002
2.699967e+003;3.645891e-002
2.701896e+003;3.674671e-002
2.703824e+003;3.667139e-002
2.705753e+003;3.687980e-002
2.707681e+003;3.736886e-002
2.709610e+003;3.763314e-002
2.711539e+003;3.798818e-002
2.713467e+003;3.831055e-002
2.715396e+003;3.822960e-002
2.717324e+003;3.804616e-002
2.719253e+003;3.823369e-002
2.721181e+003;3.860596e-002
2.723110e+003;3.878732e-002
2.725038e+003;3.889138e-002
2.726967e+003;3.927430e-002
2.728896e+003;3.965135e-002
2.730824e+003;3.963606e-002
2.732752e+003;3.958888e-002
2.734681e+003;3.949999e-002
2.736610e+003;3.943896e-002
2.738538e+003;3.965174e-002
2.740467e+003;3.993706e-002
2.742395e+003;4.010830e-002
2.744324e+003;4.032344e-002
2.746252e+003;4.053219e-002
2.748181e+003;4.049716e-002
2.750109e+003;4.036264e-002
2.752038e+003;4.033788e-002
2.753967e+003;4.023212e-002
2.755895e+003;4.036231e-002
2.757824e+003;4.077361e-002
2.759752e+003;4.090465e-002
2.761681e+003;4.108122e-002
2.763609e+003;4.133165e-002
2.765538e+003;4.154839e-002
2.767466e+003;4.188060e-002
2.769395e+003;4.211883e-002
2.771323e+003;4.219744e-002
2.773252e+003;4.242203e-002
2.775181e+003;4.252645e-002
2.777109e+003;4.235484e-002
2.779038e+003;4.275300e-002
2.780966e+003;4.318121e-002
2.782895e+003;4.336160e-002
2.784823e+003;4.372305e-002
2.786752e+003;4.402077e-002
2.788680e+003;4.406286e-002
2.790609e+003;4.421237e-002
2.792538e+003;4.461594e-002
2.794466e+003;4.508377e-002
2.796395e+003;4.558942e-002
2.798323e+003;4.599269e-002
2.800252e+003;4.643572e-002
2.802180e+003;4.657668e-002
2.804109e+003;4.669550e-002
2.806037e+003;4.714408e-002
2.807966e+003;4.743784e-002
2.809895e+003;4.760736e-002
2.811823e+003;4.819707e-002
2.813751e+003;4.907566e-002
2.815680e+003;4.953611e-002
2.817609e+003;4.989496e-002
2.819537e+003;5.024433e-002
2.821466e+003;5.107553e-002
2.823394e+003;5.218194e-002
2.825323e+003;5.275687e-002
2.827251e+003;5.310855e-002
2.829180e+003;5.361610e-002
2.831108e+003;5.452812e-002
2.833037e+003;5.543951e-002
2.834966e+003;5.608384e-002
2.836894e+003;5.710078e-002
2.838823e+003;5.857975e-002
2.840751e+003;6.010684e-002
2.842680e+003;6.114847e-002
2.844608e+003;6.237079e-002
2.846537e+003;6.365479e-002
2.848465e+003;6.511567e-002
2.850394e+003;6.657646e-002
2.852323e+003;6.753638e-002
2.854251e+003;6.826872e-002
2.856180e+003;6.919820e-002
2.858108e+003;7.025158e-002
2.860037e+003;7.082813e-002
2.861965e+003;7.134426e-002
2.863894e+003;7.161296e-002
2.865822e+003;7.166044e-002
2.867751e+003;7.242665e-002
2.869679e+003;7.318991e-002
2.871608e+003;7.325612e-002
2.873536e+003;7.364636e-002
2.875465e+003;7.437464e-002
2.877394e+003;7.477616e-002
2.879322e+003;7.483682e-002
2.881251e+003;7.521354e-002
2.883179e+003;7.563793e-002
2.885108e+003;7.603975e-002
2.887036e+003;7.657748e-002
2.888965e+003;7.665227e-002
2.890893e+003;7.629067e-002
2.892822e+003;7.671192e-002
2.894750e+003;7.741606e-002
2.896679e+003;7.755730e-002
2.898608e+003;7.734606e-002
2.900536e+003;7.747678e-002
2.902465e+003;7.772323e-002
2.904393e+003;7.781549e-002
2.906322e+003;7.775081e-002
2.908250e+003;7.758511e-002
2.910179e+003;7.784629e-002
2.912107e+003;7.795313e-002
2.914036e+003;7.818022e-002
2.915965e+003;7.872752e-002
2.917893e+003;7.873066e-002
2.919822e+003;7.847482e-002
2.921750e+003;7.801776e-002
2.923679e+003;7.777221e-002
2.925607e+003;7.769759e-002
2.927536e+003;7.725053e-002
2.929464e+003;7.630277e-002
2.931393e+003;7.572857e-002
2.933322e+003;7.530512e-002
2.935250e+003;7.498151e-002
2.937178e+003;7.472008e-002
2.939107e+003;7.384575e-002
2.941036e+003;7.275127e-002
2.942964e+003;7.204092e-002
2.944893e+003;7.109550e-002
2.946821e+003;6.981203e-002
2.948750e+003;6.883954e-002
2.950678e+003;6.782649e-002
2.952607e+003;6.693789e-002
2.954535e+003;6.611890e-002
2.956464e+003;6.557561e-002
2.958393e+003;6.454127e-002
2.960321e+003;6.303040e-002
2.962250e+003;6.191703e-002
2.964178e+003;6.149675e-002
2.966107e+003;6.078717e-002
2.968035e+003;5.963627e-002
2.969964e+003;5.883372e-002
2.971892e+003;5.818042e-002
2.973821e+003;5.745104e-002
2.975750e+003;5.659594e-002
2.977678e+003;5.559098e-002
2.979607e+003;5.482256e-002
2.981535e+003;5.427920e-002
2.983464e+003;5.409178e-002
2.985392e+003;5.388441e-002
2.987321e+003;5.315060e-002
2.989249e+003;5.231064e-002
2.991178e+003;5.160911e-002
2.993106e+003;5.134026e-002
2.995035e+003;5.120327e-002
2.996964e+003;5.102001e-002
2.998892e+003;5.069150e-002
3.000821e+003;5.029760e-002
3.002749e+003;4.989310e-002
3.004678e+003;4.973955e-002
3.006606e+003;4.956258e-002
3.008535e+003;4.927641e-002
3.010463e+003;4.923547e-002
3.012392e+003;4.907703e-002
3.014321e+003;4.888205e-002
3.016249e+003;4.868653e-002
3.018177e+003;4.878999e-002
3.020106e+003;4.931705e-002
3.022035e+003;4.958985e-002
3.023963e+003;4.951746e-002
3.025892e+003;4.940651e-002
3.027820e+003;4.931657e-002
3.029749e+003;4.949770e-002
3.031677e+003;4.994198e-002
3.033606e+003;5.015358e-002
3.035534e+003;5.039218e-002
3.037463e+003;5.055691e-002
3.039392e+003;5.059562e-002
3.041320e+003;5.056703e-002
3.043249e+003;5.078940e-002
3.045177e+003;5.132538e-002
3.047106e+003;5.147043e-002
3.049034e+003;5.158045e-002
3.050963e+003;5.186871e-002
3.052891e+003;5.209858e-002
3.054820e+003;5.236031e-002
3.056749e+003;5.296176e-002
3.058677e+003;5.333578e-002
3.060606e+003;5.337429e-002
3.062534e+003;5.340730e-002
3.064463e+003;5.367312e-002
3.066391e+003;5.410657e-002
3.068320e+003;5.455885e-002
3.070248e+003;5.474918e-002
3.072177e+003;5.473787e-002
3.074105e+003;5.541771e-002
3.076034e+003;5.629253e-002
3.077963e+003;5.637163e-002
3.079891e+003;5.650637e-002
3.081820e+003;5.676156e-002
3.083748e+003;5.688754e-002
3.085677e+003;5.732043e-002
3.087605e+003;5.790675e-002
3.089534e+003;5.845315e-002
3.091462e+003;5.906485e-002
3.093391e+003;5.948843e-002
3.095320e+003;5.934980e-002
3.097248e+003;5.963372e-002
3.099177e+003;6.004417e-002
3.101105e+003;6.041509e-002
3.103034e+003;6.085769e-002
3.104962e+003;6.131947e-002
3.106891e+003;6.192669e-002
3.108819e+003;6.225001e-002
3.110748e+003;6.248736e-002
3.112677e+003;6.280432e-002
3.114605e+003;6.311093e-002
3.116533e+003;6.338387e-002
3.118462e+003;6.371096e-002
3.120391e+003;6.433779e-002
3.122319e+003;6.515209e-002
3.124248e+003;6.549095e-002
3.126176e+003;6.554648e-002
3.128105e+003;6.581733e-002
3.130033e+003;6.621992e-002
3.131962e+003;6.679423e-002
3.133890e+003;6.767762e-002
3.135819e+003;6.799013e-002
3.137748e+003;6.817237e-002
3.139676e+003;6.869525e-002
3.141605e+003;6.901506e-002
3.143533e+003;6.925645e-002
3.145462e+003;6.959741e-002
3.147390e+003;7.009778e-002
3.149319e+003;7.070018e-002
3.151247e+003;7.078878e-002
3.153176e+003;7.096821e-002
3.155104e+003;7.178961e-002
3.157033e+003;7.227393e-002
3.158962e+003;7.274896e-002
3.160890e+003;7.345302e-002
3.162819e+003;7.393016e-002
3.164747e+003;7.428940e-002
3.166676e+003;7.461721e-002
3.168604e+003;7.500100e-002
3.170533e+003;7.549255e-002
3.172461e+003;7.614528e-002
3.174390e+003;7.665333e-002
3.176319e+003;7.693677e-002
3.178247e+003;7.749175e-002
3.180176e+003;7.818867e-002
3.182104e+003;7.887316e-002
3.184033e+003;7.943434e-002
3.185961e+003;7.966249e-002
3.187890e+003;7.983583e-002
3.189818e+003;8.023892e-002
3.191747e+003;8.047383e-002
3.193676e+003;8.087684e-002
3.195604e+003;8.142560e-002
3.197532e+003;8.192471e-002
3.199461e+003;8.255830e-002
3.201390e+003;8.362940e-002
3.203318e+003;8.433709e-002
3.205247e+003;8.491671e-002
3.207175e+003;8.518206e-002
3.209104e+003;8.519778e-002
3.211032e+003;8.543228e-002
3.212961e+003;8.583454e-002
3.214889e+003;8.645971e-002
3.216818e+003;8.709610e-002
3.218747e+003;8.738475e-002
3.220675e+003;8.756360e-002
3.222604e+003;8.820364e-002
3.224532e+003;8.899178e-002
3.226461e+003;8.926769e-002
3.228389e+003;8.972938e-002
3.230318e+003;9.063169e-002
3.232246e+003;9.120261e-002
3.234175e+003;9.110942e-002
3.236104e+003;9.118908e-002
3.238032e+003;9.158375e-002
3.239961e+003;9.228998e-002
3.241889e+003;9.310924e-002
3.243818e+003;9.390112e-002
3.245746e+003;9.433717e-002
3.247675e+003;9.503413e-002
3.249603e+003;9.572737e-002
3.251532e+003;9.598147e-002
3.253460e+003;9.626471e-002
3.255389e+003;9.668778e-002
3.257318e+003;9.682872e-002
3.259246e+003;9.709212e-002
3.261175e+003;9.732820e-002
3.263103e+003;9.794054e-002
3.265032e+003;9.863678e-002
3.266960e+003;9.888644e-002
3.268889e+003;9.913735e-002
3.270817e+003;9.939796e-002
3.272746e+003;9.944307e-002
3.274675e+003;1.000481e-001
3.276603e+003;1.006477e-001
3.278531e+003;1.007453e-001
3.280460e+003;1.011634e-001
3.282389e+003;1.015134e-001
3.284317e+003;1.017782e-001
3.286246e+003;1.022623e-001
3.288174e+003;1.022034e-001
3.290103e+003;1.018194e-001
3.292031e+003;1.020171e-001
3.293960e+003;1.027934e-001
3.295888e+003;1.031456e-001
3.297817e+003;1.028814e-001
3.299746e+003;1.024149e-001
3.301674e+003;1.027283e-001
3.303603e+003;1.034419e-001
3.305531e+003;1.039611e-001
3.307460e+003;1.042240e-001
3.309388e+003;1.046965e-001
3.311317e+003;1.047312e-001
3.313245e+003;1.041578e-001
3.315174e+003;1.043517e-001
3.317103e+003;1.052824e-001
3.319031e+003;1.050346e-001
3.320960e+003;1.045319e-001
3.322888e+003;1.049260e-001
3.324817e+003;1.052044e-001
3.326745e+003;1.057150e-001
3.328674e+003;1.057384e-001
3.330602e+003;1.052245e-001
3.332531e+003;1.052740e-001
3.334459e+003;1.055135e-001
3.336388e+003;1.050643e-001
3.338317e+003;1.047812e-001
3.340245e+003;1.050328e-001
3.342174e+003;1.050803e-001
3.344102e+003;1.050854e-001
3.346031e+003;1.054836e-001
3.347959e+003;1.053921e-001
3.349888e+003;1.046779e-001
3.351816e+003;1.041639e-001
3.353745e+003;1.040420e-001
3.355674e+003;1.039900e-001
3.357602e+003;1.039270e-001
3.359531e+003;1.037876e-001
3.361459e+003;1.037997e-001
3.363388e+003;1.037838e-001
3.365316e+003;1.038749e-001
3.367245e+003;1.039599e-001
3.369173e+003;1.038229e-001
3.371102e+003;1.038564e-001
3.373031e+003;1.036416e-001
3.374959e+003;1.029698e-001
3.376887e+003;1.025989e-001
3.378816e+003;1.023818e-001
3.380745e+003;1.022811e-001
3.382673e+003;1.020260e-001
3.384602e+003;1.013457e-001
3.386530e+003;1.007934e-001
3.388459e+003;1.008481e-001
3.390387e+003;1.012838e-001
3.392316e+003;1.011048e-001
3.394244e+003;1.000946e-001
3.396173e+003;9.969118e-002
3.398102e+003;9.982418e-002
3.400030e+003;9.941074e-002
3.401959e+003;9.887712e-002
3.403887e+003;9.854527e-002
3.405816e+003;9.816342e-002
3.407744e+003;9.766264e-002
3.409673e+003;9.751509e-002
3.411601e+003;9.746155e-002
3.413530e+003;9.673908e-002
3.415458e+003;9.643323e-002
3.417387e+003;9.641482e-002
3.419316e+003;9.579929e-002
3.421244e+003;9.515786e-002
3.423173e+003;9.477197e-002
3.425101e+003;9.482040e-002
3.427030e+003;9.473620e-002
3.428958e+003;9.351909e-002
3.430887e+003;9.242675e-002
3.432815e+003;9.201773e-002
3.434744e+003;9.178860e-002
3.436673e+003;9.179331e-002
3.438601e+003;9.114870e-002
3.440530e+003;9.000298e-002
3.442458e+003;8.971129e-002
3.444387e+003;8.960624e-002
3.446315e+003;8.911564e-002
3.448244e+003;8.840593e-002
3.450172e+003;8.765319e-002
3.452101e+003;8.725008e-002
3.454030e+003;8.654649e-002
3.455958e+003;8.546225e-002
3.457886e+003;8.499584e-002
3.459815e+003;8.464798e-002
3.461744e+003;8.431266e-002
3.463672e+003;8.384376e-002
3.465601e+003;8.313911e-002
3.467529e+003;8.248513e-002
3.469458e+003;8.228033e-002
3.471386e+003;8.192375e-002
3.473315e+003;8.098383e-002
3.475243e+003;8.047056e-002
3.477172e+003;8.006072e-002
3.479101e+003;7.913511e-002
3.481029e+003;7.843846e-002
3.482958e+003;7.786206e-002
3.484886e+003;7.701518e-002
3.486815e+003;7.657886e-002
3.488743e+003;7.606339e-002
3.490672e+003;7.521776e-002
3.492600e+003;7.499690e-002
3.494529e+003;7.475892e-002
3.496458e+003;7.417339e-002
3.498386e+003;7.331236e-002
3.500315e+003;7.231440e-002
3.502243e+003;7.125641e-002
3.504172e+003;7.083874e-002
3.506100e+003;7.039475e-002
3.508029e+003;6.994264e-002
3.509957e+003;6.914982e-002
3.511886e+003;6.826732e-002
3.513814e+003;6.741846e-002
3.515743e+003;6.671460e-002
3.517672e+003;6.608452e-002
3.519600e+003;6.523394e-002
3.521529e+003;6.471179e-002
3.523457e+003;6.438598e-002
3.525386e+003;6.396776e-002
3.527314e+003;6.361201e-002
3.529243e+003;6.273697e-002
3.531171e+003;6.149206e-002
3.533100e+003;6.039141e-002
3.535029e+003;5.999300e-002
3.536957e+003;5.965258e-002
3.538885e+003;5.848208e-002
3.540814e+003;5.763084e-002
3.542743e+003;5.734853e-002
3.544671e+003;5.665018e-002
3.546600e+003;5.577272e-002
3.548528e+003;5.527059e-002
3.550457e+003;5.487764e-002
3.552385e+003;5.390136e-002
3.554314e+003;5.270370e-002
3.556242e+003;5.201069e-002
3.558171e+003;5.154262e-002
3.560100e+003;5.108474e-002
3.562028e+003;5.024526e-002
3.563957e+003;4.932095e-002
3.565885e+003;4.856238e-002
3.567814e+003;4.737272e-002
3.569742e+003;4.659814e-002
3.571671e+003;4.635999e-002
3.573599e+003;4.598371e-002
3.575528e+003;4.542576e-002
3.577457e+003;4.418896e-002
3.579385e+003;4.319493e-002
3.581314e+003;4.268683e-002
3.583242e+003;4.196753e-002
3.585171e+003;4.140356e-002
3.587099e+003;4.066112e-002
3.589028e+003;3.971713e-002
3.590956e+003;3.895401e-002
3.592885e+003;3.804586e-002
3.594813e+003;3.729921e-002
3.596742e+003;3.688409e-002
3.598671e+003;3.684365e-002
3.600599e+003;3.629188e-002
3.602528e+003;3.504303e-002
3.604456e+003;3.431454e-002
3.606385e+003;3.388628e-002
3.608313e+003;3.267740e-002
3.610242e+003;3.167662e-002
3.612170e+003;3.085089e-002
3.614099e+003;3.006451e-002
3.616028e+003;2.971620e-002
3.617956e+003;2.901382e-002
3.619885e+003;2.805933e-002
3.621813e+003;2.713691e-002
3.623742e+003;2.607319e-002
3.625670e+003;2.525568e-002
3.627599e+003;2.442593e-002
3.629527e+003;2.338053e-002
3.631456e+003;2.259551e-002
3.633385e+003;2.199917e-002
3.635313e+003;2.137779e-002
3.637241e+003;2.061002e-002
3.639170e+003;1.942502e-002
3.641099e+003;1.823086e-002
3.643027e+003;1.747892e-002
3.644956e+003;1.693858e-002
3.646884e+003;1.618773e-002
3.648813e+003;1.530945e-002
3.650741e+003;1.458927e-002
3.652670e+003;1.360482e-002
3.654598e+003;1.254835e-002
3.656527e+003;1.151547e-002
3.658456e+003;1.057287e-002
3.660384e+003;1.002064e-002
3.662313e+003;9.353683e-003
3.664241e+003;8.851120e-003
3.666170e+003;8.493423e-003
3.668098e+003;7.793453e-003
3.670027e+003;6.666985e-003
3.671955e+003;6.206069e-003
3.673884e+003;5.754607e-003
3.675813e+003;4.831175e-003
3.677741e+003;4.240822e-003
3.679669e+003;4.042421e-003
3.681598e+003;3.838260e-003
3.683527e+003;3.333087e-003
3.685455e+003;2.608176e-003
3.687384e+003;2.320169e-003
3.689312e+003;2.284626e-003
3.691241e+003;2.096872e-003
3.693169e+003;1.631799e-003
3.695098e+003;1.116926e-003
3.697026e+003;9.197802e-004
3.698955e+003;7.481148e-004
3.700884e+003;5.930733e-004
3.702812e+003;4.725828e-004
3.704741e+003;4.291070e-005
3.706669e+003;-5.114540e-004
3.708598e+003;-1.056716e-003
3.710526e+003;-1.337448e-003
3.712455e+003;-1.071293e-003
3.714383e+003;-1.017116e-003
3.716312e+003;-1.288128e-003
3.718240e+003;-1.250003e-003
3.720169e+003;-1.100113e-003
3.722098e+003;-1.179889e-003
3.724026e+003;-1.544511e-003
3.725955e+003;-1.584624e-003
3.727883e+003;-1.465165e-003
3.729812e+003;-1.156890e-003
3.731740e+003;-9.336738e-004
3.733669e+003;-1.463184e-003
3.735597e+003;-2.027041e-003
3.737526e+003;-2.078256e-003
3.739455e+003;-1.980142e-003
3.741383e+003;-2.054480e-003
3.743312e+003;-2.366139e-003
3.745240e+003;-2.900028e-003
3.747169e+003;-2.988523e-003
3.749097e+003;-2.972761e-003
3.751026e+003;-2.956997e-003
3.752954e+003;-2.560030e-003
3.754883e+003;-2.209117e-003
3.756812e+003;-2.131806e-003
3.758740e+003;-2.357900e-003
3.760668e+003;-2.679352e-003
3.762597e+003;-2.911646e-003
3.764526e+003;-2.795054e-003
3.766454e+003;-2.327845e-003
3.768383e+003;-2.403639e-003
3.770311e+003;-2.748863e-003
3.772240e+003;-2.861715e-003
3.774168e+003;-3.045448e-003
3.776097e+003;-2.958248e-003
3.778025e+003;-2.983127e-003
3.779954e+003;-2.720875e-003
3.781883e+003;-2.413524e-003
3.783811e+003;-2.360800e-003
3.785740e+003;-2.251411e-003
3.787668e+003;-2.382978e-003
3.789597e+003;-2.549160e-003
3.791525e+003;-2.672305e-003
3.793454e+003;-2.944656e-003
3.795382e+003;-2.922310e-003
3.797311e+003;-2.256915e-003
3.799240e+003;-2.103218e-003
3.801168e+003;-2.863097e-003
3.803097e+003;-3.133256e-003
3.805025e+003;-3.197629e-003
3.806954e+003;-2.957458e-003
3.808882e+003;-1.993961e-003
3.810811e+003;-2.091512e-003
3.812739e+003;-2.522971e-003
3.814668e+003;-2.551268e-003
3.816596e+003;-2.705399e-003
3.818525e+003;-2.526727e-003
3.820454e+003;-2.002636e-003
3.822382e+003;-1.914071e-003
3.824311e+003;-2.389898e-003
3.826239e+003;-3.207726e-003
3.828168e+003;-3.339925e-003
3.830096e+003;-2.622346e-003
3.832025e+003;-1.972225e-003
3.833953e+003;-1.626747e-003
3.835882e+003;-2.086764e-003
3.837811e+003;-3.244923e-003
3.839739e+003;-3.216343e-003
3.841667e+003;-2.472007e-003
3.843596e+003;-2.202722e-003
3.845525e+003;-2.312915e-003
3.847453e+003;-2.325933e-003
3.849382e+003;-1.988387e-003
3.851310e+003;-1.392047e-003
3.853239e+003;-1.541506e-003
3.855167e+003;-1.822222e-003
3.857096e+003;-1.473255e-003
3.859024e+003;-1.408924e-003
3.860953e+003;-1.122984e-003
3.862882e+003;-1.205795e-003
3.864810e+003;-1.592184e-003
3.866739e+003;-1.595947e-003
3.868667e+003;-1.634768e-003
3.870596e+003;-1.582973e-003
3.872524e+003;-1.104013e-003
3.874453e+003;-8.336470e-004
3.876381e+003;-9.762897e-004
3.878310e+003;-1.221655e-003
3.880239e+003;-1.544676e-003
3.882167e+003;-1.277623e-003
3.884096e+003;-6.947287e-004
3.886024e+003;-5.476584e-004
3.887953e+003;-3.299228e-004
3.889881e+003;-3.567733e-004
3.891810e+003;-6.741187e-004
3.893738e+003;-6.754751e-004
3.895667e+003;-7.500037e-004
3.897595e+003;-7.900910e-004
3.899524e+003;-6.229369e-004
3.901453e+003;-5.470297e-004
3.903381e+003;-4.755112e-004
3.905310e+003;-1.236718e-004
3.907238e+003;1.129023e-004
3.909167e+003;-2.059455e-004
3.911095e+003;-6.841426e-004
3.913024e+003;-9.023290e-004
3.914952e+003;-3.432655e-004
3.916881e+003;7.569105e-004
3.918810e+003;9.220713e-004
3.920738e+003;2.089935e-004
3.922667e+003;1.828390e-004
3.924595e+003;3.340040e-005
3.926524e+003;-1.494751e-004
3.928452e+003;3.845914e-004
3.930381e+003;7.776891e-004
3.932309e+003;7.878132e-004
3.934238e+003;5.858735e-004
3.936167e+003;8.760192e-004
3.938095e+003;1.125131e-003
3.940023e+003;1.005522e-003
3.941952e+003;9.827401e-004
3.943881e+003;9.881200e-004
3.945809e+003;9.799505e-004
3.947738e+003;1.550322e-003
3.949666e+003;2.337424e-003
3.951595e+003;2.347785e-003
3.953523e+003;1.979592e-003
3.955452e+003;1.449379e-003
3.957380e+003;1.459918e-003
3.959309e+003;1.811300e-003
3.961238e+003;1.683818e-003
3.963166e+003;1.399349e-003
3.965095e+003;1.484321e-003
3.967023e+003;2.161668e-003
3.968952e+003;1.858882e-003
3.970880e+003;1.330878e-003
3.972809e+003;1.597543e-003
3.974737e+003;2.129835e-003
3.976666e+003;2.443872e-003
3.978594e+003;2.360977e-003
3.980523e+003;2.107360e-003
3.982452e+003;1.859881e-003
3.984380e+003;2.235033e-003
3.986309e+003;2.863786e-003
3.988237e+003;2.850412e-003
3.990166e+003;3.055844e-003
3.992094e+003;3.071026e-003
3.994023e+003;2.849978e-003
3.995951e+003;2.824064e-003
3.997880e+003;2.662113e-003
3.999809e+003;2.392727e-003
4.001737e+003;0.000000e+000
