3.992094e+002;0.000000e+000
4.011380e+002;0.000000e+000
4.030665e+002;0.000000e+000
4.049951e+002;0.000000e+000
4.069236e+002;0.000000e+000
4.088522e+002;0.000000e+000
4.107807e+002;0.000000e+000
4.127093e+002;0.000000e+000
4.146378e+002;0.000000e+000
4.165664e+002;0.000000e+000
4.184949e+002;0.000000e+000
4.204235e+002;0.000000e+000
4.223520e+002;0.000000e+000
4.242806e+002;0.000000e+000
4.262091e+002;0.000000e+000
4.281377e+002;0.000000e+000
4.300662e+002;0.000000e+000
4.319948e+002;0.000000e+000
4.339233e+002;0.000000e+000
4.358519e+002;0.000000e+000
4.377804e+002;0.000000e+000
4.397090e+002;0.000000e+000
4.416375e+002;0.000000e+000
4.435660e+002;0.000000e+000
4.454946e+002;0.000000e+000
4.474232e+002;0.000000e+000
4.493517e+002;0.000000e+000
4.512802e+002;0.000000e+000
4.532088e+002;0.000000e+000
4.551373e+002;0.000000e+000
4.570659e+002;0.000000e+000
4.589944e+002;0.000000e+000
4.609230e+002;0.000000e+000
4.628515e+002;0.000000e+000
4.647801e+002;0.000000e+000
4.667086e+002;0.000000e+000
4.686372e+002;0.000000e+000
4.705657e+002;0.000000e+000
4.724943e+002;0.000000e+000
4.744228e+002;0.000000e+000
4.763513e+002;0.000000e+000
4.782799e+002;0.000000e+000
4.802085e+002;0.000000e+000
4.821370e+002;0.000000e+000
4.840656e+002;0.000000e+000
4.859941e+002;0.000000e+000
4.879226e+002;0.000000e+000
4.898512e+002;0.000000e+000
4.917798e+002;0.000000e+000
4.937083e+002;0.000000e+000
4.956368e+002;0.000000e+000
4.975654e+002;0.000000e+000
4.994939e+002;0.000000e+000
5.014225e+002;0.000000e+000
5.033510e+002;0.000000e+000
5.052796e+002;0.000000e+000
5.072081e+002;0.000000e+000
5.091367e+002;0.000000e+000
5.110652e+002;0.000000e+000
5.129938e+002;0.000000e+000
5.149223e+002;0.000000e+000
5.168509e+002;0.000000e+000
5.187794e+002;0.000000e+000
5.207079e+002;0.000000e+000
5.226365e+002;0.000000e+000
5.245651e+002;0.000000e+000
5.264936e+002;0.000000e+000
5.284222e+002;0.000000e+000
5.303507e+002;0.000000e+000
5.322792e+002;0.000000e+000
5.342078e+002;0.000000e+000
5.361364e+002;0.000000e+000
5.380649e+002;0.000000e+000
5.399935e+002;0.000000e+000
5.419220e+002;0.000000e+000
5.438505e+002;0.000000e+000
5.457791e+002;0.000000e+000
5.477076e+002;0.000000e+000
5.496362e+002;0.000000e+000
5.515648e+002;0.000000e+000
5.534933e+002;0.000000e+000
5.554218e+002;0.000000e+000
5.573504e+002;0.000000e+000
5.592789e+002;0.000000e+000
5.612075e+002;0.000000e+000
5.631360e+002;0.000000e+000
5.650646e+002;0.000000e+000
5.669931e+002;0.000000e+000
5.689217e+002;0.000000e+000
5.708502e+002;0.000000e+000
5.727787e+002;0.000000e+000
5.747073e+002;0.000000e+000
5.766359e+002;0.000000e+000
5.785644e+002;0.000000e+000
5.804930e+002;0.000000e+000
5.824215e+002;0.000000e+000
5.843500e+002;0.000000e+000
5.862786e+002;0.000000e+000
5.882072e+002;0.000000e+000
5.901357e+002;0.000000e+000
5.920643e+002;0.000000e+000
5.939928e+002;0.000000e+000
5.959213e+002;0.000000e+000
5.978499e+002;0.000000e+000
5.997784e+002;2.506036e-001
6.017070e+002;2.487389e-001
6.036355e+002;2.507311e-001
6.055641e+002;2.497232e-001
6.074926e+002;2.497785e-001
6.094211e+002;2.512591e-001
6.113497e+002;2.525947e-001
6.132783e+002;2.493629e-001
6.152068e+002;2.442164e-001
6.171354e+002;2.401220e-001
6.190639e+002;2.377935e-001
6.209924e+002;2.392569e-001
6.229210e+002;2.379464e-001
6.248495e+002;2.368249e-001
6.267781e+002;2.347586e-001
6.287067e+002;2.323655e-001
6.306352e+002;2.289953e-001
6.325637e+002;2.264210e-001
6.344923e+002;2.277877e-001
6.364208e+002;2.280692e-001
6.383494e+002;2.258570e-001
6.402780e+002;2.256817e-001
6.422065e+002;2.214276e-001
6.441350e+002;2.204948e-001
6.460636e+002;2.216335e-001
6.479921e+002;2.194806e-001
6.499207e+002;2.173383e-001
6.518492e+002;2.172042e-001
6.537778e+002;2.215088e-001
6.557063e+002;2.240626e-001
6.576349e+002;2.263221e-001
6.595634e+002;2.264988e-001
6.614919e+002;2.268565e-001
6.634205e+002;2.295669e-001
6.653491e+002;2.319799e-001
6.672776e+002;2.313094e-001
6.692062e+002;2.280947e-001
6.711347e+002;2.246321e-001
6.730632e+002;2.222229e-001
6.749918e+002;2.183332e-001
6.769203e+002;2.139994e-001
6.788489e+002;2.100156e-001
6.807775e+002;2.060831e-001
6.827060e+002;2.024903e-001
6.846345e+002;2.007200e-001
6.865631e+002;2.002914e-001
6.884916e+002;1.987697e-001
6.904202e+002;1.959432e-001
6.923488e+002;1.944370e-001
6.942773e+002;1.941961e-001
6.962058e+002;1.936279e-001
6.981344e+002;1.940133e-001
7.000629e+002;1.942725e-001
7.019915e+002;1.934747e-001
7.039200e+002;1.918126e-001
7.058486e+002;1.899114e-001
7.077771e+002;1.886205e-001
7.097057e+002;1.876571e-001
7.116342e+002;1.871343e-001
7.135627e+002;1.876156e-001
7.154913e+002;1.870323e-001
7.174199e+002;1.849502e-001
7.193484e+002;1.810851e-001
7.212770e+002;1.788602e-001
7.232055e+002;1.783924e-001
7.251340e+002;1.770402e-001
7.270626e+002;1.755980e-001
7.289911e+002;1.731389e-001
7.309197e+002;1.701667e-001
7.328483e+002;1.680487e-001
7.347768e+002;1.677879e-001
7.367053e+002;1.673554e-001
7.386339e+002;1.653721e-001
7.405624e+002;1.631467e-001
7.424910e+002;1.619160e-001
7.444196e+002;1.613201e-001
7.463481e+002;1.607862e-001
7.482766e+002;1.597176e-001
7.502052e+002;1.582583e-001
7.521337e+002;1.572586e-001
7.540623e+002;1.568063e-001
7.559908e+002;1.563054e-001
7.579194e+002;1.564296e-001
7.598479e+002;1.562408e-001
7.617765e+002;1.550149e-001
7.637050e+002;1.547626e-001
7.656335e+002;1.544456e-001
7.675621e+002;1.526642e-001
7.694907e+002;1.509472e-001
7.714192e+002;1.506102e-001
7.733478e+002;1.497228e-001
7.752763e+002;1.483499e-001
7.772048e+002;1.475244e-001
7.791334e+002;1.467744e-001
7.810620e+002;1.460832e-001
7.829905e+002;1.454987e-001
7.849191e+002;1.451093e-001
7.868476e+002;1.454049e-001
7.887761e+002;1.449103e-001
7.907047e+002;1.438784e-001
7.926332e+002;1.443377e-001
7.945618e+002;1.451730e-001
7.964903e+002;1.443835e-001
7.984189e+002;1.429666e-001
8.003474e+002;1.428357e-001
8.022759e+002;1.433212e-001
8.042045e+002;1.445653e-001
8.061331e+002;1.454625e-001
8.080616e+002;1.452647e-001
8.099902e+002;1.458751e-001
8.119187e+002;1.466385e-001
8.138472e+002;1.469184e-001
8.157758e+002;1.476929e-001
8.177043e+002;1.480433e-001
8.196329e+002;1.490223e-001
8.215615e+002;1.501230e-001
8.234900e+002;1.501361e-001
8.254185e+002;1.506605e-001
8.273471e+002;1.509823e-001
8.292756e+002;1.508876e-001
8.312042e+002;1.508232e-001
8.331328e+002;1.509807e-001
8.350613e+002;1.511319e-001
8.369898e+002;1.505280e-001
8.389184e+002;1.500263e-001
8.408469e+002;1.490973e-001
8.427755e+002;1.480217e-001
8.447040e+002;1.472707e-001
8.466326e+002;1.466691e-001
8.485611e+002;1.465349e-001
8.504897e+002;1.473005e-001
8.524182e+002;1.479177e-001
8.543467e+002;1.477476e-001
8.562753e+002;1.481637e-001
8.582039e+002;1.490998e-001
8.601324e+002;1.496221e-001
8.620610e+002;1.499344e-001
8.639895e+002;1.510010e-001
8.659180e+002;1.539060e-001
8.678466e+002;1.565506e-001
8.697751e+002;1.583934e-001
8.717037e+002;1.606654e-001
8.736323e+002;1.629962e-001
8.755608e+002;1.653465e-001
8.774893e+002;1.678093e-001
8.794179e+002;1.702617e-001
8.813464e+002;1.731744e-001
8.832750e+002;1.762912e-001
8.852036e+002;1.798768e-001
8.871321e+002;1.838453e-001
8.890606e+002;1.877974e-001
8.909892e+002;1.910335e-001
8.929177e+002;1.934847e-001
8.948463e+002;1.955747e-001
8.967748e+002;1.970820e-001
8.987034e+002;1.967830e-001
9.006319e+002;1.948799e-001
9.025605e+002;1.931748e-001
9.044890e+002;1.912126e-001
9.064175e+002;1.891204e-001
9.083461e+002;1.874146e-001
9.102747e+002;1.861693e-001
9.122032e+002;1.853795e-001
9.141318e+002;1.844673e-001
9.160603e+002;1.841141e-001
9.179888e+002;1.843025e-001
9.199174e+002;1.843293e-001
9.218459e+002;1.848530e-001
9.237745e+002;1.858503e-001
9.257031e+002;1.873121e-001
9.276316e+002;1.885588e-001
9.295601e+002;1.891795e-001
9.314887e+002;1.901597e-001
9.334172e+002;1.915411e-001
9.353458e+002;1.931057e-001
9.372744e+002;1.951039e-001
9.392029e+002;1.975112e-001
9.411314e+002;2.008688e-001
9.430600e+002;2.046750e-001
9.449885e+002;2.085844e-001
9.469171e+002;2.130318e-001
9.488456e+002;2.182783e-001
9.507742e+002;2.244491e-001
9.527027e+002;2.306424e-001
9.546313e+002;2.361817e-001
9.565598e+002;2.421102e-001
9.584883e+002;2.484336e-001
9.604169e+002;2.543492e-001
9.623455e+002;2.596203e-001
9.642740e+002;2.650038e-001
9.662026e+002;2.707106e-001
9.681311e+002;2.773234e-001
9.700596e+002;2.841994e-001
9.719882e+002;2.914555e-001
9.739167e+002;2.994198e-001
9.758453e+002;3.082879e-001
9.777739e+002;3.181185e-001
9.797024e+002;3.280412e-001
9.816309e+002;3.374958e-001
9.835595e+002;3.462219e-001
9.854880e+002;3.532397e-001
9.874166e+002;3.591341e-001
9.893452e+002;3.633892e-001
9.912737e+002;3.663568e-001
9.932022e+002;3.699779e-001
9.951307e+002;3.733855e-001
9.970593e+002;3.764089e-001
9.989879e+002;3.800336e-001
1.000916e+003;3.850892e-001
1.002845e+003;3.911695e-001
1.004773e+003;3.966814e-001
1.006702e+003;4.025871e-001
1.008631e+003;4.086742e-001
1.010559e+003;4.143441e-001
1.012488e+003;4.197464e-001
1.014416e+003;4.256614e-001
1.016345e+003;4.314010e-001
1.018273e+003;4.365264e-001
1.020202e+003;4.394235e-001
1.022130e+003;4.417193e-001
1.024059e+003;4.438235e-001
1.025988e+003;4.451189e-001
1.027916e+003;4.463169e-001
1.029845e+003;4.464968e-001
1.031773e+003;4.451936e-001
1.033702e+003;4.438850e-001
1.035630e+003;4.410067e-001
1.037559e+003;4.362359e-001
1.039487e+003;4.320058e-001
1.041416e+003;4.278302e-001
1.043344e+003;4.238014e-001
1.045273e+003;4.202702e-001
1.047202e+003;4.167999e-001
1.049130e+003;4.134477e-001
1.051059e+003;4.099249e-001
1.052987e+003;4.058510e-001
1.054916e+003;4.013421e-001
1.056844e+003;3.958349e-001
1.058773e+003;3.880302e-001
1.060701e+003;3.796584e-001
1.062630e+003;3.713650e-001
1.064558e+003;3.616316e-001
1.066487e+003;3.518335e-001
1.068416e+003;3.432274e-001
1.070344e+003;3.357704e-001
1.072273e+003;3.291756e-001
1.074201e+003;3.237025e-001
1.076130e+003;3.178520e-001
1.078058e+003;3.121533e-001
1.079987e+003;3.072641e-001
1.081915e+003;3.026259e-001
1.083844e+003;2.989045e-001
1.085773e+003;2.964372e-001
1.087701e+003;2.937102e-001
1.089630e+003;2.915937e-001
1.091558e+003;2.905404e-001
1.093487e+003;2.884804e-001
1.095415e+003;2.865628e-001
1.097344e+003;2.857187e-001
1.099272e+003;2.850375e-001
1.101201e+003;2.832157e-001
1.103129e+003;2.795579e-001
1.105058e+003;2.752768e-001
1.106987e+003;2.704791e-001
1.108915e+003;2.646844e-001
1.110844e+003;2.582985e-001
1.112772e+003;2.518694e-001
1.114701e+003;2.448753e-001
1.116629e+003;2.375283e-001
1.118558e+003;2.305724e-001
1.120486e+003;2.243742e-001
1.122415e+003;2.185082e-001
1.124344e+003;2.127757e-001
1.126272e+003;2.071110e-001
1.128201e+003;2.009265e-001
1.130129e+003;1.954432e-001
1.132058e+003;1.907527e-001
1.133986e+003;1.867784e-001
1.135915e+003;1.834958e-001
1.137843e+003;1.808437e-001
1.139772e+003;1.785343e-001
1.141700e+003;1.773183e-001
1.143629e+003;1.776291e-001
1.145557e+003;1.787017e-001
1.147486e+003;1.795515e-001
1.149415e+003;1.805017e-001
1.151343e+003;1.814739e-001
1.153272e+003;1.813903e-001
1.155200e+003;1.808349e-001
1.157129e+003;1.807702e-001
1.159057e+003;1.797420e-001
1.160986e+003;1.773620e-001
1.162914e+003;1.740486e-001
1.164843e+003;1.694413e-001
1.166771e+003;1.636525e-001
1.168700e+003;1.576877e-001
1.170629e+003;1.517180e-001
1.172557e+003;1.465153e-001
1.174486e+003;1.415703e-001
1.176414e+003;1.365188e-001
1.178343e+003;1.330623e-001
1.180271e+003;1.309876e-001
1.182200e+003;1.290152e-001
1.184128e+003;1.272720e-001
1.186057e+003;1.258656e-001
1.187986e+003;1.253947e-001
1.189914e+003;1.262084e-001
1.191843e+003;1.277853e-001
1.193771e+003;1.299788e-001
1.195700e+003;1.324993e-001
1.197628e+003;1.351888e-001
1.199557e+003;1.380706e-001
1.201485e+003;1.404527e-001
1.203414e+003;1.420508e-001
1.205343e+003;1.440838e-001
1.207271e+003;1.463313e-001
1.209200e+003;1.478228e-001
1.211128e+003;1.497712e-001
1.213057e+003;1.529904e-001
1.214985e+003;1.568593e-001
1.216914e+003;1.613512e-001
1.218842e+003;1.658407e-001
1.220771e+003;1.700853e-001
1.222699e+003;1.743606e-001
1.224628e+003;1.782866e-001
1.226557e+003;1.817204e-001
1.228485e+003;1.840294e-001
1.230414e+003;1.858747e-001
1.232342e+003;1.873606e-001
1.234271e+003;1.882972e-001
1.236199e+003;1.884789e-001
1.238128e+003;1.882648e-001
1.240056e+003;1.879648e-001
1.241985e+003;1.876024e-001
1.243913e+003;1.866632e-001
1.245842e+003;1.849360e-001
1.247771e+003;1.825467e-001
1.249699e+003;1.802944e-001
1.251628e+003;1.780045e-001
1.253556e+003;1.754070e-001
1.255485e+003;1.725544e-001
1.257413e+003;1.692211e-001
1.259342e+003;1.662841e-001
1.261270e+003;1.640219e-001
1.263199e+003;1.611730e-001
1.265127e+003;1.579558e-001
1.267056e+003;1.550857e-001
1.268985e+003;1.521240e-001
1.270913e+003;1.497031e-001
1.272842e+003;1.476118e-001
1.274770e+003;1.452407e-001
1.276699e+003;1.429555e-001
1.278627e+003;1.410686e-001
1.280556e+003;1.391018e-001
1.282484e+003;1.369189e-001
1.284413e+003;1.355017e-001
1.286342e+003;1.345722e-001
1.288270e+003;1.335396e-001
1.290199e+003;1.329482e-001
1.292127e+003;1.327168e-001
1.294056e+003;1.331589e-001
1.295984e+003;1.339698e-001
1.297913e+003;1.349834e-001
1.299841e+003;1.364571e-001
1.301770e+003;1.384446e-001
1.303698e+003;1.408935e-001
1.305627e+003;1.435143e-001
1.307556e+003;1.460638e-001
1.309484e+003;1.486888e-001
1.311413e+003;1.510969e-001
1.313341e+003;1.531643e-001
1.315270e+003;1.546819e-001
1.317198e+003;1.553070e-001
1.319127e+003;1.551932e-001
1.321055e+003;1.546093e-001
1.322984e+003;1.539972e-001
1.324912e+003;1.533823e-001
1.326841e+003;1.528032e-001
1.328770e+003;1.523383e-001
1.330698e+003;1.521344e-001
1.332627e+003;1.524968e-001
1.334555e+003;1.527670e-001
1.336484e+003;1.521030e-001
1.338412e+003;1.506998e-001
1.340341e+003;1.493067e-001
1.342269e+003;1.479467e-001
1.344198e+003;1.466299e-001
1.346126e+003;1.456387e-001
1.348055e+003;1.452343e-001
1.349984e+003;1.447095e-001
1.351912e+003;1.443835e-001
1.353841e+003;1.452413e-001
1.355769e+003;1.468210e-001
1.357698e+003;1.488191e-001
1.359626e+003;1.507606e-001
1.361555e+003;1.520321e-001
1.363483e+003;1.529182e-001
1.365412e+003;1.537037e-001
1.367341e+003;1.539698e-001
1.369269e+003;1.538807e-001
1.371198e+003;1.532463e-001
1.373126e+003;1.514544e-001
1.375055e+003;1.495029e-001
1.376983e+003;1.469411e-001
1.378912e+003;1.435559e-001
1.380840e+003;1.402768e-001
1.382769e+003;1.373035e-001
1.384698e+003;1.351583e-001
1.386626e+003;1.330630e-001
1.388555e+003;1.311636e-001
1.390483e+003;1.301112e-001
1.392412e+003;1.294410e-001
1.394340e+003;1.288952e-001
1.396269e+003;1.290643e-001
1.398197e+003;1.295420e-001
1.400126e+003;1.298898e-001
1.402054e+003;1.307131e-001
1.403983e+003;1.318123e-001
1.405911e+003;1.330623e-001
1.407840e+003;1.347281e-001
1.409769e+003;1.365518e-001
1.411697e+003;1.383720e-001
1.413626e+003;1.398694e-001
1.415554e+003;1.412684e-001
1.417483e+003;1.426732e-001
1.419411e+003;1.435798e-001
1.421340e+003;1.441756e-001
1.423268e+003;1.444829e-001
1.425197e+003;1.443846e-001
1.427125e+003;1.438369e-001
1.429054e+003;1.423902e-001
1.430983e+003;1.405019e-001
1.432911e+003;1.388317e-001
1.434840e+003;1.370942e-001
1.436768e+003;1.351325e-001
1.438697e+003;1.333599e-001
1.440625e+003;1.318294e-001
1.442554e+003;1.306064e-001
1.444482e+003;1.293669e-001
1.446411e+003;1.279739e-001
1.448340e+003;1.268449e-001
1.450268e+003;1.260069e-001
1.452197e+003;1.252474e-001
1.454125e+003;1.242525e-001
1.456054e+003;1.228164e-001
1.457982e+003;1.215093e-001
1.459911e+003;1.202092e-001
1.461839e+003;1.184427e-001
1.463768e+003;1.164556e-001
1.465697e+003;1.142661e-001
1.467625e+003;1.112366e-001
1.469554e+003;1.079105e-001
1.471482e+003;1.049015e-001
1.473411e+003;1.016119e-001
1.475339e+003;9.842975e-002
1.477268e+003;9.591956e-002
1.479196e+003;9.384054e-002
1.481125e+003;9.184985e-002
1.483053e+003;9.015559e-002
1.484982e+003;8.878958e-002
1.486911e+003;8.796005e-002
1.488839e+003;8.740111e-002
1.490768e+003;8.702347e-002
1.492696e+003;8.703145e-002
1.494625e+003;8.745813e-002
1.496553e+003;8.800087e-002
1.498482e+003;8.852621e-002
1.500410e+003;8.886410e-002
1.502339e+003;8.887150e-002
1.504267e+003;8.863436e-002
1.506196e+003;8.817900e-002
1.508125e+003;8.766693e-002
1.510053e+003;8.667762e-002
1.511982e+003;8.533318e-002
1.513910e+003;8.393460e-002
1.515839e+003;8.270217e-002
1.517767e+003;8.170906e-002
1.519696e+003;8.044400e-002
1.521624e+003;7.902468e-002
1.523553e+003;7.852075e-002
1.525481e+003;7.841044e-002
1.527410e+003;7.843723e-002
1.529339e+003;7.861426e-002
1.531267e+003;7.878166e-002
1.533196e+003;7.873689e-002
1.535124e+003;7.864313e-002
1.537053e+003;7.874289e-002
1.538981e+003;7.859694e-002
1.540910e+003;7.853544e-002
1.542838e+003;7.873221e-002
1.544767e+003;7.911639e-002
1.546695e+003;7.972097e-002
1.548624e+003;8.052357e-002
1.550553e+003;8.150686e-002
1.552481e+003;8.220693e-002
1.554410e+003;8.277794e-002
1.556338e+003;8.350015e-002
1.558267e+003;8.425212e-002
1.560195e+003;8.548459e-002
1.562124e+003;8.741072e-002
1.564052e+003;8.918208e-002
1.565981e+003;9.048284e-002
1.567910e+003;9.199455e-002
1.569838e+003;9.416378e-002
1.571767e+003;9.654238e-002
1.573695e+003;9.926784e-002
1.575624e+003;1.024044e-001
1.577552e+003;1.061512e-001
1.579481e+003;1.102491e-001
1.581409e+003;1.145763e-001
1.583338e+003;1.191940e-001
1.585266e+003;1.239042e-001
1.587195e+003;1.287581e-001
1.589124e+003;1.330392e-001
1.591052e+003;1.363505e-001
1.592981e+003;1.385397e-001
1.594909e+003;1.395485e-001
1.596838e+003;1.398960e-001
1.598766e+003;1.398108e-001
1.600695e+003;1.395541e-001
1.602623e+003;1.391904e-001
1.604552e+003;1.389725e-001
1.606480e+003;1.387481e-001
1.608409e+003;1.383755e-001
1.610338e+003;1.379725e-001
1.612266e+003;1.376209e-001
1.614195e+003;1.370490e-001
1.616123e+003;1.361303e-001
1.618052e+003;1.354110e-001
1.619980e+003;1.349829e-001
1.621909e+003;1.338063e-001
1.623837e+003;1.324231e-001
1.625766e+003;1.314974e-001
1.627694e+003;1.306396e-001
1.629623e+003;1.297632e-001
1.631552e+003;1.287010e-001
1.633480e+003;1.275118e-001
1.635409e+003;1.263708e-001
1.637337e+003;1.254200e-001
1.639266e+003;1.246759e-001
1.641194e+003;1.234651e-001
1.643123e+003;1.220881e-001
1.645051e+003;1.206897e-001
1.646980e+003;1.193742e-001
1.648909e+003;1.182396e-001
1.650837e+003;1.166762e-001
1.652766e+003;1.144649e-001
1.654694e+003;1.128083e-001
1.656623e+003;1.115334e-001
1.658551e+003;1.099061e-001
1.660480e+003;1.081027e-001
1.662408e+003;1.061955e-001
1.664337e+003;1.045549e-001
1.666266e+003;1.031549e-001
1.668194e+003;1.015250e-001
1.670123e+003;9.992097e-002
1.672051e+003;9.851006e-002
1.673980e+003;9.699849e-002
1.675908e+003;9.560344e-002
1.677837e+003;9.435726e-002
1.679765e+003;9.294529e-002
1.681694e+003;9.161890e-002
1.683622e+003;9.040963e-002
1.685551e+003;8.957301e-002
1.687479e+003;8.911023e-002
1.689408e+003;8.880906e-002
1.691337e+003;8.867887e-002
1.693265e+003;8.901765e-002
1.695194e+003;8.952455e-002
1.697122e+003;9.012505e-002
1.699051e+003;9.099068e-002
1.700979e+003;9.240073e-002
1.702908e+003;9.417852e-002
1.704836e+003;9.599482e-002
1.706765e+003;9.810693e-002
1.708693e+003;1.005604e-001
1.710622e+003;1.031736e-001
1.712551e+003;1.058671e-001
1.714479e+003;1.084672e-001
1.716408e+003;1.108618e-001
1.718336e+003;1.130314e-001
1.720265e+003;1.151097e-001
1.722193e+003;1.169908e-001
1.724122e+003;1.185924e-001
1.726050e+003;1.202061e-001
1.727979e+003;1.215233e-001
1.729908e+003;1.223368e-001
1.731836e+003;1.225661e-001
1.733765e+003;1.221774e-001
1.735693e+003;1.217843e-001
1.737622e+003;1.210155e-001
1.739550e+003;1.193511e-001
1.741479e+003;1.171898e-001
1.743407e+003;1.145264e-001
1.745336e+003;1.115002e-001
1.747265e+003;1.081513e-001
1.749193e+003;1.044140e-001
1.751122e+003;1.005123e-001
1.753050e+003;9.693602e-002
1.754979e+003;9.363886e-002
1.756907e+003;8.997669e-002
1.758836e+003;8.632307e-002
1.760764e+003;8.286262e-002
1.762693e+003;7.945786e-002
1.764621e+003;7.613244e-002
1.766550e+003;7.308502e-002
1.768479e+003;7.031238e-002
1.770407e+003;6.783145e-002
1.772336e+003;6.553226e-002
1.774264e+003;6.341658e-002
1.776193e+003;6.179622e-002
1.778121e+003;6.038844e-002
1.780050e+003;5.887425e-002
1.781978e+003;5.738732e-002
1.783907e+003;5.625771e-002
1.785835e+003;5.534597e-002
1.787764e+003;5.468003e-002
1.789693e+003;5.389589e-002
1.791621e+003;5.293952e-002
1.793550e+003;5.250357e-002
1.795478e+003;5.213120e-002
1.797407e+003;5.153508e-002
1.799335e+003;5.114885e-002
1.801264e+003;5.081834e-002
1.803192e+003;5.033470e-002
1.805121e+003;4.988831e-002
1.807049e+003;4.950870e-002
1.808978e+003;4.907789e-002
1.810907e+003;4.878116e-002
1.812835e+003;4.865569e-002
1.814764e+003;4.854971e-002
1.816692e+003;4.830800e-002
1.818621e+003;4.815779e-002
1.820549e+003;4.797377e-002
1.822478e+003;4.763176e-002
1.824406e+003;4.717717e-002
1.826335e+003;4.709304e-002
1.828264e+003;4.704503e-002
1.830192e+003;4.666509e-002
1.832121e+003;4.641371e-002
1.834049e+003;4.646555e-002
1.835978e+003;4.641363e-002
1.837906e+003;4.606026e-002
1.839835e+003;4.564599e-002
1.841763e+003;4.552705e-002
1.843692e+003;4.533833e-002
1.845620e+003;4.524933e-002
1.847549e+003;4.518642e-002
1.849478e+003;4.512759e-002
1.851406e+003;4.513980e-002
1.853335e+003;4.486927e-002
1.855263e+003;4.464300e-002
1.857192e+003;4.470004e-002
1.859120e+003;4.483506e-002
1.861049e+003;4.460878e-002
1.862977e+003;4.436412e-002
1.864906e+003;4.457129e-002
1.866834e+003;4.469475e-002
1.868763e+003;4.461245e-002
1.870692e+003;4.442593e-002
1.872620e+003;4.418973e-002
1.874549e+003;4.410090e-002
1.876477e+003;4.400893e-002
1.878406e+003;4.392566e-002
1.880334e+003;4.402836e-002
1.882263e+003;4.382738e-002
1.884191e+003;4.377131e-002
1.886120e+003;4.374119e-002
1.888048e+003;4.360097e-002
1.889977e+003;4.374262e-002
1.891906e+003;4.400218e-002
1.893834e+003;4.404292e-002
1.895763e+003;4.396394e-002
1.897691e+003;4.370154e-002
1.899620e+003;4.354459e-002
1.901548e+003;4.379018e-002
1.903477e+003;4.407167e-002
1.905405e+003;4.400753e-002
1.907334e+003;4.405142e-002
1.909262e+003;4.437234e-002
1.911191e+003;4.438739e-002
1.913120e+003;4.430648e-002
1.915048e+003;4.438537e-002
1.916977e+003;4.438948e-002
1.918905e+003;4.428398e-002
1.920834e+003;4.455474e-002
1.922762e+003;4.479660e-002
1.924691e+003;4.487305e-002
1.926619e+003;4.498020e-002
1.928548e+003;4.500001e-002
1.930477e+003;4.488723e-002
1.932405e+003;4.496083e-002
1.934334e+003;4.520936e-002
1.936262e+003;4.535002e-002
1.938191e+003;4.525300e-002
1.940119e+003;4.508149e-002
1.942048e+003;4.513031e-002
1.943976e+003;4.542646e-002
1.945905e+003;4.573010e-002
1.947833e+003;4.575834e-002
1.949762e+003;4.585333e-002
1.951691e+003;4.595984e-002
1.953619e+003;4.601369e-002
1.955548e+003;4.626935e-002
1.957476e+003;4.627137e-002
1.959405e+003;4.628180e-002
1.961333e+003;4.652552e-002
1.963262e+003;4.642374e-002
1.965190e+003;4.644612e-002
1.967119e+003;4.647112e-002
1.969047e+003;4.635781e-002
1.970976e+003;4.630558e-002
1.972905e+003;4.639638e-002
1.974833e+003;4.653079e-002
1.976762e+003;4.645021e-002
1.978690e+003;4.643001e-002
1.980619e+003;4.681834e-002
1.982547e+003;4.721699e-002
1.984476e+003;4.745901e-002
1.986404e+003;4.733015e-002
1.988333e+003;4.714301e-002
1.990261e+003;4.719309e-002
1.992190e+003;4.731242e-002
1.994119e+003;4.745617e-002
1.996047e+003;4.776101e-002
1.997976e+003;4.792862e-002
1.999904e+003;4.786384e-002
2.001833e+003;4.804848e-002
2.003761e+003;4.827505e-002
2.005690e+003;4.844271e-002
2.007618e+003;4.859113e-002
2.009547e+003;4.879951e-002
2.011476e+003;4.884382e-002
2.013404e+003;4.881153e-002
2.015333e+003;4.902313e-002
2.017261e+003;4.908412e-002
2.019190e+003;4.936311e-002
2.021118e+003;4.985490e-002
2.023047e+003;4.999949e-002
2.024975e+003;5.010077e-002
2.026904e+003;5.033198e-002
2.028833e+003;5.046467e-002
2.030761e+003;5.050759e-002
2.032690e+003;5.069373e-002
2.034618e+003;5.089839e-002
2.036547e+003;5.083119e-002
2.038475e+003;5.087582e-002
2.040404e+003;5.119634e-002
2.042332e+003;5.130585e-002
2.044261e+003;5.123209e-002
2.046189e+003;5.145551e-002
2.048118e+003;5.182533e-002
2.050047e+003;5.186588e-002
2.051975e+003;5.181342e-002
2.053904e+003;5.187947e-002
2.055832e+003;5.186091e-002
2.057761e+003;5.194347e-002
2.059689e+003;5.195617e-002
2.061618e+003;5.188958e-002
2.063546e+003;5.194134e-002
2.065475e+003;5.224198e-002
2.067404e+003;5.216247e-002
2.069332e+003;5.192667e-002
2.071260e+003;5.184553e-002
2.073189e+003;5.206328e-002
2.075118e+003;5.223205e-002
2.077046e+003;5.226650e-002
2.078975e+003;5.222132e-002
2.080903e+003;5.224019e-002
2.082832e+003;5.222042e-002
2.084760e+003;5.215320e-002
2.086689e+003;5.234371e-002
2.088617e+003;5.270715e-002
2.090546e+003;5.264053e-002
2.092475e+003;5.244222e-002
2.094403e+003;5.268915e-002
2.096332e+003;5.299062e-002
2.098260e+003;5.303296e-002
2.100189e+003;5.295296e-002
2.102117e+003;5.290385e-002
2.104046e+003;5.286519e-002
2.105974e+003;5.285442e-002
2.107903e+003;5.282122e-002
2.109832e+003;5.290015e-002
2.111760e+003;5.313326e-002
2.113688e+003;5.316416e-002
2.115617e+003;5.333424e-002
2.117546e+003;5.367222e-002
2.119474e+003;5.375254e-002
2.121403e+003;5.361865e-002
2.123331e+003;5.359098e-002
2.125260e+003;5.364163e-002
2.127188e+003;5.364605e-002
2.129117e+003;5.363886e-002
2.131045e+003;5.372322e-002
2.132974e+003;5.382260e-002
2.134903e+003;5.371849e-002
2.136831e+003;5.371212e-002
2.138760e+003;5.400187e-002
2.140688e+003;5.376810e-002
2.142617e+003;5.319082e-002
2.144545e+003;5.305456e-002
2.146474e+003;5.328536e-002
2.148402e+003;5.339262e-002
2.150331e+003;5.347063e-002
2.152260e+003;5.328836e-002
2.154188e+003;5.287455e-002
2.156117e+003;5.270617e-002
2.158045e+003;5.266114e-002
2.159974e+003;5.270198e-002
2.161902e+003;5.277752e-002
2.163831e+003;5.290434e-002
2.165759e+003;5.272963e-002
2.167688e+003;5.227932e-002
2.169616e+003;5.190628e-002
2.171545e+003;5.168666e-002
2.173474e+003;5.182835e-002
2.175402e+003;5.182413e-002
2.177331e+003;5.158601e-002
2.179259e+003;5.154195e-002
2.181188e+003;5.143347e-002
2.183116e+003;5.124033e-002
2.185045e+003;5.095666e-002
2.186973e+003;5.084270e-002
2.188902e+003;5.101516e-002
2.190831e+003;5.111344e-002
2.192759e+003;5.116238e-002
2.194688e+003;5.098468e-002
2.196616e+003;5.074340e-002
2.198545e+003;5.055270e-002
2.200473e+003;5.041775e-002
2.202402e+003;5.048726e-002
2.204330e+003;5.070933e-002
2.206259e+003;5.066156e-002
2.208188e+003;5.050714e-002
2.210116e+003;5.043892e-002
2.212044e+003;5.026189e-002
2.213973e+003;5.029433e-002
2.215902e+003;5.041961e-002
2.217830e+003;5.039099e-002
2.219759e+003;5.061506e-002
2.221687e+003;5.058788e-002
2.223616e+003;5.037015e-002
2.225544e+003;5.041916e-002
2.227473e+003;5.033488e-002
2.229401e+003;5.001339e-002
2.231330e+003;5.003990e-002
2.233259e+003;5.023064e-002
2.235187e+003;5.036550e-002
2.237116e+003;5.050040e-002
2.239044e+003;5.051488e-002
2.240973e+003;5.040584e-002
2.242901e+003;5.056525e-002
2.244830e+003;5.075067e-002
2.246758e+003;5.063472e-002
2.248687e+003;5.038563e-002
2.250615e+003;5.029377e-002
2.252544e+003;5.038467e-002
2.254473e+003;5.038266e-002
2.256401e+003;5.024884e-002
2.258330e+003;5.018701e-002
2.260258e+003;5.025579e-002
2.262187e+003;5.011438e-002
2.264115e+003;4.981517e-002
2.266044e+003;4.963538e-002
2.267972e+003;4.985501e-002
2.269901e+003;5.007456e-002
2.271830e+003;5.009735e-002
2.273758e+003;4.979421e-002
2.275687e+003;4.944891e-002
2.277615e+003;4.933884e-002
2.279544e+003;4.936059e-002
2.281472e+003;4.936935e-002
2.283401e+003;4.930662e-002
2.285329e+003;4.920979e-002
2.287258e+003;4.929638e-002
2.289187e+003;4.936234e-002
2.291115e+003;4.897017e-002
2.293043e+003;4.907340e-002
2.294972e+003;4.942701e-002
2.296901e+003;4.941431e-002
2.298829e+003;4.949206e-002
2.300758e+003;4.936701e-002
2.302686e+003;4.938067e-002
2.304615e+003;4.953053e-002
2.306543e+003;4.947335e-002
2.308472e+003;4.913046e-002
2.310400e+003;4.890875e-002
2.312329e+003;4.901074e-002
2.314258e+003;4.906064e-002
2.316186e+003;4.927466e-002
2.318115e+003;4.933910e-002
2.320043e+003;4.919090e-002
2.321972e+003;4.897851e-002
2.323900e+003;4.882558e-002
2.325829e+003;4.908289e-002
2.327757e+003;4.910734e-002
2.329686e+003;4.905856e-002
2.331615e+003;4.919862e-002
2.333543e+003;4.911818e-002
2.335472e+003;4.902146e-002
2.337400e+003;4.913591e-002
2.339329e+003;4.934719e-002
2.341257e+003;4.959081e-002
2.343186e+003;5.000042e-002
2.345114e+003;4.998399e-002
2.347043e+003;5.025821e-002
2.348971e+003;5.073566e-002
2.350900e+003;5.077078e-002
2.352829e+003;5.057195e-002
2.354757e+003;5.010308e-002
2.356686e+003;4.982620e-002
2.358614e+003;4.971726e-002
2.360543e+003;4.991380e-002
2.362471e+003;5.022886e-002
2.364400e+003;5.064778e-002
2.366328e+003;5.086799e-002
2.368257e+003;5.100234e-002
2.370186e+003;5.131670e-002
2.372114e+003;5.174880e-002
2.374042e+003;5.202679e-002
2.375971e+003;5.234659e-002
2.377900e+003;5.259433e-002
2.379828e+003;5.268179e-002
2.381757e+003;5.272271e-002
2.383685e+003;5.301248e-002
2.385614e+003;5.327629e-002
2.387542e+003;5.329663e-002
2.389471e+003;5.325539e-002
2.391399e+003;5.343192e-002
2.393328e+003;5.363784e-002
2.395257e+003;5.389112e-002
2.397185e+003;5.405534e-002
2.399114e+003;5.375277e-002
2.401042e+003;5.370394e-002
2.402971e+003;5.424230e-002
2.404899e+003;5.453752e-002
2.406828e+003;5.468879e-002
2.408756e+003;5.493099e-002
2.410685e+003;5.502541e-002
2.412614e+003;5.490989e-002
2.414542e+003;5.487421e-002
2.416471e+003;5.510715e-002
2.418399e+003;5.535022e-002
2.420328e+003;5.567128e-002
2.422256e+003;5.580083e-002
2.424185e+003;5.576101e-002
2.426113e+003;5.617512e-002
2.428042e+003;5.657589e-002
2.429970e+003;5.666932e-002
2.431899e+003;5.672123e-002
2.433828e+003;5.675216e-002
2.435756e+003;5.688887e-002
2.437685e+003;5.710709e-002
2.439613e+003;5.700911e-002
2.441542e+003;5.687799e-002
2.443470e+003;5.723189e-002
2.445399e+003;5.753993e-002
2.447327e+003;5.767818e-002
2.449256e+003;5.788127e-002
2.451185e+003;5.811394e-002
2.453113e+003;5.840982e-002
2.455042e+003;5.838709e-002
2.456970e+003;5.824395e-002
2.458899e+003;5.860477e-002
2.460827e+003;5.908208e-002
2.462756e+003;5.898475e-002
2.464684e+003;5.888267e-002
2.466613e+003;5.906690e-002
2.468542e+003;5.898548e-002
2.470470e+003;5.890259e-002
2.472398e+003;5.924224e-002
2.474327e+003;5.953738e-002
2.476256e+003;5.969656e-002
2.478184e+003;5.974329e-002
2.480113e+003;5.978735e-002
2.482041e+003;5.998178e-002
2.483970e+003;6.017203e-002
2.485898e+003;6.036574e-002
2.487827e+003;6.042572e-002
2.489755e+003;6.049659e-002
2.491684e+003;6.034914e-002
2.493613e+003;6.019718e-002
2.495541e+003;6.037153e-002
2.497470e+003;6.050512e-002
2.499398e+003;6.084446e-002
2.501327e+003;6.134759e-002
2.503255e+003;6.143446e-002
2.505184e+003;6.149121e-002
2.507112e+003;6.155100e-002
2.509041e+003;6.164260e-002
2.510969e+003;6.168354e-002
2.512898e+003;6.162141e-002
2.514827e+003;6.186659e-002
2.516755e+003;6.209715e-002
2.518684e+003;6.217480e-002
2.520612e+003;6.223613e-002
2.522541e+003;6.231105e-002
2.524469e+003;6.224802e-002
2.526398e+003;6.219946e-002
2.528326e+003;6.249187e-002
2.530255e+003;6.296661e-002
2.532184e+003;6.308928e-002
2.534112e+003;6.309059e-002
2.536041e+003;6.309430e-002
2.537969e+003;6.306664e-002
2.539898e+003;6.296153e-002
2.541826e+003;6.307959e-002
2.543755e+003;6.330781e-002
2.545683e+003;6.333303e-002
2.547612e+003;6.324713e-002
2.549541e+003;6.340277e-002
2.551469e+003;6.371433e-002
2.553397e+003;6.396001e-002
2.555326e+003;6.412401e-002
2.557255e+003;6.428204e-002
2.559183e+003;6.427731e-002
2.561112e+003;6.401841e-002
2.563040e+003;6.410335e-002
2.564969e+003;6.439374e-002
2.566897e+003;6.440862e-002
2.568826e+003;6.441408e-002
2.570754e+003;6.435109e-002
2.572683e+003;6.451558e-002
2.574612e+003;6.456014e-002
2.576540e+003;6.437845e-002
2.578469e+003;6.457048e-002
2.580397e+003;6.473794e-002
2.582326e+003;6.481602e-002
2.584254e+003;6.504827e-002
2.586183e+003;6.511871e-002
2.588111e+003;6.532674e-002
2.590040e+003;6.559487e-002
2.591969e+003;6.547354e-002
2.593897e+003;6.525785e-002
2.595826e+003;6.536541e-002
2.597754e+003;6.578336e-002
2.599683e+003;6.606176e-002
2.601611e+003;6.583745e-002
2.603540e+003;6.577519e-002
2.605468e+003;6.606442e-002
2.607397e+003;6.614112e-002
2.609325e+003;6.636841e-002
2.611254e+003;6.658334e-002
2.613183e+003;6.662965e-002
2.615111e+003;6.665113e-002
2.617040e+003;6.699449e-002
2.618968e+003;6.741679e-002
2.620897e+003;6.724411e-002
2.622825e+003;6.714223e-002
2.624754e+003;6.750081e-002
2.626682e+003;6.782513e-002
2.628611e+003;6.799064e-002
2.630540e+003;6.812283e-002
2.632468e+003;6.834092e-002
2.634396e+003;6.859128e-002
2.636325e+003;6.873038e-002
2.638254e+003;6.883472e-002
2.640182e+003;6.898570e-002
2.642111e+003;6.917030e-002
2.644039e+003;6.896896e-002
2.645968e+003;6.886695e-002
2.647896e+003;6.914524e-002
2.649825e+003;6.950777e-002
2.651753e+003;6.964101e-002
2.653682e+003;6.959433e-002
2.655611e+003;6.971550e-002
2.657539e+003;6.996853e-002
2.659468e+003;7.019930e-002
2.661396e+003;7.047837e-002
2.663325e+003;7.085574e-002
2.665253e+003;7.112067e-002
2.667182e+003;7.110710e-002
2.669110e+003;7.114144e-002
2.671039e+003;7.137132e-002
2.672968e+003;7.163832e-002
2.674896e+003;7.168119e-002
2.676825e+003;7.159968e-002
2.678753e+003;7.168236e-002
2.680682e+003;7.204585e-002
2.682610e+003;7.232618e-002
2.684539e+003;7.242349e-002
2.686467e+003;7.239409e-002
2.688396e+003;7.243907e-002
2.690324e+003;7.313741e-002
2.692253e+003;7.363925e-002
2.694182e+003;7.355682e-002
2.696110e+003;7.343214e-002
2.698039e+003;7.334128e-002
2.699967e+003;7.339840e-002
2.701896e+003;7.380448e-002
2.703824e+003;7.417115e-002
2.705753e+003;7.421541e-002
2.707681e+003;7.430202e-002
2.709610e+003;7.452063e-002
2.711539e+003;7.474574e-002
2.713467e+003;7.512447e-002
2.715396e+003;7.530055e-002
2.717324e+003;7.537409e-002
2.719253e+003;7.544307e-002
2.721181e+003;7.554767e-002
2.723110e+003;7.569914e-002
2.725038e+003;7.587469e-002
2.726967e+003;7.625016e-002
2.728896e+003;7.618535e-002
2.730824e+003;7.606465e-002
2.732752e+003;7.609490e-002
2.734681e+003;7.611629e-002
2.736610e+003;7.622702e-002
2.738538e+003;7.639765e-002
2.740467e+003;7.633555e-002
2.742395e+003;7.636423e-002
2.744324e+003;7.657637e-002
2.746252e+003;7.655013e-002
2.748181e+003;7.646833e-002
2.750109e+003;7.644039e-002
2.752038e+003;7.657792e-002
2.753967e+003;7.685538e-002
2.755895e+003;7.701198e-002
2.757824e+003;7.701155e-002
2.759752e+003;7.715154e-002
2.761681e+003;7.736027e-002
2.763609e+003;7.763110e-002
2.765538e+003;7.777622e-002
2.767466e+003;7.786250e-002
2.769395e+003;7.794008e-002
2.771323e+003;7.792692e-002
2.773252e+003;7.817240e-002
2.775181e+003;7.853608e-002
2.777109e+003;7.887653e-002
2.779038e+003;7.881264e-002
2.780966e+003;7.890502e-002
2.782895e+003;7.931958e-002
2.784823e+003;7.967339e-002
2.786752e+003;7.985857e-002
2.788680e+003;7.998463e-002
2.790609e+003;8.015754e-002
2.792538e+003;8.027878e-002
2.794466e+003;8.037901e-002
2.796395e+003;8.078117e-002
2.798323e+003;8.145794e-002
2.800252e+003;8.171593e-002
2.802180e+003;8.155011e-002
2.804109e+003;8.150454e-002
2.806037e+003;8.175841e-002
2.807966e+003;8.239736e-002
2.809895e+003;8.278676e-002
2.811823e+003;8.312263e-002
2.813751e+003;8.358533e-002
2.815680e+003;8.371123e-002
2.817609e+003;8.402964e-002
2.819537e+003;8.473790e-002
2.821466e+003;8.533882e-002
2.823394e+003;8.600577e-002
2.825323e+003;8.651151e-002
2.827251e+003;8.675420e-002
2.829180e+003;8.705306e-002
2.831108e+003;8.754811e-002
2.833037e+003;8.844294e-002
2.834966e+003;8.936220e-002
2.836894e+003;9.024959e-002
2.838823e+003;9.080584e-002
2.840751e+003;9.130559e-002
2.842680e+003;9.215400e-002
2.844608e+003;9.311478e-002
2.846537e+003;9.384477e-002
2.848465e+003;9.439547e-002
2.850394e+003;9.540874e-002
2.852323e+003;9.657267e-002
2.854251e+003;9.743567e-002
2.856180e+003;9.819520e-002
2.858108e+003;9.924481e-002
2.860037e+003;1.001430e-001
2.861965e+003;1.008128e-001
2.863894e+003;1.017240e-001
2.865822e+003;1.024950e-001
2.867751e+003;1.029324e-001
2.869679e+003;1.033441e-001
2.871608e+003;1.039605e-001
2.873536e+003;1.046000e-001
2.875465e+003;1.053508e-001
2.877394e+003;1.059855e-001
2.879322e+003;1.059538e-001
2.881251e+003;1.058831e-001
2.883179e+003;1.066203e-001
2.885108e+003;1.068627e-001
2.887036e+003;1.069385e-001
2.888965e+003;1.076598e-001
2.890893e+003;1.082396e-001
2.892822e+003;1.082631e-001
2.894750e+003;1.079802e-001
2.896679e+003;1.079200e-001
2.898608e+003;1.081751e-001
2.900536e+003;1.080801e-001
2.902465e+003;1.078421e-001
2.904393e+003;1.075584e-001
2.906322e+003;1.074152e-001
2.908250e+003;1.075425e-001
2.910179e+003;1.071418e-001
2.912107e+003;1.068777e-001
2.914036e+003;1.067697e-001
2.915965e+003;1.057973e-001
2.917893e+003;1.053457e-001
2.919822e+003;1.057699e-001
2.921750e+003;1.055398e-001
2.923679e+003;1.046584e-001
2.925607e+003;1.040811e-001
2.927536e+003;1.036878e-001
2.929464e+003;1.037355e-001
2.931393e+003;1.035916e-001
2.933322e+003;1.033023e-001
2.935250e+003;1.028749e-001
2.937178e+003;1.022015e-001
2.939107e+003;1.017462e-001
2.941036e+003;1.013867e-001
2.942964e+003;1.010997e-001
2.944893e+003;1.005918e-001
2.946821e+003;9.944815e-002
2.948750e+003;9.820537e-002
2.950678e+003;9.742115e-002
2.952607e+003;9.651747e-002
2.954535e+003;9.539087e-002
2.956464e+003;9.458869e-002
2.958393e+003;9.382442e-002
2.960321e+003;9.313888e-002
2.962250e+003;9.259518e-002
2.964178e+003;9.197579e-002
2.966107e+003;9.147313e-002
2.968035e+003;9.075157e-002
2.969964e+003;9.007653e-002
2.971892e+003;8.951066e-002
2.973821e+003;8.880617e-002
2.975750e+003;8.857675e-002
2.977678e+003;8.849484e-002
2.979607e+003;8.795031e-002
2.981535e+003;8.690292e-002
2.983464e+003;8.616704e-002
2.985392e+003;8.597067e-002
2.987321e+003;8.569297e-002
2.989249e+003;8.543736e-002
2.991178e+003;8.550404e-002
2.993106e+003;8.554652e-002
2.995035e+003;8.494894e-002
2.996964e+003;8.449069e-002
2.998892e+003;8.431983e-002
3.000821e+003;8.375712e-002
3.002749e+003;8.363844e-002
3.004678e+003;8.409023e-002
3.006606e+003;8.452792e-002
3.008535e+003;8.469735e-002
3.010463e+003;8.490922e-002
3.012392e+003;8.489273e-002
3.014321e+003;8.470722e-002
3.016249e+003;8.423933e-002
3.018177e+003;8.402622e-002
3.020106e+003;8.470979e-002
3.022035e+003;8.519782e-002
3.023963e+003;8.510958e-002
3.025892e+003;8.510055e-002
3.027820e+003;8.537775e-002
3.029749e+003;8.556852e-002
3.031677e+003;8.526345e-002
3.033606e+003;8.554059e-002
3.035534e+003;8.619597e-002
3.037463e+003;8.619972e-002
3.039392e+003;8.632942e-002
3.041320e+003;8.650977e-002
3.043249e+003;8.671007e-002
3.045177e+003;8.724716e-002
3.047106e+003;8.735797e-002
3.049034e+003;8.752732e-002
3.050963e+003;8.815801e-002
3.052891e+003;8.871488e-002
3.054820e+003;8.914802e-002
3.056749e+003;8.921406e-002
3.058677e+003;8.892452e-002
3.060606e+003;8.889984e-002
3.062534e+003;8.954654e-002
3.064463e+003;9.004126e-002
3.066391e+003;9.063561e-002
3.068320e+003;9.150258e-002
3.070248e+003;9.182217e-002
3.072177e+003;9.190806e-002
3.074105e+003;9.207363e-002
3.076034e+003;9.241487e-002
3.077963e+003;9.261069e-002
3.079891e+003;9.275408e-002
3.081820e+003;9.338601e-002
3.083748e+003;9.400623e-002
3.085677e+003;9.459198e-002
3.087605e+003;9.479513e-002
3.089534e+003;9.516884e-002
3.091462e+003;9.574703e-002
3.093391e+003;9.581883e-002
3.095320e+003;9.587407e-002
3.097248e+003;9.595279e-002
3.099177e+003;9.659722e-002
3.101105e+003;9.731522e-002
3.103034e+003;9.765355e-002
3.104962e+003;9.793340e-002
3.106891e+003;9.867554e-002
3.108819e+003;9.929150e-002
3.110748e+003;9.938546e-002
3.112677e+003;9.986079e-002
3.114605e+003;1.004409e-001
3.116533e+003;1.006260e-001
3.118462e+003;1.012656e-001
3.120391e+003;1.017670e-001
3.122319e+003;1.018726e-001
3.124248e+003;1.022870e-001
3.126176e+003;1.028977e-001
3.128105e+003;1.031679e-001
3.130033e+003;1.037011e-001
3.131962e+003;1.042932e-001
3.133890e+003;1.046380e-001
3.135819e+003;1.051902e-001
3.137748e+003;1.056685e-001
3.139676e+003;1.061586e-001
3.141605e+003;1.065568e-001
3.143533e+003;1.069836e-001
3.145462e+003;1.076925e-001
3.147390e+003;1.085595e-001
3.149319e+003;1.092415e-001
3.151247e+003;1.094601e-001
3.153176e+003;1.095847e-001
3.155104e+003;1.104030e-001
3.157033e+003;1.111263e-001
3.158962e+003;1.112723e-001
3.160890e+003;1.114356e-001
3.162819e+003;1.120250e-001
3.164747e+003;1.129094e-001
3.166676e+003;1.135812e-001
3.168604e+003;1.139130e-001
3.170533e+003;1.140368e-001
3.172461e+003;1.145934e-001
3.174390e+003;1.150576e-001
3.176319e+003;1.153739e-001
3.178247e+003;1.164265e-001
3.180176e+003;1.173207e-001
3.182104e+003;1.175942e-001
3.184033e+003;1.175981e-001
3.185961e+003;1.180379e-001
3.187890e+003;1.188055e-001
3.189818e+003;1.195808e-001
3.191747e+003;1.203766e-001
3.193676e+003;1.209406e-001
3.195604e+003;1.213078e-001
3.197532e+003;1.223192e-001
3.199461e+003;1.234785e-001
3.201390e+003;1.238429e-001
3.203318e+003;1.238555e-001
3.205247e+003;1.240605e-001
3.207175e+003;1.245290e-001
3.209104e+003;1.253993e-001
3.211032e+003;1.260808e-001
3.212961e+003;1.267412e-001
3.214889e+003;1.272977e-001
3.216818e+003;1.278024e-001
3.218747e+003;1.291774e-001
3.220675e+003;1.300978e-001
3.222604e+003;1.301104e-001
3.224532e+003;1.301027e-001
3.226461e+003;1.303568e-001
3.228389e+003;1.312726e-001
3.230318e+003;1.318420e-001
3.232246e+003;1.322470e-001
3.234175e+003;1.332241e-001
3.236104e+003;1.343136e-001
3.238032e+003;1.348109e-001
3.239961e+003;1.352146e-001
3.241889e+003;1.355843e-001
3.243818e+003;1.357910e-001
3.245746e+003;1.364959e-001
3.247675e+003;1.375818e-001
3.249603e+003;1.382182e-001
3.251532e+003;1.385872e-001
3.253460e+003;1.387740e-001
3.255389e+003;1.392199e-001
3.257318e+003;1.404465e-001
3.259246e+003;1.414682e-001
3.261175e+003;1.416774e-001
3.263103e+003;1.419201e-001
3.265032e+003;1.423676e-001
3.266960e+003;1.427774e-001
3.268889e+003;1.433431e-001
3.270817e+003;1.441427e-001
3.272746e+003;1.441909e-001
3.274675e+003;1.445048e-001
3.276603e+003;1.451088e-001
3.278531e+003;1.453110e-001
3.280460e+003;1.454395e-001
3.282389e+003;1.460001e-001
3.284317e+003;1.461501e-001
3.286246e+003;1.456793e-001
3.288174e+003;1.457815e-001
3.290103e+003;1.467047e-001
3.292031e+003;1.474871e-001
3.293960e+003;1.477501e-001
3.295888e+003;1.476011e-001
3.297817e+003;1.473885e-001
3.299746e+003;1.475482e-001
3.301674e+003;1.478939e-001
3.303603e+003;1.484195e-001
3.305531e+003;1.481808e-001
3.307460e+003;1.484204e-001
3.309388e+003;1.492137e-001
3.311317e+003;1.493745e-001
3.313245e+003;1.490236e-001
3.315174e+003;1.486700e-001
3.317103e+003;1.490157e-001
3.319031e+003;1.497230e-001
3.320960e+003;1.500820e-001
3.322888e+003;1.500550e-001
3.324817e+003;1.499780e-001
3.326745e+003;1.498334e-001
3.328674e+003;1.500127e-001
3.330602e+003;1.503041e-001
3.332531e+003;1.501759e-001
3.334459e+003;1.497784e-001
3.336388e+003;1.493181e-001
3.338317e+003;1.493114e-001
3.340245e+003;1.494398e-001
3.342174e+003;1.493059e-001
3.344102e+003;1.491485e-001
3.346031e+003;1.489208e-001
3.347959e+003;1.488455e-001
3.349888e+003;1.488839e-001
3.351816e+003;1.485577e-001
3.353745e+003;1.480374e-001
3.355674e+003;1.474618e-001
3.357602e+003;1.470905e-001
3.359531e+003;1.469618e-001
3.361459e+003;1.470398e-001
3.363388e+003;1.468085e-001
3.365316e+003;1.463941e-001
3.367245e+003;1.462693e-001
3.369173e+003;1.459204e-001
3.371102e+003;1.455344e-001
3.373031e+003;1.455753e-001
3.374959e+003;1.456420e-001
3.376887e+003;1.450587e-001
3.378816e+003;1.440161e-001
3.380745e+003;1.434475e-001
3.382673e+003;1.436306e-001
3.384602e+003;1.437289e-001
3.386530e+003;1.432788e-001
3.388459e+003;1.425428e-001
3.390387e+003;1.422358e-001
3.392316e+003;1.418831e-001
3.394244e+003;1.413044e-001
3.396173e+003;1.407246e-001
3.398102e+003;1.402348e-001
3.400030e+003;1.401757e-001
3.401959e+003;1.401652e-001
3.403887e+003;1.392358e-001
3.405816e+003;1.381046e-001
3.407744e+003;1.379166e-001
3.409673e+003;1.378218e-001
3.411601e+003;1.371580e-001
3.413530e+003;1.363656e-001
3.415458e+003;1.357845e-001
3.417387e+003;1.356532e-001
3.419316e+003;1.351836e-001
3.421244e+003;1.342264e-001
3.423173e+003;1.334797e-001
3.425101e+003;1.330021e-001
3.427030e+003;1.326219e-001
3.428958e+003;1.317066e-001
3.430887e+003;1.306859e-001
3.432815e+003;1.303443e-001
3.434744e+003;1.297911e-001
3.436673e+003;1.290238e-001
3.438601e+003;1.283439e-001
3.440530e+003;1.273559e-001
3.442458e+003;1.260377e-001
3.444387e+003;1.255214e-001
3.446315e+003;1.254521e-001
3.448244e+003;1.251010e-001
3.450172e+003;1.248881e-001
3.452101e+003;1.238974e-001
3.454030e+003;1.222647e-001
3.455958e+003;1.217404e-001
3.457886e+003;1.219359e-001
3.459815e+003;1.209786e-001
3.461744e+003;1.197455e-001
3.463672e+003;1.188056e-001
3.465601e+003;1.179773e-001
3.467529e+003;1.170476e-001
3.469458e+003;1.167600e-001
3.471386e+003;1.161458e-001
3.473315e+003;1.153145e-001
3.475243e+003;1.144701e-001
3.477172e+003;1.135253e-001
3.479101e+003;1.126304e-001
3.481029e+003;1.117453e-001
3.482958e+003;1.108711e-001
3.484886e+003;1.101876e-001
3.486815e+003;1.096593e-001
3.488743e+003;1.092528e-001
3.490672e+003;1.082555e-001
3.492600e+003;1.073344e-001
3.494529e+003;1.068072e-001
3.496458e+003;1.056130e-001
3.498386e+003;1.047271e-001
3.500315e+003;1.043104e-001
3.502243e+003;1.031853e-001
3.504172e+003;1.022468e-001
3.506100e+003;1.015884e-001
3.508029e+003;1.007062e-001
3.509957e+003;1.000695e-001
3.511886e+003;9.945640e-002
3.513814e+003;9.885868e-002
3.515743e+003;9.791123e-002
3.517672e+003;9.718275e-002
3.519600e+003;9.643521e-002
3.521529e+003;9.579937e-002
3.523457e+003;9.503800e-002
3.525386e+003;9.396846e-002
3.527314e+003;9.313872e-002
3.529243e+003;9.236306e-002
3.531171e+003;9.180936e-002
3.533100e+003;9.092902e-002
3.535029e+003;8.965524e-002
3.536957e+003;8.920397e-002
3.538885e+003;8.909831e-002
3.540814e+003;8.813674e-002
3.542743e+003;8.713927e-002
3.544671e+003;8.633988e-002
3.546600e+003;8.568890e-002
3.548528e+003;8.484878e-002
3.550457e+003;8.373293e-002
3.552385e+003;8.242748e-002
3.554314e+003;8.110354e-002
3.556242e+003;8.042957e-002
3.558171e+003;7.998726e-002
3.560100e+003;7.980955e-002
3.562028e+003;7.970046e-002
3.563957e+003;7.888488e-002
3.565885e+003;7.758681e-002
3.567814e+003;7.665883e-002
3.569742e+003;7.609446e-002
3.571671e+003;7.562775e-002
3.573599e+003;7.515110e-002
3.575528e+003;7.439245e-002
3.577457e+003;7.350203e-002
3.579385e+003;7.271367e-002
3.581314e+003;7.199191e-002
3.583242e+003;7.144650e-002
3.585171e+003;7.074116e-002
3.587099e+003;6.992995e-002
3.589028e+003;6.947705e-002
3.590956e+003;6.885786e-002
3.592885e+003;6.827531e-002
3.594813e+003;6.729816e-002
3.596742e+003;6.635381e-002
3.598671e+003;6.582072e-002
3.600599e+003;6.514431e-002
3.602528e+003;6.453846e-002
3.604456e+003;6.413753e-002
3.606385e+003;6.386385e-002
3.608313e+003;6.346819e-002
3.610242e+003;6.271680e-002
3.612170e+003;6.210418e-002
3.614099e+003;6.156990e-002
3.616028e+003;6.133950e-002
3.617956e+003;6.118872e-002
3.619885e+003;6.037918e-002
3.621813e+003;5.945439e-002
3.623742e+003;5.905031e-002
3.625670e+003;5.863731e-002
3.627599e+003;5.812322e-002
3.629527e+003;5.752840e-002
3.631456e+003;5.696030e-002
3.633385e+003;5.678935e-002
3.635313e+003;5.644517e-002
3.637241e+003;5.556406e-002
3.639170e+003;5.507950e-002
3.641099e+003;5.467800e-002
3.643027e+003;5.431611e-002
3.644956e+003;5.374796e-002
3.646884e+003;5.249610e-002
3.648813e+003;5.115340e-002
3.650741e+003;5.042645e-002
3.652670e+003;5.034995e-002
3.654598e+003;5.016039e-002
3.656527e+003;4.906980e-002
3.658456e+003;4.812584e-002
3.660384e+003;4.789940e-002
3.662313e+003;4.776815e-002
3.664241e+003;4.673948e-002
3.666170e+003;4.594614e-002
3.668098e+003;4.551928e-002
3.670027e+003;4.460118e-002
3.671955e+003;4.382673e-002
3.673884e+003;4.325141e-002
3.675813e+003;4.236241e-002
3.677741e+003;4.155503e-002
3.679669e+003;4.123862e-002
3.681598e+003;4.111364e-002
3.683527e+003;4.085929e-002
3.685455e+003;4.036319e-002
3.687384e+003;3.966554e-002
3.689312e+003;3.917149e-002
3.691241e+003;3.908037e-002
3.693169e+003;3.877627e-002
3.695098e+003;3.855240e-002
3.697026e+003;3.858872e-002
3.698955e+003;3.850533e-002
3.700884e+003;3.791669e-002
3.702812e+003;3.713280e-002
3.704741e+003;3.638627e-002
3.706669e+003;3.625539e-002
3.708598e+003;3.609640e-002
3.710526e+003;3.537695e-002
3.712455e+003;3.523995e-002
3.714383e+003;3.540316e-002
3.716312e+003;3.534022e-002
3.718240e+003;3.521462e-002
3.720169e+003;3.507666e-002
3.722098e+003;3.481153e-002
3.724026e+003;3.477912e-002
3.725955e+003;3.459296e-002
3.727883e+003;3.438770e-002
3.729812e+003;3.419705e-002
3.731740e+003;3.436223e-002
3.733669e+003;3.459931e-002
3.735597e+003;3.445695e-002
3.737526e+003;3.404898e-002
3.739455e+003;3.392837e-002
3.741383e+003;3.384870e-002
3.743312e+003;3.356646e-002
3.745240e+003;3.349076e-002
3.747169e+003;3.395439e-002
3.749097e+003;3.374176e-002
3.751026e+003;3.310926e-002
3.752954e+003;3.305026e-002
3.754883e+003;3.328741e-002
3.756812e+003;3.366842e-002
3.758740e+003;3.409055e-002
3.760668e+003;3.415726e-002
3.762597e+003;3.358114e-002
3.764526e+003;3.302985e-002
3.766454e+003;3.330448e-002
3.768383e+003;3.379698e-002
3.770311e+003;3.353457e-002
3.772240e+003;3.344041e-002
3.774168e+003;3.341893e-002
3.776097e+003;3.326698e-002
3.778025e+003;3.333363e-002
3.779954e+003;3.335560e-002
3.781883e+003;3.341332e-002
3.783811e+003;3.347494e-002
3.785740e+003;3.346692e-002
3.787668e+003;3.322767e-002
3.789597e+003;3.317417e-002
3.791525e+003;3.355408e-002
3.793454e+003;3.374942e-002
3.795382e+003;3.378520e-002
3.797311e+003;3.364279e-002
3.799240e+003;3.359897e-002
3.801168e+003;3.352058e-002
3.803097e+003;3.378860e-002
3.805025e+003;3.403425e-002
3.806954e+003;3.367526e-002
3.808882e+003;3.365621e-002
3.810811e+003;3.365865e-002
3.812739e+003;3.383226e-002
3.814668e+003;3.379498e-002
3.816596e+003;3.325872e-002
3.818525e+003;3.309420e-002
3.820454e+003;3.312782e-002
3.822382e+003;3.328881e-002
3.824311e+003;3.356969e-002
3.826239e+003;3.336630e-002
3.828168e+003;3.320976e-002
3.830096e+003;3.373249e-002
3.832025e+003;3.422271e-002
3.833953e+003;3.410550e-002
3.835882e+003;3.349824e-002
3.837811e+003;3.316387e-002
3.839739e+003;3.357620e-002
3.841667e+003;3.400268e-002
3.843596e+003;3.389351e-002
3.845525e+003;3.374545e-002
3.847453e+003;3.404482e-002
3.849382e+003;3.408106e-002
3.851310e+003;3.401082e-002
3.853239e+003;3.404507e-002
3.855167e+003;3.407382e-002
3.857096e+003;3.444261e-002
3.859024e+003;3.458238e-002
3.860953e+003;3.492502e-002
3.862882e+003;3.526133e-002
3.864810e+003;3.525724e-002
3.866739e+003;3.527394e-002
3.868667e+003;3.506581e-002
3.870596e+003;3.473995e-002
3.872524e+003;3.532042e-002
3.874453e+003;3.573358e-002
3.876381e+003;3.555100e-002
3.878310e+003;3.538641e-002
3.880239e+003;3.524232e-002
3.882167e+003;3.534058e-002
3.884096e+003;3.564458e-002
3.886024e+003;3.566181e-002
3.887953e+003;3.557352e-002
3.889881e+003;3.578895e-002
3.891810e+003;3.602177e-002
3.893738e+003;3.586916e-002
3.895667e+003;3.564170e-002
3.897595e+003;3.567627e-002
3.899524e+003;3.601255e-002
3.901453e+003;3.585285e-002
3.903381e+003;3.575351e-002
3.905310e+003;3.610969e-002
3.907238e+003;3.629080e-002
3.909167e+003;3.650583e-002
3.911095e+003;3.659886e-002
3.913024e+003;3.680932e-002
3.914952e+003;3.690335e-002
3.916881e+003;3.662370e-002
3.918810e+003;3.660755e-002
3.920738e+003;3.681130e-002
3.922667e+003;3.692922e-002
3.924595e+003;3.696767e-002
3.926524e+003;3.691893e-002
3.928452e+003;3.710165e-002
3.930381e+003;3.742759e-002
3.932309e+003;3.760437e-002
3.934238e+003;3.788788e-002
3.936167e+003;3.800435e-002
3.938095e+003;3.801118e-002
3.940023e+003;3.782739e-002
3.941952e+003;3.770270e-002
3.943881e+003;3.782815e-002
3.945809e+003;3.811502e-002
3.947738e+003;3.865981e-002
3.949666e+003;3.884895e-002
3.951595e+003;3.815728e-002
3.953523e+003;3.764481e-002
3.955452e+003;3.773652e-002
3.957380e+003;3.807780e-002
3.959309e+003;3.843470e-002
3.961238e+003;3.847756e-002
3.963166e+003;3.867799e-002
3.965095e+003;3.926066e-002
3.967023e+003;3.950239e-002
3.968952e+003;3.946185e-002
3.970880e+003;3.937921e-002
3.972809e+003;3.945787e-002
3.974737e+003;3.920865e-002
3.976666e+003;3.928373e-002
3.978594e+003;3.971074e-002
3.980523e+003;3.980137e-002
3.982452e+003;3.935258e-002
3.984380e+003;3.872896e-002
3.986309e+003;3.882261e-002
3.988237e+003;3.917170e-002
3.990166e+003;3.912620e-002
3.992094e+003;3.906029e-002
3.994023e+003;3.905510e-002
3.995951e+003;3.889265e-002
3.997880e+003;3.869440e-002
3.999809e+003;3.906942e-002
4.001737e+003;0.000000e+000
