3.992094e+002;0.000000e+000
4.011380e+002;0.000000e+000
4.030665e+002;0.000000e+000
4.049951e+002;0.000000e+000
4.069236e+002;0.000000e+000
4.088522e+002;0.000000e+000
4.107807e+002;0.000000e+000
4.127093e+002;0.000000e+000
4.146378e+002;0.000000e+000
4.165664e+002;0.000000e+000
4.184949e+002;0.000000e+000
4.204235e+002;0.000000e+000
4.223520e+002;0.000000e+000
4.242806e+002;0.000000e+000
4.262091e+002;0.000000e+000
4.281377e+002;0.000000e+000
4.300662e+002;0.000000e+000
4.319948e+002;0.000000e+000
4.339233e+002;0.000000e+000
4.358519e+002;0.000000e+000
4.377804e+002;0.000000e+000
4.397090e+002;0.000000e+000
4.416375e+002;0.000000e+000
4.435660e+002;0.000000e+000
4.454946e+002;0.000000e+000
4.474232e+002;0.000000e+000
4.493517e+002;0.000000e+000
4.512802e+002;0.000000e+000
4.532088e+002;0.000000e+000
4.551373e+002;0.000000e+000
4.570659e+002;0.000000e+000
4.589944e+002;0.000000e+000
4.609230e+002;0.000000e+000
4.628515e+002;0.000000e+000
4.647801e+002;0.000000e+000
4.667086e+002;0.000000e+000
4.686372e+002;0.000000e+000
4.705657e+002;0.000000e+000
4.724943e+002;0.000000e+000
4.744228e+002;0.000000e+000
4.763513e+002;0.000000e+000
4.782799e+002;0.000000e+000
4.802085e+002;0.000000e+000
4.821370e+002;0.000000e+000
4.840656e+002;0.000000e+000
4.859941e+002;0.000000e+000
4.879226e+002;0.000000e+000
4.898512e+002;0.000000e+000
4.917798e+002;0.000000e+000
4.937083e+002;0.000000e+000
4.956368e+002;0.000000e+000
4.975654e+002;0.000000e+000
4.994939e+002;0.000000e+000
5.014225e+002;0.000000e+000
5.033510e+002;0.000000e+000
5.052796e+002;0.000000e+000
5.072081e+002;0.000000e+000
5.091367e+002;0.000000e+000
5.110652e+002;0.000000e+000
5.129938e+002;0.000000e+000
5.149223e+002;0.000000e+000
5.168509e+002;0.000000e+000
5.187794e+002;0.000000e+000
5.207079e+002;0.000000e+000
5.226365e+002;0.000000e+000
5.245651e+002;0.000000e+000
5.264936e+002;0.000000e+000
5.284222e+002;0.000000e+000
5.303507e+002;0.000000e+000
5.322792e+002;0.000000e+000
5.342078e+002;0.000000e+000
5.361364e+002;0.000000e+000
5.380649e+002;0.000000e+000
5.399935e+002;0.000000e+000
5.419220e+002;0.000000e+000
5.438505e+002;0.000000e+000
5.457791e+002;0.000000e+000
5.477076e+002;0.000000e+000
5.496362e+002;0.000000e+000
5.515648e+002;0.000000e+000
5.534933e+002;0.000000e+000
5.554218e+002;0.000000e+000
5.573504e+002;0.000000e+000
5.592789e+002;0.000000e+000
5.612075e+002;0.000000e+000
5.631360e+002;0.000000e+000
5.650646e+002;0.000000e+000
5.669931e+002;0.000000e+000
5.689217e+002;0.000000e+000
5.708502e+002;0.000000e+000
5.727787e+002;0.000000e+000
5.747073e+002;0.000000e+000
5.766359e+002;0.000000e+000
5.785644e+002;0.000000e+000
5.804930e+002;0.000000e+000
5.824215e+002;0.000000e+000
5.843500e+002;0.000000e+000
5.862786e+002;0.000000e+000
5.882072e+002;0.000000e+000
5.901357e+002;0.000000e+000
5.920643e+002;0.000000e+000
5.939928e+002;0.000000e+000
5.959213e+002;0.000000e+000
5.978499e+002;0.000000e+000
5.997784e+002;1.941962e-001
6.017070e+002;2.021996e-001
6.036355e+002;2.039589e-001
6.055641e+002;2.101938e-001
6.074926e+002;2.167213e-001
6.094211e+002;2.119761e-001
6.113497e+002;2.083617e-001
6.132783e+002;2.072342e-001
6.152068e+002;2.060881e-001
6.171354e+002;2.068503e-001
6.190639e+002;2.072162e-001
6.209924e+002;2.051215e-001
6.229210e+002;2.043896e-001
6.248495e+002;2.083689e-001
6.267781e+002;2.102238e-001
6.287067e+002;2.069515e-001
6.306352e+002;2.043918e-001
6.325637e+002;2.023553e-001
6.344923e+002;2.000501e-001
6.364208e+002;1.990210e-001
6.383494e+002;2.005860e-001
6.402780e+002;1.990935e-001
6.422065e+002;1.972890e-001
6.441350e+002;1.990135e-001
6.460636e+002;2.002344e-001
6.479921e+002;1.966305e-001
6.499207e+002;1.949533e-001
6.518492e+002;1.956339e-001
6.537778e+002;1.924964e-001
6.557063e+002;1.903617e-001
6.576349e+002;1.897506e-001
6.595634e+002;1.905464e-001
6.614919e+002;1.923200e-001
6.634205e+002;1.933703e-001
6.653491e+002;1.928691e-001
6.672776e+002;1.913757e-001
6.692062e+002;1.900421e-001
6.711347e+002;1.913411e-001
6.730632e+002;1.919459e-001
6.749918e+002;1.927079e-001
6.769203e+002;1.934827e-001
6.788489e+002;1.934577e-001
6.807775e+002;1.917857e-001
6.827060e+002;1.917308e-001
6.846345e+002;1.921839e-001
6.865631e+002;1.912030e-001
6.884916e+002;1.911757e-001
6.904202e+002;1.902468e-001
6.923488e+002;1.890853e-001
6.942773e+002;1.894825e-001
6.962058e+002;1.891690e-001
6.981344e+002;1.881024e-001
7.000629e+002;1.868446e-001
7.019915e+002;1.850135e-001
7.039200e+002;1.824901e-001
7.058486e+002;1.801505e-001
7.077771e+002;1.781956e-001
7.097057e+002;1.763830e-001
7.116342e+002;1.745512e-001
7.135627e+002;1.733331e-001
7.154913e+002;1.715247e-001
7.174199e+002;1.692196e-001
7.193484e+002;1.672474e-001
7.212770e+002;1.652707e-001
7.232055e+002;1.636396e-001
7.251340e+002;1.616150e-001
7.270626e+002;1.583590e-001
7.289911e+002;1.559783e-001
7.309197e+002;1.540204e-001
7.328483e+002;1.514957e-001
7.347768e+002;1.492936e-001
7.367053e+002;1.475591e-001
7.386339e+002;1.449468e-001
7.405624e+002;1.420646e-001
7.424910e+002;1.393105e-001
7.444196e+002;1.368109e-001
7.463481e+002;1.345727e-001
7.482766e+002;1.320592e-001
7.502052e+002;1.307281e-001
7.521337e+002;1.300695e-001
7.540623e+002;1.286226e-001
7.559908e+002;1.267939e-001
7.579194e+002;1.258395e-001
7.598479e+002;1.253336e-001
7.617765e+002;1.243814e-001
7.637050e+002;1.235738e-001
7.656335e+002;1.230720e-001
7.675621e+002;1.217144e-001
7.694907e+002;1.198365e-001
7.714192e+002;1.182550e-001
7.733478e+002;1.170363e-001
7.752763e+002;1.154552e-001
7.772048e+002;1.137619e-001
7.791334e+002;1.127697e-001
7.810620e+002;1.113500e-001
7.829905e+002;1.100239e-001
7.849191e+002;1.086311e-001
7.868476e+002;1.072608e-001
7.887761e+002;1.065671e-001
7.907047e+002;1.058030e-001
7.926332e+002;1.042454e-001
7.945618e+002;1.027513e-001
7.964903e+002;1.022637e-001
7.984189e+002;1.021592e-001
8.003474e+002;1.016955e-001
8.022759e+002;1.008025e-001
8.042045e+002;1.004196e-001
8.061331e+002;1.002438e-001
8.080616e+002;1.000651e-001
8.099902e+002;1.005565e-001
8.119187e+002;1.004185e-001
8.138472e+002;9.943841e-002
8.157758e+002;9.902946e-002
8.177043e+002;9.936817e-002
8.196329e+002;9.890386e-002
8.215615e+002;9.919772e-002
8.234900e+002;1.000560e-001
8.254185e+002;1.007258e-001
8.273471e+002;1.012786e-001
8.292756e+002;1.010545e-001
8.312042e+002;9.982972e-002
8.331328e+002;9.867854e-002
8.350613e+002;9.754860e-002
8.369898e+002;9.635942e-002
8.389184e+002;9.549382e-002
8.408469e+002;9.487472e-002
8.427755e+002;9.470207e-002
8.447040e+002;9.540205e-002
8.466326e+002;9.618374e-002
8.485611e+002;9.607935e-002
8.504897e+002;9.600863e-002
8.524182e+002;9.622972e-002
8.543467e+002;9.555355e-002
8.562753e+002;9.380303e-002
8.582039e+002;9.209149e-002
8.601324e+002;9.133527e-002
8.620610e+002;9.083998e-002
8.639895e+002;9.051116e-002
8.659180e+002;9.080865e-002
8.678466e+002;9.264645e-002
8.697751e+002;9.542401e-002
8.717037e+002;9.746694e-002
8.736323e+002;9.747125e-002
8.755608e+002;9.615513e-002
8.774893e+002;9.414333e-002
8.794179e+002;9.247615e-002
8.813464e+002;9.126630e-002
8.832750e+002;9.004448e-002
8.852036e+002;8.852426e-002
8.871321e+002;8.748180e-002
8.890606e+002;8.697776e-002
8.909892e+002;8.641754e-002
8.929177e+002;8.613701e-002
8.948463e+002;8.616922e-002
8.967748e+002;8.644807e-002
8.987034e+002;8.633338e-002
9.006319e+002;8.558345e-002
9.025605e+002;8.507951e-002
9.044890e+002;8.526112e-002
9.064175e+002;8.549662e-002
9.083461e+002;8.560722e-002
9.102747e+002;8.587710e-002
9.122032e+002;8.645720e-002
9.141318e+002;8.659372e-002
9.160603e+002;8.696311e-002
9.179888e+002;8.794764e-002
9.199174e+002;8.888817e-002
9.218459e+002;8.970477e-002
9.237745e+002;9.053724e-002
9.257031e+002;9.143583e-002
9.276316e+002;9.227343e-002
9.295601e+002;9.235486e-002
9.314887e+002;9.228515e-002
9.334172e+002;9.237433e-002
9.353458e+002;9.241667e-002
9.372744e+002;9.226163e-002
9.392029e+002;9.225892e-002
9.411314e+002;9.272180e-002
9.430600e+002;9.307623e-002
9.449885e+002;9.315749e-002
9.469171e+002;9.350356e-002
9.488456e+002;9.426179e-002
9.507742e+002;9.468802e-002
9.527027e+002;9.558877e-002
9.546313e+002;9.678362e-002
9.565598e+002;9.762008e-002
9.584883e+002;9.853555e-002
9.604169e+002;9.969306e-002
9.623455e+002;1.008089e-001
9.642740e+002;1.020173e-001
9.662026e+002;1.032715e-001
9.681311e+002;1.048876e-001
9.700596e+002;1.067586e-001
9.719882e+002;1.083195e-001
9.739167e+002;1.090769e-001
9.758453e+002;1.092394e-001
9.777739e+002;1.090361e-001
9.797024e+002;1.083033e-001
9.816309e+002;1.074397e-001
9.835595e+002;1.067963e-001
9.854880e+002;1.070399e-001
9.874166e+002;1.084000e-001
9.893452e+002;1.100152e-001
9.912737e+002;1.116584e-001
9.932022e+002;1.134473e-001
9.951307e+002;1.146549e-001
9.970593e+002;1.152267e-001
9.989879e+002;1.154784e-001
1.000916e+003;1.156033e-001
1.002845e+003;1.152508e-001
1.004773e+003;1.144127e-001
1.006702e+003;1.139284e-001
1.008631e+003;1.141725e-001
1.010559e+003;1.144335e-001
1.012488e+003;1.143588e-001
1.014416e+003;1.140504e-001
1.016345e+003;1.134506e-001
1.018273e+003;1.131336e-001
1.020202e+003;1.125782e-001
1.022130e+003;1.119675e-001
1.024059e+003;1.123460e-001
1.025988e+003;1.134414e-001
1.027916e+003;1.145490e-001
1.029845e+003;1.161993e-001
1.031773e+003;1.182201e-001
1.033702e+003;1.201329e-001
1.035630e+003;1.219471e-001
1.037559e+003;1.231358e-001
1.039487e+003;1.239890e-001
1.041416e+003;1.249481e-001
1.043344e+003;1.261647e-001
1.045273e+003;1.269594e-001
1.047202e+003;1.274440e-001
1.049130e+003;1.278572e-001
1.051059e+003;1.280658e-001
1.052987e+003;1.286446e-001
1.054916e+003;1.297722e-001
1.056844e+003;1.308133e-001
1.058773e+003;1.317725e-001
1.060701e+003;1.326634e-001
1.062630e+003;1.331333e-001
1.064558e+003;1.337034e-001
1.066487e+003;1.339540e-001
1.068416e+003;1.333848e-001
1.070344e+003;1.328350e-001
1.072273e+003;1.320674e-001
1.074201e+003;1.305717e-001
1.076130e+003;1.284716e-001
1.078058e+003;1.259118e-001
1.079987e+003;1.229511e-001
1.081915e+003;1.203816e-001
1.083844e+003;1.182788e-001
1.085773e+003;1.163370e-001
1.087701e+003;1.139548e-001
1.089630e+003;1.116266e-001
1.091558e+003;1.101659e-001
1.093487e+003;1.091397e-001
1.095415e+003;1.086536e-001
1.097344e+003;1.084211e-001
1.099272e+003;1.086142e-001
1.101201e+003;1.088825e-001
1.103129e+003;1.088251e-001
1.105058e+003;1.081907e-001
1.106987e+003;1.073804e-001
1.108915e+003;1.068645e-001
1.110844e+003;1.066233e-001
1.112772e+003;1.066709e-001
1.114701e+003;1.067991e-001
1.116629e+003;1.068582e-001
1.118558e+003;1.071008e-001
1.120486e+003;1.077109e-001
1.122415e+003;1.077905e-001
1.124344e+003;1.075926e-001
1.126272e+003;1.084191e-001
1.128201e+003;1.095551e-001
1.130129e+003;1.102087e-001
1.132058e+003;1.108726e-001
1.133986e+003;1.118484e-001
1.135915e+003;1.132228e-001
1.137843e+003;1.151104e-001
1.139772e+003;1.165600e-001
1.141700e+003;1.182123e-001
1.143629e+003;1.203504e-001
1.145557e+003;1.219237e-001
1.147486e+003;1.238414e-001
1.149415e+003;1.257882e-001
1.151343e+003;1.271488e-001
1.153272e+003;1.287282e-001
1.155200e+003;1.304108e-001
1.157129e+003;1.319817e-001
1.159057e+003;1.336645e-001
1.160986e+003;1.349296e-001
1.162914e+003;1.354105e-001
1.164843e+003;1.357368e-001
1.166771e+003;1.363261e-001
1.168700e+003;1.372154e-001
1.170629e+003;1.373104e-001
1.172557e+003;1.364616e-001
1.174486e+003;1.353251e-001
1.176414e+003;1.344574e-001
1.178343e+003;1.338793e-001
1.180271e+003;1.334330e-001
1.182200e+003;1.327318e-001
1.184128e+003;1.323640e-001
1.186057e+003;1.326443e-001
1.187986e+003;1.333502e-001
1.189914e+003;1.345196e-001
1.191843e+003;1.361056e-001
1.193771e+003;1.381887e-001
1.195700e+003;1.405704e-001
1.197628e+003;1.428460e-001
1.199557e+003;1.454315e-001
1.201485e+003;1.485652e-001
1.203414e+003;1.520303e-001
1.205343e+003;1.557720e-001
1.207271e+003;1.595372e-001
1.209200e+003;1.629733e-001
1.211128e+003;1.663834e-001
1.213057e+003;1.699816e-001
1.214985e+003;1.731765e-001
1.216914e+003;1.756619e-001
1.218842e+003;1.777751e-001
1.220771e+003;1.800609e-001
1.222699e+003;1.820952e-001
1.224628e+003;1.835948e-001
1.226557e+003;1.848280e-001
1.228485e+003;1.854941e-001
1.230414e+003;1.850892e-001
1.232342e+003;1.838455e-001
1.234271e+003;1.826533e-001
1.236199e+003;1.815297e-001
1.238128e+003;1.798489e-001
1.240056e+003;1.781154e-001
1.241985e+003;1.765951e-001
1.243913e+003;1.749335e-001
1.245842e+003;1.735344e-001
1.247771e+003;1.727662e-001
1.249699e+003;1.718167e-001
1.251628e+003;1.707362e-001
1.253556e+003;1.701594e-001
1.255485e+003;1.700322e-001
1.257413e+003;1.696014e-001
1.259342e+003;1.687309e-001
1.261270e+003;1.676316e-001
1.263199e+003;1.662740e-001
1.265127e+003;1.645318e-001
1.267056e+003;1.622885e-001
1.268985e+003;1.601426e-001
1.270913e+003;1.583399e-001
1.272842e+003;1.563737e-001
1.274770e+003;1.540446e-001
1.276699e+003;1.518976e-001
1.278627e+003;1.499048e-001
1.280556e+003;1.482743e-001
1.282484e+003;1.471311e-001
1.284413e+003;1.462403e-001
1.286342e+003;1.456483e-001
1.288270e+003;1.451329e-001
1.290199e+003;1.447764e-001
1.292127e+003;1.448309e-001
1.294056e+003;1.446559e-001
1.295984e+003;1.444695e-001
1.297913e+003;1.444429e-001
1.299841e+003;1.444359e-001
1.301770e+003;1.446464e-001
1.303698e+003;1.447547e-001
1.305627e+003;1.446609e-001
1.307556e+003;1.445263e-001
1.309484e+003;1.441820e-001
1.311413e+003;1.440298e-001
1.313341e+003;1.440986e-001
1.315270e+003;1.440784e-001
1.317198e+003;1.443564e-001
1.319127e+003;1.447498e-001
1.321055e+003;1.450827e-001
1.322984e+003;1.455941e-001
1.324912e+003;1.461743e-001
1.326841e+003;1.468607e-001
1.328770e+003;1.476692e-001
1.330698e+003;1.483746e-001
1.332627e+003;1.488224e-001
1.334555e+003;1.490374e-001
1.336484e+003;1.487831e-001
1.338412e+003;1.485851e-001
1.340341e+003;1.486007e-001
1.342269e+003;1.486424e-001
1.344198e+003;1.485182e-001
1.346126e+003;1.485687e-001
1.348055e+003;1.487193e-001
1.349984e+003;1.488038e-001
1.351912e+003;1.492215e-001
1.353841e+003;1.499883e-001
1.355769e+003;1.510522e-001
1.357698e+003;1.525430e-001
1.359626e+003;1.545296e-001
1.361555e+003;1.568106e-001
1.363483e+003;1.592742e-001
1.365412e+003;1.616628e-001
1.367341e+003;1.634915e-001
1.369269e+003;1.645823e-001
1.371198e+003;1.647736e-001
1.373126e+003;1.646796e-001
1.375055e+003;1.648456e-001
1.376983e+003;1.652413e-001
1.378912e+003;1.657011e-001
1.380840e+003;1.664685e-001
1.382769e+003;1.671003e-001
1.384698e+003;1.674502e-001
1.386626e+003;1.679949e-001
1.388555e+003;1.689248e-001
1.390483e+003;1.698636e-001
1.392412e+003;1.705187e-001
1.394340e+003;1.709879e-001
1.396269e+003;1.715887e-001
1.398197e+003;1.723075e-001
1.400126e+003;1.732419e-001
1.402054e+003;1.743687e-001
1.403983e+003;1.754087e-001
1.405911e+003;1.763825e-001
1.407840e+003;1.769085e-001
1.409769e+003;1.770302e-001
1.411697e+003;1.772339e-001
1.413626e+003;1.773886e-001
1.415554e+003;1.774489e-001
1.417483e+003;1.773140e-001
1.419411e+003;1.775898e-001
1.421340e+003;1.781486e-001
1.423268e+003;1.788276e-001
1.425197e+003;1.805241e-001
1.427125e+003;1.828098e-001
1.429054e+003;1.854986e-001
1.430983e+003;1.890595e-001
1.432911e+003;1.930216e-001
1.434840e+003;1.964720e-001
1.436768e+003;1.993642e-001
1.438697e+003;2.016402e-001
1.440625e+003;2.030633e-001
1.442554e+003;2.038137e-001
1.444482e+003;2.035524e-001
1.446411e+003;2.021503e-001
1.448340e+003;1.998731e-001
1.450268e+003;1.969128e-001
1.452197e+003;1.934882e-001
1.454125e+003;1.897348e-001
1.456054e+003;1.856627e-001
1.457982e+003;1.823826e-001
1.459911e+003;1.803475e-001
1.461839e+003;1.789388e-001
1.463768e+003;1.782253e-001
1.465697e+003;1.781354e-001
1.467625e+003;1.783582e-001
1.469554e+003;1.787562e-001
1.471482e+003;1.794283e-001
1.473411e+003;1.805946e-001
1.475339e+003;1.826817e-001
1.477268e+003;1.852759e-001
1.479196e+003;1.884828e-001
1.481125e+003;1.925206e-001
1.483053e+003;1.968628e-001
1.484982e+003;2.013587e-001
1.486911e+003;2.063351e-001
1.488839e+003;2.117230e-001
1.490768e+003;2.173498e-001
1.492696e+003;2.230156e-001
1.494625e+003;2.285615e-001
1.496553e+003;2.340004e-001
1.498482e+003;2.396371e-001
1.500410e+003;2.445718e-001
1.502339e+003;2.486464e-001
1.504267e+003;2.522983e-001
1.506196e+003;2.555204e-001
1.508125e+003;2.588657e-001
1.510053e+003;2.620134e-001
1.511982e+003;2.639432e-001
1.513910e+003;2.641963e-001
1.515839e+003;2.620903e-001
1.517767e+003;2.580712e-001
1.519696e+003;2.529472e-001
1.521624e+003;2.478418e-001
1.523553e+003;2.440096e-001
1.525481e+003;2.406670e-001
1.527410e+003;2.373998e-001
1.529339e+003;2.339386e-001
1.531267e+003;2.302590e-001
1.533196e+003;2.267719e-001
1.535124e+003;2.230352e-001
1.537053e+003;2.188465e-001
1.538981e+003;2.147539e-001
1.540910e+003;2.114367e-001
1.542838e+003;2.083938e-001
1.544767e+003;2.050085e-001
1.546695e+003;2.014475e-001
1.548624e+003;1.982010e-001
1.550553e+003;1.949177e-001
1.552481e+003;1.911667e-001
1.554410e+003;1.873684e-001
1.556338e+003;1.839181e-001
1.558267e+003;1.801596e-001
1.560195e+003;1.765534e-001
1.562124e+003;1.734809e-001
1.564052e+003;1.698339e-001
1.565981e+003;1.662674e-001
1.567910e+003;1.632768e-001
1.569838e+003;1.607531e-001
1.571767e+003;1.583866e-001
1.573695e+003;1.561681e-001
1.575624e+003;1.546344e-001
1.577552e+003;1.542034e-001
1.579481e+003;1.543924e-001
1.581409e+003;1.548733e-001
1.583338e+003;1.560087e-001
1.585266e+003;1.576685e-001
1.587195e+003;1.600070e-001
1.589124e+003;1.630490e-001
1.591052e+003;1.663493e-001
1.592981e+003;1.699923e-001
1.594909e+003;1.743845e-001
1.596838e+003;1.792716e-001
1.598766e+003;1.844336e-001
1.600695e+003;1.903975e-001
1.602623e+003;1.976154e-001
1.604552e+003;2.056574e-001
1.606480e+003;2.144255e-001
1.608409e+003;2.234032e-001
1.610338e+003;2.323226e-001
1.612266e+003;2.408146e-001
1.614195e+003;2.487579e-001
1.616123e+003;2.556670e-001
1.618052e+003;2.612825e-001
1.619980e+003;2.653985e-001
1.621909e+003;2.672567e-001
1.623837e+003;2.675537e-001
1.625766e+003;2.662063e-001
1.627694e+003;2.630470e-001
1.629623e+003;2.589901e-001
1.631552e+003;2.540659e-001
1.633480e+003;2.483821e-001
1.635409e+003;2.427194e-001
1.637337e+003;2.376799e-001
1.639266e+003;2.326903e-001
1.641194e+003;2.279059e-001
1.643123e+003;2.232617e-001
1.645051e+003;2.184524e-001
1.646980e+003;2.139548e-001
1.648909e+003;2.098720e-001
1.650837e+003;2.053661e-001
1.652766e+003;2.003864e-001
1.654694e+003;1.962692e-001
1.656623e+003;1.919988e-001
1.658551e+003;1.870959e-001
1.660480e+003;1.824940e-001
1.662408e+003;1.777377e-001
1.664337e+003;1.736104e-001
1.666266e+003;1.700698e-001
1.668194e+003;1.657983e-001
1.670123e+003;1.615340e-001
1.672051e+003;1.578264e-001
1.673980e+003;1.540941e-001
1.675908e+003;1.505760e-001
1.677837e+003;1.472621e-001
1.679765e+003;1.438294e-001
1.681694e+003;1.404616e-001
1.683622e+003;1.371060e-001
1.685551e+003;1.342345e-001
1.687479e+003;1.321978e-001
1.689408e+003;1.302240e-001
1.691337e+003;1.285670e-001
1.693265e+003;1.269969e-001
1.695194e+003;1.253977e-001
1.697122e+003;1.239630e-001
1.699051e+003;1.215821e-001
1.700979e+003;1.173283e-001
1.702908e+003;1.114641e-001
1.704836e+003;1.041287e-001
1.706765e+003;9.677725e-002
1.708693e+003;9.032134e-002
1.710622e+003;8.512699e-002
1.712551e+003;8.121047e-002
1.714479e+003;7.805412e-002
1.716408e+003;7.510316e-002
1.718336e+003;7.289648e-002
1.720265e+003;7.155561e-002
1.722193e+003;7.031717e-002
1.724122e+003;6.920072e-002
1.726050e+003;6.830664e-002
1.727979e+003;6.741884e-002
1.729908e+003;6.674907e-002
1.731836e+003;6.609061e-002
1.733765e+003;6.544114e-002
1.735693e+003;6.526532e-002
1.737622e+003;6.500556e-002
1.739550e+003;6.435332e-002
1.741479e+003;6.399403e-002
1.743407e+003;6.376126e-002
1.745336e+003;6.341201e-002
1.747265e+003;6.283303e-002
1.749193e+003;6.237037e-002
1.751122e+003;6.204249e-002
1.753050e+003;6.192463e-002
1.754979e+003;6.183480e-002
1.756907e+003;6.167457e-002
1.758836e+003;6.166792e-002
1.760764e+003;6.148152e-002
1.762693e+003;6.119509e-002
1.764621e+003;6.113157e-002
1.766550e+003;6.098574e-002
1.768479e+003;6.071861e-002
1.770407e+003;6.059753e-002
1.772336e+003;6.059875e-002
1.774264e+003;6.050257e-002
1.776193e+003;6.034717e-002
1.778121e+003;6.009306e-002
1.780050e+003;5.996184e-002
1.781978e+003;5.985698e-002
1.783907e+003;5.969382e-002
1.785835e+003;5.970321e-002
1.787764e+003;5.960533e-002
1.789693e+003;5.947232e-002
1.791621e+003;5.916724e-002
1.793550e+003;5.895124e-002
1.795478e+003;5.895898e-002
1.797407e+003;5.895777e-002
1.799335e+003;5.898445e-002
1.801264e+003;5.878934e-002
1.803192e+003;5.856211e-002
1.805121e+003;5.840642e-002
1.807049e+003;5.838784e-002
1.808978e+003;5.812848e-002
1.810907e+003;5.772495e-002
1.812835e+003;5.761283e-002
1.814764e+003;5.738381e-002
1.816692e+003;5.704731e-002
1.818621e+003;5.697277e-002
1.820549e+003;5.689132e-002
1.822478e+003;5.682606e-002
1.824406e+003;5.682610e-002
1.826335e+003;5.670813e-002
1.828264e+003;5.632806e-002
1.830192e+003;5.613609e-002
1.832121e+003;5.600105e-002
1.834049e+003;5.571991e-002
1.835978e+003;5.562996e-002
1.837906e+003;5.558432e-002
1.839835e+003;5.546296e-002
1.841763e+003;5.523552e-002
1.843692e+003;5.492772e-002
1.845620e+003;5.486410e-002
1.847549e+003;5.481854e-002
1.849478e+003;5.463133e-002
1.851406e+003;5.465779e-002
1.853335e+003;5.468537e-002
1.855263e+003;5.446926e-002
1.857192e+003;5.438156e-002
1.859120e+003;5.418869e-002
1.861049e+003;5.421369e-002
1.862977e+003;5.435362e-002
1.864906e+003;5.415468e-002
1.866834e+003;5.410683e-002
1.868763e+003;5.420138e-002
1.870692e+003;5.420059e-002
1.872620e+003;5.410495e-002
1.874549e+003;5.401212e-002
1.876477e+003;5.396623e-002
1.878406e+003;5.410867e-002
1.880334e+003;5.426085e-002
1.882263e+003;5.412796e-002
1.884191e+003;5.394852e-002
1.886120e+003;5.392079e-002
1.888048e+003;5.388790e-002
1.889977e+003;5.376672e-002
1.891906e+003;5.385579e-002
1.893834e+003;5.395475e-002
1.895763e+003;5.376821e-002
1.897691e+003;5.359106e-002
1.899620e+003;5.345966e-002
1.901548e+003;5.325693e-002
1.903477e+003;5.316861e-002
1.905405e+003;5.306107e-002
1.907334e+003;5.317966e-002
1.909262e+003;5.334039e-002
1.911191e+003;5.330237e-002
1.913120e+003;5.309144e-002
1.915048e+003;5.283413e-002
1.916977e+003;5.272888e-002
1.918905e+003;5.285763e-002
1.920834e+003;5.299414e-002
1.922762e+003;5.301210e-002
1.924691e+003;5.326944e-002
1.926619e+003;5.330090e-002
1.928548e+003;5.318333e-002
1.930477e+003;5.312300e-002
1.932405e+003;5.310267e-002
1.934334e+003;5.312825e-002
1.936262e+003;5.310918e-002
1.938191e+003;5.308298e-002
1.940119e+003;5.282833e-002
1.942048e+003;5.264756e-002
1.943976e+003;5.288563e-002
1.945905e+003;5.295547e-002
1.947833e+003;5.309342e-002
1.949762e+003;5.334882e-002
1.951691e+003;5.337594e-002
1.953619e+003;5.337369e-002
1.955548e+003;5.341203e-002
1.957476e+003;5.340356e-002
1.959405e+003;5.322374e-002
1.961333e+003;5.329634e-002
1.963262e+003;5.347532e-002
1.965190e+003;5.347461e-002
1.967119e+003;5.347708e-002
1.969047e+003;5.353532e-002
1.970976e+003;5.355429e-002
1.972905e+003;5.344110e-002
1.974833e+003;5.325708e-002
1.976762e+003;5.308878e-002
1.978690e+003;5.309084e-002
1.980619e+003;5.325517e-002
1.982547e+003;5.339981e-002
1.984476e+003;5.333353e-002
1.986404e+003;5.319992e-002
1.988333e+003;5.331701e-002
1.990261e+003;5.354986e-002
1.992190e+003;5.366322e-002
1.994119e+003;5.345759e-002
1.996047e+003;5.311690e-002
1.997976e+003;5.305722e-002
1.999904e+003;5.321584e-002
2.001833e+003;5.308170e-002
2.003761e+003;5.300997e-002
2.005690e+003;5.311293e-002
2.007618e+003;5.319348e-002
2.009547e+003;5.326172e-002
2.011476e+003;5.335800e-002
2.013404e+003;5.331536e-002
2.015333e+003;5.325097e-002
2.017261e+003;5.337879e-002
2.019190e+003;5.356868e-002
2.021118e+003;5.355968e-002
2.023047e+003;5.345077e-002
2.024975e+003;5.352535e-002
2.026904e+003;5.366844e-002
2.028833e+003;5.371872e-002
2.030761e+003;5.358495e-002
2.032690e+003;5.344759e-002
2.034618e+003;5.361059e-002
2.036547e+003;5.379525e-002
2.038475e+003;5.380819e-002
2.040404e+003;5.364838e-002
2.042332e+003;5.351145e-002
2.044261e+003;5.335425e-002
2.046189e+003;5.331851e-002
2.048118e+003;5.341263e-002
2.050047e+003;5.355451e-002
2.051975e+003;5.355279e-002
2.053904e+003;5.349796e-002
2.055832e+003;5.346535e-002
2.057761e+003;5.364182e-002
2.059689e+003;5.381911e-002
2.061618e+003;5.375262e-002
2.063546e+003;5.375599e-002
2.065475e+003;5.395291e-002
2.067404e+003;5.405121e-002
2.069332e+003;5.386948e-002
2.071260e+003;5.361449e-002
2.073189e+003;5.364081e-002
2.075118e+003;5.367631e-002
2.077046e+003;5.372460e-002
2.078975e+003;5.390879e-002
2.080903e+003;5.420866e-002
2.082832e+003;5.412822e-002
2.084760e+003;5.385624e-002
2.086689e+003;5.394477e-002
2.088617e+003;5.407077e-002
2.090546e+003;5.413652e-002
2.092475e+003;5.423592e-002
2.094403e+003;5.422905e-002
2.096332e+003;5.410927e-002
2.098260e+003;5.402709e-002
2.100189e+003;5.419796e-002
2.102117e+003;5.456134e-002
2.104046e+003;5.472363e-002
2.105974e+003;5.454541e-002
2.107903e+003;5.424049e-002
2.109832e+003;5.422056e-002
2.111760e+003;5.427556e-002
2.113688e+003;5.419597e-002
2.115617e+003;5.406641e-002
2.117546e+003;5.400600e-002
2.119474e+003;5.401455e-002
2.121403e+003;5.402202e-002
2.123331e+003;5.395302e-002
2.125260e+003;5.383610e-002
2.127188e+003;5.388756e-002
2.129117e+003;5.386895e-002
2.131045e+003;5.375160e-002
2.132974e+003;5.379071e-002
2.134903e+003;5.406836e-002
2.136831e+003;5.414421e-002
2.138760e+003;5.396889e-002
2.140688e+003;5.385031e-002
2.142617e+003;5.378595e-002
2.144545e+003;5.382458e-002
2.146474e+003;5.383932e-002
2.148402e+003;5.381637e-002
2.150331e+003;5.376214e-002
2.152260e+003;5.378168e-002
2.154188e+003;5.406326e-002
2.156117e+003;5.423884e-002
2.158045e+003;5.407305e-002
2.159974e+003;5.392128e-002
2.161902e+003;5.378224e-002
2.163831e+003;5.357378e-002
2.165759e+003;5.349410e-002
2.167688e+003;5.349694e-002
2.169616e+003;5.344335e-002
2.171545e+003;5.345950e-002
2.173474e+003;5.362229e-002
2.175402e+003;5.363470e-002
2.177331e+003;5.343578e-002
2.179259e+003;5.350770e-002
2.181188e+003;5.367072e-002
2.183116e+003;5.359691e-002
2.185045e+003;5.359908e-002
2.186973e+003;5.357899e-002
2.188902e+003;5.359061e-002
2.190831e+003;5.373233e-002
2.192759e+003;5.370642e-002
2.194688e+003;5.363646e-002
2.196616e+003;5.375393e-002
2.198545e+003;5.374223e-002
2.200473e+003;5.342143e-002
2.202402e+003;5.335287e-002
2.204330e+003;5.362105e-002
2.206259e+003;5.374309e-002
2.208188e+003;5.361790e-002
2.210116e+003;5.352209e-002
2.212044e+003;5.356377e-002
2.213973e+003;5.369584e-002
2.215902e+003;5.355639e-002
2.217830e+003;5.326097e-002
2.219759e+003;5.319798e-002
2.221687e+003;5.334238e-002
2.223616e+003;5.342458e-002
2.225544e+003;5.335234e-002
2.227473e+003;5.321475e-002
2.229401e+003;5.316607e-002
2.231330e+003;5.294375e-002
2.233259e+003;5.271755e-002
2.235187e+003;5.292788e-002
2.237116e+003;5.310308e-002
2.239044e+003;5.318367e-002
2.240973e+003;5.318801e-002
2.242901e+003;5.305235e-002
2.244830e+003;5.306002e-002
2.246758e+003;5.308357e-002
2.248687e+003;5.292440e-002
2.250615e+003;5.293316e-002
2.252544e+003;5.287796e-002
2.254473e+003;5.275792e-002
2.256401e+003;5.279278e-002
2.258330e+003;5.282234e-002
2.260258e+003;5.282766e-002
2.262187e+003;5.273169e-002
2.264115e+003;5.279450e-002
2.266044e+003;5.292271e-002
2.267972e+003;5.283743e-002
2.269901e+003;5.275814e-002
2.271830e+003;5.263544e-002
2.273758e+003;5.258401e-002
2.275687e+003;5.261659e-002
2.277615e+003;5.268893e-002
2.279544e+003;5.287058e-002
2.281472e+003;5.283365e-002
2.283401e+003;5.275006e-002
2.285329e+003;5.271216e-002
2.287258e+003;5.276959e-002
2.289187e+003;5.316438e-002
2.291115e+003;5.332353e-002
2.293043e+003;5.313573e-002
2.294972e+003;5.310222e-002
2.296901e+003;5.333335e-002
2.298829e+003;5.354746e-002
2.300758e+003;5.321101e-002
2.302686e+003;5.291777e-002
2.304615e+003;5.296696e-002
2.306543e+003;5.307889e-002
2.308472e+003;5.320786e-002
2.310400e+003;5.304801e-002
2.312329e+003;5.268979e-002
2.314258e+003;5.270277e-002
2.316186e+003;5.302592e-002
2.318115e+003;5.302977e-002
2.320043e+003;5.300885e-002
2.321972e+003;5.316918e-002
2.323900e+003;5.313106e-002
2.325829e+003;5.297785e-002
2.327757e+003;5.295333e-002
2.329686e+003;5.307740e-002
2.331615e+003;5.299017e-002
2.333543e+003;5.282197e-002
2.335472e+003;5.286141e-002
2.337400e+003;5.295521e-002
2.339329e+003;5.292489e-002
2.341257e+003;5.292900e-002
2.343186e+003;5.289678e-002
2.345114e+003;5.272821e-002
2.347043e+003;5.276098e-002
2.348971e+003;5.299331e-002
2.350900e+003;5.299477e-002
2.352829e+003;5.281337e-002
2.354757e+003;5.287088e-002
2.356686e+003;5.313858e-002
2.358614e+003;5.317805e-002
2.360543e+003;5.294143e-002
2.362471e+003;5.272469e-002
2.364400e+003;5.279686e-002
2.366328e+003;5.299500e-002
2.368257e+003;5.316292e-002
2.370186e+003;5.329982e-002
2.372114e+003;5.349541e-002
2.374042e+003;5.359964e-002
2.375971e+003;5.353810e-002
2.377900e+003;5.354301e-002
2.379828e+003;5.372389e-002
2.381757e+003;5.386471e-002
2.383685e+003;5.376728e-002
2.385614e+003;5.363590e-002
2.387542e+003;5.366547e-002
2.389471e+003;5.362577e-002
2.391399e+003;5.364189e-002
2.393328e+003;5.394923e-002
2.395257e+003;5.415573e-002
2.397185e+003;5.405317e-002
2.399114e+003;5.399230e-002
2.401042e+003;5.418509e-002
2.402971e+003;5.449856e-002
2.404899e+003;5.462479e-002
2.406828e+003;5.488342e-002
2.408756e+003;5.511685e-002
2.410685e+003;5.499593e-002
2.412614e+003;5.501579e-002
2.414542e+003;5.541191e-002
2.416471e+003;5.566540e-002
2.418399e+003;5.573140e-002
2.420328e+003;5.601820e-002
2.422256e+003;5.615823e-002
2.424185e+003;5.635929e-002
2.426113e+003;5.673056e-002
2.428042e+003;5.675741e-002
2.429970e+003;5.679063e-002
2.431899e+003;5.702166e-002
2.433828e+003;5.718593e-002
2.435756e+003;5.718914e-002
2.437685e+003;5.714915e-002
2.439613e+003;5.731605e-002
2.441542e+003;5.753528e-002
2.443470e+003;5.762312e-002
2.445399e+003;5.758960e-002
2.447327e+003;5.756425e-002
2.449256e+003;5.751337e-002
2.451185e+003;5.736819e-002
2.453113e+003;5.732565e-002
2.455042e+003;5.748853e-002
2.456970e+003;5.744832e-002
2.458899e+003;5.730656e-002
2.460827e+003;5.756637e-002
2.462756e+003;5.768120e-002
2.464684e+003;5.754481e-002
2.466613e+003;5.754787e-002
2.468542e+003;5.744802e-002
2.470470e+003;5.749496e-002
2.472398e+003;5.794340e-002
2.474327e+003;5.819803e-002
2.476256e+003;5.797699e-002
2.478184e+003;5.787514e-002
2.480113e+003;5.822251e-002
2.482041e+003;5.835760e-002
2.483970e+003;5.811291e-002
2.485898e+003;5.801107e-002
2.487827e+003;5.821451e-002
2.489755e+003;5.864451e-002
2.491684e+003;5.861945e-002
2.493613e+003;5.847158e-002
2.495541e+003;5.860781e-002
2.497470e+003;5.862722e-002
2.499398e+003;5.844534e-002
2.501327e+003;5.860250e-002
2.503255e+003;5.899937e-002
2.505184e+003;5.926028e-002
2.507112e+003;5.929958e-002
2.509041e+003;5.920460e-002
2.510969e+003;5.904909e-002
2.512898e+003;5.924535e-002
2.514827e+003;5.938805e-002
2.516755e+003;5.936226e-002
2.518684e+003;5.937837e-002
2.520612e+003;5.929480e-002
2.522541e+003;5.924573e-002
2.524469e+003;5.931915e-002
2.526398e+003;5.962072e-002
2.528326e+003;5.982097e-002
2.530255e+003;5.971846e-002
2.532184e+003;5.961958e-002
2.534112e+003;5.955345e-002
2.536041e+003;5.965311e-002
2.537969e+003;5.979157e-002
2.539898e+003;5.965201e-002
2.541826e+003;5.955090e-002
2.543755e+003;5.975750e-002
2.545683e+003;6.000787e-002
2.547612e+003;6.024088e-002
2.549541e+003;6.040816e-002
2.551469e+003;6.056111e-002
2.553397e+003;6.055254e-002
2.555326e+003;6.051788e-002
2.557255e+003;6.073047e-002
2.559183e+003;6.096611e-002
2.561112e+003;6.100493e-002
2.563040e+003;6.114752e-002
2.564969e+003;6.147930e-002
2.566897e+003;6.147091e-002
2.568826e+003;6.148862e-002
2.570754e+003;6.179190e-002
2.572683e+003;6.201172e-002
2.574612e+003;6.192470e-002
2.576540e+003;6.191920e-002
2.578469e+003;6.217713e-002
2.580397e+003;6.244623e-002
2.582326e+003;6.247393e-002
2.584254e+003;6.237262e-002
2.586183e+003;6.258168e-002
2.588111e+003;6.297332e-002
2.590040e+003;6.327392e-002
2.591969e+003;6.334653e-002
2.593897e+003;6.333054e-002
2.595826e+003;6.350880e-002
2.597754e+003;6.378406e-002
2.599683e+003;6.385817e-002
2.601611e+003;6.396350e-002
2.603540e+003;6.407228e-002
2.605468e+003;6.426979e-002
2.607397e+003;6.451589e-002
2.609325e+003;6.449191e-002
2.611254e+003;6.446915e-002
2.613183e+003;6.431413e-002
2.615111e+003;6.422269e-002
2.617040e+003;6.457336e-002
2.618968e+003;6.463949e-002
2.620897e+003;6.475490e-002
2.622825e+003;6.507064e-002
2.624754e+003;6.489950e-002
2.626682e+003;6.458785e-002
2.628611e+003;6.454688e-002
2.630540e+003;6.458105e-002
2.632468e+003;6.460858e-002
2.634396e+003;6.471594e-002
2.636325e+003;6.458066e-002
2.638254e+003;6.462665e-002
2.640182e+003;6.478602e-002
2.642111e+003;6.472321e-002
2.644039e+003;6.471390e-002
2.645968e+003;6.491085e-002
2.647896e+003;6.483968e-002
2.649825e+003;6.458832e-002
2.651753e+003;6.464914e-002
2.653682e+003;6.486565e-002
2.655611e+003;6.521765e-002
2.657539e+003;6.543551e-002
2.659468e+003;6.520648e-002
2.661396e+003;6.504665e-002
2.663325e+003;6.516487e-002
2.665253e+003;6.546164e-002
2.667182e+003;6.581710e-002
2.669110e+003;6.567993e-002
2.671039e+003;6.552070e-002
2.672968e+003;6.562883e-002
2.674896e+003;6.590836e-002
2.676825e+003;6.620649e-002
2.678753e+003;6.613696e-002
2.680682e+003;6.601288e-002
2.682610e+003;6.616825e-002
2.684539e+003;6.617384e-002
2.686467e+003;6.620695e-002
2.688396e+003;6.633104e-002
2.690324e+003;6.645987e-002
2.692253e+003;6.674983e-002
2.694182e+003;6.697350e-002
2.696110e+003;6.683713e-002
2.698039e+003;6.679547e-002
2.699967e+003;6.705179e-002
2.701896e+003;6.729975e-002
2.703824e+003;6.756178e-002
2.705753e+003;6.776239e-002
2.707681e+003;6.779151e-002
2.709610e+003;6.789393e-002
2.711539e+003;6.817621e-002
2.713467e+003;6.820470e-002
2.715396e+003;6.813485e-002
2.717324e+003;6.844126e-002
2.719253e+003;6.873923e-002
2.721181e+003;6.870701e-002
2.723110e+003;6.861351e-002
2.725038e+003;6.888605e-002
2.726967e+003;6.930503e-002
2.728896e+003;6.953320e-002
2.730824e+003;6.950960e-002
2.732752e+003;6.925490e-002
2.734681e+003;6.924339e-002
2.736610e+003;6.928431e-002
2.738538e+003;6.928459e-002
2.740467e+003;6.952360e-002
2.742395e+003;6.994089e-002
2.744324e+003;7.025239e-002
2.746252e+003;7.033014e-002
2.748181e+003;7.031538e-002
2.750109e+003;7.058096e-002
2.752038e+003;7.103115e-002
2.753967e+003;7.122427e-002
2.755895e+003;7.132922e-002
2.757824e+003;7.138073e-002
2.759752e+003;7.140116e-002
2.761681e+003;7.134999e-002
2.763609e+003;7.136960e-002
2.765538e+003;7.170589e-002
2.767466e+003;7.176995e-002
2.769395e+003;7.181791e-002
2.771323e+003;7.220808e-002
2.773252e+003;7.240098e-002
2.775181e+003;7.245050e-002
2.777109e+003;7.273889e-002
2.779038e+003;7.290769e-002
2.780966e+003;7.275918e-002
2.782895e+003;7.279762e-002
2.784823e+003;7.288108e-002
2.786752e+003;7.301105e-002
2.788680e+003;7.333437e-002
2.790609e+003;7.328542e-002
2.792538e+003;7.324564e-002
2.794466e+003;7.348935e-002
2.796395e+003;7.358673e-002
2.798323e+003;7.397939e-002
2.800252e+003;7.421270e-002
2.802180e+003;7.408654e-002
2.804109e+003;7.421180e-002
2.806037e+003;7.408665e-002
2.807966e+003;7.401188e-002
2.809895e+003;7.442966e-002
2.811823e+003;7.468064e-002
2.813751e+003;7.457984e-002
2.815680e+003;7.463960e-002
2.817609e+003;7.470461e-002
2.819537e+003;7.460348e-002
2.821466e+003;7.458975e-002
2.823394e+003;7.459121e-002
2.825323e+003;7.468627e-002
2.827251e+003;7.500029e-002
2.829180e+003;7.537807e-002
2.831108e+003;7.565062e-002
2.833037e+003;7.581267e-002
2.834966e+003;7.587761e-002
2.836894e+003;7.614990e-002
2.838823e+003;7.658590e-002
2.840751e+003;7.666816e-002
2.842680e+003;7.707196e-002
2.844608e+003;7.775112e-002
2.846537e+003;7.800551e-002
2.848465e+003;7.812698e-002
2.850394e+003;7.856756e-002
2.852323e+003;7.913539e-002
2.854251e+003;7.964398e-002
2.856180e+003;7.983647e-002
2.858108e+003;7.974668e-002
2.860037e+003;7.991979e-002
2.861965e+003;8.021042e-002
2.863894e+003;8.029956e-002
2.865822e+003;8.045732e-002
2.867751e+003;8.124123e-002
2.869679e+003;8.187301e-002
2.871608e+003;8.207335e-002
2.873536e+003;8.243506e-002
2.875465e+003;8.259292e-002
2.877394e+003;8.262867e-002
2.879322e+003;8.252640e-002
2.881251e+003;8.237281e-002
2.883179e+003;8.230220e-002
2.885108e+003;8.209427e-002
2.887036e+003;8.215925e-002
2.888965e+003;8.239788e-002
2.890893e+003;8.243209e-002
2.892822e+003;8.255341e-002
2.894750e+003;8.264257e-002
2.896679e+003;8.271307e-002
2.898608e+003;8.308022e-002
2.900536e+003;8.349557e-002
2.902465e+003;8.384761e-002
2.904393e+003;8.412389e-002
2.906322e+003;8.440980e-002
2.908250e+003;8.485966e-002
2.910179e+003;8.536770e-002
2.912107e+003;8.590298e-002
2.914036e+003;8.645388e-002
2.915965e+003;8.717135e-002
2.917893e+003;8.766701e-002
2.919822e+003;8.795141e-002
2.921750e+003;8.850147e-002
2.923679e+003;8.925662e-002
2.925607e+003;9.001990e-002
2.927536e+003;9.046431e-002
2.929464e+003;9.030837e-002
2.931393e+003;9.037985e-002
2.933322e+003;9.042701e-002
2.935250e+003;9.049255e-002
2.937178e+003;9.029818e-002
2.939107e+003;8.984933e-002
2.941036e+003;8.946031e-002
2.942964e+003;8.893067e-002
2.944893e+003;8.822755e-002
2.946821e+003;8.771401e-002
2.948750e+003;8.746190e-002
2.950678e+003;8.717005e-002
2.952607e+003;8.671047e-002
2.954535e+003;8.656546e-002
2.956464e+003;8.669016e-002
2.958393e+003;8.672790e-002
2.960321e+003;8.638520e-002
2.962250e+003;8.643169e-002
2.964178e+003;8.692166e-002
2.966107e+003;8.726183e-002
2.968035e+003;8.706444e-002
2.969964e+003;8.697578e-002
2.971892e+003;8.734634e-002
2.973821e+003;8.751913e-002
2.975750e+003;8.754016e-002
2.977678e+003;8.751990e-002
2.979607e+003;8.715761e-002
2.981535e+003;8.645223e-002
2.983464e+003;8.614081e-002
2.985392e+003;8.622571e-002
2.987321e+003;8.605695e-002
2.989249e+003;8.563922e-002
2.991178e+003;8.512396e-002
2.993106e+003;8.477628e-002
2.995035e+003;8.446933e-002
2.996964e+003;8.425631e-002
2.998892e+003;8.410379e-002
3.000821e+003;8.398642e-002
3.002749e+003;8.387374e-002
3.004678e+003;8.359067e-002
3.006606e+003;8.361474e-002
3.008535e+003;8.369717e-002
3.010463e+003;8.350895e-002
3.012392e+003;8.322571e-002
3.014321e+003;8.318309e-002
3.016249e+003;8.348188e-002
3.018177e+003;8.369604e-002
3.020106e+003;8.385754e-002
3.022035e+003;8.426736e-002
3.023963e+003;8.455498e-002
3.025892e+003;8.462785e-002
3.027820e+003;8.494455e-002
3.029749e+003;8.535144e-002
3.031677e+003;8.553930e-002
3.033606e+003;8.563276e-002
3.035534e+003;8.607621e-002
3.037463e+003;8.687738e-002
3.039392e+003;8.734666e-002
3.041320e+003;8.728071e-002
3.043249e+003;8.734208e-002
3.045177e+003;8.768096e-002
3.047106e+003;8.827310e-002
3.049034e+003;8.891432e-002
3.050963e+003;8.945045e-002
3.052891e+003;8.981001e-002
3.054820e+003;8.997286e-002
3.056749e+003;9.011710e-002
3.058677e+003;9.033060e-002
3.060606e+003;9.063892e-002
3.062534e+003;9.078897e-002
3.064463e+003;9.128977e-002
3.066391e+003;9.161116e-002
3.068320e+003;9.137363e-002
3.070248e+003;9.134313e-002
3.072177e+003;9.168244e-002
3.074105e+003;9.187437e-002
3.076034e+003;9.180392e-002
3.077963e+003;9.160944e-002
3.079891e+003;9.138410e-002
3.081820e+003;9.107583e-002
3.083748e+003;9.097237e-002
3.085677e+003;9.092037e-002
3.087605e+003;9.089741e-002
3.089534e+003;9.078272e-002
3.091462e+003;9.040412e-002
3.093391e+003;8.991474e-002
3.095320e+003;8.992745e-002
3.097248e+003;9.012815e-002
3.099177e+003;8.978140e-002
3.101105e+003;8.962318e-002
3.103034e+003;8.971166e-002
3.104962e+003;8.943543e-002
3.106891e+003;8.864754e-002
3.108819e+003;8.796111e-002
3.110748e+003;8.815115e-002
3.112677e+003;8.859702e-002
3.114605e+003;8.868720e-002
3.116533e+003;8.834294e-002
3.118462e+003;8.806438e-002
3.120391e+003;8.784423e-002
3.122319e+003;8.761646e-002
3.124248e+003;8.765566e-002
3.126176e+003;8.784091e-002
3.128105e+003;8.806292e-002
3.130033e+003;8.802838e-002
3.131962e+003;8.808085e-002
3.133890e+003;8.793587e-002
3.135819e+003;8.807115e-002
3.137748e+003;8.836650e-002
3.139676e+003;8.846138e-002
3.141605e+003;8.878170e-002
3.143533e+003;8.918875e-002
3.145462e+003;8.948839e-002
3.147390e+003;8.968265e-002
3.149319e+003;8.978409e-002
3.151247e+003;8.999536e-002
3.153176e+003;9.068481e-002
3.155104e+003;9.141219e-002
3.157033e+003;9.145121e-002
3.158962e+003;9.142029e-002
3.160890e+003;9.175013e-002
3.162819e+003;9.242007e-002
3.164747e+003;9.286030e-002
3.166676e+003;9.293470e-002
3.168604e+003;9.307446e-002
3.170533e+003;9.382952e-002
3.172461e+003;9.458584e-002
3.174390e+003;9.519549e-002
3.176319e+003;9.583784e-002
3.178247e+003;9.638197e-002
3.180176e+003;9.653940e-002
3.182104e+003;9.694725e-002
3.184033e+003;9.762153e-002
3.185961e+003;9.816221e-002
3.187890e+003;9.906118e-002
3.189818e+003;9.968034e-002
3.191747e+003;1.001681e-001
3.193676e+003;1.010145e-001
3.195604e+003;1.017268e-001
3.197532e+003;1.022106e-001
3.199461e+003;1.028214e-001
3.201390e+003;1.037075e-001
3.203318e+003;1.045627e-001
3.205247e+003;1.053128e-001
3.207175e+003;1.058233e-001
3.209104e+003;1.062381e-001
3.211032e+003;1.070550e-001
3.212961e+003;1.077282e-001
3.214889e+003;1.080444e-001
3.216818e+003;1.086405e-001
3.218747e+003;1.092563e-001
3.220675e+003;1.102241e-001
3.222604e+003;1.112060e-001
3.224532e+003;1.119339e-001
3.226461e+003;1.127071e-001
3.228389e+003;1.137234e-001
3.230318e+003;1.146611e-001
3.232246e+003;1.156496e-001
3.234175e+003;1.163634e-001
3.236104e+003;1.170928e-001
3.238032e+003;1.185562e-001
3.239961e+003;1.200100e-001
3.241889e+003;1.210102e-001
3.243818e+003;1.220843e-001
3.245746e+003;1.232623e-001
3.247675e+003;1.240635e-001
3.249603e+003;1.249287e-001
3.251532e+003;1.258517e-001
3.253460e+003;1.268260e-001
3.255389e+003;1.283028e-001
3.257318e+003;1.299687e-001
3.259246e+003;1.311654e-001
3.261175e+003;1.325930e-001
3.263103e+003;1.340897e-001
3.265032e+003;1.353772e-001
3.266960e+003;1.365108e-001
3.268889e+003;1.376345e-001
3.270817e+003;1.386819e-001
3.272746e+003;1.397621e-001
3.274675e+003;1.405923e-001
3.276603e+003;1.409962e-001
3.278531e+003;1.414718e-001
3.280460e+003;1.417019e-001
3.282389e+003;1.414405e-001
3.284317e+003;1.411374e-001
3.286246e+003;1.408400e-001
3.288174e+003;1.403917e-001
3.290103e+003;1.396337e-001
3.292031e+003;1.387413e-001
3.293960e+003;1.373686e-001
3.295888e+003;1.359840e-001
3.297817e+003;1.348885e-001
3.299746e+003;1.331282e-001
3.301674e+003;1.309623e-001
3.303603e+003;1.295907e-001
3.305531e+003;1.283931e-001
3.307460e+003;1.268469e-001
3.309388e+003;1.255462e-001
3.311317e+003;1.243161e-001
3.313245e+003;1.227347e-001
3.315174e+003;1.213299e-001
3.317103e+003;1.199520e-001
3.319031e+003;1.185568e-001
3.320960e+003;1.172577e-001
3.322888e+003;1.156574e-001
3.324817e+003;1.138639e-001
3.326745e+003;1.121598e-001
3.328674e+003;1.110037e-001
3.330602e+003;1.101024e-001
3.332531e+003;1.090042e-001
3.334459e+003;1.076905e-001
3.336388e+003;1.063626e-001
3.338317e+003;1.052618e-001
3.340245e+003;1.042873e-001
3.342174e+003;1.032445e-001
3.344102e+003;1.022930e-001
3.346031e+003;1.013740e-001
3.347959e+003;1.005731e-001
3.349888e+003;9.992105e-002
3.351816e+003;9.926701e-002
3.353745e+003;9.836134e-002
3.355674e+003;9.728911e-002
3.357602e+003;9.645722e-002
3.359531e+003;9.583139e-002
3.361459e+003;9.540907e-002
3.363388e+003;9.478932e-002
3.365316e+003;9.413847e-002
3.367245e+003;9.352288e-002
3.369173e+003;9.313744e-002
3.371102e+003;9.293146e-002
3.373031e+003;9.252007e-002
3.374959e+003;9.199037e-002
3.376887e+003;9.136242e-002
3.378816e+003;9.060667e-002
3.380745e+003;9.008235e-002
3.382673e+003;8.977126e-002
3.384602e+003;8.965064e-002
3.386530e+003;8.922305e-002
3.388459e+003;8.842409e-002
3.390387e+003;8.786484e-002
3.392316e+003;8.782582e-002
3.394244e+003;8.762538e-002
3.396173e+003;8.730615e-002
3.398102e+003;8.656319e-002
3.400030e+003;8.618441e-002
3.401959e+003;8.600019e-002
3.403887e+003;8.526301e-002
3.405816e+003;8.481773e-002
3.407744e+003;8.436839e-002
3.409673e+003;8.368681e-002
3.411601e+003;8.330655e-002
3.413530e+003;8.309546e-002
3.415458e+003;8.298338e-002
3.417387e+003;8.239736e-002
3.419316e+003;8.183057e-002
3.421244e+003;8.140833e-002
3.423173e+003;8.105255e-002
3.425101e+003;8.072363e-002
3.427030e+003;8.027400e-002
3.428958e+003;8.001685e-002
3.430887e+003;7.974712e-002
3.432815e+003;7.932690e-002
3.434744e+003;7.906101e-002
3.436673e+003;7.852587e-002
3.438601e+003;7.802759e-002
3.440530e+003;7.764830e-002
3.442458e+003;7.709344e-002
3.444387e+003;7.682457e-002
3.446315e+003;7.691008e-002
3.448244e+003;7.704442e-002
3.450172e+003;7.694813e-002
3.452101e+003;7.663231e-002
3.454030e+003;7.601137e-002
3.455958e+003;7.567843e-002
3.457886e+003;7.549862e-002
3.459815e+003;7.540448e-002
3.461744e+003;7.531375e-002
3.463672e+003;7.506811e-002
3.465601e+003;7.526296e-002
3.467529e+003;7.511187e-002
3.469458e+003;7.460959e-002
3.471386e+003;7.428157e-002
3.473315e+003;7.416415e-002
3.475243e+003;7.423695e-002
3.477172e+003;7.408756e-002
3.479101e+003;7.383829e-002
3.481029e+003;7.378123e-002
3.482958e+003;7.373069e-002
3.484886e+003;7.334838e-002
3.486815e+003;7.308330e-002
3.488743e+003;7.331950e-002
3.490672e+003;7.332135e-002
3.492600e+003;7.295006e-002
3.494529e+003;7.247692e-002
3.496458e+003;7.221805e-002
3.498386e+003;7.239186e-002
3.500315e+003;7.231365e-002
3.502243e+003;7.198307e-002
3.504172e+003;7.151892e-002
3.506100e+003;7.088816e-002
3.508029e+003;7.073551e-002
3.509957e+003;7.076307e-002
3.511886e+003;7.103224e-002
3.513814e+003;7.121420e-002
3.515743e+003;7.090127e-002
3.517672e+003;7.079412e-002
3.519600e+003;7.064645e-002
3.521529e+003;7.027712e-002
3.523457e+003;6.998663e-002
3.525386e+003;6.959951e-002
3.527314e+003;6.927775e-002
3.529243e+003;6.901864e-002
3.531171e+003;6.868609e-002
3.533100e+003;6.894834e-002
3.535029e+003;6.871562e-002
3.536957e+003;6.823285e-002
3.538885e+003;6.842726e-002
3.540814e+003;6.836233e-002
3.542743e+003;6.785388e-002
3.544671e+003;6.770577e-002
3.546600e+003;6.751258e-002
3.548528e+003;6.743061e-002
3.550457e+003;6.727201e-002
3.552385e+003;6.674234e-002
3.554314e+003;6.635991e-002
3.556242e+003;6.607156e-002
3.558171e+003;6.594365e-002
3.560100e+003;6.592772e-002
3.562028e+003;6.591280e-002
3.563957e+003;6.590354e-002
3.565885e+003;6.518836e-002
3.567814e+003;6.460116e-002
3.569742e+003;6.499863e-002
3.571671e+003;6.518754e-002
3.573599e+003;6.475759e-002
3.575528e+003;6.465507e-002
3.577457e+003;6.456099e-002
3.579385e+003;6.437922e-002
3.581314e+003;6.414440e-002
3.583242e+003;6.385721e-002
3.585171e+003;6.340311e-002
3.587099e+003;6.279586e-002
3.589028e+003;6.225690e-002
3.590956e+003;6.195531e-002
3.592885e+003;6.204727e-002
3.594813e+003;6.206393e-002
3.596742e+003;6.158796e-002
3.598671e+003;6.148579e-002
3.600599e+003;6.173888e-002
3.602528e+003;6.161545e-002
3.604456e+003;6.125502e-002
3.606385e+003;6.069263e-002
3.608313e+003;6.029577e-002
3.610242e+003;6.019482e-002
3.612170e+003;6.039267e-002
3.614099e+003;6.030293e-002
3.616028e+003;5.966535e-002
3.617956e+003;5.906667e-002
3.619885e+003;5.887102e-002
3.621813e+003;5.882754e-002
3.623742e+003;5.861160e-002
3.625670e+003;5.815640e-002
3.627599e+003;5.769581e-002
3.629527e+003;5.754292e-002
3.631456e+003;5.768215e-002
3.633385e+003;5.710875e-002
3.635313e+003;5.687765e-002
3.637241e+003;5.695834e-002
3.639170e+003;5.619379e-002
3.641099e+003;5.579857e-002
3.643027e+003;5.569855e-002
3.644956e+003;5.504460e-002
3.646884e+003;5.458068e-002
3.648813e+003;5.396893e-002
3.650741e+003;5.321876e-002
3.652670e+003;5.304441e-002
3.654598e+003;5.278059e-002
3.656527e+003;5.190516e-002
3.658456e+003;5.170681e-002
3.660384e+003;5.179599e-002
3.662313e+003;5.155709e-002
3.664241e+003;5.099329e-002
3.666170e+003;4.999600e-002
3.668098e+003;4.937852e-002
3.670027e+003;4.893772e-002
3.671955e+003;4.862267e-002
3.673884e+003;4.835515e-002
3.675813e+003;4.750980e-002
3.677741e+003;4.719073e-002
3.679669e+003;4.691371e-002
3.681598e+003;4.600316e-002
3.683527e+003;4.533391e-002
3.685455e+003;4.501555e-002
3.687384e+003;4.447294e-002
3.689312e+003;4.439106e-002
3.691241e+003;4.455789e-002
3.693169e+003;4.443962e-002
3.695098e+003;4.396430e-002
3.697026e+003;4.381375e-002
3.698955e+003;4.397596e-002
3.700884e+003;4.349200e-002
3.702812e+003;4.287814e-002
3.704741e+003;4.256654e-002
3.706669e+003;4.249174e-002
3.708598e+003;4.221139e-002
3.710526e+003;4.195034e-002
3.712455e+003;4.192527e-002
3.714383e+003;4.226273e-002
3.716312e+003;4.239042e-002
3.718240e+003;4.241260e-002
3.720169e+003;4.267038e-002
3.722098e+003;4.232588e-002
3.724026e+003;4.169722e-002
3.725955e+003;4.115964e-002
3.727883e+003;4.105795e-002
3.729812e+003;4.128541e-002
3.731740e+003;4.132451e-002
3.733669e+003;4.120321e-002
3.735597e+003;4.082300e-002
3.737526e+003;4.059320e-002
3.739455e+003;4.065541e-002
3.741383e+003;4.092376e-002
3.743312e+003;4.063139e-002
3.745240e+003;3.996234e-002
3.747169e+003;3.997964e-002
3.749097e+003;4.028792e-002
3.751026e+003;4.061426e-002
3.752954e+003;4.070814e-002
3.754883e+003;4.038377e-002
3.756812e+003;3.980079e-002
3.758740e+003;4.019570e-002
3.760668e+003;4.065945e-002
3.762597e+003;4.055223e-002
3.764526e+003;4.042515e-002
3.766454e+003;4.058574e-002
3.768383e+003;4.099815e-002
3.770311e+003;4.112653e-002
3.772240e+003;4.095220e-002
3.774168e+003;4.065403e-002
3.776097e+003;4.035279e-002
3.778025e+003;4.014765e-002
3.779954e+003;3.994371e-002
3.781883e+003;3.988603e-002
3.783811e+003;3.980344e-002
3.785740e+003;3.974861e-002
3.787668e+003;3.992173e-002
3.789597e+003;4.027927e-002
3.791525e+003;4.041046e-002
3.793454e+003;4.042970e-002
3.795382e+003;4.025302e-002
3.797311e+003;4.011833e-002
3.799240e+003;4.027662e-002
3.801168e+003;4.042657e-002
3.803097e+003;4.015754e-002
3.805025e+003;3.968202e-002
3.806954e+003;3.951734e-002
3.808882e+003;3.958637e-002
3.810811e+003;3.952921e-002
3.812739e+003;3.955432e-002
3.814668e+003;3.973063e-002
3.816596e+003;3.987960e-002
3.818525e+003;4.000594e-002
3.820454e+003;3.983376e-002
3.822382e+003;3.973978e-002
3.824311e+003;4.017986e-002
3.826239e+003;4.053848e-002
3.828168e+003;4.030101e-002
3.830096e+003;4.001807e-002
3.832025e+003;4.008675e-002
3.833953e+003;4.038319e-002
3.835882e+003;4.047661e-002
3.837811e+003;4.027447e-002
3.839739e+003;4.019985e-002
3.841667e+003;4.058079e-002
3.843596e+003;4.075093e-002
3.845525e+003;4.089693e-002
3.847453e+003;4.159590e-002
3.849382e+003;4.161782e-002
3.851310e+003;4.111218e-002
3.853239e+003;4.084109e-002
3.855167e+003;4.105638e-002
3.857096e+003;4.134743e-002
3.859024e+003;4.137623e-002
3.860953e+003;4.144056e-002
3.862882e+003;4.159244e-002
3.864810e+003;4.171056e-002
3.866739e+003;4.180249e-002
3.868667e+003;4.137108e-002
3.870596e+003;4.117677e-002
3.872524e+003;4.170907e-002
3.874453e+003;4.198804e-002
3.876381e+003;4.201161e-002
3.878310e+003;4.167978e-002
3.880239e+003;4.160801e-002
3.882167e+003;4.197045e-002
3.884096e+003;4.199209e-002
3.886024e+003;4.211711e-002
3.887953e+003;4.226255e-002
3.889881e+003;4.187232e-002
3.891810e+003;4.156892e-002
3.893738e+003;4.167807e-002
3.895667e+003;4.227792e-002
3.897595e+003;4.267623e-002
3.899524e+003;4.284164e-002
3.901453e+003;4.304805e-002
3.903381e+003;4.333612e-002
3.905310e+003;4.359467e-002
3.907238e+003;4.346977e-002
3.909167e+003;4.305178e-002
3.911095e+003;4.239054e-002
3.913024e+003;4.241750e-002
3.914952e+003;4.301165e-002
3.916881e+003;4.365266e-002
3.918810e+003;4.401530e-002
3.920738e+003;4.368853e-002
3.922667e+003;4.361885e-002
3.924595e+003;4.363855e-002
3.926524e+003;4.350526e-002
3.928452e+003;4.386330e-002
3.930381e+003;4.460705e-002
3.932309e+003;4.464759e-002
3.934238e+003;4.443194e-002
3.936167e+003;4.451108e-002
3.938095e+003;4.438361e-002
3.940023e+003;4.443407e-002
3.941952e+003;4.457456e-002
3.943881e+003;4.464154e-002
3.945809e+003;4.496969e-002
3.947738e+003;4.513811e-002
3.949666e+003;4.501056e-002
3.951595e+003;4.454269e-002
3.953523e+003;4.478451e-002
3.955452e+003;4.505433e-002
3.957380e+003;4.499773e-002
3.959309e+003;4.515921e-002
3.961238e+003;4.490035e-002
3.963166e+003;4.469383e-002
3.965095e+003;4.471943e-002
3.967023e+003;4.497204e-002
3.968952e+003;4.551892e-002
3.970880e+003;4.569704e-002
3.972809e+003;4.523903e-002
3.974737e+003;4.516108e-002
3.976666e+003;4.566587e-002
3.978594e+003;4.594072e-002
3.980523e+003;4.628453e-002
3.982452e+003;4.621461e-002
3.984380e+003;4.565044e-002
3.986309e+003;4.533469e-002
3.988237e+003;4.521498e-002
3.990166e+003;4.515424e-002
3.992094e+003;4.523969e-002
3.994023e+003;4.562243e-002
3.995951e+003;4.578311e-002
3.997880e+003;4.569789e-002
3.999809e+003;4.600585e-002
4.001737e+003;0.000000e+000
