3.992094e+002;0.000000e+000
4.011380e+002;0.000000e+000
4.030665e+002;0.000000e+000
4.049951e+002;0.000000e+000
4.069236e+002;0.000000e+000
4.088522e+002;0.000000e+000
4.107807e+002;0.000000e+000
4.127093e+002;0.000000e+000
4.146378e+002;0.000000e+000
4.165664e+002;0.000000e+000
4.184949e+002;0.000000e+000
4.204235e+002;0.000000e+000
4.223520e+002;0.000000e+000
4.242806e+002;0.000000e+000
4.262091e+002;0.000000e+000
4.281377e+002;0.000000e+000
4.300662e+002;0.000000e+000
4.319948e+002;0.000000e+000
4.339233e+002;0.000000e+000
4.358519e+002;0.000000e+000
4.377804e+002;0.000000e+000
4.397090e+002;0.000000e+000
4.416375e+002;0.000000e+000
4.435660e+002;0.000000e+000
4.454946e+002;0.000000e+000
4.474232e+002;0.000000e+000
4.493517e+002;0.000000e+000
4.512802e+002;0.000000e+000
4.532088e+002;0.000000e+000
4.551373e+002;0.000000e+000
4.570659e+002;0.000000e+000
4.589944e+002;0.000000e+000
4.609230e+002;0.000000e+000
4.628515e+002;0.000000e+000
4.647801e+002;0.000000e+000
4.667086e+002;0.000000e+000
4.686372e+002;0.000000e+000
4.705657e+002;0.000000e+000
4.724943e+002;0.000000e+000
4.744228e+002;0.000000e+000
4.763513e+002;0.000000e+000
4.782799e+002;0.000000e+000
4.802085e+002;0.000000e+000
4.821370e+002;0.000000e+000
4.840656e+002;0.000000e+000
4.859941e+002;0.000000e+000
4.879226e+002;0.000000e+000
4.898512e+002;0.000000e+000
4.917798e+002;0.000000e+000
4.937083e+002;0.000000e+000
4.956368e+002;0.000000e+000
4.975654e+002;0.000000e+000
4.994939e+002;0.000000e+000
5.014225e+002;0.000000e+000
5.033510e+002;0.000000e+000
5.052796e+002;0.000000e+000
5.072081e+002;0.000000e+000
5.091367e+002;0.000000e+000
5.110652e+002;0.000000e+000
5.129938e+002;0.000000e+000
5.149223e+002;0.000000e+000
5.168509e+002;0.000000e+000
5.187794e+002;0.000000e+000
5.207079e+002;0.000000e+000
5.226365e+002;0.000000e+000
5.245651e+002;0.000000e+000
5.264936e+002;0.000000e+000
5.284222e+002;0.000000e+000
5.303507e+002;0.000000e+000
5.322792e+002;0.000000e+000
5.342078e+002;0.000000e+000
5.361364e+002;0.000000e+000
5.380649e+002;0.000000e+000
5.399935e+002;0.000000e+000
5.419220e+002;0.000000e+000
5.438505e+002;0.000000e+000
5.457791e+002;0.000000e+000
5.477076e+002;0.000000e+000
5.496362e+002;0.000000e+000
5.515648e+002;0.000000e+000
5.534933e+002;0.000000e+000
5.554218e+002;0.000000e+000
5.573504e+002;0.000000e+000
5.592789e+002;0.000000e+000
5.612075e+002;0.000000e+000
5.631360e+002;0.000000e+000
5.650646e+002;0.000000e+000
5.669931e+002;0.000000e+000
5.689217e+002;0.000000e+000
5.708502e+002;0.000000e+000
5.727787e+002;0.000000e+000
5.747073e+002;0.000000e+000
5.766359e+002;0.000000e+000
5.785644e+002;0.000000e+000
5.804930e+002;0.000000e+000
5.824215e+002;0.000000e+000
5.843500e+002;0.000000e+000
5.862786e+002;0.000000e+000
5.882072e+002;0.000000e+000
5.901357e+002;0.000000e+000
5.920643e+002;0.000000e+000
5.939928e+002;0.000000e+000
5.959213e+002;0.000000e+000
5.978499e+002;0.000000e+000
5.997784e+002;2.784861e-001
6.017070e+002;2.863256e-001
6.036355e+002;2.905489e-001
6.055641e+002;2.887123e-001
6.074926e+002;2.952385e-001
6.094211e+002;2.997458e-001
6.113497e+002;2.997456e-001
6.132783e+002;3.016480e-001
6.152068e+002;2.978108e-001
6.171354e+002;2.913909e-001
6.190639e+002;2.876939e-001
6.209924e+002;2.879089e-001
6.229210e+002;2.891407e-001
6.248495e+002;2.895316e-001
6.267781e+002;2.870621e-001
6.287067e+002;2.871833e-001
6.306352e+002;2.870304e-001
6.325637e+002;2.835852e-001
6.344923e+002;2.782854e-001
6.364208e+002;2.764502e-001
6.383494e+002;2.762203e-001
6.402780e+002;2.756410e-001
6.422065e+002;2.751550e-001
6.441350e+002;2.736005e-001
6.460636e+002;2.736720e-001
6.479921e+002;2.739314e-001
6.499207e+002;2.725510e-001
6.518492e+002;2.689433e-001
6.537778e+002;2.665374e-001
6.557063e+002;2.641674e-001
6.576349e+002;2.637413e-001
6.595634e+002;2.674955e-001
6.614919e+002;2.703331e-001
6.634205e+002;2.683918e-001
6.653491e+002;2.648327e-001
6.672776e+002;2.639309e-001
6.692062e+002;2.656525e-001
6.711347e+002;2.667886e-001
6.730632e+002;2.680180e-001
6.749918e+002;2.671068e-001
6.769203e+002;2.637744e-001
6.788489e+002;2.628154e-001
6.807775e+002;2.621033e-001
6.827060e+002;2.599804e-001
6.846345e+002;2.588891e-001
6.865631e+002;2.597774e-001
6.884916e+002;2.584337e-001
6.904202e+002;2.561186e-001
6.923488e+002;2.544655e-001
6.942773e+002;2.535837e-001
6.962058e+002;2.531362e-001
6.981344e+002;2.510366e-001
7.000629e+002;2.476940e-001
7.019915e+002;2.455431e-001
7.039200e+002;2.434452e-001
7.058486e+002;2.393794e-001
7.077771e+002;2.351761e-001
7.097057e+002;2.327136e-001
7.116342e+002;2.308515e-001
7.135627e+002;2.287204e-001
7.154913e+002;2.258408e-001
7.174199e+002;2.234500e-001
7.193484e+002;2.209357e-001
7.212770e+002;2.178047e-001
7.232055e+002;2.154836e-001
7.251340e+002;2.132472e-001
7.270626e+002;2.095086e-001
7.289911e+002;2.048745e-001
7.309197e+002;2.018014e-001
7.328483e+002;1.984683e-001
7.347768e+002;1.945099e-001
7.367053e+002;1.915872e-001
7.386339e+002;1.887965e-001
7.405624e+002;1.856223e-001
7.424910e+002;1.828810e-001
7.444196e+002;1.801864e-001
7.463481e+002;1.775098e-001
7.482766e+002;1.753340e-001
7.502052e+002;1.730831e-001
7.521337e+002;1.704113e-001
7.540623e+002;1.670852e-001
7.559908e+002;1.649820e-001
7.579194e+002;1.639546e-001
7.598479e+002;1.623628e-001
7.617765e+002;1.605823e-001
7.637050e+002;1.598157e-001
7.656335e+002;1.585495e-001
7.675621e+002;1.565403e-001
7.694907e+002;1.550947e-001
7.714192e+002;1.530406e-001
7.733478e+002;1.512897e-001
7.752763e+002;1.498700e-001
7.772048e+002;1.486150e-001
7.791334e+002;1.474557e-001
7.810620e+002;1.462737e-001
7.829905e+002;1.452469e-001
7.849191e+002;1.436246e-001
7.868476e+002;1.413738e-001
7.887761e+002;1.394780e-001
7.907047e+002;1.381815e-001
7.926332e+002;1.361764e-001
7.945618e+002;1.346050e-001
7.964903e+002;1.343751e-001
7.984189e+002;1.340595e-001
8.003474e+002;1.333665e-001
8.022759e+002;1.329255e-001
8.042045e+002;1.329409e-001
8.061331e+002;1.330489e-001
8.080616e+002;1.330934e-001
8.099902e+002;1.327159e-001
8.119187e+002;1.327091e-001
8.138472e+002;1.330312e-001
8.157758e+002;1.328025e-001
8.177043e+002;1.331719e-001
8.196329e+002;1.332514e-001
8.215615e+002;1.324917e-001
8.234900e+002;1.323664e-001
8.254185e+002;1.328108e-001
8.273471e+002;1.333580e-001
8.292756e+002;1.334425e-001
8.312042e+002;1.327329e-001
8.331328e+002;1.312210e-001
8.350613e+002;1.292565e-001
8.369898e+002;1.273823e-001
8.389184e+002;1.265665e-001
8.408469e+002;1.253052e-001
8.427755e+002;1.247282e-001
8.447040e+002;1.252225e-001
8.466326e+002;1.255458e-001
8.485611e+002;1.258902e-001
8.504897e+002;1.262384e-001
8.524182e+002;1.265024e-001
8.543467e+002;1.259596e-001
8.562753e+002;1.243175e-001
8.582039e+002;1.221554e-001
8.601324e+002;1.198893e-001
8.620610e+002;1.185666e-001
8.639895e+002;1.177950e-001
8.659180e+002;1.164306e-001
8.678466e+002;1.159343e-001
8.697751e+002;1.164831e-001
8.717037e+002;1.169288e-001
8.736323e+002;1.172266e-001
8.755608e+002;1.177482e-001
8.774893e+002;1.181715e-001
8.794179e+002;1.179581e-001
8.813464e+002;1.177868e-001
8.832750e+002;1.177832e-001
8.852036e+002;1.176814e-001
8.871321e+002;1.180243e-001
8.890606e+002;1.181895e-001
8.909892e+002;1.182900e-001
8.929177e+002;1.187551e-001
8.948463e+002;1.187573e-001
8.967748e+002;1.183464e-001
8.987034e+002;1.181717e-001
9.006319e+002;1.181363e-001
9.025605e+002;1.185336e-001
9.044890e+002;1.193877e-001
9.064175e+002;1.198242e-001
9.083461e+002;1.197086e-001
9.102747e+002;1.201832e-001
9.122032e+002;1.211008e-001
9.141318e+002;1.219328e-001
9.160603e+002;1.234355e-001
9.179888e+002;1.249055e-001
9.199174e+002;1.259692e-001
9.218459e+002;1.275883e-001
9.237745e+002;1.290132e-001
9.257031e+002;1.300339e-001
9.276316e+002;1.311117e-001
9.295601e+002;1.318144e-001
9.314887e+002;1.325274e-001
9.334172e+002;1.331464e-001
9.353458e+002;1.330683e-001
9.372744e+002;1.331411e-001
9.392029e+002;1.337043e-001
9.411314e+002;1.340266e-001
9.430600e+002;1.347249e-001
9.449885e+002;1.356612e-001
9.469171e+002;1.365070e-001
9.488456e+002;1.378498e-001
9.507742e+002;1.395683e-001
9.527027e+002;1.411372e-001
9.546313e+002;1.425748e-001
9.565598e+002;1.439017e-001
9.584883e+002;1.452878e-001
9.604169e+002;1.469863e-001
9.623455e+002;1.488870e-001
9.642740e+002;1.508921e-001
9.662026e+002;1.529454e-001
9.681311e+002;1.553023e-001
9.700596e+002;1.578606e-001
9.719882e+002;1.599944e-001
9.739167e+002;1.617334e-001
9.758453e+002;1.631841e-001
9.777739e+002;1.638580e-001
9.797024e+002;1.639731e-001
9.816309e+002;1.637963e-001
9.835595e+002;1.643776e-001
9.854880e+002;1.661067e-001
9.874166e+002;1.682131e-001
9.893452e+002;1.709710e-001
9.912737e+002;1.741179e-001
9.932022e+002;1.772940e-001
9.951307e+002;1.798594e-001
9.970593e+002;1.817604e-001
9.989879e+002;1.832148e-001
1.000916e+003;1.842194e-001
1.002845e+003;1.848346e-001
1.004773e+003;1.860909e-001
1.006702e+003;1.876486e-001
1.008631e+003;1.892624e-001
1.010559e+003;1.907116e-001
1.012488e+003;1.914780e-001
1.014416e+003;1.922283e-001
1.016345e+003;1.928375e-001
1.018273e+003;1.931776e-001
1.020202e+003;1.937797e-001
1.022130e+003;1.947961e-001
1.024059e+003;1.962515e-001
1.025988e+003;1.985310e-001
1.027916e+003;2.009917e-001
1.029845e+003;2.034548e-001
1.031773e+003;2.060484e-001
1.033702e+003;2.085086e-001
1.035630e+003;2.106618e-001
1.037559e+003;2.121963e-001
1.039487e+003;2.132743e-001
1.041416e+003;2.138404e-001
1.043344e+003;2.140505e-001
1.045273e+003;2.146619e-001
1.047202e+003;2.153298e-001
1.049130e+003;2.152823e-001
1.051059e+003;2.151694e-001
1.052987e+003;2.162957e-001
1.054916e+003;2.176914e-001
1.056844e+003;2.184045e-001
1.058773e+003;2.187566e-001
1.060701e+003;2.191960e-001
1.062630e+003;2.198507e-001
1.064558e+003;2.194530e-001
1.066487e+003;2.181537e-001
1.068416e+003;2.166805e-001
1.070344e+003;2.144476e-001
1.072273e+003;2.123685e-001
1.074201e+003;2.106868e-001
1.076130e+003;2.079357e-001
1.078058e+003;2.041123e-001
1.079987e+003;2.006090e-001
1.081915e+003;1.974389e-001
1.083844e+003;1.947365e-001
1.085773e+003;1.916323e-001
1.087701e+003;1.885567e-001
1.089630e+003;1.858027e-001
1.091558e+003;1.834714e-001
1.093487e+003;1.815332e-001
1.095415e+003;1.805339e-001
1.097344e+003;1.810017e-001
1.099272e+003;1.813533e-001
1.101201e+003;1.807931e-001
1.103129e+003;1.804046e-001
1.105058e+003;1.796748e-001
1.106987e+003;1.786771e-001
1.108915e+003;1.774788e-001
1.110844e+003;1.753394e-001
1.112772e+003;1.739982e-001
1.114701e+003;1.732500e-001
1.116629e+003;1.718680e-001
1.118558e+003;1.708301e-001
1.120486e+003;1.708062e-001
1.122415e+003;1.710184e-001
1.124344e+003;1.706953e-001
1.126272e+003;1.700282e-001
1.128201e+003;1.698257e-001
1.130129e+003;1.703354e-001
1.132058e+003;1.709804e-001
1.133986e+003;1.715831e-001
1.135915e+003;1.722482e-001
1.137843e+003;1.732735e-001
1.139772e+003;1.744825e-001
1.141700e+003;1.758272e-001
1.143629e+003;1.774075e-001
1.145557e+003;1.792219e-001
1.147486e+003;1.811574e-001
1.149415e+003;1.830157e-001
1.151343e+003;1.844431e-001
1.153272e+003;1.861235e-001
1.155200e+003;1.882737e-001
1.157129e+003;1.895972e-001
1.159057e+003;1.908571e-001
1.160986e+003;1.920565e-001
1.162914e+003;1.926857e-001
1.164843e+003;1.928440e-001
1.166771e+003;1.928761e-001
1.168700e+003;1.935051e-001
1.170629e+003;1.938452e-001
1.172557e+003;1.930249e-001
1.174486e+003;1.915495e-001
1.176414e+003;1.893871e-001
1.178343e+003;1.868673e-001
1.180271e+003;1.849560e-001
1.182200e+003;1.838343e-001
1.184128e+003;1.832150e-001
1.186057e+003;1.834775e-001
1.187986e+003;1.846178e-001
1.189914e+003;1.863297e-001
1.191843e+003;1.883970e-001
1.193771e+003;1.906966e-001
1.195700e+003;1.934962e-001
1.197628e+003;1.969341e-001
1.199557e+003;2.008515e-001
1.201485e+003;2.051759e-001
1.203414e+003;2.094962e-001
1.205343e+003;2.135340e-001
1.207271e+003;2.178565e-001
1.209200e+003;2.224284e-001
1.211128e+003;2.268517e-001
1.213057e+003;2.306911e-001
1.214985e+003;2.343449e-001
1.216914e+003;2.379455e-001
1.218842e+003;2.411766e-001
1.220771e+003;2.436499e-001
1.222699e+003;2.457054e-001
1.224628e+003;2.475571e-001
1.226557e+003;2.486870e-001
1.228485e+003;2.487705e-001
1.230414e+003;2.483920e-001
1.232342e+003;2.469984e-001
1.234271e+003;2.446272e-001
1.236199e+003;2.423407e-001
1.238128e+003;2.398915e-001
1.240056e+003;2.373055e-001
1.241985e+003;2.345892e-001
1.243913e+003;2.314524e-001
1.245842e+003;2.285609e-001
1.247771e+003;2.265425e-001
1.249699e+003;2.248225e-001
1.251628e+003;2.231672e-001
1.253556e+003;2.214091e-001
1.255485e+003;2.194195e-001
1.257413e+003;2.174106e-001
1.259342e+003;2.153881e-001
1.261270e+003;2.129442e-001
1.263199e+003;2.105466e-001
1.265127e+003;2.080041e-001
1.267056e+003;2.046212e-001
1.268985e+003;2.008753e-001
1.270913e+003;1.978105e-001
1.272842e+003;1.950462e-001
1.274770e+003;1.917586e-001
1.276699e+003;1.885888e-001
1.278627e+003;1.863200e-001
1.280556e+003;1.845387e-001
1.282484e+003;1.829404e-001
1.284413e+003;1.815660e-001
1.286342e+003;1.804313e-001
1.288270e+003;1.795462e-001
1.290199e+003;1.791280e-001
1.292127e+003;1.786453e-001
1.294056e+003;1.781625e-001
1.295984e+003;1.779670e-001
1.297913e+003;1.779486e-001
1.299841e+003;1.780055e-001
1.301770e+003;1.779371e-001
1.303698e+003;1.777583e-001
1.305627e+003;1.773827e-001
1.307556e+003;1.771168e-001
1.309484e+003;1.769971e-001
1.311413e+003;1.767375e-001
1.313341e+003;1.762937e-001
1.315270e+003;1.759690e-001
1.317198e+003;1.759732e-001
1.319127e+003;1.761786e-001
1.321055e+003;1.770112e-001
1.322984e+003;1.778775e-001
1.324912e+003;1.783223e-001
1.326841e+003;1.789317e-001
1.328770e+003;1.797377e-001
1.330698e+003;1.803162e-001
1.332627e+003;1.804336e-001
1.334555e+003;1.807191e-001
1.336484e+003;1.809378e-001
1.338412e+003;1.809110e-001
1.340341e+003;1.811604e-001
1.342269e+003;1.812367e-001
1.344198e+003;1.809468e-001
1.346126e+003;1.809439e-001
1.348055e+003;1.809432e-001
1.349984e+003;1.809072e-001
1.351912e+003;1.816130e-001
1.353841e+003;1.828936e-001
1.355769e+003;1.843158e-001
1.357698e+003;1.863504e-001
1.359626e+003;1.891820e-001
1.361555e+003;1.923693e-001
1.363483e+003;1.958898e-001
1.365412e+003;1.994321e-001
1.367341e+003;2.020334e-001
1.369269e+003;2.034828e-001
1.371198e+003;2.039376e-001
1.373126e+003;2.037499e-001
1.375055e+003;2.033989e-001
1.376983e+003;2.033691e-001
1.378912e+003;2.036183e-001
1.380840e+003;2.035277e-001
1.382769e+003;2.035953e-001
1.384698e+003;2.040555e-001
1.386626e+003;2.046554e-001
1.388555e+003;2.049484e-001
1.390483e+003;2.054098e-001
1.392412e+003;2.059106e-001
1.394340e+003;2.061401e-001
1.396269e+003;2.067122e-001
1.398197e+003;2.076617e-001
1.400126e+003;2.089819e-001
1.402054e+003;2.104199e-001
1.403983e+003;2.117055e-001
1.405911e+003;2.130375e-001
1.407840e+003;2.143567e-001
1.409769e+003;2.154160e-001
1.411697e+003;2.162835e-001
1.413626e+003;2.169462e-001
1.415554e+003;2.174320e-001
1.417483e+003;2.179407e-001
1.419411e+003;2.187416e-001
1.421340e+003;2.200671e-001
1.423268e+003;2.218777e-001
1.425197e+003;2.245833e-001
1.427125e+003;2.284699e-001
1.429054e+003;2.332401e-001
1.430983e+003;2.386428e-001
1.432911e+003;2.445868e-001
1.434840e+003;2.508078e-001
1.436768e+003;2.561921e-001
1.438697e+003;2.598987e-001
1.440625e+003;2.622328e-001
1.442554e+003;2.638602e-001
1.444482e+003;2.649792e-001
1.446411e+003;2.647418e-001
1.448340e+003;2.626796e-001
1.450268e+003;2.593464e-001
1.452197e+003;2.550733e-001
1.454125e+003;2.502959e-001
1.456054e+003;2.455413e-001
1.457982e+003;2.416860e-001
1.459911e+003;2.392379e-001
1.461839e+003;2.375394e-001
1.463768e+003;2.360263e-001
1.465697e+003;2.350331e-001
1.467625e+003;2.351715e-001
1.469554e+003;2.361355e-001
1.471482e+003;2.375294e-001
1.473411e+003;2.391685e-001
1.475339e+003;2.412939e-001
1.477268e+003;2.444136e-001
1.479196e+003;2.489526e-001
1.481125e+003;2.548624e-001
1.483053e+003;2.622631e-001
1.484982e+003;2.706106e-001
1.486911e+003;2.794931e-001
1.488839e+003;2.892334e-001
1.490768e+003;2.996930e-001
1.492696e+003;3.101844e-001
1.494625e+003;3.205095e-001
1.496553e+003;3.307483e-001
1.498482e+003;3.406406e-001
1.500410e+003;3.495485e-001
1.502339e+003;3.578854e-001
1.504267e+003;3.661138e-001
1.506196e+003;3.732266e-001
1.508125e+003;3.789997e-001
1.510053e+003;3.838339e-001
1.511982e+003;3.876485e-001
1.513910e+003;3.891464e-001
1.515839e+003;3.866259e-001
1.517767e+003;3.798293e-001
1.519696e+003;3.707552e-001
1.521624e+003;3.612145e-001
1.523553e+003;3.533951e-001
1.525481e+003;3.466948e-001
1.527410e+003;3.398083e-001
1.529339e+003;3.335077e-001
1.531267e+003;3.279127e-001
1.533196e+003;3.221586e-001
1.535124e+003;3.164036e-001
1.537053e+003;3.106347e-001
1.538981e+003;3.044041e-001
1.540910e+003;2.981928e-001
1.542838e+003;2.923984e-001
1.544767e+003;2.868763e-001
1.546695e+003;2.812368e-001
1.548624e+003;2.755361e-001
1.550553e+003;2.697130e-001
1.552481e+003;2.637915e-001
1.554410e+003;2.579425e-001
1.556338e+003;2.520173e-001
1.558267e+003;2.457737e-001
1.560195e+003;2.396286e-001
1.562124e+003;2.343105e-001
1.564052e+003;2.289949e-001
1.565981e+003;2.233479e-001
1.567910e+003;2.180264e-001
1.569838e+003;2.133532e-001
1.571767e+003;2.096030e-001
1.573695e+003;2.064870e-001
1.575624e+003;2.037930e-001
1.577552e+003;2.022772e-001
1.579481e+003;2.020354e-001
1.581409e+003;2.023522e-001
1.583338e+003;2.031335e-001
1.585266e+003;2.049134e-001
1.587195e+003;2.080197e-001
1.589124e+003;2.123974e-001
1.591052e+003;2.175057e-001
1.592981e+003;2.233873e-001
1.594909e+003;2.301811e-001
1.596838e+003;2.379055e-001
1.598766e+003;2.464941e-001
1.600695e+003;2.564128e-001
1.602623e+003;2.679405e-001
1.604552e+003;2.811270e-001
1.606480e+003;2.961297e-001
1.608409e+003;3.127015e-001
1.610338e+003;3.296702e-001
1.612266e+003;3.464329e-001
1.614195e+003;3.624753e-001
1.616123e+003;3.771287e-001
1.618052e+003;3.896865e-001
1.619980e+003;3.993419e-001
1.621909e+003;4.061922e-001
1.623837e+003;4.097357e-001
1.625766e+003;4.095646e-001
1.627694e+003;4.066478e-001
1.629623e+003;4.013355e-001
1.631552e+003;3.943953e-001
1.633480e+003;3.865086e-001
1.635409e+003;3.779990e-001
1.637337e+003;3.695281e-001
1.639266e+003;3.615116e-001
1.641194e+003;3.532594e-001
1.643123e+003;3.450641e-001
1.645051e+003;3.366219e-001
1.646980e+003;3.282177e-001
1.648909e+003;3.204235e-001
1.650837e+003;3.125868e-001
1.652766e+003;3.041330e-001
1.654694e+003;2.956088e-001
1.656623e+003;2.872542e-001
1.658551e+003;2.785578e-001
1.660480e+003;2.700909e-001
1.662408e+003;2.618994e-001
1.664337e+003;2.540431e-001
1.666266e+003;2.465041e-001
1.668194e+003;2.388908e-001
1.670123e+003;2.316656e-001
1.672051e+003;2.252111e-001
1.673980e+003;2.188295e-001
1.675908e+003;2.125017e-001
1.677837e+003;2.064947e-001
1.679765e+003;2.006973e-001
1.681694e+003;1.951984e-001
1.683622e+003;1.897315e-001
1.685551e+003;1.845437e-001
1.687479e+003;1.802772e-001
1.689408e+003;1.765954e-001
1.691337e+003;1.730776e-001
1.693265e+003;1.702332e-001
1.695194e+003;1.672595e-001
1.697122e+003;1.636906e-001
1.699051e+003;1.589707e-001
1.700979e+003;1.515583e-001
1.702908e+003;1.419478e-001
1.704836e+003;1.309403e-001
1.706765e+003;1.195601e-001
1.708693e+003;1.092870e-001
1.710622e+003;1.009950e-001
1.712551e+003;9.408222e-002
1.714479e+003;8.833096e-002
1.716408e+003;8.356830e-002
1.718336e+003;7.964302e-002
1.720265e+003;7.668860e-002
1.722193e+003;7.442639e-002
1.724122e+003;7.262847e-002
1.726050e+003;7.126261e-002
1.727979e+003;6.997398e-002
1.729908e+003;6.912453e-002
1.731836e+003;6.848300e-002
1.733765e+003;6.770933e-002
1.735693e+003;6.702789e-002
1.737622e+003;6.636643e-002
1.739550e+003;6.562335e-002
1.741479e+003;6.489181e-002
1.743407e+003;6.375221e-002
1.745336e+003;6.282771e-002
1.747265e+003;6.209600e-002
1.749193e+003;6.121657e-002
1.751122e+003;6.055936e-002
1.753050e+003;6.046620e-002
1.754979e+003;6.006494e-002
1.756907e+003;5.929810e-002
1.758836e+003;5.881270e-002
1.760764e+003;5.837158e-002
1.762693e+003;5.808507e-002
1.764621e+003;5.800069e-002
1.766550e+003;5.776707e-002
1.768479e+003;5.756849e-002
1.770407e+003;5.751235e-002
1.772336e+003;5.720970e-002
1.774264e+003;5.692052e-002
1.776193e+003;5.680401e-002
1.778121e+003;5.649381e-002
1.780050e+003;5.624051e-002
1.781978e+003;5.599819e-002
1.783907e+003;5.568243e-002
1.785835e+003;5.547147e-002
1.787764e+003;5.540514e-002
1.789693e+003;5.516256e-002
1.791621e+003;5.469739e-002
1.793550e+003;5.442569e-002
1.795478e+003;5.433793e-002
1.797407e+003;5.430590e-002
1.799335e+003;5.446043e-002
1.801264e+003;5.424635e-002
1.803192e+003;5.395133e-002
1.805121e+003;5.394184e-002
1.807049e+003;5.392365e-002
1.808978e+003;5.367260e-002
1.810907e+003;5.333024e-002
1.812835e+003;5.297534e-002
1.814764e+003;5.266088e-002
1.816692e+003;5.244009e-002
1.818621e+003;5.232495e-002
1.820549e+003;5.221732e-002
1.822478e+003;5.212959e-002
1.824406e+003;5.187786e-002
1.826335e+003;5.169050e-002
1.828264e+003;5.149632e-002
1.830192e+003;5.127449e-002
1.832121e+003;5.116898e-002
1.834049e+003;5.123504e-002
1.835978e+003;5.110971e-002
1.837906e+003;5.076352e-002
1.839835e+003;5.057943e-002
1.841763e+003;5.059220e-002
1.843692e+003;5.048269e-002
1.845620e+003;5.023418e-002
1.847549e+003;4.995131e-002
1.849478e+003;4.991660e-002
1.851406e+003;5.007675e-002
1.853335e+003;4.997581e-002
1.855263e+003;4.968999e-002
1.857192e+003;4.964029e-002
1.859120e+003;4.965968e-002
1.861049e+003;4.955712e-002
1.862977e+003;4.949370e-002
1.864906e+003;4.951081e-002
1.866834e+003;4.940896e-002
1.868763e+003;4.919175e-002
1.870692e+003;4.911246e-002
1.872620e+003;4.923009e-002
1.874549e+003;4.941342e-002
1.876477e+003;4.945712e-002
1.878406e+003;4.943484e-002
1.880334e+003;4.954424e-002
1.882263e+003;4.940236e-002
1.884191e+003;4.918667e-002
1.886120e+003;4.916229e-002
1.888048e+003;4.933475e-002
1.889977e+003;4.937655e-002
1.891906e+003;4.925206e-002
1.893834e+003;4.930929e-002
1.895763e+003;4.924998e-002
1.897691e+003;4.890697e-002
1.899620e+003;4.893601e-002
1.901548e+003;4.913001e-002
1.903477e+003;4.909532e-002
1.905405e+003;4.898252e-002
1.907334e+003;4.899072e-002
1.909262e+003;4.880174e-002
1.911191e+003;4.861826e-002
1.913120e+003;4.860551e-002
1.915048e+003;4.866926e-002
1.916977e+003;4.870762e-002
1.918905e+003;4.861159e-002
1.920834e+003;4.845075e-002
1.922762e+003;4.823639e-002
1.924691e+003;4.819407e-002
1.926619e+003;4.824712e-002
1.928548e+003;4.819788e-002
1.930477e+003;4.822350e-002
1.932405e+003;4.826549e-002
1.934334e+003;4.846761e-002
1.936262e+003;4.853122e-002
1.938191e+003;4.841774e-002
1.940119e+003;4.832678e-002
1.942048e+003;4.821499e-002
1.943976e+003;4.817959e-002
1.945905e+003;4.836207e-002
1.947833e+003;4.854226e-002
1.949762e+003;4.854289e-002
1.951691e+003;4.852151e-002
1.953619e+003;4.869672e-002
1.955548e+003;4.870417e-002
1.957476e+003;4.864817e-002
1.959405e+003;4.866659e-002
1.961333e+003;4.871296e-002
1.963262e+003;4.874491e-002
1.965190e+003;4.877056e-002
1.967119e+003;4.873167e-002
1.969047e+003;4.872259e-002
1.970976e+003;4.884264e-002
1.972905e+003;4.887137e-002
1.974833e+003;4.890323e-002
1.976762e+003;4.907803e-002
1.978690e+003;4.909777e-002
1.980619e+003;4.896954e-002
1.982547e+003;4.888491e-002
1.984476e+003;4.877612e-002
1.986404e+003;4.871666e-002
1.988333e+003;4.845405e-002
1.990261e+003;4.844849e-002
1.992190e+003;4.870321e-002
1.994119e+003;4.871433e-002
1.996047e+003;4.862404e-002
1.997976e+003;4.857157e-002
1.999904e+003;4.863931e-002
2.001833e+003;4.871225e-002
2.003761e+003;4.851832e-002
2.005690e+003;4.830196e-002
2.007618e+003;4.838644e-002
2.009547e+003;4.858443e-002
2.011476e+003;4.867993e-002
2.013404e+003;4.841867e-002
2.015333e+003;4.834381e-002
2.017261e+003;4.857535e-002
2.019190e+003;4.865002e-002
2.021118e+003;4.882462e-002
2.023047e+003;4.888769e-002
2.024975e+003;4.856631e-002
2.026904e+003;4.856068e-002
2.028833e+003;4.873872e-002
2.030761e+003;4.875922e-002
2.032690e+003;4.881809e-002
2.034618e+003;4.882829e-002
2.036547e+003;4.878072e-002
2.038475e+003;4.880945e-002
2.040404e+003;4.888353e-002
2.042332e+003;4.887130e-002
2.044261e+003;4.872482e-002
2.046189e+003;4.873905e-002
2.048118e+003;4.888865e-002
2.050047e+003;4.898500e-002
2.051975e+003;4.890415e-002
2.053904e+003;4.874969e-002
2.055832e+003;4.884964e-002
2.057761e+003;4.918864e-002
2.059689e+003;4.943722e-002
2.061618e+003;4.935283e-002
2.063546e+003;4.922445e-002
2.065475e+003;4.932436e-002
2.067404e+003;4.949436e-002
2.069332e+003;4.952727e-002
2.071260e+003;4.946388e-002
2.073189e+003;4.940173e-002
2.075118e+003;4.948883e-002
2.077046e+003;4.954479e-002
2.078975e+003;4.964723e-002
2.080903e+003;4.980465e-002
2.082832e+003;4.988139e-002
2.084760e+003;4.983877e-002
2.086689e+003;4.975698e-002
2.088617e+003;4.965355e-002
2.090546e+003;4.956581e-002
2.092475e+003;4.964768e-002
2.094403e+003;4.973532e-002
2.096332e+003;4.941030e-002
2.098260e+003;4.929982e-002
2.100189e+003;4.973238e-002
2.102117e+003;5.000224e-002
2.104046e+003;4.992808e-002
2.105974e+003;4.977961e-002
2.107903e+003;4.969965e-002
2.109832e+003;4.972681e-002
2.111760e+003;4.974535e-002
2.113688e+003;4.971470e-002
2.115617e+003;4.973286e-002
2.117546e+003;4.982286e-002
2.119474e+003;4.970515e-002
2.121403e+003;4.944246e-002
2.123331e+003;4.943904e-002
2.125260e+003;4.953662e-002
2.127188e+003;4.954758e-002
2.129117e+003;4.952188e-002
2.131045e+003;4.958130e-002
2.132974e+003;4.974538e-002
2.134903e+003;4.982204e-002
2.136831e+003;4.983290e-002
2.138760e+003;4.965500e-002
2.140688e+003;4.956336e-002
2.142617e+003;4.967268e-002
2.144545e+003;4.964694e-002
2.146474e+003;4.979079e-002
2.148402e+003;4.991128e-002
2.150331e+003;4.987299e-002
2.152260e+003;4.984271e-002
2.154188e+003;4.980302e-002
2.156117e+003;4.974866e-002
2.158045e+003;4.968598e-002
2.159974e+003;4.996254e-002
2.161902e+003;5.008668e-002
2.163831e+003;5.007419e-002
2.165759e+003;4.993644e-002
2.167688e+003;4.969445e-002
2.169616e+003;4.984899e-002
2.171545e+003;4.992354e-002
2.173474e+003;4.972945e-002
2.175402e+003;4.946410e-002
2.177331e+003;4.931542e-002
2.179259e+003;4.959920e-002
2.181188e+003;4.988210e-002
2.183116e+003;4.991221e-002
2.185045e+003;4.967290e-002
2.186973e+003;4.937418e-002
2.188902e+003;4.938328e-002
2.190831e+003;4.964831e-002
2.192759e+003;4.963780e-002
2.194688e+003;4.952440e-002
2.196616e+003;4.957610e-002
2.198545e+003;4.950673e-002
2.200473e+003;4.939482e-002
2.202402e+003;4.949370e-002
2.204330e+003;4.966573e-002
2.206259e+003;4.973807e-002
2.208188e+003;4.981112e-002
2.210116e+003;4.967156e-002
2.212044e+003;4.947145e-002
2.213973e+003;4.963456e-002
2.215902e+003;4.964203e-002
2.217830e+003;4.958498e-002
2.219759e+003;4.966911e-002
2.221687e+003;4.955378e-002
2.223616e+003;4.943470e-002
2.225544e+003;4.963873e-002
2.227473e+003;4.971748e-002
2.229401e+003;4.966971e-002
2.231330e+003;4.966845e-002
2.233259e+003;4.960129e-002
2.235187e+003;4.956615e-002
2.237116e+003;4.958246e-002
2.239044e+003;4.956986e-002
2.240973e+003;4.937277e-002
2.242901e+003;4.917550e-002
2.244830e+003;4.906846e-002
2.246758e+003;4.894124e-002
2.248687e+003;4.886941e-002
2.250615e+003;4.906067e-002
2.252544e+003;4.928093e-002
2.254473e+003;4.945608e-002
2.256401e+003;4.932440e-002
2.258330e+003;4.917576e-002
2.260258e+003;4.936074e-002
2.262187e+003;4.945526e-002
2.264115e+003;4.935602e-002
2.266044e+003;4.935528e-002
2.267972e+003;4.934504e-002
2.269901e+003;4.951479e-002
2.271830e+003;4.968115e-002
2.273758e+003;4.974327e-002
2.275687e+003;4.985315e-002
2.277615e+003;4.984096e-002
2.279544e+003;4.986408e-002
2.281472e+003;4.988775e-002
2.283401e+003;4.987545e-002
2.285329e+003;5.001354e-002
2.287258e+003;5.020966e-002
2.289187e+003;5.023849e-002
2.291115e+003;5.019464e-002
2.293043e+003;5.017805e-002
2.294972e+003;5.017493e-002
2.296901e+003;5.010036e-002
2.298829e+003;5.016793e-002
2.300758e+003;5.017121e-002
2.302686e+003;5.020535e-002
2.304615e+003;5.038571e-002
2.306543e+003;5.033224e-002
2.308472e+003;5.014767e-002
2.310400e+003;5.019453e-002
2.312329e+003;5.027547e-002
2.314258e+003;5.040811e-002
2.316186e+003;5.038831e-002
2.318115e+003;5.021933e-002
2.320043e+003;5.035512e-002
2.321972e+003;5.033637e-002
2.323900e+003;5.014882e-002
2.325829e+003;5.016753e-002
2.327757e+003;5.019520e-002
2.329686e+003;5.004887e-002
2.331615e+003;5.016596e-002
2.333543e+003;5.033827e-002
2.335472e+003;5.043844e-002
2.337400e+003;5.037294e-002
2.339329e+003;5.012453e-002
2.341257e+003;5.010301e-002
2.343186e+003;5.030835e-002
2.345114e+003;5.041998e-002
2.347043e+003;5.036178e-002
2.348971e+003;5.035237e-002
2.350900e+003;5.043687e-002
2.352829e+003;5.052225e-002
2.354757e+003;5.058900e-002
2.356686e+003;5.062485e-002
2.358614e+003;5.063364e-002
2.360543e+003;5.053450e-002
2.362471e+003;5.062090e-002
2.364400e+003;5.079111e-002
2.366328e+003;5.085641e-002
2.368257e+003;5.112089e-002
2.370186e+003;5.114240e-002
2.372114e+003;5.085805e-002
2.374042e+003;5.112499e-002
2.375971e+003;5.143376e-002
2.377900e+003;5.148834e-002
2.379828e+003;5.136715e-002
2.381757e+003;5.150602e-002
2.383685e+003;5.170804e-002
2.385614e+003;5.164355e-002
2.387542e+003;5.186188e-002
2.389471e+003;5.217775e-002
2.391399e+003;5.226213e-002
2.393328e+003;5.210740e-002
2.395257e+003;5.200621e-002
2.397185e+003;5.232555e-002
2.399114e+003;5.255327e-002
2.401042e+003;5.242547e-002
2.402971e+003;5.257665e-002
2.404899e+003;5.294454e-002
2.406828e+003;5.316992e-002
2.408756e+003;5.328517e-002
2.410685e+003;5.341484e-002
2.412614e+003;5.354188e-002
2.414542e+003;5.393164e-002
2.416471e+003;5.442017e-002
2.418399e+003;5.470499e-002
2.420328e+003;5.478959e-002
2.422256e+003;5.465925e-002
2.424185e+003;5.483872e-002
2.426113e+003;5.520876e-002
2.428042e+003;5.547320e-002
2.429970e+003;5.541587e-002
2.431899e+003;5.539776e-002
2.433828e+003;5.560130e-002
2.435756e+003;5.591655e-002
2.437685e+003;5.597086e-002
2.439613e+003;5.590649e-002
2.441542e+003;5.607581e-002
2.443470e+003;5.643373e-002
2.445399e+003;5.652766e-002
2.447327e+003;5.650309e-002
2.449256e+003;5.669209e-002
2.451185e+003;5.688075e-002
2.453113e+003;5.686243e-002
2.455042e+003;5.685204e-002
2.456970e+003;5.683010e-002
2.458899e+003;5.668827e-002
2.460827e+003;5.650166e-002
2.462756e+003;5.658363e-002
2.464684e+003;5.674593e-002
2.466613e+003;5.692400e-002
2.468542e+003;5.713275e-002
2.470470e+003;5.731567e-002
2.472398e+003;5.754511e-002
2.474327e+003;5.784592e-002
2.476256e+003;5.810443e-002
2.478184e+003;5.805682e-002
2.480113e+003;5.781900e-002
2.482041e+003;5.785148e-002
2.483970e+003;5.797566e-002
2.485898e+003;5.802141e-002
2.487827e+003;5.820777e-002
2.489755e+003;5.836719e-002
2.491684e+003;5.824918e-002
2.493613e+003;5.831807e-002
2.495541e+003;5.853223e-002
2.497470e+003;5.847419e-002
2.499398e+003;5.829427e-002
2.501327e+003;5.822959e-002
2.503255e+003;5.830795e-002
2.505184e+003;5.832163e-002
2.507112e+003;5.851093e-002
2.509041e+003;5.898893e-002
2.510969e+003;5.927550e-002
2.512898e+003;5.922336e-002
2.514827e+003;5.909400e-002
2.516755e+003;5.902286e-002
2.518684e+003;5.892562e-002
2.520612e+003;5.917168e-002
2.522541e+003;5.940462e-002
2.524469e+003;5.945465e-002
2.526398e+003;5.933620e-002
2.528326e+003;5.920681e-002
2.530255e+003;5.944253e-002
2.532184e+003;5.955801e-002
2.534112e+003;5.952267e-002
2.536041e+003;5.969827e-002
2.537969e+003;5.979226e-002
2.539898e+003;5.979393e-002
2.541826e+003;5.986485e-002
2.543755e+003;6.005060e-002
2.545683e+003;6.026059e-002
2.547612e+003;6.054138e-002
2.549541e+003;6.073546e-002
2.551469e+003;6.065106e-002
2.553397e+003;6.073988e-002
2.555326e+003;6.095048e-002
2.557255e+003;6.101045e-002
2.559183e+003;6.131260e-002
2.561112e+003;6.161679e-002
2.563040e+003;6.165852e-002
2.564969e+003;6.172540e-002
2.566897e+003;6.209069e-002
2.568826e+003;6.240904e-002
2.570754e+003;6.244363e-002
2.572683e+003;6.254720e-002
2.574612e+003;6.278089e-002
2.576540e+003;6.293509e-002
2.578469e+003;6.312538e-002
2.580397e+003;6.332923e-002
2.582326e+003;6.359537e-002
2.584254e+003;6.394827e-002
2.586183e+003;6.403684e-002
2.588111e+003;6.410035e-002
2.590040e+003;6.428911e-002
2.591969e+003;6.450378e-002
2.593897e+003;6.476721e-002
2.595826e+003;6.504789e-002
2.597754e+003;6.504939e-002
2.599683e+003;6.509862e-002
2.601611e+003;6.541429e-002
2.603540e+003;6.561857e-002
2.605468e+003;6.578104e-002
2.607397e+003;6.586070e-002
2.609325e+003;6.589236e-002
2.611254e+003;6.618109e-002
2.613183e+003;6.636802e-002
2.615111e+003;6.654467e-002
2.617040e+003;6.685340e-002
2.618968e+003;6.692769e-002
2.620897e+003;6.685251e-002
2.622825e+003;6.678454e-002
2.624754e+003;6.700922e-002
2.626682e+003;6.691744e-002
2.628611e+003;6.658141e-002
2.630540e+003;6.660461e-002
2.632468e+003;6.665082e-002
2.634396e+003;6.672681e-002
2.636325e+003;6.672561e-002
2.638254e+003;6.663845e-002
2.640182e+003;6.652004e-002
2.642111e+003;6.649648e-002
2.644039e+003;6.654653e-002
2.645968e+003;6.678318e-002
2.647896e+003;6.700914e-002
2.649825e+003;6.693863e-002
2.651753e+003;6.703126e-002
2.653682e+003;6.719573e-002
2.655611e+003;6.723769e-002
2.657539e+003;6.721990e-002
2.659468e+003;6.734234e-002
2.661396e+003;6.749810e-002
2.663325e+003;6.770600e-002
2.665253e+003;6.789199e-002
2.667182e+003;6.796972e-002
2.669110e+003;6.811872e-002
2.671039e+003;6.840499e-002
2.672968e+003;6.860378e-002
2.674896e+003;6.865508e-002
2.676825e+003;6.885281e-002
2.678753e+003;6.881923e-002
2.680682e+003;6.867332e-002
2.682610e+003;6.875009e-002
2.684539e+003;6.906936e-002
2.686467e+003;6.945419e-002
2.688396e+003;6.982087e-002
2.690324e+003;6.996678e-002
2.692253e+003;6.987122e-002
2.694182e+003;6.981355e-002
2.696110e+003;6.999675e-002
2.698039e+003;7.033821e-002
2.699967e+003;7.067378e-002
2.701896e+003;7.094418e-002
2.703824e+003;7.111045e-002
2.705753e+003;7.107852e-002
2.707681e+003;7.125648e-002
2.709610e+003;7.153865e-002
2.711539e+003;7.182937e-002
2.713467e+003;7.207624e-002
2.715396e+003;7.218761e-002
2.717324e+003;7.223973e-002
2.719253e+003;7.248013e-002
2.721181e+003;7.273525e-002
2.723110e+003;7.312655e-002
2.725038e+003;7.365602e-002
2.726967e+003;7.382824e-002
2.728896e+003;7.382137e-002
2.730824e+003;7.415193e-002
2.732752e+003;7.449782e-002
2.734681e+003;7.472527e-002
2.736610e+003;7.488371e-002
2.738538e+003;7.498253e-002
2.740467e+003;7.513034e-002
2.742395e+003;7.540042e-002
2.744324e+003;7.549302e-002
2.746252e+003;7.543404e-002
2.748181e+003;7.567405e-002
2.750109e+003;7.599842e-002
2.752038e+003;7.608984e-002
2.753967e+003;7.643921e-002
2.755895e+003;7.662649e-002
2.757824e+003;7.652966e-002
2.759752e+003;7.677700e-002
2.761681e+003;7.712819e-002
2.763609e+003;7.730805e-002
2.765538e+003;7.738043e-002
2.767466e+003;7.744957e-002
2.769395e+003;7.760563e-002
2.771323e+003;7.788121e-002
2.773252e+003;7.834313e-002
2.775181e+003;7.873848e-002
2.777109e+003;7.874964e-002
2.779038e+003;7.879385e-002
2.780966e+003;7.909098e-002
2.782895e+003;7.952040e-002
2.784823e+003;7.958034e-002
2.786752e+003;7.955916e-002
2.788680e+003;7.967076e-002
2.790609e+003;7.979816e-002
2.792538e+003;7.999785e-002
2.794466e+003;8.037928e-002
2.796395e+003;8.073257e-002
2.798323e+003;8.075778e-002
2.800252e+003;8.096203e-002
2.802180e+003;8.120540e-002
2.804109e+003;8.135039e-002
2.806037e+003;8.161408e-002
2.807966e+003;8.193699e-002
2.809895e+003;8.206514e-002
2.811823e+003;8.219336e-002
2.813751e+003;8.237801e-002
2.815680e+003;8.231633e-002
2.817609e+003;8.250821e-002
2.819537e+003;8.304483e-002
2.821466e+003;8.354320e-002
2.823394e+003;8.384091e-002
2.825323e+003;8.411556e-002
2.827251e+003;8.421966e-002
2.829180e+003;8.433118e-002
2.831108e+003;8.449202e-002
2.833037e+003;8.481108e-002
2.834966e+003;8.542618e-002
2.836894e+003;8.618005e-002
2.838823e+003;8.676574e-002
2.840751e+003;8.759890e-002
2.842680e+003;8.900399e-002
2.844608e+003;9.031494e-002
2.846537e+003;9.218202e-002
2.848465e+003;9.490255e-002
2.850394e+003;9.690045e-002
2.852323e+003;9.751459e-002
2.854251e+003;9.750037e-002
2.856180e+003;9.715776e-002
2.858108e+003;9.680072e-002
2.860037e+003;9.637159e-002
2.861965e+003;9.600263e-002
2.863894e+003;9.575472e-002
2.865822e+003;9.592263e-002
2.867751e+003;9.629188e-002
2.869679e+003;9.657706e-002
2.871608e+003;9.702886e-002
2.873536e+003;9.740051e-002
2.875465e+003;9.718951e-002
2.877394e+003;9.696850e-002
2.879322e+003;9.694572e-002
2.881251e+003;9.705119e-002
2.883179e+003;9.742862e-002
2.885108e+003;9.808126e-002
2.887036e+003;9.821592e-002
2.888965e+003;9.800602e-002
2.890893e+003;9.826100e-002
2.892822e+003;9.886850e-002
2.894750e+003;9.958436e-002
2.896679e+003;1.003317e-001
2.898608e+003;1.008502e-001
2.900536e+003;1.015176e-001
2.902465e+003;1.020665e-001
2.904393e+003;1.026726e-001
2.906322e+003;1.033136e-001
2.908250e+003;1.042128e-001
2.910179e+003;1.056147e-001
2.912107e+003;1.070684e-001
2.914036e+003;1.088840e-001
2.915965e+003;1.112220e-001
2.917893e+003;1.133836e-001
2.919822e+003;1.153503e-001
2.921750e+003;1.172563e-001
2.923679e+003;1.185293e-001
2.925607e+003;1.191432e-001
2.927536e+003;1.189863e-001
2.929464e+003;1.188625e-001
2.931393e+003;1.185534e-001
2.933322e+003;1.176696e-001
2.935250e+003;1.168939e-001
2.937178e+003;1.161441e-001
2.939107e+003;1.148426e-001
2.941036e+003;1.130551e-001
2.942964e+003;1.115939e-001
2.944893e+003;1.102830e-001
2.946821e+003;1.088612e-001
2.948750e+003;1.079219e-001
2.950678e+003;1.075431e-001
2.952607e+003;1.072556e-001
2.954535e+003;1.064715e-001
2.956464e+003;1.055705e-001
2.958393e+003;1.051166e-001
2.960321e+003;1.051570e-001
2.962250e+003;1.053417e-001
2.964178e+003;1.051601e-001
2.966107e+003;1.048795e-001
2.968035e+003;1.046265e-001
2.969964e+003;1.044082e-001
2.971892e+003;1.045645e-001
2.973821e+003;1.044207e-001
2.975750e+003;1.035473e-001
2.977678e+003;1.029274e-001
2.979607e+003;1.028440e-001
2.981535e+003;1.027845e-001
2.983464e+003;1.026458e-001
2.985392e+003;1.023393e-001
2.987321e+003;1.015033e-001
2.989249e+003;1.007738e-001
2.991178e+003;1.001104e-001
2.993106e+003;9.914692e-002
2.995035e+003;9.848437e-002
2.996964e+003;9.826316e-002
2.998892e+003;9.815748e-002
3.000821e+003;9.783465e-002
3.002749e+003;9.745060e-002
3.004678e+003;9.705003e-002
3.006606e+003;9.712163e-002
3.008535e+003;9.748174e-002
3.010463e+003;9.760261e-002
3.012392e+003;9.730938e-002
3.014321e+003;9.715515e-002
3.016249e+003;9.762165e-002
3.018177e+003;9.786864e-002
3.020106e+003;9.809601e-002
3.022035e+003;9.831734e-002
3.023963e+003;9.839766e-002
3.025892e+003;9.870249e-002
3.027820e+003;9.901065e-002
3.029749e+003;9.946644e-002
3.031677e+003;9.985790e-002
3.033606e+003;1.002637e-001
3.035534e+003;1.009473e-001
3.037463e+003;1.014533e-001
3.039392e+003;1.015183e-001
3.041320e+003;1.020417e-001
3.043249e+003;1.029725e-001
3.045177e+003;1.034711e-001
3.047106e+003;1.038990e-001
3.049034e+003;1.046265e-001
3.050963e+003;1.052995e-001
3.052891e+003;1.055739e-001
3.054820e+003;1.058667e-001
3.056749e+003;1.063740e-001
3.058677e+003;1.067998e-001
3.060606e+003;1.073277e-001
3.062534e+003;1.080831e-001
3.064463e+003;1.082243e-001
3.066391e+003;1.083919e-001
3.068320e+003;1.088188e-001
3.070248e+003;1.087854e-001
3.072177e+003;1.086646e-001
3.074105e+003;1.089588e-001
3.076034e+003;1.091968e-001
3.077963e+003;1.089395e-001
3.079891e+003;1.086603e-001
3.081820e+003;1.086565e-001
3.083748e+003;1.087520e-001
3.085677e+003;1.084752e-001
3.087605e+003;1.082525e-001
3.089534e+003;1.080609e-001
3.091462e+003;1.076201e-001
3.093391e+003;1.072577e-001
3.095320e+003;1.071660e-001
3.097248e+003;1.070433e-001
3.099177e+003;1.063799e-001
3.101105e+003;1.059847e-001
3.103034e+003;1.061593e-001
3.104962e+003;1.059852e-001
3.106891e+003;1.053147e-001
3.108819e+003;1.051491e-001
3.110748e+003;1.050215e-001
3.112677e+003;1.048589e-001
3.114605e+003;1.048797e-001
3.116533e+003;1.048184e-001
3.118462e+003;1.046887e-001
3.120391e+003;1.044639e-001
3.122319e+003;1.045672e-001
3.124248e+003;1.046428e-001
3.126176e+003;1.044834e-001
3.128105e+003;1.047425e-001
3.130033e+003;1.049347e-001
3.131962e+003;1.051870e-001
3.133890e+003;1.053876e-001
3.135819e+003;1.059339e-001
3.137748e+003;1.064196e-001
3.139676e+003;1.064717e-001
3.141605e+003;1.066290e-001
3.143533e+003;1.069917e-001
3.145462e+003;1.072320e-001
3.147390e+003;1.073817e-001
3.149319e+003;1.081928e-001
3.151247e+003;1.088718e-001
3.153176e+003;1.095773e-001
3.155104e+003;1.104658e-001
3.157033e+003;1.111427e-001
3.158962e+003;1.116650e-001
3.160890e+003;1.122854e-001
3.162819e+003;1.130074e-001
3.164747e+003;1.137992e-001
3.166676e+003;1.146668e-001
3.168604e+003;1.152441e-001
3.170533e+003;1.157520e-001
3.172461e+003;1.166407e-001
3.174390e+003;1.175136e-001
3.176319e+003;1.182416e-001
3.178247e+003;1.190997e-001
3.180176e+003;1.206553e-001
3.182104e+003;1.219541e-001
3.184033e+003;1.226652e-001
3.185961e+003;1.236357e-001
3.187890e+003;1.248511e-001
3.189818e+003;1.259951e-001
3.191747e+003;1.267631e-001
3.193676e+003;1.274701e-001
3.195604e+003;1.285762e-001
3.197532e+003;1.298546e-001
3.199461e+003;1.309982e-001
3.201390e+003;1.318662e-001
3.203318e+003;1.327040e-001
3.205247e+003;1.335607e-001
3.207175e+003;1.347964e-001
3.209104e+003;1.358511e-001
3.211032e+003;1.369372e-001
3.212961e+003;1.382722e-001
3.214889e+003;1.394300e-001
3.216818e+003;1.400717e-001
3.218747e+003;1.408523e-001
3.220675e+003;1.418801e-001
3.222604e+003;1.429940e-001
3.224532e+003;1.442469e-001
3.226461e+003;1.455891e-001
3.228389e+003;1.468350e-001
3.230318e+003;1.479523e-001
3.232246e+003;1.492648e-001
3.234175e+003;1.507100e-001
3.236104e+003;1.518309e-001
3.238032e+003;1.529320e-001
3.239961e+003;1.545741e-001
3.241889e+003;1.564088e-001
3.243818e+003;1.582827e-001
3.245746e+003;1.598130e-001
3.247675e+003;1.607480e-001
3.249603e+003;1.620802e-001
3.251532e+003;1.638269e-001
3.253460e+003;1.657996e-001
3.255389e+003;1.674722e-001
3.257318e+003;1.690551e-001
3.259246e+003;1.711525e-001
3.261175e+003;1.728860e-001
3.263103e+003;1.742429e-001
3.265032e+003;1.762482e-001
3.266960e+003;1.785242e-001
3.268889e+003;1.806393e-001
3.270817e+003;1.823484e-001
3.272746e+003;1.837978e-001
3.274675e+003;1.851575e-001
3.276603e+003;1.862573e-001
3.278531e+003;1.868121e-001
3.280460e+003;1.869729e-001
3.282389e+003;1.870876e-001
3.284317e+003;1.868374e-001
3.286246e+003;1.862483e-001
3.288174e+003;1.857650e-001
3.290103e+003;1.851307e-001
3.292031e+003;1.833699e-001
3.293960e+003;1.815632e-001
3.295888e+003;1.806909e-001
3.297817e+003;1.798192e-001
3.299746e+003;1.778897e-001
3.301674e+003;1.757404e-001
3.303603e+003;1.738036e-001
3.305531e+003;1.723022e-001
3.307460e+003;1.703006e-001
3.309388e+003;1.674127e-001
3.311317e+003;1.650066e-001
3.313245e+003;1.631961e-001
3.315174e+003;1.615467e-001
3.317103e+003;1.595048e-001
3.319031e+003;1.570447e-001
3.320960e+003;1.548178e-001
3.322888e+003;1.527134e-001
3.324817e+003;1.508489e-001
3.326745e+003;1.491422e-001
3.328674e+003;1.468535e-001
3.330602e+003;1.448676e-001
3.332531e+003;1.432733e-001
3.334459e+003;1.413898e-001
3.336388e+003;1.397133e-001
3.338317e+003;1.382279e-001
3.340245e+003;1.365337e-001
3.342174e+003;1.348591e-001
3.344102e+003;1.333271e-001
3.346031e+003;1.318545e-001
3.347959e+003;1.303617e-001
3.349888e+003;1.289118e-001
3.351816e+003;1.277578e-001
3.353745e+003;1.268066e-001
3.355674e+003;1.259799e-001
3.357602e+003;1.250408e-001
3.359531e+003;1.241977e-001
3.361459e+003;1.234507e-001
3.363388e+003;1.221983e-001
3.365316e+003;1.206942e-001
3.367245e+003;1.194865e-001
3.369173e+003;1.184405e-001
3.371102e+003;1.174825e-001
3.373031e+003;1.167757e-001
3.374959e+003;1.160715e-001
3.376887e+003;1.152034e-001
3.378816e+003;1.143269e-001
3.380745e+003;1.136210e-001
3.382673e+003;1.131570e-001
3.384602e+003;1.124249e-001
3.386530e+003;1.114479e-001
3.388459e+003;1.103561e-001
3.390387e+003;1.095909e-001
3.392316e+003;1.088379e-001
3.394244e+003;1.082374e-001
3.396173e+003;1.077333e-001
3.398102e+003;1.067015e-001
3.400030e+003;1.057145e-001
3.401959e+003;1.050221e-001
3.403887e+003;1.042585e-001
3.405816e+003;1.032362e-001
3.407744e+003;1.027274e-001
3.409673e+003;1.024131e-001
3.411601e+003;1.014021e-001
3.413530e+003;1.003629e-001
3.415458e+003;9.970156e-002
3.417387e+003;9.933814e-002
3.419316e+003;9.834235e-002
3.421244e+003;9.726610e-002
3.423173e+003;9.689883e-002
3.425101e+003;9.649910e-002
3.427030e+003;9.574348e-002
3.428958e+003;9.477089e-002
3.430887e+003;9.390285e-002
3.432815e+003;9.325801e-002
3.434744e+003;9.253306e-002
3.436673e+003;9.182999e-002
3.438601e+003;9.111200e-002
3.440530e+003;9.042530e-002
3.442458e+003;8.978642e-002
3.444387e+003;8.964172e-002
3.446315e+003;8.953400e-002
3.448244e+003;8.882605e-002
3.450172e+003;8.780951e-002
3.452101e+003;8.733613e-002
3.454030e+003;8.724535e-002
3.455958e+003;8.684747e-002
3.457886e+003;8.627109e-002
3.459815e+003;8.603287e-002
3.461744e+003;8.553967e-002
3.463672e+003;8.460631e-002
3.465601e+003;8.386944e-002
3.467529e+003;8.420502e-002
3.469458e+003;8.467939e-002
3.471386e+003;8.440489e-002
3.473315e+003;8.362433e-002
3.475243e+003;8.312102e-002
3.477172e+003;8.250072e-002
3.479101e+003;8.207094e-002
3.481029e+003;8.206694e-002
3.482958e+003;8.164287e-002
3.484886e+003;8.145637e-002
3.486815e+003;8.148811e-002
3.488743e+003;8.089708e-002
3.490672e+003;8.002956e-002
3.492600e+003;7.985152e-002
3.494529e+003;7.977606e-002
3.496458e+003;7.956028e-002
3.498386e+003;7.944421e-002
3.500315e+003;7.927027e-002
3.502243e+003;7.887299e-002
3.504172e+003;7.811322e-002
3.506100e+003;7.754443e-002
3.508029e+003;7.762908e-002
3.509957e+003;7.775426e-002
3.511886e+003;7.754628e-002
3.513814e+003;7.708122e-002
3.515743e+003;7.660973e-002
3.517672e+003;7.616202e-002
3.519600e+003;7.559352e-002
3.521529e+003;7.513188e-002
3.523457e+003;7.512499e-002
3.525386e+003;7.463060e-002
3.527314e+003;7.388554e-002
3.529243e+003;7.387788e-002
3.531171e+003;7.373803e-002
3.533100e+003;7.328738e-002
3.535029e+003;7.296774e-002
3.536957e+003;7.237639e-002
3.538885e+003;7.164149e-002
3.540814e+003;7.134621e-002
3.542743e+003;7.104231e-002
3.544671e+003;7.061788e-002
3.546600e+003;7.010534e-002
3.548528e+003;6.951360e-002
3.550457e+003;6.929912e-002
3.552385e+003;6.911008e-002
3.554314e+003;6.879128e-002
3.556242e+003;6.835189e-002
3.558171e+003;6.797370e-002
3.560100e+003;6.794593e-002
3.562028e+003;6.763065e-002
3.563957e+003;6.724663e-002
3.565885e+003;6.681932e-002
3.567814e+003;6.656024e-002
3.569742e+003;6.633548e-002
3.571671e+003;6.604502e-002
3.573599e+003;6.580044e-002
3.575528e+003;6.535836e-002
3.577457e+003;6.505131e-002
3.579385e+003;6.442599e-002
3.581314e+003;6.403638e-002
3.583242e+003;6.402808e-002
3.585171e+003;6.381741e-002
3.587099e+003;6.364040e-002
3.589028e+003;6.359809e-002
3.590956e+003;6.319769e-002
3.592885e+003;6.260747e-002
3.594813e+003;6.204906e-002
3.596742e+003;6.179114e-002
3.598671e+003;6.159182e-002
3.600599e+003;6.128161e-002
3.602528e+003;6.080585e-002
3.604456e+003;6.051148e-002
3.606385e+003;6.025233e-002
3.608313e+003;5.985109e-002
3.610242e+003;5.943646e-002
3.612170e+003;5.893075e-002
3.614099e+003;5.868525e-002
3.616028e+003;5.822739e-002
3.617956e+003;5.771625e-002
3.619885e+003;5.769914e-002
3.621813e+003;5.738694e-002
3.623742e+003;5.696525e-002
3.625670e+003;5.670281e-002
3.627599e+003;5.608783e-002
3.629527e+003;5.566623e-002
3.631456e+003;5.547768e-002
3.633385e+003;5.473844e-002
3.635313e+003;5.428405e-002
3.637241e+003;5.375696e-002
3.639170e+003;5.291108e-002
3.641099e+003;5.230066e-002
3.643027e+003;5.197264e-002
3.644956e+003;5.162739e-002
3.646884e+003;5.106186e-002
3.648813e+003;5.046836e-002
3.650741e+003;4.968929e-002
3.652670e+003;4.939315e-002
3.654598e+003;4.912081e-002
3.656527e+003;4.830641e-002
3.658456e+003;4.753349e-002
3.660384e+003;4.686731e-002
3.662313e+003;4.625184e-002
3.664241e+003;4.576287e-002
3.666170e+003;4.512796e-002
3.668098e+003;4.415503e-002
3.670027e+003;4.339173e-002
3.671955e+003;4.309012e-002
3.673884e+003;4.249718e-002
3.675813e+003;4.198869e-002
3.677741e+003;4.180614e-002
3.679669e+003;4.135181e-002
3.681598e+003;4.063340e-002
3.683527e+003;3.992017e-002
3.685455e+003;3.955378e-002
3.687384e+003;3.902306e-002
3.689312e+003;3.871693e-002
3.691241e+003;3.863996e-002
3.693169e+003;3.783097e-002
3.695098e+003;3.746468e-002
3.697026e+003;3.716088e-002
3.698955e+003;3.661032e-002
3.700884e+003;3.620551e-002
3.702812e+003;3.560103e-002
3.704741e+003;3.528537e-002
3.706669e+003;3.485562e-002
3.708598e+003;3.405253e-002
3.710526e+003;3.380558e-002
3.712455e+003;3.391279e-002
3.714383e+003;3.389194e-002
3.716312e+003;3.365915e-002
3.718240e+003;3.320310e-002
3.720169e+003;3.280634e-002
3.722098e+003;3.264707e-002
3.724026e+003;3.257714e-002
3.725955e+003;3.233577e-002
3.727883e+003;3.219797e-002
3.729812e+003;3.188970e-002
3.731740e+003;3.133090e-002
3.733669e+003;3.133489e-002
3.735597e+003;3.178231e-002
3.737526e+003;3.170806e-002
3.739455e+003;3.129141e-002
3.741383e+003;3.146062e-002
3.743312e+003;3.138357e-002
3.745240e+003;3.086548e-002
3.747169e+003;3.083659e-002
3.749097e+003;3.111019e-002
3.751026e+003;3.093777e-002
3.752954e+003;3.037546e-002
3.754883e+003;3.048652e-002
3.756812e+003;3.098912e-002
3.758740e+003;3.074820e-002
3.760668e+003;3.063228e-002
3.762597e+003;3.057696e-002
3.764526e+003;3.043645e-002
3.766454e+003;3.059217e-002
3.768383e+003;3.054390e-002
3.770311e+003;3.043332e-002
3.772240e+003;3.024298e-002
3.774168e+003;2.994198e-002
3.776097e+003;2.982414e-002
3.778025e+003;2.997699e-002
3.779954e+003;3.001885e-002
3.781883e+003;2.981634e-002
3.783811e+003;2.956171e-002
3.785740e+003;2.964943e-002
3.787668e+003;2.997727e-002
3.789597e+003;2.995597e-002
3.791525e+003;2.988583e-002
3.793454e+003;3.012701e-002
3.795382e+003;3.008127e-002
3.797311e+003;2.997230e-002
3.799240e+003;2.999033e-002
3.801168e+003;2.979905e-002
3.803097e+003;2.993570e-002
3.805025e+003;3.037788e-002
3.806954e+003;3.034562e-002
3.808882e+003;3.015482e-002
3.810811e+003;2.992864e-002
3.812739e+003;3.001437e-002
3.814668e+003;2.988984e-002
3.816596e+003;2.978248e-002
3.818525e+003;3.013020e-002
3.820454e+003;3.039807e-002
3.822382e+003;3.038890e-002
3.824311e+003;3.033816e-002
3.826239e+003;3.050188e-002
3.828168e+003;3.072256e-002
3.830096e+003;3.068778e-002
3.832025e+003;3.056693e-002
3.833953e+003;3.042543e-002
3.835882e+003;3.028333e-002
3.837811e+003;3.014604e-002
3.839739e+003;3.016959e-002
3.841667e+003;3.021040e-002
3.843596e+003;3.033975e-002
3.845525e+003;3.062755e-002
3.847453e+003;3.059768e-002
3.849382e+003;3.038779e-002
3.851310e+003;3.021509e-002
3.853239e+003;3.010453e-002
3.855167e+003;3.012921e-002
3.857096e+003;3.034938e-002
3.859024e+003;3.099698e-002
3.860953e+003;3.127221e-002
3.862882e+003;3.137634e-002
3.864810e+003;3.163353e-002
3.866739e+003;3.153041e-002
3.868667e+003;3.122977e-002
3.870596e+003;3.143925e-002
3.872524e+003;3.177907e-002
3.874453e+003;3.193656e-002
3.876381e+003;3.225932e-002
3.878310e+003;3.206828e-002
3.880239e+003;3.221749e-002
3.882167e+003;3.261653e-002
3.884096e+003;3.254439e-002
3.886024e+003;3.252475e-002
3.887953e+003;3.287703e-002
3.889881e+003;3.291335e-002
3.891810e+003;3.294559e-002
3.893738e+003;3.305548e-002
3.895667e+003;3.267415e-002
3.897595e+003;3.286810e-002
3.899524e+003;3.339181e-002
3.901453e+003;3.356063e-002
3.903381e+003;3.328430e-002
3.905310e+003;3.343364e-002
3.907238e+003;3.361676e-002
3.909167e+003;3.379906e-002
3.911095e+003;3.401694e-002
3.913024e+003;3.411539e-002
3.914952e+003;3.417618e-002
3.916881e+003;3.417199e-002
3.918810e+003;3.468002e-002
3.920738e+003;3.492757e-002
3.922667e+003;3.465985e-002
3.924595e+003;3.436589e-002
3.926524e+003;3.437382e-002
3.928452e+003;3.459644e-002
3.930381e+003;3.483745e-002
3.932309e+003;3.457473e-002
3.934238e+003;3.448189e-002
3.936167e+003;3.481372e-002
3.938095e+003;3.494811e-002
3.940023e+003;3.516686e-002
3.941952e+003;3.580474e-002
3.943881e+003;3.584191e-002
3.945809e+003;3.556129e-002
3.947738e+003;3.565056e-002
3.949666e+003;3.561603e-002
3.951595e+003;3.549610e-002
3.953523e+003;3.543328e-002
3.955452e+003;3.540302e-002
3.957380e+003;3.545805e-002
3.959309e+003;3.577700e-002
3.961238e+003;3.616046e-002
3.963166e+003;3.626883e-002
3.965095e+003;3.646954e-002
3.967023e+003;3.659753e-002
3.968952e+003;3.670247e-002
3.970880e+003;3.662085e-002
3.972809e+003;3.654908e-002
3.974737e+003;3.671610e-002
3.976666e+003;3.683763e-002
3.978594e+003;3.648071e-002
3.980523e+003;3.635204e-002
3.982452e+003;3.650583e-002
3.984380e+003;3.627329e-002
3.986309e+003;3.624646e-002
3.988237e+003;3.650573e-002
3.990166e+003;3.689408e-002
3.992094e+003;3.670153e-002
3.994023e+003;3.619510e-002
3.995951e+003;3.579229e-002
3.997880e+003;3.579495e-002
3.999809e+003;3.567652e-002
4.001737e+003;0.000000e+000
