3.992094e+002;0.000000e+000
4.011380e+002;0.000000e+000
4.030665e+002;0.000000e+000
4.049951e+002;0.000000e+000
4.069236e+002;0.000000e+000
4.088522e+002;0.000000e+000
4.107807e+002;0.000000e+000
4.127093e+002;0.000000e+000
4.146378e+002;0.000000e+000
4.165664e+002;0.000000e+000
4.184949e+002;0.000000e+000
4.204235e+002;0.000000e+000
4.223520e+002;0.000000e+000
4.242806e+002;0.000000e+000
4.262091e+002;0.000000e+000
4.281377e+002;0.000000e+000
4.300662e+002;0.000000e+000
4.319948e+002;0.000000e+000
4.339233e+002;0.000000e+000
4.358519e+002;0.000000e+000
4.377804e+002;0.000000e+000
4.397090e+002;0.000000e+000
4.416375e+002;0.000000e+000
4.435660e+002;0.000000e+000
4.454946e+002;0.000000e+000
4.474232e+002;0.000000e+000
4.493517e+002;0.000000e+000
4.512802e+002;0.000000e+000
4.532088e+002;0.000000e+000
4.551373e+002;0.000000e+000
4.570659e+002;0.000000e+000
4.589944e+002;0.000000e+000
4.609230e+002;0.000000e+000
4.628515e+002;0.000000e+000
4.647801e+002;0.000000e+000
4.667086e+002;0.000000e+000
4.686372e+002;0.000000e+000
4.705657e+002;0.000000e+000
4.724943e+002;0.000000e+000
4.744228e+002;0.000000e+000
4.763513e+002;0.000000e+000
4.782799e+002;0.000000e+000
4.802085e+002;0.000000e+000
4.821370e+002;0.000000e+000
4.840656e+002;0.000000e+000
4.859941e+002;0.000000e+000
4.879226e+002;0.000000e+000
4.898512e+002;0.000000e+000
4.917798e+002;0.000000e+000
4.937083e+002;0.000000e+000
4.956368e+002;0.000000e+000
4.975654e+002;0.000000e+000
4.994939e+002;0.000000e+000
5.014225e+002;0.000000e+000
5.033510e+002;0.000000e+000
5.052796e+002;0.000000e+000
5.072081e+002;0.000000e+000
5.091367e+002;0.000000e+000
5.110652e+002;0.000000e+000
5.129938e+002;0.000000e+000
5.149223e+002;0.000000e+000
5.168509e+002;0.000000e+000
5.187794e+002;0.000000e+000
5.207079e+002;0.000000e+000
5.226365e+002;0.000000e+000
5.245651e+002;0.000000e+000
5.264936e+002;0.000000e+000
5.284222e+002;0.000000e+000
5.303507e+002;0.000000e+000
5.322792e+002;0.000000e+000
5.342078e+002;0.000000e+000
5.361364e+002;0.000000e+000
5.380649e+002;0.000000e+000
5.399935e+002;0.000000e+000
5.419220e+002;0.000000e+000
5.438505e+002;0.000000e+000
5.457791e+002;0.000000e+000
5.477076e+002;0.000000e+000
5.496362e+002;0.000000e+000
5.515648e+002;0.000000e+000
5.534933e+002;0.000000e+000
5.554218e+002;0.000000e+000
5.573504e+002;0.000000e+000
5.592789e+002;0.000000e+000
5.612075e+002;0.000000e+000
5.631360e+002;0.000000e+000
5.650646e+002;0.000000e+000
5.669931e+002;0.000000e+000
5.689217e+002;0.000000e+000
5.708502e+002;0.000000e+000
5.727787e+002;0.000000e+000
5.747073e+002;0.000000e+000
5.766359e+002;0.000000e+000
5.785644e+002;0.000000e+000
5.804930e+002;0.000000e+000
5.824215e+002;0.000000e+000
5.843500e+002;0.000000e+000
5.862786e+002;0.000000e+000
5.882072e+002;0.000000e+000
5.901357e+002;0.000000e+000
5.920643e+002;0.000000e+000
5.939928e+002;0.000000e+000
5.959213e+002;0.000000e+000
5.978499e+002;0.000000e+000
5.997784e+002;2.302897e-001
6.017070e+002;2.329690e-001
6.036355e+002;2.279946e-001
6.055641e+002;2.283518e-001
6.074926e+002;2.318908e-001
6.094211e+002;2.320420e-001
6.113497e+002;2.285513e-001
6.132783e+002;2.277983e-001
6.152068e+002;2.294497e-001
6.171354e+002;2.273641e-001
6.190639e+002;2.262132e-001
6.209924e+002;2.264681e-001
6.229210e+002;2.305868e-001
6.248495e+002;2.364476e-001
6.267781e+002;2.319663e-001
6.287067e+002;2.240548e-001
6.306352e+002;2.218756e-001
6.325637e+002;2.193711e-001
6.344923e+002;2.154889e-001
6.364208e+002;2.172505e-001
6.383494e+002;2.198799e-001
6.402780e+002;2.195299e-001
6.422065e+002;2.189904e-001
6.441350e+002;2.204771e-001
6.460636e+002;2.181124e-001
6.479921e+002;2.125893e-001
6.499207e+002;2.101744e-001
6.518492e+002;2.108721e-001
6.537778e+002;2.101662e-001
6.557063e+002;2.077477e-001
6.576349e+002;2.091874e-001
6.595634e+002;2.104674e-001
6.614919e+002;2.105253e-001
6.634205e+002;2.128011e-001
6.653491e+002;2.150889e-001
6.672776e+002;2.145809e-001
6.692062e+002;2.133625e-001
6.711347e+002;2.129522e-001
6.730632e+002;2.115238e-001
6.749918e+002;2.108252e-001
6.769203e+002;2.115865e-001
6.788489e+002;2.121866e-001
6.807775e+002;2.100070e-001
6.827060e+002;2.082169e-001
6.846345e+002;2.094048e-001
6.865631e+002;2.105273e-001
6.884916e+002;2.103959e-001
6.904202e+002;2.087340e-001
6.923488e+002;2.066293e-001
6.942773e+002;2.048757e-001
6.962058e+002;2.039727e-001
6.981344e+002;2.033984e-001
7.000629e+002;2.025099e-001
7.019915e+002;2.007087e-001
7.039200e+002;1.982181e-001
7.058486e+002;1.962647e-001
7.077771e+002;1.949264e-001
7.097057e+002;1.919153e-001
7.116342e+002;1.897037e-001
7.135627e+002;1.887348e-001
7.154913e+002;1.871486e-001
7.174199e+002;1.849336e-001
7.193484e+002;1.827585e-001
7.212770e+002;1.814528e-001
7.232055e+002;1.792695e-001
7.251340e+002;1.765822e-001
7.270626e+002;1.742003e-001
7.289911e+002;1.721709e-001
7.309197e+002;1.705779e-001
7.328483e+002;1.673799e-001
7.347768e+002;1.643973e-001
7.367053e+002;1.624524e-001
7.386339e+002;1.604277e-001
7.405624e+002;1.586636e-001
7.424910e+002;1.562840e-001
7.444196e+002;1.535239e-001
7.463481e+002;1.510976e-001
7.482766e+002;1.486383e-001
7.502052e+002;1.467638e-001
7.521337e+002;1.453958e-001
7.540623e+002;1.440783e-001
7.559908e+002;1.429540e-001
7.579194e+002;1.416668e-001
7.598479e+002;1.399252e-001
7.617765e+002;1.387033e-001
7.637050e+002;1.380828e-001
7.656335e+002;1.381013e-001
7.675621e+002;1.375854e-001
7.694907e+002;1.353228e-001
7.714192e+002;1.332837e-001
7.733478e+002;1.326457e-001
7.752763e+002;1.311029e-001
7.772048e+002;1.286264e-001
7.791334e+002;1.268330e-001
7.810620e+002;1.259899e-001
7.829905e+002;1.254523e-001
7.849191e+002;1.243097e-001
7.868476e+002;1.228331e-001
7.887761e+002;1.212829e-001
7.907047e+002;1.205356e-001
7.926332e+002;1.200612e-001
7.945618e+002;1.191188e-001
7.964903e+002;1.190822e-001
7.984189e+002;1.186212e-001
8.003474e+002;1.175255e-001
8.022759e+002;1.178264e-001
8.042045e+002;1.178784e-001
8.061331e+002;1.172355e-001
8.080616e+002;1.169362e-001
8.099902e+002;1.169125e-001
8.119187e+002;1.172228e-001
8.138472e+002;1.174627e-001
8.157758e+002;1.177598e-001
8.177043e+002;1.187679e-001
8.196329e+002;1.193619e-001
8.215615e+002;1.198523e-001
8.234900e+002;1.209705e-001
8.254185e+002;1.216669e-001
8.273471e+002;1.223655e-001
8.292756e+002;1.223128e-001
8.312042e+002;1.208721e-001
8.331328e+002;1.187478e-001
8.350613e+002;1.162776e-001
8.369898e+002;1.150505e-001
8.389184e+002;1.144221e-001
8.408469e+002;1.133126e-001
8.427755e+002;1.129654e-001
8.447040e+002;1.133718e-001
8.466326e+002;1.135760e-001
8.485611e+002;1.136981e-001
8.504897e+002;1.140730e-001
8.524182e+002;1.142123e-001
8.543467e+002;1.133954e-001
8.562753e+002;1.120207e-001
8.582039e+002;1.106463e-001
8.601324e+002;1.098086e-001
8.620610e+002;1.089936e-001
8.639895e+002;1.082193e-001
8.659180e+002;1.077857e-001
8.678466e+002;1.075932e-001
8.697751e+002;1.078431e-001
8.717037e+002;1.087799e-001
8.736323e+002;1.099515e-001
8.755608e+002;1.105496e-001
8.774893e+002;1.105704e-001
8.794179e+002;1.104787e-001
8.813464e+002;1.104346e-001
8.832750e+002;1.100824e-001
8.852036e+002;1.098432e-001
8.871321e+002;1.100409e-001
8.890606e+002;1.098823e-001
8.909892e+002;1.096227e-001
8.929177e+002;1.098715e-001
8.948463e+002;1.100015e-001
8.967748e+002;1.100075e-001
8.987034e+002;1.097759e-001
9.006319e+002;1.092885e-001
9.025605e+002;1.089575e-001
9.044890e+002;1.088216e-001
9.064175e+002;1.088420e-001
9.083461e+002;1.090186e-001
9.102747e+002;1.092122e-001
9.122032e+002;1.099140e-001
9.141318e+002;1.104630e-001
9.160603e+002;1.107794e-001
9.179888e+002;1.118241e-001
9.199174e+002;1.129427e-001
9.218459e+002;1.137925e-001
9.237745e+002;1.146354e-001
9.257031e+002;1.153396e-001
9.276316e+002;1.159151e-001
9.295601e+002;1.163045e-001
9.314887e+002;1.162217e-001
9.334172e+002;1.158943e-001
9.353458e+002;1.159657e-001
9.372744e+002;1.160621e-001
9.392029e+002;1.160031e-001
9.411314e+002;1.163145e-001
9.430600e+002;1.169060e-001
9.449885e+002;1.174412e-001
9.469171e+002;1.178776e-001
9.488456e+002;1.183910e-001
9.507742e+002;1.191525e-001
9.527027e+002;1.199600e-001
9.546313e+002;1.206998e-001
9.565598e+002;1.215266e-001
9.584883e+002;1.224067e-001
9.604169e+002;1.236666e-001
9.623455e+002;1.250067e-001
9.642740e+002;1.261163e-001
9.662026e+002;1.270752e-001
9.681311e+002;1.284760e-001
9.700596e+002;1.302345e-001
9.719882e+002;1.316993e-001
9.739167e+002;1.325064e-001
9.758453e+002;1.328395e-001
9.777739e+002;1.330137e-001
9.797024e+002;1.323357e-001
9.816309e+002;1.315783e-001
9.835595e+002;1.317966e-001
9.854880e+002;1.325918e-001
9.874166e+002;1.339813e-001
9.893452e+002;1.356349e-001
9.912737e+002;1.373115e-001
9.932022e+002;1.384885e-001
9.951307e+002;1.394630e-001
9.970593e+002;1.400386e-001
9.989879e+002;1.397194e-001
1.000916e+003;1.393839e-001
1.002845e+003;1.388270e-001
1.004773e+003;1.380358e-001
1.006702e+003;1.380349e-001
1.008631e+003;1.386340e-001
1.010559e+003;1.389197e-001
1.012488e+003;1.390605e-001
1.014416e+003;1.391774e-001
1.016345e+003;1.387689e-001
1.018273e+003;1.383899e-001
1.020202e+003;1.382649e-001
1.022130e+003;1.384188e-001
1.024059e+003;1.390842e-001
1.025988e+003;1.404338e-001
1.027916e+003;1.421686e-001
1.029845e+003;1.449413e-001
1.031773e+003;1.482926e-001
1.033702e+003;1.508876e-001
1.035630e+003;1.528582e-001
1.037559e+003;1.545704e-001
1.039487e+003;1.559156e-001
1.041416e+003;1.572416e-001
1.043344e+003;1.590430e-001
1.045273e+003;1.600979e-001
1.047202e+003;1.599188e-001
1.049130e+003;1.586784e-001
1.051059e+003;1.567975e-001
1.052987e+003;1.556242e-001
1.054916e+003;1.555845e-001
1.056844e+003;1.556461e-001
1.058773e+003;1.555446e-001
1.060701e+003;1.559911e-001
1.062630e+003;1.564185e-001
1.064558e+003;1.564681e-001
1.066487e+003;1.560208e-001
1.068416e+003;1.552787e-001
1.070344e+003;1.549715e-001
1.072273e+003;1.541021e-001
1.074201e+003;1.524578e-001
1.076130e+003;1.503751e-001
1.078058e+003;1.480373e-001
1.079987e+003;1.454851e-001
1.081915e+003;1.429167e-001
1.083844e+003;1.406264e-001
1.085773e+003;1.389980e-001
1.087701e+003;1.375619e-001
1.089630e+003;1.356586e-001
1.091558e+003;1.343259e-001
1.093487e+003;1.341741e-001
1.095415e+003;1.339437e-001
1.097344e+003;1.338815e-001
1.099272e+003;1.345021e-001
1.101201e+003;1.352373e-001
1.103129e+003;1.349948e-001
1.105058e+003;1.338096e-001
1.106987e+003;1.325703e-001
1.108915e+003;1.318742e-001
1.110844e+003;1.314118e-001
1.112772e+003;1.311117e-001
1.114701e+003;1.315013e-001
1.116629e+003;1.319526e-001
1.118558e+003;1.324336e-001
1.120486e+003;1.329833e-001
1.122415e+003;1.333007e-001
1.124344e+003;1.336407e-001
1.126272e+003;1.343516e-001
1.128201e+003;1.352584e-001
1.130129e+003;1.363493e-001
1.132058e+003;1.374480e-001
1.133986e+003;1.389730e-001
1.135915e+003;1.407907e-001
1.137843e+003;1.426761e-001
1.139772e+003;1.443785e-001
1.141700e+003;1.465252e-001
1.143629e+003;1.490010e-001
1.145557e+003;1.508278e-001
1.147486e+003;1.530874e-001
1.149415e+003;1.558619e-001
1.151343e+003;1.580302e-001
1.153272e+003;1.596386e-001
1.155200e+003;1.608935e-001
1.157129e+003;1.620548e-001
1.159057e+003;1.635020e-001
1.160986e+003;1.649037e-001
1.162914e+003;1.658308e-001
1.164843e+003;1.666663e-001
1.166771e+003;1.676626e-001
1.168700e+003;1.686943e-001
1.170629e+003;1.686668e-001
1.172557e+003;1.681574e-001
1.174486e+003;1.675425e-001
1.176414e+003;1.666556e-001
1.178343e+003;1.658310e-001
1.180271e+003;1.650890e-001
1.182200e+003;1.646782e-001
1.184128e+003;1.651234e-001
1.186057e+003;1.659763e-001
1.187986e+003;1.670558e-001
1.189914e+003;1.683342e-001
1.191843e+003;1.697195e-001
1.193771e+003;1.717138e-001
1.195700e+003;1.737358e-001
1.197628e+003;1.757170e-001
1.199557e+003;1.781180e-001
1.201485e+003;1.805818e-001
1.203414e+003;1.837365e-001
1.205343e+003;1.875478e-001
1.207271e+003;1.916287e-001
1.209200e+003;1.954713e-001
1.211128e+003;1.991609e-001
1.213057e+003;2.031816e-001
1.214985e+003;2.067377e-001
1.216914e+003;2.092783e-001
1.218842e+003;2.117399e-001
1.220771e+003;2.141538e-001
1.222699e+003;2.160272e-001
1.224628e+003;2.173807e-001
1.226557e+003;2.183741e-001
1.228485e+003;2.188725e-001
1.230414e+003;2.186263e-001
1.232342e+003;2.174913e-001
1.234271e+003;2.158926e-001
1.236199e+003;2.140983e-001
1.238128e+003;2.120086e-001
1.240056e+003;2.098608e-001
1.241985e+003;2.077985e-001
1.243913e+003;2.058423e-001
1.245842e+003;2.041516e-001
1.247771e+003;2.029082e-001
1.249699e+003;2.018859e-001
1.251628e+003;2.007151e-001
1.253556e+003;1.998532e-001
1.255485e+003;1.995234e-001
1.257413e+003;1.988725e-001
1.259342e+003;1.974761e-001
1.261270e+003;1.955316e-001
1.263199e+003;1.932787e-001
1.265127e+003;1.910906e-001
1.267056e+003;1.888544e-001
1.268985e+003;1.864792e-001
1.270913e+003;1.839723e-001
1.272842e+003;1.814198e-001
1.274770e+003;1.794582e-001
1.276699e+003;1.777909e-001
1.278627e+003;1.761307e-001
1.280556e+003;1.746471e-001
1.282484e+003;1.737401e-001
1.284413e+003;1.732246e-001
1.286342e+003;1.726083e-001
1.288270e+003;1.719191e-001
1.290199e+003;1.716698e-001
1.292127e+003;1.714537e-001
1.294056e+003;1.712587e-001
1.295984e+003;1.711515e-001
1.297913e+003;1.706649e-001
1.299841e+003;1.699262e-001
1.301770e+003;1.692308e-001
1.303698e+003;1.684100e-001
1.305627e+003;1.678302e-001
1.307556e+003;1.678181e-001
1.309484e+003;1.677012e-001
1.311413e+003;1.675350e-001
1.313341e+003;1.676528e-001
1.315270e+003;1.680593e-001
1.317198e+003;1.688454e-001
1.319127e+003;1.698604e-001
1.321055e+003;1.704862e-001
1.322984e+003;1.709411e-001
1.324912e+003;1.714434e-001
1.326841e+003;1.717642e-001
1.328770e+003;1.717981e-001
1.330698e+003;1.718730e-001
1.332627e+003;1.719829e-001
1.334555e+003;1.713080e-001
1.336484e+003;1.700996e-001
1.338412e+003;1.691271e-001
1.340341e+003;1.684553e-001
1.342269e+003;1.675110e-001
1.344198e+003;1.663755e-001
1.346126e+003;1.656182e-001
1.348055e+003;1.651012e-001
1.349984e+003;1.644072e-001
1.351912e+003;1.638793e-001
1.353841e+003;1.638098e-001
1.355769e+003;1.642998e-001
1.357698e+003;1.655763e-001
1.359626e+003;1.673094e-001
1.361555e+003;1.692518e-001
1.363483e+003;1.713867e-001
1.365412e+003;1.735347e-001
1.367341e+003;1.749752e-001
1.369269e+003;1.757559e-001
1.371198e+003;1.757460e-001
1.373126e+003;1.751779e-001
1.375055e+003;1.748552e-001
1.376983e+003;1.747576e-001
1.378912e+003;1.746958e-001
1.380840e+003;1.751441e-001
1.382769e+003;1.757162e-001
1.384698e+003;1.760393e-001
1.386626e+003;1.762852e-001
1.388555e+003;1.768023e-001
1.390483e+003;1.773340e-001
1.392412e+003;1.780309e-001
1.394340e+003;1.787497e-001
1.396269e+003;1.795514e-001
1.398197e+003;1.804432e-001
1.400126e+003;1.815173e-001
1.402054e+003;1.828912e-001
1.403983e+003;1.839499e-001
1.405911e+003;1.848041e-001
1.407840e+003;1.857714e-001
1.409769e+003;1.863695e-001
1.411697e+003;1.866414e-001
1.413626e+003;1.867371e-001
1.415554e+003;1.869407e-001
1.417483e+003;1.870523e-001
1.419411e+003;1.871231e-001
1.421340e+003;1.875561e-001
1.423268e+003;1.885839e-001
1.425197e+003;1.902993e-001
1.427125e+003;1.927858e-001
1.429054e+003;1.958481e-001
1.430983e+003;1.997842e-001
1.432911e+003;2.044207e-001
1.434840e+003;2.088505e-001
1.436768e+003;2.126757e-001
1.438697e+003;2.153876e-001
1.440625e+003;2.167062e-001
1.442554e+003;2.174110e-001
1.444482e+003;2.174709e-001
1.446411e+003;2.165316e-001
1.448340e+003;2.148693e-001
1.450268e+003;2.121000e-001
1.452197e+003;2.085589e-001
1.454125e+003;2.048664e-001
1.456054e+003;2.008942e-001
1.457982e+003;1.975634e-001
1.459911e+003;1.953544e-001
1.461839e+003;1.934403e-001
1.463768e+003;1.919178e-001
1.465697e+003;1.913192e-001
1.467625e+003;1.914723e-001
1.469554e+003;1.917446e-001
1.471482e+003;1.922883e-001
1.473411e+003;1.935120e-001
1.475339e+003;1.955181e-001
1.477268e+003;1.982450e-001
1.479196e+003;2.019977e-001
1.481125e+003;2.066620e-001
1.483053e+003;2.116704e-001
1.484982e+003;2.171414e-001
1.486911e+003;2.234295e-001
1.488839e+003;2.302864e-001
1.490768e+003;2.375647e-001
1.492696e+003;2.451868e-001
1.494625e+003;2.526532e-001
1.496553e+003;2.599753e-001
1.498482e+003;2.672117e-001
1.500410e+003;2.737948e-001
1.502339e+003;2.799619e-001
1.504267e+003;2.855385e-001
1.506196e+003;2.903403e-001
1.508125e+003;2.950747e-001
1.510053e+003;2.996926e-001
1.511982e+003;3.033029e-001
1.513910e+003;3.047549e-001
1.515839e+003;3.025347e-001
1.517767e+003;2.979028e-001
1.519696e+003;2.920215e-001
1.521624e+003;2.860562e-001
1.523553e+003;2.813507e-001
1.525481e+003;2.773132e-001
1.527410e+003;2.733739e-001
1.529339e+003;2.693999e-001
1.531267e+003;2.653290e-001
1.533196e+003;2.608175e-001
1.535124e+003;2.561707e-001
1.537053e+003;2.513521e-001
1.538981e+003;2.463772e-001
1.540910e+003;2.420838e-001
1.542838e+003;2.388286e-001
1.544767e+003;2.351415e-001
1.546695e+003;2.306873e-001
1.548624e+003;2.263808e-001
1.550553e+003;2.220891e-001
1.552481e+003;2.178610e-001
1.554410e+003;2.135552e-001
1.556338e+003;2.090044e-001
1.558267e+003;2.042042e-001
1.560195e+003;1.997596e-001
1.562124e+003;1.957569e-001
1.564052e+003;1.916405e-001
1.565981e+003;1.876146e-001
1.567910e+003;1.838799e-001
1.569838e+003;1.807551e-001
1.571767e+003;1.784063e-001
1.573695e+003;1.763321e-001
1.575624e+003;1.746902e-001
1.577552e+003;1.742525e-001
1.579481e+003;1.746621e-001
1.581409e+003;1.754070e-001
1.583338e+003;1.766834e-001
1.585266e+003;1.785518e-001
1.587195e+003;1.812787e-001
1.589124e+003;1.845174e-001
1.591052e+003;1.883045e-001
1.592981e+003;1.926600e-001
1.594909e+003;1.973907e-001
1.596838e+003;2.027519e-001
1.598766e+003;2.088534e-001
1.600695e+003;2.161367e-001
1.602623e+003;2.251945e-001
1.604552e+003;2.352600e-001
1.606480e+003;2.460896e-001
1.608409e+003;2.581312e-001
1.610338e+003;2.705725e-001
1.612266e+003;2.822905e-001
1.614195e+003;2.926196e-001
1.616123e+003;3.018391e-001
1.618052e+003;3.099031e-001
1.619980e+003;3.151832e-001
1.621909e+003;3.170517e-001
1.623837e+003;3.166016e-001
1.625766e+003;3.138176e-001
1.627694e+003;3.091248e-001
1.629623e+003;3.032137e-001
1.631552e+003;2.965466e-001
1.633480e+003;2.893276e-001
1.635409e+003;2.820550e-001
1.637337e+003;2.758561e-001
1.639266e+003;2.702451e-001
1.641194e+003;2.647992e-001
1.643123e+003;2.595836e-001
1.645051e+003;2.540596e-001
1.646980e+003;2.487968e-001
1.648909e+003;2.440981e-001
1.650837e+003;2.387417e-001
1.652766e+003;2.326635e-001
1.654694e+003;2.274624e-001
1.656623e+003;2.225203e-001
1.658551e+003;2.168420e-001
1.660480e+003;2.110726e-001
1.662408e+003;2.053051e-001
1.664337e+003;2.001417e-001
1.666266e+003;1.953477e-001
1.668194e+003;1.901185e-001
1.670123e+003;1.851632e-001
1.672051e+003;1.808778e-001
1.673980e+003;1.764439e-001
1.675908e+003;1.717645e-001
1.677837e+003;1.675531e-001
1.679765e+003;1.635525e-001
1.681694e+003;1.596882e-001
1.683622e+003;1.556436e-001
1.685551e+003;1.519808e-001
1.687479e+003;1.494240e-001
1.689408e+003;1.472744e-001
1.691337e+003;1.451870e-001
1.693265e+003;1.431023e-001
1.695194e+003;1.411670e-001
1.697122e+003;1.396641e-001
1.699051e+003;1.367496e-001
1.700979e+003;1.313348e-001
1.702908e+003;1.241390e-001
1.704836e+003;1.152614e-001
1.706765e+003;1.065310e-001
1.708693e+003;9.918077e-002
1.710622e+003;9.347919e-002
1.712551e+003;8.927327e-002
1.714479e+003;8.597693e-002
1.716408e+003;8.289555e-002
1.718336e+003;8.067096e-002
1.720265e+003;7.943371e-002
1.722193e+003;7.846974e-002
1.724122e+003;7.768289e-002
1.726050e+003;7.699841e-002
1.727979e+003;7.636920e-002
1.729908e+003;7.604488e-002
1.731836e+003;7.555606e-002
1.733765e+003;7.501022e-002
1.735693e+003;7.491315e-002
1.737622e+003;7.479683e-002
1.739550e+003;7.436847e-002
1.741479e+003;7.419249e-002
1.743407e+003;7.415071e-002
1.745336e+003;7.411460e-002
1.747265e+003;7.384186e-002
1.749193e+003;7.352770e-002
1.751122e+003;7.309079e-002
1.753050e+003;7.300545e-002
1.754979e+003;7.300004e-002
1.756907e+003;7.300286e-002
1.758836e+003;7.292376e-002
1.760764e+003;7.254963e-002
1.762693e+003;7.246072e-002
1.764621e+003;7.262193e-002
1.766550e+003;7.252074e-002
1.768479e+003;7.238767e-002
1.770407e+003;7.227425e-002
1.772336e+003;7.208069e-002
1.774264e+003;7.215631e-002
1.776193e+003;7.234547e-002
1.778121e+003;7.221207e-002
1.780050e+003;7.213644e-002
1.781978e+003;7.235393e-002
1.783907e+003;7.236187e-002
1.785835e+003;7.224161e-002
1.787764e+003;7.223077e-002
1.789693e+003;7.211563e-002
1.791621e+003;7.159261e-002
1.793550e+003;7.142478e-002
1.795478e+003;7.166193e-002
1.797407e+003;7.180580e-002
1.799335e+003;7.170437e-002
1.801264e+003;7.150295e-002
1.803192e+003;7.141607e-002
1.805121e+003;7.116732e-002
1.807049e+003;7.104492e-002
1.808978e+003;7.100887e-002
1.810907e+003;7.093091e-002
1.812835e+003;7.088628e-002
1.814764e+003;7.068174e-002
1.816692e+003;7.050662e-002
1.818621e+003;7.070571e-002
1.820549e+003;7.064212e-002
1.822478e+003;7.042599e-002
1.824406e+003;7.044010e-002
1.826335e+003;7.035699e-002
1.828264e+003;7.022228e-002
1.830192e+003;7.032505e-002
1.832121e+003;7.028686e-002
1.834049e+003;6.997320e-002
1.835978e+003;6.979576e-002
1.837906e+003;6.974375e-002
1.839835e+003;6.977950e-002
1.841763e+003;6.962696e-002
1.843692e+003;6.939311e-002
1.845620e+003;6.938223e-002
1.847549e+003;6.932194e-002
1.849478e+003;6.908906e-002
1.851406e+003;6.897984e-002
1.853335e+003;6.902426e-002
1.855263e+003;6.896232e-002
1.857192e+003;6.893661e-002
1.859120e+003;6.880561e-002
1.861049e+003;6.889495e-002
1.862977e+003;6.911381e-002
1.864906e+003;6.902602e-002
1.866834e+003;6.883628e-002
1.868763e+003;6.882285e-002
1.870692e+003;6.884299e-002
1.872620e+003;6.876384e-002
1.874549e+003;6.889459e-002
1.876477e+003;6.895525e-002
1.878406e+003;6.891289e-002
1.880334e+003;6.897650e-002
1.882263e+003;6.886443e-002
1.884191e+003;6.872991e-002
1.886120e+003;6.883775e-002
1.888048e+003;6.886408e-002
1.889977e+003;6.868147e-002
1.891906e+003;6.865954e-002
1.893834e+003;6.872734e-002
1.895763e+003;6.864887e-002
1.897691e+003;6.864150e-002
1.899620e+003;6.851430e-002
1.901548e+003;6.835232e-002
1.903477e+003;6.823781e-002
1.905405e+003;6.811101e-002
1.907334e+003;6.820459e-002
1.909262e+003;6.814962e-002
1.911191e+003;6.802850e-002
1.913120e+003;6.770368e-002
1.915048e+003;6.770879e-002
1.916977e+003;6.796824e-002
1.918905e+003;6.797530e-002
1.920834e+003;6.799521e-002
1.922762e+003;6.787007e-002
1.924691e+003;6.786744e-002
1.926619e+003;6.804857e-002
1.928548e+003;6.805384e-002
1.930477e+003;6.790749e-002
1.932405e+003;6.787363e-002
1.934334e+003;6.783218e-002
1.936262e+003;6.777083e-002
1.938191e+003;6.794976e-002
1.940119e+003;6.789149e-002
1.942048e+003;6.783300e-002
1.943976e+003;6.798355e-002
1.945905e+003;6.789134e-002
1.947833e+003;6.804238e-002
1.949762e+003;6.829970e-002
1.951691e+003;6.826182e-002
1.953619e+003;6.822370e-002
1.955548e+003;6.811419e-002
1.957476e+003;6.804447e-002
1.959405e+003;6.799254e-002
1.961333e+003;6.796042e-002
1.963262e+003;6.791783e-002
1.965190e+003;6.790377e-002
1.967119e+003;6.803416e-002
1.969047e+003;6.815691e-002
1.970976e+003;6.818897e-002
1.972905e+003;6.819323e-002
1.974833e+003;6.815144e-002
1.976762e+003;6.810381e-002
1.978690e+003;6.807070e-002
1.980619e+003;6.787746e-002
1.982547e+003;6.800579e-002
1.984476e+003;6.817164e-002
1.986404e+003;6.796735e-002
1.988333e+003;6.792764e-002
1.990261e+003;6.814202e-002
1.992190e+003;6.820990e-002
1.994119e+003;6.781208e-002
1.996047e+003;6.761362e-002
1.997976e+003;6.779689e-002
1.999904e+003;6.794670e-002
2.001833e+003;6.788003e-002
2.003761e+003;6.779303e-002
2.005690e+003;6.778206e-002
2.007618e+003;6.774767e-002
2.009547e+003;6.783175e-002
2.011476e+003;6.787057e-002
2.013404e+003;6.783362e-002
2.015333e+003;6.792101e-002
2.017261e+003;6.796646e-002
2.019190e+003;6.805291e-002
2.021118e+003;6.805485e-002
2.023047e+003;6.797285e-002
2.024975e+003;6.798723e-002
2.026904e+003;6.810547e-002
2.028833e+003;6.804392e-002
2.030761e+003;6.779868e-002
2.032690e+003;6.763824e-002
2.034618e+003;6.774523e-002
2.036547e+003;6.785027e-002
2.038475e+003;6.788269e-002
2.040404e+003;6.796770e-002
2.042332e+003;6.789692e-002
2.044261e+003;6.764746e-002
2.046189e+003;6.763398e-002
2.048118e+003;6.784198e-002
2.050047e+003;6.793132e-002
2.051975e+003;6.788641e-002
2.053904e+003;6.787448e-002
2.055832e+003;6.769814e-002
2.057761e+003;6.767177e-002
2.059689e+003;6.777234e-002
2.061618e+003;6.772246e-002
2.063546e+003;6.762620e-002
2.065475e+003;6.772757e-002
2.067404e+003;6.785085e-002
2.069332e+003;6.778663e-002
2.071260e+003;6.773063e-002
2.073189e+003;6.779573e-002
2.075118e+003;6.781444e-002
2.077046e+003;6.774601e-002
2.078975e+003;6.771266e-002
2.080903e+003;6.787506e-002
2.082832e+003;6.805097e-002
2.084760e+003;6.814849e-002
2.086689e+003;6.817280e-002
2.088617e+003;6.811640e-002
2.090546e+003;6.794077e-002
2.092475e+003;6.785508e-002
2.094403e+003;6.784303e-002
2.096332e+003;6.778346e-002
2.098260e+003;6.778516e-002
2.100189e+003;6.780898e-002
2.102117e+003;6.787185e-002
2.104046e+003;6.799118e-002
2.105974e+003;6.795553e-002
2.107903e+003;6.789831e-002
2.109832e+003;6.783102e-002
2.111760e+003;6.782765e-002
2.113688e+003;6.795701e-002
2.115617e+003;6.804741e-002
2.117546e+003;6.788572e-002
2.119474e+003;6.772068e-002
2.121403e+003;6.786279e-002
2.123331e+003;6.785090e-002
2.125260e+003;6.768130e-002
2.127188e+003;6.775828e-002
2.129117e+003;6.770732e-002
2.131045e+003;6.739891e-002
2.132974e+003;6.743324e-002
2.134903e+003;6.762829e-002
2.136831e+003;6.739586e-002
2.138760e+003;6.718013e-002
2.140688e+003;6.731804e-002
2.142617e+003;6.728853e-002
2.144545e+003;6.726462e-002
2.146474e+003;6.746613e-002
2.148402e+003;6.738967e-002
2.150331e+003;6.721421e-002
2.152260e+003;6.704641e-002
2.154188e+003;6.701471e-002
2.156117e+003;6.705704e-002
2.158045e+003;6.706896e-002
2.159974e+003;6.696577e-002
2.161902e+003;6.696252e-002
2.163831e+003;6.708937e-002
2.165759e+003;6.706033e-002
2.167688e+003;6.692494e-002
2.169616e+003;6.693426e-002
2.171545e+003;6.675830e-002
2.173474e+003;6.673118e-002
2.175402e+003;6.685502e-002
2.177331e+003;6.668458e-002
2.179259e+003;6.664100e-002
2.181188e+003;6.674071e-002
2.183116e+003;6.670965e-002
2.185045e+003;6.671120e-002
2.186973e+003;6.663386e-002
2.188902e+003;6.678700e-002
2.190831e+003;6.704228e-002
2.192759e+003;6.704270e-002
2.194688e+003;6.688192e-002
2.196616e+003;6.689247e-002
2.198545e+003;6.702723e-002
2.200473e+003;6.689062e-002
2.202402e+003;6.667233e-002
2.204330e+003;6.663498e-002
2.206259e+003;6.657074e-002
2.208188e+003;6.640273e-002
2.210116e+003;6.640609e-002
2.212044e+003;6.643192e-002
2.213973e+003;6.637983e-002
2.215902e+003;6.631780e-002
2.217830e+003;6.628838e-002
2.219759e+003;6.623659e-002
2.221687e+003;6.622856e-002
2.223616e+003;6.633528e-002
2.225544e+003;6.635215e-002
2.227473e+003;6.612495e-002
2.229401e+003;6.606936e-002
2.231330e+003;6.601527e-002
2.233259e+003;6.579242e-002
2.235187e+003;6.579820e-002
2.237116e+003;6.585025e-002
2.239044e+003;6.594030e-002
2.240973e+003;6.592807e-002
2.242901e+003;6.559445e-002
2.244830e+003;6.547312e-002
2.246758e+003;6.545647e-002
2.248687e+003;6.538902e-002
2.250615e+003;6.545397e-002
2.252544e+003;6.537747e-002
2.254473e+003;6.525419e-002
2.256401e+003;6.523752e-002
2.258330e+003;6.537943e-002
2.260258e+003;6.533568e-002
2.262187e+003;6.507545e-002
2.264115e+003;6.503215e-002
2.266044e+003;6.496834e-002
2.267972e+003;6.495814e-002
2.269901e+003;6.494968e-002
2.271830e+003;6.493267e-002
2.273758e+003;6.483480e-002
2.275687e+003;6.490508e-002
2.277615e+003;6.513434e-002
2.279544e+003;6.512833e-002
2.281472e+003;6.490935e-002
2.283401e+003;6.483818e-002
2.285329e+003;6.497665e-002
2.287258e+003;6.524079e-002
2.289187e+003;6.533383e-002
2.291115e+003;6.515967e-002
2.293043e+003;6.498104e-002
2.294972e+003;6.484230e-002
2.296901e+003;6.507660e-002
2.298829e+003;6.526197e-002
2.300758e+003;6.503053e-002
2.302686e+003;6.501590e-002
2.304615e+003;6.499963e-002
2.306543e+003;6.491305e-002
2.308472e+003;6.504850e-002
2.310400e+003;6.512268e-002
2.312329e+003;6.500224e-002
2.314258e+003;6.476413e-002
2.316186e+003;6.475633e-002
2.318115e+003;6.464300e-002
2.320043e+003;6.448779e-002
2.321972e+003;6.464887e-002
2.323900e+003;6.461154e-002
2.325829e+003;6.429430e-002
2.327757e+003;6.416503e-002
2.329686e+003;6.423621e-002
2.331615e+003;6.420936e-002
2.333543e+003;6.414103e-002
2.335472e+003;6.428096e-002
2.337400e+003;6.449240e-002
2.339329e+003;6.436919e-002
2.341257e+003;6.422457e-002
2.343186e+003;6.424224e-002
2.345114e+003;6.406276e-002
2.347043e+003;6.387602e-002
2.348971e+003;6.393345e-002
2.350900e+003;6.400489e-002
2.352829e+003;6.413960e-002
2.354757e+003;6.438952e-002
2.356686e+003;6.433468e-002
2.358614e+003;6.411595e-002
2.360543e+003;6.392020e-002
2.362471e+003;6.381706e-002
2.364400e+003;6.392001e-002
2.366328e+003;6.414832e-002
2.368257e+003;6.427348e-002
2.370186e+003;6.428707e-002
2.372114e+003;6.431673e-002
2.374042e+003;6.436819e-002
2.375971e+003;6.455772e-002
2.377900e+003;6.468883e-002
2.379828e+003;6.482583e-002
2.381757e+003;6.489685e-002
2.383685e+003;6.485930e-002
2.385614e+003;6.474914e-002
2.387542e+003;6.456979e-002
2.389471e+003;6.435670e-002
2.391399e+003;6.421735e-002
2.393328e+003;6.455291e-002
2.395257e+003;6.510813e-002
2.397185e+003;6.533521e-002
2.399114e+003;6.528781e-002
2.401042e+003;6.531754e-002
2.402971e+003;6.529501e-002
2.404899e+003;6.529166e-002
2.406828e+003;6.553422e-002
2.408756e+003;6.579982e-002
2.410685e+003;6.587204e-002
2.412614e+003;6.597736e-002
2.414542e+003;6.620155e-002
2.416471e+003;6.640655e-002
2.418399e+003;6.661315e-002
2.420328e+003;6.683613e-002
2.422256e+003;6.679980e-002
2.424185e+003;6.676660e-002
2.426113e+003;6.703620e-002
2.428042e+003;6.726717e-002
2.429970e+003;6.729096e-002
2.431899e+003;6.728841e-002
2.433828e+003;6.734768e-002
2.435756e+003;6.742604e-002
2.437685e+003;6.753085e-002
2.439613e+003;6.772812e-002
2.441542e+003;6.774907e-002
2.443470e+003;6.763379e-002
2.445399e+003;6.774666e-002
2.447327e+003;6.777366e-002
2.449256e+003;6.762853e-002
2.451185e+003;6.769241e-002
2.453113e+003;6.792570e-002
2.455042e+003;6.787142e-002
2.456970e+003;6.764475e-002
2.458899e+003;6.750387e-002
2.460827e+003;6.761722e-002
2.462756e+003;6.780379e-002
2.464684e+003;6.784632e-002
2.466613e+003;6.780972e-002
2.468542e+003;6.786515e-002
2.470470e+003;6.801517e-002
2.472398e+003;6.801389e-002
2.474327e+003;6.810295e-002
2.476256e+003;6.818478e-002
2.478184e+003;6.800006e-002
2.480113e+003;6.771030e-002
2.482041e+003;6.772169e-002
2.483970e+003;6.795692e-002
2.485898e+003;6.807876e-002
2.487827e+003;6.809117e-002
2.489755e+003;6.834115e-002
2.491684e+003;6.841911e-002
2.493613e+003;6.835837e-002
2.495541e+003;6.843978e-002
2.497470e+003;6.857134e-002
2.499398e+003;6.869626e-002
2.501327e+003;6.864581e-002
2.503255e+003;6.873049e-002
2.505184e+003;6.890632e-002
2.507112e+003;6.887972e-002
2.509041e+003;6.874528e-002
2.510969e+003;6.862163e-002
2.512898e+003;6.866269e-002
2.514827e+003;6.879737e-002
2.516755e+003;6.880599e-002
2.518684e+003;6.871291e-002
2.520612e+003;6.856661e-002
2.522541e+003;6.869999e-002
2.524469e+003;6.895056e-002
2.526398e+003;6.927025e-002
2.528326e+003;6.943685e-002
2.530255e+003;6.920500e-002
2.532184e+003;6.903806e-002
2.534112e+003;6.916817e-002
2.536041e+003;6.933776e-002
2.537969e+003;6.927775e-002
2.539898e+003;6.933542e-002
2.541826e+003;6.944696e-002
2.543755e+003;6.967878e-002
2.545683e+003;6.999037e-002
2.547612e+003;7.007854e-002
2.549541e+003;7.000605e-002
2.551469e+003;6.984635e-002
2.553397e+003;6.973425e-002
2.555326e+003;7.001127e-002
2.557255e+003;7.022408e-002
2.559183e+003;7.015962e-002
2.561112e+003;7.010210e-002
2.563040e+003;7.024429e-002
2.564969e+003;7.073110e-002
2.566897e+003;7.092912e-002
2.568826e+003;7.102858e-002
2.570754e+003;7.109933e-002
2.572683e+003;7.104063e-002
2.574612e+003;7.099003e-002
2.576540e+003;7.125574e-002
2.578469e+003;7.158909e-002
2.580397e+003;7.170667e-002
2.582326e+003;7.170132e-002
2.584254e+003;7.177175e-002
2.586183e+003;7.193607e-002
2.588111e+003;7.214560e-002
2.590040e+003;7.249106e-002
2.591969e+003;7.277302e-002
2.593897e+003;7.278704e-002
2.595826e+003;7.264825e-002
2.597754e+003;7.271174e-002
2.599683e+003;7.268757e-002
2.601611e+003;7.267680e-002
2.603540e+003;7.288288e-002
2.605468e+003;7.294069e-002
2.607397e+003;7.283387e-002
2.609325e+003;7.284554e-002
2.611254e+003;7.308930e-002
2.613183e+003;7.328432e-002
2.615111e+003;7.323639e-002
2.617040e+003;7.336435e-002
2.618968e+003;7.341335e-002
2.620897e+003;7.333280e-002
2.622825e+003;7.357845e-002
2.624754e+003;7.369190e-002
2.626682e+003;7.344635e-002
2.628611e+003;7.330675e-002
2.630540e+003;7.332473e-002
2.632468e+003;7.343885e-002
2.634396e+003;7.360522e-002
2.636325e+003;7.350584e-002
2.638254e+003;7.320866e-002
2.640182e+003;7.297511e-002
2.642111e+003;7.281921e-002
2.644039e+003;7.293764e-002
2.645968e+003;7.320996e-002
2.647896e+003;7.323113e-002
2.649825e+003;7.326122e-002
2.651753e+003;7.320365e-002
2.653682e+003;7.328413e-002
2.655611e+003;7.348999e-002
2.657539e+003;7.363093e-002
2.659468e+003;7.351683e-002
2.661396e+003;7.350729e-002
2.663325e+003;7.356966e-002
2.665253e+003;7.356926e-002
2.667182e+003;7.381307e-002
2.669110e+003;7.411051e-002
2.671039e+003;7.426954e-002
2.672968e+003;7.413271e-002
2.674896e+003;7.409298e-002
2.676825e+003;7.440115e-002
2.678753e+003;7.436658e-002
2.680682e+003;7.423452e-002
2.682610e+003;7.451017e-002
2.684539e+003;7.464983e-002
2.686467e+003;7.469603e-002
2.688396e+003;7.476872e-002
2.690324e+003;7.486492e-002
2.692253e+003;7.500037e-002
2.694182e+003;7.512833e-002
2.696110e+003;7.506642e-002
2.698039e+003;7.483505e-002
2.699967e+003;7.498351e-002
2.701896e+003;7.520035e-002
2.703824e+003;7.524054e-002
2.705753e+003;7.561225e-002
2.707681e+003;7.594616e-002
2.709610e+003;7.602356e-002
2.711539e+003;7.601776e-002
2.713467e+003;7.596933e-002
2.715396e+003;7.605281e-002
2.717324e+003;7.659613e-002
2.719253e+003;7.687955e-002
2.721181e+003;7.681144e-002
2.723110e+003;7.691573e-002
2.725038e+003;7.710192e-002
2.726967e+003;7.723109e-002
2.728896e+003;7.733283e-002
2.730824e+003;7.742193e-002
2.732752e+003;7.734503e-002
2.734681e+003;7.727563e-002
2.736610e+003;7.729127e-002
2.738538e+003;7.751254e-002
2.740467e+003;7.766110e-002
2.742395e+003;7.778136e-002
2.744324e+003;7.793315e-002
2.746252e+003;7.803469e-002
2.748181e+003;7.818061e-002
2.750109e+003;7.832384e-002
2.752038e+003;7.838777e-002
2.753967e+003;7.839429e-002
2.755895e+003;7.857367e-002
2.757824e+003;7.885472e-002
2.759752e+003;7.899571e-002
2.761681e+003;7.903319e-002
2.763609e+003;7.908598e-002
2.765538e+003;7.915904e-002
2.767466e+003;7.899527e-002
2.769395e+003;7.909007e-002
2.771323e+003;7.958774e-002
2.773252e+003;7.973363e-002
2.775181e+003;7.968028e-002
2.777109e+003;7.971097e-002
2.779038e+003;8.004060e-002
2.780966e+003;8.033750e-002
2.782895e+003;8.043347e-002
2.784823e+003;8.047056e-002
2.786752e+003;8.048496e-002
2.788680e+003;8.059125e-002
2.790609e+003;8.054075e-002
2.792538e+003;8.076181e-002
2.794466e+003;8.109388e-002
2.796395e+003;8.112208e-002
2.798323e+003;8.116090e-002
2.800252e+003;8.105063e-002
2.802180e+003;8.100770e-002
2.804109e+003;8.129648e-002
2.806037e+003;8.149683e-002
2.807966e+003;8.169857e-002
2.809895e+003;8.191919e-002
2.811823e+003;8.220237e-002
2.813751e+003;8.224513e-002
2.815680e+003;8.194315e-002
2.817609e+003;8.182917e-002
2.819537e+003;8.195616e-002
2.821466e+003;8.214059e-002
2.823394e+003;8.241694e-002
2.825323e+003;8.273934e-002
2.827251e+003;8.274154e-002
2.829180e+003;8.266185e-002
2.831108e+003;8.283415e-002
2.833037e+003;8.303436e-002
2.834966e+003;8.323526e-002
2.836894e+003;8.350974e-002
2.838823e+003;8.397580e-002
2.840751e+003;8.429541e-002
2.842680e+003;8.489028e-002
2.844608e+003;8.587953e-002
2.846537e+003;8.665589e-002
2.848465e+003;8.706157e-002
2.850394e+003;8.749384e-002
2.852323e+003;8.794095e-002
2.854251e+003;8.804283e-002
2.856180e+003;8.796334e-002
2.858108e+003;8.812717e-002
2.860037e+003;8.856668e-002
2.861965e+003;8.879840e-002
2.863894e+003;8.869776e-002
2.865822e+003;8.864257e-002
2.867751e+003;8.902046e-002
2.869679e+003;8.957179e-002
2.871608e+003;8.999532e-002
2.873536e+003;9.049063e-002
2.875465e+003;9.049345e-002
2.877394e+003;9.031539e-002
2.879322e+003;9.017353e-002
2.881251e+003;9.010026e-002
2.883179e+003;9.014393e-002
2.885108e+003;9.008174e-002
2.887036e+003;9.018560e-002
2.888965e+003;9.025118e-002
2.890893e+003;9.022198e-002
2.892822e+003;9.045521e-002
2.894750e+003;9.069420e-002
2.896679e+003;9.073968e-002
2.898608e+003;9.120241e-002
2.900536e+003;9.181014e-002
2.902465e+003;9.202002e-002
2.904393e+003;9.251732e-002
2.906322e+003;9.341489e-002
2.908250e+003;9.420951e-002
2.910179e+003;9.467170e-002
2.912107e+003;9.507483e-002
2.914036e+003;9.571601e-002
2.915965e+003;9.664714e-002
2.917893e+003;9.749398e-002
2.919822e+003;9.811520e-002
2.921750e+003;9.869355e-002
2.923679e+003;9.942307e-002
2.925607e+003;1.001944e-001
2.927536e+003;1.003136e-001
2.929464e+003;9.995308e-002
2.931393e+003;1.000918e-001
2.933322e+003;1.004436e-001
2.935250e+003;1.002946e-001
2.937178e+003;9.975409e-002
2.939107e+003;9.921729e-002
2.941036e+003;9.863645e-002
2.942964e+003;9.774484e-002
2.944893e+003;9.660579e-002
2.946821e+003;9.567170e-002
2.948750e+003;9.536437e-002
2.950678e+003;9.520514e-002
2.952607e+003;9.506745e-002
2.954535e+003;9.486727e-002
2.956464e+003;9.470067e-002
2.958393e+003;9.482303e-002
2.960321e+003;9.474432e-002
2.962250e+003;9.471320e-002
2.964178e+003;9.478977e-002
2.966107e+003;9.482497e-002
2.968035e+003;9.481969e-002
2.969964e+003;9.497194e-002
2.971892e+003;9.524471e-002
2.973821e+003;9.530202e-002
2.975750e+003;9.515877e-002
2.977678e+003;9.510626e-002
2.979607e+003;9.492601e-002
2.981535e+003;9.443826e-002
2.983464e+003;9.412917e-002
2.985392e+003;9.391721e-002
2.987321e+003;9.376644e-002
2.989249e+003;9.347315e-002
2.991178e+003;9.267262e-002
2.993106e+003;9.202304e-002
2.995035e+003;9.166857e-002
2.996964e+003;9.160768e-002
2.998892e+003;9.142688e-002
3.000821e+003;9.101715e-002
3.002749e+003;9.075496e-002
3.004678e+003;9.059226e-002
3.006606e+003;9.071992e-002
3.008535e+003;9.076116e-002
3.010463e+003;9.065659e-002
3.012392e+003;9.051206e-002
3.014321e+003;9.051610e-002
3.016249e+003;9.068223e-002
3.018177e+003;9.069926e-002
3.020106e+003;9.081621e-002
3.022035e+003;9.108241e-002
3.023963e+003;9.142332e-002
3.025892e+003;9.200556e-002
3.027820e+003;9.242749e-002
3.029749e+003;9.275584e-002
3.031677e+003;9.298145e-002
3.033606e+003;9.320360e-002
3.035534e+003;9.357692e-002
3.037463e+003;9.402141e-002
3.039392e+003;9.427620e-002
3.041320e+003;9.434450e-002
3.043249e+003;9.489917e-002
3.045177e+003;9.557329e-002
3.047106e+003;9.593589e-002
3.049034e+003;9.639087e-002
3.050963e+003;9.707803e-002
3.052891e+003;9.770554e-002
3.054820e+003;9.806486e-002
3.056749e+003;9.820707e-002
3.058677e+003;9.850345e-002
3.060606e+003;9.885062e-002
3.062534e+003;9.878988e-002
3.064463e+003;9.908203e-002
3.066391e+003;9.947207e-002
3.068320e+003;9.939683e-002
3.070248e+003;9.926184e-002
3.072177e+003;9.927450e-002
3.074105e+003;9.941161e-002
3.076034e+003;9.962866e-002
3.077963e+003;9.970990e-002
3.079891e+003;9.938058e-002
3.081820e+003;9.900291e-002
3.083748e+003;9.885764e-002
3.085677e+003;9.875485e-002
3.087605e+003;9.870702e-002
3.089534e+003;9.874770e-002
3.091462e+003;9.853371e-002
3.093391e+003;9.789957e-002
3.095320e+003;9.767281e-002
3.097248e+003;9.772077e-002
3.099177e+003;9.724115e-002
3.101105e+003;9.708039e-002
3.103034e+003;9.731746e-002
3.104962e+003;9.693921e-002
3.106891e+003;9.631455e-002
3.108819e+003;9.580024e-002
3.110748e+003;9.561611e-002
3.112677e+003;9.603983e-002
3.114605e+003;9.587506e-002
3.116533e+003;9.550665e-002
3.118462e+003;9.554600e-002
3.120391e+003;9.565328e-002
3.122319e+003;9.557816e-002
3.124248e+003;9.526014e-002
3.126176e+003;9.514833e-002
3.128105e+003;9.524363e-002
3.130033e+003;9.546413e-002
3.131962e+003;9.560426e-002
3.133890e+003;9.540742e-002
3.135819e+003;9.554121e-002
3.137748e+003;9.579045e-002
3.139676e+003;9.595019e-002
3.141605e+003;9.604678e-002
3.143533e+003;9.617759e-002
3.145462e+003;9.645284e-002
3.147390e+003;9.682532e-002
3.149319e+003;9.724061e-002
3.151247e+003;9.769177e-002
3.153176e+003;9.834635e-002
3.155104e+003;9.887815e-002
3.157033e+003;9.916433e-002
3.158962e+003;9.963858e-002
3.160890e+003;1.003127e-001
3.162819e+003;1.011179e-001
3.164747e+003;1.014565e-001
3.166676e+003;1.014036e-001
3.168604e+003;1.016636e-001
3.170533e+003;1.026407e-001
3.172461e+003;1.032868e-001
3.174390e+003;1.039106e-001
3.176319e+003;1.045773e-001
3.178247e+003;1.050838e-001
3.180176e+003;1.058505e-001
3.182104e+003;1.064127e-001
3.184033e+003;1.068061e-001
3.185961e+003;1.072761e-001
3.187890e+003;1.081261e-001
3.189818e+003;1.090519e-001
3.191747e+003;1.096244e-001
3.193676e+003;1.105501e-001
3.195604e+003;1.114222e-001
3.197532e+003;1.118632e-001
3.199461e+003;1.126199e-001
3.201390e+003;1.137068e-001
3.203318e+003;1.146555e-001
3.205247e+003;1.153117e-001
3.207175e+003;1.160917e-001
3.209104e+003;1.169165e-001
3.211032e+003;1.173040e-001
3.212961e+003;1.181381e-001
3.214889e+003;1.188789e-001
3.216818e+003;1.193908e-001
3.218747e+003;1.202889e-001
3.220675e+003;1.212453e-001
3.222604e+003;1.224525e-001
3.224532e+003;1.240091e-001
3.226461e+003;1.248192e-001
3.228389e+003;1.251353e-001
3.230318e+003;1.259039e-001
3.232246e+003;1.272013e-001
3.234175e+003;1.281921e-001
3.236104e+003;1.293157e-001
3.238032e+003;1.308541e-001
3.239961e+003;1.322647e-001
3.241889e+003;1.336597e-001
3.243818e+003;1.348305e-001
3.245746e+003;1.359479e-001
3.247675e+003;1.372386e-001
3.249603e+003;1.385786e-001
3.251532e+003;1.399232e-001
3.253460e+003;1.415593e-001
3.255389e+003;1.430250e-001
3.257318e+003;1.445099e-001
3.259246e+003;1.461275e-001
3.261175e+003;1.482070e-001
3.263103e+003;1.503402e-001
3.265032e+003;1.517455e-001
3.266960e+003;1.530378e-001
3.268889e+003;1.546948e-001
3.270817e+003;1.560490e-001
3.272746e+003;1.572247e-001
3.274675e+003;1.581016e-001
3.276603e+003;1.587995e-001
3.278531e+003;1.595777e-001
3.280460e+003;1.597978e-001
3.282389e+003;1.593179e-001
3.284317e+003;1.588420e-001
3.286246e+003;1.585415e-001
3.288174e+003;1.579293e-001
3.290103e+003;1.569384e-001
3.292031e+003;1.559145e-001
3.293960e+003;1.545754e-001
3.295888e+003;1.527094e-001
3.297817e+003;1.509397e-001
3.299746e+003;1.491369e-001
3.301674e+003;1.471407e-001
3.303603e+003;1.455966e-001
3.305531e+003;1.441568e-001
3.307460e+003;1.424077e-001
3.309388e+003;1.404945e-001
3.311317e+003;1.384965e-001
3.313245e+003;1.366958e-001
3.315174e+003;1.350097e-001
3.317103e+003;1.331944e-001
3.319031e+003;1.314174e-001
3.320960e+003;1.298055e-001
3.322888e+003;1.280491e-001
3.324817e+003;1.261815e-001
3.326745e+003;1.243567e-001
3.328674e+003;1.227947e-001
3.330602e+003;1.212938e-001
3.332531e+003;1.197644e-001
3.334459e+003;1.183524e-001
3.336388e+003;1.169415e-001
3.338317e+003;1.156436e-001
3.340245e+003;1.147892e-001
3.342174e+003;1.137755e-001
3.344102e+003;1.125265e-001
3.346031e+003;1.115623e-001
3.347959e+003;1.105261e-001
3.349888e+003;1.095136e-001
3.351816e+003;1.083262e-001
3.353745e+003;1.074424e-001
3.355674e+003;1.069083e-001
3.357602e+003;1.060152e-001
3.359531e+003;1.049533e-001
3.361459e+003;1.041707e-001
3.363388e+003;1.035475e-001
3.365316e+003;1.033236e-001
3.367245e+003;1.025454e-001
3.369173e+003;1.018057e-001
3.371102e+003;1.013992e-001
3.373031e+003;1.007754e-001
3.374959e+003;1.001491e-001
3.376887e+003;9.957740e-002
3.378816e+003;9.871330e-002
3.380745e+003;9.787615e-002
3.382673e+003;9.759294e-002
3.384602e+003;9.697098e-002
3.386530e+003;9.632898e-002
3.388459e+003;9.607489e-002
3.390387e+003;9.577149e-002
3.392316e+003;9.569904e-002
3.394244e+003;9.533919e-002
3.396173e+003;9.476335e-002
3.398102e+003;9.407584e-002
3.400030e+003;9.349501e-002
3.401959e+003;9.300008e-002
3.403887e+003;9.248193e-002
3.405816e+003;9.209435e-002
3.407744e+003;9.122268e-002
3.409673e+003;9.027860e-002
3.411601e+003;9.000734e-002
3.413530e+003;8.963951e-002
3.415458e+003;8.902188e-002
3.417387e+003;8.881585e-002
3.419316e+003;8.863287e-002
3.421244e+003;8.813455e-002
3.423173e+003;8.743536e-002
3.425101e+003;8.695886e-002
3.427030e+003;8.658499e-002
3.428958e+003;8.596332e-002
3.430887e+003;8.516222e-002
3.432815e+003;8.449754e-002
3.434744e+003;8.418096e-002
3.436673e+003;8.373920e-002
3.438601e+003;8.301114e-002
3.440530e+003;8.284318e-002
3.442458e+003;8.296425e-002
3.444387e+003;8.262498e-002
3.446315e+003;8.200578e-002
3.448244e+003;8.174033e-002
3.450172e+003;8.130224e-002
3.452101e+003;8.078460e-002
3.454030e+003;8.052213e-002
3.455958e+003;8.069039e-002
3.457886e+003;8.072383e-002
3.459815e+003;8.029907e-002
3.461744e+003;8.013567e-002
3.463672e+003;8.015735e-002
3.465601e+003;8.025415e-002
3.467529e+003;8.013232e-002
3.469458e+003;7.957636e-002
3.471386e+003;7.905958e-002
3.473315e+003;7.876116e-002
3.475243e+003;7.868979e-002
3.477172e+003;7.851956e-002
3.479101e+003;7.826242e-002
3.481029e+003;7.817054e-002
3.482958e+003;7.824548e-002
3.484886e+003;7.833773e-002
3.486815e+003;7.827603e-002
3.488743e+003;7.801566e-002
3.490672e+003;7.726407e-002
3.492600e+003;7.697622e-002
3.494529e+003;7.718700e-002
3.496458e+003;7.701835e-002
3.498386e+003;7.690264e-002
3.500315e+003;7.666828e-002
3.502243e+003;7.609474e-002
3.504172e+003;7.532068e-002
3.506100e+003;7.472594e-002
3.508029e+003;7.486760e-002
3.509957e+003;7.487611e-002
3.511886e+003;7.471398e-002
3.513814e+003;7.463843e-002
3.515743e+003;7.435734e-002
3.517672e+003;7.399624e-002
3.519600e+003;7.378460e-002
3.521529e+003;7.378708e-002
3.523457e+003;7.365413e-002
3.525386e+003;7.311294e-002
3.527314e+003;7.296503e-002
3.529243e+003;7.285992e-002
3.531171e+003;7.239374e-002
3.533100e+003;7.221320e-002
3.535029e+003;7.200826e-002
3.536957e+003;7.163496e-002
3.538885e+003;7.151287e-002
3.540814e+003;7.131876e-002
3.542743e+003;7.110163e-002
3.544671e+003;7.097527e-002
3.546600e+003;7.051384e-002
3.548528e+003;7.010471e-002
3.550457e+003;6.990154e-002
3.552385e+003;6.967928e-002
3.554314e+003;6.960305e-002
3.556242e+003;6.951375e-002
3.558171e+003;6.905725e-002
3.560100e+003;6.865259e-002
3.562028e+003;6.857347e-002
3.563957e+003;6.831788e-002
3.565885e+003;6.761888e-002
3.567814e+003;6.748061e-002
3.569742e+003;6.753208e-002
3.571671e+003;6.734462e-002
3.573599e+003;6.704030e-002
3.575528e+003;6.659809e-002
3.577457e+003;6.626017e-002
3.579385e+003;6.607109e-002
3.581314e+003;6.577376e-002
3.583242e+003;6.532917e-002
3.585171e+003;6.513395e-002
3.587099e+003;6.520186e-002
3.589028e+003;6.501240e-002
3.590956e+003;6.466468e-002
3.592885e+003;6.428143e-002
3.594813e+003;6.412651e-002
3.596742e+003;6.379672e-002
3.598671e+003;6.337494e-002
3.600599e+003;6.325345e-002
3.602528e+003;6.312810e-002
3.604456e+003;6.312105e-002
3.606385e+003;6.300856e-002
3.608313e+003;6.250764e-002
3.610242e+003;6.226645e-002
3.612170e+003;6.230699e-002
3.614099e+003;6.208813e-002
3.616028e+003;6.179221e-002
3.617956e+003;6.156810e-002
3.619885e+003;6.148278e-002
3.621813e+003;6.122481e-002
3.623742e+003;6.069777e-002
3.625670e+003;6.032718e-002
3.627599e+003;5.986101e-002
3.629527e+003;5.938216e-002
3.631456e+003;5.959583e-002
3.633385e+003;5.941385e-002
3.635313e+003;5.914176e-002
3.637241e+003;5.891424e-002
3.639170e+003;5.849284e-002
3.641099e+003;5.834793e-002
3.643027e+003;5.833535e-002
3.644956e+003;5.802338e-002
3.646884e+003;5.752858e-002
3.648813e+003;5.685586e-002
3.650741e+003;5.626786e-002
3.652670e+003;5.624881e-002
3.654598e+003;5.598756e-002
3.656527e+003;5.530525e-002
3.658456e+003;5.522140e-002
3.660384e+003;5.517114e-002
3.662313e+003;5.445897e-002
3.664241e+003;5.373342e-002
3.666170e+003;5.331495e-002
3.668098e+003;5.288491e-002
3.670027e+003;5.228182e-002
3.671955e+003;5.196920e-002
3.673884e+003;5.174026e-002
3.675813e+003;5.082564e-002
3.677741e+003;5.029742e-002
3.679669e+003;5.017701e-002
3.681598e+003;4.996901e-002
3.683527e+003;4.950049e-002
3.685455e+003;4.892051e-002
3.687384e+003;4.807143e-002
3.689312e+003;4.783066e-002
3.691241e+003;4.802831e-002
3.693169e+003;4.784227e-002
3.695098e+003;4.745347e-002
3.697026e+003;4.725567e-002
3.698955e+003;4.699921e-002
3.700884e+003;4.686743e-002
3.702812e+003;4.694686e-002
3.704741e+003;4.694612e-002
3.706669e+003;4.649148e-002
3.708598e+003;4.572616e-002
3.710526e+003;4.525426e-002
3.712455e+003;4.533844e-002
3.714383e+003;4.566373e-002
3.716312e+003;4.543382e-002
3.718240e+003;4.509215e-002
3.720169e+003;4.532178e-002
3.722098e+003;4.495550e-002
3.724026e+003;4.467407e-002
3.725955e+003;4.496120e-002
3.727883e+003;4.483392e-002
3.729812e+003;4.448656e-002
3.731740e+003;4.403543e-002
3.733669e+003;4.390356e-002
3.735597e+003;4.394652e-002
3.737526e+003;4.417513e-002
3.739455e+003;4.408817e-002
3.741383e+003;4.399932e-002
3.743312e+003;4.353474e-002
3.745240e+003;4.302489e-002
3.747169e+003;4.325624e-002
3.749097e+003;4.329760e-002
3.751026e+003;4.328183e-002
3.752954e+003;4.330932e-002
3.754883e+003;4.334959e-002
3.756812e+003;4.312748e-002
3.758740e+003;4.313663e-002
3.760668e+003;4.316529e-002
3.762597e+003;4.309817e-002
3.764526e+003;4.294064e-002
3.766454e+003;4.308921e-002
3.768383e+003;4.354262e-002
3.770311e+003;4.339283e-002
3.772240e+003;4.276032e-002
3.774168e+003;4.268804e-002
3.776097e+003;4.297912e-002
3.778025e+003;4.310345e-002
3.779954e+003;4.285612e-002
3.781883e+003;4.259286e-002
3.783811e+003;4.257575e-002
3.785740e+003;4.270606e-002
3.787668e+003;4.288322e-002
3.789597e+003;4.320134e-002
3.791525e+003;4.341392e-002
3.793454e+003;4.371392e-002
3.795382e+003;4.340466e-002
3.797311e+003;4.293871e-002
3.799240e+003;4.301117e-002
3.801168e+003;4.287568e-002
3.803097e+003;4.273089e-002
3.805025e+003;4.259267e-002
3.806954e+003;4.249265e-002
3.808882e+003;4.259092e-002
3.810811e+003;4.282412e-002
3.812739e+003;4.315994e-002
3.814668e+003;4.287444e-002
3.816596e+003;4.228483e-002
3.818525e+003;4.253533e-002
3.820454e+003;4.263036e-002
3.822382e+003;4.260419e-002
3.824311e+003;4.307425e-002
3.826239e+003;4.331320e-002
3.828168e+003;4.312525e-002
3.830096e+003;4.309799e-002
3.832025e+003;4.323885e-002
3.833953e+003;4.309488e-002
3.835882e+003;4.307552e-002
3.837811e+003;4.297265e-002
3.839739e+003;4.293805e-002
3.841667e+003;4.310999e-002
3.843596e+003;4.321144e-002
3.845525e+003;4.331719e-002
3.847453e+003;4.387137e-002
3.849382e+003;4.427727e-002
3.851310e+003;4.398274e-002
3.853239e+003;4.367109e-002
3.855167e+003;4.378534e-002
3.857096e+003;4.417356e-002
3.859024e+003;4.448187e-002
3.860953e+003;4.432287e-002
3.862882e+003;4.443308e-002
3.864810e+003;4.485494e-002
3.866739e+003;4.483087e-002
3.868667e+003;4.416523e-002
3.870596e+003;4.377699e-002
3.872524e+003;4.407431e-002
3.874453e+003;4.443092e-002
3.876381e+003;4.485328e-002
3.878310e+003;4.503136e-002
3.880239e+003;4.491843e-002
3.882167e+003;4.511671e-002
3.884096e+003;4.523396e-002
3.886024e+003;4.503242e-002
3.887953e+003;4.490976e-002
3.889881e+003;4.485027e-002
3.891810e+003;4.480655e-002
3.893738e+003;4.469666e-002
3.895667e+003;4.500015e-002
3.897595e+003;4.552083e-002
3.899524e+003;4.566031e-002
3.901453e+003;4.557286e-002
3.903381e+003;4.546468e-002
3.905310e+003;4.537275e-002
3.907238e+003;4.554482e-002
3.909167e+003;4.578989e-002
3.911095e+003;4.547962e-002
3.913024e+003;4.546645e-002
3.914952e+003;4.606788e-002
3.916881e+003;4.638879e-002
3.918810e+003;4.636747e-002
3.920738e+003;4.645412e-002
3.922667e+003;4.663370e-002
3.924595e+003;4.670395e-002
3.926524e+003;4.680800e-002
3.928452e+003;4.691814e-002
3.930381e+003;4.713156e-002
3.932309e+003;4.710877e-002
3.934238e+003;4.710922e-002
3.936167e+003;4.702417e-002
3.938095e+003;4.683845e-002
3.940023e+003;4.713791e-002
3.941952e+003;4.713089e-002
3.943881e+003;4.703898e-002
3.945809e+003;4.731467e-002
3.947738e+003;4.718242e-002
3.949666e+003;4.676951e-002
3.951595e+003;4.679505e-002
3.953523e+003;4.739541e-002
3.955452e+003;4.768220e-002
3.957380e+003;4.753952e-002
3.959309e+003;4.733263e-002
3.961238e+003;4.731792e-002
3.963166e+003;4.760488e-002
3.965095e+003;4.761453e-002
3.967023e+003;4.785578e-002
3.968952e+003;4.819607e-002
3.970880e+003;4.802987e-002
3.972809e+003;4.775694e-002
3.974737e+003;4.803161e-002
3.976666e+003;4.856253e-002
3.978594e+003;4.885598e-002
3.980523e+003;4.898908e-002
3.982452e+003;4.852362e-002
3.984380e+003;4.802794e-002
3.986309e+003;4.802276e-002
3.988237e+003;4.825379e-002
3.990166e+003;4.822643e-002
3.992094e+003;4.817878e-002
3.994023e+003;4.832000e-002
3.995951e+003;4.826523e-002
3.997880e+003;4.811585e-002
3.999809e+003;4.841433e-002
4.001737e+003;0.000000e+000
