3.992094e+002;0.000000e+000
4.011380e+002;0.000000e+000
4.030665e+002;0.000000e+000
4.049951e+002;0.000000e+000
4.069236e+002;0.000000e+000
4.088522e+002;0.000000e+000
4.107807e+002;0.000000e+000
4.127093e+002;0.000000e+000
4.146378e+002;0.000000e+000
4.165664e+002;0.000000e+000
4.184949e+002;0.000000e+000
4.204235e+002;0.000000e+000
4.223520e+002;0.000000e+000
4.242806e+002;0.000000e+000
4.262091e+002;0.000000e+000
4.281377e+002;0.000000e+000
4.300662e+002;0.000000e+000
4.319948e+002;0.000000e+000
4.339233e+002;0.000000e+000
4.358519e+002;0.000000e+000
4.377804e+002;0.000000e+000
4.397090e+002;0.000000e+000
4.416375e+002;0.000000e+000
4.435660e+002;0.000000e+000
4.454946e+002;0.000000e+000
4.474232e+002;0.000000e+000
4.493517e+002;0.000000e+000
4.512802e+002;0.000000e+000
4.532088e+002;0.000000e+000
4.551373e+002;0.000000e+000
4.570659e+002;0.000000e+000
4.589944e+002;0.000000e+000
4.609230e+002;0.000000e+000
4.628515e+002;0.000000e+000
4.647801e+002;0.000000e+000
4.667086e+002;0.000000e+000
4.686372e+002;0.000000e+000
4.705657e+002;0.000000e+000
4.724943e+002;0.000000e+000
4.744228e+002;0.000000e+000
4.763513e+002;0.000000e+000
4.782799e+002;0.000000e+000
4.802085e+002;0.000000e+000
4.821370e+002;0.000000e+000
4.840656e+002;0.000000e+000
4.859941e+002;0.000000e+000
4.879226e+002;0.000000e+000
4.898512e+002;0.000000e+000
4.917798e+002;0.000000e+000
4.937083e+002;0.000000e+000
4.956368e+002;0.000000e+000
4.975654e+002;0.000000e+000
4.994939e+002;0.000000e+000
5.014225e+002;0.000000e+000
5.033510e+002;0.000000e+000
5.052796e+002;0.000000e+000
5.072081e+002;0.000000e+000
5.091367e+002;0.000000e+000
5.110652e+002;0.000000e+000
5.129938e+002;0.000000e+000
5.149223e+002;0.000000e+000
5.168509e+002;0.000000e+000
5.187794e+002;0.000000e+000
5.207079e+002;0.000000e+000
5.226365e+002;0.000000e+000
5.245651e+002;0.000000e+000
5.264936e+002;0.000000e+000
5.284222e+002;0.000000e+000
5.303507e+002;0.000000e+000
5.322792e+002;0.000000e+000
5.342078e+002;0.000000e+000
5.361364e+002;0.000000e+000
5.380649e+002;0.000000e+000
5.399935e+002;0.000000e+000
5.419220e+002;0.000000e+000
5.438505e+002;0.000000e+000
5.457791e+002;0.000000e+000
5.477076e+002;0.000000e+000
5.496362e+002;0.000000e+000
5.515648e+002;0.000000e+000
5.534933e+002;0.000000e+000
5.554218e+002;0.000000e+000
5.573504e+002;0.000000e+000
5.592789e+002;0.000000e+000
5.612075e+002;0.000000e+000
5.631360e+002;0.000000e+000
5.650646e+002;0.000000e+000
5.669931e+002;0.000000e+000
5.689217e+002;0.000000e+000
5.708502e+002;0.000000e+000
5.727787e+002;0.000000e+000
5.747073e+002;0.000000e+000
5.766359e+002;0.000000e+000
5.785644e+002;0.000000e+000
5.804930e+002;0.000000e+000
5.824215e+002;0.000000e+000
5.843500e+002;0.000000e+000
5.862786e+002;0.000000e+000
5.882072e+002;0.000000e+000
5.901357e+002;0.000000e+000
5.920643e+002;0.000000e+000
5.939928e+002;0.000000e+000
5.959213e+002;0.000000e+000
5.978499e+002;0.000000e+000
5.997784e+002;2.869348e-001
6.017070e+002;2.928840e-001
6.036355e+002;2.938863e-001
6.055641e+002;2.857687e-001
6.074926e+002;2.834598e-001
6.094211e+002;2.902069e-001
6.113497e+002;2.928819e-001
6.132783e+002;2.914660e-001
6.152068e+002;2.931989e-001
6.171354e+002;2.948304e-001
6.190639e+002;2.963007e-001
6.209924e+002;2.969393e-001
6.229210e+002;2.938036e-001
6.248495e+002;2.889400e-001
6.267781e+002;2.864486e-001
6.287067e+002;2.906345e-001
6.306352e+002;2.862774e-001
6.325637e+002;2.755481e-001
6.344923e+002;2.699386e-001
6.364208e+002;2.668478e-001
6.383494e+002;2.650667e-001
6.402780e+002;2.714081e-001
6.422065e+002;2.715286e-001
6.441350e+002;2.672277e-001
6.460636e+002;2.685075e-001
6.479921e+002;2.669666e-001
6.499207e+002;2.609614e-001
6.518492e+002;2.606711e-001
6.537778e+002;2.660340e-001
6.557063e+002;2.645946e-001
6.576349e+002;2.589274e-001
6.595634e+002;2.584525e-001
6.614919e+002;2.599486e-001
6.634205e+002;2.596220e-001
6.653491e+002;2.591714e-001
6.672776e+002;2.586420e-001
6.692062e+002;2.590223e-001
6.711347e+002;2.591249e-001
6.730632e+002;2.584935e-001
6.749918e+002;2.577037e-001
6.769203e+002;2.555353e-001
6.788489e+002;2.558247e-001
6.807775e+002;2.566704e-001
6.827060e+002;2.539296e-001
6.846345e+002;2.511129e-001
6.865631e+002;2.509291e-001
6.884916e+002;2.502275e-001
6.904202e+002;2.487535e-001
6.923488e+002;2.481560e-001
6.942773e+002;2.471542e-001
6.962058e+002;2.454561e-001
6.981344e+002;2.431480e-001
7.000629e+002;2.410664e-001
7.019915e+002;2.375301e-001
7.039200e+002;2.334125e-001
7.058486e+002;2.302499e-001
7.077771e+002;2.271618e-001
7.097057e+002;2.245379e-001
7.116342e+002;2.225753e-001
7.135627e+002;2.200304e-001
7.154913e+002;2.166207e-001
7.174199e+002;2.136306e-001
7.193484e+002;2.109173e-001
7.212770e+002;2.082194e-001
7.232055e+002;2.044800e-001
7.251340e+002;2.008015e-001
7.270626e+002;1.981587e-001
7.289911e+002;1.957633e-001
7.309197e+002;1.928646e-001
7.328483e+002;1.901609e-001
7.347768e+002;1.872705e-001
7.367053e+002;1.835172e-001
7.386339e+002;1.803962e-001
7.405624e+002;1.775948e-001
7.424910e+002;1.738444e-001
7.444196e+002;1.710700e-001
7.463481e+002;1.692274e-001
7.482766e+002;1.662178e-001
7.502052e+002;1.635372e-001
7.521337e+002;1.614006e-001
7.540623e+002;1.591799e-001
7.559908e+002;1.568779e-001
7.579194e+002;1.547787e-001
7.598479e+002;1.525449e-001
7.617765e+002;1.505747e-001
7.637050e+002;1.491767e-001
7.656335e+002;1.481346e-001
7.675621e+002;1.465914e-001
7.694907e+002;1.447945e-001
7.714192e+002;1.426836e-001
7.733478e+002;1.407748e-001
7.752763e+002;1.391254e-001
7.772048e+002;1.367482e-001
7.791334e+002;1.343839e-001
7.810620e+002;1.336097e-001
7.829905e+002;1.329533e-001
7.849191e+002;1.309913e-001
7.868476e+002;1.292145e-001
7.887761e+002;1.278035e-001
7.907047e+002;1.261029e-001
7.926332e+002;1.249359e-001
7.945618e+002;1.233477e-001
7.964903e+002;1.218851e-001
7.984189e+002;1.210787e-001
8.003474e+002;1.205258e-001
8.022759e+002;1.204507e-001
8.042045e+002;1.202010e-001
8.061331e+002;1.205079e-001
8.080616e+002;1.211023e-001
8.099902e+002;1.205336e-001
8.119187e+002;1.199447e-001
8.138472e+002;1.205963e-001
8.157758e+002;1.211683e-001
8.177043e+002;1.208223e-001
8.196329e+002;1.198952e-001
8.215615e+002;1.203676e-001
8.234900e+002;1.215201e-001
8.254185e+002;1.221621e-001
8.273471e+002;1.226573e-001
8.292756e+002;1.226874e-001
8.312042e+002;1.223158e-001
8.331328e+002;1.207559e-001
8.350613e+002;1.190731e-001
8.369898e+002;1.169326e-001
8.389184e+002;1.147511e-001
8.408469e+002;1.133263e-001
8.427755e+002;1.130387e-001
8.447040e+002;1.136648e-001
8.466326e+002;1.142938e-001
8.485611e+002;1.148189e-001
8.504897e+002;1.150519e-001
8.524182e+002;1.150616e-001
8.543467e+002;1.142470e-001
8.562753e+002;1.121937e-001
8.582039e+002;1.094961e-001
8.601324e+002;1.069876e-001
8.620610e+002;1.051362e-001
8.639895e+002;1.034255e-001
8.659180e+002;1.017913e-001
8.678466e+002;1.010291e-001
8.697751e+002;1.008307e-001
8.717037e+002;1.002200e-001
8.736323e+002;9.955444e-002
8.755608e+002;9.938867e-002
8.774893e+002;9.923786e-002
8.794179e+002;9.936492e-002
8.813464e+002;9.987317e-002
8.832750e+002;1.000197e-001
8.852036e+002;1.001524e-001
8.871321e+002;1.003089e-001
8.890606e+002;1.002494e-001
8.909892e+002;9.991567e-002
8.929177e+002;9.986433e-002
8.948463e+002;9.988493e-002
8.967748e+002;9.990186e-002
8.987034e+002;9.991387e-002
9.006319e+002;9.960295e-002
9.025605e+002;9.904090e-002
9.044890e+002;9.881558e-002
9.064175e+002;9.916737e-002
9.083461e+002;1.000323e-001
9.102747e+002;1.006632e-001
9.122032e+002;1.010213e-001
9.141318e+002;1.018215e-001
9.160603e+002;1.031594e-001
9.179888e+002;1.049360e-001
9.199174e+002;1.068336e-001
9.218459e+002;1.084334e-001
9.237745e+002;1.099339e-001
9.257031e+002;1.115722e-001
9.276316e+002;1.130759e-001
9.295601e+002;1.143229e-001
9.314887e+002;1.148808e-001
9.334172e+002;1.153431e-001
9.353458e+002;1.160230e-001
9.372744e+002;1.166335e-001
9.392029e+002;1.173164e-001
9.411314e+002;1.180482e-001
9.430600e+002;1.187194e-001
9.449885e+002;1.194777e-001
9.469171e+002;1.205037e-001
9.488456e+002;1.218550e-001
9.507742e+002;1.233958e-001
9.527027e+002;1.248375e-001
9.546313e+002;1.261729e-001
9.565598e+002;1.279402e-001
9.584883e+002;1.298824e-001
9.604169e+002;1.317876e-001
9.623455e+002;1.341021e-001
9.642740e+002;1.363382e-001
9.662026e+002;1.380104e-001
9.681311e+002;1.399444e-001
9.700596e+002;1.423022e-001
9.719882e+002;1.443477e-001
9.739167e+002;1.457064e-001
9.758453e+002;1.462811e-001
9.777739e+002;1.462120e-001
9.797024e+002;1.460951e-001
9.816309e+002;1.458922e-001
9.835595e+002;1.456298e-001
9.854880e+002;1.458479e-001
9.874166e+002;1.469548e-001
9.893452e+002;1.485295e-001
9.912737e+002;1.503859e-001
9.932022e+002;1.520681e-001
9.951307e+002;1.532268e-001
9.970593e+002;1.535497e-001
9.989879e+002;1.533756e-001
1.000916e+003;1.531965e-001
1.002845e+003;1.527680e-001
1.004773e+003;1.523152e-001
1.006702e+003;1.525658e-001
1.008631e+003;1.529795e-001
1.010559e+003;1.532063e-001
1.012488e+003;1.530136e-001
1.014416e+003;1.528383e-001
1.016345e+003;1.523973e-001
1.018273e+003;1.511421e-001
1.020202e+003;1.501060e-001
1.022130e+003;1.501190e-001
1.024059e+003;1.514215e-001
1.025988e+003;1.536798e-001
1.027916e+003;1.563381e-001
1.029845e+003;1.592464e-001
1.031773e+003;1.617506e-001
1.033702e+003;1.641087e-001
1.035630e+003;1.663692e-001
1.037559e+003;1.682560e-001
1.039487e+003;1.698924e-001
1.041416e+003;1.711077e-001
1.043344e+003;1.721255e-001
1.045273e+003;1.731483e-001
1.047202e+003;1.737964e-001
1.049130e+003;1.749100e-001
1.051059e+003;1.767685e-001
1.052987e+003;1.782367e-001
1.054916e+003;1.796062e-001
1.056844e+003;1.812789e-001
1.058773e+003;1.835451e-001
1.060701e+003;1.859060e-001
1.062630e+003;1.874324e-001
1.064558e+003;1.882755e-001
1.066487e+003;1.887724e-001
1.068416e+003;1.886725e-001
1.070344e+003;1.880304e-001
1.072273e+003;1.865314e-001
1.074201e+003;1.841050e-001
1.076130e+003;1.810750e-001
1.078058e+003;1.775665e-001
1.079987e+003;1.744791e-001
1.081915e+003;1.715872e-001
1.083844e+003;1.686911e-001
1.085773e+003;1.652487e-001
1.087701e+003;1.618836e-001
1.089630e+003;1.588662e-001
1.091558e+003;1.560996e-001
1.093487e+003;1.543299e-001
1.095415e+003;1.528876e-001
1.097344e+003;1.521315e-001
1.099272e+003;1.520956e-001
1.101201e+003;1.517734e-001
1.103129e+003;1.515965e-001
1.105058e+003;1.509106e-001
1.106987e+003;1.497151e-001
1.108915e+003;1.482984e-001
1.110844e+003;1.471136e-001
1.112772e+003;1.463948e-001
1.114701e+003;1.458028e-001
1.116629e+003;1.455438e-001
1.118558e+003;1.454011e-001
1.120486e+003;1.451633e-001
1.122415e+003;1.452726e-001
1.124344e+003;1.458994e-001
1.126272e+003;1.466774e-001
1.128201e+003;1.472369e-001
1.130129e+003;1.479058e-001
1.132058e+003;1.490307e-001
1.133986e+003;1.504746e-001
1.135915e+003;1.516922e-001
1.137843e+003;1.532768e-001
1.139772e+003;1.553310e-001
1.141700e+003;1.568015e-001
1.143629e+003;1.583569e-001
1.145557e+003;1.608728e-001
1.147486e+003;1.630349e-001
1.149415e+003;1.645890e-001
1.151343e+003;1.660569e-001
1.153272e+003;1.671601e-001
1.155200e+003;1.685097e-001
1.157129e+003;1.705034e-001
1.159057e+003;1.719638e-001
1.160986e+003;1.725258e-001
1.162914e+003;1.732347e-001
1.164843e+003;1.744260e-001
1.166771e+003;1.755457e-001
1.168700e+003;1.765417e-001
1.170629e+003;1.773057e-001
1.172557e+003;1.770503e-001
1.174486e+003;1.758610e-001
1.176414e+003;1.744459e-001
1.178343e+003;1.731485e-001
1.180271e+003;1.717532e-001
1.182200e+003;1.704100e-001
1.184128e+003;1.698444e-001
1.186057e+003;1.703970e-001
1.187986e+003;1.715586e-001
1.189914e+003;1.733830e-001
1.191843e+003;1.759663e-001
1.193771e+003;1.790417e-001
1.195700e+003;1.822830e-001
1.197628e+003;1.864581e-001
1.199557e+003;1.913021e-001
1.201485e+003;1.960644e-001
1.203414e+003;2.011407e-001
1.205343e+003;2.064799e-001
1.207271e+003;2.119169e-001
1.209200e+003;2.169572e-001
1.211128e+003;2.217581e-001
1.213057e+003;2.266370e-001
1.214985e+003;2.311332e-001
1.216914e+003;2.350779e-001
1.218842e+003;2.385840e-001
1.220771e+003;2.416479e-001
1.222699e+003;2.442109e-001
1.224628e+003;2.466055e-001
1.226557e+003;2.485322e-001
1.228485e+003;2.491309e-001
1.230414e+003;2.488835e-001
1.232342e+003;2.482710e-001
1.234271e+003;2.468430e-001
1.236199e+003;2.451519e-001
1.238128e+003;2.431055e-001
1.240056e+003;2.404781e-001
1.241985e+003;2.380690e-001
1.243913e+003;2.358200e-001
1.245842e+003;2.334721e-001
1.247771e+003;2.315736e-001
1.249699e+003;2.298359e-001
1.251628e+003;2.281891e-001
1.253556e+003;2.264840e-001
1.255485e+003;2.244291e-001
1.257413e+003;2.224986e-001
1.259342e+003;2.207047e-001
1.261270e+003;2.182445e-001
1.263199e+003;2.154109e-001
1.265127e+003;2.122749e-001
1.267056e+003;2.089075e-001
1.268985e+003;2.055819e-001
1.270913e+003;2.018736e-001
1.272842e+003;1.982206e-001
1.274770e+003;1.948555e-001
1.276699e+003;1.919883e-001
1.278627e+003;1.897660e-001
1.280556e+003;1.878605e-001
1.282484e+003;1.860538e-001
1.284413e+003;1.845828e-001
1.286342e+003;1.830379e-001
1.288270e+003;1.816823e-001
1.290199e+003;1.810574e-001
1.292127e+003;1.808450e-001
1.294056e+003;1.804482e-001
1.295984e+003;1.799213e-001
1.297913e+003;1.795479e-001
1.299841e+003;1.793088e-001
1.301770e+003;1.791977e-001
1.303698e+003;1.789165e-001
1.305627e+003;1.782876e-001
1.307556e+003;1.777101e-001
1.309484e+003;1.773225e-001
1.311413e+003;1.768771e-001
1.313341e+003;1.763744e-001
1.315270e+003;1.759730e-001
1.317198e+003;1.759009e-001
1.319127e+003;1.763574e-001
1.321055e+003;1.769011e-001
1.322984e+003;1.773293e-001
1.324912e+003;1.780209e-001
1.326841e+003;1.787376e-001
1.328770e+003;1.794100e-001
1.330698e+003;1.802408e-001
1.332627e+003;1.806237e-001
1.334555e+003;1.807741e-001
1.336484e+003;1.811594e-001
1.338412e+003;1.812931e-001
1.340341e+003;1.812500e-001
1.342269e+003;1.814356e-001
1.344198e+003;1.815182e-001
1.346126e+003;1.817748e-001
1.348055e+003;1.821935e-001
1.349984e+003;1.825431e-001
1.351912e+003;1.830287e-001
1.353841e+003;1.838697e-001
1.355769e+003;1.855237e-001
1.357698e+003;1.875465e-001
1.359626e+003;1.900128e-001
1.361555e+003;1.934008e-001
1.363483e+003;1.969812e-001
1.365412e+003;2.004414e-001
1.367341e+003;2.032320e-001
1.369269e+003;2.048905e-001
1.371198e+003;2.054599e-001
1.373126e+003;2.052684e-001
1.375055e+003;2.046833e-001
1.376983e+003;2.043362e-001
1.378912e+003;2.042818e-001
1.380840e+003;2.044656e-001
1.382769e+003;2.048722e-001
1.384698e+003;2.051963e-001
1.386626e+003;2.053161e-001
1.388555e+003;2.054955e-001
1.390483e+003;2.055518e-001
1.392412e+003;2.054723e-001
1.394340e+003;2.055573e-001
1.396269e+003;2.058238e-001
1.398197e+003;2.062471e-001
1.400126e+003;2.068474e-001
1.402054e+003;2.077015e-001
1.403983e+003;2.090180e-001
1.405911e+003;2.105466e-001
1.407840e+003;2.118510e-001
1.409769e+003;2.131977e-001
1.411697e+003;2.144989e-001
1.413626e+003;2.154319e-001
1.415554e+003;2.165169e-001
1.417483e+003;2.179090e-001
1.419411e+003;2.194028e-001
1.421340e+003;2.211977e-001
1.423268e+003;2.241906e-001
1.425197e+003;2.283071e-001
1.427125e+003;2.332661e-001
1.429054e+003;2.389530e-001
1.430983e+003;2.450692e-001
1.432911e+003;2.514327e-001
1.434840e+003;2.575873e-001
1.436768e+003;2.630224e-001
1.438697e+003;2.674016e-001
1.440625e+003;2.703584e-001
1.442554e+003;2.724280e-001
1.444482e+003;2.738324e-001
1.446411e+003;2.740388e-001
1.448340e+003;2.725047e-001
1.450268e+003;2.698233e-001
1.452197e+003;2.662088e-001
1.454125e+003;2.617764e-001
1.456054e+003;2.569857e-001
1.457982e+003;2.527410e-001
1.459911e+003;2.500166e-001
1.461839e+003;2.483082e-001
1.463768e+003;2.472724e-001
1.465697e+003;2.468036e-001
1.467625e+003;2.475634e-001
1.469554e+003;2.490208e-001
1.471482e+003;2.508627e-001
1.473411e+003;2.536343e-001
1.475339e+003;2.574868e-001
1.477268e+003;2.620088e-001
1.479196e+003;2.673025e-001
1.481125e+003;2.739698e-001
1.483053e+003;2.815426e-001
1.484982e+003;2.900274e-001
1.486911e+003;2.996431e-001
1.488839e+003;3.097235e-001
1.490768e+003;3.199599e-001
1.492696e+003;3.305193e-001
1.494625e+003;3.410563e-001
1.496553e+003;3.515938e-001
1.498482e+003;3.616925e-001
1.500410e+003;3.705737e-001
1.502339e+003;3.784553e-001
1.504267e+003;3.860230e-001
1.506196e+003;3.926789e-001
1.508125e+003;3.980578e-001
1.510053e+003;4.022694e-001
1.511982e+003;4.052726e-001
1.513910e+003;4.063935e-001
1.515839e+003;4.038260e-001
1.517767e+003;3.969065e-001
1.519696e+003;3.869590e-001
1.521624e+003;3.761902e-001
1.523553e+003;3.659088e-001
1.525481e+003;3.563211e-001
1.527410e+003;3.477563e-001
1.529339e+003;3.405564e-001
1.531267e+003;3.339707e-001
1.533196e+003;3.275920e-001
1.535124e+003;3.209128e-001
1.537053e+003;3.140845e-001
1.538981e+003;3.073053e-001
1.540910e+003;3.010939e-001
1.542838e+003;2.949397e-001
1.544767e+003;2.883940e-001
1.546695e+003;2.820708e-001
1.548624e+003;2.759814e-001
1.550553e+003;2.698079e-001
1.552481e+003;2.634472e-001
1.554410e+003;2.568941e-001
1.556338e+003;2.503891e-001
1.558267e+003;2.437811e-001
1.560195e+003;2.371716e-001
1.562124e+003;2.308969e-001
1.564052e+003;2.248958e-001
1.565981e+003;2.188130e-001
1.567910e+003;2.132577e-001
1.569838e+003;2.082103e-001
1.571767e+003;2.039732e-001
1.573695e+003;2.005278e-001
1.575624e+003;1.979481e-001
1.577552e+003;1.963644e-001
1.579481e+003;1.954898e-001
1.581409e+003;1.952040e-001
1.583338e+003;1.958974e-001
1.585266e+003;1.982094e-001
1.587195e+003;2.017693e-001
1.589124e+003;2.063591e-001
1.591052e+003;2.124012e-001
1.592981e+003;2.194167e-001
1.594909e+003;2.270012e-001
1.596838e+003;2.358383e-001
1.598766e+003;2.461630e-001
1.600695e+003;2.573717e-001
1.602623e+003;2.704293e-001
1.604552e+003;2.855307e-001
1.606480e+003;3.019481e-001
1.608409e+003;3.196372e-001
1.610338e+003;3.382075e-001
1.612266e+003;3.567728e-001
1.614195e+003;3.743870e-001
1.616123e+003;3.903151e-001
1.618052e+003;4.033935e-001
1.619980e+003;4.133989e-001
1.621909e+003;4.207407e-001
1.623837e+003;4.247625e-001
1.625766e+003;4.249975e-001
1.627694e+003;4.222585e-001
1.629623e+003;4.174431e-001
1.631552e+003;4.107803e-001
1.633480e+003;4.025547e-001
1.635409e+003;3.938676e-001
1.637337e+003;3.852694e-001
1.639266e+003;3.763900e-001
1.641194e+003;3.672998e-001
1.643123e+003;3.585724e-001
1.645051e+003;3.501056e-001
1.646980e+003;3.416358e-001
1.648909e+003;3.331705e-001
1.650837e+003;3.245018e-001
1.652766e+003;3.152196e-001
1.654694e+003;3.057232e-001
1.656623e+003;2.965703e-001
1.658551e+003;2.877005e-001
1.660480e+003;2.787757e-001
1.662408e+003;2.697129e-001
1.664337e+003;2.611187e-001
1.666266e+003;2.532601e-001
1.668194e+003;2.457271e-001
1.670123e+003;2.384301e-001
1.672051e+003;2.314926e-001
1.673980e+003;2.246587e-001
1.675908e+003;2.180056e-001
1.677837e+003;2.119202e-001
1.679765e+003;2.059165e-001
1.681694e+003;2.002593e-001
1.683622e+003;1.949681e-001
1.685551e+003;1.898402e-001
1.687479e+003;1.854854e-001
1.689408e+003;1.817300e-001
1.691337e+003;1.783207e-001
1.693265e+003;1.752523e-001
1.695194e+003;1.722632e-001
1.697122e+003;1.690255e-001
1.699051e+003;1.644492e-001
1.700979e+003;1.570280e-001
1.702908e+003;1.473199e-001
1.704836e+003;1.358705e-001
1.706765e+003;1.237818e-001
1.708693e+003;1.119787e-001
1.710622e+003;1.015675e-001
1.712551e+003;9.336037e-002
1.714479e+003;8.665824e-002
1.716408e+003;8.075523e-002
1.718336e+003;7.575353e-002
1.720265e+003;7.163180e-002
1.722193e+003;6.815497e-002
1.724122e+003;6.525265e-002
1.726050e+003;6.293563e-002
1.727979e+003;6.069998e-002
1.729908e+003;5.860037e-002
1.731836e+003;5.697605e-002
1.733765e+003;5.561644e-002
1.735693e+003;5.416951e-002
1.737622e+003;5.289345e-002
1.739550e+003;5.143899e-002
1.741479e+003;5.012956e-002
1.743407e+003;4.927852e-002
1.745336e+003;4.838882e-002
1.747265e+003;4.723325e-002
1.749193e+003;4.647806e-002
1.751122e+003;4.586003e-002
1.753050e+003;4.512347e-002
1.754979e+003;4.441844e-002
1.756907e+003;4.368670e-002
1.758836e+003;4.297122e-002
1.760764e+003;4.247892e-002
1.762693e+003;4.215844e-002
1.764621e+003;4.177374e-002
1.766550e+003;4.128949e-002
1.768479e+003;4.089056e-002
1.770407e+003;4.055503e-002
1.772336e+003;4.001324e-002
1.774264e+003;3.958194e-002
1.776193e+003;3.946371e-002
1.778121e+003;3.918389e-002
1.780050e+003;3.885319e-002
1.781978e+003;3.849157e-002
1.783907e+003;3.821972e-002
1.785835e+003;3.803002e-002
1.787764e+003;3.772012e-002
1.789693e+003;3.720322e-002
1.791621e+003;3.671563e-002
1.793550e+003;3.633583e-002
1.795478e+003;3.607336e-002
1.797407e+003;3.589773e-002
1.799335e+003;3.560757e-002
1.801264e+003;3.508643e-002
1.803192e+003;3.481659e-002
1.805121e+003;3.451335e-002
1.807049e+003;3.425470e-002
1.808978e+003;3.405128e-002
1.810907e+003;3.365049e-002
1.812835e+003;3.329074e-002
1.814764e+003;3.304980e-002
1.816692e+003;3.264236e-002
1.818621e+003;3.221731e-002
1.820549e+003;3.203104e-002
1.822478e+003;3.186446e-002
1.824406e+003;3.170977e-002
1.826335e+003;3.155585e-002
1.828264e+003;3.129568e-002
1.830192e+003;3.076727e-002
1.832121e+003;3.026799e-002
1.834049e+003;2.999293e-002
1.835978e+003;2.971818e-002
1.837906e+003;2.954433e-002
1.839835e+003;2.930733e-002
1.841763e+003;2.901864e-002
1.843692e+003;2.884259e-002
1.845620e+003;2.875241e-002
1.847549e+003;2.863432e-002
1.849478e+003;2.828345e-002
1.851406e+003;2.784890e-002
1.853335e+003;2.765065e-002
1.855263e+003;2.758165e-002
1.857192e+003;2.765104e-002
1.859120e+003;2.774717e-002
1.861049e+003;2.758197e-002
1.862977e+003;2.741532e-002
1.864906e+003;2.740664e-002
1.866834e+003;2.733310e-002
1.868763e+003;2.726270e-002
1.870692e+003;2.729982e-002
1.872620e+003;2.723960e-002
1.874549e+003;2.705195e-002
1.876477e+003;2.689904e-002
1.878406e+003;2.695404e-002
1.880334e+003;2.693934e-002
1.882263e+003;2.678632e-002
1.884191e+003;2.666648e-002
1.886120e+003;2.652808e-002
1.888048e+003;2.645803e-002
1.889977e+003;2.645887e-002
1.891906e+003;2.640243e-002
1.893834e+003;2.626153e-002
1.895763e+003;2.621493e-002
1.897691e+003;2.613199e-002
1.899620e+003;2.585907e-002
1.901548e+003;2.558634e-002
1.903477e+003;2.550955e-002
1.905405e+003;2.576280e-002
1.907334e+003;2.583797e-002
1.909262e+003;2.558606e-002
1.911191e+003;2.546528e-002
1.913120e+003;2.547722e-002
1.915048e+003;2.549606e-002
1.916977e+003;2.552227e-002
1.918905e+003;2.561737e-002
1.920834e+003;2.564862e-002
1.922762e+003;2.539558e-002
1.924691e+003;2.521986e-002
1.926619e+003;2.529515e-002
1.928548e+003;2.529930e-002
1.930477e+003;2.527612e-002
1.932405e+003;2.518612e-002
1.934334e+003;2.511969e-002
1.936262e+003;2.521389e-002
1.938191e+003;2.532680e-002
1.940119e+003;2.519542e-002
1.942048e+003;2.511295e-002
1.943976e+003;2.499862e-002
1.945905e+003;2.497900e-002
1.947833e+003;2.510210e-002
1.949762e+003;2.518341e-002
1.951691e+003;2.537190e-002
1.953619e+003;2.550997e-002
1.955548e+003;2.542347e-002
1.957476e+003;2.545709e-002
1.959405e+003;2.536031e-002
1.961333e+003;2.525094e-002
1.963262e+003;2.533916e-002
1.965190e+003;2.553981e-002
1.967119e+003;2.553784e-002
1.969047e+003;2.538293e-002
1.970976e+003;2.521024e-002
1.972905e+003;2.513584e-002
1.974833e+003;2.524349e-002
1.976762e+003;2.529470e-002
1.978690e+003;2.502733e-002
1.980619e+003;2.475297e-002
1.982547e+003;2.480808e-002
1.984476e+003;2.483219e-002
1.986404e+003;2.481261e-002
1.988333e+003;2.498823e-002
1.990261e+003;2.494370e-002
1.992190e+003;2.479416e-002
1.994119e+003;2.472821e-002
1.996047e+003;2.461784e-002
1.997976e+003;2.445415e-002
1.999904e+003;2.435114e-002
2.001833e+003;2.437322e-002
2.003761e+003;2.425873e-002
2.005690e+003;2.421301e-002
2.007618e+003;2.435268e-002
2.009547e+003;2.455175e-002
2.011476e+003;2.445934e-002
2.013404e+003;2.426445e-002
2.015333e+003;2.441738e-002
2.017261e+003;2.447812e-002
2.019190e+003;2.445860e-002
2.021118e+003;2.434227e-002
2.023047e+003;2.420124e-002
2.024975e+003;2.409388e-002
2.026904e+003;2.409399e-002
2.028833e+003;2.433267e-002
2.030761e+003;2.457173e-002
2.032690e+003;2.454011e-002
2.034618e+003;2.441030e-002
2.036547e+003;2.436775e-002
2.038475e+003;2.428761e-002
2.040404e+003;2.414267e-002
2.042332e+003;2.423281e-002
2.044261e+003;2.438289e-002
2.046189e+003;2.448209e-002
2.048118e+003;2.462661e-002
2.050047e+003;2.464397e-002
2.051975e+003;2.462714e-002
2.053904e+003;2.473737e-002
2.055832e+003;2.459968e-002
2.057761e+003;2.437339e-002
2.059689e+003;2.436807e-002
2.061618e+003;2.444128e-002
2.063546e+003;2.442502e-002
2.065475e+003;2.439274e-002
2.067404e+003;2.450666e-002
2.069332e+003;2.458741e-002
2.071260e+003;2.460897e-002
2.073189e+003;2.475683e-002
2.075118e+003;2.507458e-002
2.077046e+003;2.511053e-002
2.078975e+003;2.477707e-002
2.080903e+003;2.471036e-002
2.082832e+003;2.491959e-002
2.084760e+003;2.505425e-002
2.086689e+003;2.499413e-002
2.088617e+003;2.501719e-002
2.090546e+003;2.508497e-002
2.092475e+003;2.504695e-002
2.094403e+003;2.497728e-002
2.096332e+003;2.499199e-002
2.098260e+003;2.503593e-002
2.100189e+003;2.496254e-002
2.102117e+003;2.482826e-002
2.104046e+003;2.495787e-002
2.105974e+003;2.505632e-002
2.107903e+003;2.510164e-002
2.109832e+003;2.518341e-002
2.111760e+003;2.505415e-002
2.113688e+003;2.489534e-002
2.115617e+003;2.491289e-002
2.117546e+003;2.492194e-002
2.119474e+003;2.478928e-002
2.121403e+003;2.465887e-002
2.123331e+003;2.460059e-002
2.125260e+003;2.465870e-002
2.127188e+003;2.486818e-002
2.129117e+003;2.505324e-002
2.131045e+003;2.502481e-002
2.132974e+003;2.499950e-002
2.134903e+003;2.501217e-002
2.136831e+003;2.488169e-002
2.138760e+003;2.482180e-002
2.140688e+003;2.468276e-002
2.142617e+003;2.460767e-002
2.144545e+003;2.471492e-002
2.146474e+003;2.488969e-002
2.148402e+003;2.486506e-002
2.150331e+003;2.457710e-002
2.152260e+003;2.443438e-002
2.154188e+003;2.447623e-002
2.156117e+003;2.460445e-002
2.158045e+003;2.475589e-002
2.159974e+003;2.472284e-002
2.161902e+003;2.455890e-002
2.163831e+003;2.455795e-002
2.165759e+003;2.483345e-002
2.167688e+003;2.491668e-002
2.169616e+003;2.462093e-002
2.171545e+003;2.446849e-002
2.173474e+003;2.453352e-002
2.175402e+003;2.433891e-002
2.177331e+003;2.440848e-002
2.179259e+003;2.459200e-002
2.181188e+003;2.447024e-002
2.183116e+003;2.434259e-002
2.185045e+003;2.445432e-002
2.186973e+003;2.444461e-002
2.188902e+003;2.440252e-002
2.190831e+003;2.422990e-002
2.192759e+003;2.411283e-002
2.194688e+003;2.427951e-002
2.196616e+003;2.448096e-002
2.198545e+003;2.442758e-002
2.200473e+003;2.428263e-002
2.202402e+003;2.431161e-002
2.204330e+003;2.440690e-002
2.206259e+003;2.456742e-002
2.208188e+003;2.467697e-002
2.210116e+003;2.436414e-002
2.212044e+003;2.411997e-002
2.213973e+003;2.416453e-002
2.215902e+003;2.406397e-002
2.217830e+003;2.398150e-002
2.219759e+003;2.413549e-002
2.221687e+003;2.445783e-002
2.223616e+003;2.431718e-002
2.225544e+003;2.403904e-002
2.227473e+003;2.414110e-002
2.229401e+003;2.430544e-002
2.231330e+003;2.427093e-002
2.233259e+003;2.409462e-002
2.235187e+003;2.408131e-002
2.237116e+003;2.416775e-002
2.239044e+003;2.409899e-002
2.240973e+003;2.417581e-002
2.242901e+003;2.428445e-002
2.244830e+003;2.419746e-002
2.246758e+003;2.424682e-002
2.248687e+003;2.443781e-002
2.250615e+003;2.450929e-002
2.252544e+003;2.451055e-002
2.254473e+003;2.436782e-002
2.256401e+003;2.428200e-002
2.258330e+003;2.434304e-002
2.260258e+003;2.429588e-002
2.262187e+003;2.409931e-002
2.264115e+003;2.413493e-002
2.266044e+003;2.418551e-002
2.267972e+003;2.424991e-002
2.269901e+003;2.439582e-002
2.271830e+003;2.436691e-002
2.273758e+003;2.460056e-002
2.275687e+003;2.460771e-002
2.277615e+003;2.421449e-002
2.279544e+003;2.424279e-002
2.281472e+003;2.450389e-002
2.283401e+003;2.453299e-002
2.285329e+003;2.460809e-002
2.287258e+003;2.473793e-002
2.289187e+003;2.487482e-002
2.291115e+003;2.505531e-002
2.293043e+003;2.514767e-002
2.294972e+003;2.516572e-002
2.296901e+003;2.502596e-002
2.298829e+003;2.492685e-002
2.300758e+003;2.502277e-002
2.302686e+003;2.498192e-002
2.304615e+003;2.502747e-002
2.306543e+003;2.521178e-002
2.308472e+003;2.511425e-002
2.310400e+003;2.498030e-002
2.312329e+003;2.504278e-002
2.314258e+003;2.521515e-002
2.316186e+003;2.541198e-002
2.318115e+003;2.541283e-002
2.320043e+003;2.534327e-002
2.321972e+003;2.549437e-002
2.323900e+003;2.559846e-002
2.325829e+003;2.559632e-002
2.327757e+003;2.542459e-002
2.329686e+003;2.528890e-002
2.331615e+003;2.541873e-002
2.333543e+003;2.550028e-002
2.335472e+003;2.566886e-002
2.337400e+003;2.568809e-002
2.339329e+003;2.552382e-002
2.341257e+003;2.552449e-002
2.343186e+003;2.544195e-002
2.345114e+003;2.544919e-002
2.347043e+003;2.566472e-002
2.348971e+003;2.575176e-002
2.350900e+003;2.592252e-002
2.352829e+003;2.598087e-002
2.354757e+003;2.591042e-002
2.356686e+003;2.601113e-002
2.358614e+003;2.611777e-002
2.360543e+003;2.607899e-002
2.362471e+003;2.591513e-002
2.364400e+003;2.582289e-002
2.366328e+003;2.601894e-002
2.368257e+003;2.632092e-002
2.370186e+003;2.649817e-002
2.372114e+003;2.643334e-002
2.374042e+003;2.641785e-002
2.375971e+003;2.666860e-002
2.377900e+003;2.671109e-002
2.379828e+003;2.683493e-002
2.381757e+003;2.706154e-002
2.383685e+003;2.705946e-002
2.385614e+003;2.700178e-002
2.387542e+003;2.715670e-002
2.389471e+003;2.731104e-002
2.391399e+003;2.742612e-002
2.393328e+003;2.736461e-002
2.395257e+003;2.737354e-002
2.397185e+003;2.747296e-002
2.399114e+003;2.780842e-002
2.401042e+003;2.808535e-002
2.402971e+003;2.839669e-002
2.404899e+003;2.859285e-002
2.406828e+003;2.857837e-002
2.408756e+003;2.862675e-002
2.410685e+003;2.878062e-002
2.412614e+003;2.927285e-002
2.414542e+003;2.970328e-002
2.416471e+003;2.968526e-002
2.418399e+003;2.972532e-002
2.420328e+003;3.015883e-002
2.422256e+003;3.064173e-002
2.424185e+003;3.088159e-002
2.426113e+003;3.083506e-002
2.428042e+003;3.075748e-002
2.429970e+003;3.087565e-002
2.431899e+003;3.111197e-002
2.433828e+003;3.126648e-002
2.435756e+003;3.143002e-002
2.437685e+003;3.179051e-002
2.439613e+003;3.195849e-002
2.441542e+003;3.181939e-002
2.443470e+003;3.185023e-002
2.445399e+003;3.205230e-002
2.447327e+003;3.220761e-002
2.449256e+003;3.225364e-002
2.451185e+003;3.232114e-002
2.453113e+003;3.232349e-002
2.455042e+003;3.235447e-002
2.456970e+003;3.242255e-002
2.458899e+003;3.224433e-002
2.460827e+003;3.226799e-002
2.462756e+003;3.267197e-002
2.464684e+003;3.276407e-002
2.466613e+003;3.289783e-002
2.468542e+003;3.311620e-002
2.470470e+003;3.327765e-002
2.472398e+003;3.336981e-002
2.474327e+003;3.328570e-002
2.476256e+003;3.337549e-002
2.478184e+003;3.357301e-002
2.480113e+003;3.371995e-002
2.482041e+003;3.380261e-002
2.483970e+003;3.370982e-002
2.485898e+003;3.349055e-002
2.487827e+003;3.353185e-002
2.489755e+003;3.370323e-002
2.491684e+003;3.379440e-002
2.493613e+003;3.405827e-002
2.495541e+003;3.416335e-002
2.497470e+003;3.394439e-002
2.499398e+003;3.400186e-002
2.501327e+003;3.427761e-002
2.503255e+003;3.449121e-002
2.505184e+003;3.463903e-002
2.507112e+003;3.471942e-002
2.509041e+003;3.463656e-002
2.510969e+003;3.461162e-002
2.512898e+003;3.487231e-002
2.514827e+003;3.514060e-002
2.516755e+003;3.508804e-002
2.518684e+003;3.488388e-002
2.520612e+003;3.497785e-002
2.522541e+003;3.502350e-002
2.524469e+003;3.488495e-002
2.526398e+003;3.513162e-002
2.528326e+003;3.548542e-002
2.530255e+003;3.547797e-002
2.532184e+003;3.529846e-002
2.534112e+003;3.528699e-002
2.536041e+003;3.541671e-002
2.537969e+003;3.587830e-002
2.539898e+003;3.631036e-002
2.541826e+003;3.633688e-002
2.543755e+003;3.633371e-002
2.545683e+003;3.643506e-002
2.547612e+003;3.640605e-002
2.549541e+003;3.657356e-002
2.551469e+003;3.681206e-002
2.553397e+003;3.704348e-002
2.555326e+003;3.731232e-002
2.557255e+003;3.758833e-002
2.559183e+003;3.768560e-002
2.561112e+003;3.788166e-002
2.563040e+003;3.802698e-002
2.564969e+003;3.826336e-002
2.566897e+003;3.876308e-002
2.568826e+003;3.900026e-002
2.570754e+003;3.906210e-002
2.572683e+003;3.937050e-002
2.574612e+003;3.960383e-002
2.576540e+003;3.964993e-002
2.578469e+003;4.003493e-002
2.580397e+003;4.069169e-002
2.582326e+003;4.096589e-002
2.584254e+003;4.102976e-002
2.586183e+003;4.110610e-002
2.588111e+003;4.114172e-002
2.590040e+003;4.121961e-002
2.591969e+003;4.150264e-002
2.593897e+003;4.222300e-002
2.595826e+003;4.287123e-002
2.597754e+003;4.310450e-002
2.599683e+003;4.294942e-002
2.601611e+003;4.289624e-002
2.603540e+003;4.324603e-002
2.605468e+003;4.342147e-002
2.607397e+003;4.368450e-002
2.609325e+003;4.405040e-002
2.611254e+003;4.409495e-002
2.613183e+003;4.428523e-002
2.615111e+003;4.455253e-002
2.617040e+003;4.463577e-002
2.618968e+003;4.473114e-002
2.620897e+003;4.473206e-002
2.622825e+003;4.481104e-002
2.624754e+003;4.485791e-002
2.626682e+003;4.477588e-002
2.628611e+003;4.478896e-002
2.630540e+003;4.468355e-002
2.632468e+003;4.469500e-002
2.634396e+003;4.469798e-002
2.636325e+003;4.469287e-002
2.638254e+003;4.460603e-002
2.640182e+003;4.457041e-002
2.642111e+003;4.459754e-002
2.644039e+003;4.455224e-002
2.645968e+003;4.459751e-002
2.647896e+003;4.490605e-002
2.649825e+003;4.516840e-002
2.651753e+003;4.511197e-002
2.653682e+003;4.489734e-002
2.655611e+003;4.495040e-002
2.657539e+003;4.524719e-002
2.659468e+003;4.529794e-002
2.661396e+003;4.535219e-002
2.663325e+003;4.547057e-002
2.665253e+003;4.568291e-002
2.667182e+003;4.605020e-002
2.669110e+003;4.632032e-002
2.671039e+003;4.650630e-002
2.672968e+003;4.680583e-002
2.674896e+003;4.711025e-002
2.676825e+003;4.719172e-002
2.678753e+003;4.725519e-002
2.680682e+003;4.744600e-002
2.682610e+003;4.774695e-002
2.684539e+003;4.818441e-002
2.686467e+003;4.876871e-002
2.688396e+003;4.885509e-002
2.690324e+003;4.879941e-002
2.692253e+003;4.922270e-002
2.694182e+003;4.945690e-002
2.696110e+003;4.957031e-002
2.698039e+003;4.991191e-002
2.699967e+003;5.031851e-002
2.701896e+003;5.068204e-002
2.703824e+003;5.100409e-002
2.705753e+003;5.119138e-002
2.707681e+003;5.120353e-002
2.709610e+003;5.133113e-002
2.711539e+003;5.177012e-002
2.713467e+003;5.227622e-002
2.715396e+003;5.251539e-002
2.717324e+003;5.254325e-002
2.719253e+003;5.280958e-002
2.721181e+003;5.310851e-002
2.723110e+003;5.345849e-002
2.725038e+003;5.404236e-002
2.726967e+003;5.438832e-002
2.728896e+003;5.484083e-002
2.730824e+003;5.531089e-002
2.732752e+003;5.560333e-002
2.734681e+003;5.595669e-002
2.736610e+003;5.629947e-002
2.738538e+003;5.671232e-002
2.740467e+003;5.663051e-002
2.742395e+003;5.649917e-002
2.744324e+003;5.672663e-002
2.746252e+003;5.721053e-002
2.748181e+003;5.769025e-002
2.750109e+003;5.784138e-002
2.752038e+003;5.810840e-002
2.753967e+003;5.861918e-002
2.755895e+003;5.874135e-002
2.757824e+003;5.884290e-002
2.759752e+003;5.909032e-002
2.761681e+003;5.944196e-002
2.763609e+003;5.970120e-002
2.765538e+003;5.977313e-002
2.767466e+003;6.022245e-002
2.769395e+003;6.056675e-002
2.771323e+003;6.079464e-002
2.773252e+003;6.096874e-002
2.775181e+003;6.089844e-002
2.777109e+003;6.103085e-002
2.779038e+003;6.141617e-002
2.780966e+003;6.200369e-002
2.782895e+003;6.251154e-002
2.784823e+003;6.276369e-002
2.786752e+003;6.293108e-002
2.788680e+003;6.304380e-002
2.790609e+003;6.312308e-002
2.792538e+003;6.326929e-002
2.794466e+003;6.358750e-002
2.796395e+003;6.408438e-002
2.798323e+003;6.444544e-002
2.800252e+003;6.476340e-002
2.802180e+003;6.512018e-002
2.804109e+003;6.535809e-002
2.806037e+003;6.569003e-002
2.807966e+003;6.601200e-002
2.809895e+003;6.616173e-002
2.811823e+003;6.644350e-002
2.813751e+003;6.690809e-002
2.815680e+003;6.706996e-002
2.817609e+003;6.701823e-002
2.819537e+003;6.731623e-002
2.821466e+003;6.751463e-002
2.823394e+003;6.776796e-002
2.825323e+003;6.832289e-002
2.827251e+003;6.893094e-002
2.829180e+003;6.917372e-002
2.831108e+003;6.935202e-002
2.833037e+003;6.971212e-002
2.834966e+003;7.010429e-002
2.836894e+003;7.067534e-002
2.838823e+003;7.122654e-002
2.840751e+003;7.184919e-002
2.842680e+003;7.247176e-002
2.844608e+003;7.310946e-002
2.846537e+003;7.394623e-002
2.848465e+003;7.472546e-002
2.850394e+003;7.545817e-002
2.852323e+003;7.627930e-002
2.854251e+003;7.726102e-002
2.856180e+003;7.797303e-002
2.858108e+003;7.863725e-002
2.860037e+003;7.982508e-002
2.861965e+003;8.088838e-002
2.863894e+003;8.143887e-002
2.865822e+003;8.203036e-002
2.867751e+003;8.276459e-002
2.869679e+003;8.355448e-002
2.871608e+003;8.427224e-002
2.873536e+003;8.461005e-002
2.875465e+003;8.512908e-002
2.877394e+003;8.580176e-002
2.879322e+003;8.610029e-002
2.881251e+003;8.602370e-002
2.883179e+003;8.577718e-002
2.885108e+003;8.548556e-002
2.887036e+003;8.522177e-002
2.888965e+003;8.532886e-002
2.890893e+003;8.576939e-002
2.892822e+003;8.658903e-002
2.894750e+003;8.681060e-002
2.896679e+003;8.645874e-002
2.898608e+003;8.681243e-002
2.900536e+003;8.744273e-002
2.902465e+003;8.783677e-002
2.904393e+003;8.839716e-002
2.906322e+003;8.900020e-002
2.908250e+003;8.905588e-002
2.910179e+003;8.931404e-002
2.912107e+003;8.979799e-002
2.914036e+003;9.037858e-002
2.915965e+003;9.108437e-002
2.917893e+003;9.175497e-002
2.919822e+003;9.232006e-002
2.921750e+003;9.295029e-002
2.923679e+003;9.403424e-002
2.925607e+003;9.535450e-002
2.927536e+003;9.654002e-002
2.929464e+003;9.774530e-002
2.931393e+003;9.883875e-002
2.933322e+003;9.938975e-002
2.935250e+003;1.001429e-001
2.937178e+003;1.006769e-001
2.939107e+003;1.002231e-001
2.941036e+003;9.977848e-002
2.942964e+003;9.974575e-002
2.944893e+003;9.914818e-002
2.946821e+003;9.800269e-002
2.948750e+003;9.706680e-002
2.950678e+003;9.650617e-002
2.952607e+003;9.573670e-002
2.954535e+003;9.484381e-002
2.956464e+003;9.415325e-002
2.958393e+003;9.379777e-002
2.960321e+003;9.375431e-002
2.962250e+003;9.371183e-002
2.964178e+003;9.361145e-002
2.966107e+003;9.343404e-002
2.968035e+003;9.360466e-002
2.969964e+003;9.374826e-002
2.971892e+003;9.400203e-002
2.973821e+003;9.375065e-002
2.975750e+003;9.326643e-002
2.977678e+003;9.310570e-002
2.979607e+003;9.272097e-002
2.981535e+003;9.232933e-002
2.983464e+003;9.254745e-002
2.985392e+003;9.227118e-002
2.987321e+003;9.186360e-002
2.989249e+003;9.171113e-002
2.991178e+003;9.123319e-002
2.993106e+003;9.067648e-002
2.995035e+003;9.028699e-002
2.996964e+003;8.977538e-002
2.998892e+003;8.910210e-002
3.000821e+003;8.858804e-002
3.002749e+003;8.825654e-002
3.004678e+003;8.804884e-002
3.006606e+003;8.790536e-002
3.008535e+003;8.749611e-002
3.010463e+003;8.735586e-002
3.012392e+003;8.745169e-002
3.014321e+003;8.755995e-002
3.016249e+003;8.759955e-002
3.018177e+003;8.773197e-002
3.020106e+003;8.805569e-002
3.022035e+003;8.816536e-002
3.023963e+003;8.841024e-002
3.025892e+003;8.886829e-002
3.027820e+003;8.920063e-002
3.029749e+003;8.980443e-002
3.031677e+003;9.049128e-002
3.033606e+003;9.071682e-002
3.035534e+003;9.106909e-002
3.037463e+003;9.171031e-002
3.039392e+003;9.225581e-002
3.041320e+003;9.296015e-002
3.043249e+003;9.366126e-002
3.045177e+003;9.416127e-002
3.047106e+003;9.447166e-002
3.049034e+003;9.510577e-002
3.050963e+003;9.595998e-002
3.052891e+003;9.641717e-002
3.054820e+003;9.656084e-002
3.056749e+003;9.723783e-002
3.058677e+003;9.814190e-002
3.060606e+003;9.855030e-002
3.062534e+003;9.845170e-002
3.064463e+003;9.887092e-002
3.066391e+003;9.945657e-002
3.068320e+003;9.945915e-002
3.070248e+003;9.978531e-002
3.072177e+003;1.002297e-001
3.074105e+003;1.001070e-001
3.076034e+003;9.967714e-002
3.077963e+003;9.948069e-002
3.079891e+003;9.944078e-002
3.081820e+003;9.929013e-002
3.083748e+003;9.933981e-002
3.085677e+003;9.923849e-002
3.087605e+003;9.872474e-002
3.089534e+003;9.870403e-002
3.091462e+003;9.866177e-002
3.093391e+003;9.854008e-002
3.095320e+003;9.841346e-002
3.097248e+003;9.798247e-002
3.099177e+003;9.734172e-002
3.101105e+003;9.705616e-002
3.103034e+003;9.683522e-002
3.104962e+003;9.608468e-002
3.106891e+003;9.553052e-002
3.108819e+003;9.536012e-002
3.110748e+003;9.527144e-002
3.112677e+003;9.505644e-002
3.114605e+003;9.489439e-002
3.116533e+003;9.483672e-002
3.118462e+003;9.477712e-002
3.120391e+003;9.444711e-002
3.122319e+003;9.452574e-002
3.124248e+003;9.457785e-002
3.126176e+003;9.438687e-002
3.128105e+003;9.468139e-002
3.130033e+003;9.508135e-002
3.131962e+003;9.500947e-002
3.133890e+003;9.489386e-002
3.135819e+003;9.503322e-002
3.137748e+003;9.548011e-002
3.139676e+003;9.588131e-002
3.141605e+003;9.627385e-002
3.143533e+003;9.693690e-002
3.145462e+003;9.740329e-002
3.147390e+003;9.744234e-002
3.149319e+003;9.785258e-002
3.151247e+003;9.858360e-002
3.153176e+003;9.944698e-002
3.155104e+003;1.000906e-001
3.157033e+003;1.006988e-001
3.158962e+003;1.015712e-001
3.160890e+003;1.023720e-001
3.162819e+003;1.034531e-001
3.164747e+003;1.046004e-001
3.166676e+003;1.054048e-001
3.168604e+003;1.062788e-001
3.170533e+003;1.073542e-001
3.172461e+003;1.085510e-001
3.174390e+003;1.095480e-001
3.176319e+003;1.106291e-001
3.178247e+003;1.116338e-001
3.180176e+003;1.123758e-001
3.182104e+003;1.130654e-001
3.184033e+003;1.139027e-001
3.185961e+003;1.150808e-001
3.187890e+003;1.163418e-001
3.189818e+003;1.179180e-001
3.191747e+003;1.190892e-001
3.193676e+003;1.200832e-001
3.195604e+003;1.212006e-001
3.197532e+003;1.224023e-001
3.199461e+003;1.236214e-001
3.201390e+003;1.250909e-001
3.203318e+003;1.263695e-001
3.205247e+003;1.272565e-001
3.207175e+003;1.283511e-001
3.209104e+003;1.298541e-001
3.211032e+003;1.313351e-001
3.212961e+003;1.327229e-001
3.214889e+003;1.339845e-001
3.216818e+003;1.352556e-001
3.218747e+003;1.365618e-001
3.220675e+003;1.379577e-001
3.222604e+003;1.389901e-001
3.224532e+003;1.401880e-001
3.226461e+003;1.418977e-001
3.228389e+003;1.438650e-001
3.230318e+003;1.455425e-001
3.232246e+003;1.468965e-001
3.234175e+003;1.483894e-001
3.236104e+003;1.499821e-001
3.238032e+003;1.518650e-001
3.239961e+003;1.536446e-001
3.241889e+003;1.553684e-001
3.243818e+003;1.573722e-001
3.245746e+003;1.590158e-001
3.247675e+003;1.606464e-001
3.249603e+003;1.627095e-001
3.251532e+003;1.645634e-001
3.253460e+003;1.665540e-001
3.255389e+003;1.690484e-001
3.257318e+003;1.714996e-001
3.259246e+003;1.735364e-001
3.261175e+003;1.755146e-001
3.263103e+003;1.775092e-001
3.265032e+003;1.795086e-001
3.266960e+003;1.817095e-001
3.268889e+003;1.839108e-001
3.270817e+003;1.861616e-001
3.272746e+003;1.876698e-001
3.274675e+003;1.884198e-001
3.276603e+003;1.892385e-001
3.278531e+003;1.902764e-001
3.280460e+003;1.908112e-001
3.282389e+003;1.909748e-001
3.284317e+003;1.912155e-001
3.286246e+003;1.909965e-001
3.288174e+003;1.906357e-001
3.290103e+003;1.898534e-001
3.292031e+003;1.881643e-001
3.293960e+003;1.865134e-001
3.295888e+003;1.849107e-001
3.297817e+003;1.833355e-001
3.299746e+003;1.814863e-001
3.301674e+003;1.796013e-001
3.303603e+003;1.775212e-001
3.305531e+003;1.748552e-001
3.307460e+003;1.722361e-001
3.309388e+003;1.695422e-001
3.311317e+003;1.673273e-001
3.313245e+003;1.656310e-001
3.315174e+003;1.635072e-001
3.317103e+003;1.606797e-001
3.319031e+003;1.578496e-001
3.320960e+003;1.556970e-001
3.322888e+003;1.535659e-001
3.324817e+003;1.511692e-001
3.326745e+003;1.489010e-001
3.328674e+003;1.466407e-001
3.330602e+003;1.440222e-001
3.332531e+003;1.419028e-001
3.334459e+003;1.403580e-001
3.336388e+003;1.385302e-001
3.338317e+003;1.363651e-001
3.340245e+003;1.343254e-001
3.342174e+003;1.320476e-001
3.344102e+003;1.299912e-001
3.346031e+003;1.284434e-001
3.347959e+003;1.270155e-001
3.349888e+003;1.251907e-001
3.351816e+003;1.238073e-001
3.353745e+003;1.227327e-001
3.355674e+003;1.209476e-001
3.357602e+003;1.193248e-001
3.359531e+003;1.180862e-001
3.361459e+003;1.165560e-001
3.363388e+003;1.154392e-001
3.365316e+003;1.144017e-001
3.367245e+003;1.132761e-001
3.369173e+003;1.122173e-001
3.371102e+003;1.112155e-001
3.373031e+003;1.103930e-001
3.374959e+003;1.095764e-001
3.376887e+003;1.085886e-001
3.378816e+003;1.073262e-001
3.380745e+003;1.060860e-001
3.382673e+003;1.052051e-001
3.384602e+003;1.042363e-001
3.386530e+003;1.030515e-001
3.388459e+003;1.017297e-001
3.390387e+003;1.009390e-001
3.392316e+003;1.003223e-001
3.394244e+003;9.925314e-002
3.396173e+003;9.836625e-002
3.398102e+003;9.742800e-002
3.400030e+003;9.664092e-002
3.401959e+003;9.583164e-002
3.403887e+003;9.459552e-002
3.405816e+003;9.328943e-002
3.407744e+003;9.210492e-002
3.409673e+003;9.105021e-002
3.411601e+003;9.004473e-002
3.413530e+003;8.955029e-002
3.415458e+003;8.890716e-002
3.417387e+003;8.799551e-002
3.419316e+003;8.705112e-002
3.421244e+003;8.620389e-002
3.423173e+003;8.519508e-002
3.425101e+003;8.431214e-002
3.427030e+003;8.356384e-002
3.428958e+003;8.246742e-002
3.430887e+003;8.153532e-002
3.432815e+003;8.081055e-002
3.434744e+003;8.002817e-002
3.436673e+003;7.943029e-002
3.438601e+003;7.879724e-002
3.440530e+003;7.775648e-002
3.442458e+003;7.738958e-002
3.444387e+003;7.738086e-002
3.446315e+003;7.685854e-002
3.448244e+003;7.635376e-002
3.450172e+003;7.574170e-002
3.452101e+003;7.474905e-002
3.454030e+003;7.393441e-002
3.455958e+003;7.374856e-002
3.457886e+003;7.329126e-002
3.459815e+003;7.291725e-002
3.461744e+003;7.270274e-002
3.463672e+003;7.206141e-002
3.465601e+003;7.131813e-002
3.467529e+003;7.079674e-002
3.469458e+003;7.048573e-002
3.471386e+003;7.033712e-002
3.473315e+003;7.027066e-002
3.475243e+003;6.992968e-002
3.477172e+003;6.938405e-002
3.479101e+003;6.905841e-002
3.481029e+003;6.896659e-002
3.482958e+003;6.878755e-002
3.484886e+003;6.852416e-002
3.486815e+003;6.838059e-002
3.488743e+003;6.807415e-002
3.490672e+003;6.758497e-002
3.492600e+003;6.712441e-002
3.494529e+003;6.670594e-002
3.496458e+003;6.644771e-002
3.498386e+003;6.610253e-002
3.500315e+003;6.558821e-002
3.502243e+003;6.484991e-002
3.504172e+003;6.459958e-002
3.506100e+003;6.433806e-002
3.508029e+003;6.396101e-002
3.509957e+003;6.372891e-002
3.511886e+003;6.367309e-002
3.513814e+003;6.336681e-002
3.515743e+003;6.276906e-002
3.517672e+003;6.225383e-002
3.519600e+003;6.181005e-002
3.521529e+003;6.129531e-002
3.523457e+003;6.087991e-002
3.525386e+003;6.045992e-002
3.527314e+003;5.990779e-002
3.529243e+003;5.987892e-002
3.531171e+003;5.997736e-002
3.533100e+003;5.939576e-002
3.535029e+003;5.868066e-002
3.536957e+003;5.808996e-002
3.538885e+003;5.771999e-002
3.540814e+003;5.763659e-002
3.542743e+003;5.740279e-002
3.544671e+003;5.719349e-002
3.546600e+003;5.705313e-002
3.548528e+003;5.649535e-002
3.550457e+003;5.568650e-002
3.552385e+003;5.490572e-002
3.554314e+003;5.451299e-002
3.556242e+003;5.441364e-002
3.558171e+003;5.383741e-002
3.560100e+003;5.310934e-002
3.562028e+003;5.244633e-002
3.563957e+003;5.203568e-002
3.565885e+003;5.161314e-002
3.567814e+003;5.106085e-002
3.569742e+003;5.087705e-002
3.571671e+003;5.063874e-002
3.573599e+003;5.018776e-002
3.575528e+003;4.975991e-002
3.577457e+003;4.920656e-002
3.579385e+003;4.838337e-002
3.581314e+003;4.787586e-002
3.583242e+003;4.752909e-002
3.585171e+003;4.700531e-002
3.587099e+003;4.663938e-002
3.589028e+003;4.657007e-002
3.590956e+003;4.608225e-002
3.592885e+003;4.526654e-002
3.594813e+003;4.439323e-002
3.596742e+003;4.380862e-002
3.598671e+003;4.353771e-002
3.600599e+003;4.347944e-002
3.602528e+003;4.295959e-002
3.604456e+003;4.202235e-002
3.606385e+003;4.140761e-002
3.608313e+003;4.101884e-002
3.610242e+003;4.041988e-002
3.612170e+003;3.974004e-002
3.614099e+003;3.884464e-002
3.616028e+003;3.777126e-002
3.617956e+003;3.683442e-002
3.619885e+003;3.633839e-002
3.621813e+003;3.597929e-002
3.623742e+003;3.522496e-002
3.625670e+003;3.454915e-002
3.627599e+003;3.397090e-002
3.629527e+003;3.315650e-002
3.631456e+003;3.243858e-002
3.633385e+003;3.193824e-002
3.635313e+003;3.101495e-002
3.637241e+003;2.975335e-002
3.639170e+003;2.895510e-002
3.641099e+003;2.839652e-002
3.643027e+003;2.767727e-002
3.644956e+003;2.705396e-002
3.646884e+003;2.627354e-002
3.648813e+003;2.547635e-002
3.650741e+003;2.497047e-002
3.652670e+003;2.419900e-002
3.654598e+003;2.322283e-002
3.656527e+003;2.233765e-002
3.658456e+003;2.148556e-002
3.660384e+003;2.062740e-002
3.662313e+003;1.973202e-002
3.664241e+003;1.917274e-002
3.666170e+003;1.822841e-002
3.668098e+003;1.715803e-002
3.670027e+003;1.654639e-002
3.671955e+003;1.579539e-002
3.673884e+003;1.529123e-002
3.675813e+003;1.514765e-002
3.677741e+003;1.457320e-002
3.679669e+003;1.376722e-002
3.681598e+003;1.339397e-002
3.683527e+003;1.310671e-002
3.685455e+003;1.254685e-002
3.687384e+003;1.184836e-002
3.689312e+003;1.125646e-002
3.691241e+003;1.110972e-002
3.693169e+003;1.108885e-002
3.695098e+003;1.055243e-002
3.697026e+003;1.000358e-002
3.698955e+003;9.788232e-003
3.700884e+003;9.275349e-003
3.702812e+003;9.018780e-003
3.704741e+003;9.005282e-003
3.706669e+003;9.093380e-003
3.708598e+003;9.138688e-003
3.710526e+003;9.073553e-003
3.712455e+003;8.692550e-003
3.714383e+003;8.412440e-003
3.716312e+003;8.455075e-003
3.718240e+003;8.248460e-003
3.720169e+003;8.095072e-003
3.722098e+003;7.741944e-003
3.724026e+003;7.183970e-003
3.725955e+003;7.049615e-003
3.727883e+003;6.791596e-003
3.729812e+003;6.675060e-003
3.731740e+003;7.121284e-003
3.733669e+003;7.033012e-003
3.735597e+003;6.975028e-003
3.737526e+003;6.960213e-003
3.739455e+003;6.991089e-003
3.741383e+003;6.526365e-003
3.743312e+003;6.081391e-003
3.745240e+003;6.479950e-003
3.747169e+003;6.823470e-003
3.749097e+003;6.670821e-003
3.751026e+003;6.539719e-003
3.752954e+003;6.375434e-003
3.754883e+003;6.376577e-003
3.756812e+003;6.447833e-003
3.758740e+003;6.299518e-003
3.760668e+003;6.196120e-003
3.762597e+003;6.013118e-003
3.764526e+003;5.940221e-003
3.766454e+003;6.033814e-003
3.768383e+003;5.947409e-003
3.770311e+003;5.864918e-003
3.772240e+003;6.126352e-003
3.774168e+003;6.121748e-003
3.776097e+003;6.035292e-003
3.778025e+003;5.865455e-003
3.779954e+003;5.746146e-003
3.781883e+003;5.840402e-003
3.783811e+003;5.838454e-003
3.785740e+003;5.757125e-003
3.787668e+003;5.993935e-003
3.789597e+003;6.109952e-003
3.791525e+003;6.093991e-003
3.793454e+003;5.957386e-003
3.795382e+003;5.456319e-003
3.797311e+003;5.230768e-003
3.799240e+003;5.733488e-003
3.801168e+003;5.854776e-003
3.803097e+003;5.472190e-003
3.805025e+003;5.591122e-003
3.806954e+003;5.685244e-003
3.808882e+003;5.538934e-003
3.810811e+003;5.218058e-003
3.812739e+003;5.496014e-003
3.814668e+003;5.793590e-003
3.816596e+003;5.541250e-003
3.818525e+003;5.957016e-003
3.820454e+003;6.348939e-003
3.822382e+003;6.080853e-003
3.824311e+003;5.950735e-003
3.826239e+003;6.066237e-003
3.828168e+003;6.220085e-003
3.830096e+003;6.442116e-003
3.832025e+003;6.024810e-003
3.833953e+003;6.107634e-003
3.835882e+003;6.428294e-003
3.837811e+003;6.164663e-003
3.839739e+003;5.867907e-003
3.841667e+003;5.875564e-003
3.843596e+003;6.181164e-003
3.845525e+003;6.274540e-003
3.847453e+003;6.255110e-003
3.849382e+003;6.654536e-003
3.851310e+003;7.305192e-003
3.853239e+003;7.505494e-003
3.855167e+003;7.239018e-003
3.857096e+003;6.634181e-003
3.859024e+003;6.623650e-003
3.860953e+003;6.954153e-003
3.862882e+003;7.224800e-003
3.864810e+003;7.247204e-003
3.866739e+003;7.551142e-003
3.868667e+003;7.824185e-003
3.870596e+003;7.416639e-003
3.872524e+003;7.581959e-003
3.874453e+003;8.195275e-003
3.876381e+003;8.217189e-003
3.878310e+003;8.178934e-003
3.880239e+003;8.087308e-003
3.882167e+003;7.950378e-003
3.884096e+003;8.265716e-003
3.886024e+003;8.462813e-003
3.887953e+003;8.393387e-003
3.889881e+003;8.581722e-003
3.891810e+003;8.899412e-003
3.893738e+003;8.932895e-003
3.895667e+003;9.488449e-003
3.897595e+003;9.703347e-003
3.899524e+003;9.458851e-003
3.901453e+003;9.437416e-003
3.903381e+003;9.620377e-003
3.905310e+003;9.657574e-003
3.907238e+003;9.760986e-003
3.909167e+003;9.975883e-003
3.911095e+003;1.010192e-002
3.913024e+003;1.038937e-002
3.914952e+003;1.103569e-002
3.916881e+003;1.114365e-002
3.918810e+003;1.090469e-002
3.920738e+003;1.087527e-002
3.922667e+003;1.070560e-002
3.924595e+003;1.078253e-002
3.926524e+003;1.091747e-002
3.928452e+003;1.095729e-002
3.930381e+003;1.146815e-002
3.932309e+003;1.177077e-002
3.934238e+003;1.112393e-002
3.936167e+003;1.105914e-002
3.938095e+003;1.175334e-002
3.940023e+003;1.229748e-002
3.941952e+003;1.245795e-002
3.943881e+003;1.239426e-002
3.945809e+003;1.216692e-002
3.947738e+003;1.222056e-002
3.949666e+003;1.233668e-002
3.951595e+003;1.222478e-002
3.953523e+003;1.227004e-002
3.955452e+003;1.211056e-002
3.957380e+003;1.229230e-002
3.959309e+003;1.211489e-002
3.961238e+003;1.193455e-002
3.963166e+003;1.260552e-002
3.965095e+003;1.294300e-002
3.967023e+003;1.294057e-002
3.968952e+003;1.306338e-002
3.970880e+003;1.288207e-002
3.972809e+003;1.237895e-002
3.974737e+003;1.226503e-002
3.976666e+003;1.260514e-002
3.978594e+003;1.263380e-002
3.980523e+003;1.244002e-002
3.982452e+003;1.248387e-002
3.984380e+003;1.264666e-002
3.986309e+003;1.261214e-002
3.988237e+003;1.258308e-002
3.990166e+003;1.244196e-002
3.992094e+003;1.221636e-002
3.994023e+003;1.235615e-002
3.995951e+003;1.242859e-002
3.997880e+003;1.219670e-002
3.999809e+003;1.198223e-002
4.001737e+003;0.000000e+000
