3.992094e+002;0.000000e+000
4.011380e+002;0.000000e+000
4.030665e+002;0.000000e+000
4.049951e+002;0.000000e+000
4.069236e+002;0.000000e+000
4.088522e+002;0.000000e+000
4.107807e+002;0.000000e+000
4.127093e+002;0.000000e+000
4.146378e+002;0.000000e+000
4.165664e+002;0.000000e+000
4.184949e+002;0.000000e+000
4.204235e+002;0.000000e+000
4.223520e+002;0.000000e+000
4.242806e+002;0.000000e+000
4.262091e+002;0.000000e+000
4.281377e+002;0.000000e+000
4.300662e+002;0.000000e+000
4.319948e+002;0.000000e+000
4.339233e+002;0.000000e+000
4.358519e+002;0.000000e+000
4.377804e+002;0.000000e+000
4.397090e+002;0.000000e+000
4.416375e+002;0.000000e+000
4.435660e+002;0.000000e+000
4.454946e+002;0.000000e+000
4.474232e+002;0.000000e+000
4.493517e+002;0.000000e+000
4.512802e+002;0.000000e+000
4.532088e+002;0.000000e+000
4.551373e+002;0.000000e+000
4.570659e+002;0.000000e+000
4.589944e+002;0.000000e+000
4.609230e+002;0.000000e+000
4.628515e+002;0.000000e+000
4.647801e+002;0.000000e+000
4.667086e+002;0.000000e+000
4.686372e+002;0.000000e+000
4.705657e+002;0.000000e+000
4.724943e+002;0.000000e+000
4.744228e+002;0.000000e+000
4.763513e+002;0.000000e+000
4.782799e+002;0.000000e+000
4.802085e+002;0.000000e+000
4.821370e+002;0.000000e+000
4.840656e+002;0.000000e+000
4.859941e+002;0.000000e+000
4.879226e+002;0.000000e+000
4.898512e+002;0.000000e+000
4.917798e+002;0.000000e+000
4.937083e+002;0.000000e+000
4.956368e+002;0.000000e+000
4.975654e+002;0.000000e+000
4.994939e+002;0.000000e+000
5.014225e+002;0.000000e+000
5.033510e+002;0.000000e+000
5.052796e+002;0.000000e+000
5.072081e+002;0.000000e+000
5.091367e+002;0.000000e+000
5.110652e+002;0.000000e+000
5.129938e+002;0.000000e+000
5.149223e+002;0.000000e+000
5.168509e+002;0.000000e+000
5.187794e+002;0.000000e+000
5.207079e+002;0.000000e+000
5.226365e+002;0.000000e+000
5.245651e+002;0.000000e+000
5.264936e+002;0.000000e+000
5.284222e+002;0.000000e+000
5.303507e+002;0.000000e+000
5.322792e+002;0.000000e+000
5.342078e+002;0.000000e+000
5.361364e+002;0.000000e+000
5.380649e+002;0.000000e+000
5.399935e+002;0.000000e+000
5.419220e+002;0.000000e+000
5.438505e+002;0.000000e+000
5.457791e+002;0.000000e+000
5.477076e+002;0.000000e+000
5.496362e+002;0.000000e+000
5.515648e+002;0.000000e+000
5.534933e+002;0.000000e+000
5.554218e+002;0.000000e+000
5.573504e+002;0.000000e+000
5.592789e+002;0.000000e+000
5.612075e+002;0.000000e+000
5.631360e+002;0.000000e+000
5.650646e+002;0.000000e+000
5.669931e+002;0.000000e+000
5.689217e+002;0.000000e+000
5.708502e+002;0.000000e+000
5.727787e+002;0.000000e+000
5.747073e+002;0.000000e+000
5.766359e+002;0.000000e+000
5.785644e+002;0.000000e+000
5.804930e+002;0.000000e+000
5.824215e+002;0.000000e+000
5.843500e+002;0.000000e+000
5.862786e+002;0.000000e+000
5.882072e+002;0.000000e+000
5.901357e+002;0.000000e+000
5.920643e+002;0.000000e+000
5.939928e+002;0.000000e+000
5.959213e+002;0.000000e+000
5.978499e+002;0.000000e+000
5.997784e+002;3.052801e-001
6.017070e+002;3.040541e-001
6.036355e+002;3.013437e-001
6.055641e+002;3.041457e-001
6.074926e+002;3.135699e-001
6.094211e+002;3.193373e-001
6.113497e+002;3.180249e-001
6.132783e+002;3.119375e-001
6.152068e+002;3.044210e-001
6.171354e+002;3.052089e-001
6.190639e+002;3.091545e-001
6.209924e+002;3.117596e-001
6.229210e+002;3.091776e-001
6.248495e+002;3.017595e-001
6.267781e+002;2.971864e-001
6.287067e+002;2.950465e-001
6.306352e+002;2.955158e-001
6.325637e+002;2.997299e-001
6.344923e+002;3.015364e-001
6.364208e+002;2.999736e-001
6.383494e+002;2.923931e-001
6.402780e+002;2.851723e-001
6.422065e+002;2.828957e-001
6.441350e+002;2.819863e-001
6.460636e+002;2.836057e-001
6.479921e+002;2.840659e-001
6.499207e+002;2.830864e-001
6.518492e+002;2.816669e-001
6.537778e+002;2.828096e-001
6.557063e+002;2.835896e-001
6.576349e+002;2.823958e-001
6.595634e+002;2.831193e-001
6.614919e+002;2.830989e-001
6.634205e+002;2.813124e-001
6.653491e+002;2.809469e-001
6.672776e+002;2.813126e-001
6.692062e+002;2.815993e-001
6.711347e+002;2.828867e-001
6.730632e+002;2.823276e-001
6.749918e+002;2.810234e-001
6.769203e+002;2.802655e-001
6.788489e+002;2.779710e-001
6.807775e+002;2.777953e-001
6.827060e+002;2.790828e-001
6.846345e+002;2.800357e-001
6.865631e+002;2.789323e-001
6.884916e+002;2.756701e-001
6.904202e+002;2.754489e-001
6.923488e+002;2.745628e-001
6.942773e+002;2.721779e-001
6.962058e+002;2.711168e-001
6.981344e+002;2.701894e-001
7.000629e+002;2.672333e-001
7.019915e+002;2.629643e-001
7.039200e+002;2.604797e-001
7.058486e+002;2.596423e-001
7.077771e+002;2.560222e-001
7.097057e+002;2.522788e-001
7.116342e+002;2.501908e-001
7.135627e+002;2.477542e-001
7.154913e+002;2.451299e-001
7.174199e+002;2.416358e-001
7.193484e+002;2.380799e-001
7.212770e+002;2.351274e-001
7.232055e+002;2.320369e-001
7.251340e+002;2.283293e-001
7.270626e+002;2.243717e-001
7.289911e+002;2.205686e-001
7.309197e+002;2.182566e-001
7.328483e+002;2.162880e-001
7.347768e+002;2.123213e-001
7.367053e+002;2.076373e-001
7.386339e+002;2.037940e-001
7.405624e+002;2.005161e-001
7.424910e+002;1.971076e-001
7.444196e+002;1.929366e-001
7.463481e+002;1.895312e-001
7.482766e+002;1.880451e-001
7.502052e+002;1.860879e-001
7.521337e+002;1.815596e-001
7.540623e+002;1.783336e-001
7.559908e+002;1.771416e-001
7.579194e+002;1.759058e-001
7.598479e+002;1.745730e-001
7.617765e+002;1.731630e-001
7.637050e+002;1.710328e-001
7.656335e+002;1.687686e-001
7.675621e+002;1.673422e-001
7.694907e+002;1.661320e-001
7.714192e+002;1.642131e-001
7.733478e+002;1.626245e-001
7.752763e+002;1.606469e-001
7.772048e+002;1.582577e-001
7.791334e+002;1.560606e-001
7.810620e+002;1.538087e-001
7.829905e+002;1.522823e-001
7.849191e+002;1.512964e-001
7.868476e+002;1.492361e-001
7.887761e+002;1.476823e-001
7.907047e+002;1.468483e-001
7.926332e+002;1.450995e-001
7.945618e+002;1.434182e-001
7.964903e+002;1.429051e-001
7.984189e+002;1.424967e-001
8.003474e+002;1.412646e-001
8.022759e+002;1.405121e-001
8.042045e+002;1.405878e-001
8.061331e+002;1.412242e-001
8.080616e+002;1.419021e-001
8.099902e+002;1.420068e-001
8.119187e+002;1.427050e-001
8.138472e+002;1.428359e-001
8.157758e+002;1.424317e-001
8.177043e+002;1.422192e-001
8.196329e+002;1.429174e-001
8.215615e+002;1.436820e-001
8.234900e+002;1.437766e-001
8.254185e+002;1.440438e-001
8.273471e+002;1.441624e-001
8.292756e+002;1.441362e-001
8.312042e+002;1.433875e-001
8.331328e+002;1.415722e-001
8.350613e+002;1.395146e-001
8.369898e+002;1.370688e-001
8.389184e+002;1.351895e-001
8.408469e+002;1.342546e-001
8.427755e+002;1.334215e-001
8.447040e+002;1.329711e-001
8.466326e+002;1.334927e-001
8.485611e+002;1.340642e-001
8.504897e+002;1.344787e-001
8.524182e+002;1.345669e-001
8.543467e+002;1.339366e-001
8.562753e+002;1.319309e-001
8.582039e+002;1.294104e-001
8.601324e+002;1.274061e-001
8.620610e+002;1.257104e-001
8.639895e+002;1.238785e-001
8.659180e+002;1.224530e-001
8.678466e+002;1.219448e-001
8.697751e+002;1.220107e-001
8.717037e+002;1.224856e-001
8.736323e+002;1.228986e-001
8.755608e+002;1.227290e-001
8.774893e+002;1.225228e-001
8.794179e+002;1.225440e-001
8.813464e+002;1.223299e-001
8.832750e+002;1.226191e-001
8.852036e+002;1.227898e-001
8.871321e+002;1.223165e-001
8.890606e+002;1.221852e-001
8.909892e+002;1.225714e-001
8.929177e+002;1.227433e-001
8.948463e+002;1.223140e-001
8.967748e+002;1.223249e-001
8.987034e+002;1.223531e-001
9.006319e+002;1.217707e-001
9.025605e+002;1.210127e-001
9.044890e+002;1.210909e-001
9.064175e+002;1.216162e-001
9.083461e+002;1.218244e-001
9.102747e+002;1.222187e-001
9.122032e+002;1.233411e-001
9.141318e+002;1.248167e-001
9.160603e+002;1.258924e-001
9.179888e+002;1.272555e-001
9.199174e+002;1.290149e-001
9.218459e+002;1.308229e-001
9.237745e+002;1.323580e-001
9.257031e+002;1.336623e-001
9.276316e+002;1.349352e-001
9.295601e+002;1.360625e-001
9.314887e+002;1.363214e-001
9.334172e+002;1.361972e-001
9.353458e+002;1.362794e-001
9.372744e+002;1.365372e-001
9.392029e+002;1.369768e-001
9.411314e+002;1.377308e-001
9.430600e+002;1.384346e-001
9.449885e+002;1.389824e-001
9.469171e+002;1.395851e-001
9.488456e+002;1.408042e-001
9.507742e+002;1.422598e-001
9.527027e+002;1.435549e-001
9.546313e+002;1.448014e-001
9.565598e+002;1.457219e-001
9.584883e+002;1.469775e-001
9.604169e+002;1.487920e-001
9.623455e+002;1.507970e-001
9.642740e+002;1.529428e-001
9.662026e+002;1.552430e-001
9.681311e+002;1.577348e-001
9.700596e+002;1.601511e-001
9.719882e+002;1.621559e-001
9.739167e+002;1.637018e-001
9.758453e+002;1.645103e-001
9.777739e+002;1.643699e-001
9.797024e+002;1.639019e-001
9.816309e+002;1.631936e-001
9.835595e+002;1.626664e-001
9.854880e+002;1.631461e-001
9.874166e+002;1.646457e-001
9.893452e+002;1.666513e-001
9.912737e+002;1.693400e-001
9.932022e+002;1.718350e-001
9.951307e+002;1.732355e-001
9.970593e+002;1.734293e-001
9.989879e+002;1.727697e-001
1.000916e+003;1.717795e-001
1.002845e+003;1.705807e-001
1.004773e+003;1.696345e-001
1.006702e+003;1.689406e-001
1.008631e+003;1.682571e-001
1.010559e+003;1.675849e-001
1.012488e+003;1.667948e-001
1.014416e+003;1.661490e-001
1.016345e+003;1.656475e-001
1.018273e+003;1.652465e-001
1.020202e+003;1.654405e-001
1.022130e+003;1.670287e-001
1.024059e+003;1.697427e-001
1.025988e+003;1.726771e-001
1.027916e+003;1.756111e-001
1.029845e+003;1.793317e-001
1.031773e+003;1.829413e-001
1.033702e+003;1.857513e-001
1.035630e+003;1.881460e-001
1.037559e+003;1.904292e-001
1.039487e+003;1.920609e-001
1.041416e+003;1.934194e-001
1.043344e+003;1.945086e-001
1.045273e+003;1.950683e-001
1.047202e+003;1.956526e-001
1.049130e+003;1.964043e-001
1.051059e+003;1.973412e-001
1.052987e+003;1.991996e-001
1.054916e+003;2.015656e-001
1.056844e+003;2.041352e-001
1.058773e+003;2.064009e-001
1.060701e+003;2.085635e-001
1.062630e+003;2.104140e-001
1.064558e+003;2.116557e-001
1.066487e+003;2.121448e-001
1.068416e+003;2.118788e-001
1.070344e+003;2.113243e-001
1.072273e+003;2.098064e-001
1.074201e+003;2.072764e-001
1.076130e+003;2.035933e-001
1.078058e+003;1.999090e-001
1.079987e+003;1.967603e-001
1.081915e+003;1.938328e-001
1.083844e+003;1.906904e-001
1.085773e+003;1.869223e-001
1.087701e+003;1.832540e-001
1.089630e+003;1.800270e-001
1.091558e+003;1.775014e-001
1.093487e+003;1.757856e-001
1.095415e+003;1.750066e-001
1.097344e+003;1.748489e-001
1.099272e+003;1.744568e-001
1.101201e+003;1.745249e-001
1.103129e+003;1.744918e-001
1.105058e+003;1.738676e-001
1.106987e+003;1.731819e-001
1.108915e+003;1.723168e-001
1.110844e+003;1.711133e-001
1.112772e+003;1.704168e-001
1.114701e+003;1.700491e-001
1.116629e+003;1.694759e-001
1.118558e+003;1.689694e-001
1.120486e+003;1.688564e-001
1.122415e+003;1.690838e-001
1.124344e+003;1.695617e-001
1.126272e+003;1.700500e-001
1.128201e+003;1.703316e-001
1.130129e+003;1.707240e-001
1.132058e+003;1.717059e-001
1.133986e+003;1.730220e-001
1.135915e+003;1.741011e-001
1.137843e+003;1.755545e-001
1.139772e+003;1.771956e-001
1.141700e+003;1.793036e-001
1.143629e+003;1.811494e-001
1.145557e+003;1.829482e-001
1.147486e+003;1.850056e-001
1.149415e+003;1.870372e-001
1.151343e+003;1.887360e-001
1.153272e+003;1.907209e-001
1.155200e+003;1.927134e-001
1.157129e+003;1.940705e-001
1.159057e+003;1.950548e-001
1.160986e+003;1.958754e-001
1.162914e+003;1.968475e-001
1.164843e+003;1.978421e-001
1.166771e+003;1.989686e-001
1.168700e+003;2.003710e-001
1.170629e+003;2.009094e-001
1.172557e+003;2.001262e-001
1.174486e+003;1.985553e-001
1.176414e+003;1.967025e-001
1.178343e+003;1.945700e-001
1.180271e+003;1.924942e-001
1.182200e+003;1.913801e-001
1.184128e+003;1.915321e-001
1.186057e+003;1.922714e-001
1.187986e+003;1.931842e-001
1.189914e+003;1.947238e-001
1.191843e+003;1.968869e-001
1.193771e+003;1.994673e-001
1.195700e+003;2.029118e-001
1.197628e+003;2.070123e-001
1.199557e+003;2.115865e-001
1.201485e+003;2.165798e-001
1.203414e+003;2.220395e-001
1.205343e+003;2.278305e-001
1.207271e+003;2.336590e-001
1.209200e+003;2.392653e-001
1.211128e+003;2.448048e-001
1.213057e+003;2.503986e-001
1.214985e+003;2.553091e-001
1.216914e+003;2.599038e-001
1.218842e+003;2.644646e-001
1.220771e+003;2.682833e-001
1.222699e+003;2.714283e-001
1.224628e+003;2.741942e-001
1.226557e+003;2.763267e-001
1.228485e+003;2.774269e-001
1.230414e+003;2.774554e-001
1.232342e+003;2.766035e-001
1.234271e+003;2.747916e-001
1.236199e+003;2.726164e-001
1.238128e+003;2.700693e-001
1.240056e+003;2.672482e-001
1.241985e+003;2.647359e-001
1.243913e+003;2.623682e-001
1.245842e+003;2.605137e-001
1.247771e+003;2.591840e-001
1.249699e+003;2.574496e-001
1.251628e+003;2.559398e-001
1.253556e+003;2.551796e-001
1.255485e+003;2.543620e-001
1.257413e+003;2.531044e-001
1.259342e+003;2.513157e-001
1.261270e+003;2.485523e-001
1.263199e+003;2.449580e-001
1.265127e+003;2.415188e-001
1.267056e+003;2.379510e-001
1.268985e+003;2.337037e-001
1.270913e+003;2.290056e-001
1.272842e+003;2.245555e-001
1.274770e+003;2.205925e-001
1.276699e+003;2.174487e-001
1.278627e+003;2.145446e-001
1.280556e+003;2.117140e-001
1.282484e+003;2.097695e-001
1.284413e+003;2.083244e-001
1.286342e+003;2.071531e-001
1.288270e+003;2.063130e-001
1.290199e+003;2.055500e-001
1.292127e+003;2.050208e-001
1.294056e+003;2.052238e-001
1.295984e+003;2.056414e-001
1.297913e+003;2.057268e-001
1.299841e+003;2.057480e-001
1.301770e+003;2.055934e-001
1.303698e+003;2.052958e-001
1.305627e+003;2.049476e-001
1.307556e+003;2.047519e-001
1.309484e+003;2.043526e-001
1.311413e+003;2.037193e-001
1.313341e+003;2.035268e-001
1.315270e+003;2.034376e-001
1.317198e+003;2.033550e-001
1.319127e+003;2.035065e-001
1.321055e+003;2.042922e-001
1.322984e+003;2.052100e-001
1.324912e+003;2.061374e-001
1.326841e+003;2.072836e-001
1.328770e+003;2.081453e-001
1.330698e+003;2.088894e-001
1.332627e+003;2.095782e-001
1.334555e+003;2.096703e-001
1.336484e+003;2.095052e-001
1.338412e+003;2.093033e-001
1.340341e+003;2.090207e-001
1.342269e+003;2.089318e-001
1.344198e+003;2.090432e-001
1.346126e+003;2.093445e-001
1.348055e+003;2.095610e-001
1.349984e+003;2.096345e-001
1.351912e+003;2.097007e-001
1.353841e+003;2.102039e-001
1.355769e+003;2.117395e-001
1.357698e+003;2.138231e-001
1.359626e+003;2.163104e-001
1.361555e+003;2.197769e-001
1.363483e+003;2.235973e-001
1.365412e+003;2.271169e-001
1.367341e+003;2.294702e-001
1.369269e+003;2.304004e-001
1.371198e+003;2.304300e-001
1.373126e+003;2.300288e-001
1.375055e+003;2.291429e-001
1.376983e+003;2.284353e-001
1.378912e+003;2.283649e-001
1.380840e+003;2.287890e-001
1.382769e+003;2.294442e-001
1.384698e+003;2.297356e-001
1.386626e+003;2.301466e-001
1.388555e+003;2.309483e-001
1.390483e+003;2.315616e-001
1.392412e+003;2.317204e-001
1.394340e+003;2.320368e-001
1.396269e+003;2.330718e-001
1.398197e+003;2.343285e-001
1.400126e+003;2.354981e-001
1.402054e+003;2.364718e-001
1.403983e+003;2.377024e-001
1.405911e+003;2.391923e-001
1.407840e+003;2.403897e-001
1.409769e+003;2.410642e-001
1.411697e+003;2.414976e-001
1.413626e+003;2.418742e-001
1.415554e+003;2.421795e-001
1.417483e+003;2.424953e-001
1.419411e+003;2.435065e-001
1.421340e+003;2.455952e-001
1.423268e+003;2.483268e-001
1.425197e+003;2.523553e-001
1.427125e+003;2.578263e-001
1.429054e+003;2.642621e-001
1.430983e+003;2.718748e-001
1.432911e+003;2.802810e-001
1.434840e+003;2.878568e-001
1.436768e+003;2.935124e-001
1.438697e+003;2.977781e-001
1.440625e+003;3.006389e-001
1.442554e+003;3.023558e-001
1.444482e+003;3.027909e-001
1.446411e+003;3.015509e-001
1.448340e+003;2.986429e-001
1.450268e+003;2.942112e-001
1.452197e+003;2.881261e-001
1.454125e+003;2.810121e-001
1.456054e+003;2.736007e-001
1.457982e+003;2.680386e-001
1.459911e+003;2.647234e-001
1.461839e+003;2.622366e-001
1.463768e+003;2.601410e-001
1.465697e+003;2.593567e-001
1.467625e+003;2.600201e-001
1.469554e+003;2.614171e-001
1.471482e+003;2.630489e-001
1.473411e+003;2.655905e-001
1.475339e+003;2.691274e-001
1.477268e+003;2.733307e-001
1.479196e+003;2.787884e-001
1.481125e+003;2.855308e-001
1.483053e+003;2.938523e-001
1.484982e+003;3.032782e-001
1.486911e+003;3.131217e-001
1.488839e+003;3.239431e-001
1.490768e+003;3.358340e-001
1.492696e+003;3.484790e-001
1.494625e+003;3.609810e-001
1.496553e+003;3.735224e-001
1.498482e+003;3.859646e-001
1.500410e+003;3.981534e-001
1.502339e+003;4.098445e-001
1.504267e+003;4.201271e-001
1.506196e+003;4.292654e-001
1.508125e+003;4.383635e-001
1.510053e+003;4.462969e-001
1.511982e+003;4.522860e-001
1.513910e+003;4.552763e-001
1.515839e+003;4.534284e-001
1.517767e+003;4.461606e-001
1.519696e+003;4.353692e-001
1.521624e+003;4.238201e-001
1.523553e+003;4.140989e-001
1.525481e+003;4.057401e-001
1.527410e+003;3.981847e-001
1.529339e+003;3.908661e-001
1.531267e+003;3.833482e-001
1.533196e+003;3.754857e-001
1.535124e+003;3.674768e-001
1.537053e+003;3.596685e-001
1.538981e+003;3.516739e-001
1.540910e+003;3.444394e-001
1.542838e+003;3.383150e-001
1.544767e+003;3.320358e-001
1.546695e+003;3.253559e-001
1.548624e+003;3.184074e-001
1.550553e+003;3.117097e-001
1.552481e+003;3.051742e-001
1.554410e+003;2.978413e-001
1.556338e+003;2.903883e-001
1.558267e+003;2.826454e-001
1.560195e+003;2.761297e-001
1.562124e+003;2.704237e-001
1.564052e+003;2.640179e-001
1.565981e+003;2.572783e-001
1.567910e+003;2.513189e-001
1.569838e+003;2.460807e-001
1.571767e+003;2.416439e-001
1.573695e+003;2.378525e-001
1.575624e+003;2.349368e-001
1.577552e+003;2.338432e-001
1.579481e+003;2.340719e-001
1.581409e+003;2.347632e-001
1.583338e+003;2.366643e-001
1.585266e+003;2.398600e-001
1.587195e+003;2.446207e-001
1.589124e+003;2.505329e-001
1.591052e+003;2.579133e-001
1.592981e+003;2.668059e-001
1.594909e+003;2.766775e-001
1.596838e+003;2.876417e-001
1.598766e+003;2.996356e-001
1.600695e+003;3.131869e-001
1.602623e+003;3.286321e-001
1.604552e+003;3.462755e-001
1.606480e+003;3.652196e-001
1.608409e+003;3.851268e-001
1.610338e+003;4.053981e-001
1.612266e+003;4.244992e-001
1.614195e+003;4.413580e-001
1.616123e+003;4.549998e-001
1.618052e+003;4.653498e-001
1.619980e+003;4.720488e-001
1.621909e+003;4.740820e-001
1.623837e+003;4.718718e-001
1.625766e+003;4.659163e-001
1.627694e+003;4.566021e-001
1.629623e+003;4.453092e-001
1.631552e+003;4.333016e-001
1.633480e+003;4.200931e-001
1.635409e+003;4.061969e-001
1.637337e+003;3.939050e-001
1.639266e+003;3.829169e-001
1.641194e+003;3.721752e-001
1.643123e+003;3.621771e-001
1.645051e+003;3.525479e-001
1.646980e+003;3.431759e-001
1.648909e+003;3.345177e-001
1.650837e+003;3.256615e-001
1.652766e+003;3.161972e-001
1.654694e+003;3.079326e-001
1.656623e+003;2.997482e-001
1.658551e+003;2.907764e-001
1.660480e+003;2.821530e-001
1.662408e+003;2.734942e-001
1.664337e+003;2.656852e-001
1.666266e+003;2.585129e-001
1.668194e+003;2.510295e-001
1.670123e+003;2.439093e-001
1.672051e+003;2.375065e-001
1.673980e+003;2.312391e-001
1.675908e+003;2.253154e-001
1.677837e+003;2.196483e-001
1.679765e+003;2.139725e-001
1.681694e+003;2.087252e-001
1.683622e+003;2.032759e-001
1.685551e+003;1.989195e-001
1.687479e+003;1.956855e-001
1.689408e+003;1.925471e-001
1.691337e+003;1.902594e-001
1.693265e+003;1.882921e-001
1.695194e+003;1.861487e-001
1.697122e+003;1.850159e-001
1.699051e+003;1.820610e-001
1.700979e+003;1.746629e-001
1.702908e+003;1.637221e-001
1.704836e+003;1.499843e-001
1.706765e+003;1.364165e-001
1.708693e+003;1.249732e-001
1.710622e+003;1.157519e-001
1.712551e+003;1.083053e-001
1.714479e+003;1.021591e-001
1.716408e+003;9.727298e-002
1.718336e+003;9.403872e-002
1.720265e+003;9.178042e-002
1.722193e+003;8.976450e-002
1.724122e+003;8.782440e-002
1.726050e+003;8.636018e-002
1.727979e+003;8.501974e-002
1.729908e+003;8.348003e-002
1.731836e+003;8.190931e-002
1.733765e+003;8.037048e-002
1.735693e+003;7.959626e-002
1.737622e+003;7.906236e-002
1.739550e+003;7.792351e-002
1.741479e+003;7.719737e-002
1.743407e+003;7.659891e-002
1.745336e+003;7.597505e-002
1.747265e+003;7.523751e-002
1.749193e+003;7.453334e-002
1.751122e+003;7.439250e-002
1.753050e+003;7.455352e-002
1.754979e+003;7.446297e-002
1.756907e+003;7.432726e-002
1.758836e+003;7.428334e-002
1.760764e+003;7.410426e-002
1.762693e+003;7.386719e-002
1.764621e+003;7.395463e-002
1.766550e+003;7.384340e-002
1.768479e+003;7.355929e-002
1.770407e+003;7.318944e-002
1.772336e+003;7.265134e-002
1.774264e+003;7.256221e-002
1.776193e+003;7.293799e-002
1.778121e+003;7.301289e-002
1.780050e+003;7.272729e-002
1.781978e+003;7.239848e-002
1.783907e+003;7.209775e-002
1.785835e+003;7.212912e-002
1.787764e+003;7.209982e-002
1.789693e+003;7.166841e-002
1.791621e+003;7.134129e-002
1.793550e+003;7.122162e-002
1.795478e+003;7.120483e-002
1.797407e+003;7.105011e-002
1.799335e+003;7.088286e-002
1.801264e+003;7.054891e-002
1.803192e+003;7.038925e-002
1.805121e+003;7.041734e-002
1.807049e+003;7.020090e-002
1.808978e+003;6.981511e-002
1.810907e+003;6.959410e-002
1.812835e+003;6.959628e-002
1.814764e+003;6.958418e-002
1.816692e+003;6.943327e-002
1.818621e+003;6.926025e-002
1.820549e+003;6.894830e-002
1.822478e+003;6.861988e-002
1.824406e+003;6.827127e-002
1.826335e+003;6.811814e-002
1.828264e+003;6.797177e-002
1.830192e+003;6.769752e-002
1.832121e+003;6.737600e-002
1.834049e+003;6.723317e-002
1.835978e+003;6.702898e-002
1.837906e+003;6.691524e-002
1.839835e+003;6.699476e-002
1.841763e+003;6.683408e-002
1.843692e+003;6.637126e-002
1.845620e+003;6.616014e-002
1.847549e+003;6.610389e-002
1.849478e+003;6.611863e-002
1.851406e+003;6.608629e-002
1.853335e+003;6.598870e-002
1.855263e+003;6.596814e-002
1.857192e+003;6.594241e-002
1.859120e+003;6.586625e-002
1.861049e+003;6.590740e-002
1.862977e+003;6.587797e-002
1.864906e+003;6.578374e-002
1.866834e+003;6.579099e-002
1.868763e+003;6.574214e-002
1.870692e+003;6.572815e-002
1.872620e+003;6.578147e-002
1.874549e+003;6.592286e-002
1.876477e+003;6.606886e-002
1.878406e+003;6.608182e-002
1.880334e+003;6.594307e-002
1.882263e+003;6.573393e-002
1.884191e+003;6.562139e-002
1.886120e+003;6.568583e-002
1.888048e+003;6.574831e-002
1.889977e+003;6.582434e-002
1.891906e+003;6.597026e-002
1.893834e+003;6.589460e-002
1.895763e+003;6.571231e-002
1.897691e+003;6.558663e-002
1.899620e+003;6.572361e-002
1.901548e+003;6.574269e-002
1.903477e+003;6.576859e-002
1.905405e+003;6.572326e-002
1.907334e+003;6.563784e-002
1.909262e+003;6.555441e-002
1.911191e+003;6.547605e-002
1.913120e+003;6.537743e-002
1.915048e+003;6.511844e-002
1.916977e+003;6.497180e-002
1.918905e+003;6.503534e-002
1.920834e+003;6.505982e-002
1.922762e+003;6.513765e-002
1.924691e+003;6.517369e-002
1.926619e+003;6.498712e-002
1.928548e+003;6.482291e-002
1.930477e+003;6.497557e-002
1.932405e+003;6.515913e-002
1.934334e+003;6.528565e-002
1.936262e+003;6.528681e-002
1.938191e+003;6.516691e-002
1.940119e+003;6.514327e-002
1.942048e+003;6.518631e-002
1.943976e+003;6.526817e-002
1.945905e+003;6.508203e-002
1.947833e+003;6.510778e-002
1.949762e+003;6.546538e-002
1.951691e+003;6.552224e-002
1.953619e+003;6.538895e-002
1.955548e+003;6.537808e-002
1.957476e+003;6.571224e-002
1.959405e+003;6.598469e-002
1.961333e+003;6.600135e-002
1.963262e+003;6.589626e-002
1.965190e+003;6.575429e-002
1.967119e+003;6.554162e-002
1.969047e+003;6.564733e-002
1.970976e+003;6.585750e-002
1.972905e+003;6.579546e-002
1.974833e+003;6.565923e-002
1.976762e+003;6.567457e-002
1.978690e+003;6.582449e-002
1.980619e+003;6.576721e-002
1.982547e+003;6.576928e-002
1.984476e+003;6.579785e-002
1.986404e+003;6.581042e-002
1.988333e+003;6.579600e-002
1.990261e+003;6.563839e-002
1.992190e+003;6.552740e-002
1.994119e+003;6.552282e-002
1.996047e+003;6.540801e-002
1.997976e+003;6.525058e-002
1.999904e+003;6.531473e-002
2.001833e+003;6.517842e-002
2.003761e+003;6.508649e-002
2.005690e+003;6.509896e-002
2.007618e+003;6.497435e-002
2.009547e+003;6.504042e-002
2.011476e+003;6.533487e-002
2.013404e+003;6.532898e-002
2.015333e+003;6.526928e-002
2.017261e+003;6.538109e-002
2.019190e+003;6.535216e-002
2.021118e+003;6.531172e-002
2.023047e+003;6.559025e-002
2.024975e+003;6.568945e-002
2.026904e+003;6.551357e-002
2.028833e+003;6.554701e-002
2.030761e+003;6.570109e-002
2.032690e+003;6.553379e-002
2.034618e+003;6.539399e-002
2.036547e+003;6.551989e-002
2.038475e+003;6.565033e-002
2.040404e+003;6.547866e-002
2.042332e+003;6.551253e-002
2.044261e+003;6.589364e-002
2.046189e+003;6.615663e-002
2.048118e+003;6.600421e-002
2.050047e+003;6.574187e-002
2.051975e+003;6.579079e-002
2.053904e+003;6.592433e-002
2.055832e+003;6.587470e-002
2.057761e+003;6.579909e-002
2.059689e+003;6.587053e-002
2.061618e+003;6.592437e-002
2.063546e+003;6.605659e-002
2.065475e+003;6.602862e-002
2.067404e+003;6.601435e-002
2.069332e+003;6.610952e-002
2.071260e+003;6.626430e-002
2.073189e+003;6.640176e-002
2.075118e+003;6.634659e-002
2.077046e+003;6.632054e-002
2.078975e+003;6.632636e-002
2.080903e+003;6.633995e-002
2.082832e+003;6.631459e-002
2.084760e+003;6.634937e-002
2.086689e+003;6.635833e-002
2.088617e+003;6.641787e-002
2.090546e+003;6.650393e-002
2.092475e+003;6.657453e-002
2.094403e+003;6.642257e-002
2.096332e+003;6.615952e-002
2.098260e+003;6.634366e-002
2.100189e+003;6.668400e-002
2.102117e+003;6.668976e-002
2.104046e+003;6.668446e-002
2.105974e+003;6.656823e-002
2.107903e+003;6.651706e-002
2.109832e+003;6.665870e-002
2.111760e+003;6.673183e-002
2.113688e+003;6.685800e-002
2.115617e+003;6.668902e-002
2.117546e+003;6.628869e-002
2.119474e+003;6.611700e-002
2.121403e+003;6.623293e-002
2.123331e+003;6.643095e-002
2.125260e+003;6.650999e-002
2.127188e+003;6.653073e-002
2.129117e+003;6.641465e-002
2.131045e+003;6.637122e-002
2.132974e+003;6.655622e-002
2.134903e+003;6.671970e-002
2.136831e+003;6.664468e-002
2.138760e+003;6.649648e-002
2.140688e+003;6.640871e-002
2.142617e+003;6.621895e-002
2.144545e+003;6.614348e-002
2.146474e+003;6.620379e-002
2.148402e+003;6.627353e-002
2.150331e+003;6.620607e-002
2.152260e+003;6.612469e-002
2.154188e+003;6.622659e-002
2.156117e+003;6.647041e-002
2.158045e+003;6.650435e-002
2.159974e+003;6.628645e-002
2.161902e+003;6.611484e-002
2.163831e+003;6.621799e-002
2.165759e+003;6.632359e-002
2.167688e+003;6.625786e-002
2.169616e+003;6.622571e-002
2.171545e+003;6.614760e-002
2.173474e+003;6.615239e-002
2.175402e+003;6.607985e-002
2.177331e+003;6.597119e-002
2.179259e+003;6.584863e-002
2.181188e+003;6.583703e-002
2.183116e+003;6.613452e-002
2.185045e+003;6.636933e-002
2.186973e+003;6.620761e-002
2.188902e+003;6.605428e-002
2.190831e+003;6.601084e-002
2.192759e+003;6.588692e-002
2.194688e+003;6.605431e-002
2.196616e+003;6.619812e-002
2.198545e+003;6.614213e-002
2.200473e+003;6.614093e-002
2.202402e+003;6.618399e-002
2.204330e+003;6.617002e-002
2.206259e+003;6.603410e-002
2.208188e+003;6.596444e-002
2.210116e+003;6.595364e-002
2.212044e+003;6.598704e-002
2.213973e+003;6.622401e-002
2.215902e+003;6.650709e-002
2.217830e+003;6.646872e-002
2.219759e+003;6.627762e-002
2.221687e+003;6.617091e-002
2.223616e+003;6.600992e-002
2.225544e+003;6.588800e-002
2.227473e+003;6.584547e-002
2.229401e+003;6.575980e-002
2.231330e+003;6.571740e-002
2.233259e+003;6.572557e-002
2.235187e+003;6.574161e-002
2.237116e+003;6.583047e-002
2.239044e+003;6.594847e-002
2.240973e+003;6.600613e-002
2.242901e+003;6.596054e-002
2.244830e+003;6.592001e-002
2.246758e+003;6.609301e-002
2.248687e+003;6.609305e-002
2.250615e+003;6.601265e-002
2.252544e+003;6.598735e-002
2.254473e+003;6.575155e-002
2.256401e+003;6.542639e-002
2.258330e+003;6.538840e-002
2.260258e+003;6.561857e-002
2.262187e+003;6.565712e-002
2.264115e+003;6.549319e-002
2.266044e+003;6.570699e-002
2.267972e+003;6.600907e-002
2.269901e+003;6.610686e-002
2.271830e+003;6.591067e-002
2.273758e+003;6.571219e-002
2.275687e+003;6.561052e-002
2.277615e+003;6.568062e-002
2.279544e+003;6.602751e-002
2.281472e+003;6.633532e-002
2.283401e+003;6.647906e-002
2.285329e+003;6.653293e-002
2.287258e+003;6.649096e-002
2.289187e+003;6.625620e-002
2.291115e+003;6.629013e-002
2.293043e+003;6.650845e-002
2.294972e+003;6.641454e-002
2.296901e+003;6.632312e-002
2.298829e+003;6.635852e-002
2.300758e+003;6.642477e-002
2.302686e+003;6.666024e-002
2.304615e+003;6.662779e-002
2.306543e+003;6.637400e-002
2.308472e+003;6.640682e-002
2.310400e+003;6.645238e-002
2.312329e+003;6.637906e-002
2.314258e+003;6.629159e-002
2.316186e+003;6.606334e-002
2.318115e+003;6.603198e-002
2.320043e+003;6.599183e-002
2.321972e+003;6.569628e-002
2.323900e+003;6.570598e-002
2.325829e+003;6.585792e-002
2.327757e+003;6.583533e-002
2.329686e+003;6.564247e-002
2.331615e+003;6.556597e-002
2.333543e+003;6.559549e-002
2.335472e+003;6.555387e-002
2.337400e+003;6.563156e-002
2.339329e+003;6.576520e-002
2.341257e+003;6.608475e-002
2.343186e+003;6.631344e-002
2.345114e+003;6.623481e-002
2.347043e+003;6.628109e-002
2.348971e+003;6.642697e-002
2.350900e+003;6.642447e-002
2.352829e+003;6.600922e-002
2.354757e+003;6.562366e-002
2.356686e+003;6.570098e-002
2.358614e+003;6.574827e-002
2.360543e+003;6.579469e-002
2.362471e+003;6.576987e-002
2.364400e+003;6.581721e-002
2.366328e+003;6.604297e-002
2.368257e+003;6.629047e-002
2.370186e+003;6.673960e-002
2.372114e+003;6.697500e-002
2.374042e+003;6.701270e-002
2.375971e+003;6.709950e-002
2.377900e+003;6.746675e-002
2.379828e+003;6.762751e-002
2.381757e+003;6.745925e-002
2.383685e+003;6.763197e-002
2.385614e+003;6.810628e-002
2.387542e+003;6.810911e-002
2.389471e+003;6.791539e-002
2.391399e+003;6.800071e-002
2.393328e+003;6.823262e-002
2.395257e+003;6.849809e-002
2.397185e+003;6.862170e-002
2.399114e+003;6.869870e-002
2.401042e+003;6.884668e-002
2.402971e+003;6.898578e-002
2.404899e+003;6.909496e-002
2.406828e+003;6.928315e-002
2.408756e+003;6.967131e-002
2.410685e+003;7.010985e-002
2.412614e+003;7.020834e-002
2.414542e+003;7.022544e-002
2.416471e+003;7.027782e-002
2.418399e+003;7.056404e-002
2.420328e+003;7.107872e-002
2.422256e+003;7.146908e-002
2.424185e+003;7.164200e-002
2.426113e+003;7.176776e-002
2.428042e+003;7.203615e-002
2.429970e+003;7.214954e-002
2.431899e+003;7.198096e-002
2.433828e+003;7.208394e-002
2.435756e+003;7.255821e-002
2.437685e+003;7.285212e-002
2.439613e+003;7.267273e-002
2.441542e+003;7.255246e-002
2.443470e+003;7.284503e-002
2.445399e+003;7.318066e-002
2.447327e+003;7.329930e-002
2.449256e+003;7.330095e-002
2.451185e+003;7.322141e-002
2.453113e+003;7.317607e-002
2.455042e+003;7.330409e-002
2.456970e+003;7.351530e-002
2.458899e+003;7.361794e-002
2.460827e+003;7.370120e-002
2.462756e+003;7.390726e-002
2.464684e+003;7.406728e-002
2.466613e+003;7.401404e-002
2.468542e+003;7.385074e-002
2.470470e+003;7.403278e-002
2.472398e+003;7.439973e-002
2.474327e+003;7.466844e-002
2.476256e+003;7.481084e-002
2.478184e+003;7.470398e-002
2.480113e+003;7.469843e-002
2.482041e+003;7.495111e-002
2.483970e+003;7.514551e-002
2.485898e+003;7.510478e-002
2.487827e+003;7.508820e-002
2.489755e+003;7.526575e-002
2.491684e+003;7.541780e-002
2.493613e+003;7.528589e-002
2.495541e+003;7.523463e-002
2.497470e+003;7.529196e-002
2.499398e+003;7.537972e-002
2.501327e+003;7.534051e-002
2.503255e+003;7.517411e-002
2.505184e+003;7.534851e-002
2.507112e+003;7.565930e-002
2.509041e+003;7.585327e-002
2.510969e+003;7.599479e-002
2.512898e+003;7.591483e-002
2.514827e+003;7.563671e-002
2.516755e+003;7.556628e-002
2.518684e+003;7.575334e-002
2.520612e+003;7.600596e-002
2.522541e+003;7.626271e-002
2.524469e+003;7.636016e-002
2.526398e+003;7.639559e-002
2.528326e+003;7.645901e-002
2.530255e+003;7.656243e-002
2.532184e+003;7.658570e-002
2.534112e+003;7.650121e-002
2.536041e+003;7.646663e-002
2.537969e+003;7.648458e-002
2.539898e+003;7.663400e-002
2.541826e+003;7.704815e-002
2.543755e+003;7.748113e-002
2.545683e+003;7.771494e-002
2.547612e+003;7.784617e-002
2.549541e+003;7.783464e-002
2.551469e+003;7.782116e-002
2.553397e+003;7.806800e-002
2.555326e+003;7.842818e-002
2.557255e+003;7.871195e-002
2.559183e+003;7.876823e-002
2.561112e+003;7.903824e-002
2.563040e+003;7.928753e-002
2.564969e+003;7.948997e-002
2.566897e+003;7.983427e-002
2.568826e+003;7.998817e-002
2.570754e+003;7.999626e-002
2.572683e+003;8.021741e-002
2.574612e+003;8.048648e-002
2.576540e+003;8.082699e-002
2.578469e+003;8.117452e-002
2.580397e+003;8.135794e-002
2.582326e+003;8.145849e-002
2.584254e+003;8.159521e-002
2.586183e+003;8.187782e-002
2.588111e+003;8.213243e-002
2.590040e+003;8.219596e-002
2.591969e+003;8.232951e-002
2.593897e+003;8.250292e-002
2.595826e+003;8.270258e-002
2.597754e+003;8.291399e-002
2.599683e+003;8.312692e-002
2.601611e+003;8.345208e-002
2.603540e+003;8.362863e-002
2.605468e+003;8.374470e-002
2.607397e+003;8.400249e-002
2.609325e+003;8.423116e-002
2.611254e+003;8.405598e-002
2.613183e+003;8.405762e-002
2.615111e+003;8.436984e-002
2.617040e+003;8.455273e-002
2.618968e+003;8.465237e-002
2.620897e+003;8.468736e-002
2.622825e+003;8.473138e-002
2.624754e+003;8.478519e-002
2.626682e+003;8.463626e-002
2.628611e+003;8.449303e-002
2.630540e+003;8.450281e-002
2.632468e+003;8.454902e-002
2.634396e+003;8.462285e-002
2.636325e+003;8.460285e-002
2.638254e+003;8.461665e-002
2.640182e+003;8.454697e-002
2.642111e+003;8.439439e-002
2.644039e+003;8.446413e-002
2.645968e+003;8.449697e-002
2.647896e+003;8.451577e-002
2.649825e+003;8.456778e-002
2.651753e+003;8.475631e-002
2.653682e+003;8.500821e-002
2.655611e+003;8.501257e-002
2.657539e+003;8.485318e-002
2.659468e+003;8.481531e-002
2.661396e+003;8.512324e-002
2.663325e+003;8.551312e-002
2.665253e+003;8.556658e-002
2.667182e+003;8.555399e-002
2.669110e+003;8.588849e-002
2.671039e+003;8.610049e-002
2.672968e+003;8.626369e-002
2.674896e+003;8.648983e-002
2.676825e+003;8.672199e-002
2.678753e+003;8.676100e-002
2.680682e+003;8.708145e-002
2.682610e+003;8.750851e-002
2.684539e+003;8.757888e-002
2.686467e+003;8.778960e-002
2.688396e+003;8.801576e-002
2.690324e+003;8.812468e-002
2.692253e+003;8.846471e-002
2.694182e+003;8.877841e-002
2.696110e+003;8.889594e-002
2.698039e+003;8.897377e-002
2.699967e+003;8.893757e-002
2.701896e+003;8.907138e-002
2.703824e+003;8.939146e-002
2.705753e+003;8.969198e-002
2.707681e+003;8.978324e-002
2.709610e+003;9.008044e-002
2.711539e+003;9.037817e-002
2.713467e+003;9.062622e-002
2.715396e+003;9.096143e-002
2.717324e+003;9.106381e-002
2.719253e+003;9.091824e-002
2.721181e+003;9.125318e-002
2.723110e+003;9.158269e-002
2.725038e+003;9.155270e-002
2.726967e+003;9.190442e-002
2.728896e+003;9.247271e-002
2.730824e+003;9.260453e-002
2.732752e+003;9.262315e-002
2.734681e+003;9.294574e-002
2.736610e+003;9.332800e-002
2.738538e+003;9.357005e-002
2.740467e+003;9.370410e-002
2.742395e+003;9.396426e-002
2.744324e+003;9.413156e-002
2.746252e+003;9.432045e-002
2.748181e+003;9.465374e-002
2.750109e+003;9.481199e-002
2.752038e+003;9.510960e-002
2.753967e+003;9.539050e-002
2.755895e+003;9.560232e-002
2.757824e+003;9.580962e-002
2.759752e+003;9.589671e-002
2.761681e+003;9.603644e-002
2.763609e+003;9.626355e-002
2.765538e+003;9.643252e-002
2.767466e+003;9.644440e-002
2.769395e+003;9.655591e-002
2.771323e+003;9.690753e-002
2.773252e+003;9.724385e-002
2.775181e+003;9.756051e-002
2.777109e+003;9.763701e-002
2.779038e+003;9.782784e-002
2.780966e+003;9.806985e-002
2.782895e+003;9.816001e-002
2.784823e+003;9.839376e-002
2.786752e+003;9.850179e-002
2.788680e+003;9.843320e-002
2.790609e+003;9.859999e-002
2.792538e+003;9.888756e-002
2.794466e+003;9.907562e-002
2.796395e+003;9.936180e-002
2.798323e+003;9.978598e-002
2.800252e+003;9.996267e-002
2.802180e+003;9.984723e-002
2.804109e+003;1.002448e-001
2.806037e+003;1.007934e-001
2.807966e+003;1.008566e-001
2.809895e+003;1.009324e-001
2.811823e+003;1.011256e-001
2.813751e+003;1.011605e-001
2.815680e+003;1.013784e-001
2.817609e+003;1.017535e-001
2.819537e+003;1.018025e-001
2.821466e+003;1.018470e-001
2.823394e+003;1.023678e-001
2.825323e+003;1.027264e-001
2.827251e+003;1.025727e-001
2.829180e+003;1.029006e-001
2.831108e+003;1.033367e-001
2.833037e+003;1.031874e-001
2.834966e+003;1.035660e-001
2.836894e+003;1.043665e-001
2.838823e+003;1.044841e-001
2.840751e+003;1.044589e-001
2.842680e+003;1.050270e-001
2.844608e+003;1.056181e-001
2.846537e+003;1.054335e-001
2.848465e+003;1.053506e-001
2.850394e+003;1.059383e-001
2.852323e+003;1.071872e-001
2.854251e+003;1.085890e-001
2.856180e+003;1.097152e-001
2.858108e+003;1.107919e-001
2.860037e+003;1.116304e-001
2.861965e+003;1.124072e-001
2.863894e+003;1.134523e-001
2.865822e+003;1.142586e-001
2.867751e+003;1.149686e-001
2.869679e+003;1.157310e-001
2.871608e+003;1.160105e-001
2.873536e+003;1.161190e-001
2.875465e+003;1.166832e-001
2.877394e+003;1.169612e-001
2.879322e+003;1.167259e-001
2.881251e+003;1.165307e-001
2.883179e+003;1.163657e-001
2.885108e+003;1.162759e-001
2.887036e+003;1.163285e-001
2.888965e+003;1.161405e-001
2.890893e+003;1.159385e-001
2.892822e+003;1.160285e-001
2.894750e+003;1.164188e-001
2.896679e+003;1.164838e-001
2.898608e+003;1.165916e-001
2.900536e+003;1.168405e-001
2.902465e+003;1.172059e-001
2.904393e+003;1.176715e-001
2.906322e+003;1.182224e-001
2.908250e+003;1.185895e-001
2.910179e+003;1.184702e-001
2.912107e+003;1.182351e-001
2.914036e+003;1.181907e-001
2.915965e+003;1.187581e-001
2.917893e+003;1.196569e-001
2.919822e+003;1.208219e-001
2.921750e+003;1.224402e-001
2.923679e+003;1.240308e-001
2.925607e+003;1.253213e-001
2.927536e+003;1.266505e-001
2.929464e+003;1.277130e-001
2.931393e+003;1.284099e-001
2.933322e+003;1.287827e-001
2.935250e+003;1.288022e-001
2.937178e+003;1.283919e-001
2.939107e+003;1.279191e-001
2.941036e+003;1.274545e-001
2.942964e+003;1.266737e-001
2.944893e+003;1.255786e-001
2.946821e+003;1.246424e-001
2.948750e+003;1.237595e-001
2.950678e+003;1.229041e-001
2.952607e+003;1.221038e-001
2.954535e+003;1.216558e-001
2.956464e+003;1.214465e-001
2.958393e+003;1.213129e-001
2.960321e+003;1.211652e-001
2.962250e+003;1.207912e-001
2.964178e+003;1.207900e-001
2.966107e+003;1.214202e-001
2.968035e+003;1.218381e-001
2.969964e+003;1.217822e-001
2.971892e+003;1.219189e-001
2.973821e+003;1.221400e-001
2.975750e+003;1.219541e-001
2.977678e+003;1.216106e-001
2.979607e+003;1.212563e-001
2.981535e+003;1.209814e-001
2.983464e+003;1.205390e-001
2.985392e+003;1.197432e-001
2.987321e+003;1.190134e-001
2.989249e+003;1.186150e-001
2.991178e+003;1.181047e-001
2.993106e+003;1.177147e-001
2.995035e+003;1.172405e-001
2.996964e+003;1.166440e-001
2.998892e+003;1.163620e-001
3.000821e+003;1.162868e-001
3.002749e+003;1.156798e-001
3.004678e+003;1.152955e-001
3.006606e+003;1.152885e-001
3.008535e+003;1.150950e-001
3.010463e+003;1.150755e-001
3.012392e+003;1.153615e-001
3.014321e+003;1.156290e-001
3.016249e+003;1.156489e-001
3.018177e+003;1.157362e-001
3.020106e+003;1.160773e-001
3.022035e+003;1.164035e-001
3.023963e+003;1.167387e-001
3.025892e+003;1.172872e-001
3.027820e+003;1.179875e-001
3.029749e+003;1.183496e-001
3.031677e+003;1.185664e-001
3.033606e+003;1.189886e-001
3.035534e+003;1.193862e-001
3.037463e+003;1.200330e-001
3.039392e+003;1.207486e-001
3.041320e+003;1.212040e-001
3.043249e+003;1.219177e-001
3.045177e+003;1.227853e-001
3.047106e+003;1.236764e-001
3.049034e+003;1.247115e-001
3.050963e+003;1.255492e-001
3.052891e+003;1.258303e-001
3.054820e+003;1.260726e-001
3.056749e+003;1.268327e-001
3.058677e+003;1.274701e-001
3.060606e+003;1.279991e-001
3.062534e+003;1.282405e-001
3.064463e+003;1.286495e-001
3.066391e+003;1.292827e-001
3.068320e+003;1.296054e-001
3.070248e+003;1.297096e-001
3.072177e+003;1.298932e-001
3.074105e+003;1.299738e-001
3.076034e+003;1.296199e-001
3.077963e+003;1.292815e-001
3.079891e+003;1.294255e-001
3.081820e+003;1.293391e-001
3.083748e+003;1.289742e-001
3.085677e+003;1.288876e-001
3.087605e+003;1.285365e-001
3.089534e+003;1.280787e-001
3.091462e+003;1.277840e-001
3.093391e+003;1.275529e-001
3.095320e+003;1.271424e-001
3.097248e+003;1.267793e-001
3.099177e+003;1.265266e-001
3.101105e+003;1.262330e-001
3.103034e+003;1.256477e-001
3.104962e+003;1.252648e-001
3.106891e+003;1.254136e-001
3.108819e+003;1.253979e-001
3.110748e+003;1.248175e-001
3.112677e+003;1.243083e-001
3.114605e+003;1.239691e-001
3.116533e+003;1.237229e-001
3.118462e+003;1.237264e-001
3.120391e+003;1.237294e-001
3.122319e+003;1.235833e-001
3.124248e+003;1.234507e-001
3.126176e+003;1.236364e-001
3.128105e+003;1.239284e-001
3.130033e+003;1.240247e-001
3.131962e+003;1.242011e-001
3.133890e+003;1.242962e-001
3.135819e+003;1.245035e-001
3.137748e+003;1.248256e-001
3.139676e+003;1.251937e-001
3.141605e+003;1.253811e-001
3.143533e+003;1.258009e-001
3.145462e+003;1.268242e-001
3.147390e+003;1.273609e-001
3.149319e+003;1.276174e-001
3.151247e+003;1.282985e-001
3.153176e+003;1.287677e-001
3.155104e+003;1.291070e-001
3.157033e+003;1.298125e-001
3.158962e+003;1.307227e-001
3.160890e+003;1.317558e-001
3.162819e+003;1.327452e-001
3.164747e+003;1.334093e-001
3.166676e+003;1.342726e-001
3.168604e+003;1.355389e-001
3.170533e+003;1.366011e-001
3.172461e+003;1.372954e-001
3.174390e+003;1.383793e-001
3.176319e+003;1.398055e-001
3.178247e+003;1.409783e-001
3.180176e+003;1.419379e-001
3.182104e+003;1.428715e-001
3.184033e+003;1.440447e-001
3.185961e+003;1.452167e-001
3.187890e+003;1.466170e-001
3.189818e+003;1.480262e-001
3.191747e+003;1.493010e-001
3.193676e+003;1.504005e-001
3.195604e+003;1.514855e-001
3.197532e+003;1.526938e-001
3.199461e+003;1.534981e-001
3.201390e+003;1.546637e-001
3.203318e+003;1.562815e-001
3.205247e+003;1.577375e-001
3.207175e+003;1.590124e-001
3.209104e+003;1.606387e-001
3.211032e+003;1.622816e-001
3.212961e+003;1.637025e-001
3.214889e+003;1.647188e-001
3.216818e+003;1.659740e-001
3.218747e+003;1.675419e-001
3.220675e+003;1.692077e-001
3.222604e+003;1.705836e-001
3.224532e+003;1.719408e-001
3.226461e+003;1.738285e-001
3.228389e+003;1.760308e-001
3.230318e+003;1.777909e-001
3.232246e+003;1.794867e-001
3.234175e+003;1.816479e-001
3.236104e+003;1.835142e-001
3.238032e+003;1.852734e-001
3.239961e+003;1.875992e-001
3.241889e+003;1.900467e-001
3.243818e+003;1.922567e-001
3.245746e+003;1.944042e-001
3.247675e+003;1.966129e-001
3.249603e+003;1.991268e-001
3.251532e+003;2.017692e-001
3.253460e+003;2.041771e-001
3.255389e+003;2.065988e-001
3.257318e+003;2.094398e-001
3.259246e+003;2.126429e-001
3.261175e+003;2.154866e-001
3.263103e+003;2.182293e-001
3.265032e+003;2.207705e-001
3.266960e+003;2.231112e-001
3.268889e+003;2.254283e-001
3.270817e+003;2.274107e-001
3.272746e+003;2.291380e-001
3.274675e+003;2.308951e-001
3.276603e+003;2.318634e-001
3.278531e+003;2.321934e-001
3.280460e+003;2.325750e-001
3.282389e+003;2.322150e-001
3.284317e+003;2.311540e-001
3.286246e+003;2.299263e-001
3.288174e+003;2.282130e-001
3.290103e+003;2.264166e-001
3.292031e+003;2.242067e-001
3.293960e+003;2.210607e-001
3.295888e+003;2.177734e-001
3.297817e+003;2.148602e-001
3.299746e+003;2.125276e-001
3.301674e+003;2.099186e-001
3.303603e+003;2.064710e-001
3.305531e+003;2.029842e-001
3.307460e+003;1.996384e-001
3.309388e+003;1.968717e-001
3.311317e+003;1.937231e-001
3.313245e+003;1.902262e-001
3.315174e+003;1.867695e-001
3.317103e+003;1.836684e-001
3.319031e+003;1.811617e-001
3.320960e+003;1.787780e-001
3.322888e+003;1.758442e-001
3.324817e+003;1.728219e-001
3.326745e+003;1.701311e-001
3.328674e+003;1.675563e-001
3.330602e+003;1.651145e-001
3.332531e+003;1.624593e-001
3.334459e+003;1.602191e-001
3.336388e+003;1.583166e-001
3.338317e+003;1.560715e-001
3.340245e+003;1.539161e-001
3.342174e+003;1.520023e-001
3.344102e+003;1.498281e-001
3.346031e+003;1.479316e-001
3.347959e+003;1.463075e-001
3.349888e+003;1.448549e-001
3.351816e+003;1.435095e-001
3.353745e+003;1.418738e-001
3.355674e+003;1.405157e-001
3.357602e+003;1.395281e-001
3.359531e+003;1.383356e-001
3.361459e+003;1.369472e-001
3.363388e+003;1.358899e-001
3.365316e+003;1.347817e-001
3.367245e+003;1.338035e-001
3.369173e+003;1.332098e-001
3.371102e+003;1.326809e-001
3.373031e+003;1.317026e-001
3.374959e+003;1.302685e-001
3.376887e+003;1.290924e-001
3.378816e+003;1.285158e-001
3.380745e+003;1.283110e-001
3.382673e+003;1.275789e-001
3.384602e+003;1.267932e-001
3.386530e+003;1.260166e-001
3.388459e+003;1.248864e-001
3.390387e+003;1.240841e-001
3.392316e+003;1.234663e-001
3.394244e+003;1.228418e-001
3.396173e+003;1.224067e-001
3.398102e+003;1.217102e-001
3.400030e+003;1.209928e-001
3.401959e+003;1.197287e-001
3.403887e+003;1.184968e-001
3.405816e+003;1.180493e-001
3.407744e+003;1.173079e-001
3.409673e+003;1.163535e-001
3.411601e+003;1.160843e-001
3.413530e+003;1.156257e-001
3.415458e+003;1.144792e-001
3.417387e+003;1.135085e-001
3.419316e+003;1.130827e-001
3.421244e+003;1.127047e-001
3.423173e+003;1.119263e-001
3.425101e+003;1.110845e-001
3.427030e+003;1.106951e-001
3.428958e+003;1.102190e-001
3.430887e+003;1.093789e-001
3.432815e+003;1.084560e-001
3.434744e+003;1.077172e-001
3.436673e+003;1.072235e-001
3.438601e+003;1.069165e-001
3.440530e+003;1.065175e-001
3.442458e+003;1.059681e-001
3.444387e+003;1.055861e-001
3.446315e+003;1.050237e-001
3.448244e+003;1.041351e-001
3.450172e+003;1.037477e-001
3.452101e+003;1.032446e-001
3.454030e+003;1.024361e-001
3.455958e+003;1.021128e-001
3.457886e+003;1.021500e-001
3.459815e+003;1.019910e-001
3.461744e+003;1.014995e-001
3.463672e+003;1.011404e-001
3.465601e+003;1.015558e-001
3.467529e+003;1.015561e-001
3.469458e+003;1.007695e-001
3.471386e+003;9.996963e-002
3.473315e+003;9.962650e-002
3.475243e+003;9.942516e-002
3.477172e+003;9.918781e-002
3.479101e+003;9.888444e-002
3.481029e+003;9.850781e-002
3.482958e+003;9.839550e-002
3.484886e+003;9.850748e-002
3.486815e+003;9.824442e-002
3.488743e+003;9.771069e-002
3.490672e+003;9.727729e-002
3.492600e+003;9.675443e-002
3.494529e+003;9.647167e-002
3.496458e+003;9.639434e-002
3.498386e+003;9.569247e-002
3.500315e+003;9.513435e-002
3.502243e+003;9.503499e-002
3.504172e+003;9.468567e-002
3.506100e+003;9.439436e-002
3.508029e+003;9.396706e-002
3.509957e+003;9.350019e-002
3.511886e+003;9.350935e-002
3.513814e+003;9.354745e-002
3.515743e+003;9.270998e-002
3.517672e+003;9.207687e-002
3.519600e+003;9.185877e-002
3.521529e+003;9.165466e-002
3.523457e+003;9.155724e-002
3.525386e+003;9.094026e-002
3.527314e+003;9.073070e-002
3.529243e+003;9.081217e-002
3.531171e+003;9.018732e-002
3.533100e+003;8.971883e-002
3.535029e+003;8.932442e-002
3.536957e+003;8.877730e-002
3.538885e+003;8.826867e-002
3.540814e+003;8.796792e-002
3.542743e+003;8.794711e-002
3.544671e+003;8.792220e-002
3.546600e+003;8.758723e-002
3.548528e+003;8.688115e-002
3.550457e+003;8.603045e-002
3.552385e+003;8.543651e-002
3.554314e+003;8.522177e-002
3.556242e+003;8.492404e-002
3.558171e+003;8.473004e-002
3.560100e+003;8.469445e-002
3.562028e+003;8.435789e-002
3.563957e+003;8.368889e-002
3.565885e+003;8.306883e-002
3.567814e+003;8.284795e-002
3.569742e+003;8.292807e-002
3.571671e+003;8.290926e-002
3.573599e+003;8.230284e-002
3.575528e+003;8.154603e-002
3.577457e+003;8.146333e-002
3.579385e+003;8.149827e-002
3.581314e+003;8.130036e-002
3.583242e+003;8.045732e-002
3.585171e+003;7.946537e-002
3.587099e+003;7.915412e-002
3.589028e+003;7.918732e-002
3.590956e+003;7.889529e-002
3.592885e+003;7.853917e-002
3.594813e+003;7.840464e-002
3.596742e+003;7.827472e-002
3.598671e+003;7.813992e-002
3.600599e+003;7.762464e-002
3.602528e+003;7.740161e-002
3.604456e+003;7.712609e-002
3.606385e+003;7.621161e-002
3.608313e+003;7.570407e-002
3.610242e+003;7.544217e-002
3.612170e+003;7.485776e-002
3.614099e+003;7.444641e-002
3.616028e+003;7.435977e-002
3.617956e+003;7.406107e-002
3.619885e+003;7.333375e-002
3.621813e+003;7.303155e-002
3.623742e+003;7.284103e-002
3.625670e+003;7.257043e-002
3.627599e+003;7.173145e-002
3.629527e+003;7.077630e-002
3.631456e+003;7.051883e-002
3.633385e+003;7.042713e-002
3.635313e+003;7.018435e-002
3.637241e+003;6.972488e-002
3.639170e+003;6.955276e-002
3.641099e+003;6.917049e-002
3.643027e+003;6.825914e-002
3.644956e+003;6.740917e-002
3.646884e+003;6.665615e-002
3.648813e+003;6.577168e-002
3.650741e+003;6.514500e-002
3.652670e+003;6.484234e-002
3.654598e+003;6.458762e-002
3.656527e+003;6.399341e-002
3.658456e+003;6.339947e-002
3.660384e+003;6.237113e-002
3.662313e+003;6.132401e-002
3.664241e+003;6.092211e-002
3.666170e+003;6.053479e-002
3.668098e+003;5.969211e-002
3.670027e+003;5.857315e-002
3.671955e+003;5.785103e-002
3.673884e+003;5.695546e-002
3.675813e+003;5.628400e-002
3.677741e+003;5.639469e-002
3.679669e+003;5.596430e-002
3.681598e+003;5.528297e-002
3.683527e+003;5.440474e-002
3.685455e+003;5.366675e-002
3.687384e+003;5.316610e-002
3.689312e+003;5.266525e-002
3.691241e+003;5.285509e-002
3.693169e+003;5.313865e-002
3.695098e+003;5.237153e-002
3.697026e+003;5.153105e-002
3.698955e+003;5.135238e-002
3.700884e+003;5.110379e-002
3.702812e+003;5.066979e-002
3.704741e+003;5.043405e-002
3.706669e+003;5.029682e-002
3.708598e+003;5.005771e-002
3.710526e+003;4.967717e-002
3.712455e+003;4.931460e-002
3.714383e+003;4.928676e-002
3.716312e+003;4.894743e-002
3.718240e+003;4.871136e-002
3.720169e+003;4.891139e-002
3.722098e+003;4.865999e-002
3.724026e+003;4.822639e-002
3.725955e+003;4.813332e-002
3.727883e+003;4.809693e-002
3.729812e+003;4.806340e-002
3.731740e+003;4.810289e-002
3.733669e+003;4.782518e-002
3.735597e+003;4.716591e-002
3.737526e+003;4.729608e-002
3.739455e+003;4.780147e-002
3.741383e+003;4.771929e-002
3.743312e+003;4.700520e-002
3.745240e+003;4.686809e-002
3.747169e+003;4.691578e-002
3.749097e+003;4.652891e-002
3.751026e+003;4.653791e-002
3.752954e+003;4.692195e-002
3.754883e+003;4.731441e-002
3.756812e+003;4.736588e-002
3.758740e+003;4.694192e-002
3.760668e+003;4.644981e-002
3.762597e+003;4.689507e-002
3.764526e+003;4.690976e-002
3.766454e+003;4.671464e-002
3.768383e+003;4.657985e-002
3.770311e+003;4.648362e-002
3.772240e+003;4.643834e-002
3.774168e+003;4.658929e-002
3.776097e+003;4.660080e-002
3.778025e+003;4.640652e-002
3.779954e+003;4.647876e-002
3.781883e+003;4.690980e-002
3.783811e+003;4.681446e-002
3.785740e+003;4.660227e-002
3.787668e+003;4.671896e-002
3.789597e+003;4.699198e-002
3.791525e+003;4.714810e-002
3.793454e+003;4.706309e-002
3.795382e+003;4.694830e-002
3.797311e+003;4.665056e-002
3.799240e+003;4.619350e-002
3.801168e+003;4.593766e-002
3.803097e+003;4.667819e-002
3.805025e+003;4.724019e-002
3.806954e+003;4.679435e-002
3.808882e+003;4.685860e-002
3.810811e+003;4.722087e-002
3.812739e+003;4.691674e-002
3.814668e+003;4.647488e-002
3.816596e+003;4.694893e-002
3.818525e+003;4.738916e-002
3.820454e+003;4.698020e-002
3.822382e+003;4.684462e-002
3.824311e+003;4.711099e-002
3.826239e+003;4.703344e-002
3.828168e+003;4.710862e-002
3.830096e+003;4.737420e-002
3.832025e+003;4.755394e-002
3.833953e+003;4.760189e-002
3.835882e+003;4.732461e-002
3.837811e+003;4.712155e-002
3.839739e+003;4.715778e-002
3.841667e+003;4.679295e-002
3.843596e+003;4.687595e-002
3.845525e+003;4.780983e-002
3.847453e+003;4.836241e-002
3.849382e+003;4.809045e-002
3.851310e+003;4.741263e-002
3.853239e+003;4.678177e-002
3.855167e+003;4.729369e-002
3.857096e+003;4.778191e-002
3.859024e+003;4.779304e-002
3.860953e+003;4.813002e-002
3.862882e+003;4.807047e-002
3.864810e+003;4.814709e-002
3.866739e+003;4.862715e-002
3.868667e+003;4.854229e-002
3.870596e+003;4.848487e-002
3.872524e+003;4.879696e-002
3.874453e+003;4.909272e-002
3.876381e+003;4.973424e-002
3.878310e+003;4.989938e-002
3.880239e+003;4.967294e-002
3.882167e+003;4.968074e-002
3.884096e+003;4.956270e-002
3.886024e+003;4.968185e-002
3.887953e+003;5.003239e-002
3.889881e+003;5.014822e-002
3.891810e+003;5.020539e-002
3.893738e+003;5.056856e-002
3.895667e+003;5.078605e-002
3.897595e+003;5.054838e-002
3.899524e+003;5.043821e-002
3.901453e+003;5.056618e-002
3.903381e+003;5.079462e-002
3.905310e+003;5.081611e-002
3.907238e+003;5.100674e-002
3.909167e+003;5.130327e-002
3.911095e+003;5.140232e-002
3.913024e+003;5.129354e-002
3.914952e+003;5.166762e-002
3.916881e+003;5.193835e-002
3.918810e+003;5.206269e-002
3.920738e+003;5.232305e-002
3.922667e+003;5.217263e-002
3.924595e+003;5.197379e-002
3.926524e+003;5.237941e-002
3.928452e+003;5.272581e-002
3.930381e+003;5.260159e-002
3.932309e+003;5.234379e-002
3.934238e+003;5.251431e-002
3.936167e+003;5.275735e-002
3.938095e+003;5.243422e-002
3.940023e+003;5.197805e-002
3.941952e+003;5.212077e-002
3.943881e+003;5.245531e-002
3.945809e+003;5.252485e-002
3.947738e+003;5.269776e-002
3.949666e+003;5.298676e-002
3.951595e+003;5.302255e-002
3.953523e+003;5.309439e-002
3.955452e+003;5.367699e-002
3.957380e+003;5.398067e-002
3.959309e+003;5.363121e-002
3.961238e+003;5.383009e-002
3.963166e+003;5.437266e-002
3.965095e+003;5.415705e-002
3.967023e+003;5.383471e-002
3.968952e+003;5.408548e-002
3.970880e+003;5.442911e-002
3.972809e+003;5.444458e-002
3.974737e+003;5.454912e-002
3.976666e+003;5.475050e-002
3.978594e+003;5.455679e-002
3.980523e+003;5.463021e-002
3.982452e+003;5.497675e-002
3.984380e+003;5.473242e-002
3.986309e+003;5.442821e-002
3.988237e+003;5.459297e-002
3.990166e+003;5.488557e-002
3.992094e+003;5.492937e-002
3.994023e+003;5.491591e-002
3.995951e+003;5.526118e-002
3.997880e+003;5.526513e-002
3.999809e+003;5.480459e-002
4.001737e+003;0.000000e+000
