3.992094e+002;0.000000e+000
4.011380e+002;0.000000e+000
4.030665e+002;0.000000e+000
4.049951e+002;0.000000e+000
4.069236e+002;0.000000e+000
4.088522e+002;0.000000e+000
4.107807e+002;0.000000e+000
4.127093e+002;0.000000e+000
4.146378e+002;0.000000e+000
4.165664e+002;0.000000e+000
4.184949e+002;0.000000e+000
4.204235e+002;0.000000e+000
4.223520e+002;0.000000e+000
4.242806e+002;0.000000e+000
4.262091e+002;0.000000e+000
4.281377e+002;0.000000e+000
4.300662e+002;0.000000e+000
4.319948e+002;0.000000e+000
4.339233e+002;0.000000e+000
4.358519e+002;0.000000e+000
4.377804e+002;0.000000e+000
4.397090e+002;0.000000e+000
4.416375e+002;0.000000e+000
4.435660e+002;0.000000e+000
4.454946e+002;0.000000e+000
4.474232e+002;0.000000e+000
4.493517e+002;0.000000e+000
4.512802e+002;0.000000e+000
4.532088e+002;0.000000e+000
4.551373e+002;0.000000e+000
4.570659e+002;0.000000e+000
4.589944e+002;0.000000e+000
4.609230e+002;0.000000e+000
4.628515e+002;0.000000e+000
4.647801e+002;0.000000e+000
4.667086e+002;0.000000e+000
4.686372e+002;0.000000e+000
4.705657e+002;0.000000e+000
4.724943e+002;0.000000e+000
4.744228e+002;0.000000e+000
4.763513e+002;0.000000e+000
4.782799e+002;0.000000e+000
4.802085e+002;0.000000e+000
4.821370e+002;0.000000e+000
4.840656e+002;0.000000e+000
4.859941e+002;0.000000e+000
4.879226e+002;0.000000e+000
4.898512e+002;0.000000e+000
4.917798e+002;0.000000e+000
4.937083e+002;0.000000e+000
4.956368e+002;0.000000e+000
4.975654e+002;0.000000e+000
4.994939e+002;0.000000e+000
5.014225e+002;0.000000e+000
5.033510e+002;0.000000e+000
5.052796e+002;0.000000e+000
5.072081e+002;0.000000e+000
5.091367e+002;0.000000e+000
5.110652e+002;0.000000e+000
5.129938e+002;0.000000e+000
5.149223e+002;0.000000e+000
5.168509e+002;0.000000e+000
5.187794e+002;0.000000e+000
5.207079e+002;0.000000e+000
5.226365e+002;0.000000e+000
5.245651e+002;0.000000e+000
5.264936e+002;0.000000e+000
5.284222e+002;0.000000e+000
5.303507e+002;0.000000e+000
5.322792e+002;0.000000e+000
5.342078e+002;0.000000e+000
5.361364e+002;0.000000e+000
5.380649e+002;0.000000e+000
5.399935e+002;0.000000e+000
5.419220e+002;0.000000e+000
5.438505e+002;0.000000e+000
5.457791e+002;0.000000e+000
5.477076e+002;0.000000e+000
5.496362e+002;0.000000e+000
5.515648e+002;0.000000e+000
5.534933e+002;0.000000e+000
5.554218e+002;0.000000e+000
5.573504e+002;0.000000e+000
5.592789e+002;0.000000e+000
5.612075e+002;0.000000e+000
5.631360e+002;0.000000e+000
5.650646e+002;0.000000e+000
5.669931e+002;0.000000e+000
5.689217e+002;0.000000e+000
5.708502e+002;0.000000e+000
5.727787e+002;0.000000e+000
5.747073e+002;0.000000e+000
5.766359e+002;0.000000e+000
5.785644e+002;0.000000e+000
5.804930e+002;0.000000e+000
5.824215e+002;0.000000e+000
5.843500e+002;0.000000e+000
5.862786e+002;0.000000e+000
5.882072e+002;0.000000e+000
5.901357e+002;0.000000e+000
5.920643e+002;0.000000e+000
5.939928e+002;0.000000e+000
5.959213e+002;0.000000e+000
5.978499e+002;0.000000e+000
5.997784e+002;2.824565e-001
6.017070e+002;2.868282e-001
6.036355e+002;2.897287e-001
6.055641e+002;2.902427e-001
6.074926e+002;2.956042e-001
6.094211e+002;2.965432e-001
6.113497e+002;2.908507e-001
6.132783e+002;2.888284e-001
6.152068e+002;2.917854e-001
6.171354e+002;2.929626e-001
6.190639e+002;2.952666e-001
6.209924e+002;2.927583e-001
6.229210e+002;2.887531e-001
6.248495e+002;2.844278e-001
6.267781e+002;2.820552e-001
6.287067e+002;2.834330e-001
6.306352e+002;2.800681e-001
6.325637e+002;2.758879e-001
6.344923e+002;2.747107e-001
6.364208e+002;2.710792e-001
6.383494e+002;2.687814e-001
6.402780e+002;2.706654e-001
6.422065e+002;2.687430e-001
6.441350e+002;2.637672e-001
6.460636e+002;2.604351e-001
6.479921e+002;2.577950e-001
6.499207e+002;2.550825e-001
6.518492e+002;2.555082e-001
6.537778e+002;2.596969e-001
6.557063e+002;2.600507e-001
6.576349e+002;2.562663e-001
6.595634e+002;2.551905e-001
6.614919e+002;2.553915e-001
6.634205e+002;2.571920e-001
6.653491e+002;2.599311e-001
6.672776e+002;2.598471e-001
6.692062e+002;2.567910e-001
6.711347e+002;2.555957e-001
6.730632e+002;2.551290e-001
6.749918e+002;2.545097e-001
6.769203e+002;2.532033e-001
6.788489e+002;2.525770e-001
6.807775e+002;2.528448e-001
6.827060e+002;2.523134e-001
6.846345e+002;2.511077e-001
6.865631e+002;2.500215e-001
6.884916e+002;2.470825e-001
6.904202e+002;2.437767e-001
6.923488e+002;2.430395e-001
6.942773e+002;2.417386e-001
6.962058e+002;2.400311e-001
6.981344e+002;2.386032e-001
7.000629e+002;2.372180e-001
7.019915e+002;2.344466e-001
7.039200e+002;2.307519e-001
7.058486e+002;2.293170e-001
7.077771e+002;2.265671e-001
7.097057e+002;2.217877e-001
7.116342e+002;2.186116e-001
7.135627e+002;2.162567e-001
7.154913e+002;2.134241e-001
7.174199e+002;2.109441e-001
7.193484e+002;2.086706e-001
7.212770e+002;2.057089e-001
7.232055e+002;2.022767e-001
7.251340e+002;1.988683e-001
7.270626e+002;1.957243e-001
7.289911e+002;1.933574e-001
7.309197e+002;1.906702e-001
7.328483e+002;1.875286e-001
7.347768e+002;1.845124e-001
7.367053e+002;1.809101e-001
7.386339e+002;1.769954e-001
7.405624e+002;1.739313e-001
7.424910e+002;1.711853e-001
7.444196e+002;1.677415e-001
7.463481e+002;1.658191e-001
7.482766e+002;1.639294e-001
7.502052e+002;1.611244e-001
7.521337e+002;1.582189e-001
7.540623e+002;1.556834e-001
7.559908e+002;1.539493e-001
7.579194e+002;1.520820e-001
7.598479e+002;1.492771e-001
7.617765e+002;1.471281e-001
7.637050e+002;1.450942e-001
7.656335e+002;1.432000e-001
7.675621e+002;1.413499e-001
7.694907e+002;1.395171e-001
7.714192e+002;1.378041e-001
7.733478e+002;1.360773e-001
7.752763e+002;1.339151e-001
7.772048e+002;1.314040e-001
7.791334e+002;1.291980e-001
7.810620e+002;1.278249e-001
7.829905e+002;1.266502e-001
7.849191e+002;1.251294e-001
7.868476e+002;1.239402e-001
7.887761e+002;1.224718e-001
7.907047e+002;1.202908e-001
7.926332e+002;1.183894e-001
7.945618e+002;1.169198e-001
7.964903e+002;1.158904e-001
7.984189e+002;1.147317e-001
8.003474e+002;1.142073e-001
8.022759e+002;1.139013e-001
8.042045e+002;1.134640e-001
8.061331e+002;1.142068e-001
8.080616e+002;1.147708e-001
8.099902e+002;1.146775e-001
8.119187e+002;1.145178e-001
8.138472e+002;1.147890e-001
8.157758e+002;1.149988e-001
8.177043e+002;1.148667e-001
8.196329e+002;1.143212e-001
8.215615e+002;1.146140e-001
8.234900e+002;1.155203e-001
8.254185e+002;1.161493e-001
8.273471e+002;1.166522e-001
8.292756e+002;1.165931e-001
8.312042e+002;1.159126e-001
8.331328e+002;1.146006e-001
8.350613e+002;1.129422e-001
8.369898e+002;1.109998e-001
8.389184e+002;1.093134e-001
8.408469e+002;1.081064e-001
8.427755e+002;1.068638e-001
8.447040e+002;1.062350e-001
8.466326e+002;1.067528e-001
8.485611e+002;1.073122e-001
8.504897e+002;1.079503e-001
8.524182e+002;1.083751e-001
8.543467e+002;1.076256e-001
8.562753e+002;1.056154e-001
8.582039e+002;1.030538e-001
8.601324e+002;1.006212e-001
8.620610e+002;9.851181e-002
8.639895e+002;9.678809e-002
8.659180e+002;9.553844e-002
8.678466e+002;9.493920e-002
8.697751e+002;9.416144e-002
8.717037e+002;9.283499e-002
8.736323e+002;9.221332e-002
8.755608e+002;9.236404e-002
8.774893e+002;9.272208e-002
8.794179e+002;9.321128e-002
8.813464e+002;9.344570e-002
8.832750e+002;9.353191e-002
8.852036e+002;9.378766e-002
8.871321e+002;9.418432e-002
8.890606e+002;9.456076e-002
8.909892e+002;9.413197e-002
8.929177e+002;9.369975e-002
8.948463e+002;9.376409e-002
8.967748e+002;9.380160e-002
8.987034e+002;9.366225e-002
9.006319e+002;9.335195e-002
9.025605e+002;9.305467e-002
9.044890e+002;9.312189e-002
9.064175e+002;9.362760e-002
9.083461e+002;9.417120e-002
9.102747e+002;9.444831e-002
9.122032e+002;9.513023e-002
9.141318e+002;9.619296e-002
9.160603e+002;9.717471e-002
9.179888e+002;9.853637e-002
9.199174e+002;1.002442e-001
9.218459e+002;1.020297e-001
9.237745e+002;1.039090e-001
9.257031e+002;1.056144e-001
9.276316e+002;1.071959e-001
9.295601e+002;1.084658e-001
9.314887e+002;1.094200e-001
9.334172e+002;1.102747e-001
9.353458e+002;1.108713e-001
9.372744e+002;1.114430e-001
9.392029e+002;1.120519e-001
9.411314e+002;1.125929e-001
9.430600e+002;1.131991e-001
9.449885e+002;1.140514e-001
9.469171e+002;1.153910e-001
9.488456e+002;1.168496e-001
9.507742e+002;1.186826e-001
9.527027e+002;1.205547e-001
9.546313e+002;1.220885e-001
9.565598e+002;1.233871e-001
9.584883e+002;1.253086e-001
9.604169e+002;1.279346e-001
9.623455e+002;1.303799e-001
9.642740e+002;1.326813e-001
9.662026e+002;1.350878e-001
9.681311e+002;1.376998e-001
9.700596e+002;1.401494e-001
9.719882e+002;1.423972e-001
9.739167e+002;1.441513e-001
9.758453e+002;1.449785e-001
9.777739e+002;1.451160e-001
9.797024e+002;1.449667e-001
9.816309e+002;1.448869e-001
9.835595e+002;1.448987e-001
9.854880e+002;1.453050e-001
9.874166e+002;1.466108e-001
9.893452e+002;1.487480e-001
9.912737e+002;1.509977e-001
9.932022e+002;1.528104e-001
9.951307e+002;1.538872e-001
9.970593e+002;1.538985e-001
9.989879e+002;1.535087e-001
1.000916e+003;1.534383e-001
1.002845e+003;1.531408e-001
1.004773e+003;1.525421e-001
1.006702e+003;1.521883e-001
1.008631e+003;1.520353e-001
1.010559e+003;1.520939e-001
1.012488e+003;1.523490e-001
1.014416e+003;1.521309e-001
1.016345e+003;1.513423e-001
1.018273e+003;1.501633e-001
1.020202e+003;1.495868e-001
1.022130e+003;1.496703e-001
1.024059e+003;1.506180e-001
1.025988e+003;1.525993e-001
1.027916e+003;1.550446e-001
1.029845e+003;1.578530e-001
1.031773e+003;1.606300e-001
1.033702e+003;1.638343e-001
1.035630e+003;1.672429e-001
1.037559e+003;1.697587e-001
1.039487e+003;1.713846e-001
1.041416e+003;1.721254e-001
1.043344e+003;1.729046e-001
1.045273e+003;1.737605e-001
1.047202e+003;1.748380e-001
1.049130e+003;1.759610e-001
1.051059e+003;1.777546e-001
1.052987e+003;1.799139e-001
1.054916e+003;1.814565e-001
1.056844e+003;1.830897e-001
1.058773e+003;1.857584e-001
1.060701e+003;1.883780e-001
1.062630e+003;1.896085e-001
1.064558e+003;1.904564e-001
1.066487e+003;1.915833e-001
1.068416e+003;1.919722e-001
1.070344e+003;1.910738e-001
1.072273e+003;1.890571e-001
1.074201e+003;1.868853e-001
1.076130e+003;1.846631e-001
1.078058e+003;1.815920e-001
1.079987e+003;1.778141e-001
1.081915e+003;1.740369e-001
1.083844e+003;1.706493e-001
1.085773e+003;1.672523e-001
1.087701e+003;1.636708e-001
1.089630e+003;1.598399e-001
1.091558e+003;1.567166e-001
1.093487e+003;1.546367e-001
1.095415e+003;1.530178e-001
1.097344e+003;1.521857e-001
1.099272e+003;1.516401e-001
1.101201e+003;1.509299e-001
1.103129e+003;1.501777e-001
1.105058e+003;1.491689e-001
1.106987e+003;1.478686e-001
1.108915e+003;1.461855e-001
1.110844e+003;1.443094e-001
1.112772e+003;1.432578e-001
1.114701e+003;1.423171e-001
1.116629e+003;1.417793e-001
1.118558e+003;1.416284e-001
1.120486e+003;1.410438e-001
1.122415e+003;1.409060e-001
1.124344e+003;1.411057e-001
1.126272e+003;1.412682e-001
1.128201e+003;1.416734e-001
1.130129e+003;1.423987e-001
1.132058e+003;1.435246e-001
1.133986e+003;1.447088e-001
1.135915e+003;1.463106e-001
1.137843e+003;1.481179e-001
1.139772e+003;1.495518e-001
1.141700e+003;1.510175e-001
1.143629e+003;1.530081e-001
1.145557e+003;1.556258e-001
1.147486e+003;1.581034e-001
1.149415e+003;1.598896e-001
1.151343e+003;1.615690e-001
1.153272e+003;1.632009e-001
1.155200e+003;1.646496e-001
1.157129e+003;1.663821e-001
1.159057e+003;1.679391e-001
1.160986e+003;1.688981e-001
1.162914e+003;1.698561e-001
1.164843e+003;1.711323e-001
1.166771e+003;1.723713e-001
1.168700e+003;1.728978e-001
1.170629e+003;1.731172e-001
1.172557e+003;1.729518e-001
1.174486e+003;1.719059e-001
1.176414e+003;1.703549e-001
1.178343e+003;1.684634e-001
1.180271e+003;1.668027e-001
1.182200e+003;1.656960e-001
1.184128e+003;1.655196e-001
1.186057e+003;1.662442e-001
1.187986e+003;1.675551e-001
1.189914e+003;1.692609e-001
1.191843e+003;1.715897e-001
1.193771e+003;1.745134e-001
1.195700e+003;1.779052e-001
1.197628e+003;1.821021e-001
1.199557e+003;1.871395e-001
1.201485e+003;1.924435e-001
1.203414e+003;1.980285e-001
1.205343e+003;2.039032e-001
1.207271e+003;2.099511e-001
1.209200e+003;2.157620e-001
1.211128e+003;2.211779e-001
1.213057e+003;2.264316e-001
1.214985e+003;2.309078e-001
1.216914e+003;2.346348e-001
1.218842e+003;2.384556e-001
1.220771e+003;2.419074e-001
1.222699e+003;2.444652e-001
1.224628e+003;2.466162e-001
1.226557e+003;2.484041e-001
1.228485e+003;2.495646e-001
1.230414e+003;2.495082e-001
1.232342e+003;2.482496e-001
1.234271e+003;2.466026e-001
1.236199e+003;2.449442e-001
1.238128e+003;2.430177e-001
1.240056e+003;2.405176e-001
1.241985e+003;2.378992e-001
1.243913e+003;2.356920e-001
1.245842e+003;2.337139e-001
1.247771e+003;2.318119e-001
1.249699e+003;2.303561e-001
1.251628e+003;2.291454e-001
1.253556e+003;2.275591e-001
1.255485e+003;2.255296e-001
1.257413e+003;2.237044e-001
1.259342e+003;2.220246e-001
1.261270e+003;2.199192e-001
1.263199e+003;2.171133e-001
1.265127e+003;2.137279e-001
1.267056e+003;2.099181e-001
1.268985e+003;2.061810e-001
1.270913e+003;2.024300e-001
1.272842e+003;1.985630e-001
1.274770e+003;1.948840e-001
1.276699e+003;1.917390e-001
1.278627e+003;1.892130e-001
1.280556e+003;1.870797e-001
1.282484e+003;1.851004e-001
1.284413e+003;1.832910e-001
1.286342e+003;1.817484e-001
1.288270e+003;1.806050e-001
1.290199e+003;1.799248e-001
1.292127e+003;1.795194e-001
1.294056e+003;1.794411e-001
1.295984e+003;1.789973e-001
1.297913e+003;1.784984e-001
1.299841e+003;1.783109e-001
1.301770e+003;1.783442e-001
1.303698e+003;1.781240e-001
1.305627e+003;1.778090e-001
1.307556e+003;1.775256e-001
1.309484e+003;1.771771e-001
1.311413e+003;1.767769e-001
1.313341e+003;1.763388e-001
1.315270e+003;1.759124e-001
1.317198e+003;1.756921e-001
1.319127e+003;1.758890e-001
1.321055e+003;1.763119e-001
1.322984e+003;1.769404e-001
1.324912e+003;1.777559e-001
1.326841e+003;1.785743e-001
1.328770e+003;1.794938e-001
1.330698e+003;1.804778e-001
1.332627e+003;1.811409e-001
1.334555e+003;1.815927e-001
1.336484e+003;1.818773e-001
1.338412e+003;1.819884e-001
1.340341e+003;1.822204e-001
1.342269e+003;1.825187e-001
1.344198e+003;1.825405e-001
1.346126e+003;1.828029e-001
1.348055e+003;1.832930e-001
1.349984e+003;1.838072e-001
1.351912e+003;1.845345e-001
1.353841e+003;1.856128e-001
1.355769e+003;1.873326e-001
1.357698e+003;1.895957e-001
1.359626e+003;1.922739e-001
1.361555e+003;1.956575e-001
1.363483e+003;1.996251e-001
1.365412e+003;2.035721e-001
1.367341e+003;2.068496e-001
1.369269e+003;2.087096e-001
1.371198e+003;2.090851e-001
1.373126e+003;2.087876e-001
1.375055e+003;2.085130e-001
1.376983e+003;2.082741e-001
1.378912e+003;2.082125e-001
1.380840e+003;2.083239e-001
1.382769e+003;2.085006e-001
1.384698e+003;2.090421e-001
1.386626e+003;2.096085e-001
1.388555e+003;2.099047e-001
1.390483e+003;2.101690e-001
1.392412e+003;2.102958e-001
1.394340e+003;2.102009e-001
1.396269e+003;2.104453e-001
1.398197e+003;2.112080e-001
1.400126e+003;2.120956e-001
1.402054e+003;2.132914e-001
1.403983e+003;2.147198e-001
1.405911e+003;2.161716e-001
1.407840e+003;2.173618e-001
1.409769e+003;2.184243e-001
1.411697e+003;2.196134e-001
1.413626e+003;2.206849e-001
1.415554e+003;2.218486e-001
1.417483e+003;2.235233e-001
1.419411e+003;2.254287e-001
1.421340e+003;2.277224e-001
1.423268e+003;2.306800e-001
1.425197e+003;2.345971e-001
1.427125e+003;2.396196e-001
1.429054e+003;2.455501e-001
1.430983e+003;2.524990e-001
1.432911e+003;2.595902e-001
1.434840e+003;2.661906e-001
1.436768e+003;2.719771e-001
1.438697e+003;2.762956e-001
1.440625e+003;2.792772e-001
1.442554e+003;2.813635e-001
1.444482e+003;2.824776e-001
1.446411e+003;2.824078e-001
1.448340e+003;2.807354e-001
1.450268e+003;2.775062e-001
1.452197e+003;2.728478e-001
1.454125e+003;2.678199e-001
1.456054e+003;2.630205e-001
1.457982e+003;2.588047e-001
1.459911e+003;2.557680e-001
1.461839e+003;2.533235e-001
1.463768e+003;2.518499e-001
1.465697e+003;2.515478e-001
1.467625e+003;2.523574e-001
1.469554e+003;2.536279e-001
1.471482e+003;2.556246e-001
1.473411e+003;2.584409e-001
1.475339e+003;2.620078e-001
1.477268e+003;2.666266e-001
1.479196e+003;2.723211e-001
1.481125e+003;2.791416e-001
1.483053e+003;2.869274e-001
1.484982e+003;2.954369e-001
1.486911e+003;3.050139e-001
1.488839e+003;3.153727e-001
1.490768e+003;3.261427e-001
1.492696e+003;3.370812e-001
1.494625e+003;3.478575e-001
1.496553e+003;3.587382e-001
1.498482e+003;3.692899e-001
1.500410e+003;3.789354e-001
1.502339e+003;3.876488e-001
1.504267e+003;3.954352e-001
1.506196e+003;4.021009e-001
1.508125e+003;4.077659e-001
1.510053e+003;4.122199e-001
1.511982e+003;4.156118e-001
1.513910e+003;4.167652e-001
1.515839e+003;4.140900e-001
1.517767e+003;4.068461e-001
1.519696e+003;3.964007e-001
1.521624e+003;3.849657e-001
1.523553e+003;3.744766e-001
1.525481e+003;3.647831e-001
1.527410e+003;3.558902e-001
1.529339e+003;3.480999e-001
1.531267e+003;3.408510e-001
1.533196e+003;3.336092e-001
1.535124e+003;3.262029e-001
1.537053e+003;3.189901e-001
1.538981e+003;3.122385e-001
1.540910e+003;3.057264e-001
1.542838e+003;2.990937e-001
1.544767e+003;2.929231e-001
1.546695e+003;2.871011e-001
1.548624e+003;2.808270e-001
1.550553e+003;2.745697e-001
1.552481e+003;2.682173e-001
1.554410e+003;2.618114e-001
1.556338e+003;2.557493e-001
1.558267e+003;2.496651e-001
1.560195e+003;2.432677e-001
1.562124e+003;2.369791e-001
1.564052e+003;2.306365e-001
1.565981e+003;2.242642e-001
1.567910e+003;2.187001e-001
1.569838e+003;2.138837e-001
1.571767e+003;2.097245e-001
1.573695e+003;2.061030e-001
1.575624e+003;2.032517e-001
1.577552e+003;2.013235e-001
1.579481e+003;2.005594e-001
1.581409e+003;2.006751e-001
1.583338e+003;2.016102e-001
1.585266e+003;2.040882e-001
1.587195e+003;2.077173e-001
1.589124e+003;2.123832e-001
1.591052e+003;2.185760e-001
1.592981e+003;2.261602e-001
1.594909e+003;2.346355e-001
1.596838e+003;2.441354e-001
1.598766e+003;2.545860e-001
1.600695e+003;2.661289e-001
1.602623e+003;2.795771e-001
1.604552e+003;2.954241e-001
1.606480e+003;3.130604e-001
1.608409e+003;3.318285e-001
1.610338e+003;3.512577e-001
1.612266e+003;3.708914e-001
1.614195e+003;3.896679e-001
1.616123e+003;4.064013e-001
1.618052e+003;4.207050e-001
1.619980e+003;4.319462e-001
1.621909e+003;4.396303e-001
1.623837e+003;4.434140e-001
1.625766e+003;4.432195e-001
1.627694e+003;4.392028e-001
1.629623e+003;4.325173e-001
1.631552e+003;4.243051e-001
1.633480e+003;4.151220e-001
1.635409e+003;4.049136e-001
1.637337e+003;3.941801e-001
1.639266e+003;3.835564e-001
1.641194e+003;3.733192e-001
1.643123e+003;3.633004e-001
1.645051e+003;3.534154e-001
1.646980e+003;3.437659e-001
1.648909e+003;3.343650e-001
1.650837e+003;3.252088e-001
1.652766e+003;3.157407e-001
1.654694e+003;3.061408e-001
1.656623e+003;2.965691e-001
1.658551e+003;2.871891e-001
1.660480e+003;2.779041e-001
1.662408e+003;2.684039e-001
1.664337e+003;2.596534e-001
1.666266e+003;2.516750e-001
1.668194e+003;2.442066e-001
1.670123e+003;2.370385e-001
1.672051e+003;2.301243e-001
1.673980e+003;2.233235e-001
1.675908e+003;2.166408e-001
1.677837e+003;2.102279e-001
1.679765e+003;2.041411e-001
1.681694e+003;1.987626e-001
1.683622e+003;1.937493e-001
1.685551e+003;1.888543e-001
1.687479e+003;1.848594e-001
1.689408e+003;1.813595e-001
1.691337e+003;1.780037e-001
1.693265e+003;1.752679e-001
1.695194e+003;1.724371e-001
1.697122e+003;1.693293e-001
1.699051e+003;1.651623e-001
1.700979e+003;1.581633e-001
1.702908e+003;1.480740e-001
1.704836e+003;1.359867e-001
1.706765e+003;1.236334e-001
1.708693e+003;1.119136e-001
1.710622e+003;1.015928e-001
1.712551e+003;9.304556e-002
1.714479e+003;8.591688e-002
1.716408e+003;7.973561e-002
1.718336e+003;7.447418e-002
1.720265e+003;7.004681e-002
1.722193e+003;6.626206e-002
1.724122e+003;6.311756e-002
1.726050e+003;6.042503e-002
1.727979e+003;5.785065e-002
1.729908e+003;5.546202e-002
1.731836e+003;5.332578e-002
1.733765e+003;5.161254e-002
1.735693e+003;4.988433e-002
1.737622e+003;4.818263e-002
1.739550e+003;4.660032e-002
1.741479e+003;4.526871e-002
1.743407e+003;4.432434e-002
1.745336e+003;4.330540e-002
1.747265e+003;4.208579e-002
1.749193e+003;4.120139e-002
1.751122e+003;4.037820e-002
1.753050e+003;3.958938e-002
1.754979e+003;3.883123e-002
1.756907e+003;3.817327e-002
1.758836e+003;3.757551e-002
1.760764e+003;3.700339e-002
1.762693e+003;3.651881e-002
1.764621e+003;3.612524e-002
1.766550e+003;3.577114e-002
1.768479e+003;3.535988e-002
1.770407e+003;3.499793e-002
1.772336e+003;3.439663e-002
1.774264e+003;3.401669e-002
1.776193e+003;3.399036e-002
1.778121e+003;3.360101e-002
1.780050e+003;3.321684e-002
1.781978e+003;3.289337e-002
1.783907e+003;3.255114e-002
1.785835e+003;3.224982e-002
1.787764e+003;3.202038e-002
1.789693e+003;3.161693e-002
1.791621e+003;3.111998e-002
1.793550e+003;3.083104e-002
1.795478e+003;3.079597e-002
1.797407e+003;3.052246e-002
1.799335e+003;3.016071e-002
1.801264e+003;2.979206e-002
1.803192e+003;2.951826e-002
1.805121e+003;2.929376e-002
1.807049e+003;2.923570e-002
1.808978e+003;2.895626e-002
1.810907e+003;2.861893e-002
1.812835e+003;2.826322e-002
1.814764e+003;2.784332e-002
1.816692e+003;2.754578e-002
1.818621e+003;2.734121e-002
1.820549e+003;2.717966e-002
1.822478e+003;2.709145e-002
1.824406e+003;2.700830e-002
1.826335e+003;2.680172e-002
1.828264e+003;2.638869e-002
1.830192e+003;2.601982e-002
1.832121e+003;2.583024e-002
1.834049e+003;2.560988e-002
1.835978e+003;2.526572e-002
1.837906e+003;2.507584e-002
1.839835e+003;2.490011e-002
1.841763e+003;2.476350e-002
1.843692e+003;2.477985e-002
1.845620e+003;2.476501e-002
1.847549e+003;2.447841e-002
1.849478e+003;2.429030e-002
1.851406e+003;2.410232e-002
1.853335e+003;2.380282e-002
1.855263e+003;2.376215e-002
1.857192e+003;2.379659e-002
1.859120e+003;2.369153e-002
1.861049e+003;2.346467e-002
1.862977e+003;2.334256e-002
1.864906e+003;2.335246e-002
1.866834e+003;2.326470e-002
1.868763e+003;2.313625e-002
1.870692e+003;2.321993e-002
1.872620e+003;2.313458e-002
1.874549e+003;2.287049e-002
1.876477e+003;2.271371e-002
1.878406e+003;2.268089e-002
1.880334e+003;2.267666e-002
1.882263e+003;2.271570e-002
1.884191e+003;2.259634e-002
1.886120e+003;2.237508e-002
1.888048e+003;2.220992e-002
1.889977e+003;2.216386e-002
1.891906e+003;2.222928e-002
1.893834e+003;2.220075e-002
1.895763e+003;2.213443e-002
1.897691e+003;2.213471e-002
1.899620e+003;2.203598e-002
1.901548e+003;2.175511e-002
1.903477e+003;2.157414e-002
1.905405e+003;2.179604e-002
1.907334e+003;2.201412e-002
1.909262e+003;2.182050e-002
1.911191e+003;2.149782e-002
1.913120e+003;2.130300e-002
1.915048e+003;2.137928e-002
1.916977e+003;2.148281e-002
1.918905e+003;2.157452e-002
1.920834e+003;2.156087e-002
1.922762e+003;2.136251e-002
1.924691e+003;2.135628e-002
1.926619e+003;2.137855e-002
1.928548e+003;2.138245e-002
1.930477e+003;2.123389e-002
1.932405e+003;2.097360e-002
1.934334e+003;2.094113e-002
1.936262e+003;2.095903e-002
1.938191e+003;2.101467e-002
1.940119e+003;2.103968e-002
1.942048e+003;2.100897e-002
1.943976e+003;2.085348e-002
1.945905e+003;2.092694e-002
1.947833e+003;2.113241e-002
1.949762e+003;2.098626e-002
1.951691e+003;2.096216e-002
1.953619e+003;2.101971e-002
1.955548e+003;2.083609e-002
1.957476e+003;2.086557e-002
1.959405e+003;2.101425e-002
1.961333e+003;2.093504e-002
1.963262e+003;2.085243e-002
1.965190e+003;2.086881e-002
1.967119e+003;2.095089e-002
1.969047e+003;2.098021e-002
1.970976e+003;2.079855e-002
1.972905e+003;2.074795e-002
1.974833e+003;2.078740e-002
1.976762e+003;2.068028e-002
1.978690e+003;2.038848e-002
1.980619e+003;2.004083e-002
1.982547e+003;2.016244e-002
1.984476e+003;2.050532e-002
1.986404e+003;2.043019e-002
1.988333e+003;2.031928e-002
1.990261e+003;2.051192e-002
1.992190e+003;2.060940e-002
1.994119e+003;2.060509e-002
1.996047e+003;2.054822e-002
1.997976e+003;2.024994e-002
1.999904e+003;2.005076e-002
2.001833e+003;2.009288e-002
2.003761e+003;2.011378e-002
2.005690e+003;2.003202e-002
2.007618e+003;2.002602e-002
2.009547e+003;2.006575e-002
2.011476e+003;1.996582e-002
2.013404e+003;1.994119e-002
2.015333e+003;2.015029e-002
2.017261e+003;2.020863e-002
2.019190e+003;2.026109e-002
2.021118e+003;2.023130e-002
2.023047e+003;2.009750e-002
2.024975e+003;1.998331e-002
2.026904e+003;1.996395e-002
2.028833e+003;2.001300e-002
2.030761e+003;2.011284e-002
2.032690e+003;1.999184e-002
2.034618e+003;2.002262e-002
2.036547e+003;2.019065e-002
2.038475e+003;2.018704e-002
2.040404e+003;2.001595e-002
2.042332e+003;2.003025e-002
2.044261e+003;2.013293e-002
2.046189e+003;2.027956e-002
2.048118e+003;2.028525e-002
2.050047e+003;2.024314e-002
2.051975e+003;2.027126e-002
2.053904e+003;2.042727e-002
2.055832e+003;2.034358e-002
2.057761e+003;2.017667e-002
2.059689e+003;2.034626e-002
2.061618e+003;2.035316e-002
2.063546e+003;2.001072e-002
2.065475e+003;1.985527e-002
2.067404e+003;2.013849e-002
2.069332e+003;2.030157e-002
2.071260e+003;2.022068e-002
2.073189e+003;2.028976e-002
2.075118e+003;2.053828e-002
2.077046e+003;2.052835e-002
2.078975e+003;2.037122e-002
2.080903e+003;2.026078e-002
2.082832e+003;2.017597e-002
2.084760e+003;2.041380e-002
2.086689e+003;2.063886e-002
2.088617e+003;2.046044e-002
2.090546e+003;2.025647e-002
2.092475e+003;2.024040e-002
2.094403e+003;2.016677e-002
2.096332e+003;2.015952e-002
2.098260e+003;2.011326e-002
2.100189e+003;2.007227e-002
2.102117e+003;2.009774e-002
2.104046e+003;2.023429e-002
2.105974e+003;2.023259e-002
2.107903e+003;2.009458e-002
2.109832e+003;2.016952e-002
2.111760e+003;2.022582e-002
2.113688e+003;2.011395e-002
2.115617e+003;1.991260e-002
2.117546e+003;1.993609e-002
2.119474e+003;2.016983e-002
2.121403e+003;2.017844e-002
2.123331e+003;1.994122e-002
2.125260e+003;1.990109e-002
2.127188e+003;2.007519e-002
2.129117e+003;2.013200e-002
2.131045e+003;2.005312e-002
2.132974e+003;2.003761e-002
2.134903e+003;2.001977e-002
2.136831e+003;2.009535e-002
2.138760e+003;2.008754e-002
2.140688e+003;1.996946e-002
2.142617e+003;1.999760e-002
2.144545e+003;2.000117e-002
2.146474e+003;1.995274e-002
2.148402e+003;1.999306e-002
2.150331e+003;1.982339e-002
2.152260e+003;1.951397e-002
2.154188e+003;1.955768e-002
2.156117e+003;1.990525e-002
2.158045e+003;2.009528e-002
2.159974e+003;2.000391e-002
2.161902e+003;1.976236e-002
2.163831e+003;1.967058e-002
2.165759e+003;1.983699e-002
2.167688e+003;1.985000e-002
2.169616e+003;1.977547e-002
2.171545e+003;1.988794e-002
2.173474e+003;2.001929e-002
2.175402e+003;1.982437e-002
2.177331e+003;1.986255e-002
2.179259e+003;1.988676e-002
2.181188e+003;1.965955e-002
2.183116e+003;1.963456e-002
2.185045e+003;1.971347e-002
2.186973e+003;1.967939e-002
2.188902e+003;1.967956e-002
2.190831e+003;1.961809e-002
2.192759e+003;1.956419e-002
2.194688e+003;1.951474e-002
2.196616e+003;1.943046e-002
2.198545e+003;1.957650e-002
2.200473e+003;1.975359e-002
2.202402e+003;1.970577e-002
2.204330e+003;1.960014e-002
2.206259e+003;1.973635e-002
2.208188e+003;1.987240e-002
2.210116e+003;1.967481e-002
2.212044e+003;1.959248e-002
2.213973e+003;1.962482e-002
2.215902e+003;1.947377e-002
2.217830e+003;1.940451e-002
2.219759e+003;1.941639e-002
2.221687e+003;1.960156e-002
2.223616e+003;1.951047e-002
2.225544e+003;1.942966e-002
2.227473e+003;1.965314e-002
2.229401e+003;1.985187e-002
2.231330e+003;1.971302e-002
2.233259e+003;1.948774e-002
2.235187e+003;1.960222e-002
2.237116e+003;1.962745e-002
2.239044e+003;1.947869e-002
2.240973e+003;1.952038e-002
2.242901e+003;1.966673e-002
2.244830e+003;1.960412e-002
2.246758e+003;1.957567e-002
2.248687e+003;1.968854e-002
2.250615e+003;1.968719e-002
2.252544e+003;1.962284e-002
2.254473e+003;1.937083e-002
2.256401e+003;1.938330e-002
2.258330e+003;1.967564e-002
2.260258e+003;1.971638e-002
2.262187e+003;1.956163e-002
2.264115e+003;1.959854e-002
2.266044e+003;1.967703e-002
2.267972e+003;1.965533e-002
2.269901e+003;1.958884e-002
2.271830e+003;1.957677e-002
2.273758e+003;1.971527e-002
2.275687e+003;1.971416e-002
2.277615e+003;1.958440e-002
2.279544e+003;1.972117e-002
2.281472e+003;1.980966e-002
2.283401e+003;1.976607e-002
2.285329e+003;1.978733e-002
2.287258e+003;1.985992e-002
2.289187e+003;1.998390e-002
2.291115e+003;2.018593e-002
2.293043e+003;2.030414e-002
2.294972e+003;2.029480e-002
2.296901e+003;2.017514e-002
2.298829e+003;2.010461e-002
2.300758e+003;2.015251e-002
2.302686e+003;2.027358e-002
2.304615e+003;2.038772e-002
2.306543e+003;2.048343e-002
2.308472e+003;2.039716e-002
2.310400e+003;2.034754e-002
2.312329e+003;2.040150e-002
2.314258e+003;2.048486e-002
2.316186e+003;2.053231e-002
2.318115e+003;2.046725e-002
2.320043e+003;2.047444e-002
2.321972e+003;2.050195e-002
2.323900e+003;2.048034e-002
2.325829e+003;2.037709e-002
2.327757e+003;2.010836e-002
2.329686e+003;2.021447e-002
2.331615e+003;2.067281e-002
2.333543e+003;2.073891e-002
2.335472e+003;2.056656e-002
2.337400e+003;2.050441e-002
2.339329e+003;2.052137e-002
2.341257e+003;2.047972e-002
2.343186e+003;2.044502e-002
2.345114e+003;2.064838e-002
2.347043e+003;2.091480e-002
2.348971e+003;2.075027e-002
2.350900e+003;2.056771e-002
2.352829e+003;2.065380e-002
2.354757e+003;2.067128e-002
2.356686e+003;2.071215e-002
2.358614e+003;2.096035e-002
2.360543e+003;2.106799e-002
2.362471e+003;2.105578e-002
2.364400e+003;2.105811e-002
2.366328e+003;2.087541e-002
2.368257e+003;2.079581e-002
2.370186e+003;2.105251e-002
2.372114e+003;2.125609e-002
2.374042e+003;2.119308e-002
2.375971e+003;2.124534e-002
2.377900e+003;2.131921e-002
2.379828e+003;2.134288e-002
2.381757e+003;2.132764e-002
2.383685e+003;2.123090e-002
2.385614e+003;2.143599e-002
2.387542e+003;2.186245e-002
2.389471e+003;2.198868e-002
2.391399e+003;2.193281e-002
2.393328e+003;2.180789e-002
2.395257e+003;2.197052e-002
2.397185e+003;2.214091e-002
2.399114e+003;2.227782e-002
2.401042e+003;2.244360e-002
2.402971e+003;2.276206e-002
2.404899e+003;2.302426e-002
2.406828e+003;2.306511e-002
2.408756e+003;2.314817e-002
2.410685e+003;2.342473e-002
2.412614e+003;2.384486e-002
2.414542e+003;2.414968e-002
2.416471e+003;2.407283e-002
2.418399e+003;2.409759e-002
2.420328e+003;2.463545e-002
2.422256e+003;2.499487e-002
2.424185e+003;2.495503e-002
2.426113e+003;2.493826e-002
2.428042e+003;2.503899e-002
2.429970e+003;2.516951e-002
2.431899e+003;2.535827e-002
2.433828e+003;2.542354e-002
2.435756e+003;2.546774e-002
2.437685e+003;2.580295e-002
2.439613e+003;2.613487e-002
2.441542e+003;2.611295e-002
2.443470e+003;2.615489e-002
2.445399e+003;2.651297e-002
2.447327e+003;2.676913e-002
2.449256e+003;2.666345e-002
2.451185e+003;2.647923e-002
2.453113e+003;2.637574e-002
2.455042e+003;2.640683e-002
2.456970e+003;2.640669e-002
2.458899e+003;2.636334e-002
2.460827e+003;2.649511e-002
2.462756e+003;2.675365e-002
2.464684e+003;2.700089e-002
2.466613e+003;2.716047e-002
2.468542e+003;2.726881e-002
2.470470e+003;2.735074e-002
2.472398e+003;2.741934e-002
2.474327e+003;2.751108e-002
2.476256e+003;2.755531e-002
2.478184e+003;2.755358e-002
2.480113e+003;2.762275e-002
2.482041e+003;2.793151e-002
2.483970e+003;2.809401e-002
2.485898e+003;2.786480e-002
2.487827e+003;2.796048e-002
2.489755e+003;2.815467e-002
2.491684e+003;2.810970e-002
2.493613e+003;2.825632e-002
2.495541e+003;2.858573e-002
2.497470e+003;2.856043e-002
2.499398e+003;2.867517e-002
2.501327e+003;2.879178e-002
2.503255e+003;2.880509e-002
2.505184e+003;2.890505e-002
2.507112e+003;2.890976e-002
2.509041e+003;2.872827e-002
2.510969e+003;2.867995e-002
2.512898e+003;2.897851e-002
2.514827e+003;2.922879e-002
2.516755e+003;2.906983e-002
2.518684e+003;2.913127e-002
2.520612e+003;2.949620e-002
2.522541e+003;2.959288e-002
2.524469e+003;2.948801e-002
2.526398e+003;2.965393e-002
2.528326e+003;2.978397e-002
2.530255e+003;2.976506e-002
2.532184e+003;2.980828e-002
2.534112e+003;2.982059e-002
2.536041e+003;2.988994e-002
2.537969e+003;3.014295e-002
2.539898e+003;3.029271e-002
2.541826e+003;3.035169e-002
2.543755e+003;3.045820e-002
2.545683e+003;3.068718e-002
2.547612e+003;3.090404e-002
2.549541e+003;3.095496e-002
2.551469e+003;3.099837e-002
2.553397e+003;3.116615e-002
2.555326e+003;3.142653e-002
2.557255e+003;3.166479e-002
2.559183e+003;3.168664e-002
2.561112e+003;3.182146e-002
2.563040e+003;3.206846e-002
2.564969e+003;3.226325e-002
2.566897e+003;3.268208e-002
2.568826e+003;3.281864e-002
2.570754e+003;3.287864e-002
2.572683e+003;3.338079e-002
2.574612e+003;3.351710e-002
2.576540e+003;3.360366e-002
2.578469e+003;3.410019e-002
2.580397e+003;3.450183e-002
2.582326e+003;3.477398e-002
2.584254e+003;3.502170e-002
2.586183e+003;3.516284e-002
2.588111e+003;3.525662e-002
2.590040e+003;3.548599e-002
2.591969e+003;3.583720e-002
2.593897e+003;3.621189e-002
2.595826e+003;3.647495e-002
2.597754e+003;3.651445e-002
2.599683e+003;3.679309e-002
2.601611e+003;3.711335e-002
2.603540e+003;3.725650e-002
2.605468e+003;3.745728e-002
2.607397e+003;3.787389e-002
2.609325e+003;3.801755e-002
2.611254e+003;3.809274e-002
2.613183e+003;3.834261e-002
2.615111e+003;3.857713e-002
2.617040e+003;3.863120e-002
2.618968e+003;3.855218e-002
2.620897e+003;3.834243e-002
2.622825e+003;3.838246e-002
2.624754e+003;3.851619e-002
2.626682e+003;3.846909e-002
2.628611e+003;3.852615e-002
2.630540e+003;3.867368e-002
2.632468e+003;3.884007e-002
2.634396e+003;3.870512e-002
2.636325e+003;3.838706e-002
2.638254e+003;3.833519e-002
2.640182e+003;3.858615e-002
2.642111e+003;3.862001e-002
2.644039e+003;3.852079e-002
2.645968e+003;3.851583e-002
2.647896e+003;3.872678e-002
2.649825e+003;3.886859e-002
2.651753e+003;3.884308e-002
2.653682e+003;3.879489e-002
2.655611e+003;3.901729e-002
2.657539e+003;3.911688e-002
2.659468e+003;3.906000e-002
2.661396e+003;3.924409e-002
2.663325e+003;3.936052e-002
2.665253e+003;3.951912e-002
2.667182e+003;3.990397e-002
2.669110e+003;4.021326e-002
2.671039e+003;4.030661e-002
2.672968e+003;4.044733e-002
2.674896e+003;4.086388e-002
2.676825e+003;4.125272e-002
2.678753e+003;4.129612e-002
2.680682e+003;4.160943e-002
2.682610e+003;4.193122e-002
2.684539e+003;4.202494e-002
2.686467e+003;4.240325e-002
2.688396e+003;4.266256e-002
2.690324e+003;4.292612e-002
2.692253e+003;4.352943e-002
2.694182e+003;4.397779e-002
2.696110e+003;4.406686e-002
2.698039e+003;4.420389e-002
2.699967e+003;4.447012e-002
2.701896e+003;4.486240e-002
2.703824e+003;4.493272e-002
2.705753e+003;4.483881e-002
2.707681e+003;4.503213e-002
2.709610e+003;4.546450e-002
2.711539e+003;4.596227e-002
2.713467e+003;4.635771e-002
2.715396e+003;4.669565e-002
2.717324e+003;4.692435e-002
2.719253e+003;4.728419e-002
2.721181e+003;4.769510e-002
2.723110e+003;4.799545e-002
2.725038e+003;4.838159e-002
2.726967e+003;4.864483e-002
2.728896e+003;4.892477e-002
2.730824e+003;4.955408e-002
2.732752e+003;5.024939e-002
2.734681e+003;5.037700e-002
2.736610e+003;5.030069e-002
2.738538e+003;5.064160e-002
2.740467e+003;5.096121e-002
2.742395e+003;5.126606e-002
2.744324e+003;5.174167e-002
2.746252e+003;5.218235e-002
2.748181e+003;5.250002e-002
2.750109e+003;5.267277e-002
2.752038e+003;5.288810e-002
2.753967e+003;5.321015e-002
2.755895e+003;5.348911e-002
2.757824e+003;5.389772e-002
2.759752e+003;5.438017e-002
2.761681e+003;5.465155e-002
2.763609e+003;5.489391e-002
2.765538e+003;5.510478e-002
2.767466e+003;5.530920e-002
2.769395e+003;5.541703e-002
2.771323e+003;5.580162e-002
2.773252e+003;5.621830e-002
2.775181e+003;5.634236e-002
2.777109e+003;5.647637e-002
2.779038e+003;5.681390e-002
2.780966e+003;5.722195e-002
2.782895e+003;5.762547e-002
2.784823e+003;5.810625e-002
2.786752e+003;5.833607e-002
2.788680e+003;5.854145e-002
2.790609e+003;5.886947e-002
2.792538e+003;5.925891e-002
2.794466e+003;5.966440e-002
2.796395e+003;5.987345e-002
2.798323e+003;6.008667e-002
2.800252e+003;6.059738e-002
2.802180e+003;6.117136e-002
2.804109e+003;6.125872e-002
2.806037e+003;6.153523e-002
2.807966e+003;6.208278e-002
2.809895e+003;6.272051e-002
2.811823e+003;6.326422e-002
2.813751e+003;6.343418e-002
2.815680e+003;6.352951e-002
2.817609e+003;6.371479e-002
2.819537e+003;6.412178e-002
2.821466e+003;6.444655e-002
2.823394e+003;6.467949e-002
2.825323e+003;6.515805e-002
2.827251e+003;6.576072e-002
2.829180e+003;6.610740e-002
2.831108e+003;6.636960e-002
2.833037e+003;6.697269e-002
2.834966e+003;6.753201e-002
2.836894e+003;6.800703e-002
2.838823e+003;6.877474e-002
2.840751e+003;6.969391e-002
2.842680e+003;7.040250e-002
2.844608e+003;7.134648e-002
2.846537e+003;7.236951e-002
2.848465e+003;7.303982e-002
2.850394e+003;7.378971e-002
2.852323e+003;7.485453e-002
2.854251e+003;7.592513e-002
2.856180e+003;7.696775e-002
2.858108e+003;7.811373e-002
2.860037e+003;7.938800e-002
2.861965e+003;8.042064e-002
2.863894e+003;8.121095e-002
2.865822e+003;8.215004e-002
2.867751e+003;8.344305e-002
2.869679e+003;8.455732e-002
2.871608e+003;8.526027e-002
2.873536e+003;8.593121e-002
2.875465e+003;8.683501e-002
2.877394e+003;8.743937e-002
2.879322e+003;8.749270e-002
2.881251e+003;8.734901e-002
2.883179e+003;8.729906e-002
2.885108e+003;8.716495e-002
2.887036e+003;8.719727e-002
2.888965e+003;8.754329e-002
2.890893e+003;8.791060e-002
2.892822e+003;8.832508e-002
2.894750e+003;8.850675e-002
2.896679e+003;8.849156e-002
2.898608e+003;8.888252e-002
2.900536e+003;8.942818e-002
2.902465e+003;9.007359e-002
2.904393e+003;9.092262e-002
2.906322e+003;9.162331e-002
2.908250e+003;9.206736e-002
2.910179e+003;9.231806e-002
2.912107e+003;9.245627e-002
2.914036e+003;9.301314e-002
2.915965e+003;9.387089e-002
2.917893e+003;9.465379e-002
2.919822e+003;9.558353e-002
2.921750e+003;9.651461e-002
2.923679e+003;9.764841e-002
2.925607e+003;9.901073e-002
2.927536e+003;1.006161e-001
2.929464e+003;1.021520e-001
2.931393e+003;1.032329e-001
2.933322e+003;1.037078e-001
2.935250e+003;1.042426e-001
2.937178e+003;1.047148e-001
2.939107e+003;1.045839e-001
2.941036e+003;1.043655e-001
2.942964e+003;1.041599e-001
2.944893e+003;1.038066e-001
2.946821e+003;1.029386e-001
2.948750e+003;1.018270e-001
2.950678e+003;1.010968e-001
2.952607e+003;1.002849e-001
2.954535e+003;9.923778e-002
2.956464e+003;9.816890e-002
2.958393e+003;9.780145e-002
2.960321e+003;9.769206e-002
2.962250e+003;9.754641e-002
2.964178e+003;9.770617e-002
2.966107e+003;9.789720e-002
2.968035e+003;9.817181e-002
2.969964e+003;9.847938e-002
2.971892e+003;9.852428e-002
2.973821e+003;9.819399e-002
2.975750e+003;9.780613e-002
2.977678e+003;9.752733e-002
2.979607e+003;9.732020e-002
2.981535e+003;9.704530e-002
2.983464e+003;9.660413e-002
2.985392e+003;9.623861e-002
2.987321e+003;9.599449e-002
2.989249e+003;9.560695e-002
2.991178e+003;9.536503e-002
2.993106e+003;9.497483e-002
2.995035e+003;9.428785e-002
2.996964e+003;9.365666e-002
2.998892e+003;9.294381e-002
3.000821e+003;9.225564e-002
3.002749e+003;9.186667e-002
3.004678e+003;9.145440e-002
3.006606e+003;9.118074e-002
3.008535e+003;9.116897e-002
3.010463e+003;9.109953e-002
3.012392e+003;9.091493e-002
3.014321e+003;9.084214e-002
3.016249e+003;9.080534e-002
3.018177e+003;9.096837e-002
3.020106e+003;9.127489e-002
3.022035e+003;9.135482e-002
3.023963e+003;9.149928e-002
3.025892e+003;9.211090e-002
3.027820e+003;9.285903e-002
3.029749e+003;9.343662e-002
3.031677e+003;9.390293e-002
3.033606e+003;9.432161e-002
3.035534e+003;9.483042e-002
3.037463e+003;9.563383e-002
3.039392e+003;9.659863e-002
3.041320e+003;9.698039e-002
3.043249e+003;9.731746e-002
3.045177e+003;9.828780e-002
3.047106e+003;9.896994e-002
3.049034e+003;9.931649e-002
3.050963e+003;9.990286e-002
3.052891e+003;1.004945e-001
3.054820e+003;1.011593e-001
3.056749e+003;1.021811e-001
3.058677e+003;1.030065e-001
3.060606e+003;1.033832e-001
3.062534e+003;1.034849e-001
3.064463e+003;1.038123e-001
3.066391e+003;1.044745e-001
3.068320e+003;1.046857e-001
3.070248e+003;1.048131e-001
3.072177e+003;1.049890e-001
3.074105e+003;1.050898e-001
3.076034e+003;1.052662e-001
3.077963e+003;1.050415e-001
3.079891e+003;1.047432e-001
3.081820e+003;1.046875e-001
3.083748e+003;1.047102e-001
3.085677e+003;1.045627e-001
3.087605e+003;1.041331e-001
3.089534e+003;1.039549e-001
3.091462e+003;1.035757e-001
3.093391e+003;1.033344e-001
3.095320e+003;1.031664e-001
3.097248e+003;1.027278e-001
3.099177e+003;1.023653e-001
3.101105e+003;1.022261e-001
3.103034e+003;1.016877e-001
3.104962e+003;1.008041e-001
3.106891e+003;1.004829e-001
3.108819e+003;1.002501e-001
3.110748e+003;9.984281e-002
3.112677e+003;9.954719e-002
3.114605e+003;9.944911e-002
3.116533e+003;9.928437e-002
3.118462e+003;9.922916e-002
3.120391e+003;9.912919e-002
3.122319e+003;9.888498e-002
3.124248e+003;9.858339e-002
3.126176e+003;9.859845e-002
3.128105e+003;9.893965e-002
3.130033e+003;9.936164e-002
3.131962e+003;9.967814e-002
3.133890e+003;9.968948e-002
3.135819e+003;9.977139e-002
3.137748e+003;1.001965e-001
3.139676e+003;1.008239e-001
3.141605e+003;1.012228e-001
3.143533e+003;1.015298e-001
3.145462e+003;1.019271e-001
3.147390e+003;1.023888e-001
3.149319e+003;1.032246e-001
3.151247e+003;1.041211e-001
3.153176e+003;1.047656e-001
3.155104e+003;1.053706e-001
3.157033e+003;1.063465e-001
3.158962e+003;1.075024e-001
3.160890e+003;1.085397e-001
3.162819e+003;1.097630e-001
3.164747e+003;1.105399e-001
3.166676e+003;1.113324e-001
3.168604e+003;1.123755e-001
3.170533e+003;1.133603e-001
3.172461e+003;1.146727e-001
3.174390e+003;1.159568e-001
3.176319e+003;1.173307e-001
3.178247e+003;1.182859e-001
3.180176e+003;1.190834e-001
3.182104e+003;1.202142e-001
3.184033e+003;1.213618e-001
3.185961e+003;1.226110e-001
3.187890e+003;1.238249e-001
3.189818e+003;1.250894e-001
3.191747e+003;1.262859e-001
3.193676e+003;1.275400e-001
3.195604e+003;1.289927e-001
3.197532e+003;1.306003e-001
3.199461e+003;1.320919e-001
3.201390e+003;1.335848e-001
3.203318e+003;1.349992e-001
3.205247e+003;1.359570e-001
3.207175e+003;1.368823e-001
3.209104e+003;1.382385e-001
3.211032e+003;1.398173e-001
3.212961e+003;1.415438e-001
3.214889e+003;1.434795e-001
3.216818e+003;1.449582e-001
3.218747e+003;1.463343e-001
3.220675e+003;1.479076e-001
3.222604e+003;1.496233e-001
3.224532e+003;1.509912e-001
3.226461e+003;1.520772e-001
3.228389e+003;1.539116e-001
3.230318e+003;1.558925e-001
3.232246e+003;1.572575e-001
3.234175e+003;1.589029e-001
3.236104e+003;1.609213e-001
3.238032e+003;1.627368e-001
3.239961e+003;1.642931e-001
3.241889e+003;1.661756e-001
3.243818e+003;1.682861e-001
3.245746e+003;1.698881e-001
3.247675e+003;1.718117e-001
3.249603e+003;1.744600e-001
3.251532e+003;1.766749e-001
3.253460e+003;1.789784e-001
3.255389e+003;1.814324e-001
3.257318e+003;1.835932e-001
3.259246e+003;1.857579e-001
3.261175e+003;1.883895e-001
3.263103e+003;1.903591e-001
3.265032e+003;1.918729e-001
3.266960e+003;1.946589e-001
3.268889e+003;1.970189e-001
3.270817e+003;1.986997e-001
3.272746e+003;2.002823e-001
3.274675e+003;2.013880e-001
3.276603e+003;2.024679e-001
3.278531e+003;2.031139e-001
3.280460e+003;2.033626e-001
3.282389e+003;2.036614e-001
3.284317e+003;2.034915e-001
3.286246e+003;2.028051e-001
3.288174e+003;2.019323e-001
3.290103e+003;2.009946e-001
3.292031e+003;2.000386e-001
3.293960e+003;1.985715e-001
3.295888e+003;1.964926e-001
3.297817e+003;1.942113e-001
3.299746e+003;1.919198e-001
3.301674e+003;1.897448e-001
3.303603e+003;1.873356e-001
3.305531e+003;1.848957e-001
3.307460e+003;1.822991e-001
3.309388e+003;1.792383e-001
3.311317e+003;1.763567e-001
3.313245e+003;1.741058e-001
3.315174e+003;1.717422e-001
3.317103e+003;1.687699e-001
3.319031e+003;1.661759e-001
3.320960e+003;1.639194e-001
3.322888e+003;1.613083e-001
3.324817e+003;1.586916e-001
3.326745e+003;1.563131e-001
3.328674e+003;1.542362e-001
3.330602e+003;1.515283e-001
3.332531e+003;1.488440e-001
3.334459e+003;1.468391e-001
3.336388e+003;1.443036e-001
3.338317e+003;1.419424e-001
3.340245e+003;1.404361e-001
3.342174e+003;1.386231e-001
3.344102e+003;1.365000e-001
3.346031e+003;1.344540e-001
3.347959e+003;1.323934e-001
3.349888e+003;1.306956e-001
3.351816e+003;1.295587e-001
3.353745e+003;1.283015e-001
3.355674e+003;1.265522e-001
3.357602e+003;1.254604e-001
3.359531e+003;1.242602e-001
3.361459e+003;1.223917e-001
3.363388e+003;1.209056e-001
3.365316e+003;1.198511e-001
3.367245e+003;1.189262e-001
3.369173e+003;1.180006e-001
3.371102e+003;1.166789e-001
3.373031e+003;1.154642e-001
3.374959e+003;1.145112e-001
3.376887e+003;1.137532e-001
3.378816e+003;1.127722e-001
3.380745e+003;1.113003e-001
3.382673e+003;1.101604e-001
3.384602e+003;1.095210e-001
3.386530e+003;1.086915e-001
3.388459e+003;1.075370e-001
3.390387e+003;1.059855e-001
3.392316e+003;1.047990e-001
3.394244e+003;1.043524e-001
3.396173e+003;1.037618e-001
3.398102e+003;1.029556e-001
3.400030e+003;1.022296e-001
3.401959e+003;1.013084e-001
3.403887e+003;9.992313e-002
3.405816e+003;9.837543e-002
3.407744e+003;9.719928e-002
3.409673e+003;9.648755e-002
3.411601e+003;9.578004e-002
3.413530e+003;9.503140e-002
3.415458e+003;9.388911e-002
3.417387e+003;9.278250e-002
3.419316e+003;9.213917e-002
3.421244e+003;9.130237e-002
3.423173e+003;9.004607e-002
3.425101e+003;8.895168e-002
3.427030e+003;8.833177e-002
3.428958e+003;8.736477e-002
3.430887e+003;8.622110e-002
3.432815e+003;8.531422e-002
3.434744e+003;8.433990e-002
3.436673e+003;8.372224e-002
3.438601e+003;8.355332e-002
3.440530e+003;8.276884e-002
3.442458e+003;8.201335e-002
3.444387e+003;8.170874e-002
3.446315e+003;8.102312e-002
3.448244e+003;8.023255e-002
3.450172e+003;7.972479e-002
3.452101e+003;7.889334e-002
3.454030e+003;7.798287e-002
3.455958e+003;7.766023e-002
3.457886e+003;7.733117e-002
3.459815e+003;7.706714e-002
3.461744e+003;7.668678e-002
3.463672e+003;7.625833e-002
3.465601e+003;7.600213e-002
3.467529e+003;7.523742e-002
3.469458e+003;7.445302e-002
3.471386e+003;7.423137e-002
3.473315e+003;7.387717e-002
3.475243e+003;7.337745e-002
3.477172e+003;7.278340e-002
3.479101e+003;7.233600e-002
3.481029e+003;7.239824e-002
3.482958e+003;7.263227e-002
3.484886e+003;7.251255e-002
3.486815e+003;7.190393e-002
3.488743e+003;7.130240e-002
3.490672e+003;7.091601e-002
3.492600e+003;7.069249e-002
3.494529e+003;7.026123e-002
3.496458e+003;6.955913e-002
3.498386e+003;6.923033e-002
3.500315e+003;6.890201e-002
3.502243e+003;6.819641e-002
3.504172e+003;6.768211e-002
3.506100e+003;6.736320e-002
3.508029e+003;6.706080e-002
3.509957e+003;6.684830e-002
3.511886e+003;6.669370e-002
3.513814e+003;6.620514e-002
3.515743e+003;6.545674e-002
3.517672e+003;6.465907e-002
3.519600e+003;6.409290e-002
3.521529e+003;6.363070e-002
3.523457e+003;6.351098e-002
3.525386e+003;6.324042e-002
3.527314e+003;6.246486e-002
3.529243e+003;6.237098e-002
3.531171e+003;6.216738e-002
3.533100e+003;6.121264e-002
3.535029e+003;6.045812e-002
3.536957e+003;5.989102e-002
3.538885e+003;5.937259e-002
3.540814e+003;5.881889e-002
3.542743e+003;5.841582e-002
3.544671e+003;5.804201e-002
3.546600e+003;5.771397e-002
3.548528e+003;5.693374e-002
3.550457e+003;5.610936e-002
3.552385e+003;5.545972e-002
3.554314e+003;5.515583e-002
3.556242e+003;5.485681e-002
3.558171e+003;5.408214e-002
3.560100e+003;5.328285e-002
3.562028e+003;5.279002e-002
3.563957e+003;5.229853e-002
3.565885e+003;5.170655e-002
3.567814e+003;5.090618e-002
3.569742e+003;5.037324e-002
3.571671e+003;5.003946e-002
3.573599e+003;4.942400e-002
3.575528e+003;4.865061e-002
3.577457e+003;4.822828e-002
3.579385e+003;4.742593e-002
3.581314e+003;4.637356e-002
3.583242e+003;4.568202e-002
3.585171e+003;4.526874e-002
3.587099e+003;4.485376e-002
3.589028e+003;4.436731e-002
3.590956e+003;4.405597e-002
3.592885e+003;4.349372e-002
3.594813e+003;4.234590e-002
3.596742e+003;4.152805e-002
3.598671e+003;4.107292e-002
3.600599e+003;4.071942e-002
3.602528e+003;4.001030e-002
3.604456e+003;3.882881e-002
3.606385e+003;3.815250e-002
3.608313e+003;3.782909e-002
3.610242e+003;3.704189e-002
3.612170e+003;3.619784e-002
3.614099e+003;3.528954e-002
3.616028e+003;3.408371e-002
3.617956e+003;3.302427e-002
3.619885e+003;3.258992e-002
3.621813e+003;3.202330e-002
3.623742e+003;3.105360e-002
3.625670e+003;3.040528e-002
3.627599e+003;2.966184e-002
3.629527e+003;2.834311e-002
3.631456e+003;2.722499e-002
3.633385e+003;2.698602e-002
3.635313e+003;2.649592e-002
3.637241e+003;2.530632e-002
3.639170e+003;2.395107e-002
3.641099e+003;2.314646e-002
3.643027e+003;2.261215e-002
3.644956e+003;2.182844e-002
3.646884e+003;2.098699e-002
3.648813e+003;2.038911e-002
3.650741e+003;1.940024e-002
3.652670e+003;1.816470e-002
3.654598e+003;1.745564e-002
3.656527e+003;1.687368e-002
3.658456e+003;1.605074e-002
3.660384e+003;1.530362e-002
3.662313e+003;1.457059e-002
3.664241e+003;1.409410e-002
3.666170e+003;1.345842e-002
3.668098e+003;1.240763e-002
3.670027e+003;1.168760e-002
3.671955e+003;1.110887e-002
3.673884e+003;1.103593e-002
3.675813e+003;1.084293e-002
3.677741e+003;1.002572e-002
3.679669e+003;9.400372e-003
3.681598e+003;8.923966e-003
3.683527e+003;8.337552e-003
3.685455e+003;8.167252e-003
3.687384e+003;8.135920e-003
3.689312e+003;7.492549e-003
3.691241e+003;7.003851e-003
3.693169e+003;6.724693e-003
3.695098e+003;6.486172e-003
3.697026e+003;6.527374e-003
3.698955e+003;6.511734e-003
3.700884e+003;5.841947e-003
3.702812e+003;5.627842e-003
3.704741e+003;5.855548e-003
3.706669e+003;5.864414e-003
3.708598e+003;5.634086e-003
3.710526e+003;5.386333e-003
3.712455e+003;4.914743e-003
3.714383e+003;4.843404e-003
3.716312e+003;5.047535e-003
3.718240e+003;4.734223e-003
3.720169e+003;4.527628e-003
3.722098e+003;4.282848e-003
3.724026e+003;3.822716e-003
3.725955e+003;3.824354e-003
3.727883e+003;3.572320e-003
3.729812e+003;3.335624e-003
3.731740e+003;3.707542e-003
3.733669e+003;4.039578e-003
3.735597e+003;4.228174e-003
3.737526e+003;3.897265e-003
3.739455e+003;3.826661e-003
3.741383e+003;3.598780e-003
3.743312e+003;2.983007e-003
3.745240e+003;2.838072e-003
3.747169e+003;3.215872e-003
3.749097e+003;3.416267e-003
3.751026e+003;3.604359e-003
3.752954e+003;3.719506e-003
3.754883e+003;3.764992e-003
3.756812e+003;3.576329e-003
3.758740e+003;3.445055e-003
3.760668e+003;3.512625e-003
3.762597e+003;3.109703e-003
3.764526e+003;2.768173e-003
3.766454e+003;2.755435e-003
3.768383e+003;2.707388e-003
3.770311e+003;2.659546e-003
3.772240e+003;2.712122e-003
3.774168e+003;2.591709e-003
3.776097e+003;2.811025e-003
3.778025e+003;2.802287e-003
3.779954e+003;2.378967e-003
3.781883e+003;2.400024e-003
3.783811e+003;2.547413e-003
3.785740e+003;2.412951e-003
3.787668e+003;2.818828e-003
3.789597e+003;3.173882e-003
3.791525e+003;3.014102e-003
3.793454e+003;2.766406e-003
3.795382e+003;2.500621e-003
3.797311e+003;2.446171e-003
3.799240e+003;2.938571e-003
3.801168e+003;2.961255e-003
3.803097e+003;2.635110e-003
3.805025e+003;2.949446e-003
3.806954e+003;3.130361e-003
3.808882e+003;2.952915e-003
3.810811e+003;2.494023e-003
3.812739e+003;2.510586e-003
3.814668e+003;2.902311e-003
3.816596e+003;2.762371e-003
3.818525e+003;2.699153e-003
3.820454e+003;3.001691e-003
3.822382e+003;3.332218e-003
3.824311e+003;3.261506e-003
3.826239e+003;3.099524e-003
3.828168e+003;3.122418e-003
3.830096e+003;3.101560e-003
3.832025e+003;2.875193e-003
3.833953e+003;3.032587e-003
3.835882e+003;3.061383e-003
3.837811e+003;2.723892e-003
3.839739e+003;2.607642e-003
3.841667e+003;2.774175e-003
3.843596e+003;2.984409e-003
3.845525e+003;3.118847e-003
3.847453e+003;3.214704e-003
3.849382e+003;3.262674e-003
3.851310e+003;3.809981e-003
3.853239e+003;4.004129e-003
3.855167e+003;3.771877e-003
3.857096e+003;3.559325e-003
3.859024e+003;3.780233e-003
3.860953e+003;3.795006e-003
3.862882e+003;3.652673e-003
3.864810e+003;3.730200e-003
3.866739e+003;4.258588e-003
3.868667e+003;4.397138e-003
3.870596e+003;3.854172e-003
3.872524e+003;4.123362e-003
3.874453e+003;4.560173e-003
3.876381e+003;4.521568e-003
3.878310e+003;4.756164e-003
3.880239e+003;4.735697e-003
3.882167e+003;4.539882e-003
3.884096e+003;4.983447e-003
3.886024e+003;5.170173e-003
3.887953e+003;5.121321e-003
3.889881e+003;5.355806e-003
3.891810e+003;5.391601e-003
3.893738e+003;5.019546e-003
3.895667e+003;5.633314e-003
3.897595e+003;6.408622e-003
3.899524e+003;6.130082e-003
3.901453e+003;5.965650e-003
3.903381e+003;6.042616e-003
3.905310e+003;5.813335e-003
3.907238e+003;5.710457e-003
3.909167e+003;5.948551e-003
3.911095e+003;5.742352e-003
3.913024e+003;5.839865e-003
3.914952e+003;6.687073e-003
3.916881e+003;6.905605e-003
3.918810e+003;6.624592e-003
3.920738e+003;6.710795e-003
3.922667e+003;6.440064e-003
3.924595e+003;6.249194e-003
3.926524e+003;6.504368e-003
3.928452e+003;6.556806e-003
3.930381e+003;6.771908e-003
3.932309e+003;7.162714e-003
3.934238e+003;7.029914e-003
3.936167e+003;7.091880e-003
3.938095e+003;7.350448e-003
3.940023e+003;7.267218e-003
3.941952e+003;7.496695e-003
3.943881e+003;7.928275e-003
3.945809e+003;7.805968e-003
3.947738e+003;8.057266e-003
3.949666e+003;8.366364e-003
3.951595e+003;8.057097e-003
3.953523e+003;7.916735e-003
3.955452e+003;7.737964e-003
3.957380e+003;7.713949e-003
3.959309e+003;7.828572e-003
3.961238e+003;8.006434e-003
3.963166e+003;8.306648e-003
3.965095e+003;8.191426e-003
3.967023e+003;8.120560e-003
3.968952e+003;8.359676e-003
3.970880e+003;8.297157e-003
3.972809e+003;8.039916e-003
3.974737e+003;7.927769e-003
3.976666e+003;8.018585e-003
3.978594e+003;8.174106e-003
3.980523e+003;8.182411e-003
3.982452e+003;7.922639e-003
3.984380e+003;7.768322e-003
3.986309e+003;7.654828e-003
3.988237e+003;7.601785e-003
3.990166e+003;7.606034e-003
3.992094e+003;7.409055e-003
3.994023e+003;7.625827e-003
3.995951e+003;7.848881e-003
3.997880e+003;7.632336e-003
3.999809e+003;7.572821e-003
4.001737e+003;0.000000e+000
