3.992094e+002;0.000000e+000
4.011380e+002;0.000000e+000
4.030665e+002;0.000000e+000
4.049951e+002;0.000000e+000
4.069236e+002;0.000000e+000
4.088522e+002;0.000000e+000
4.107807e+002;0.000000e+000
4.127093e+002;0.000000e+000
4.146378e+002;0.000000e+000
4.165664e+002;0.000000e+000
4.184949e+002;0.000000e+000
4.204235e+002;0.000000e+000
4.223520e+002;0.000000e+000
4.242806e+002;0.000000e+000
4.262091e+002;0.000000e+000
4.281377e+002;0.000000e+000
4.300662e+002;0.000000e+000
4.319948e+002;0.000000e+000
4.339233e+002;0.000000e+000
4.358519e+002;0.000000e+000
4.377804e+002;0.000000e+000
4.397090e+002;0.000000e+000
4.416375e+002;0.000000e+000
4.435660e+002;0.000000e+000
4.454946e+002;0.000000e+000
4.474232e+002;0.000000e+000
4.493517e+002;0.000000e+000
4.512802e+002;0.000000e+000
4.532088e+002;0.000000e+000
4.551373e+002;0.000000e+000
4.570659e+002;0.000000e+000
4.589944e+002;0.000000e+000
4.609230e+002;0.000000e+000
4.628515e+002;0.000000e+000
4.647801e+002;0.000000e+000
4.667086e+002;0.000000e+000
4.686372e+002;0.000000e+000
4.705657e+002;0.000000e+000
4.724943e+002;0.000000e+000
4.744228e+002;0.000000e+000
4.763513e+002;0.000000e+000
4.782799e+002;0.000000e+000
4.802085e+002;0.000000e+000
4.821370e+002;0.000000e+000
4.840656e+002;0.000000e+000
4.859941e+002;0.000000e+000
4.879226e+002;0.000000e+000
4.898512e+002;0.000000e+000
4.917798e+002;0.000000e+000
4.937083e+002;0.000000e+000
4.956368e+002;0.000000e+000
4.975654e+002;0.000000e+000
4.994939e+002;0.000000e+000
5.014225e+002;0.000000e+000
5.033510e+002;0.000000e+000
5.052796e+002;0.000000e+000
5.072081e+002;0.000000e+000
5.091367e+002;0.000000e+000
5.110652e+002;0.000000e+000
5.129938e+002;0.000000e+000
5.149223e+002;0.000000e+000
5.168509e+002;0.000000e+000
5.187794e+002;0.000000e+000
5.207079e+002;0.000000e+000
5.226365e+002;0.000000e+000
5.245651e+002;0.000000e+000
5.264936e+002;0.000000e+000
5.284222e+002;0.000000e+000
5.303507e+002;0.000000e+000
5.322792e+002;0.000000e+000
5.342078e+002;0.000000e+000
5.361364e+002;0.000000e+000
5.380649e+002;0.000000e+000
5.399935e+002;0.000000e+000
5.419220e+002;0.000000e+000
5.438505e+002;0.000000e+000
5.457791e+002;0.000000e+000
5.477076e+002;0.000000e+000
5.496362e+002;0.000000e+000
5.515648e+002;0.000000e+000
5.534933e+002;0.000000e+000
5.554218e+002;0.000000e+000
5.573504e+002;0.000000e+000
5.592789e+002;0.000000e+000
5.612075e+002;0.000000e+000
5.631360e+002;0.000000e+000
5.650646e+002;0.000000e+000
5.669931e+002;0.000000e+000
5.689217e+002;0.000000e+000
5.708502e+002;0.000000e+000
5.727787e+002;0.000000e+000
5.747073e+002;0.000000e+000
5.766359e+002;0.000000e+000
5.785644e+002;0.000000e+000
5.804930e+002;0.000000e+000
5.824215e+002;0.000000e+000
5.843500e+002;0.000000e+000
5.862786e+002;0.000000e+000
5.882072e+002;0.000000e+000
5.901357e+002;0.000000e+000
5.920643e+002;0.000000e+000
5.939928e+002;0.000000e+000
5.959213e+002;0.000000e+000
5.978499e+002;0.000000e+000
5.997784e+002;2.678716e-001
6.017070e+002;2.656463e-001
6.036355e+002;2.669554e-001
6.055641e+002;2.707063e-001
6.074926e+002;2.775551e-001
6.094211e+002;2.720528e-001
6.113497e+002;2.658252e-001
6.132783e+002;2.683603e-001
6.152068e+002;2.716107e-001
6.171354e+002;2.708981e-001
6.190639e+002;2.682023e-001
6.209924e+002;2.668827e-001
6.229210e+002;2.676770e-001
6.248495e+002;2.692264e-001
6.267781e+002;2.689265e-001
6.287067e+002;2.672581e-001
6.306352e+002;2.646953e-001
6.325637e+002;2.647195e-001
6.344923e+002;2.664027e-001
6.364208e+002;2.640135e-001
6.383494e+002;2.578587e-001
6.402780e+002;2.537557e-001
6.422065e+002;2.501265e-001
6.441350e+002;2.507574e-001
6.460636e+002;2.540609e-001
6.479921e+002;2.539242e-001
6.499207e+002;2.526584e-001
6.518492e+002;2.509851e-001
6.537778e+002;2.485355e-001
6.557063e+002;2.466068e-001
6.576349e+002;2.430205e-001
6.595634e+002;2.423790e-001
6.614919e+002;2.471618e-001
6.634205e+002;2.492981e-001
6.653491e+002;2.462499e-001
6.672776e+002;2.452554e-001
6.692062e+002;2.469374e-001
6.711347e+002;2.473942e-001
6.730632e+002;2.457177e-001
6.749918e+002;2.447647e-001
6.769203e+002;2.453401e-001
6.788489e+002;2.467097e-001
6.807775e+002;2.462939e-001
6.827060e+002;2.471190e-001
6.846345e+002;2.479887e-001
6.865631e+002;2.455988e-001
6.884916e+002;2.427409e-001
6.904202e+002;2.409251e-001
6.923488e+002;2.395276e-001
6.942773e+002;2.383126e-001
6.962058e+002;2.368729e-001
6.981344e+002;2.346387e-001
7.000629e+002;2.326002e-001
7.019915e+002;2.308788e-001
7.039200e+002;2.289770e-001
7.058486e+002;2.263060e-001
7.077771e+002;2.232687e-001
7.097057e+002;2.203979e-001
7.116342e+002;2.184650e-001
7.135627e+002;2.153688e-001
7.154913e+002;2.118312e-001
7.174199e+002;2.091497e-001
7.193484e+002;2.071030e-001
7.212770e+002;2.047210e-001
7.232055e+002;2.014064e-001
7.251340e+002;1.982021e-001
7.270626e+002;1.950839e-001
7.289911e+002;1.917046e-001
7.309197e+002;1.878915e-001
7.328483e+002;1.842692e-001
7.347768e+002;1.816346e-001
7.367053e+002;1.799108e-001
7.386339e+002;1.772616e-001
7.405624e+002;1.748042e-001
7.424910e+002;1.717732e-001
7.444196e+002;1.680535e-001
7.463481e+002;1.649231e-001
7.482766e+002;1.618400e-001
7.502052e+002;1.596674e-001
7.521337e+002;1.574677e-001
7.540623e+002;1.557638e-001
7.559908e+002;1.548595e-001
7.579194e+002;1.534620e-001
7.598479e+002;1.517101e-001
7.617765e+002;1.496469e-001
7.637050e+002;1.488569e-001
7.656335e+002;1.487008e-001
7.675621e+002;1.461583e-001
7.694907e+002;1.435396e-001
7.714192e+002;1.422450e-001
7.733478e+002;1.407980e-001
7.752763e+002;1.383977e-001
7.772048e+002;1.360847e-001
7.791334e+002;1.343685e-001
7.810620e+002;1.325387e-001
7.829905e+002;1.305109e-001
7.849191e+002;1.294016e-001
7.868476e+002;1.282129e-001
7.887761e+002;1.265976e-001
7.907047e+002;1.254617e-001
7.926332e+002;1.241191e-001
7.945618e+002;1.217836e-001
7.964903e+002;1.211886e-001
7.984189e+002;1.213928e-001
8.003474e+002;1.202320e-001
8.022759e+002;1.196135e-001
8.042045e+002;1.201588e-001
8.061331e+002;1.202608e-001
8.080616e+002;1.196546e-001
8.099902e+002;1.196340e-001
8.119187e+002;1.200264e-001
8.138472e+002;1.197526e-001
8.157758e+002;1.190430e-001
8.177043e+002;1.191774e-001
8.196329e+002;1.188901e-001
8.215615e+002;1.193773e-001
8.234900e+002;1.211580e-001
8.254185e+002;1.217320e-001
8.273471e+002;1.219306e-001
8.292756e+002;1.219685e-001
8.312042e+002;1.206876e-001
8.331328e+002;1.190682e-001
8.350613e+002;1.169740e-001
8.369898e+002;1.153815e-001
8.389184e+002;1.147466e-001
8.408469e+002;1.137850e-001
8.427755e+002;1.129181e-001
8.447040e+002;1.132135e-001
8.466326e+002;1.138504e-001
8.485611e+002;1.140702e-001
8.504897e+002;1.146666e-001
8.524182e+002;1.146210e-001
8.543467e+002;1.133710e-001
8.562753e+002;1.111202e-001
8.582039e+002;1.089705e-001
8.601324e+002;1.075202e-001
8.620610e+002;1.062012e-001
8.639895e+002;1.052591e-001
8.659180e+002;1.047255e-001
8.678466e+002;1.045725e-001
8.697751e+002;1.048978e-001
8.717037e+002;1.056563e-001
8.736323e+002;1.062586e-001
8.755608e+002;1.062146e-001
8.774893e+002;1.053654e-001
8.794179e+002;1.046363e-001
8.813464e+002;1.046542e-001
8.832750e+002;1.046886e-001
8.852036e+002;1.040986e-001
8.871321e+002;1.036212e-001
8.890606e+002;1.033632e-001
8.909892e+002;1.031278e-001
8.929177e+002;1.034483e-001
8.948463e+002;1.033995e-001
8.967748e+002;1.032044e-001
8.987034e+002;1.032350e-001
9.006319e+002;1.027528e-001
9.025605e+002;1.022058e-001
9.044890e+002;1.022426e-001
9.064175e+002;1.025830e-001
9.083461e+002;1.028798e-001
9.102747e+002;1.031719e-001
9.122032e+002;1.037629e-001
9.141318e+002;1.046040e-001
9.160603e+002;1.057559e-001
9.179888e+002;1.071328e-001
9.199174e+002;1.083393e-001
9.218459e+002;1.092474e-001
9.237745e+002;1.104193e-001
9.257031e+002;1.114929e-001
9.276316e+002;1.122385e-001
9.295601e+002;1.124229e-001
9.314887e+002;1.123911e-001
9.334172e+002;1.125545e-001
9.353458e+002;1.129553e-001
9.372744e+002;1.131474e-001
9.392029e+002;1.129368e-001
9.411314e+002;1.133638e-001
9.430600e+002;1.141747e-001
9.449885e+002;1.147485e-001
9.469171e+002;1.153664e-001
9.488456e+002;1.164475e-001
9.507742e+002;1.174771e-001
9.527027e+002;1.186963e-001
9.546313e+002;1.201713e-001
9.565598e+002;1.212259e-001
9.584883e+002;1.225623e-001
9.604169e+002;1.242648e-001
9.623455e+002;1.262404e-001
9.642740e+002;1.285086e-001
9.662026e+002;1.304118e-001
9.681311e+002;1.322915e-001
9.700596e+002;1.344783e-001
9.719882e+002;1.364278e-001
9.739167e+002;1.375426e-001
9.758453e+002;1.377706e-001
9.777739e+002;1.374117e-001
9.797024e+002;1.365841e-001
9.816309e+002;1.357025e-001
9.835595e+002;1.350404e-001
9.854880e+002;1.353294e-001
9.874166e+002;1.373480e-001
9.893452e+002;1.398925e-001
9.912737e+002;1.420688e-001
9.932022e+002;1.436085e-001
9.951307e+002;1.445932e-001
9.970593e+002;1.449393e-001
9.989879e+002;1.449007e-001
1.000916e+003;1.442944e-001
1.002845e+003;1.430862e-001
1.004773e+003;1.422545e-001
1.006702e+003;1.422348e-001
1.008631e+003;1.424130e-001
1.010559e+003;1.423519e-001
1.012488e+003;1.427142e-001
1.014416e+003;1.425738e-001
1.016345e+003;1.417258e-001
1.018273e+003;1.412180e-001
1.020202e+003;1.408579e-001
1.022130e+003;1.405343e-001
1.024059e+003;1.411048e-001
1.025988e+003;1.427323e-001
1.027916e+003;1.445666e-001
1.029845e+003;1.465800e-001
1.031773e+003;1.492663e-001
1.033702e+003;1.519318e-001
1.035630e+003;1.542197e-001
1.037559e+003;1.560372e-001
1.039487e+003;1.578244e-001
1.041416e+003;1.593521e-001
1.043344e+003;1.600123e-001
1.045273e+003;1.603337e-001
1.047202e+003;1.606301e-001
1.049130e+003;1.607845e-001
1.051059e+003;1.617503e-001
1.052987e+003;1.631404e-001
1.054916e+003;1.647565e-001
1.056844e+003;1.661163e-001
1.058773e+003;1.669976e-001
1.060701e+003;1.683039e-001
1.062630e+003;1.693478e-001
1.064558e+003;1.693957e-001
1.066487e+003;1.691415e-001
1.068416e+003;1.686644e-001
1.070344e+003;1.679824e-001
1.072273e+003;1.666331e-001
1.074201e+003;1.639741e-001
1.076130e+003;1.611696e-001
1.078058e+003;1.578728e-001
1.079987e+003;1.535277e-001
1.081915e+003;1.497145e-001
1.083844e+003;1.463555e-001
1.085773e+003;1.429756e-001
1.087701e+003;1.399073e-001
1.089630e+003;1.375734e-001
1.091558e+003;1.358340e-001
1.093487e+003;1.347269e-001
1.095415e+003;1.337284e-001
1.097344e+003;1.332527e-001
1.099272e+003;1.335392e-001
1.101201e+003;1.340764e-001
1.103129e+003;1.338403e-001
1.105058e+003;1.324194e-001
1.106987e+003;1.311517e-001
1.108915e+003;1.304371e-001
1.110844e+003;1.301829e-001
1.112772e+003;1.299479e-001
1.114701e+003;1.298227e-001
1.116629e+003;1.297868e-001
1.118558e+003;1.297920e-001
1.120486e+003;1.305931e-001
1.122415e+003;1.313943e-001
1.124344e+003;1.319565e-001
1.126272e+003;1.329379e-001
1.128201e+003;1.339596e-001
1.130129e+003;1.354005e-001
1.132058e+003;1.370028e-001
1.133986e+003;1.383420e-001
1.135915e+003;1.400861e-001
1.137843e+003;1.425111e-001
1.139772e+003;1.446028e-001
1.141700e+003;1.469877e-001
1.143629e+003;1.495470e-001
1.145557e+003;1.513984e-001
1.147486e+003;1.539554e-001
1.149415e+003;1.571542e-001
1.151343e+003;1.599879e-001
1.153272e+003;1.625433e-001
1.155200e+003;1.648463e-001
1.157129e+003;1.669994e-001
1.159057e+003;1.690701e-001
1.160986e+003;1.706199e-001
1.162914e+003;1.715920e-001
1.164843e+003;1.724370e-001
1.166771e+003;1.732365e-001
1.168700e+003;1.741183e-001
1.170629e+003;1.742997e-001
1.172557e+003;1.733555e-001
1.174486e+003;1.716534e-001
1.176414e+003;1.700654e-001
1.178343e+003;1.683557e-001
1.180271e+003;1.666779e-001
1.182200e+003;1.653984e-001
1.184128e+003;1.650315e-001
1.186057e+003;1.660204e-001
1.187986e+003;1.674996e-001
1.189914e+003;1.691965e-001
1.191843e+003;1.716092e-001
1.193771e+003;1.749195e-001
1.195700e+003;1.783155e-001
1.197628e+003;1.818272e-001
1.199557e+003;1.860425e-001
1.201485e+003;1.912722e-001
1.203414e+003;1.971605e-001
1.205343e+003;2.027720e-001
1.207271e+003;2.081911e-001
1.209200e+003;2.133771e-001
1.211128e+003;2.184430e-001
1.213057e+003;2.234342e-001
1.214985e+003;2.280774e-001
1.216914e+003;2.321271e-001
1.218842e+003;2.357629e-001
1.220771e+003;2.389897e-001
1.222699e+003;2.416498e-001
1.224628e+003;2.440129e-001
1.226557e+003;2.455834e-001
1.228485e+003;2.456733e-001
1.230414e+003;2.447632e-001
1.232342e+003;2.430898e-001
1.234271e+003;2.411909e-001
1.236199e+003;2.389878e-001
1.238128e+003;2.361239e-001
1.240056e+003;2.334070e-001
1.241985e+003;2.309297e-001
1.243913e+003;2.289067e-001
1.245842e+003;2.271964e-001
1.247771e+003;2.255639e-001
1.249699e+003;2.238679e-001
1.251628e+003;2.223985e-001
1.253556e+003;2.211968e-001
1.255485e+003;2.201503e-001
1.257413e+003;2.185841e-001
1.259342e+003;2.164581e-001
1.261270e+003;2.138741e-001
1.263199e+003;2.106625e-001
1.265127e+003;2.075216e-001
1.267056e+003;2.042284e-001
1.268985e+003;2.007040e-001
1.270913e+003;1.973971e-001
1.272842e+003;1.940788e-001
1.274770e+003;1.906202e-001
1.276699e+003;1.875367e-001
1.278627e+003;1.848458e-001
1.280556e+003;1.826492e-001
1.282484e+003;1.809273e-001
1.284413e+003;1.793926e-001
1.286342e+003;1.784156e-001
1.288270e+003;1.777247e-001
1.290199e+003;1.769851e-001
1.292127e+003;1.764801e-001
1.294056e+003;1.763645e-001
1.295984e+003;1.762501e-001
1.297913e+003;1.760534e-001
1.299841e+003;1.762123e-001
1.301770e+003;1.765541e-001
1.303698e+003;1.762931e-001
1.305627e+003;1.760204e-001
1.307556e+003;1.760479e-001
1.309484e+003;1.756954e-001
1.311413e+003;1.753448e-001
1.313341e+003;1.750102e-001
1.315270e+003;1.747517e-001
1.317198e+003;1.749175e-001
1.319127e+003;1.753473e-001
1.321055e+003;1.758586e-001
1.322984e+003;1.763325e-001
1.324912e+003;1.768747e-001
1.326841e+003;1.778199e-001
1.328770e+003;1.787658e-001
1.330698e+003;1.794614e-001
1.332627e+003;1.800784e-001
1.334555e+003;1.802965e-001
1.336484e+003;1.799438e-001
1.338412e+003;1.796009e-001
1.340341e+003;1.795802e-001
1.342269e+003;1.793469e-001
1.344198e+003;1.786702e-001
1.346126e+003;1.784422e-001
1.348055e+003;1.787207e-001
1.349984e+003;1.787790e-001
1.351912e+003;1.788474e-001
1.353841e+003;1.794535e-001
1.355769e+003;1.807966e-001
1.357698e+003;1.829618e-001
1.359626e+003;1.856884e-001
1.361555e+003;1.889339e-001
1.363483e+003;1.926709e-001
1.365412e+003;1.960843e-001
1.367341e+003;1.984735e-001
1.369269e+003;1.996277e-001
1.371198e+003;1.994685e-001
1.373126e+003;1.988554e-001
1.375055e+003;1.984980e-001
1.376983e+003;1.984494e-001
1.378912e+003;1.985708e-001
1.380840e+003;1.989285e-001
1.382769e+003;1.993617e-001
1.384698e+003;1.997560e-001
1.386626e+003;2.002593e-001
1.388555e+003;2.009029e-001
1.390483e+003;2.015523e-001
1.392412e+003;2.020342e-001
1.394340e+003;2.023944e-001
1.396269e+003;2.028673e-001
1.398197e+003;2.037708e-001
1.400126e+003;2.050108e-001
1.402054e+003;2.064973e-001
1.403983e+003;2.078804e-001
1.405911e+003;2.090184e-001
1.407840e+003;2.099049e-001
1.409769e+003;2.103451e-001
1.411697e+003;2.107430e-001
1.413626e+003;2.112380e-001
1.415554e+003;2.115287e-001
1.417483e+003;2.117810e-001
1.419411e+003;2.124932e-001
1.421340e+003;2.136976e-001
1.423268e+003;2.156408e-001
1.425197e+003;2.183864e-001
1.427125e+003;2.221587e-001
1.429054e+003;2.274473e-001
1.430983e+003;2.336345e-001
1.432911e+003;2.400502e-001
1.434840e+003;2.465143e-001
1.436768e+003;2.520332e-001
1.438697e+003;2.564402e-001
1.440625e+003;2.596122e-001
1.442554e+003;2.615286e-001
1.444482e+003;2.622069e-001
1.446411e+003;2.612238e-001
1.448340e+003;2.588560e-001
1.450268e+003;2.549524e-001
1.452197e+003;2.497982e-001
1.454125e+003;2.439123e-001
1.456054e+003;2.379013e-001
1.457982e+003;2.332194e-001
1.459911e+003;2.302618e-001
1.461839e+003;2.286292e-001
1.463768e+003;2.278145e-001
1.465697e+003;2.277507e-001
1.467625e+003;2.289948e-001
1.469554e+003;2.307439e-001
1.471482e+003;2.329169e-001
1.473411e+003;2.359020e-001
1.475339e+003;2.397321e-001
1.477268e+003;2.447682e-001
1.479196e+003;2.512471e-001
1.481125e+003;2.589811e-001
1.483053e+003;2.672595e-001
1.484982e+003;2.763124e-001
1.486911e+003;2.863194e-001
1.488839e+003;2.967491e-001
1.490768e+003;3.074729e-001
1.492696e+003;3.184384e-001
1.494625e+003;3.286751e-001
1.496553e+003;3.382680e-001
1.498482e+003;3.476261e-001
1.500410e+003;3.562804e-001
1.502339e+003;3.637162e-001
1.504267e+003;3.700603e-001
1.506196e+003;3.753875e-001
1.508125e+003;3.800029e-001
1.510053e+003;3.839387e-001
1.511982e+003;3.865113e-001
1.513910e+003;3.861652e-001
1.515839e+003;3.808402e-001
1.517767e+003;3.714352e-001
1.519696e+003;3.605267e-001
1.521624e+003;3.501199e-001
1.523553e+003;3.417245e-001
1.525481e+003;3.345726e-001
1.527410e+003;3.279335e-001
1.529339e+003;3.212186e-001
1.531267e+003;3.147437e-001
1.533196e+003;3.083839e-001
1.535124e+003;3.020666e-001
1.537053e+003;2.956966e-001
1.538981e+003;2.893125e-001
1.540910e+003;2.839004e-001
1.542838e+003;2.790591e-001
1.544767e+003;2.740138e-001
1.546695e+003;2.685089e-001
1.548624e+003;2.633658e-001
1.550553e+003;2.583269e-001
1.552481e+003;2.529276e-001
1.554410e+003;2.471175e-001
1.556338e+003;2.411816e-001
1.558267e+003;2.346613e-001
1.560195e+003;2.286752e-001
1.562124e+003;2.235373e-001
1.564052e+003;2.180702e-001
1.565981e+003;2.126859e-001
1.567910e+003;2.076675e-001
1.569838e+003;2.031716e-001
1.571767e+003;1.994541e-001
1.573695e+003;1.963539e-001
1.575624e+003;1.937850e-001
1.577552e+003;1.924091e-001
1.579481e+003;1.923795e-001
1.581409e+003;1.929376e-001
1.583338e+003;1.938850e-001
1.585266e+003;1.958976e-001
1.587195e+003;1.992983e-001
1.589124e+003;2.033895e-001
1.591052e+003;2.084382e-001
1.592981e+003;2.142496e-001
1.594909e+003;2.203224e-001
1.596838e+003;2.268041e-001
1.598766e+003;2.340902e-001
1.600695e+003;2.427732e-001
1.602623e+003;2.529462e-001
1.604552e+003;2.648062e-001
1.606480e+003;2.787393e-001
1.608409e+003;2.938477e-001
1.610338e+003;3.094183e-001
1.612266e+003;3.249754e-001
1.614195e+003;3.395431e-001
1.616123e+003;3.529899e-001
1.618052e+003;3.653943e-001
1.619980e+003;3.754233e-001
1.621909e+003;3.819600e-001
1.623837e+003;3.853976e-001
1.625766e+003;3.861504e-001
1.627694e+003;3.843575e-001
1.629623e+003;3.797860e-001
1.631552e+003;3.731963e-001
1.633480e+003;3.655894e-001
1.635409e+003;3.577804e-001
1.637337e+003;3.504131e-001
1.639266e+003;3.429137e-001
1.641194e+003;3.351252e-001
1.643123e+003;3.275536e-001
1.645051e+003;3.196281e-001
1.646980e+003;3.117326e-001
1.648909e+003;3.045729e-001
1.650837e+003;2.969051e-001
1.652766e+003;2.884300e-001
1.654694e+003;2.808857e-001
1.656623e+003;2.733174e-001
1.658551e+003;2.648456e-001
1.660480e+003;2.566235e-001
1.662408e+003;2.485885e-001
1.664337e+003;2.411490e-001
1.666266e+003;2.344288e-001
1.668194e+003;2.275837e-001
1.670123e+003;2.208648e-001
1.672051e+003;2.150541e-001
1.673980e+003;2.090242e-001
1.675908e+003;2.028815e-001
1.677837e+003;1.973760e-001
1.679765e+003;1.920561e-001
1.681694e+003;1.870266e-001
1.683622e+003;1.820550e-001
1.685551e+003;1.777208e-001
1.687479e+003;1.744729e-001
1.689408e+003;1.715491e-001
1.691337e+003;1.688430e-001
1.693265e+003;1.665370e-001
1.695194e+003;1.642047e-001
1.697122e+003;1.617201e-001
1.699051e+003;1.571789e-001
1.700979e+003;1.494134e-001
1.702908e+003;1.395337e-001
1.704836e+003;1.276379e-001
1.706765e+003;1.157105e-001
1.708693e+003;1.057635e-001
1.710622e+003;9.785046e-002
1.712551e+003;9.152926e-002
1.714479e+003;8.645668e-002
1.716408e+003;8.207138e-002
1.718336e+003;7.885309e-002
1.720265e+003;7.662151e-002
1.722193e+003;7.475062e-002
1.724122e+003;7.322815e-002
1.726050e+003;7.194088e-002
1.727979e+003;7.073609e-002
1.729908e+003;6.985344e-002
1.731836e+003;6.900562e-002
1.733765e+003;6.809288e-002
1.735693e+003;6.763623e-002
1.737622e+003;6.734130e-002
1.739550e+003;6.677105e-002
1.741479e+003;6.644006e-002
1.743407e+003;6.598400e-002
1.745336e+003;6.536768e-002
1.747265e+003;6.488462e-002
1.749193e+003;6.462581e-002
1.751122e+003;6.420652e-002
1.753050e+003;6.396377e-002
1.754979e+003;6.388289e-002
1.756907e+003;6.384654e-002
1.758836e+003;6.359655e-002
1.760764e+003;6.302990e-002
1.762693e+003;6.274609e-002
1.764621e+003;6.290488e-002
1.766550e+003;6.277265e-002
1.768479e+003;6.243310e-002
1.770407e+003;6.225712e-002
1.772336e+003;6.218772e-002
1.774264e+003;6.215599e-002
1.776193e+003;6.203492e-002
1.778121e+003;6.162939e-002
1.780050e+003;6.136366e-002
1.781978e+003;6.134668e-002
1.783907e+003;6.125365e-002
1.785835e+003;6.131676e-002
1.787764e+003;6.133847e-002
1.789693e+003;6.098163e-002
1.791621e+003;6.046936e-002
1.793550e+003;6.042145e-002
1.795478e+003;6.046928e-002
1.797407e+003;6.027278e-002
1.799335e+003;6.013587e-002
1.801264e+003;6.010840e-002
1.803192e+003;6.006742e-002
1.805121e+003;5.979671e-002
1.807049e+003;5.957850e-002
1.808978e+003;5.926145e-002
1.810907e+003;5.894908e-002
1.812835e+003;5.877071e-002
1.814764e+003;5.867857e-002
1.816692e+003;5.858604e-002
1.818621e+003;5.833702e-002
1.820549e+003;5.796832e-002
1.822478e+003;5.780564e-002
1.824406e+003;5.774717e-002
1.826335e+003;5.765017e-002
1.828264e+003;5.741924e-002
1.830192e+003;5.716714e-002
1.832121e+003;5.699876e-002
1.834049e+003;5.679902e-002
1.835978e+003;5.661919e-002
1.837906e+003;5.644826e-002
1.839835e+003;5.635964e-002
1.841763e+003;5.625500e-002
1.843692e+003;5.603973e-002
1.845620e+003;5.597018e-002
1.847549e+003;5.581398e-002
1.849478e+003;5.551266e-002
1.851406e+003;5.552844e-002
1.853335e+003;5.560755e-002
1.855263e+003;5.547572e-002
1.857192e+003;5.535594e-002
1.859120e+003;5.526600e-002
1.861049e+003;5.537288e-002
1.862977e+003;5.542336e-002
1.864906e+003;5.511888e-002
1.866834e+003;5.499033e-002
1.868763e+003;5.508292e-002
1.870692e+003;5.499924e-002
1.872620e+003;5.495046e-002
1.874549e+003;5.499732e-002
1.876477e+003;5.503169e-002
1.878406e+003;5.497378e-002
1.880334e+003;5.496036e-002
1.882263e+003;5.484293e-002
1.884191e+003;5.480245e-002
1.886120e+003;5.490662e-002
1.888048e+003;5.483425e-002
1.889977e+003;5.480313e-002
1.891906e+003;5.490801e-002
1.893834e+003;5.493888e-002
1.895763e+003;5.476181e-002
1.897691e+003;5.466440e-002
1.899620e+003;5.454815e-002
1.901548e+003;5.429099e-002
1.903477e+003;5.415840e-002
1.905405e+003;5.422443e-002
1.907334e+003;5.426610e-002
1.909262e+003;5.410244e-002
1.911191e+003;5.408623e-002
1.913120e+003;5.413359e-002
1.915048e+003;5.408349e-002
1.916977e+003;5.406724e-002
1.918905e+003;5.397591e-002
1.920834e+003;5.374489e-002
1.922762e+003;5.362982e-002
1.924691e+003;5.377238e-002
1.926619e+003;5.383974e-002
1.928548e+003;5.390418e-002
1.930477e+003;5.387792e-002
1.932405e+003;5.381712e-002
1.934334e+003;5.370570e-002
1.936262e+003;5.372356e-002
1.938191e+003;5.389439e-002
1.940119e+003;5.378925e-002
1.942048e+003;5.364542e-002
1.943976e+003;5.378363e-002
1.945905e+003;5.376416e-002
1.947833e+003;5.387736e-002
1.949762e+003;5.394732e-002
1.951691e+003;5.383681e-002
1.953619e+003;5.394496e-002
1.955548e+003;5.393666e-002
1.957476e+003;5.372472e-002
1.959405e+003;5.366934e-002
1.961333e+003;5.383058e-002
1.963262e+003;5.403992e-002
1.965190e+003;5.415292e-002
1.967119e+003;5.402483e-002
1.969047e+003;5.393644e-002
1.970976e+003;5.405823e-002
1.972905e+003;5.401973e-002
1.974833e+003;5.384251e-002
1.976762e+003;5.383212e-002
1.978690e+003;5.394000e-002
1.980619e+003;5.396447e-002
1.982547e+003;5.396998e-002
1.984476e+003;5.382151e-002
1.986404e+003;5.355013e-002
1.988333e+003;5.367072e-002
1.990261e+003;5.386843e-002
1.992190e+003;5.379634e-002
1.994119e+003;5.350579e-002
1.996047e+003;5.322779e-002
1.997976e+003;5.342207e-002
1.999904e+003;5.363413e-002
2.001833e+003;5.330784e-002
2.003761e+003;5.324771e-002
2.005690e+003;5.355848e-002
2.007618e+003;5.371144e-002
2.009547e+003;5.373045e-002
2.011476e+003;5.352209e-002
2.013404e+003;5.331559e-002
2.015333e+003;5.349405e-002
2.017261e+003;5.379863e-002
2.019190e+003;5.384697e-002
2.021118e+003;5.378228e-002
2.023047e+003;5.391179e-002
2.024975e+003;5.404634e-002
2.026904e+003;5.391911e-002
2.028833e+003;5.374587e-002
2.030761e+003;5.364313e-002
2.032690e+003;5.359942e-002
2.034618e+003;5.371718e-002
2.036547e+003;5.374395e-002
2.038475e+003;5.372678e-002
2.040404e+003;5.380785e-002
2.042332e+003;5.370076e-002
2.044261e+003;5.351504e-002
2.046189e+003;5.354057e-002
2.048118e+003;5.363593e-002
2.050047e+003;5.372708e-002
2.051975e+003;5.386775e-002
2.053904e+003;5.385144e-002
2.055832e+003;5.360797e-002
2.057761e+003;5.364395e-002
2.059689e+003;5.377962e-002
2.061618e+003;5.376994e-002
2.063546e+003;5.384558e-002
2.065475e+003;5.393918e-002
2.067404e+003;5.396154e-002
2.069332e+003;5.385305e-002
2.071260e+003;5.374707e-002
2.073189e+003;5.378621e-002
2.075118e+003;5.387068e-002
2.077046e+003;5.390073e-002
2.078975e+003;5.389551e-002
2.080903e+003;5.413637e-002
2.082832e+003;5.425746e-002
2.084760e+003;5.404198e-002
2.086689e+003;5.395122e-002
2.088617e+003;5.404769e-002
2.090546e+003;5.414782e-002
2.092475e+003;5.422143e-002
2.094403e+003;5.416790e-002
2.096332e+003;5.406705e-002
2.098260e+003;5.414433e-002
2.100189e+003;5.437199e-002
2.102117e+003;5.457726e-002
2.104046e+003;5.455540e-002
2.105974e+003;5.422878e-002
2.107903e+003;5.402244e-002
2.109832e+003;5.413209e-002
2.111760e+003;5.433781e-002
2.113688e+003;5.445713e-002
2.115617e+003;5.436035e-002
2.117546e+003;5.410293e-002
2.119474e+003;5.398000e-002
2.121403e+003;5.404802e-002
2.123331e+003;5.401741e-002
2.125260e+003;5.394405e-002
2.127188e+003;5.399662e-002
2.129117e+003;5.397910e-002
2.131045e+003;5.387184e-002
2.132974e+003;5.395790e-002
2.134903e+003;5.412357e-002
2.136831e+003;5.406071e-002
2.138760e+003;5.378621e-002
2.140688e+003;5.363769e-002
2.142617e+003;5.362172e-002
2.144545e+003;5.368238e-002
2.146474e+003;5.366068e-002
2.148402e+003;5.349031e-002
2.150331e+003;5.344609e-002
2.152260e+003;5.344556e-002
2.154188e+003;5.355995e-002
2.156117e+003;5.379480e-002
2.158045e+003;5.373424e-002
2.159974e+003;5.348484e-002
2.161902e+003;5.347520e-002
2.163831e+003;5.348870e-002
2.165759e+003;5.346745e-002
2.167688e+003;5.341671e-002
2.169616e+003;5.341518e-002
2.171545e+003;5.340131e-002
2.173474e+003;5.346363e-002
2.175402e+003;5.347149e-002
2.177331e+003;5.334215e-002
2.179259e+003;5.346310e-002
2.181188e+003;5.362318e-002
2.183116e+003;5.372712e-002
2.185045e+003;5.386112e-002
2.186973e+003;5.372835e-002
2.188902e+003;5.362885e-002
2.190831e+003;5.364377e-002
2.192759e+003;5.365655e-002
2.194688e+003;5.353375e-002
2.196616e+003;5.359601e-002
2.198545e+003;5.362922e-002
2.200473e+003;5.345058e-002
2.202402e+003;5.332391e-002
2.204330e+003;5.337508e-002
2.206259e+003;5.330678e-002
2.208188e+003;5.300843e-002
2.210116e+003;5.292949e-002
2.212044e+003;5.291070e-002
2.213973e+003;5.306096e-002
2.215902e+003;5.300413e-002
2.217830e+003;5.266357e-002
2.219759e+003;5.259747e-002
2.221687e+003;5.278669e-002
2.223616e+003;5.288301e-002
2.225544e+003;5.279005e-002
2.227473e+003;5.263783e-002
2.229401e+003;5.267483e-002
2.231330e+003;5.265302e-002
2.233259e+003;5.251442e-002
2.235187e+003;5.271867e-002
2.237116e+003;5.290797e-002
2.239044e+003;5.283657e-002
2.240973e+003;5.251685e-002
2.242901e+003;5.240151e-002
2.244830e+003;5.252362e-002
2.246758e+003;5.247736e-002
2.248687e+003;5.241799e-002
2.250615e+003;5.242192e-002
2.252544e+003;5.235022e-002
2.254473e+003;5.229509e-002
2.256401e+003;5.229647e-002
2.258330e+003;5.244338e-002
2.260258e+003;5.244472e-002
2.262187e+003;5.234947e-002
2.264115e+003;5.240599e-002
2.266044e+003;5.234469e-002
2.267972e+003;5.211928e-002
2.269901e+003;5.205439e-002
2.271830e+003;5.224647e-002
2.273758e+003;5.231579e-002
2.275687e+003;5.236768e-002
2.277615e+003;5.249976e-002
2.279544e+003;5.256292e-002
2.281472e+003;5.237732e-002
2.283401e+003;5.226531e-002
2.285329e+003;5.234039e-002
2.287258e+003;5.242943e-002
2.289187e+003;5.263435e-002
2.291115e+003;5.278545e-002
2.293043e+003;5.261692e-002
2.294972e+003;5.256303e-002
2.296901e+003;5.300540e-002
2.298829e+003;5.310484e-002
2.300758e+003;5.275638e-002
2.302686e+003;5.262018e-002
2.304615e+003;5.264322e-002
2.306543e+003;5.264423e-002
2.308472e+003;5.258988e-002
2.310400e+003;5.238502e-002
2.312329e+003;5.218608e-002
2.314258e+003;5.226396e-002
2.316186e+003;5.244181e-002
2.318115e+003;5.256049e-002
2.320043e+003;5.247714e-002
2.321972e+003;5.254710e-002
2.323900e+003;5.257107e-002
2.325829e+003;5.223335e-002
2.327757e+003;5.207061e-002
2.329686e+003;5.224837e-002
2.331615e+003;5.218466e-002
2.333543e+003;5.197099e-002
2.335472e+003;5.196845e-002
2.337400e+003;5.216318e-002
2.339329e+003;5.223915e-002
2.341257e+003;5.217065e-002
2.343186e+003;5.223100e-002
2.345114e+003;5.224640e-002
2.347043e+003;5.224374e-002
2.348971e+003;5.228182e-002
2.350900e+003;5.221814e-002
2.352829e+003;5.197828e-002
2.354757e+003;5.197570e-002
2.356686e+003;5.205749e-002
2.358614e+003;5.191785e-002
2.360543e+003;5.173529e-002
2.362471e+003;5.168572e-002
2.364400e+003;5.200162e-002
2.366328e+003;5.225177e-002
2.368257e+003;5.238547e-002
2.370186e+003;5.256034e-002
2.372114e+003;5.274351e-002
2.374042e+003;5.277932e-002
2.375971e+003;5.269241e-002
2.377900e+003;5.287455e-002
2.379828e+003;5.330802e-002
2.381757e+003;5.341855e-002
2.383685e+003;5.325236e-002
2.385614e+003;5.303153e-002
2.387542e+003;5.287702e-002
2.389471e+003;5.290108e-002
2.391399e+003;5.306658e-002
2.393328e+003;5.334575e-002
2.395257e+003;5.353723e-002
2.397185e+003;5.363293e-002
2.399114e+003;5.381292e-002
2.401042e+003;5.413494e-002
2.402971e+003;5.420814e-002
2.404899e+003;5.414879e-002
2.406828e+003;5.436414e-002
2.408756e+003;5.473171e-002
2.410685e+003;5.473558e-002
2.412614e+003;5.474238e-002
2.414542e+003;5.514191e-002
2.416471e+003;5.555641e-002
2.418399e+003;5.578297e-002
2.420328e+003;5.619017e-002
2.422256e+003;5.633557e-002
2.424185e+003;5.647211e-002
2.426113e+003;5.667540e-002
2.428042e+003;5.672516e-002
2.429970e+003;5.676923e-002
2.431899e+003;5.700205e-002
2.433828e+003;5.712001e-002
2.435756e+003;5.730191e-002
2.437685e+003;5.740668e-002
2.439613e+003;5.746810e-002
2.441542e+003;5.759497e-002
2.443470e+003;5.755003e-002
2.445399e+003;5.756566e-002
2.447327e+003;5.761953e-002
2.449256e+003;5.747699e-002
2.451185e+003;5.750343e-002
2.453113e+003;5.761446e-002
2.455042e+003;5.773059e-002
2.456970e+003;5.772945e-002
2.458899e+003;5.765362e-002
2.460827e+003;5.778528e-002
2.462756e+003;5.776484e-002
2.464684e+003;5.776514e-002
2.466613e+003;5.794636e-002
2.468542e+003;5.791724e-002
2.470470e+003;5.804424e-002
2.472398e+003;5.841335e-002
2.474327e+003;5.868904e-002
2.476256e+003;5.849974e-002
2.478184e+003;5.827870e-002
2.480113e+003;5.842211e-002
2.482041e+003;5.863022e-002
2.483970e+003;5.860777e-002
2.485898e+003;5.859711e-002
2.487827e+003;5.874268e-002
2.489755e+003;5.885952e-002
2.491684e+003;5.874309e-002
2.493613e+003;5.876054e-002
2.495541e+003;5.898312e-002
2.497470e+003;5.907232e-002
2.499398e+003;5.899713e-002
2.501327e+003;5.894069e-002
2.503255e+003;5.909901e-002
2.505184e+003;5.948494e-002
2.507112e+003;5.958127e-002
2.509041e+003;5.948440e-002
2.510969e+003;5.940864e-002
2.512898e+003;5.945728e-002
2.514827e+003;5.956333e-002
2.516755e+003;5.975610e-002
2.518684e+003;5.983720e-002
2.520612e+003;5.983352e-002
2.522541e+003;5.993252e-002
2.524469e+003;5.994336e-002
2.526398e+003;5.997447e-002
2.528326e+003;5.996915e-002
2.530255e+003;6.007902e-002
2.532184e+003;6.025778e-002
2.534112e+003;6.035988e-002
2.536041e+003;6.064092e-002
2.537969e+003;6.062188e-002
2.539898e+003;6.043627e-002
2.541826e+003;6.045767e-002
2.543755e+003;6.054070e-002
2.545683e+003;6.083078e-002
2.547612e+003;6.136828e-002
2.549541e+003;6.151038e-002
2.551469e+003;6.130928e-002
2.553397e+003;6.113020e-002
2.555326e+003;6.144602e-002
2.557255e+003;6.189154e-002
2.559183e+003;6.206034e-002
2.561112e+003;6.219449e-002
2.563040e+003;6.237951e-002
2.564969e+003;6.259902e-002
2.566897e+003;6.267048e-002
2.568826e+003;6.285340e-002
2.570754e+003;6.300753e-002
2.572683e+003;6.318730e-002
2.574612e+003;6.317619e-002
2.576540e+003;6.330842e-002
2.578469e+003;6.374933e-002
2.580397e+003;6.395318e-002
2.582326e+003;6.398884e-002
2.584254e+003;6.414448e-002
2.586183e+003;6.457279e-002
2.588111e+003;6.491851e-002
2.590040e+003;6.507248e-002
2.591969e+003;6.520602e-002
2.593897e+003;6.524491e-002
2.595826e+003;6.534057e-002
2.597754e+003;6.566247e-002
2.599683e+003;6.586564e-002
2.601611e+003;6.599013e-002
2.603540e+003;6.617168e-002
2.605468e+003;6.622197e-002
2.607397e+003;6.608649e-002
2.609325e+003;6.592148e-002
2.611254e+003;6.608953e-002
2.613183e+003;6.615134e-002
2.615111e+003;6.613433e-002
2.617040e+003;6.639979e-002
2.618968e+003;6.660999e-002
2.620897e+003;6.670900e-002
2.622825e+003;6.681924e-002
2.624754e+003;6.681541e-002
2.626682e+003;6.662857e-002
2.628611e+003;6.660891e-002
2.630540e+003;6.677360e-002
2.632468e+003;6.670050e-002
2.634396e+003;6.674249e-002
2.636325e+003;6.672766e-002
2.638254e+003;6.654734e-002
2.640182e+003;6.626878e-002
2.642111e+003;6.610443e-002
2.644039e+003;6.633988e-002
2.645968e+003;6.676742e-002
2.647896e+003;6.676464e-002
2.649825e+003;6.652807e-002
2.651753e+003;6.640393e-002
2.653682e+003;6.658488e-002
2.655611e+003;6.709421e-002
2.657539e+003;6.745216e-002
2.659468e+003;6.737372e-002
2.661396e+003;6.744740e-002
2.663325e+003;6.756105e-002
2.665253e+003;6.748049e-002
2.667182e+003;6.753425e-002
2.669110e+003;6.775790e-002
2.671039e+003;6.782009e-002
2.672968e+003;6.771514e-002
2.674896e+003;6.794825e-002
2.676825e+003;6.845887e-002
2.678753e+003;6.867755e-002
2.680682e+003;6.860219e-002
2.682610e+003;6.863583e-002
2.684539e+003;6.871819e-002
2.686467e+003;6.886175e-002
2.688396e+003;6.890476e-002
2.690324e+003;6.895948e-002
2.692253e+003;6.921848e-002
2.694182e+003;6.953176e-002
2.696110e+003;6.960608e-002
2.698039e+003;6.966224e-002
2.699967e+003;6.986986e-002
2.701896e+003;7.011954e-002
2.703824e+003;7.025765e-002
2.705753e+003;7.044065e-002
2.707681e+003;7.065694e-002
2.709610e+003;7.063939e-002
2.711539e+003;7.061187e-002
2.713467e+003;7.074662e-002
2.715396e+003;7.097840e-002
2.717324e+003;7.133399e-002
2.719253e+003;7.171714e-002
2.721181e+003;7.170503e-002
2.723110e+003;7.156291e-002
2.725038e+003;7.170663e-002
2.726967e+003;7.200134e-002
2.728896e+003;7.218253e-002
2.730824e+003;7.227518e-002
2.732752e+003;7.220130e-002
2.734681e+003;7.215393e-002
2.736610e+003;7.233769e-002
2.738538e+003;7.262819e-002
2.740467e+003;7.282653e-002
2.742395e+003;7.312781e-002
2.744324e+003;7.359199e-002
2.746252e+003;7.380121e-002
2.748181e+003;7.381374e-002
2.750109e+003;7.392655e-002
2.752038e+003;7.399326e-002
2.753967e+003;7.394870e-002
2.755895e+003;7.421014e-002
2.757824e+003;7.438943e-002
2.759752e+003;7.446938e-002
2.761681e+003;7.466963e-002
2.763609e+003;7.485335e-002
2.765538e+003;7.506523e-002
2.767466e+003;7.508599e-002
2.769395e+003;7.530083e-002
2.771323e+003;7.571263e-002
2.773252e+003;7.578683e-002
2.775181e+003;7.577870e-002
2.777109e+003;7.604140e-002
2.779038e+003;7.643487e-002
2.780966e+003;7.658704e-002
2.782895e+003;7.658756e-002
2.784823e+003;7.648350e-002
2.786752e+003;7.648259e-002
2.788680e+003;7.689133e-002
2.790609e+003;7.708213e-002
2.792538e+003;7.697365e-002
2.794466e+003;7.696977e-002
2.796395e+003;7.731470e-002
2.798323e+003;7.776877e-002
2.800252e+003;7.794596e-002
2.802180e+003;7.789838e-002
2.804109e+003;7.795004e-002
2.806037e+003;7.822556e-002
2.807966e+003;7.855307e-002
2.809895e+003;7.866306e-002
2.811823e+003;7.876724e-002
2.813751e+003;7.865321e-002
2.815680e+003;7.839607e-002
2.817609e+003;7.846402e-002
2.819537e+003;7.877376e-002
2.821466e+003;7.885941e-002
2.823394e+003;7.889485e-002
2.825323e+003;7.907528e-002
2.827251e+003;7.934361e-002
2.829180e+003;7.979685e-002
2.831108e+003;8.021127e-002
2.833037e+003;8.038408e-002
2.834966e+003;8.040860e-002
2.836894e+003;8.070830e-002
2.838823e+003;8.116832e-002
2.840751e+003;8.166335e-002
2.842680e+003;8.224878e-002
2.844608e+003;8.279362e-002
2.846537e+003;8.317222e-002
2.848465e+003;8.372537e-002
2.850394e+003;8.438159e-002
2.852323e+003;8.482099e-002
2.854251e+003;8.508781e-002
2.856180e+003;8.531201e-002
2.858108e+003;8.580648e-002
2.860037e+003;8.645789e-002
2.861965e+003;8.679264e-002
2.863894e+003;8.688940e-002
2.865822e+003;8.719702e-002
2.867751e+003;8.798014e-002
2.869679e+003;8.872138e-002
2.871608e+003;8.895327e-002
2.873536e+003;8.931164e-002
2.875465e+003;8.932784e-002
2.877394e+003;8.937978e-002
2.879322e+003;8.940229e-002
2.881251e+003;8.932923e-002
2.883179e+003;8.927831e-002
2.885108e+003;8.914306e-002
2.887036e+003;8.918403e-002
2.888965e+003;8.936769e-002
2.890893e+003;8.947093e-002
2.892822e+003;8.973145e-002
2.894750e+003;9.017634e-002
2.896679e+003;9.038185e-002
2.898608e+003;9.059581e-002
2.900536e+003;9.100126e-002
2.902465e+003;9.136263e-002
2.904393e+003;9.184751e-002
2.906322e+003;9.235863e-002
2.908250e+003;9.269579e-002
2.910179e+003;9.321398e-002
2.912107e+003;9.408000e-002
2.914036e+003;9.516199e-002
2.915965e+003;9.620975e-002
2.917893e+003;9.714927e-002
2.919822e+003;9.807159e-002
2.921750e+003;9.874304e-002
2.923679e+003;9.936334e-002
2.925607e+003;1.002527e-001
2.927536e+003;1.011835e-001
2.929464e+003;1.012611e-001
2.931393e+003;1.014602e-001
2.933322e+003;1.017064e-001
2.935250e+003;1.015960e-001
2.937178e+003;1.014443e-001
2.939107e+003;1.009857e-001
2.941036e+003;1.001427e-001
2.942964e+003;9.917482e-002
2.944893e+003;9.815511e-002
2.946821e+003;9.730652e-002
2.948750e+003;9.690326e-002
2.950678e+003;9.639190e-002
2.952607e+003;9.566637e-002
2.954535e+003;9.523550e-002
2.956464e+003;9.514169e-002
2.958393e+003;9.531621e-002
2.960321e+003;9.551933e-002
2.962250e+003;9.573704e-002
2.964178e+003;9.590614e-002
2.966107e+003;9.598383e-002
2.968035e+003;9.604438e-002
2.969964e+003;9.637787e-002
2.971892e+003;9.700338e-002
2.973821e+003;9.701490e-002
2.975750e+003;9.662867e-002
2.977678e+003;9.660222e-002
2.979607e+003;9.668157e-002
2.981535e+003;9.618366e-002
2.983464e+003;9.551491e-002
2.985392e+003;9.516673e-002
2.987321e+003;9.464641e-002
2.989249e+003;9.406991e-002
2.991178e+003;9.335581e-002
2.993106e+003;9.284828e-002
2.995035e+003;9.254672e-002
2.996964e+003;9.235670e-002
2.998892e+003;9.203660e-002
3.000821e+003;9.148267e-002
3.002749e+003;9.109189e-002
3.004678e+003;9.104685e-002
3.006606e+003;9.125817e-002
3.008535e+003;9.125363e-002
3.010463e+003;9.098667e-002
3.012392e+003;9.100857e-002
3.014321e+003;9.103701e-002
3.016249e+003;9.096245e-002
3.018177e+003;9.119496e-002
3.020106e+003;9.164438e-002
3.022035e+003;9.209890e-002
3.023963e+003;9.248067e-002
3.025892e+003;9.287754e-002
3.027820e+003;9.326376e-002
3.029749e+003;9.354692e-002
3.031677e+003;9.386945e-002
3.033606e+003;9.438090e-002
3.035534e+003;9.497096e-002
3.037463e+003;9.550013e-002
3.039392e+003;9.609622e-002
3.041320e+003;9.650717e-002
3.043249e+003;9.704025e-002
3.045177e+003;9.746540e-002
3.047106e+003;9.787047e-002
3.049034e+003;9.855724e-002
3.050963e+003;9.920955e-002
3.052891e+003;1.000974e-001
3.054820e+003;1.006709e-001
3.056749e+003;1.008143e-001
3.058677e+003;1.009181e-001
3.060606e+003;1.010280e-001
3.062534e+003;1.015900e-001
3.064463e+003;1.023326e-001
3.066391e+003;1.024140e-001
3.068320e+003;1.022852e-001
3.070248e+003;1.023031e-001
3.072177e+003;1.025055e-001
3.074105e+003;1.024561e-001
3.076034e+003;1.024060e-001
3.077963e+003;1.024555e-001
3.079891e+003;1.022645e-001
3.081820e+003;1.017884e-001
3.083748e+003;1.017487e-001
3.085677e+003;1.018094e-001
3.087605e+003;1.017558e-001
3.089534e+003;1.015698e-001
3.091462e+003;1.012272e-001
3.093391e+003;1.007586e-001
3.095320e+003;1.003762e-001
3.097248e+003;9.995291e-002
3.099177e+003;9.988035e-002
3.101105e+003;1.000719e-001
3.103034e+003;1.001236e-001
3.104962e+003;9.972294e-002
3.106891e+003;9.908557e-002
3.108819e+003;9.853525e-002
3.110748e+003;9.856307e-002
3.112677e+003;9.856784e-002
3.114605e+003;9.826798e-002
3.116533e+003;9.829088e-002
3.118462e+003;9.822984e-002
3.120391e+003;9.797363e-002
3.122319e+003;9.779759e-002
3.124248e+003;9.747984e-002
3.126176e+003;9.731378e-002
3.128105e+003;9.758473e-002
3.130033e+003;9.769563e-002
3.131962e+003;9.760307e-002
3.133890e+003;9.784104e-002
3.135819e+003;9.841774e-002
3.137748e+003;9.883439e-002
3.139676e+003;9.913211e-002
3.141605e+003;9.911854e-002
3.143533e+003;9.943399e-002
3.145462e+003;9.989394e-002
3.147390e+003;1.004462e-001
3.149319e+003;1.009628e-001
3.151247e+003;1.013764e-001
3.153176e+003;1.020508e-001
3.155104e+003;1.027709e-001
3.157033e+003;1.031650e-001
3.158962e+003;1.034472e-001
3.160890e+003;1.038547e-001
3.162819e+003;1.045903e-001
3.164747e+003;1.055557e-001
3.166676e+003;1.059966e-001
3.168604e+003;1.065649e-001
3.170533e+003;1.077426e-001
3.172461e+003;1.086546e-001
3.174390e+003;1.091963e-001
3.176319e+003;1.097499e-001
3.178247e+003;1.104378e-001
3.180176e+003;1.111620e-001
3.182104e+003;1.122610e-001
3.184033e+003;1.131613e-001
3.185961e+003;1.142600e-001
3.187890e+003;1.155347e-001
3.189818e+003;1.161593e-001
3.191747e+003;1.171286e-001
3.193676e+003;1.184023e-001
3.195604e+003;1.193398e-001
3.197532e+003;1.204127e-001
3.199461e+003;1.211926e-001
3.201390e+003;1.219239e-001
3.203318e+003;1.230755e-001
3.205247e+003;1.240721e-001
3.207175e+003;1.250656e-001
3.209104e+003;1.261100e-001
3.211032e+003;1.271026e-001
3.212961e+003;1.282386e-001
3.214889e+003;1.293716e-001
3.216818e+003;1.303043e-001
3.218747e+003;1.313283e-001
3.220675e+003;1.325364e-001
3.222604e+003;1.338742e-001
3.224532e+003;1.353431e-001
3.226461e+003;1.366283e-001
3.228389e+003;1.376055e-001
3.230318e+003;1.386230e-001
3.232246e+003;1.397322e-001
3.234175e+003;1.407656e-001
3.236104e+003;1.424618e-001
3.238032e+003;1.442012e-001
3.239961e+003;1.455845e-001
3.241889e+003;1.471693e-001
3.243818e+003;1.488407e-001
3.245746e+003;1.504491e-001
3.247675e+003;1.519229e-001
3.249603e+003;1.536229e-001
3.251532e+003;1.554335e-001
3.253460e+003;1.572687e-001
3.255389e+003;1.590453e-001
3.257318e+003;1.611860e-001
3.259246e+003;1.634237e-001
3.261175e+003;1.654871e-001
3.263103e+003;1.676773e-001
3.265032e+003;1.698904e-001
3.266960e+003;1.716888e-001
3.268889e+003;1.736677e-001
3.270817e+003;1.755949e-001
3.272746e+003;1.775560e-001
3.274675e+003;1.793674e-001
3.276603e+003;1.804727e-001
3.278531e+003;1.812750e-001
3.280460e+003;1.817936e-001
3.282389e+003;1.819181e-001
3.284317e+003;1.823290e-001
3.286246e+003;1.829464e-001
3.288174e+003;1.827781e-001
3.290103e+003;1.823559e-001
3.292031e+003;1.814666e-001
3.293960e+003;1.799416e-001
3.295888e+003;1.782746e-001
3.297817e+003;1.764839e-001
3.299746e+003;1.747017e-001
3.301674e+003;1.726283e-001
3.303603e+003;1.703039e-001
3.305531e+003;1.685549e-001
3.307460e+003;1.668514e-001
3.309388e+003;1.642791e-001
3.311317e+003;1.615501e-001
3.313245e+003;1.596869e-001
3.315174e+003;1.575913e-001
3.317103e+003;1.550004e-001
3.319031e+003;1.526969e-001
3.320960e+003;1.507232e-001
3.322888e+003;1.486739e-001
3.324817e+003;1.463894e-001
3.326745e+003;1.439372e-001
3.328674e+003;1.417410e-001
3.330602e+003;1.397933e-001
3.332531e+003;1.378835e-001
3.334459e+003;1.358526e-001
3.336388e+003;1.342842e-001
3.338317e+003;1.327698e-001
3.340245e+003;1.310602e-001
3.342174e+003;1.292645e-001
3.344102e+003;1.276485e-001
3.346031e+003;1.261217e-001
3.347959e+003;1.243747e-001
3.349888e+003;1.228046e-001
3.351816e+003;1.216051e-001
3.353745e+003;1.204291e-001
3.355674e+003;1.193702e-001
3.357602e+003;1.184148e-001
3.359531e+003;1.172465e-001
3.361459e+003;1.163175e-001
3.363388e+003;1.152591e-001
3.365316e+003;1.142345e-001
3.367245e+003;1.131593e-001
3.369173e+003;1.121442e-001
3.371102e+003;1.115699e-001
3.373031e+003;1.111587e-001
3.374959e+003;1.104722e-001
3.376887e+003;1.097127e-001
3.378816e+003;1.087981e-001
3.380745e+003;1.078413e-001
3.382673e+003;1.069269e-001
3.384602e+003;1.060677e-001
3.386530e+003;1.055355e-001
3.388459e+003;1.052261e-001
3.390387e+003;1.042419e-001
3.392316e+003;1.037443e-001
3.394244e+003;1.038091e-001
3.396173e+003;1.031526e-001
3.398102e+003;1.018689e-001
3.400030e+003;1.010159e-001
3.401959e+003;1.003457e-001
3.403887e+003;9.955385e-002
3.405816e+003;9.871676e-002
3.407744e+003;9.773003e-002
3.409673e+003;9.692526e-002
3.411601e+003;9.645615e-002
3.413530e+003;9.585899e-002
3.415458e+003;9.525651e-002
3.417387e+003;9.453682e-002
3.419316e+003;9.367261e-002
3.421244e+003;9.297517e-002
3.423173e+003;9.233314e-002
3.425101e+003;9.172885e-002
3.427030e+003;9.083565e-002
3.428958e+003;8.983430e-002
3.430887e+003;8.931787e-002
3.432815e+003;8.914432e-002
3.434744e+003;8.849972e-002
3.436673e+003;8.728832e-002
3.438601e+003;8.638116e-002
3.440530e+003;8.628338e-002
3.442458e+003;8.641204e-002
3.444387e+003;8.612417e-002
3.446315e+003;8.572179e-002
3.448244e+003;8.536270e-002
3.450172e+003;8.475735e-002
3.452101e+003;8.404548e-002
3.454030e+003;8.358677e-002
3.455958e+003;8.334147e-002
3.457886e+003;8.287237e-002
3.459815e+003;8.267019e-002
3.461744e+003;8.248758e-002
3.463672e+003;8.209484e-002
3.465601e+003;8.201098e-002
3.467529e+003;8.191795e-002
3.469458e+003;8.161632e-002
3.471386e+003;8.139250e-002
3.473315e+003;8.117536e-002
3.475243e+003;8.068911e-002
3.477172e+003;8.031323e-002
3.479101e+003;8.018309e-002
3.481029e+003;8.009522e-002
3.482958e+003;7.996666e-002
3.484886e+003;7.956402e-002
3.486815e+003;7.942543e-002
3.488743e+003;7.932853e-002
3.490672e+003;7.879373e-002
3.492600e+003;7.841512e-002
3.494529e+003;7.821239e-002
3.496458e+003;7.780673e-002
3.498386e+003;7.775117e-002
3.500315e+003;7.771415e-002
3.502243e+003;7.740264e-002
3.504172e+003;7.669484e-002
3.506100e+003;7.599179e-002
3.508029e+003;7.594526e-002
3.509957e+003;7.599676e-002
3.511886e+003;7.576434e-002
3.513814e+003;7.566044e-002
3.515743e+003;7.532896e-002
3.517672e+003;7.487492e-002
3.519600e+003;7.468957e-002
3.521529e+003;7.424764e-002
3.523457e+003;7.422622e-002
3.525386e+003;7.432840e-002
3.527314e+003;7.382855e-002
3.529243e+003;7.286274e-002
3.531171e+003;7.244506e-002
3.533100e+003;7.273716e-002
3.535029e+003;7.257278e-002
3.536957e+003;7.175619e-002
3.538885e+003;7.145256e-002
3.540814e+003;7.154943e-002
3.542743e+003;7.125226e-002
3.544671e+003;7.076530e-002
3.546600e+003;7.016223e-002
3.548528e+003;6.985889e-002
3.550457e+003;6.951084e-002
3.552385e+003;6.892671e-002
3.554314e+003;6.873453e-002
3.556242e+003;6.866564e-002
3.558171e+003;6.837051e-002
3.560100e+003;6.806795e-002
3.562028e+003;6.784435e-002
3.563957e+003;6.759530e-002
3.565885e+003;6.678820e-002
3.567814e+003;6.620587e-002
3.569742e+003;6.626963e-002
3.571671e+003;6.624153e-002
3.573599e+003;6.563815e-002
3.575528e+003;6.505293e-002
3.577457e+003;6.493317e-002
3.579385e+003;6.517754e-002
3.581314e+003;6.489266e-002
3.583242e+003;6.421366e-002
3.585171e+003;6.384704e-002
3.587099e+003;6.355747e-002
3.589028e+003;6.314795e-002
3.590956e+003;6.292135e-002
3.592885e+003;6.214471e-002
3.594813e+003;6.145388e-002
3.596742e+003;6.152909e-002
3.598671e+003;6.176822e-002
3.600599e+003;6.180382e-002
3.602528e+003;6.151328e-002
3.604456e+003;6.112753e-002
3.606385e+003;6.106880e-002
3.608313e+003;6.074217e-002
3.610242e+003;6.029760e-002
3.612170e+003;6.018184e-002
3.614099e+003;5.960985e-002
3.616028e+003;5.914556e-002
3.617956e+003;5.867990e-002
3.619885e+003;5.843208e-002
3.621813e+003;5.855916e-002
3.623742e+003;5.856909e-002
3.625670e+003;5.811238e-002
3.627599e+003;5.713661e-002
3.629527e+003;5.642521e-002
3.631456e+003;5.642287e-002
3.633385e+003;5.617508e-002
3.635313e+003;5.596125e-002
3.637241e+003;5.575449e-002
3.639170e+003;5.526032e-002
3.641099e+003;5.507066e-002
3.643027e+003;5.473441e-002
3.644956e+003;5.418925e-002
3.646884e+003;5.352277e-002
3.648813e+003;5.251558e-002
3.650741e+003;5.179875e-002
3.652670e+003;5.192939e-002
3.654598e+003;5.159228e-002
3.656527e+003;5.058576e-002
3.658456e+003;5.012676e-002
3.660384e+003;4.994752e-002
3.662313e+003;4.955126e-002
3.664241e+003;4.894387e-002
3.666170e+003;4.839756e-002
3.668098e+003;4.790121e-002
3.670027e+003;4.684646e-002
3.671955e+003;4.620673e-002
3.673884e+003;4.591660e-002
3.675813e+003;4.507469e-002
3.677741e+003;4.460772e-002
3.679669e+003;4.413875e-002
3.681598e+003;4.363650e-002
3.683527e+003;4.299899e-002
3.685455e+003;4.245454e-002
3.687384e+003;4.165450e-002
3.689312e+003;4.123101e-002
3.691241e+003;4.135662e-002
3.693169e+003;4.105580e-002
3.695098e+003;4.063674e-002
3.697026e+003;4.056686e-002
3.698955e+003;4.042908e-002
3.700884e+003;4.001506e-002
3.702812e+003;4.002527e-002
3.704741e+003;3.999533e-002
3.706669e+003;3.961127e-002
3.708598e+003;3.904865e-002
3.710526e+003;3.856475e-002
3.712455e+003;3.860078e-002
3.714383e+003;3.877565e-002
3.716312e+003;3.857181e-002
3.718240e+003;3.814516e-002
3.720169e+003;3.808048e-002
3.722098e+003;3.793937e-002
3.724026e+003;3.775742e-002
3.725955e+003;3.744427e-002
3.727883e+003;3.715330e-002
3.729812e+003;3.709830e-002
3.731740e+003;3.695562e-002
3.733669e+003;3.684221e-002
3.735597e+003;3.639063e-002
3.737526e+003;3.620411e-002
3.739455e+003;3.657186e-002
3.741383e+003;3.692287e-002
3.743312e+003;3.642140e-002
3.745240e+003;3.564163e-002
3.747169e+003;3.588600e-002
3.749097e+003;3.596842e-002
3.751026e+003;3.612329e-002
3.752954e+003;3.638155e-002
3.754883e+003;3.655290e-002
3.756812e+003;3.595974e-002
3.758740e+003;3.565480e-002
3.760668e+003;3.582248e-002
3.762597e+003;3.587290e-002
3.764526e+003;3.567041e-002
3.766454e+003;3.577473e-002
3.768383e+003;3.587970e-002
3.770311e+003;3.558945e-002
3.772240e+003;3.526618e-002
3.774168e+003;3.547298e-002
3.776097e+003;3.561797e-002
3.778025e+003;3.550350e-002
3.779954e+003;3.554813e-002
3.781883e+003;3.536100e-002
3.783811e+003;3.535057e-002
3.785740e+003;3.555090e-002
3.787668e+003;3.539381e-002
3.789597e+003;3.553151e-002
3.791525e+003;3.568465e-002
3.793454e+003;3.580780e-002
3.795382e+003;3.555805e-002
3.797311e+003;3.506538e-002
3.799240e+003;3.512063e-002
3.801168e+003;3.499803e-002
3.803097e+003;3.494635e-002
3.805025e+003;3.506197e-002
3.806954e+003;3.505194e-002
3.808882e+003;3.533634e-002
3.810811e+003;3.553266e-002
3.812739e+003;3.532670e-002
3.814668e+003;3.492470e-002
3.816596e+003;3.510256e-002
3.818525e+003;3.567009e-002
3.820454e+003;3.551558e-002
3.822382e+003;3.511502e-002
3.824311e+003;3.551152e-002
3.826239e+003;3.580903e-002
3.828168e+003;3.568476e-002
3.830096e+003;3.551609e-002
3.832025e+003;3.530136e-002
3.833953e+003;3.529964e-002
3.835882e+003;3.574016e-002
3.837811e+003;3.582007e-002
3.839739e+003;3.593462e-002
3.841667e+003;3.600708e-002
3.843596e+003;3.584342e-002
3.845525e+003;3.586559e-002
3.847453e+003;3.632193e-002
3.849382e+003;3.676806e-002
3.851310e+003;3.650872e-002
3.853239e+003;3.601158e-002
3.855167e+003;3.615073e-002
3.857096e+003;3.655384e-002
3.859024e+003;3.679273e-002
3.860953e+003;3.681238e-002
3.862882e+003;3.692864e-002
3.864810e+003;3.718333e-002
3.866739e+003;3.733886e-002
3.868667e+003;3.698806e-002
3.870596e+003;3.688827e-002
3.872524e+003;3.716034e-002
3.874453e+003;3.751442e-002
3.876381e+003;3.793575e-002
3.878310e+003;3.778951e-002
3.880239e+003;3.767234e-002
3.882167e+003;3.806493e-002
3.884096e+003;3.775423e-002
3.886024e+003;3.734973e-002
3.887953e+003;3.784822e-002
3.889881e+003;3.821582e-002
3.891810e+003;3.802062e-002
3.893738e+003;3.789934e-002
3.895667e+003;3.821719e-002
3.897595e+003;3.852589e-002
3.899524e+003;3.867553e-002
3.901453e+003;3.884341e-002
3.903381e+003;3.919738e-002
3.905310e+003;3.948257e-002
3.907238e+003;3.955087e-002
3.909167e+003;3.912362e-002
3.911095e+003;3.882428e-002
3.913024e+003;3.928699e-002
3.914952e+003;3.953969e-002
3.916881e+003;3.950373e-002
3.918810e+003;3.996420e-002
3.920738e+003;4.043850e-002
3.922667e+003;4.016263e-002
3.924595e+003;4.003820e-002
3.926524e+003;4.040173e-002
3.928452e+003;4.061801e-002
3.930381e+003;4.087691e-002
3.932309e+003;4.093414e-002
3.934238e+003;4.088514e-002
3.936167e+003;4.068827e-002
3.938095e+003;4.048119e-002
3.940023e+003;4.076068e-002
3.941952e+003;4.101410e-002
3.943881e+003;4.128592e-002
3.945809e+003;4.188896e-002
3.947738e+003;4.203078e-002
3.949666e+003;4.195570e-002
3.951595e+003;4.174368e-002
3.953523e+003;4.194822e-002
3.955452e+003;4.195859e-002
3.957380e+003;4.166012e-002
3.959309e+003;4.161881e-002
3.961238e+003;4.150774e-002
3.963166e+003;4.138169e-002
3.965095e+003;4.159331e-002
3.967023e+003;4.217363e-002
3.968952e+003;4.272697e-002
3.970880e+003;4.257283e-002
3.972809e+003;4.229232e-002
3.974737e+003;4.236858e-002
3.976666e+003;4.235097e-002
3.978594e+003;4.213124e-002
3.980523e+003;4.243025e-002
3.982452e+003;4.273955e-002
3.984380e+003;4.234210e-002
3.986309e+003;4.233830e-002
3.988237e+003;4.260722e-002
3.990166e+003;4.243390e-002
3.992094e+003;4.243441e-002
3.994023e+003;4.265609e-002
3.995951e+003;4.287558e-002
3.997880e+003;4.279695e-002
3.999809e+003;4.272964e-002
4.001737e+003;0.000000e+000
