3.992094e+002;0.000000e+000
4.011380e+002;0.000000e+000
4.030665e+002;0.000000e+000
4.049951e+002;0.000000e+000
4.069236e+002;0.000000e+000
4.088522e+002;0.000000e+000
4.107807e+002;0.000000e+000
4.127093e+002;0.000000e+000
4.146378e+002;0.000000e+000
4.165664e+002;0.000000e+000
4.184949e+002;0.000000e+000
4.204235e+002;0.000000e+000
4.223520e+002;0.000000e+000
4.242806e+002;0.000000e+000
4.262091e+002;0.000000e+000
4.281377e+002;0.000000e+000
4.300662e+002;0.000000e+000
4.319948e+002;0.000000e+000
4.339233e+002;0.000000e+000
4.358519e+002;0.000000e+000
4.377804e+002;0.000000e+000
4.397090e+002;0.000000e+000
4.416375e+002;0.000000e+000
4.435660e+002;0.000000e+000
4.454946e+002;0.000000e+000
4.474232e+002;0.000000e+000
4.493517e+002;0.000000e+000
4.512802e+002;0.000000e+000
4.532088e+002;0.000000e+000
4.551373e+002;0.000000e+000
4.570659e+002;0.000000e+000
4.589944e+002;0.000000e+000
4.609230e+002;0.000000e+000
4.628515e+002;0.000000e+000
4.647801e+002;0.000000e+000
4.667086e+002;0.000000e+000
4.686372e+002;0.000000e+000
4.705657e+002;0.000000e+000
4.724943e+002;0.000000e+000
4.744228e+002;0.000000e+000
4.763513e+002;0.000000e+000
4.782799e+002;0.000000e+000
4.802085e+002;0.000000e+000
4.821370e+002;0.000000e+000
4.840656e+002;0.000000e+000
4.859941e+002;0.000000e+000
4.879226e+002;0.000000e+000
4.898512e+002;0.000000e+000
4.917798e+002;0.000000e+000
4.937083e+002;0.000000e+000
4.956368e+002;0.000000e+000
4.975654e+002;0.000000e+000
4.994939e+002;0.000000e+000
5.014225e+002;0.000000e+000
5.033510e+002;0.000000e+000
5.052796e+002;0.000000e+000
5.072081e+002;0.000000e+000
5.091367e+002;0.000000e+000
5.110652e+002;0.000000e+000
5.129938e+002;0.000000e+000
5.149223e+002;0.000000e+000
5.168509e+002;0.000000e+000
5.187794e+002;0.000000e+000
5.207079e+002;0.000000e+000
5.226365e+002;0.000000e+000
5.245651e+002;0.000000e+000
5.264936e+002;0.000000e+000
5.284222e+002;0.000000e+000
5.303507e+002;0.000000e+000
5.322792e+002;0.000000e+000
5.342078e+002;0.000000e+000
5.361364e+002;0.000000e+000
5.380649e+002;0.000000e+000
5.399935e+002;0.000000e+000
5.419220e+002;0.000000e+000
5.438505e+002;0.000000e+000
5.457791e+002;0.000000e+000
5.477076e+002;0.000000e+000
5.496362e+002;0.000000e+000
5.515648e+002;0.000000e+000
5.534933e+002;0.000000e+000
5.554218e+002;0.000000e+000
5.573504e+002;0.000000e+000
5.592789e+002;0.000000e+000
5.612075e+002;0.000000e+000
5.631360e+002;0.000000e+000
5.650646e+002;0.000000e+000
5.669931e+002;0.000000e+000
5.689217e+002;0.000000e+000
5.708502e+002;0.000000e+000
5.727787e+002;0.000000e+000
5.747073e+002;0.000000e+000
5.766359e+002;0.000000e+000
5.785644e+002;0.000000e+000
5.804930e+002;0.000000e+000
5.824215e+002;0.000000e+000
5.843500e+002;0.000000e+000
5.862786e+002;0.000000e+000
5.882072e+002;0.000000e+000
5.901357e+002;0.000000e+000
5.920643e+002;0.000000e+000
5.939928e+002;0.000000e+000
5.959213e+002;0.000000e+000
5.978499e+002;0.000000e+000
5.997784e+002;2.006067e-001
6.017070e+002;2.061920e-001
6.036355e+002;2.087000e-001
6.055641e+002;2.051230e-001
6.074926e+002;2.013458e-001
6.094211e+002;2.024283e-001
6.113497e+002;2.049724e-001
6.132783e+002;2.037324e-001
6.152068e+002;2.035041e-001
6.171354e+002;2.066873e-001
6.190639e+002;2.086964e-001
6.209924e+002;2.041133e-001
6.229210e+002;1.970956e-001
6.248495e+002;1.937898e-001
6.267781e+002;1.930201e-001
6.287067e+002;1.937729e-001
6.306352e+002;1.905788e-001
6.325637e+002;1.873952e-001
6.344923e+002;1.849815e-001
6.364208e+002;1.839716e-001
6.383494e+002;1.823948e-001
6.402780e+002;1.857031e-001
6.422065e+002;1.869881e-001
6.441350e+002;1.827789e-001
6.460636e+002;1.802215e-001
6.479921e+002;1.790687e-001
6.499207e+002;1.778473e-001
6.518492e+002;1.770223e-001
6.537778e+002;1.799297e-001
6.557063e+002;1.804000e-001
6.576349e+002;1.778578e-001
6.595634e+002;1.768329e-001
6.614919e+002;1.771536e-001
6.634205e+002;1.773400e-001
6.653491e+002;1.775521e-001
6.672776e+002;1.761348e-001
6.692062e+002;1.743916e-001
6.711347e+002;1.758031e-001
6.730632e+002;1.770140e-001
6.749918e+002;1.757491e-001
6.769203e+002;1.740055e-001
6.788489e+002;1.739757e-001
6.807775e+002;1.748178e-001
6.827060e+002;1.737693e-001
6.846345e+002;1.723870e-001
6.865631e+002;1.717159e-001
6.884916e+002;1.709403e-001
6.904202e+002;1.703001e-001
6.923488e+002;1.698114e-001
6.942773e+002;1.690625e-001
6.962058e+002;1.690505e-001
6.981344e+002;1.665606e-001
7.000629e+002;1.631803e-001
7.019915e+002;1.617833e-001
7.039200e+002;1.601978e-001
7.058486e+002;1.584159e-001
7.077771e+002;1.563195e-001
7.097057e+002;1.544075e-001
7.116342e+002;1.532191e-001
7.135627e+002;1.517976e-001
7.154913e+002;1.487951e-001
7.174199e+002;1.457323e-001
7.193484e+002;1.445961e-001
7.212770e+002;1.434510e-001
7.232055e+002;1.405530e-001
7.251340e+002;1.377265e-001
7.270626e+002;1.355923e-001
7.289911e+002;1.341094e-001
7.309197e+002;1.323891e-001
7.328483e+002;1.302144e-001
7.347768e+002;1.284632e-001
7.367053e+002;1.265014e-001
7.386339e+002;1.241514e-001
7.405624e+002;1.222083e-001
7.424910e+002;1.198269e-001
7.444196e+002;1.178153e-001
7.463481e+002;1.166644e-001
7.482766e+002;1.142420e-001
7.502052e+002;1.115061e-001
7.521337e+002;1.101273e-001
7.540623e+002;1.093673e-001
7.559908e+002;1.085935e-001
7.579194e+002;1.072184e-001
7.598479e+002;1.065689e-001
7.617765e+002;1.059919e-001
7.637050e+002;1.038030e-001
7.656335e+002;1.020505e-001
7.675621e+002;1.011784e-001
7.694907e+002;9.989527e-002
7.714192e+002;9.877403e-002
7.733478e+002;9.749829e-002
7.752763e+002;9.611730e-002
7.772048e+002;9.450486e-002
7.791334e+002;9.255648e-002
7.810620e+002;9.216481e-002
7.829905e+002;9.231269e-002
7.849191e+002;9.139322e-002
7.868476e+002;9.011722e-002
7.887761e+002;8.925007e-002
7.907047e+002;8.814405e-002
7.926332e+002;8.736327e-002
7.945618e+002;8.671816e-002
7.964903e+002;8.609229e-002
7.984189e+002;8.570383e-002
8.003474e+002;8.568086e-002
8.022759e+002;8.617411e-002
8.042045e+002;8.639005e-002
8.061331e+002;8.659712e-002
8.080616e+002;8.700845e-002
8.099902e+002;8.696088e-002
8.119187e+002;8.651232e-002
8.138472e+002;8.647354e-002
8.157758e+002;8.652943e-002
8.177043e+002;8.666661e-002
8.196329e+002;8.644030e-002
8.215615e+002;8.642174e-002
8.234900e+002;8.721898e-002
8.254185e+002;8.822276e-002
8.273471e+002;8.907500e-002
8.292756e+002;8.884569e-002
8.312042e+002;8.853824e-002
8.331328e+002;8.741347e-002
8.350613e+002;8.553628e-002
8.369898e+002;8.452684e-002
8.389184e+002;8.389115e-002
8.408469e+002;8.308932e-002
8.427755e+002;8.276964e-002
8.447040e+002;8.319911e-002
8.466326e+002;8.352774e-002
8.485611e+002;8.392744e-002
8.504897e+002;8.441854e-002
8.524182e+002;8.425316e-002
8.543467e+002;8.344012e-002
8.562753e+002;8.223684e-002
8.582039e+002;8.077207e-002
8.601324e+002;7.921257e-002
8.620610e+002;7.766835e-002
8.639895e+002;7.670927e-002
8.659180e+002;7.598338e-002
8.678466e+002;7.520929e-002
8.697751e+002;7.505342e-002
8.717037e+002;7.493421e-002
8.736323e+002;7.442148e-002
8.755608e+002;7.403357e-002
8.774893e+002;7.422174e-002
8.794179e+002;7.471173e-002
8.813464e+002;7.503314e-002
8.832750e+002;7.527395e-002
8.852036e+002;7.545158e-002
8.871321e+002;7.592572e-002
8.890606e+002;7.647552e-002
8.909892e+002;7.588629e-002
8.929177e+002;7.542624e-002
8.948463e+002;7.562605e-002
8.967748e+002;7.589459e-002
8.987034e+002;7.577377e-002
9.006319e+002;7.553363e-002
9.025605e+002;7.539352e-002
9.044890e+002;7.539517e-002
9.064175e+002;7.569425e-002
9.083461e+002;7.638513e-002
9.102747e+002;7.707481e-002
9.122032e+002;7.770777e-002
9.141318e+002;7.846402e-002
9.160603e+002;7.887828e-002
9.179888e+002;7.962777e-002
9.199174e+002;8.088510e-002
9.218459e+002;8.239271e-002
9.237745e+002;8.387064e-002
9.257031e+002;8.506810e-002
9.276316e+002;8.599433e-002
9.295601e+002;8.671588e-002
9.314887e+002;8.709319e-002
9.334172e+002;8.717912e-002
9.353458e+002;8.708040e-002
9.372744e+002;8.758731e-002
9.392029e+002;8.838303e-002
9.411314e+002;8.881320e-002
9.430600e+002;8.891188e-002
9.449885e+002;8.956173e-002
9.469171e+002;9.052315e-002
9.488456e+002;9.133560e-002
9.507742e+002;9.222844e-002
9.527027e+002;9.324898e-002
9.546313e+002;9.433301e-002
9.565598e+002;9.553856e-002
9.584883e+002;9.708910e-002
9.604169e+002;9.893079e-002
9.623455e+002;1.007563e-001
9.642740e+002;1.023125e-001
9.662026e+002;1.037840e-001
9.681311e+002;1.055828e-001
9.700596e+002;1.075137e-001
9.719882e+002;1.090151e-001
9.739167e+002;1.096150e-001
9.758453e+002;1.095201e-001
9.777739e+002;1.089583e-001
9.797024e+002;1.083710e-001
9.816309e+002;1.080317e-001
9.835595e+002;1.077602e-001
9.854880e+002;1.078005e-001
9.874166e+002;1.086253e-001
9.893452e+002;1.103164e-001
9.912737e+002;1.120475e-001
9.932022e+002;1.130073e-001
9.951307e+002;1.134578e-001
9.970593e+002;1.134227e-001
9.989879e+002;1.130966e-001
1.000916e+003;1.128313e-001
1.002845e+003;1.126169e-001
1.004773e+003;1.124478e-001
1.006702e+003;1.124283e-001
1.008631e+003;1.125126e-001
1.010559e+003;1.127121e-001
1.012488e+003;1.125159e-001
1.014416e+003;1.123383e-001
1.016345e+003;1.122837e-001
1.018273e+003;1.114267e-001
1.020202e+003;1.110490e-001
1.022130e+003;1.115622e-001
1.024059e+003;1.120501e-001
1.025988e+003;1.133754e-001
1.027916e+003;1.150801e-001
1.029845e+003;1.167412e-001
1.031773e+003;1.181255e-001
1.033702e+003;1.196858e-001
1.035630e+003;1.215952e-001
1.037559e+003;1.228165e-001
1.039487e+003;1.235029e-001
1.041416e+003;1.239913e-001
1.043344e+003;1.242669e-001
1.045273e+003;1.247371e-001
1.047202e+003;1.255303e-001
1.049130e+003;1.263093e-001
1.051059e+003;1.271991e-001
1.052987e+003;1.284567e-001
1.054916e+003;1.296840e-001
1.056844e+003;1.304561e-001
1.058773e+003;1.316241e-001
1.060701e+003;1.330968e-001
1.062630e+003;1.338558e-001
1.064558e+003;1.340536e-001
1.066487e+003;1.343313e-001
1.068416e+003;1.339233e-001
1.070344e+003;1.329939e-001
1.072273e+003;1.323703e-001
1.074201e+003;1.315435e-001
1.076130e+003;1.299497e-001
1.078058e+003;1.277235e-001
1.079987e+003;1.257246e-001
1.081915e+003;1.240040e-001
1.083844e+003;1.223379e-001
1.085773e+003;1.205173e-001
1.087701e+003;1.185744e-001
1.089630e+003;1.169961e-001
1.091558e+003;1.157619e-001
1.093487e+003;1.149250e-001
1.095415e+003;1.144513e-001
1.097344e+003;1.138749e-001
1.099272e+003;1.136120e-001
1.101201e+003;1.138702e-001
1.103129e+003;1.140410e-001
1.105058e+003;1.139013e-001
1.106987e+003;1.135440e-001
1.108915e+003;1.130114e-001
1.110844e+003;1.120516e-001
1.112772e+003;1.111247e-001
1.114701e+003;1.106332e-001
1.116629e+003;1.104156e-001
1.118558e+003;1.100523e-001
1.120486e+003;1.098717e-001
1.122415e+003;1.101076e-001
1.124344e+003;1.100331e-001
1.126272e+003;1.100765e-001
1.128201e+003;1.108044e-001
1.130129e+003;1.116495e-001
1.132058e+003;1.120726e-001
1.133986e+003;1.127712e-001
1.135915e+003;1.138357e-001
1.137843e+003;1.147168e-001
1.139772e+003;1.162507e-001
1.141700e+003;1.180397e-001
1.143629e+003;1.195501e-001
1.145557e+003;1.210817e-001
1.147486e+003;1.225636e-001
1.149415e+003;1.238972e-001
1.151343e+003;1.249555e-001
1.153272e+003;1.260016e-001
1.155200e+003;1.272689e-001
1.157129e+003;1.283744e-001
1.159057e+003;1.290113e-001
1.160986e+003;1.295021e-001
1.162914e+003;1.299326e-001
1.164843e+003;1.306050e-001
1.166771e+003;1.314303e-001
1.168700e+003;1.318997e-001
1.170629e+003;1.316202e-001
1.172557e+003;1.308044e-001
1.174486e+003;1.297986e-001
1.176414e+003;1.285207e-001
1.178343e+003;1.275369e-001
1.180271e+003;1.267527e-001
1.182200e+003;1.260478e-001
1.184128e+003;1.262005e-001
1.186057e+003;1.270130e-001
1.187986e+003;1.280405e-001
1.189914e+003;1.297625e-001
1.191843e+003;1.318287e-001
1.193771e+003;1.338659e-001
1.195700e+003;1.361233e-001
1.197628e+003;1.387419e-001
1.199557e+003;1.416679e-001
1.201485e+003;1.450120e-001
1.203414e+003;1.486652e-001
1.205343e+003;1.520712e-001
1.207271e+003;1.552133e-001
1.209200e+003;1.581058e-001
1.211128e+003;1.610827e-001
1.213057e+003;1.641769e-001
1.214985e+003;1.668050e-001
1.216914e+003;1.691033e-001
1.218842e+003;1.712478e-001
1.220771e+003;1.729792e-001
1.222699e+003;1.744639e-001
1.224628e+003;1.756308e-001
1.226557e+003;1.761868e-001
1.228485e+003;1.765707e-001
1.230414e+003;1.762719e-001
1.232342e+003;1.753114e-001
1.234271e+003;1.741791e-001
1.236199e+003;1.727308e-001
1.238128e+003;1.713102e-001
1.240056e+003;1.698709e-001
1.241985e+003;1.681895e-001
1.243913e+003;1.666705e-001
1.245842e+003;1.654374e-001
1.247771e+003;1.643679e-001
1.249699e+003;1.635907e-001
1.251628e+003;1.628043e-001
1.253556e+003;1.618496e-001
1.255485e+003;1.608429e-001
1.257413e+003;1.600260e-001
1.259342e+003;1.591458e-001
1.261270e+003;1.579150e-001
1.263199e+003;1.564003e-001
1.265127e+003;1.540299e-001
1.267056e+003;1.513562e-001
1.268985e+003;1.487578e-001
1.270913e+003;1.461261e-001
1.272842e+003;1.435392e-001
1.274770e+003;1.413038e-001
1.276699e+003;1.394985e-001
1.278627e+003;1.380402e-001
1.280556e+003;1.367302e-001
1.282484e+003;1.354259e-001
1.284413e+003;1.341860e-001
1.286342e+003;1.333455e-001
1.288270e+003;1.327680e-001
1.290199e+003;1.322865e-001
1.292127e+003;1.319809e-001
1.294056e+003;1.316322e-001
1.295984e+003;1.311543e-001
1.297913e+003;1.307583e-001
1.299841e+003;1.305771e-001
1.301770e+003;1.303171e-001
1.303698e+003;1.298971e-001
1.305627e+003;1.295541e-001
1.307556e+003;1.292765e-001
1.309484e+003;1.289531e-001
1.311413e+003;1.283743e-001
1.313341e+003;1.279746e-001
1.315270e+003;1.277808e-001
1.317198e+003;1.276612e-001
1.319127e+003;1.276862e-001
1.321055e+003;1.278540e-001
1.322984e+003;1.281775e-001
1.324912e+003;1.284633e-001
1.326841e+003;1.289915e-001
1.328770e+003;1.297105e-001
1.330698e+003;1.300857e-001
1.332627e+003;1.301750e-001
1.334555e+003;1.302478e-001
1.336484e+003;1.302372e-001
1.338412e+003;1.303103e-001
1.340341e+003;1.304173e-001
1.342269e+003;1.305145e-001
1.344198e+003;1.304179e-001
1.346126e+003;1.302974e-001
1.348055e+003;1.304454e-001
1.349984e+003;1.307382e-001
1.351912e+003;1.309555e-001
1.353841e+003;1.315130e-001
1.355769e+003;1.326454e-001
1.357698e+003;1.339807e-001
1.359626e+003;1.355979e-001
1.361555e+003;1.376136e-001
1.363483e+003;1.396746e-001
1.365412e+003;1.415018e-001
1.367341e+003;1.428794e-001
1.369269e+003;1.434933e-001
1.371198e+003;1.435203e-001
1.373126e+003;1.433369e-001
1.375055e+003;1.433560e-001
1.376983e+003;1.434310e-001
1.378912e+003;1.434476e-001
1.380840e+003;1.436639e-001
1.382769e+003;1.438313e-001
1.384698e+003;1.441024e-001
1.386626e+003;1.442389e-001
1.388555e+003;1.443472e-001
1.390483e+003;1.444870e-001
1.392412e+003;1.445230e-001
1.394340e+003;1.444962e-001
1.396269e+003;1.445181e-001
1.398197e+003;1.446397e-001
1.400126e+003;1.449725e-001
1.402054e+003;1.458738e-001
1.403983e+003;1.467826e-001
1.405911e+003;1.476084e-001
1.407840e+003;1.484059e-001
1.409769e+003;1.491006e-001
1.411697e+003;1.496276e-001
1.413626e+003;1.501562e-001
1.415554e+003;1.506561e-001
1.417483e+003;1.513296e-001
1.419411e+003;1.521922e-001
1.421340e+003;1.533692e-001
1.423268e+003;1.551664e-001
1.425197e+003;1.575313e-001
1.427125e+003;1.602227e-001
1.429054e+003;1.633439e-001
1.430983e+003;1.671461e-001
1.432911e+003;1.713972e-001
1.434840e+003;1.754566e-001
1.436768e+003;1.788659e-001
1.438697e+003;1.816022e-001
1.440625e+003;1.835816e-001
1.442554e+003;1.850074e-001
1.444482e+003;1.855729e-001
1.446411e+003;1.852790e-001
1.448340e+003;1.843374e-001
1.450268e+003;1.825344e-001
1.452197e+003;1.799382e-001
1.454125e+003;1.773080e-001
1.456054e+003;1.746724e-001
1.457982e+003;1.723238e-001
1.459911e+003;1.711034e-001
1.461839e+003;1.705533e-001
1.463768e+003;1.704431e-001
1.465697e+003;1.707001e-001
1.467625e+003;1.715561e-001
1.469554e+003;1.726707e-001
1.471482e+003;1.737442e-001
1.473411e+003;1.751656e-001
1.475339e+003;1.771668e-001
1.477268e+003;1.796994e-001
1.479196e+003;1.827840e-001
1.481125e+003;1.864821e-001
1.483053e+003;1.905755e-001
1.484982e+003;1.949873e-001
1.486911e+003;1.999311e-001
1.488839e+003;2.050131e-001
1.490768e+003;2.098615e-001
1.492696e+003;2.146490e-001
1.494625e+003;2.192015e-001
1.496553e+003;2.236189e-001
1.498482e+003;2.280398e-001
1.500410e+003;2.316107e-001
1.502339e+003;2.346538e-001
1.504267e+003;2.373340e-001
1.506196e+003;2.391127e-001
1.508125e+003;2.409545e-001
1.510053e+003;2.423648e-001
1.511982e+003;2.426595e-001
1.513910e+003;2.420369e-001
1.515839e+003;2.395643e-001
1.517767e+003;2.349262e-001
1.519696e+003;2.293368e-001
1.521624e+003;2.236893e-001
1.523553e+003;2.184617e-001
1.525481e+003;2.136672e-001
1.527410e+003;2.094341e-001
1.529339e+003;2.057698e-001
1.531267e+003;2.022931e-001
1.533196e+003;1.986894e-001
1.535124e+003;1.950263e-001
1.537053e+003;1.917167e-001
1.538981e+003;1.880622e-001
1.540910e+003;1.842034e-001
1.542838e+003;1.808761e-001
1.544767e+003;1.776924e-001
1.546695e+003;1.746117e-001
1.548624e+003;1.711032e-001
1.550553e+003;1.676855e-001
1.552481e+003;1.646118e-001
1.554410e+003;1.613265e-001
1.556338e+003;1.577201e-001
1.558267e+003;1.541766e-001
1.560195e+003;1.504692e-001
1.562124e+003;1.471849e-001
1.564052e+003;1.438676e-001
1.565981e+003;1.401579e-001
1.567910e+003;1.371312e-001
1.569838e+003;1.346395e-001
1.571767e+003;1.325765e-001
1.573695e+003;1.307263e-001
1.575624e+003;1.292099e-001
1.577552e+003;1.283809e-001
1.579481e+003;1.279800e-001
1.581409e+003;1.278856e-001
1.583338e+003;1.284663e-001
1.585266e+003;1.298521e-001
1.587195e+003;1.318074e-001
1.589124e+003;1.341602e-001
1.591052e+003;1.370617e-001
1.592981e+003;1.405511e-001
1.594909e+003;1.444709e-001
1.596838e+003;1.487851e-001
1.598766e+003;1.531994e-001
1.600695e+003;1.581301e-001
1.602623e+003;1.641232e-001
1.604552e+003;1.712517e-001
1.606480e+003;1.792612e-001
1.608409e+003;1.875704e-001
1.610338e+003;1.958079e-001
1.612266e+003;2.041480e-001
1.614195e+003;2.119352e-001
1.616123e+003;2.187085e-001
1.618052e+003;2.248787e-001
1.619980e+003;2.299893e-001
1.621909e+003;2.338279e-001
1.623837e+003;2.364852e-001
1.625766e+003;2.376421e-001
1.627694e+003;2.373897e-001
1.629623e+003;2.363887e-001
1.631552e+003;2.345327e-001
1.633480e+003;2.317771e-001
1.635409e+003;2.281407e-001
1.637337e+003;2.241027e-001
1.639266e+003;2.203261e-001
1.641194e+003;2.167062e-001
1.643123e+003;2.129852e-001
1.645051e+003;2.092764e-001
1.646980e+003;2.053023e-001
1.648909e+003;2.009960e-001
1.650837e+003;1.966373e-001
1.652766e+003;1.917145e-001
1.654694e+003;1.866680e-001
1.656623e+003;1.820249e-001
1.658551e+003;1.775458e-001
1.660480e+003;1.731540e-001
1.662408e+003;1.686163e-001
1.664337e+003;1.642533e-001
1.666266e+003;1.601013e-001
1.668194e+003;1.562144e-001
1.670123e+003;1.521806e-001
1.672051e+003;1.485649e-001
1.673980e+003;1.451873e-001
1.675908e+003;1.414597e-001
1.677837e+003;1.380997e-001
1.679765e+003;1.350884e-001
1.681694e+003;1.320502e-001
1.683622e+003;1.291448e-001
1.685551e+003;1.264447e-001
1.687479e+003;1.243880e-001
1.689408e+003;1.229304e-001
1.691337e+003;1.216982e-001
1.693265e+003;1.204758e-001
1.695194e+003;1.191183e-001
1.697122e+003;1.176070e-001
1.699051e+003;1.149426e-001
1.700979e+003;1.096385e-001
1.702908e+003;1.025541e-001
1.704836e+003;9.443826e-002
1.706765e+003;8.655308e-002
1.708693e+003;7.958157e-002
1.710622e+003;7.366583e-002
1.712551e+003;6.903607e-002
1.714479e+003;6.521530e-002
1.716408e+003;6.205166e-002
1.718336e+003;5.956014e-002
1.720265e+003;5.713464e-002
1.722193e+003;5.504147e-002
1.724122e+003;5.336234e-002
1.726050e+003;5.206702e-002
1.727979e+003;5.079395e-002
1.729908e+003;4.949269e-002
1.731836e+003;4.848379e-002
1.733765e+003;4.752111e-002
1.735693e+003;4.662548e-002
1.737622e+003;4.582141e-002
1.739550e+003;4.472119e-002
1.741479e+003;4.362005e-002
1.743407e+003;4.293849e-002
1.745336e+003;4.231039e-002
1.747265e+003;4.140221e-002
1.749193e+003;4.053852e-002
1.751122e+003;3.970123e-002
1.753050e+003;3.916482e-002
1.754979e+003;3.878957e-002
1.756907e+003;3.809260e-002
1.758836e+003;3.737880e-002
1.760764e+003;3.687759e-002
1.762693e+003;3.639665e-002
1.764621e+003;3.602587e-002
1.766550e+003;3.577071e-002
1.768479e+003;3.554600e-002
1.770407e+003;3.518828e-002
1.772336e+003;3.471045e-002
1.774264e+003;3.437536e-002
1.776193e+003;3.426879e-002
1.778121e+003;3.407726e-002
1.780050e+003;3.392433e-002
1.781978e+003;3.353296e-002
1.783907e+003;3.307483e-002
1.785835e+003;3.284769e-002
1.787764e+003;3.278323e-002
1.789693e+003;3.245447e-002
1.791621e+003;3.202498e-002
1.793550e+003;3.183169e-002
1.795478e+003;3.159512e-002
1.797407e+003;3.121108e-002
1.799335e+003;3.091496e-002
1.801264e+003;3.062033e-002
1.803192e+003;3.050238e-002
1.805121e+003;3.039668e-002
1.807049e+003;3.004942e-002
1.808978e+003;2.969860e-002
1.810907e+003;2.961931e-002
1.812835e+003;2.945581e-002
1.814764e+003;2.910569e-002
1.816692e+003;2.888859e-002
1.818621e+003;2.878402e-002
1.820549e+003;2.857618e-002
1.822478e+003;2.838255e-002
1.824406e+003;2.819999e-002
1.826335e+003;2.791451e-002
1.828264e+003;2.763825e-002
1.830192e+003;2.740646e-002
1.832121e+003;2.714608e-002
1.834049e+003;2.672293e-002
1.835978e+003;2.639486e-002
1.837906e+003;2.632940e-002
1.839835e+003;2.618558e-002
1.841763e+003;2.606833e-002
1.843692e+003;2.601060e-002
1.845620e+003;2.592379e-002
1.847549e+003;2.570968e-002
1.849478e+003;2.540728e-002
1.851406e+003;2.513963e-002
1.853335e+003;2.509382e-002
1.855263e+003;2.495977e-002
1.857192e+003;2.471604e-002
1.859120e+003;2.471001e-002
1.861049e+003;2.468121e-002
1.862977e+003;2.468679e-002
1.864906e+003;2.481808e-002
1.866834e+003;2.465719e-002
1.868763e+003;2.439151e-002
1.870692e+003;2.445972e-002
1.872620e+003;2.456837e-002
1.874549e+003;2.440024e-002
1.876477e+003;2.421557e-002
1.878406e+003;2.429167e-002
1.880334e+003;2.451420e-002
1.882263e+003;2.453601e-002
1.884191e+003;2.436908e-002
1.886120e+003;2.408786e-002
1.888048e+003;2.398822e-002
1.889977e+003;2.405042e-002
1.891906e+003;2.392685e-002
1.893834e+003;2.378084e-002
1.895763e+003;2.371158e-002
1.897691e+003;2.370966e-002
1.899620e+003;2.355631e-002
1.901548e+003;2.330536e-002
1.903477e+003;2.313430e-002
1.905405e+003;2.320871e-002
1.907334e+003;2.322559e-002
1.909262e+003;2.307122e-002
1.911191e+003;2.308541e-002
1.913120e+003;2.307346e-002
1.915048e+003;2.306207e-002
1.916977e+003;2.321510e-002
1.918905e+003;2.334826e-002
1.920834e+003;2.329991e-002
1.922762e+003;2.302737e-002
1.924691e+003;2.294985e-002
1.926619e+003;2.313542e-002
1.928548e+003;2.320053e-002
1.930477e+003;2.300753e-002
1.932405e+003;2.279220e-002
1.934334e+003;2.268441e-002
1.936262e+003;2.281636e-002
1.938191e+003;2.303834e-002
1.940119e+003;2.317071e-002
1.942048e+003;2.328302e-002
1.943976e+003;2.316729e-002
1.945905e+003;2.285195e-002
1.947833e+003;2.274230e-002
1.949762e+003;2.265156e-002
1.951691e+003;2.287496e-002
1.953619e+003;2.311074e-002
1.955548e+003;2.288453e-002
1.957476e+003;2.294192e-002
1.959405e+003;2.315799e-002
1.961333e+003;2.299369e-002
1.963262e+003;2.306944e-002
1.965190e+003;2.329201e-002
1.967119e+003;2.321598e-002
1.969047e+003;2.310756e-002
1.970976e+003;2.310015e-002
1.972905e+003;2.301123e-002
1.974833e+003;2.292998e-002
1.976762e+003;2.290374e-002
1.978690e+003;2.277875e-002
1.980619e+003;2.253589e-002
1.982547e+003;2.255205e-002
1.984476e+003;2.276611e-002
1.986404e+003;2.274991e-002
1.988333e+003;2.268623e-002
1.990261e+003;2.267178e-002
1.992190e+003;2.274094e-002
1.994119e+003;2.291667e-002
1.996047e+003;2.294653e-002
1.997976e+003;2.262748e-002
1.999904e+003;2.237916e-002
2.001833e+003;2.246984e-002
2.003761e+003;2.260706e-002
2.005690e+003;2.255526e-002
2.007618e+003;2.241677e-002
2.009547e+003;2.238959e-002
2.011476e+003;2.243208e-002
2.013404e+003;2.240246e-002
2.015333e+003;2.234106e-002
2.017261e+003;2.242224e-002
2.019190e+003;2.267635e-002
2.021118e+003;2.271283e-002
2.023047e+003;2.250581e-002
2.024975e+003;2.237302e-002
2.026904e+003;2.233060e-002
2.028833e+003;2.237358e-002
2.030761e+003;2.255851e-002
2.032690e+003;2.260455e-002
2.034618e+003;2.269230e-002
2.036547e+003;2.258392e-002
2.038475e+003;2.241349e-002
2.040404e+003;2.231811e-002
2.042332e+003;2.229729e-002
2.044261e+003;2.228456e-002
2.046189e+003;2.235132e-002
2.048118e+003;2.245351e-002
2.050047e+003;2.260448e-002
2.051975e+003;2.256413e-002
2.053904e+003;2.256476e-002
2.055832e+003;2.254102e-002
2.057761e+003;2.244576e-002
2.059689e+003;2.242647e-002
2.061618e+003;2.245392e-002
2.063546e+003;2.251597e-002
2.065475e+003;2.250438e-002
2.067404e+003;2.263251e-002
2.069332e+003;2.260692e-002
2.071260e+003;2.262018e-002
2.073189e+003;2.280644e-002
2.075118e+003;2.298360e-002
2.077046e+003;2.287479e-002
2.078975e+003;2.265303e-002
2.080903e+003;2.270536e-002
2.082832e+003;2.279600e-002
2.084760e+003;2.281374e-002
2.086689e+003;2.267541e-002
2.088617e+003;2.254930e-002
2.090546e+003;2.252291e-002
2.092475e+003;2.250794e-002
2.094403e+003;2.250445e-002
2.096332e+003;2.255607e-002
2.098260e+003;2.257177e-002
2.100189e+003;2.253059e-002
2.102117e+003;2.253384e-002
2.104046e+003;2.264371e-002
2.105974e+003;2.257840e-002
2.107903e+003;2.238941e-002
2.109832e+003;2.243878e-002
2.111760e+003;2.251035e-002
2.113688e+003;2.245696e-002
2.115617e+003;2.229788e-002
2.117546e+003;2.232781e-002
2.119474e+003;2.229251e-002
2.121403e+003;2.211891e-002
2.123331e+003;2.213084e-002
2.125260e+003;2.229206e-002
2.127188e+003;2.231110e-002
2.129117e+003;2.203410e-002
2.131045e+003;2.181618e-002
2.132974e+003;2.178200e-002
2.134903e+003;2.186865e-002
2.136831e+003;2.193107e-002
2.138760e+003;2.192169e-002
2.140688e+003;2.172971e-002
2.142617e+003;2.159489e-002
2.144545e+003;2.160701e-002
2.146474e+003;2.153994e-002
2.148402e+003;2.160370e-002
2.150331e+003;2.173995e-002
2.152260e+003;2.170773e-002
2.154188e+003;2.158274e-002
2.156117e+003;2.150509e-002
2.158045e+003;2.148215e-002
2.159974e+003;2.138503e-002
2.161902e+003;2.132513e-002
2.163831e+003;2.136891e-002
2.165759e+003;2.170920e-002
2.167688e+003;2.178197e-002
2.169616e+003;2.152407e-002
2.171545e+003;2.153591e-002
2.173474e+003;2.158055e-002
2.175402e+003;2.137904e-002
2.177331e+003;2.140347e-002
2.179259e+003;2.136174e-002
2.181188e+003;2.115178e-002
2.183116e+003;2.107891e-002
2.185045e+003;2.104990e-002
2.186973e+003;2.100295e-002
2.188902e+003;2.108666e-002
2.190831e+003;2.094130e-002
2.192759e+003;2.079417e-002
2.194688e+003;2.086822e-002
2.196616e+003;2.097885e-002
2.198545e+003;2.101714e-002
2.200473e+003;2.088497e-002
2.202402e+003;2.092819e-002
2.204330e+003;2.101839e-002
2.206259e+003;2.121799e-002
2.208188e+003;2.134142e-002
2.210116e+003;2.099102e-002
2.212044e+003;2.072956e-002
2.213973e+003;2.074464e-002
2.215902e+003;2.063038e-002
2.217830e+003;2.051014e-002
2.219759e+003;2.065644e-002
2.221687e+003;2.107446e-002
2.223616e+003;2.085271e-002
2.225544e+003;2.060592e-002
2.227473e+003;2.068925e-002
2.229401e+003;2.060061e-002
2.231330e+003;2.037657e-002
2.233259e+003;2.020183e-002
2.235187e+003;2.034306e-002
2.237116e+003;2.050410e-002
2.239044e+003;2.047642e-002
2.240973e+003;2.064765e-002
2.242901e+003;2.072268e-002
2.244830e+003;2.044193e-002
2.246758e+003;2.045777e-002
2.248687e+003;2.075177e-002
2.250615e+003;2.065505e-002
2.252544e+003;2.030900e-002
2.254473e+003;2.002008e-002
2.256401e+003;2.013515e-002
2.258330e+003;2.039254e-002
2.260258e+003;2.034639e-002
2.262187e+003;2.039581e-002
2.264115e+003;2.041359e-002
2.266044e+003;2.014265e-002
2.267972e+003;2.009122e-002
2.269901e+003;2.033278e-002
2.271830e+003;2.038376e-002
2.273758e+003;2.047888e-002
2.275687e+003;2.062281e-002
2.277615e+003;2.038028e-002
2.279544e+003;2.029244e-002
2.281472e+003;2.040956e-002
2.283401e+003;2.042060e-002
2.285329e+003;2.049128e-002
2.287258e+003;2.046666e-002
2.289187e+003;2.050657e-002
2.291115e+003;2.072059e-002
2.293043e+003;2.081225e-002
2.294972e+003;2.081107e-002
2.296901e+003;2.078437e-002
2.298829e+003;2.065759e-002
2.300758e+003;2.066583e-002
2.302686e+003;2.085661e-002
2.304615e+003;2.103415e-002
2.306543e+003;2.120668e-002
2.308472e+003;2.104020e-002
2.310400e+003;2.077123e-002
2.312329e+003;2.078510e-002
2.314258e+003;2.111717e-002
2.316186e+003;2.133522e-002
2.318115e+003;2.122533e-002
2.320043e+003;2.117861e-002
2.321972e+003;2.113206e-002
2.323900e+003;2.101985e-002
2.325829e+003;2.091474e-002
2.327757e+003;2.091404e-002
2.329686e+003;2.111901e-002
2.331615e+003;2.120602e-002
2.333543e+003;2.116991e-002
2.335472e+003;2.124481e-002
2.337400e+003;2.138938e-002
2.339329e+003;2.131591e-002
2.341257e+003;2.118034e-002
2.343186e+003;2.109192e-002
2.345114e+003;2.128156e-002
2.347043e+003;2.145778e-002
2.348971e+003;2.130160e-002
2.350900e+003;2.112667e-002
2.352829e+003;2.114389e-002
2.354757e+003;2.124248e-002
2.356686e+003;2.135548e-002
2.358614e+003;2.161777e-002
2.360543e+003;2.162261e-002
2.362471e+003;2.155237e-002
2.364400e+003;2.149778e-002
2.366328e+003;2.146373e-002
2.368257e+003;2.155084e-002
2.370186e+003;2.173173e-002
2.372114e+003;2.183479e-002
2.374042e+003;2.177765e-002
2.375971e+003;2.178646e-002
2.377900e+003;2.190709e-002
2.379828e+003;2.206279e-002
2.381757e+003;2.202566e-002
2.383685e+003;2.189918e-002
2.385614e+003;2.196526e-002
2.387542e+003;2.223151e-002
2.389471e+003;2.248728e-002
2.391399e+003;2.265712e-002
2.393328e+003;2.261453e-002
2.395257e+003;2.246554e-002
2.397185e+003;2.245640e-002
2.399114e+003;2.283525e-002
2.401042e+003;2.318351e-002
2.402971e+003;2.329431e-002
2.404899e+003;2.317746e-002
2.406828e+003;2.311599e-002
2.408756e+003;2.329449e-002
2.410685e+003;2.362757e-002
2.412614e+003;2.396967e-002
2.414542e+003;2.413696e-002
2.416471e+003;2.416800e-002
2.418399e+003;2.424125e-002
2.420328e+003;2.444633e-002
2.422256e+003;2.449204e-002
2.424185e+003;2.460694e-002
2.426113e+003;2.480689e-002
2.428042e+003;2.490352e-002
2.429970e+003;2.506858e-002
2.431899e+003;2.521891e-002
2.433828e+003;2.519756e-002
2.435756e+003;2.525954e-002
2.437685e+003;2.561182e-002
2.439613e+003;2.576459e-002
2.441542e+003;2.559857e-002
2.443470e+003;2.548527e-002
2.445399e+003;2.553264e-002
2.447327e+003;2.587261e-002
2.449256e+003;2.599364e-002
2.451185e+003;2.604276e-002
2.453113e+003;2.616591e-002
2.455042e+003;2.629469e-002
2.456970e+003;2.617432e-002
2.458899e+003;2.597620e-002
2.460827e+003;2.597398e-002
2.462756e+003;2.635591e-002
2.464684e+003;2.671155e-002
2.466613e+003;2.655935e-002
2.468542e+003;2.645158e-002
2.470470e+003;2.668368e-002
2.472398e+003;2.679217e-002
2.474327e+003;2.680166e-002
2.476256e+003;2.686482e-002
2.478184e+003;2.681656e-002
2.480113e+003;2.679351e-002
2.482041e+003;2.696141e-002
2.483970e+003;2.689999e-002
2.485898e+003;2.657672e-002
2.487827e+003;2.669643e-002
2.489755e+003;2.684691e-002
2.491684e+003;2.666141e-002
2.493613e+003;2.679246e-002
2.495541e+003;2.719966e-002
2.497470e+003;2.721578e-002
2.499398e+003;2.730462e-002
2.501327e+003;2.742937e-002
2.503255e+003;2.736016e-002
2.505184e+003;2.743399e-002
2.507112e+003;2.751295e-002
2.509041e+003;2.738215e-002
2.510969e+003;2.735063e-002
2.512898e+003;2.759203e-002
2.514827e+003;2.772311e-002
2.516755e+003;2.760393e-002
2.518684e+003;2.763716e-002
2.520612e+003;2.779390e-002
2.522541e+003;2.765877e-002
2.524469e+003;2.746290e-002
2.526398e+003;2.756495e-002
2.528326e+003;2.805516e-002
2.530255e+003;2.828143e-002
2.532184e+003;2.808849e-002
2.534112e+003;2.791016e-002
2.536041e+003;2.799861e-002
2.537969e+003;2.829384e-002
2.539898e+003;2.850803e-002
2.541826e+003;2.846982e-002
2.543755e+003;2.846500e-002
2.545683e+003;2.866848e-002
2.547612e+003;2.879185e-002
2.549541e+003;2.887839e-002
2.551469e+003;2.896625e-002
2.553397e+003;2.915310e-002
2.555326e+003;2.930230e-002
2.557255e+003;2.934420e-002
2.559183e+003;2.932477e-002
2.561112e+003;2.946755e-002
2.563040e+003;2.976963e-002
2.564969e+003;3.004043e-002
2.566897e+003;3.035645e-002
2.568826e+003;3.054286e-002
2.570754e+003;3.065070e-002
2.572683e+003;3.085224e-002
2.574612e+003;3.093966e-002
2.576540e+003;3.119602e-002
2.578469e+003;3.159626e-002
2.580397e+003;3.193599e-002
2.582326e+003;3.217992e-002
2.584254e+003;3.233977e-002
2.586183e+003;3.243816e-002
2.588111e+003;3.251043e-002
2.590040e+003;3.259942e-002
2.591969e+003;3.277365e-002
2.593897e+003;3.314681e-002
2.595826e+003;3.370265e-002
2.597754e+003;3.382961e-002
2.599683e+003;3.360366e-002
2.601611e+003;3.368909e-002
2.603540e+003;3.395517e-002
2.605468e+003;3.405626e-002
2.607397e+003;3.426552e-002
2.609325e+003;3.446155e-002
2.611254e+003;3.452992e-002
2.613183e+003;3.460595e-002
2.615111e+003;3.479383e-002
2.617040e+003;3.482988e-002
2.618968e+003;3.485856e-002
2.620897e+003;3.493978e-002
2.622825e+003;3.509534e-002
2.624754e+003;3.511797e-002
2.626682e+003;3.509843e-002
2.628611e+003;3.501710e-002
2.630540e+003;3.496277e-002
2.632468e+003;3.505464e-002
2.634396e+003;3.506961e-002
2.636325e+003;3.495989e-002
2.638254e+003;3.497365e-002
2.640182e+003;3.522087e-002
2.642111e+003;3.517631e-002
2.644039e+003;3.496154e-002
2.645968e+003;3.500460e-002
2.647896e+003;3.531628e-002
2.649825e+003;3.561419e-002
2.651753e+003;3.554180e-002
2.653682e+003;3.533303e-002
2.655611e+003;3.535186e-002
2.657539e+003;3.545345e-002
2.659468e+003;3.561268e-002
2.661396e+003;3.571372e-002
2.663325e+003;3.557524e-002
2.665253e+003;3.552019e-002
2.667182e+003;3.588110e-002
2.669110e+003;3.640908e-002
2.671039e+003;3.670276e-002
2.672968e+003;3.677899e-002
2.674896e+003;3.677210e-002
2.676825e+003;3.696356e-002
2.678753e+003;3.720611e-002
2.680682e+003;3.739201e-002
2.682610e+003;3.760177e-002
2.684539e+003;3.765879e-002
2.686467e+003;3.784146e-002
2.688396e+003;3.808543e-002
2.690324e+003;3.836552e-002
2.692253e+003;3.859795e-002
2.694182e+003;3.857268e-002
2.696110e+003;3.868926e-002
2.698039e+003;3.916532e-002
2.699967e+003;3.946247e-002
2.701896e+003;3.961338e-002
2.703824e+003;3.974766e-002
2.705753e+003;3.984357e-002
2.707681e+003;4.008388e-002
2.709610e+003;4.034708e-002
2.711539e+003;4.069071e-002
2.713467e+003;4.088299e-002
2.715396e+003;4.090752e-002
2.717324e+003;4.110413e-002
2.719253e+003;4.139139e-002
2.721181e+003;4.158143e-002
2.723110e+003;4.180292e-002
2.725038e+003;4.212314e-002
2.726967e+003;4.237980e-002
2.728896e+003;4.270753e-002
2.730824e+003;4.307260e-002
2.732752e+003;4.339983e-002
2.734681e+003;4.339895e-002
2.736610e+003;4.346596e-002
2.738538e+003;4.391037e-002
2.740467e+003;4.407680e-002
2.742395e+003;4.406653e-002
2.744324e+003;4.426846e-002
2.746252e+003;4.463882e-002
2.748181e+003;4.493437e-002
2.750109e+003;4.530828e-002
2.752038e+003;4.553952e-002
2.753967e+003;4.554961e-002
2.755895e+003;4.570853e-002
2.757824e+003;4.610123e-002
2.759752e+003;4.641883e-002
2.761681e+003;4.660246e-002
2.763609e+003;4.675885e-002
2.765538e+003;4.671719e-002
2.767466e+003;4.678752e-002
2.769395e+003;4.700460e-002
2.771323e+003;4.730392e-002
2.773252e+003;4.751083e-002
2.775181e+003;4.750089e-002
2.777109e+003;4.763982e-002
2.779038e+003;4.798657e-002
2.780966e+003;4.833974e-002
2.782895e+003;4.854556e-002
2.784823e+003;4.871970e-002
2.786752e+003;4.899706e-002
2.788680e+003;4.927722e-002
2.790609e+003;4.945775e-002
2.792538e+003;4.954899e-002
2.794466e+003;4.971715e-002
2.796395e+003;5.002072e-002
2.798323e+003;5.025434e-002
2.800252e+003;5.060809e-002
2.802180e+003;5.093304e-002
2.804109e+003;5.114106e-002
2.806037e+003;5.125245e-002
2.807966e+003;5.128664e-002
2.809895e+003;5.157403e-002
2.811823e+003;5.191752e-002
2.813751e+003;5.207901e-002
2.815680e+003;5.217495e-002
2.817609e+003;5.226680e-002
2.819537e+003;5.273083e-002
2.821466e+003;5.306133e-002
2.823394e+003;5.313274e-002
2.825323e+003;5.344650e-002
2.827251e+003;5.390212e-002
2.829180e+003;5.409737e-002
2.831108e+003;5.427736e-002
2.833037e+003;5.468417e-002
2.834966e+003;5.507875e-002
2.836894e+003;5.546398e-002
2.838823e+003;5.618206e-002
2.840751e+003;5.694602e-002
2.842680e+003;5.738286e-002
2.844608e+003;5.809049e-002
2.846537e+003;5.926985e-002
2.848465e+003;6.042286e-002
2.850394e+003;6.102902e-002
2.852323e+003;6.132275e-002
2.854251e+003;6.186644e-002
2.856180e+003;6.220366e-002
2.858108e+003;6.257273e-002
2.860037e+003;6.337903e-002
2.861965e+003;6.416000e-002
2.863894e+003;6.453784e-002
2.865822e+003;6.491047e-002
2.867751e+003;6.546368e-002
2.869679e+003;6.605852e-002
2.871608e+003;6.650203e-002
2.873536e+003;6.655221e-002
2.875465e+003;6.688320e-002
2.877394e+003;6.726589e-002
2.879322e+003;6.703938e-002
2.881251e+003;6.690968e-002
2.883179e+003;6.715067e-002
2.885108e+003;6.703052e-002
2.887036e+003;6.676772e-002
2.888965e+003;6.697508e-002
2.890893e+003;6.717604e-002
2.892822e+003;6.754548e-002
2.894750e+003;6.774946e-002
2.896679e+003;6.776928e-002
2.898608e+003;6.818493e-002
2.900536e+003;6.851996e-002
2.902465e+003;6.881881e-002
2.904393e+003;6.942794e-002
2.906322e+003;6.996230e-002
2.908250e+003;7.032851e-002
2.910179e+003;7.090053e-002
2.912107e+003;7.148318e-002
2.914036e+003;7.223833e-002
2.915965e+003;7.306064e-002
2.917893e+003;7.376595e-002
2.919822e+003;7.433453e-002
2.921750e+003;7.477757e-002
2.923679e+003;7.529791e-002
2.925607e+003;7.597268e-002
2.927536e+003;7.673114e-002
2.929464e+003;7.745020e-002
2.931393e+003;7.767199e-002
2.933322e+003;7.722124e-002
2.935250e+003;7.709990e-002
2.937178e+003;7.705969e-002
2.939107e+003;7.656772e-002
2.941036e+003;7.606351e-002
2.942964e+003;7.558367e-002
2.944893e+003;7.510423e-002
2.946821e+003;7.450388e-002
2.948750e+003;7.381288e-002
2.950678e+003;7.342979e-002
2.952607e+003;7.317031e-002
2.954535e+003;7.257626e-002
2.956464e+003;7.225981e-002
2.958393e+003;7.235530e-002
2.960321e+003;7.219654e-002
2.962250e+003;7.205832e-002
2.964178e+003;7.223453e-002
2.966107e+003;7.223230e-002
2.968035e+003;7.224936e-002
2.969964e+003;7.239816e-002
2.971892e+003;7.240923e-002
2.973821e+003;7.188340e-002
2.975750e+003;7.135370e-002
2.977678e+003;7.109593e-002
2.979607e+003;7.092343e-002
2.981535e+003;7.074521e-002
2.983464e+003;7.053301e-002
2.985392e+003;7.018937e-002
2.987321e+003;7.000123e-002
2.989249e+003;6.995226e-002
2.991178e+003;6.957193e-002
2.993106e+003;6.895727e-002
2.995035e+003;6.853852e-002
2.996964e+003;6.815198e-002
2.998892e+003;6.757409e-002
3.000821e+003;6.714583e-002
3.002749e+003;6.687686e-002
3.004678e+003;6.658743e-002
3.006606e+003;6.650173e-002
3.008535e+003;6.646018e-002
3.010463e+003;6.632645e-002
3.012392e+003;6.648682e-002
3.014321e+003;6.671236e-002
3.016249e+003;6.639107e-002
3.018177e+003;6.634983e-002
3.020106e+003;6.662231e-002
3.022035e+003;6.661543e-002
3.023963e+003;6.670788e-002
3.025892e+003;6.713369e-002
3.027820e+003;6.775972e-002
3.029749e+003;6.835861e-002
3.031677e+003;6.862822e-002
3.033606e+003;6.874264e-002
3.035534e+003;6.914116e-002
3.037463e+003;6.980842e-002
3.039392e+003;7.009245e-002
3.041320e+003;7.039081e-002
3.043249e+003;7.093166e-002
3.045177e+003;7.140436e-002
3.047106e+003;7.164133e-002
3.049034e+003;7.191546e-002
3.050963e+003;7.232958e-002
3.052891e+003;7.262765e-002
3.054820e+003;7.302261e-002
3.056749e+003;7.359070e-002
3.058677e+003;7.404563e-002
3.060606e+003;7.424305e-002
3.062534e+003;7.430143e-002
3.064463e+003;7.438093e-002
3.066391e+003;7.468930e-002
3.068320e+003;7.477435e-002
3.070248e+003;7.461666e-002
3.072177e+003;7.459727e-002
3.074105e+003;7.474074e-002
3.076034e+003;7.500049e-002
3.077963e+003;7.485599e-002
3.079891e+003;7.460329e-002
3.081820e+003;7.435396e-002
3.083748e+003;7.438864e-002
3.085677e+003;7.454892e-002
3.087605e+003;7.432581e-002
3.089534e+003;7.428743e-002
3.091462e+003;7.413998e-002
3.093391e+003;7.394058e-002
3.095320e+003;7.357456e-002
3.097248e+003;7.328342e-002
3.099177e+003;7.329605e-002
3.101105e+003;7.316274e-002
3.103034e+003;7.264715e-002
3.104962e+003;7.226881e-002
3.106891e+003;7.240591e-002
3.108819e+003;7.231698e-002
3.110748e+003;7.189708e-002
3.112677e+003;7.140674e-002
3.114605e+003;7.132626e-002
3.116533e+003;7.115518e-002
3.118462e+003;7.099076e-002
3.120391e+003;7.115440e-002
3.122319e+003;7.136893e-002
3.124248e+003;7.154560e-002
3.126176e+003;7.162551e-002
3.128105e+003;7.165962e-002
3.130033e+003;7.171152e-002
3.131962e+003;7.151834e-002
3.133890e+003;7.129053e-002
3.135819e+003;7.165102e-002
3.137748e+003;7.224231e-002
3.139676e+003;7.261139e-002
3.141605e+003;7.292431e-002
3.143533e+003;7.325894e-002
3.145462e+003;7.333967e-002
3.147390e+003;7.343348e-002
3.149319e+003;7.381728e-002
3.151247e+003;7.425673e-002
3.153176e+003;7.471685e-002
3.155104e+003;7.515638e-002
3.157033e+003;7.557274e-002
3.158962e+003;7.600513e-002
3.160890e+003;7.657278e-002
3.162819e+003;7.754478e-002
3.164747e+003;7.830217e-002
3.166676e+003;7.852659e-002
3.168604e+003;7.880908e-002
3.170533e+003;7.940546e-002
3.172461e+003;8.018097e-002
3.174390e+003;8.080943e-002
3.176319e+003;8.138324e-002
3.178247e+003;8.179617e-002
3.180176e+003;8.239680e-002
3.182104e+003;8.286491e-002
3.184033e+003;8.336648e-002
3.185961e+003;8.419174e-002
3.187890e+003;8.529539e-002
3.189818e+003;8.625824e-002
3.191747e+003;8.652724e-002
3.193676e+003;8.712898e-002
3.195604e+003;8.796597e-002
3.197532e+003;8.842811e-002
3.199461e+003;8.908460e-002
3.201390e+003;9.034639e-002
3.203318e+003;9.124324e-002
3.205247e+003;9.155376e-002
3.207175e+003;9.190561e-002
3.209104e+003;9.253585e-002
3.211032e+003;9.320491e-002
3.212961e+003;9.413613e-002
3.214889e+003;9.498320e-002
3.216818e+003;9.574175e-002
3.218747e+003;9.614141e-002
3.220675e+003;9.661634e-002
3.222604e+003;9.762866e-002
3.224532e+003;9.853508e-002
3.226461e+003;9.939883e-002
3.228389e+003;1.003084e-001
3.230318e+003;1.009907e-001
3.232246e+003;1.016536e-001
3.234175e+003;1.023807e-001
3.236104e+003;1.035357e-001
3.238032e+003;1.048685e-001
3.239961e+003;1.059386e-001
3.241889e+003;1.070044e-001
3.243818e+003;1.078867e-001
3.245746e+003;1.083805e-001
3.247675e+003;1.093836e-001
3.249603e+003;1.108227e-001
3.251532e+003;1.118525e-001
3.253460e+003;1.133179e-001
3.255389e+003;1.146582e-001
3.257318e+003;1.155337e-001
3.259246e+003;1.166595e-001
3.261175e+003;1.183348e-001
3.263103e+003;1.199296e-001
3.265032e+003;1.209732e-001
3.266960e+003;1.220435e-001
3.268889e+003;1.232686e-001
3.270817e+003;1.245794e-001
3.272746e+003;1.257153e-001
3.274675e+003;1.265877e-001
3.276603e+003;1.273672e-001
3.278531e+003;1.277838e-001
3.280460e+003;1.277686e-001
3.282389e+003;1.280071e-001
3.284317e+003;1.286215e-001
3.286246e+003;1.286704e-001
3.288174e+003;1.282857e-001
3.290103e+003;1.278061e-001
3.292031e+003;1.273807e-001
3.293960e+003;1.268496e-001
3.295888e+003;1.261202e-001
3.297817e+003;1.251030e-001
3.299746e+003;1.239024e-001
3.301674e+003;1.226850e-001
3.303603e+003;1.210082e-001
3.305531e+003;1.197281e-001
3.307460e+003;1.189564e-001
3.309388e+003;1.175770e-001
3.311317e+003;1.160499e-001
3.313245e+003;1.147883e-001
3.315174e+003;1.132417e-001
3.317103e+003;1.115638e-001
3.319031e+003;1.099446e-001
3.320960e+003;1.083663e-001
3.322888e+003;1.070436e-001
3.324817e+003;1.061241e-001
3.326745e+003;1.049706e-001
3.328674e+003;1.038009e-001
3.330602e+003;1.024690e-001
3.332531e+003;1.011949e-001
3.334459e+003;1.000552e-001
3.336388e+003;9.841009e-002
3.338317e+003;9.672384e-002
3.340245e+003;9.561562e-002
3.342174e+003;9.418317e-002
3.344102e+003;9.290585e-002
3.346031e+003;9.189496e-002
3.347959e+003;9.101176e-002
3.349888e+003;9.005337e-002
3.351816e+003;8.937363e-002
3.353745e+003;8.856769e-002
3.355674e+003;8.751098e-002
3.357602e+003;8.688188e-002
3.359531e+003;8.611544e-002
3.361459e+003;8.519903e-002
3.363388e+003;8.447673e-002
3.365316e+003;8.376025e-002
3.367245e+003;8.330867e-002
3.369173e+003;8.308367e-002
3.371102e+003;8.243457e-002
3.373031e+003;8.141033e-002
3.374959e+003;8.061802e-002
3.376887e+003;8.040249e-002
3.378816e+003;8.009857e-002
3.380745e+003;7.946331e-002
3.382673e+003;7.896713e-002
3.384602e+003;7.837242e-002
3.386530e+003;7.769664e-002
3.388459e+003;7.704462e-002
3.390387e+003;7.614078e-002
3.392316e+003;7.548020e-002
3.394244e+003;7.485083e-002
3.396173e+003;7.432738e-002
3.398102e+003;7.395263e-002
3.400030e+003;7.371797e-002
3.401959e+003;7.308824e-002
3.403887e+003;7.225593e-002
3.405816e+003;7.161761e-002
3.407744e+003;7.097434e-002
3.409673e+003;7.038231e-002
3.411601e+003;6.991337e-002
3.413530e+003;6.953312e-002
3.415458e+003;6.911909e-002
3.417387e+003;6.878169e-002
3.419316e+003;6.823382e-002
3.421244e+003;6.730705e-002
3.423173e+003;6.649037e-002
3.425101e+003;6.616535e-002
3.427030e+003;6.593555e-002
3.428958e+003;6.515290e-002
3.430887e+003;6.469687e-002
3.432815e+003;6.469063e-002
3.434744e+003;6.410331e-002
3.436673e+003;6.320512e-002
3.438601e+003;6.279367e-002
3.440530e+003;6.238035e-002
3.442458e+003;6.237978e-002
3.444387e+003;6.230363e-002
3.446315e+003;6.160159e-002
3.448244e+003;6.126307e-002
3.450172e+003;6.102086e-002
3.452101e+003;6.047104e-002
3.454030e+003;5.995990e-002
3.455958e+003;5.986683e-002
3.457886e+003;5.986181e-002
3.459815e+003;5.993259e-002
3.461744e+003;5.970549e-002
3.463672e+003;5.923840e-002
3.465601e+003;5.900798e-002
3.467529e+003;5.876915e-002
3.469458e+003;5.829916e-002
3.471386e+003;5.778081e-002
3.473315e+003;5.733779e-002
3.475243e+003;5.684634e-002
3.477172e+003;5.663130e-002
3.479101e+003;5.672856e-002
3.481029e+003;5.661062e-002
3.482958e+003;5.666573e-002
3.484886e+003;5.679585e-002
3.486815e+003;5.668480e-002
3.488743e+003;5.625417e-002
3.490672e+003;5.591274e-002
3.492600e+003;5.558285e-002
3.494529e+003;5.518796e-002
3.496458e+003;5.490753e-002
3.498386e+003;5.490110e-002
3.500315e+003;5.476058e-002
3.502243e+003;5.440868e-002
3.504172e+003;5.425476e-002
3.506100e+003;5.403804e-002
3.508029e+003;5.373619e-002
3.509957e+003;5.373728e-002
3.511886e+003;5.378843e-002
3.513814e+003;5.340476e-002
3.515743e+003;5.311686e-002
3.517672e+003;5.255518e-002
3.519600e+003;5.203519e-002
3.521529e+003;5.194586e-002
3.523457e+003;5.175059e-002
3.525386e+003;5.116115e-002
3.527314e+003;5.063185e-002
3.529243e+003;5.091858e-002
3.531171e+003;5.099791e-002
3.533100e+003;5.021372e-002
3.535029e+003;4.967717e-002
3.536957e+003;4.919535e-002
3.538885e+003;4.881887e-002
3.540814e+003;4.870832e-002
3.542743e+003;4.877657e-002
3.544671e+003;4.876667e-002
3.546600e+003;4.846516e-002
3.548528e+003;4.793998e-002
3.550457e+003;4.752928e-002
3.552385e+003;4.704271e-002
3.554314e+003;4.670125e-002
3.556242e+003;4.668122e-002
3.558171e+003;4.625442e-002
3.560100e+003;4.574773e-002
3.562028e+003;4.549703e-002
3.563957e+003;4.503544e-002
3.565885e+003;4.443330e-002
3.567814e+003;4.385194e-002
3.569742e+003;4.360811e-002
3.571671e+003;4.320500e-002
3.573599e+003;4.296939e-002
3.575528e+003;4.271652e-002
3.577457e+003;4.237545e-002
3.579385e+003;4.172716e-002
3.581314e+003;4.100915e-002
3.583242e+003;4.090716e-002
3.585171e+003;4.103144e-002
3.587099e+003;4.101662e-002
3.589028e+003;4.059159e-002
3.590956e+003;3.989739e-002
3.592885e+003;3.916456e-002
3.594813e+003;3.871204e-002
3.596742e+003;3.847470e-002
3.598671e+003;3.816918e-002
3.600599e+003;3.790050e-002
3.602528e+003;3.724087e-002
3.604456e+003;3.654400e-002
3.606385e+003;3.636570e-002
3.608313e+003;3.602054e-002
3.610242e+003;3.558135e-002
3.612170e+003;3.517940e-002
3.614099e+003;3.428191e-002
3.616028e+003;3.314913e-002
3.617956e+003;3.230157e-002
3.619885e+003;3.195621e-002
3.621813e+003;3.169455e-002
3.623742e+003;3.124704e-002
3.625670e+003;3.108720e-002
3.627599e+003;3.061670e-002
3.629527e+003;2.945801e-002
3.631456e+003;2.863630e-002
3.633385e+003;2.829865e-002
3.635313e+003;2.785212e-002
3.637241e+003;2.711367e-002
3.639170e+003;2.620726e-002
3.641099e+003;2.539034e-002
3.643027e+003;2.502737e-002
3.644956e+003;2.468216e-002
3.646884e+003;2.399047e-002
3.648813e+003;2.340039e-002
3.650741e+003;2.280969e-002
3.652670e+003;2.180921e-002
3.654598e+003;2.115453e-002
3.656527e+003;2.074645e-002
3.658456e+003;2.013602e-002
3.660384e+003;1.954250e-002
3.662313e+003;1.865478e-002
3.664241e+003;1.800559e-002
3.666170e+003;1.741142e-002
3.668098e+003;1.673340e-002
3.670027e+003;1.621731e-002
3.671955e+003;1.556204e-002
3.673884e+003;1.536187e-002
3.675813e+003;1.505951e-002
3.677741e+003;1.440657e-002
3.679669e+003;1.377785e-002
3.681598e+003;1.321740e-002
3.683527e+003;1.281043e-002
3.685455e+003;1.248438e-002
3.687384e+003;1.218699e-002
3.689312e+003;1.184788e-002
3.691241e+003;1.159894e-002
3.693169e+003;1.108198e-002
3.695098e+003;1.031115e-002
3.697026e+003;1.015609e-002
3.698955e+003;1.061208e-002
3.700884e+003;1.021965e-002
3.702812e+003;9.846457e-003
3.704741e+003;9.809108e-003
3.706669e+003;9.683154e-003
3.708598e+003;9.513849e-003
3.710526e+003;9.612822e-003
3.712455e+003;9.455804e-003
3.714383e+003;8.964521e-003
3.716312e+003;8.820551e-003
3.718240e+003;8.577295e-003
3.720169e+003;8.378558e-003
3.722098e+003;8.315496e-003
3.724026e+003;8.040423e-003
3.725955e+003;7.740460e-003
3.727883e+003;7.587353e-003
3.729812e+003;7.414448e-003
3.731740e+003;7.713241e-003
3.733669e+003;8.203312e-003
3.735597e+003;8.788699e-003
3.737526e+003;8.538736e-003
3.739455e+003;7.861567e-003
3.741383e+003;7.505022e-003
3.743312e+003;7.404606e-003
3.745240e+003;7.856574e-003
3.747169e+003;7.986049e-003
3.749097e+003;7.645824e-003
3.751026e+003;7.736109e-003
3.752954e+003;7.793588e-003
3.754883e+003;7.869665e-003
3.756812e+003;7.684269e-003
3.758740e+003;7.285985e-003
3.760668e+003;6.965600e-003
3.762597e+003;6.990820e-003
3.764526e+003;7.180029e-003
3.766454e+003;7.275001e-003
3.768383e+003;6.998194e-003
3.770311e+003;6.654805e-003
3.772240e+003;6.834746e-003
3.774168e+003;6.983749e-003
3.776097e+003;7.215872e-003
3.778025e+003;7.033315e-003
3.779954e+003;6.673479e-003
3.781883e+003;6.778336e-003
3.783811e+003;6.972570e-003
3.785740e+003;7.126707e-003
3.787668e+003;7.355806e-003
3.789597e+003;7.379835e-003
3.791525e+003;7.230326e-003
3.793454e+003;7.081204e-003
3.795382e+003;7.110001e-003
3.797311e+003;7.025974e-003
3.799240e+003;7.129637e-003
3.801168e+003;7.163119e-003
3.803097e+003;7.353346e-003
3.805025e+003;7.699649e-003
3.806954e+003;7.441581e-003
3.808882e+003;6.943109e-003
3.810811e+003;6.708137e-003
3.812739e+003;7.155573e-003
3.814668e+003;7.334104e-003
3.816596e+003;7.028601e-003
3.818525e+003;7.100772e-003
3.820454e+003;7.121587e-003
3.822382e+003;7.099256e-003
3.824311e+003;7.225912e-003
3.826239e+003;7.503201e-003
3.828168e+003;7.686765e-003
3.830096e+003;7.442188e-003
3.832025e+003;6.926714e-003
3.833953e+003;7.196300e-003
3.835882e+003;7.561155e-003
3.837811e+003;7.201521e-003
3.839739e+003;6.899411e-003
3.841667e+003;6.858813e-003
3.843596e+003;7.177132e-003
3.845525e+003;7.373735e-003
3.847453e+003;7.442862e-003
3.849382e+003;7.744440e-003
3.851310e+003;8.259232e-003
3.853239e+003;8.367479e-003
3.855167e+003;8.268248e-003
3.857096e+003;8.048287e-003
3.859024e+003;8.009337e-003
3.860953e+003;8.052067e-003
3.862882e+003;8.111479e-003
3.864810e+003;7.990943e-003
3.866739e+003;7.931480e-003
3.868667e+003;7.821959e-003
3.870596e+003;8.040928e-003
3.872524e+003;8.578106e-003
3.874453e+003;8.486700e-003
3.876381e+003;8.431055e-003
3.878310e+003;8.514136e-003
3.880239e+003;8.562392e-003
3.882167e+003;9.127216e-003
3.884096e+003;9.394515e-003
3.886024e+003;8.877599e-003
3.887953e+003;8.536573e-003
3.889881e+003;8.870023e-003
3.891810e+003;9.287163e-003
3.893738e+003;9.487433e-003
3.895667e+003;9.997040e-003
3.897595e+003;1.011271e-002
3.899524e+003;9.809786e-003
3.901453e+003;9.896521e-003
3.903381e+003;1.033731e-002
3.905310e+003;1.025432e-002
3.907238e+003;1.008086e-002
3.909167e+003;9.940320e-003
3.911095e+003;9.856728e-003
3.913024e+003;9.863270e-003
3.914952e+003;1.031190e-002
3.916881e+003;1.048423e-002
3.918810e+003;1.043793e-002
3.920738e+003;1.032849e-002
3.922667e+003;9.984936e-003
3.924595e+003;1.008252e-002
3.926524e+003;1.053620e-002
3.928452e+003;1.049974e-002
3.930381e+003;1.074697e-002
3.932309e+003;1.124789e-002
3.934238e+003;1.095389e-002
3.936167e+003;1.080654e-002
3.938095e+003;1.136542e-002
3.940023e+003;1.153715e-002
3.941952e+003;1.172345e-002
3.943881e+003;1.189229e-002
3.945809e+003;1.180376e-002
3.947738e+003;1.199157e-002
3.949666e+003;1.210395e-002
3.951595e+003;1.190009e-002
3.953523e+003;1.179892e-002
3.955452e+003;1.184455e-002
3.957380e+003;1.215475e-002
3.959309e+003;1.204327e-002
3.961238e+003;1.182248e-002
3.963166e+003;1.210232e-002
3.965095e+003;1.206031e-002
3.967023e+003;1.196568e-002
3.968952e+003;1.202614e-002
3.970880e+003;1.185452e-002
3.972809e+003;1.174755e-002
3.974737e+003;1.183920e-002
3.976666e+003;1.181268e-002
3.978594e+003;1.189920e-002
3.980523e+003;1.211097e-002
3.982452e+003;1.209410e-002
3.984380e+003;1.167304e-002
3.986309e+003;1.141746e-002
3.988237e+003;1.171729e-002
3.990166e+003;1.162263e-002
3.992094e+003;1.142930e-002
3.994023e+003;1.159490e-002
3.995951e+003;1.146073e-002
3.997880e+003;1.126754e-002
3.999809e+003;1.145651e-002
4.001737e+003;0.000000e+000
