3.992094e+002;0.000000e+000
4.011380e+002;0.000000e+000
4.030665e+002;0.000000e+000
4.049951e+002;0.000000e+000
4.069236e+002;0.000000e+000
4.088522e+002;0.000000e+000
4.107807e+002;0.000000e+000
4.127093e+002;0.000000e+000
4.146378e+002;0.000000e+000
4.165664e+002;0.000000e+000
4.184949e+002;0.000000e+000
4.204235e+002;0.000000e+000
4.223520e+002;0.000000e+000
4.242806e+002;0.000000e+000
4.262091e+002;0.000000e+000
4.281377e+002;0.000000e+000
4.300662e+002;0.000000e+000
4.319948e+002;0.000000e+000
4.339233e+002;0.000000e+000
4.358519e+002;0.000000e+000
4.377804e+002;0.000000e+000
4.397090e+002;0.000000e+000
4.416375e+002;0.000000e+000
4.435660e+002;0.000000e+000
4.454946e+002;0.000000e+000
4.474232e+002;0.000000e+000
4.493517e+002;0.000000e+000
4.512802e+002;0.000000e+000
4.532088e+002;0.000000e+000
4.551373e+002;0.000000e+000
4.570659e+002;0.000000e+000
4.589944e+002;0.000000e+000
4.609230e+002;0.000000e+000
4.628515e+002;0.000000e+000
4.647801e+002;0.000000e+000
4.667086e+002;0.000000e+000
4.686372e+002;0.000000e+000
4.705657e+002;0.000000e+000
4.724943e+002;0.000000e+000
4.744228e+002;0.000000e+000
4.763513e+002;0.000000e+000
4.782799e+002;0.000000e+000
4.802085e+002;0.000000e+000
4.821370e+002;0.000000e+000
4.840656e+002;0.000000e+000
4.859941e+002;0.000000e+000
4.879226e+002;0.000000e+000
4.898512e+002;0.000000e+000
4.917798e+002;0.000000e+000
4.937083e+002;0.000000e+000
4.956368e+002;0.000000e+000
4.975654e+002;0.000000e+000
4.994939e+002;0.000000e+000
5.014225e+002;0.000000e+000
5.033510e+002;0.000000e+000
5.052796e+002;0.000000e+000
5.072081e+002;0.000000e+000
5.091367e+002;0.000000e+000
5.110652e+002;0.000000e+000
5.129938e+002;0.000000e+000
5.149223e+002;0.000000e+000
5.168509e+002;0.000000e+000
5.187794e+002;0.000000e+000
5.207079e+002;0.000000e+000
5.226365e+002;0.000000e+000
5.245651e+002;0.000000e+000
5.264936e+002;0.000000e+000
5.284222e+002;0.000000e+000
5.303507e+002;0.000000e+000
5.322792e+002;0.000000e+000
5.342078e+002;0.000000e+000
5.361364e+002;0.000000e+000
5.380649e+002;0.000000e+000
5.399935e+002;0.000000e+000
5.419220e+002;0.000000e+000
5.438505e+002;0.000000e+000
5.457791e+002;0.000000e+000
5.477076e+002;0.000000e+000
5.496362e+002;0.000000e+000
5.515648e+002;0.000000e+000
5.534933e+002;0.000000e+000
5.554218e+002;0.000000e+000
5.573504e+002;0.000000e+000
5.592789e+002;0.000000e+000
5.612075e+002;0.000000e+000
5.631360e+002;0.000000e+000
5.650646e+002;0.000000e+000
5.669931e+002;0.000000e+000
5.689217e+002;0.000000e+000
5.708502e+002;0.000000e+000
5.727787e+002;0.000000e+000
5.747073e+002;0.000000e+000
5.766359e+002;0.000000e+000
5.785644e+002;0.000000e+000
5.804930e+002;0.000000e+000
5.824215e+002;0.000000e+000
5.843500e+002;0.000000e+000
5.862786e+002;0.000000e+000
5.882072e+002;0.000000e+000
5.901357e+002;0.000000e+000
5.920643e+002;0.000000e+000
5.939928e+002;0.000000e+000
5.959213e+002;0.000000e+000
5.978499e+002;0.000000e+000
5.997784e+002;2.030765e-001
6.017070e+002;2.089938e-001
6.036355e+002;2.109386e-001
6.055641e+002;2.120985e-001
6.074926e+002;2.133216e-001
6.094211e+002;2.125660e-001
6.113497e+002;2.049361e-001
6.132783e+002;2.052603e-001
6.152068e+002;2.123815e-001
6.171354e+002;2.121889e-001
6.190639e+002;2.115685e-001
6.209924e+002;2.111963e-001
6.229210e+002;2.082226e-001
6.248495e+002;2.038180e-001
6.267781e+002;2.019346e-001
6.287067e+002;2.084687e-001
6.306352e+002;2.078172e-001
6.325637e+002;1.998416e-001
6.344923e+002;1.946654e-001
6.364208e+002;1.943570e-001
6.383494e+002;1.945801e-001
6.402780e+002;1.962765e-001
6.422065e+002;1.979827e-001
6.441350e+002;1.966778e-001
6.460636e+002;1.949459e-001
6.479921e+002;1.936083e-001
6.499207e+002;1.914440e-001
6.518492e+002;1.939295e-001
6.537778e+002;1.986445e-001
6.557063e+002;1.973535e-001
6.576349e+002;1.940529e-001
6.595634e+002;1.925288e-001
6.614919e+002;1.938314e-001
6.634205e+002;1.941859e-001
6.653491e+002;1.926929e-001
6.672776e+002;1.924877e-001
6.692062e+002;1.920784e-001
6.711347e+002;1.915185e-001
6.730632e+002;1.923569e-001
6.749918e+002;1.923915e-001
6.769203e+002;1.911190e-001
6.788489e+002;1.912970e-001
6.807775e+002;1.918562e-001
6.827060e+002;1.910125e-001
6.846345e+002;1.907806e-001
6.865631e+002;1.915682e-001
6.884916e+002;1.898376e-001
6.904202e+002;1.880123e-001
6.923488e+002;1.877956e-001
6.942773e+002;1.868787e-001
6.962058e+002;1.862877e-001
6.981344e+002;1.847299e-001
7.000629e+002;1.824264e-001
7.019915e+002;1.811976e-001
7.039200e+002;1.801900e-001
7.058486e+002;1.792836e-001
7.077771e+002;1.776078e-001
7.097057e+002;1.761014e-001
7.116342e+002;1.755335e-001
7.135627e+002;1.746283e-001
7.154913e+002;1.724404e-001
7.174199e+002;1.704156e-001
7.193484e+002;1.689821e-001
7.212770e+002;1.677217e-001
7.232055e+002;1.666605e-001
7.251340e+002;1.650874e-001
7.270626e+002;1.629607e-001
7.289911e+002;1.617351e-001
7.309197e+002;1.609670e-001
7.328483e+002;1.593365e-001
7.347768e+002;1.578169e-001
7.367053e+002;1.568334e-001
7.386339e+002;1.549088e-001
7.405624e+002;1.525406e-001
7.424910e+002;1.503069e-001
7.444196e+002;1.484255e-001
7.463481e+002;1.475542e-001
7.482766e+002;1.458958e-001
7.502052e+002;1.438815e-001
7.521337e+002;1.429638e-001
7.540623e+002;1.422145e-001
7.559908e+002;1.414285e-001
7.579194e+002;1.407210e-001
7.598479e+002;1.394708e-001
7.617765e+002;1.383580e-001
7.637050e+002;1.370942e-001
7.656335e+002;1.355833e-001
7.675621e+002;1.338779e-001
7.694907e+002;1.322515e-001
7.714192e+002;1.308022e-001
7.733478e+002;1.295866e-001
7.752763e+002;1.286141e-001
7.772048e+002;1.269728e-001
7.791334e+002;1.254179e-001
7.810620e+002;1.252128e-001
7.829905e+002;1.250611e-001
7.849191e+002;1.238065e-001
7.868476e+002;1.228194e-001
7.887761e+002;1.217594e-001
7.907047e+002;1.202469e-001
7.926332e+002;1.192041e-001
7.945618e+002;1.185190e-001
7.964903e+002;1.179637e-001
7.984189e+002;1.169957e-001
8.003474e+002;1.163605e-001
8.022759e+002;1.165710e-001
8.042045e+002;1.165402e-001
8.061331e+002;1.166489e-001
8.080616e+002;1.167121e-001
8.099902e+002;1.167543e-001
8.119187e+002;1.171761e-001
8.138472e+002;1.176855e-001
8.157758e+002;1.182811e-001
8.177043e+002;1.185699e-001
8.196329e+002;1.177862e-001
8.215615e+002;1.174995e-001
8.234900e+002;1.185795e-001
8.254185e+002;1.196372e-001
8.273471e+002;1.197427e-001
8.292756e+002;1.196144e-001
8.312042e+002;1.194707e-001
8.331328e+002;1.185906e-001
8.350613e+002;1.176297e-001
8.369898e+002;1.161787e-001
8.389184e+002;1.149278e-001
8.408469e+002;1.146661e-001
8.427755e+002;1.147011e-001
8.447040e+002;1.148561e-001
8.466326e+002;1.149030e-001
8.485611e+002;1.149927e-001
8.504897e+002;1.152334e-001
8.524182e+002;1.149061e-001
8.543467e+002;1.136129e-001
8.562753e+002;1.120410e-001
8.582039e+002;1.109069e-001
8.601324e+002;1.098810e-001
8.620610e+002;1.084867e-001
8.639895e+002;1.071590e-001
8.659180e+002;1.063226e-001
8.678466e+002;1.059766e-001
8.697751e+002;1.056787e-001
8.717037e+002;1.050272e-001
8.736323e+002;1.044705e-001
8.755608e+002;1.044086e-001
8.774893e+002;1.044644e-001
8.794179e+002;1.041219e-001
8.813464e+002;1.039183e-001
8.832750e+002;1.038462e-001
8.852036e+002;1.037807e-001
8.871321e+002;1.037538e-001
8.890606e+002;1.039635e-001
8.909892e+002;1.034966e-001
8.929177e+002;1.030949e-001
8.948463e+002;1.031510e-001
8.967748e+002;1.033727e-001
8.987034e+002;1.035687e-001
9.006319e+002;1.036120e-001
9.025605e+002;1.033176e-001
9.044890e+002;1.032819e-001
9.064175e+002;1.037135e-001
9.083461e+002;1.040358e-001
9.102747e+002;1.038871e-001
9.122032e+002;1.043195e-001
9.141318e+002;1.049703e-001
9.160603e+002;1.051631e-001
9.179888e+002;1.057213e-001
9.199174e+002;1.068770e-001
9.218459e+002;1.080980e-001
9.237745e+002;1.091056e-001
9.257031e+002;1.099026e-001
9.276316e+002;1.112410e-001
9.295601e+002;1.123864e-001
9.314887e+002;1.126590e-001
9.334172e+002;1.127240e-001
9.353458e+002;1.127902e-001
9.372744e+002;1.132784e-001
9.392029e+002;1.138606e-001
9.411314e+002;1.142720e-001
9.430600e+002;1.147310e-001
9.449885e+002;1.150251e-001
9.469171e+002;1.156463e-001
9.488456e+002;1.167586e-001
9.507742e+002;1.179792e-001
9.527027e+002;1.188093e-001
9.546313e+002;1.196511e-001
9.565598e+002;1.207937e-001
9.584883e+002;1.219481e-001
9.604169e+002;1.235234e-001
9.623455e+002;1.250533e-001
9.642740e+002;1.263986e-001
9.662026e+002;1.278211e-001
9.681311e+002;1.291986e-001
9.700596e+002;1.305305e-001
9.719882e+002;1.315781e-001
9.739167e+002;1.321182e-001
9.758453e+002;1.323879e-001
9.777739e+002;1.323224e-001
9.797024e+002;1.320685e-001
9.816309e+002;1.320552e-001
9.835595e+002;1.319865e-001
9.854880e+002;1.317885e-001
9.874166e+002;1.318462e-001
9.893452e+002;1.327559e-001
9.912737e+002;1.339725e-001
9.932022e+002;1.348120e-001
9.951307e+002;1.352136e-001
9.970593e+002;1.352050e-001
9.989879e+002;1.348917e-001
1.000916e+003;1.348857e-001
1.002845e+003;1.346927e-001
1.004773e+003;1.345581e-001
1.006702e+003;1.347608e-001
1.008631e+003;1.348260e-001
1.010559e+003;1.349198e-001
1.012488e+003;1.347079e-001
1.014416e+003;1.344421e-001
1.016345e+003;1.345273e-001
1.018273e+003;1.341798e-001
1.020202e+003;1.339281e-001
1.022130e+003;1.338229e-001
1.024059e+003;1.341609e-001
1.025988e+003;1.356484e-001
1.027916e+003;1.373093e-001
1.029845e+003;1.389151e-001
1.031773e+003;1.404483e-001
1.033702e+003;1.417523e-001
1.035630e+003;1.434171e-001
1.037559e+003;1.450309e-001
1.039487e+003;1.461650e-001
1.041416e+003;1.466210e-001
1.043344e+003;1.467765e-001
1.045273e+003;1.472083e-001
1.047202e+003;1.476758e-001
1.049130e+003;1.482232e-001
1.051059e+003;1.494031e-001
1.052987e+003;1.507255e-001
1.054916e+003;1.518073e-001
1.056844e+003;1.527303e-001
1.058773e+003;1.538860e-001
1.060701e+003;1.549191e-001
1.062630e+003;1.553987e-001
1.064558e+003;1.556074e-001
1.066487e+003;1.562710e-001
1.068416e+003;1.569863e-001
1.070344e+003;1.567853e-001
1.072273e+003;1.558525e-001
1.074201e+003;1.544781e-001
1.076130e+003;1.532189e-001
1.078058e+003;1.517038e-001
1.079987e+003;1.497043e-001
1.081915e+003;1.480429e-001
1.083844e+003;1.458789e-001
1.085773e+003;1.431010e-001
1.087701e+003;1.410818e-001
1.089630e+003;1.396073e-001
1.091558e+003;1.379842e-001
1.093487e+003;1.366769e-001
1.095415e+003;1.357118e-001
1.097344e+003;1.350022e-001
1.099272e+003;1.347508e-001
1.101201e+003;1.343902e-001
1.103129e+003;1.344539e-001
1.105058e+003;1.344265e-001
1.106987e+003;1.336746e-001
1.108915e+003;1.322602e-001
1.110844e+003;1.307850e-001
1.112772e+003;1.297570e-001
1.114701e+003;1.293592e-001
1.116629e+003;1.294742e-001
1.118558e+003;1.292544e-001
1.120486e+003;1.288648e-001
1.122415e+003;1.285421e-001
1.124344e+003;1.283662e-001
1.126272e+003;1.283499e-001
1.128201e+003;1.286069e-001
1.130129e+003;1.293980e-001
1.132058e+003;1.300734e-001
1.133986e+003;1.303226e-001
1.135915e+003;1.309471e-001
1.137843e+003;1.323923e-001
1.139772e+003;1.339079e-001
1.141700e+003;1.346098e-001
1.143629e+003;1.354942e-001
1.145557e+003;1.371038e-001
1.147486e+003;1.380294e-001
1.149415e+003;1.385186e-001
1.151343e+003;1.392605e-001
1.153272e+003;1.403745e-001
1.155200e+003;1.415924e-001
1.157129e+003;1.423450e-001
1.159057e+003;1.429035e-001
1.160986e+003;1.431946e-001
1.162914e+003;1.433191e-001
1.164843e+003;1.436192e-001
1.166771e+003;1.441057e-001
1.168700e+003;1.444354e-001
1.170629e+003;1.446332e-001
1.172557e+003;1.444791e-001
1.174486e+003;1.439484e-001
1.176414e+003;1.431367e-001
1.178343e+003;1.421217e-001
1.180271e+003;1.412006e-001
1.182200e+003;1.404900e-001
1.184128e+003;1.401832e-001
1.186057e+003;1.403498e-001
1.187986e+003;1.410067e-001
1.189914e+003;1.420588e-001
1.191843e+003;1.434975e-001
1.193771e+003;1.452191e-001
1.195700e+003;1.465224e-001
1.197628e+003;1.481304e-001
1.199557e+003;1.507051e-001
1.201485e+003;1.534958e-001
1.203414e+003;1.562430e-001
1.205343e+003;1.592810e-001
1.207271e+003;1.619851e-001
1.209200e+003;1.641809e-001
1.211128e+003;1.665850e-001
1.213057e+003;1.687477e-001
1.214985e+003;1.704383e-001
1.216914e+003;1.721382e-001
1.218842e+003;1.739553e-001
1.220771e+003;1.753613e-001
1.222699e+003;1.767011e-001
1.224628e+003;1.777265e-001
1.226557e+003;1.782150e-001
1.228485e+003;1.788138e-001
1.230414e+003;1.787902e-001
1.232342e+003;1.780127e-001
1.234271e+003;1.771131e-001
1.236199e+003;1.764324e-001
1.238128e+003;1.757757e-001
1.240056e+003;1.747955e-001
1.241985e+003;1.733643e-001
1.243913e+003;1.722792e-001
1.245842e+003;1.714450e-001
1.247771e+003;1.705717e-001
1.249699e+003;1.698672e-001
1.251628e+003;1.691502e-001
1.253556e+003;1.683626e-001
1.255485e+003;1.673439e-001
1.257413e+003;1.660385e-001
1.259342e+003;1.647077e-001
1.261270e+003;1.632684e-001
1.263199e+003;1.615604e-001
1.265127e+003;1.600092e-001
1.267056e+003;1.589325e-001
1.268985e+003;1.576615e-001
1.270913e+003;1.561254e-001
1.272842e+003;1.544933e-001
1.274770e+003;1.527801e-001
1.276699e+003;1.513181e-001
1.278627e+003;1.501911e-001
1.280556e+003;1.494131e-001
1.282484e+003;1.487170e-001
1.284413e+003;1.478037e-001
1.286342e+003;1.469032e-001
1.288270e+003;1.463235e-001
1.290199e+003;1.460811e-001
1.292127e+003;1.462246e-001
1.294056e+003;1.463260e-001
1.295984e+003;1.460566e-001
1.297913e+003;1.458423e-001
1.299841e+003;1.459144e-001
1.301770e+003;1.459415e-001
1.303698e+003;1.457381e-001
1.305627e+003;1.454052e-001
1.307556e+003;1.452842e-001
1.309484e+003;1.451756e-001
1.311413e+003;1.449209e-001
1.313341e+003;1.447432e-001
1.315270e+003;1.445203e-001
1.317198e+003;1.444200e-001
1.319127e+003;1.447739e-001
1.321055e+003;1.452274e-001
1.322984e+003;1.456106e-001
1.324912e+003;1.458526e-001
1.326841e+003;1.462998e-001
1.328770e+003;1.467855e-001
1.330698e+003;1.471583e-001
1.332627e+003;1.475027e-001
1.334555e+003;1.478197e-001
1.336484e+003;1.479860e-001
1.338412e+003;1.481808e-001
1.340341e+003;1.485386e-001
1.342269e+003;1.490412e-001
1.344198e+003;1.490132e-001
1.346126e+003;1.488606e-001
1.348055e+003;1.492360e-001
1.349984e+003;1.497619e-001
1.351912e+003;1.503349e-001
1.353841e+003;1.510408e-001
1.355769e+003;1.521104e-001
1.357698e+003;1.532537e-001
1.359626e+003;1.545610e-001
1.361555e+003;1.564543e-001
1.363483e+003;1.587008e-001
1.365412e+003;1.607291e-001
1.367341e+003;1.621798e-001
1.369269e+003;1.631535e-001
1.371198e+003;1.637707e-001
1.373126e+003;1.638678e-001
1.375055e+003;1.636629e-001
1.376983e+003;1.637962e-001
1.378912e+003;1.640478e-001
1.380840e+003;1.642421e-001
1.382769e+003;1.642528e-001
1.384698e+003;1.644254e-001
1.386626e+003;1.645838e-001
1.388555e+003;1.646430e-001
1.390483e+003;1.647566e-001
1.392412e+003;1.648213e-001
1.394340e+003;1.645666e-001
1.396269e+003;1.643053e-001
1.398197e+003;1.644399e-001
1.400126e+003;1.648622e-001
1.402054e+003;1.655785e-001
1.403983e+003;1.665433e-001
1.405911e+003;1.674168e-001
1.407840e+003;1.679898e-001
1.409769e+003;1.686354e-001
1.411697e+003;1.695322e-001
1.413626e+003;1.703635e-001
1.415554e+003;1.708827e-001
1.417483e+003;1.715402e-001
1.419411e+003;1.724412e-001
1.421340e+003;1.739340e-001
1.423268e+003;1.760832e-001
1.425197e+003;1.785016e-001
1.427125e+003;1.810056e-001
1.429054e+003;1.841584e-001
1.430983e+003;1.877689e-001
1.432911e+003;1.912833e-001
1.434840e+003;1.944871e-001
1.436768e+003;1.971036e-001
1.438697e+003;1.992629e-001
1.440625e+003;2.008211e-001
1.442554e+003;2.019240e-001
1.444482e+003;2.027245e-001
1.446411e+003;2.030211e-001
1.448340e+003;2.022524e-001
1.450268e+003;2.006456e-001
1.452197e+003;1.988192e-001
1.454125e+003;1.972421e-001
1.456054e+003;1.954114e-001
1.457982e+003;1.934108e-001
1.459911e+003;1.922095e-001
1.461839e+003;1.916242e-001
1.463768e+003;1.912699e-001
1.465697e+003;1.909551e-001
1.467625e+003;1.909499e-001
1.469554e+003;1.916208e-001
1.471482e+003;1.927847e-001
1.473411e+003;1.939101e-001
1.475339e+003;1.950957e-001
1.477268e+003;1.970140e-001
1.479196e+003;1.998020e-001
1.481125e+003;2.028904e-001
1.483053e+003;2.058262e-001
1.484982e+003;2.092361e-001
1.486911e+003;2.133885e-001
1.488839e+003;2.176516e-001
1.490768e+003;2.217155e-001
1.492696e+003;2.257986e-001
1.494625e+003;2.298377e-001
1.496553e+003;2.336677e-001
1.498482e+003;2.374569e-001
1.500410e+003;2.408354e-001
1.502339e+003;2.436745e-001
1.504267e+003;2.463361e-001
1.506196e+003;2.487660e-001
1.508125e+003;2.507258e-001
1.510053e+003;2.519143e-001
1.511982e+003;2.527310e-001
1.513910e+003;2.529904e-001
1.515839e+003;2.516100e-001
1.517767e+003;2.483949e-001
1.519696e+003;2.438464e-001
1.521624e+003;2.389789e-001
1.523553e+003;2.345206e-001
1.525481e+003;2.303031e-001
1.527410e+003;2.262123e-001
1.529339e+003;2.226440e-001
1.531267e+003;2.196024e-001
1.533196e+003;2.165403e-001
1.535124e+003;2.133671e-001
1.537053e+003;2.104191e-001
1.538981e+003;2.076039e-001
1.540910e+003;2.047110e-001
1.542838e+003;2.018525e-001
1.544767e+003;1.990269e-001
1.546695e+003;1.961197e-001
1.548624e+003;1.929666e-001
1.550553e+003;1.898845e-001
1.552481e+003;1.867971e-001
1.554410e+003;1.837252e-001
1.556338e+003;1.806448e-001
1.558267e+003;1.775299e-001
1.560195e+003;1.742952e-001
1.562124e+003;1.711951e-001
1.564052e+003;1.680014e-001
1.565981e+003;1.646994e-001
1.567910e+003;1.619489e-001
1.569838e+003;1.595410e-001
1.571767e+003;1.575567e-001
1.573695e+003;1.560382e-001
1.575624e+003;1.546682e-001
1.577552e+003;1.534947e-001
1.579481e+003;1.527076e-001
1.581409e+003;1.523999e-001
1.583338e+003;1.525032e-001
1.585266e+003;1.534338e-001
1.587195e+003;1.551825e-001
1.589124e+003;1.573955e-001
1.591052e+003;1.602555e-001
1.592981e+003;1.637391e-001
1.594909e+003;1.676417e-001
1.596838e+003;1.720764e-001
1.598766e+003;1.771108e-001
1.600695e+003;1.824983e-001
1.602623e+003;1.886609e-001
1.604552e+003;1.959365e-001
1.606480e+003;2.039142e-001
1.608409e+003;2.120746e-001
1.610338e+003;2.205982e-001
1.612266e+003;2.291431e-001
1.614195e+003;2.369336e-001
1.616123e+003;2.439861e-001
1.618052e+003;2.499887e-001
1.619980e+003;2.547275e-001
1.621909e+003;2.583822e-001
1.623837e+003;2.607795e-001
1.625766e+003;2.617004e-001
1.627694e+003;2.612108e-001
1.629623e+003;2.596802e-001
1.631552e+003;2.576647e-001
1.633480e+003;2.551796e-001
1.635409e+003;2.516597e-001
1.637337e+003;2.476983e-001
1.639266e+003;2.437772e-001
1.641194e+003;2.398567e-001
1.643123e+003;2.360979e-001
1.645051e+003;2.325128e-001
1.646980e+003;2.287940e-001
1.648909e+003;2.248119e-001
1.650837e+003;2.207928e-001
1.652766e+003;2.163512e-001
1.654694e+003;2.115863e-001
1.656623e+003;2.070247e-001
1.658551e+003;2.029982e-001
1.660480e+003;1.990445e-001
1.662408e+003;1.947084e-001
1.664337e+003;1.902286e-001
1.666266e+003;1.861463e-001
1.668194e+003;1.826626e-001
1.670123e+003;1.789740e-001
1.672051e+003;1.753683e-001
1.673980e+003;1.718931e-001
1.675908e+003;1.684819e-001
1.677837e+003;1.650800e-001
1.679765e+003;1.617701e-001
1.681694e+003;1.588333e-001
1.683622e+003;1.559894e-001
1.685551e+003;1.533283e-001
1.687479e+003;1.514255e-001
1.689408e+003;1.497623e-001
1.691337e+003;1.478141e-001
1.693265e+003;1.459270e-001
1.695194e+003;1.441288e-001
1.697122e+003;1.423044e-001
1.699051e+003;1.399399e-001
1.700979e+003;1.355832e-001
1.702908e+003;1.297721e-001
1.704836e+003;1.231722e-001
1.706765e+003;1.163283e-001
1.708693e+003;1.097316e-001
1.710622e+003;1.036375e-001
1.712551e+003;9.850578e-002
1.714479e+003;9.427295e-002
1.716408e+003;9.031082e-002
1.718336e+003;8.711834e-002
1.720265e+003;8.454588e-002
1.722193e+003;8.218291e-002
1.724122e+003;8.021358e-002
1.726050e+003;7.852285e-002
1.727979e+003;7.695652e-002
1.729908e+003;7.552408e-002
1.731836e+003;7.439686e-002
1.733765e+003;7.359862e-002
1.735693e+003;7.269294e-002
1.737622e+003;7.160417e-002
1.739550e+003;7.039159e-002
1.741479e+003;6.933449e-002
1.743407e+003;6.860750e-002
1.745336e+003;6.763743e-002
1.747265e+003;6.654931e-002
1.749193e+003;6.591211e-002
1.751122e+003;6.544064e-002
1.753050e+003;6.489751e-002
1.754979e+003;6.424973e-002
1.756907e+003;6.362890e-002
1.758836e+003;6.317849e-002
1.760764e+003;6.295279e-002
1.762693e+003;6.264395e-002
1.764621e+003;6.226385e-002
1.766550e+003;6.189582e-002
1.768479e+003;6.160151e-002
1.770407e+003;6.143262e-002
1.772336e+003;6.100298e-002
1.774264e+003;6.062470e-002
1.776193e+003;6.063269e-002
1.778121e+003;6.066641e-002
1.780050e+003;6.068371e-002
1.781978e+003;6.040180e-002
1.783907e+003;6.012358e-002
1.785835e+003;5.996207e-002
1.787764e+003;5.988520e-002
1.789693e+003;5.976173e-002
1.791621e+003;5.945913e-002
1.793550e+003;5.920745e-002
1.795478e+003;5.911503e-002
1.797407e+003;5.898859e-002
1.799335e+003;5.879188e-002
1.801264e+003;5.855324e-002
1.803192e+003;5.841172e-002
1.805121e+003;5.841790e-002
1.807049e+003;5.835385e-002
1.808978e+003;5.798763e-002
1.810907e+003;5.764488e-002
1.812835e+003;5.753323e-002
1.814764e+003;5.743800e-002
1.816692e+003;5.732694e-002
1.818621e+003;5.725949e-002
1.820549e+003;5.712451e-002
1.822478e+003;5.699475e-002
1.824406e+003;5.692196e-002
1.826335e+003;5.682798e-002
1.828264e+003;5.666611e-002
1.830192e+003;5.631493e-002
1.832121e+003;5.600667e-002
1.834049e+003;5.596155e-002
1.835978e+003;5.590969e-002
1.837906e+003;5.583806e-002
1.839835e+003;5.573569e-002
1.841763e+003;5.559889e-002
1.843692e+003;5.539599e-002
1.845620e+003;5.530100e-002
1.847549e+003;5.535489e-002
1.849478e+003;5.525757e-002
1.851406e+003;5.499984e-002
1.853335e+003;5.466932e-002
1.855263e+003;5.455416e-002
1.857192e+003;5.456547e-002
1.859120e+003;5.481395e-002
1.861049e+003;5.481748e-002
1.862977e+003;5.465673e-002
1.864906e+003;5.467376e-002
1.866834e+003;5.476674e-002
1.868763e+003;5.472073e-002
1.870692e+003;5.449018e-002
1.872620e+003;5.440357e-002
1.874549e+003;5.456543e-002
1.876477e+003;5.447106e-002
1.878406e+003;5.425578e-002
1.880334e+003;5.427781e-002
1.882263e+003;5.431326e-002
1.884191e+003;5.418238e-002
1.886120e+003;5.409287e-002
1.888048e+003;5.411633e-002
1.889977e+003;5.394571e-002
1.891906e+003;5.389011e-002
1.893834e+003;5.398956e-002
1.895763e+003;5.393340e-002
1.897691e+003;5.382031e-002
1.899620e+003;5.365632e-002
1.901548e+003;5.335582e-002
1.903477e+003;5.325423e-002
1.905405e+003;5.359169e-002
1.907334e+003;5.370301e-002
1.909262e+003;5.331177e-002
1.911191e+003;5.323311e-002
1.913120e+003;5.345815e-002
1.915048e+003;5.340127e-002
1.916977e+003;5.319209e-002
1.918905e+003;5.323236e-002
1.920834e+003;5.336380e-002
1.922762e+003;5.322786e-002
1.924691e+003;5.326951e-002
1.926619e+003;5.339213e-002
1.928548e+003;5.329027e-002
1.930477e+003;5.317371e-002
1.932405e+003;5.307863e-002
1.934334e+003;5.308863e-002
1.936262e+003;5.322363e-002
1.938191e+003;5.319475e-002
1.940119e+003;5.302981e-002
1.942048e+003;5.292620e-002
1.943976e+003;5.291957e-002
1.945905e+003;5.295573e-002
1.947833e+003;5.318026e-002
1.949762e+003;5.313678e-002
1.951691e+003;5.306519e-002
1.953619e+003;5.316494e-002
1.955548e+003;5.324138e-002
1.957476e+003;5.331503e-002
1.959405e+003;5.325063e-002
1.961333e+003;5.304022e-002
1.963262e+003;5.303689e-002
1.965190e+003;5.313023e-002
1.967119e+003;5.310844e-002
1.969047e+003;5.300855e-002
1.970976e+003;5.303913e-002
1.972905e+003;5.310776e-002
1.974833e+003;5.297811e-002
1.976762e+003;5.289596e-002
1.978690e+003;5.280592e-002
1.980619e+003;5.262448e-002
1.982547e+003;5.248488e-002
1.984476e+003;5.266031e-002
1.986404e+003;5.286688e-002
1.988333e+003;5.289865e-002
1.990261e+003;5.277643e-002
1.992190e+003;5.267991e-002
1.994119e+003;5.276768e-002
1.996047e+003;5.279858e-002
1.997976e+003;5.256210e-002
1.999904e+003;5.234738e-002
2.001833e+003;5.246929e-002
2.003761e+003;5.263525e-002
2.005690e+003;5.259897e-002
2.007618e+003;5.250369e-002
2.009547e+003;5.262500e-002
2.011476e+003;5.262198e-002
2.013404e+003;5.229505e-002
2.015333e+003;5.234147e-002
2.017261e+003;5.255312e-002
2.019190e+003;5.258835e-002
2.021118e+003;5.251322e-002
2.023047e+003;5.253046e-002
2.024975e+003;5.243770e-002
2.026904e+003;5.246289e-002
2.028833e+003;5.264378e-002
2.030761e+003;5.274441e-002
2.032690e+003;5.268036e-002
2.034618e+003;5.271519e-002
2.036547e+003;5.267842e-002
2.038475e+003;5.254433e-002
2.040404e+003;5.249916e-002
2.042332e+003;5.249827e-002
2.044261e+003;5.238300e-002
2.046189e+003;5.253431e-002
2.048118e+003;5.290228e-002
2.050047e+003;5.295689e-002
2.051975e+003;5.272836e-002
2.053904e+003;5.276338e-002
2.055832e+003;5.284098e-002
2.057761e+003;5.249513e-002
2.059689e+003;5.231624e-002
2.061618e+003;5.250899e-002
2.063546e+003;5.255686e-002
2.065475e+003;5.244005e-002
2.067404e+003;5.261793e-002
2.069332e+003;5.268003e-002
2.071260e+003;5.250421e-002
2.073189e+003;5.242794e-002
2.075118e+003;5.269390e-002
2.077046e+003;5.288222e-002
2.078975e+003;5.266420e-002
2.080903e+003;5.251233e-002
2.082832e+003;5.245041e-002
2.084760e+003;5.250036e-002
2.086689e+003;5.268272e-002
2.088617e+003;5.260275e-002
2.090546e+003;5.241814e-002
2.092475e+003;5.252336e-002
2.094403e+003;5.259635e-002
2.096332e+003;5.243478e-002
2.098260e+003;5.237956e-002
2.100189e+003;5.228343e-002
2.102117e+003;5.220376e-002
2.104046e+003;5.236846e-002
2.105974e+003;5.240278e-002
2.107903e+003;5.230159e-002
2.109832e+003;5.252859e-002
2.111760e+003;5.256318e-002
2.113688e+003;5.236240e-002
2.115617e+003;5.220892e-002
2.117546e+003;5.213863e-002
2.119474e+003;5.216508e-002
2.121403e+003;5.212937e-002
2.123331e+003;5.205234e-002
2.125260e+003;5.208596e-002
2.127188e+003;5.221646e-002
2.129117e+003;5.223933e-002
2.131045e+003;5.222278e-002
2.132974e+003;5.231034e-002
2.134903e+003;5.219778e-002
2.136831e+003;5.212959e-002
2.138760e+003;5.212731e-002
2.140688e+003;5.206519e-002
2.142617e+003;5.206579e-002
2.144545e+003;5.206597e-002
2.146474e+003;5.208375e-002
2.148402e+003;5.204035e-002
2.150331e+003;5.195019e-002
2.152260e+003;5.197798e-002
2.154188e+003;5.215298e-002
2.156117e+003;5.233632e-002
2.158045e+003;5.236988e-002
2.159974e+003;5.233344e-002
2.161902e+003;5.220144e-002
2.163831e+003;5.220551e-002
2.165759e+003;5.247557e-002
2.167688e+003;5.232264e-002
2.169616e+003;5.207699e-002
2.171545e+003;5.236693e-002
2.173474e+003;5.265433e-002
2.175402e+003;5.237781e-002
2.177331e+003;5.223661e-002
2.179259e+003;5.226717e-002
2.181188e+003;5.225824e-002
2.183116e+003;5.213635e-002
2.185045e+003;5.213826e-002
2.186973e+003;5.226078e-002
2.188902e+003;5.222554e-002
2.190831e+003;5.207023e-002
2.192759e+003;5.199923e-002
2.194688e+003;5.201226e-002
2.196616e+003;5.203759e-002
2.198545e+003;5.204588e-002
2.200473e+003;5.194418e-002
2.202402e+003;5.215178e-002
2.204330e+003;5.231157e-002
2.206259e+003;5.235340e-002
2.208188e+003;5.248398e-002
2.210116e+003;5.241878e-002
2.212044e+003;5.229950e-002
2.213973e+003;5.229449e-002
2.215902e+003;5.205084e-002
2.217830e+003;5.189276e-002
2.219759e+003;5.205506e-002
2.221687e+003;5.244648e-002
2.223616e+003;5.232136e-002
2.225544e+003;5.218201e-002
2.227473e+003;5.230967e-002
2.229401e+003;5.233015e-002
2.231330e+003;5.225140e-002
2.233259e+003;5.208390e-002
2.235187e+003;5.211902e-002
2.237116e+003;5.219038e-002
2.239044e+003;5.222420e-002
2.240973e+003;5.246454e-002
2.242901e+003;5.245968e-002
2.244830e+003;5.224609e-002
2.246758e+003;5.234861e-002
2.248687e+003;5.257552e-002
2.250615e+003;5.255608e-002
2.252544e+003;5.240782e-002
2.254473e+003;5.224034e-002
2.256401e+003;5.230653e-002
2.258330e+003;5.256931e-002
2.260258e+003;5.261124e-002
2.262187e+003;5.256849e-002
2.264115e+003;5.249079e-002
2.266044e+003;5.245108e-002
2.267972e+003;5.261793e-002
2.269901e+003;5.267322e-002
2.271830e+003;5.247217e-002
2.273758e+003;5.246555e-002
2.275687e+003;5.258708e-002
2.277615e+003;5.268133e-002
2.279544e+003;5.277157e-002
2.281472e+003;5.270801e-002
2.283401e+003;5.259893e-002
2.285329e+003;5.267041e-002
2.287258e+003;5.284839e-002
2.289187e+003;5.299021e-002
2.291115e+003;5.306152e-002
2.293043e+003;5.308500e-002
2.294972e+003;5.312772e-002
2.296901e+003;5.310248e-002
2.298829e+003;5.303853e-002
2.300758e+003;5.302697e-002
2.302686e+003;5.304299e-002
2.304615e+003;5.304097e-002
2.306543e+003;5.313094e-002
2.308472e+003;5.312596e-002
2.310400e+003;5.310252e-002
2.312329e+003;5.308373e-002
2.314258e+003;5.332983e-002
2.316186e+003;5.363612e-002
2.318115e+003;5.349439e-002
2.320043e+003;5.340195e-002
2.321972e+003;5.348465e-002
2.323900e+003;5.339831e-002
2.325829e+003;5.343410e-002
2.327757e+003;5.338512e-002
2.329686e+003;5.327738e-002
2.331615e+003;5.337276e-002
2.333543e+003;5.336399e-002
2.335472e+003;5.336077e-002
2.337400e+003;5.333863e-002
2.339329e+003;5.333863e-002
2.341257e+003;5.339153e-002
2.343186e+003;5.332001e-002
2.345114e+003;5.336688e-002
2.347043e+003;5.355320e-002
2.348971e+003;5.343646e-002
2.350900e+003;5.347078e-002
2.352829e+003;5.373499e-002
2.354757e+003;5.386798e-002
2.356686e+003;5.394102e-002
2.358614e+003;5.403414e-002
2.360543e+003;5.388148e-002
2.362471e+003;5.365828e-002
2.364400e+003;5.365156e-002
2.366328e+003;5.362506e-002
2.368257e+003;5.371939e-002
2.370186e+003;5.383974e-002
2.372114e+003;5.382473e-002
2.374042e+003;5.379019e-002
2.375971e+003;5.382916e-002
2.377900e+003;5.399865e-002
2.379828e+003;5.423700e-002
2.381757e+003;5.426985e-002
2.383685e+003;5.404018e-002
2.385614e+003;5.409689e-002
2.387542e+003;5.434157e-002
2.389471e+003;5.427744e-002
2.391399e+003;5.434191e-002
2.393328e+003;5.447238e-002
2.395257e+003;5.439276e-002
2.397185e+003;5.431037e-002
2.399114e+003;5.460571e-002
2.401042e+003;5.479722e-002
2.402971e+003;5.483643e-002
2.404899e+003;5.492546e-002
2.406828e+003;5.497728e-002
2.408756e+003;5.509199e-002
2.410685e+003;5.524312e-002
2.412614e+003;5.559769e-002
2.414542e+003;5.591976e-002
2.416471e+003;5.589386e-002
2.418399e+003;5.583519e-002
2.420328e+003;5.602540e-002
2.422256e+003;5.613979e-002
2.424185e+003;5.619334e-002
2.426113e+003;5.625043e-002
2.428042e+003;5.623557e-002
2.429970e+003;5.630448e-002
2.431899e+003;5.654947e-002
2.433828e+003;5.675371e-002
2.435756e+003;5.676601e-002
2.437685e+003;5.691637e-002
2.439613e+003;5.727525e-002
2.441542e+003;5.725571e-002
2.443470e+003;5.730822e-002
2.445399e+003;5.747381e-002
2.447327e+003;5.768484e-002
2.449256e+003;5.757579e-002
2.451185e+003;5.750581e-002
2.453113e+003;5.767034e-002
2.455042e+003;5.764325e-002
2.456970e+003;5.751213e-002
2.458899e+003;5.750244e-002
2.460827e+003;5.759225e-002
2.462756e+003;5.771961e-002
2.464684e+003;5.790175e-002
2.466613e+003;5.803258e-002
2.468542e+003;5.805924e-002
2.470470e+003;5.829742e-002
2.472398e+003;5.831280e-002
2.474327e+003;5.821304e-002
2.476256e+003;5.821751e-002
2.478184e+003;5.828302e-002
2.480113e+003;5.837154e-002
2.482041e+003;5.850778e-002
2.483970e+003;5.865798e-002
2.485898e+003;5.861842e-002
2.487827e+003;5.849516e-002
2.489755e+003;5.847150e-002
2.491684e+003;5.842226e-002
2.493613e+003;5.857425e-002
2.495541e+003;5.882029e-002
2.497470e+003;5.866416e-002
2.499398e+003;5.864755e-002
2.501327e+003;5.869533e-002
2.503255e+003;5.872728e-002
2.505184e+003;5.902825e-002
2.507112e+003;5.915380e-002
2.509041e+003;5.879575e-002
2.510969e+003;5.880288e-002
2.512898e+003;5.905965e-002
2.514827e+003;5.911435e-002
2.516755e+003;5.901045e-002
2.518684e+003;5.886590e-002
2.520612e+003;5.897951e-002
2.522541e+003;5.913952e-002
2.524469e+003;5.895181e-002
2.526398e+003;5.897238e-002
2.528326e+003;5.925298e-002
2.530255e+003;5.949903e-002
2.532184e+003;5.957709e-002
2.534112e+003;5.944675e-002
2.536041e+003;5.936952e-002
2.537969e+003;5.958100e-002
2.539898e+003;5.970093e-002
2.541826e+003;5.968903e-002
2.543755e+003;5.988029e-002
2.545683e+003;6.024487e-002
2.547612e+003;6.023673e-002
2.549541e+003;5.992959e-002
2.551469e+003;6.003584e-002
2.553397e+003;6.051434e-002
2.555326e+003;6.078123e-002
2.557255e+003;6.081938e-002
2.559183e+003;6.069088e-002
2.561112e+003;6.063594e-002
2.563040e+003;6.075829e-002
2.564969e+003;6.099783e-002
2.566897e+003;6.139759e-002
2.568826e+003;6.144445e-002
2.570754e+003;6.141556e-002
2.572683e+003;6.161954e-002
2.574612e+003;6.183961e-002
2.576540e+003;6.204100e-002
2.578469e+003;6.246784e-002
2.580397e+003;6.279463e-002
2.582326e+003;6.297443e-002
2.584254e+003;6.301454e-002
2.586183e+003;6.310342e-002
2.588111e+003;6.318975e-002
2.590040e+003;6.321440e-002
2.591969e+003;6.307848e-002
2.593897e+003;6.331774e-002
2.595826e+003;6.385902e-002
2.597754e+003;6.398358e-002
2.599683e+003;6.394105e-002
2.601611e+003;6.403849e-002
2.603540e+003;6.416480e-002
2.605468e+003;6.417195e-002
2.607397e+003;6.441150e-002
2.609325e+003;6.459739e-002
2.611254e+003;6.452031e-002
2.613183e+003;6.455649e-002
2.615111e+003;6.467072e-002
2.617040e+003;6.470252e-002
2.618968e+003;6.487088e-002
2.620897e+003;6.485661e-002
2.622825e+003;6.474325e-002
2.624754e+003;6.479748e-002
2.626682e+003;6.488942e-002
2.628611e+003;6.475629e-002
2.630540e+003;6.461757e-002
2.632468e+003;6.496307e-002
2.634396e+003;6.498766e-002
2.636325e+003;6.479148e-002
2.638254e+003;6.475209e-002
2.640182e+003;6.493590e-002
2.642111e+003;6.504077e-002
2.644039e+003;6.482960e-002
2.645968e+003;6.472925e-002
2.647896e+003;6.493367e-002
2.649825e+003;6.499343e-002
2.651753e+003;6.500051e-002
2.653682e+003;6.498920e-002
2.655611e+003;6.487027e-002
2.657539e+003;6.495895e-002
2.659468e+003;6.519882e-002
2.661396e+003;6.529077e-002
2.663325e+003;6.515621e-002
2.665253e+003;6.509423e-002
2.667182e+003;6.540851e-002
2.669110e+003;6.580368e-002
2.671039e+003;6.581374e-002
2.672968e+003;6.580013e-002
2.674896e+003;6.593791e-002
2.676825e+003;6.628931e-002
2.678753e+003;6.645165e-002
2.680682e+003;6.659821e-002
2.682610e+003;6.684915e-002
2.684539e+003;6.686708e-002
2.686467e+003;6.692997e-002
2.688396e+003;6.704397e-002
2.690324e+003;6.723285e-002
2.692253e+003;6.739496e-002
2.694182e+003;6.768970e-002
2.696110e+003;6.792279e-002
2.698039e+003;6.803664e-002
2.699967e+003;6.804009e-002
2.701896e+003;6.833623e-002
2.703824e+003;6.874299e-002
2.705753e+003;6.856140e-002
2.707681e+003;6.837687e-002
2.709610e+003;6.849805e-002
2.711539e+003;6.881022e-002
2.713467e+003;6.909761e-002
2.715396e+003;6.938533e-002
2.717324e+003;6.954619e-002
2.719253e+003;6.968734e-002
2.721181e+003;6.993065e-002
2.723110e+003;7.017216e-002
2.725038e+003;7.040901e-002
2.726967e+003;7.055394e-002
2.728896e+003;7.057094e-002
2.730824e+003;7.087731e-002
2.732752e+003;7.144330e-002
2.734681e+003;7.160702e-002
2.736610e+003;7.147775e-002
2.738538e+003;7.163254e-002
2.740467e+003;7.187081e-002
2.742395e+003;7.198894e-002
2.744324e+003;7.214899e-002
2.746252e+003;7.257678e-002
2.748181e+003;7.288159e-002
2.750109e+003;7.304484e-002
2.752038e+003;7.326941e-002
2.753967e+003;7.321054e-002
2.755895e+003;7.320164e-002
2.757824e+003;7.359587e-002
2.759752e+003;7.396992e-002
2.761681e+003;7.402520e-002
2.763609e+003;7.400163e-002
2.765538e+003;7.415716e-002
2.767466e+003;7.439745e-002
2.769395e+003;7.448779e-002
2.771323e+003;7.475317e-002
2.773252e+003;7.513566e-002
2.775181e+003;7.529491e-002
2.777109e+003;7.530646e-002
2.779038e+003;7.549120e-002
2.780966e+003;7.580352e-002
2.782895e+003;7.607796e-002
2.784823e+003;7.620103e-002
2.786752e+003;7.633891e-002
2.788680e+003;7.639279e-002
2.790609e+003;7.661448e-002
2.792538e+003;7.702967e-002
2.794466e+003;7.727571e-002
2.796395e+003;7.741313e-002
2.798323e+003;7.747863e-002
2.800252e+003;7.782215e-002
2.802180e+003;7.821263e-002
2.804109e+003;7.840274e-002
2.806037e+003;7.872514e-002
2.807966e+003;7.897814e-002
2.809895e+003;7.928423e-002
2.811823e+003;7.939902e-002
2.813751e+003;7.946991e-002
2.815680e+003;7.983802e-002
2.817609e+003;8.005191e-002
2.819537e+003;8.032937e-002
2.821466e+003;8.062109e-002
2.823394e+003;8.075036e-002
2.825323e+003;8.090163e-002
2.827251e+003;8.132218e-002
2.829180e+003;8.166203e-002
2.831108e+003;8.185153e-002
2.833037e+003;8.224469e-002
2.834966e+003;8.275826e-002
2.836894e+003;8.324441e-002
2.838823e+003;8.369198e-002
2.840751e+003;8.408255e-002
2.842680e+003;8.445226e-002
2.844608e+003;8.514009e-002
2.846537e+003;8.617455e-002
2.848465e+003;8.674271e-002
2.850394e+003;8.706869e-002
2.852323e+003;8.786630e-002
2.854251e+003;8.896706e-002
2.856180e+003;8.999997e-002
2.858108e+003;9.064467e-002
2.860037e+003;9.118262e-002
2.861965e+003;9.165842e-002
2.863894e+003;9.219550e-002
2.865822e+003;9.292144e-002
2.867751e+003;9.356315e-002
2.869679e+003;9.410057e-002
2.871608e+003;9.462749e-002
2.873536e+003;9.488516e-002
2.875465e+003;9.518167e-002
2.877394e+003;9.561607e-002
2.879322e+003;9.561892e-002
2.881251e+003;9.551784e-002
2.883179e+003;9.542125e-002
2.885108e+003;9.530639e-002
2.887036e+003;9.517263e-002
2.888965e+003;9.523476e-002
2.890893e+003;9.570213e-002
2.892822e+003;9.646066e-002
2.894750e+003;9.646240e-002
2.896679e+003;9.639967e-002
2.898608e+003;9.697587e-002
2.900536e+003;9.743948e-002
2.902465e+003;9.790277e-002
2.904393e+003;9.844816e-002
2.906322e+003;9.892859e-002
2.908250e+003;9.909268e-002
2.910179e+003;9.905368e-002
2.912107e+003;9.931578e-002
2.914036e+003;1.000273e-001
2.915965e+003;1.005583e-001
2.917893e+003;1.012131e-001
2.919822e+003;1.020441e-001
2.921750e+003;1.023491e-001
2.923679e+003;1.031117e-001
2.925607e+003;1.042822e-001
2.927536e+003;1.051461e-001
2.929464e+003;1.056574e-001
2.931393e+003;1.062907e-001
2.933322e+003;1.067392e-001
2.935250e+003;1.072185e-001
2.937178e+003;1.076169e-001
2.939107e+003;1.071519e-001
2.941036e+003;1.068781e-001
2.942964e+003;1.069407e-001
2.944893e+003;1.067218e-001
2.946821e+003;1.059284e-001
2.948750e+003;1.050837e-001
2.950678e+003;1.046541e-001
2.952607e+003;1.039501e-001
2.954535e+003;1.030793e-001
2.956464e+003;1.028727e-001
2.958393e+003;1.028410e-001
2.960321e+003;1.027848e-001
2.962250e+003;1.026677e-001
2.964178e+003;1.027290e-001
2.966107e+003;1.025714e-001
2.968035e+003;1.022563e-001
2.969964e+003;1.024048e-001
2.971892e+003;1.027194e-001
2.973821e+003;1.022718e-001
2.975750e+003;1.018056e-001
2.977678e+003;1.016190e-001
2.979607e+003;1.012119e-001
2.981535e+003;1.008650e-001
2.983464e+003;1.007538e-001
2.985392e+003;1.005013e-001
2.987321e+003;1.002611e-001
2.989249e+003;1.000103e-001
2.991178e+003;9.952619e-002
2.993106e+003;9.887873e-002
2.995035e+003;9.845827e-002
2.996964e+003;9.807616e-002
2.998892e+003;9.751894e-002
3.000821e+003;9.722611e-002
3.002749e+003;9.709249e-002
3.004678e+003;9.678590e-002
3.006606e+003;9.660637e-002
3.008535e+003;9.630003e-002
3.010463e+003;9.604988e-002
3.012392e+003;9.615550e-002
3.014321e+003;9.619441e-002
3.016249e+003;9.607340e-002
3.018177e+003;9.620508e-002
3.020106e+003;9.638007e-002
3.022035e+003;9.644216e-002
3.023963e+003;9.655190e-002
3.025892e+003;9.693006e-002
3.027820e+003;9.715495e-002
3.029749e+003;9.743442e-002
3.031677e+003;9.777414e-002
3.033606e+003;9.798875e-002
3.035534e+003;9.839126e-002
3.037463e+003;9.877220e-002
3.039392e+003;9.920675e-002
3.041320e+003;9.941820e-002
3.043249e+003;9.968572e-002
3.045177e+003;1.002198e-001
3.047106e+003;1.006846e-001
3.049034e+003;1.011165e-001
3.050963e+003;1.013806e-001
3.052891e+003;1.016392e-001
3.054820e+003;1.020393e-001
3.056749e+003;1.024040e-001
3.058677e+003;1.025885e-001
3.060606e+003;1.028247e-001
3.062534e+003;1.028833e-001
3.064463e+003;1.031480e-001
3.066391e+003;1.035331e-001
3.068320e+003;1.036486e-001
3.070248e+003;1.037531e-001
3.072177e+003;1.038859e-001
3.074105e+003;1.040296e-001
3.076034e+003;1.041455e-001
3.077963e+003;1.040692e-001
3.079891e+003;1.036874e-001
3.081820e+003;1.036326e-001
3.083748e+003;1.037821e-001
3.085677e+003;1.036523e-001
3.087605e+003;1.034046e-001
3.089534e+003;1.033678e-001
3.091462e+003;1.031607e-001
3.093391e+003;1.029660e-001
3.095320e+003;1.027886e-001
3.097248e+003;1.024351e-001
3.099177e+003;1.022138e-001
3.101105e+003;1.023630e-001
3.103034e+003;1.020549e-001
3.104962e+003;1.011489e-001
3.106891e+003;1.006855e-001
3.108819e+003;1.004704e-001
3.110748e+003;1.003643e-001
3.112677e+003;1.005263e-001
3.114605e+003;1.006620e-001
3.116533e+003;1.005876e-001
3.118462e+003;1.004287e-001
3.120391e+003;1.002461e-001
3.122319e+003;1.001328e-001
3.124248e+003;9.999487e-002
3.126176e+003;1.000361e-001
3.128105e+003;1.001692e-001
3.130033e+003;1.002841e-001
3.131962e+003;1.003856e-001
3.133890e+003;1.003450e-001
3.135819e+003;1.001888e-001
3.137748e+003;1.002096e-001
3.139676e+003;1.007794e-001
3.141605e+003;1.013934e-001
3.143533e+003;1.018764e-001
3.145462e+003;1.023693e-001
3.147390e+003;1.023601e-001
3.149319e+003;1.024546e-001
3.151247e+003;1.030121e-001
3.153176e+003;1.034781e-001
3.155104e+003;1.038071e-001
3.157033e+003;1.043442e-001
3.158962e+003;1.048775e-001
3.160890e+003;1.054911e-001
3.162819e+003;1.063942e-001
3.164747e+003;1.066822e-001
3.166676e+003;1.069587e-001
3.168604e+003;1.076793e-001
3.170533e+003;1.083932e-001
3.172461e+003;1.088732e-001
3.174390e+003;1.094938e-001
3.176319e+003;1.103535e-001
3.178247e+003;1.107350e-001
3.180176e+003;1.109488e-001
3.182104e+003;1.118586e-001
3.184033e+003;1.128882e-001
3.185961e+003;1.133964e-001
3.187890e+003;1.140634e-001
3.189818e+003;1.151754e-001
3.191747e+003;1.160122e-001
3.193676e+003;1.165959e-001
3.195604e+003;1.170909e-001
3.197532e+003;1.178456e-001
3.199461e+003;1.186994e-001
3.201390e+003;1.194099e-001
3.203318e+003;1.203254e-001
3.205247e+003;1.208831e-001
3.207175e+003;1.213266e-001
3.209104e+003;1.222066e-001
3.211032e+003;1.230126e-001
3.212961e+003;1.236190e-001
3.214889e+003;1.242232e-001
3.216818e+003;1.250024e-001
3.218747e+003;1.261286e-001
3.220675e+003;1.271233e-001
3.222604e+003;1.277570e-001
3.224532e+003;1.283961e-001
3.226461e+003;1.291444e-001
3.228389e+003;1.303004e-001
3.230318e+003;1.312490e-001
3.232246e+003;1.316190e-001
3.234175e+003;1.327283e-001
3.236104e+003;1.340882e-001
3.238032e+003;1.349007e-001
3.239961e+003;1.358707e-001
3.241889e+003;1.366289e-001
3.243818e+003;1.371982e-001
3.245746e+003;1.379956e-001
3.247675e+003;1.389387e-001
3.249603e+003;1.402377e-001
3.251532e+003;1.412345e-001
3.253460e+003;1.424900e-001
3.255389e+003;1.439942e-001
3.257318e+003;1.450800e-001
3.259246e+003;1.460540e-001
3.261175e+003;1.471388e-001
3.263103e+003;1.484092e-001
3.265032e+003;1.492531e-001
3.266960e+003;1.502093e-001
3.268889e+003;1.515444e-001
3.270817e+003;1.528975e-001
3.272746e+003;1.537240e-001
3.274675e+003;1.542265e-001
3.276603e+003;1.550985e-001
3.278531e+003;1.556461e-001
3.280460e+003;1.556984e-001
3.282389e+003;1.557971e-001
3.284317e+003;1.559915e-001
3.286246e+003;1.559362e-001
3.288174e+003;1.557209e-001
3.290103e+003;1.552200e-001
3.292031e+003;1.547223e-001
3.293960e+003;1.542804e-001
3.295888e+003;1.534482e-001
3.297817e+003;1.523217e-001
3.299746e+003;1.514833e-001
3.301674e+003;1.506211e-001
3.303603e+003;1.494749e-001
3.305531e+003;1.483583e-001
3.307460e+003;1.471978e-001
3.309388e+003;1.457445e-001
3.311317e+003;1.445197e-001
3.313245e+003;1.434558e-001
3.315174e+003;1.421404e-001
3.317103e+003;1.407735e-001
3.319031e+003;1.394949e-001
3.320960e+003;1.382282e-001
3.322888e+003;1.367539e-001
3.324817e+003;1.353703e-001
3.326745e+003;1.339023e-001
3.328674e+003;1.323849e-001
3.330602e+003;1.312289e-001
3.332531e+003;1.303897e-001
3.334459e+003;1.295710e-001
3.336388e+003;1.285214e-001
3.338317e+003;1.274273e-001
3.340245e+003;1.263299e-001
3.342174e+003;1.250595e-001
3.344102e+003;1.240285e-001
3.346031e+003;1.229705e-001
3.347959e+003;1.215732e-001
3.349888e+003;1.203834e-001
3.351816e+003;1.196905e-001
3.353745e+003;1.189538e-001
3.355674e+003;1.177344e-001
3.357602e+003;1.171364e-001
3.359531e+003;1.167629e-001
3.361459e+003;1.159035e-001
3.363388e+003;1.151909e-001
3.365316e+003;1.142575e-001
3.367245e+003;1.136487e-001
3.369173e+003;1.134290e-001
3.371102e+003;1.126844e-001
3.373031e+003;1.118056e-001
3.374959e+003;1.113797e-001
3.376887e+003;1.110143e-001
3.378816e+003;1.104309e-001
3.380745e+003;1.095699e-001
3.382673e+003;1.087796e-001
3.384602e+003;1.081196e-001
3.386530e+003;1.074213e-001
3.388459e+003;1.067868e-001
3.390387e+003;1.060907e-001
3.392316e+003;1.057599e-001
3.394244e+003;1.052474e-001
3.396173e+003;1.043853e-001
3.398102e+003;1.038627e-001
3.400030e+003;1.035614e-001
3.401959e+003;1.032377e-001
3.403887e+003;1.025952e-001
3.405816e+003;1.016245e-001
3.407744e+003;1.007387e-001
3.409673e+003;1.001157e-001
3.411601e+003;9.981454e-002
3.413530e+003;9.937317e-002
3.415458e+003;9.858057e-002
3.417387e+003;9.807574e-002
3.419316e+003;9.737314e-002
3.421244e+003;9.651056e-002
3.423173e+003;9.595924e-002
3.425101e+003;9.575740e-002
3.427030e+003;9.528171e-002
3.428958e+003;9.450531e-002
3.430887e+003;9.400360e-002
3.432815e+003;9.373321e-002
3.434744e+003;9.314360e-002
3.436673e+003;9.260892e-002
3.438601e+003;9.233174e-002
3.440530e+003;9.176859e-002
3.442458e+003;9.137187e-002
3.444387e+003;9.093662e-002
3.446315e+003;9.041987e-002
3.448244e+003;9.022463e-002
3.450172e+003;8.988968e-002
3.452101e+003;8.940510e-002
3.454030e+003;8.878483e-002
3.455958e+003;8.833560e-002
3.457886e+003;8.804510e-002
3.459815e+003;8.787944e-002
3.461744e+003;8.743418e-002
3.463672e+003;8.715130e-002
3.465601e+003;8.706764e-002
3.467529e+003;8.679669e-002
3.469458e+003;8.655077e-002
3.471386e+003;8.621226e-002
3.473315e+003;8.597661e-002
3.475243e+003;8.566774e-002
3.477172e+003;8.500656e-002
3.479101e+003;8.483412e-002
3.481029e+003;8.517960e-002
3.482958e+003;8.529906e-002
3.484886e+003;8.522286e-002
3.486815e+003;8.492557e-002
3.488743e+003;8.446497e-002
3.490672e+003;8.397841e-002
3.492600e+003;8.368066e-002
3.494529e+003;8.327424e-002
3.496458e+003;8.287930e-002
3.498386e+003;8.283728e-002
3.500315e+003;8.264703e-002
3.502243e+003;8.208511e-002
3.504172e+003;8.175765e-002
3.506100e+003;8.134671e-002
3.508029e+003;8.112839e-002
3.509957e+003;8.119357e-002
3.511886e+003;8.102994e-002
3.513814e+003;8.068640e-002
3.515743e+003;8.003255e-002
3.517672e+003;7.928748e-002
3.519600e+003;7.913702e-002
3.521529e+003;7.925933e-002
3.523457e+003;7.888336e-002
3.525386e+003;7.840575e-002
3.527314e+003;7.815312e-002
3.529243e+003;7.826646e-002
3.531171e+003;7.821981e-002
3.533100e+003;7.754657e-002
3.535029e+003;7.675435e-002
3.536957e+003;7.615838e-002
3.538885e+003;7.588007e-002
3.540814e+003;7.572372e-002
3.542743e+003;7.556095e-002
3.544671e+003;7.557014e-002
3.546600e+003;7.547370e-002
3.548528e+003;7.482567e-002
3.550457e+003;7.458602e-002
3.552385e+003;7.415869e-002
3.554314e+003;7.358190e-002
3.556242e+003;7.324003e-002
3.558171e+003;7.256839e-002
3.560100e+003;7.223476e-002
3.562028e+003;7.206868e-002
3.563957e+003;7.156217e-002
3.565885e+003;7.092647e-002
3.567814e+003;7.002680e-002
3.569742e+003;6.968454e-002
3.571671e+003;6.961701e-002
3.573599e+003;6.966096e-002
3.575528e+003;6.951741e-002
3.577457e+003;6.907803e-002
3.579385e+003;6.806380e-002
3.581314e+003;6.708856e-002
3.583242e+003;6.720009e-002
3.585171e+003;6.700431e-002
3.587099e+003;6.657904e-002
3.589028e+003;6.646663e-002
3.590956e+003;6.598002e-002
3.592885e+003;6.548233e-002
3.594813e+003;6.505932e-002
3.596742e+003;6.448053e-002
3.598671e+003;6.393091e-002
3.600599e+003;6.372873e-002
3.602528e+003;6.337892e-002
3.604456e+003;6.273410e-002
3.606385e+003;6.235939e-002
3.608313e+003;6.224160e-002
3.610242e+003;6.197385e-002
3.612170e+003;6.148343e-002
3.614099e+003;6.082037e-002
3.616028e+003;6.015870e-002
3.617956e+003;5.898946e-002
3.619885e+003;5.830996e-002
3.621813e+003;5.838068e-002
3.623742e+003;5.796798e-002
3.625670e+003;5.747457e-002
3.627599e+003;5.700492e-002
3.629527e+003;5.625266e-002
3.631456e+003;5.574044e-002
3.633385e+003;5.565715e-002
3.635313e+003;5.519567e-002
3.637241e+003;5.413764e-002
3.639170e+003;5.326022e-002
3.641099e+003;5.273936e-002
3.643027e+003;5.248776e-002
3.644956e+003;5.225301e-002
3.646884e+003;5.178045e-002
3.648813e+003;5.127344e-002
3.650741e+003;5.083592e-002
3.652670e+003;5.027923e-002
3.654598e+003;4.971154e-002
3.656527e+003;4.934905e-002
3.658456e+003;4.906375e-002
3.660384e+003;4.838785e-002
3.662313e+003;4.774991e-002
3.664241e+003;4.735506e-002
3.666170e+003;4.723786e-002
3.668098e+003;4.705969e-002
3.670027e+003;4.664591e-002
3.671955e+003;4.623555e-002
3.673884e+003;4.631634e-002
3.675813e+003;4.632209e-002
3.677741e+003;4.578418e-002
3.679669e+003;4.540207e-002
3.681598e+003;4.515241e-002
3.683527e+003;4.487444e-002
3.685455e+003;4.458018e-002
3.687384e+003;4.436199e-002
3.689312e+003;4.406760e-002
3.691241e+003;4.399763e-002
3.693169e+003;4.385158e-002
3.695098e+003;4.354053e-002
3.697026e+003;4.343329e-002
3.698955e+003;4.352862e-002
3.700884e+003;4.303414e-002
3.702812e+003;4.281889e-002
3.704741e+003;4.284661e-002
3.706669e+003;4.285089e-002
3.708598e+003;4.269780e-002
3.710526e+003;4.255781e-002
3.712455e+003;4.263449e-002
3.714383e+003;4.270021e-002
3.716312e+003;4.246200e-002
3.718240e+003;4.211342e-002
3.720169e+003;4.209794e-002
3.722098e+003;4.174711e-002
3.724026e+003;4.120893e-002
3.725955e+003;4.094317e-002
3.727883e+003;4.075359e-002
3.729812e+003;4.102339e-002
3.731740e+003;4.151222e-002
3.733669e+003;4.196552e-002
3.735597e+003;4.238235e-002
3.737526e+003;4.218261e-002
3.739455e+003;4.188192e-002
3.741383e+003;4.159656e-002
3.743312e+003;4.115422e-002
3.745240e+003;4.127218e-002
3.747169e+003;4.156597e-002
3.749097e+003;4.158055e-002
3.751026e+003;4.154613e-002
3.752954e+003;4.153589e-002
3.754883e+003;4.156363e-002
3.756812e+003;4.132488e-002
3.758740e+003;4.135283e-002
3.760668e+003;4.138093e-002
3.762597e+003;4.103045e-002
3.764526e+003;4.096917e-002
3.766454e+003;4.098421e-002
3.768383e+003;4.080982e-002
3.770311e+003;4.080058e-002
3.772240e+003;4.110486e-002
3.774168e+003;4.110519e-002
3.776097e+003;4.134966e-002
3.778025e+003;4.135972e-002
3.779954e+003;4.101858e-002
3.781883e+003;4.133245e-002
3.783811e+003;4.165367e-002
3.785740e+003;4.138202e-002
3.787668e+003;4.124660e-002
3.789597e+003;4.130298e-002
3.791525e+003;4.153800e-002
3.793454e+003;4.133603e-002
3.795382e+003;4.101556e-002
3.797311e+003;4.080727e-002
3.799240e+003;4.090243e-002
3.801168e+003;4.129867e-002
3.803097e+003;4.140870e-002
3.805025e+003;4.166260e-002
3.806954e+003;4.143338e-002
3.808882e+003;4.100329e-002
3.810811e+003;4.086038e-002
3.812739e+003;4.110005e-002
3.814668e+003;4.137141e-002
3.816596e+003;4.141034e-002
3.818525e+003;4.165144e-002
3.820454e+003;4.176517e-002
3.822382e+003;4.159331e-002
3.824311e+003;4.142908e-002
3.826239e+003;4.140279e-002
3.828168e+003;4.164251e-002
3.830096e+003;4.182383e-002
3.832025e+003;4.135753e-002
3.833953e+003;4.138074e-002
3.835882e+003;4.136270e-002
3.837811e+003;4.083697e-002
3.839739e+003;4.081452e-002
3.841667e+003;4.113360e-002
3.843596e+003;4.133213e-002
3.845525e+003;4.149921e-002
3.847453e+003;4.166964e-002
3.849382e+003;4.163861e-002
3.851310e+003;4.184102e-002
3.853239e+003;4.217418e-002
3.855167e+003;4.233428e-002
3.857096e+003;4.225302e-002
3.859024e+003;4.218334e-002
3.860953e+003;4.214709e-002
3.862882e+003;4.214252e-002
3.864810e+003;4.218966e-002
3.866739e+003;4.221380e-002
3.868667e+003;4.182901e-002
3.870596e+003;4.177582e-002
3.872524e+003;4.223987e-002
3.874453e+003;4.224703e-002
3.876381e+003;4.212208e-002
3.878310e+003;4.235667e-002
3.880239e+003;4.259278e-002
3.882167e+003;4.266779e-002
3.884096e+003;4.255821e-002
3.886024e+003;4.251849e-002
3.887953e+003;4.250756e-002
3.889881e+003;4.264677e-002
3.891810e+003;4.295985e-002
3.893738e+003;4.308314e-002
3.895667e+003;4.347654e-002
3.897595e+003;4.386118e-002
3.899524e+003;4.340177e-002
3.901453e+003;4.293790e-002
3.903381e+003;4.291113e-002
3.905310e+003;4.291197e-002
3.907238e+003;4.305141e-002
3.909167e+003;4.323907e-002
3.911095e+003;4.299156e-002
3.913024e+003;4.292447e-002
3.914952e+003;4.358661e-002
3.916881e+003;4.418339e-002
3.918810e+003;4.413471e-002
3.920738e+003;4.398682e-002
3.922667e+003;4.370048e-002
3.924595e+003;4.384894e-002
3.926524e+003;4.394142e-002
3.928452e+003;4.371085e-002
3.930381e+003;4.376200e-002
3.932309e+003;4.398252e-002
3.934238e+003;4.388864e-002
3.936167e+003;4.379707e-002
3.938095e+003;4.407248e-002
3.940023e+003;4.426245e-002
3.941952e+003;4.456156e-002
3.943881e+003;4.475329e-002
3.945809e+003;4.446021e-002
3.947738e+003;4.439638e-002
3.949666e+003;4.456997e-002
3.951595e+003;4.440460e-002
3.953523e+003;4.436401e-002
3.955452e+003;4.444619e-002
3.957380e+003;4.413739e-002
3.959309e+003;4.373532e-002
3.961238e+003;4.402377e-002
3.963166e+003;4.472758e-002
3.965095e+003;4.485681e-002
3.967023e+003;4.463114e-002
3.968952e+003;4.482918e-002
3.970880e+003;4.495488e-002
3.972809e+003;4.459241e-002
3.974737e+003;4.420793e-002
3.976666e+003;4.409837e-002
3.978594e+003;4.456700e-002
3.980523e+003;4.475880e-002
3.982452e+003;4.425936e-002
3.984380e+003;4.399572e-002
3.986309e+003;4.419058e-002
3.988237e+003;4.468556e-002
3.990166e+003;4.464187e-002
3.992094e+003;4.413545e-002
3.994023e+003;4.433759e-002
3.995951e+003;4.464278e-002
3.997880e+003;4.439135e-002
3.999809e+003;4.424351e-002
4.001737e+003;0.000000e+000
