3.992094e+002;0.000000e+000
4.011380e+002;0.000000e+000
4.030665e+002;0.000000e+000
4.049951e+002;0.000000e+000
4.069236e+002;0.000000e+000
4.088522e+002;0.000000e+000
4.107807e+002;0.000000e+000
4.127093e+002;0.000000e+000
4.146378e+002;0.000000e+000
4.165664e+002;0.000000e+000
4.184949e+002;0.000000e+000
4.204235e+002;0.000000e+000
4.223520e+002;0.000000e+000
4.242806e+002;0.000000e+000
4.262091e+002;0.000000e+000
4.281377e+002;0.000000e+000
4.300662e+002;0.000000e+000
4.319948e+002;0.000000e+000
4.339233e+002;0.000000e+000
4.358519e+002;0.000000e+000
4.377804e+002;0.000000e+000
4.397090e+002;0.000000e+000
4.416375e+002;0.000000e+000
4.435660e+002;0.000000e+000
4.454946e+002;0.000000e+000
4.474232e+002;0.000000e+000
4.493517e+002;0.000000e+000
4.512802e+002;0.000000e+000
4.532088e+002;0.000000e+000
4.551373e+002;0.000000e+000
4.570659e+002;0.000000e+000
4.589944e+002;0.000000e+000
4.609230e+002;0.000000e+000
4.628515e+002;0.000000e+000
4.647801e+002;0.000000e+000
4.667086e+002;0.000000e+000
4.686372e+002;0.000000e+000
4.705657e+002;0.000000e+000
4.724943e+002;0.000000e+000
4.744228e+002;0.000000e+000
4.763513e+002;0.000000e+000
4.782799e+002;0.000000e+000
4.802085e+002;0.000000e+000
4.821370e+002;0.000000e+000
4.840656e+002;0.000000e+000
4.859941e+002;0.000000e+000
4.879226e+002;0.000000e+000
4.898512e+002;0.000000e+000
4.917798e+002;0.000000e+000
4.937083e+002;0.000000e+000
4.956368e+002;0.000000e+000
4.975654e+002;0.000000e+000
4.994939e+002;0.000000e+000
5.014225e+002;0.000000e+000
5.033510e+002;0.000000e+000
5.052796e+002;0.000000e+000
5.072081e+002;0.000000e+000
5.091367e+002;0.000000e+000
5.110652e+002;0.000000e+000
5.129938e+002;0.000000e+000
5.149223e+002;0.000000e+000
5.168509e+002;0.000000e+000
5.187794e+002;0.000000e+000
5.207079e+002;0.000000e+000
5.226365e+002;0.000000e+000
5.245651e+002;0.000000e+000
5.264936e+002;0.000000e+000
5.284222e+002;0.000000e+000
5.303507e+002;0.000000e+000
5.322792e+002;0.000000e+000
5.342078e+002;0.000000e+000
5.361364e+002;0.000000e+000
5.380649e+002;0.000000e+000
5.399935e+002;0.000000e+000
5.419220e+002;0.000000e+000
5.438505e+002;0.000000e+000
5.457791e+002;0.000000e+000
5.477076e+002;0.000000e+000
5.496362e+002;0.000000e+000
5.515648e+002;0.000000e+000
5.534933e+002;0.000000e+000
5.554218e+002;0.000000e+000
5.573504e+002;0.000000e+000
5.592789e+002;0.000000e+000
5.612075e+002;0.000000e+000
5.631360e+002;0.000000e+000
5.650646e+002;0.000000e+000
5.669931e+002;0.000000e+000
5.689217e+002;0.000000e+000
5.708502e+002;0.000000e+000
5.727787e+002;0.000000e+000
5.747073e+002;0.000000e+000
5.766359e+002;0.000000e+000
5.785644e+002;0.000000e+000
5.804930e+002;0.000000e+000
5.824215e+002;0.000000e+000
5.843500e+002;0.000000e+000
5.862786e+002;0.000000e+000
5.882072e+002;0.000000e+000
5.901357e+002;0.000000e+000
5.920643e+002;0.000000e+000
5.939928e+002;0.000000e+000
5.959213e+002;0.000000e+000
5.978499e+002;0.000000e+000
5.997784e+002;1.754857e-001
6.017070e+002;1.797662e-001
6.036355e+002;1.811471e-001
6.055641e+002;1.794772e-001
6.074926e+002;1.750807e-001
6.094211e+002;1.755427e-001
6.113497e+002;1.732922e-001
6.132783e+002;1.713225e-001
6.152068e+002;1.741046e-001
6.171354e+002;1.763886e-001
6.190639e+002;1.758254e-001
6.209924e+002;1.726714e-001
6.229210e+002;1.717264e-001
6.248495e+002;1.719118e-001
6.267781e+002;1.712245e-001
6.287067e+002;1.724426e-001
6.306352e+002;1.719362e-001
6.325637e+002;1.679928e-001
6.344923e+002;1.647988e-001
6.364208e+002;1.621354e-001
6.383494e+002;1.624720e-001
6.402780e+002;1.685395e-001
6.422065e+002;1.690380e-001
6.441350e+002;1.639667e-001
6.460636e+002;1.624018e-001
6.479921e+002;1.644530e-001
6.499207e+002;1.645642e-001
6.518492e+002;1.633137e-001
6.537778e+002;1.639661e-001
6.557063e+002;1.610649e-001
6.576349e+002;1.575655e-001
6.595634e+002;1.589221e-001
6.614919e+002;1.614908e-001
6.634205e+002;1.604813e-001
6.653491e+002;1.582072e-001
6.672776e+002;1.591188e-001
6.692062e+002;1.597017e-001
6.711347e+002;1.590069e-001
6.730632e+002;1.583516e-001
6.749918e+002;1.576965e-001
6.769203e+002;1.562721e-001
6.788489e+002;1.548245e-001
6.807775e+002;1.547677e-001
6.827060e+002;1.552291e-001
6.846345e+002;1.553734e-001
6.865631e+002;1.549337e-001
6.884916e+002;1.540665e-001
6.904202e+002;1.533306e-001
6.923488e+002;1.528344e-001
6.942773e+002;1.522266e-001
6.962058e+002;1.518692e-001
6.981344e+002;1.509244e-001
7.000629e+002;1.490691e-001
7.019915e+002;1.476869e-001
7.039200e+002;1.454358e-001
7.058486e+002;1.432309e-001
7.077771e+002;1.418429e-001
7.097057e+002;1.415423e-001
7.116342e+002;1.415403e-001
7.135627e+002;1.401540e-001
7.154913e+002;1.381091e-001
7.174199e+002;1.364781e-001
7.193484e+002;1.347896e-001
7.212770e+002;1.329985e-001
7.232055e+002;1.313853e-001
7.251340e+002;1.298320e-001
7.270626e+002;1.281694e-001
7.289911e+002;1.267878e-001
7.309197e+002;1.253298e-001
7.328483e+002;1.242368e-001
7.347768e+002;1.232509e-001
7.367053e+002;1.220075e-001
7.386339e+002;1.202442e-001
7.405624e+002;1.183529e-001
7.424910e+002;1.165022e-001
7.444196e+002;1.149526e-001
7.463481e+002;1.144175e-001
7.482766e+002;1.123499e-001
7.502052e+002;1.102140e-001
7.521337e+002;1.094945e-001
7.540623e+002;1.090184e-001
7.559908e+002;1.082137e-001
7.579194e+002;1.071496e-001
7.598479e+002;1.061090e-001
7.617765e+002;1.057058e-001
7.637050e+002;1.042935e-001
7.656335e+002;1.029381e-001
7.675621e+002;1.024362e-001
7.694907e+002;1.012218e-001
7.714192e+002;9.982159e-002
7.733478e+002;9.894352e-002
7.752763e+002;9.805913e-002
7.772048e+002;9.677650e-002
7.791334e+002;9.493199e-002
7.810620e+002;9.401269e-002
7.829905e+002;9.375065e-002
7.849191e+002;9.289563e-002
7.868476e+002;9.241159e-002
7.887761e+002;9.202018e-002
7.907047e+002;9.101103e-002
7.926332e+002;9.040812e-002
7.945618e+002;9.004269e-002
7.964903e+002;8.954084e-002
7.984189e+002;8.870772e-002
8.003474e+002;8.818630e-002
8.022759e+002;8.863161e-002
8.042045e+002;8.907411e-002
8.061331e+002;8.925930e-002
8.080616e+002;8.900528e-002
8.099902e+002;8.867557e-002
8.119187e+002;8.865009e-002
8.138472e+002;8.871719e-002
8.157758e+002;8.865794e-002
8.177043e+002;8.899114e-002
8.196329e+002;8.888232e-002
8.215615e+002;8.904319e-002
8.234900e+002;8.990259e-002
8.254185e+002;9.023862e-002
8.273471e+002;9.027598e-002
8.292756e+002;9.039045e-002
8.312042e+002;9.019767e-002
8.331328e+002;8.884332e-002
8.350613e+002;8.791088e-002
8.369898e+002;8.755577e-002
8.389184e+002;8.680482e-002
8.408469e+002;8.636640e-002
8.427755e+002;8.601958e-002
8.447040e+002;8.565221e-002
8.466326e+002;8.566250e-002
8.485611e+002;8.595867e-002
8.504897e+002;8.610550e-002
8.524182e+002;8.585671e-002
8.543467e+002;8.540061e-002
8.562753e+002;8.455896e-002
8.582039e+002;8.289883e-002
8.601324e+002;8.115415e-002
8.620610e+002;7.977598e-002
8.639895e+002;7.906029e-002
8.659180e+002;7.864662e-002
8.678466e+002;7.821976e-002
8.697751e+002;7.804568e-002
8.717037e+002;7.729823e-002
8.736323e+002;7.638244e-002
8.755608e+002;7.629175e-002
8.774893e+002;7.657135e-002
8.794179e+002;7.693041e-002
8.813464e+002;7.714885e-002
8.832750e+002;7.724218e-002
8.852036e+002;7.743749e-002
8.871321e+002;7.753254e-002
8.890606e+002;7.740395e-002
8.909892e+002;7.684506e-002
8.929177e+002;7.693014e-002
8.948463e+002;7.714220e-002
8.967748e+002;7.720521e-002
8.987034e+002;7.698678e-002
9.006319e+002;7.627519e-002
9.025605e+002;7.562452e-002
9.044890e+002;7.598137e-002
9.064175e+002;7.668354e-002
9.083461e+002;7.701764e-002
9.102747e+002;7.693508e-002
9.122032e+002;7.695996e-002
9.141318e+002;7.772509e-002
9.160603e+002;7.855418e-002
9.179888e+002;7.923352e-002
9.199174e+002;8.021198e-002
9.218459e+002;8.144870e-002
9.237745e+002;8.268242e-002
9.257031e+002;8.341229e-002
9.276316e+002;8.370826e-002
9.295601e+002;8.409096e-002
9.314887e+002;8.447774e-002
9.334172e+002;8.462459e-002
9.353458e+002;8.452994e-002
9.372744e+002;8.476404e-002
9.392029e+002;8.527806e-002
9.411314e+002;8.577225e-002
9.430600e+002;8.605262e-002
9.449885e+002;8.606260e-002
9.469171e+002;8.636001e-002
9.488456e+002;8.694258e-002
9.507742e+002;8.778976e-002
9.527027e+002;8.859544e-002
9.546313e+002;8.917772e-002
9.565598e+002;9.003291e-002
9.584883e+002;9.104048e-002
9.604169e+002;9.210418e-002
9.623455e+002;9.338009e-002
9.642740e+002;9.467278e-002
9.662026e+002;9.586664e-002
9.681311e+002;9.745309e-002
9.700596e+002;9.906942e-002
9.719882e+002;1.003550e-001
9.739167e+002;1.012027e-001
9.758453e+002;1.017121e-001
9.777739e+002;1.016745e-001
9.797024e+002;1.014481e-001
9.816309e+002;1.013863e-001
9.835595e+002;1.012795e-001
9.854880e+002;1.011137e-001
9.874166e+002;1.017983e-001
9.893452e+002;1.031609e-001
9.912737e+002;1.041578e-001
9.932022e+002;1.047144e-001
9.951307e+002;1.051459e-001
9.970593e+002;1.050910e-001
9.989879e+002;1.045322e-001
1.000916e+003;1.043270e-001
1.002845e+003;1.041929e-001
1.004773e+003;1.040300e-001
1.006702e+003;1.038397e-001
1.008631e+003;1.036893e-001
1.010559e+003;1.038167e-001
1.012488e+003;1.037749e-001
1.014416e+003;1.039352e-001
1.016345e+003;1.038506e-001
1.018273e+003;1.031443e-001
1.020202e+003;1.026628e-001
1.022130e+003;1.026383e-001
1.024059e+003;1.031064e-001
1.025988e+003;1.044227e-001
1.027916e+003;1.059578e-001
1.029845e+003;1.074642e-001
1.031773e+003;1.083599e-001
1.033702e+003;1.092884e-001
1.035630e+003;1.109972e-001
1.037559e+003;1.125911e-001
1.039487e+003;1.134279e-001
1.041416e+003;1.138556e-001
1.043344e+003;1.139887e-001
1.045273e+003;1.141902e-001
1.047202e+003;1.146086e-001
1.049130e+003;1.153674e-001
1.051059e+003;1.164732e-001
1.052987e+003;1.174417e-001
1.054916e+003;1.180346e-001
1.056844e+003;1.187922e-001
1.058773e+003;1.198785e-001
1.060701e+003;1.209519e-001
1.062630e+003;1.216486e-001
1.064558e+003;1.222098e-001
1.066487e+003;1.227769e-001
1.068416e+003;1.229587e-001
1.070344e+003;1.224812e-001
1.072273e+003;1.215796e-001
1.074201e+003;1.201514e-001
1.076130e+003;1.187636e-001
1.078058e+003;1.174675e-001
1.079987e+003;1.155746e-001
1.081915e+003;1.135660e-001
1.083844e+003;1.118835e-001
1.085773e+003;1.102007e-001
1.087701e+003;1.089236e-001
1.089630e+003;1.076635e-001
1.091558e+003;1.059876e-001
1.093487e+003;1.048964e-001
1.095415e+003;1.045590e-001
1.097344e+003;1.045985e-001
1.099272e+003;1.046095e-001
1.101201e+003;1.041209e-001
1.103129e+003;1.036531e-001
1.105058e+003;1.031215e-001
1.106987e+003;1.025371e-001
1.108915e+003;1.018988e-001
1.110844e+003;1.006447e-001
1.112772e+003;9.987725e-002
1.114701e+003;9.976814e-002
1.116629e+003;9.969306e-002
1.118558e+003;9.947053e-002
1.120486e+003;9.924036e-002
1.122415e+003;9.900461e-002
1.124344e+003;9.861849e-002
1.126272e+003;9.855832e-002
1.128201e+003;9.904132e-002
1.130129e+003;9.980600e-002
1.132058e+003;1.007190e-001
1.133986e+003;1.015824e-001
1.135915e+003;1.022315e-001
1.137843e+003;1.027374e-001
1.139772e+003;1.035184e-001
1.141700e+003;1.045536e-001
1.143629e+003;1.056797e-001
1.145557e+003;1.069969e-001
1.147486e+003;1.079235e-001
1.149415e+003;1.082457e-001
1.151343e+003;1.089718e-001
1.153272e+003;1.104917e-001
1.155200e+003;1.117433e-001
1.157129e+003;1.126265e-001
1.159057e+003;1.133190e-001
1.160986e+003;1.134853e-001
1.162914e+003;1.137565e-001
1.164843e+003;1.144193e-001
1.166771e+003;1.152805e-001
1.168700e+003;1.162245e-001
1.170629e+003;1.169913e-001
1.172557e+003;1.171690e-001
1.174486e+003;1.166378e-001
1.176414e+003;1.155788e-001
1.178343e+003;1.144896e-001
1.180271e+003;1.137382e-001
1.182200e+003;1.135014e-001
1.184128e+003;1.136916e-001
1.186057e+003;1.139381e-001
1.187986e+003;1.142978e-001
1.189914e+003;1.153165e-001
1.191843e+003;1.167724e-001
1.193771e+003;1.183931e-001
1.195700e+003;1.199823e-001
1.197628e+003;1.219805e-001
1.199557e+003;1.246076e-001
1.201485e+003;1.273407e-001
1.203414e+003;1.301469e-001
1.205343e+003;1.331104e-001
1.207271e+003;1.362193e-001
1.209200e+003;1.385442e-001
1.211128e+003;1.409125e-001
1.213057e+003;1.437894e-001
1.214985e+003;1.462597e-001
1.216914e+003;1.480806e-001
1.218842e+003;1.498845e-001
1.220771e+003;1.517261e-001
1.222699e+003;1.532821e-001
1.224628e+003;1.546940e-001
1.226557e+003;1.555261e-001
1.228485e+003;1.559993e-001
1.230414e+003;1.562840e-001
1.232342e+003;1.559583e-001
1.234271e+003;1.552060e-001
1.236199e+003;1.544305e-001
1.238128e+003;1.535993e-001
1.240056e+003;1.526751e-001
1.241985e+003;1.513380e-001
1.243913e+003;1.500565e-001
1.245842e+003;1.493296e-001
1.247771e+003;1.488013e-001
1.249699e+003;1.483028e-001
1.251628e+003;1.478330e-001
1.253556e+003;1.468544e-001
1.255485e+003;1.456726e-001
1.257413e+003;1.448448e-001
1.259342e+003;1.439905e-001
1.261270e+003;1.424780e-001
1.263199e+003;1.407930e-001
1.265127e+003;1.388389e-001
1.267056e+003;1.365003e-001
1.268985e+003;1.343682e-001
1.270913e+003;1.322682e-001
1.272842e+003;1.303265e-001
1.274770e+003;1.285679e-001
1.276699e+003;1.268881e-001
1.278627e+003;1.254261e-001
1.280556e+003;1.241220e-001
1.282484e+003;1.228938e-001
1.284413e+003;1.217477e-001
1.286342e+003;1.207690e-001
1.288270e+003;1.201617e-001
1.290199e+003;1.196710e-001
1.292127e+003;1.192879e-001
1.294056e+003;1.189400e-001
1.295984e+003;1.184420e-001
1.297913e+003;1.179816e-001
1.299841e+003;1.175993e-001
1.301770e+003;1.170885e-001
1.303698e+003;1.165451e-001
1.305627e+003;1.162015e-001
1.307556e+003;1.158113e-001
1.309484e+003;1.151988e-001
1.311413e+003;1.147532e-001
1.313341e+003;1.143844e-001
1.315270e+003;1.138804e-001
1.317198e+003;1.135981e-001
1.319127e+003;1.134809e-001
1.321055e+003;1.133536e-001
1.322984e+003;1.135186e-001
1.324912e+003;1.136700e-001
1.326841e+003;1.138009e-001
1.328770e+003;1.139000e-001
1.330698e+003;1.139280e-001
1.332627e+003;1.138939e-001
1.334555e+003;1.139027e-001
1.336484e+003;1.138855e-001
1.338412e+003;1.137712e-001
1.340341e+003;1.136199e-001
1.342269e+003;1.133917e-001
1.344198e+003;1.129526e-001
1.346126e+003;1.129547e-001
1.348055e+003;1.132353e-001
1.349984e+003;1.132383e-001
1.351912e+003;1.134208e-001
1.353841e+003;1.138609e-001
1.355769e+003;1.145255e-001
1.357698e+003;1.153197e-001
1.359626e+003;1.166283e-001
1.361555e+003;1.183653e-001
1.363483e+003;1.199619e-001
1.365412e+003;1.215203e-001
1.367341e+003;1.226973e-001
1.369269e+003;1.230644e-001
1.371198e+003;1.230337e-001
1.373126e+003;1.227692e-001
1.375055e+003;1.224646e-001
1.376983e+003;1.223711e-001
1.378912e+003;1.225653e-001
1.380840e+003;1.227788e-001
1.382769e+003;1.227896e-001
1.384698e+003;1.228260e-001
1.386626e+003;1.226998e-001
1.388555e+003;1.224911e-001
1.390483e+003;1.225229e-001
1.392412e+003;1.228251e-001
1.394340e+003;1.227827e-001
1.396269e+003;1.225487e-001
1.398197e+003;1.227282e-001
1.400126e+003;1.228998e-001
1.402054e+003;1.232689e-001
1.403983e+003;1.237563e-001
1.405911e+003;1.242678e-001
1.407840e+003;1.249178e-001
1.409769e+003;1.254633e-001
1.411697e+003;1.256010e-001
1.413626e+003;1.258292e-001
1.415554e+003;1.265717e-001
1.417483e+003;1.272021e-001
1.419411e+003;1.278276e-001
1.421340e+003;1.286930e-001
1.423268e+003;1.300006e-001
1.425197e+003;1.319332e-001
1.427125e+003;1.343445e-001
1.429054e+003;1.371554e-001
1.430983e+003;1.403671e-001
1.432911e+003;1.436253e-001
1.434840e+003;1.466020e-001
1.436768e+003;1.491305e-001
1.438697e+003;1.508506e-001
1.440625e+003;1.519129e-001
1.442554e+003;1.524511e-001
1.444482e+003;1.527409e-001
1.446411e+003;1.524629e-001
1.448340e+003;1.514111e-001
1.450268e+003;1.498408e-001
1.452197e+003;1.477075e-001
1.454125e+003;1.452660e-001
1.456054e+003;1.426789e-001
1.457982e+003;1.403760e-001
1.459911e+003;1.387257e-001
1.461839e+003;1.376151e-001
1.463768e+003;1.370395e-001
1.465697e+003;1.366369e-001
1.467625e+003;1.368200e-001
1.469554e+003;1.374958e-001
1.471482e+003;1.385432e-001
1.473411e+003;1.397939e-001
1.475339e+003;1.412414e-001
1.477268e+003;1.435164e-001
1.479196e+003;1.463602e-001
1.481125e+003;1.496385e-001
1.483053e+003;1.531953e-001
1.484982e+003;1.573036e-001
1.486911e+003;1.620846e-001
1.488839e+003;1.671921e-001
1.490768e+003;1.723357e-001
1.492696e+003;1.775753e-001
1.494625e+003;1.827631e-001
1.496553e+003;1.877253e-001
1.498482e+003;1.926511e-001
1.500410e+003;1.973879e-001
1.502339e+003;2.017372e-001
1.504267e+003;2.055213e-001
1.506196e+003;2.088979e-001
1.508125e+003;2.119486e-001
1.510053e+003;2.142833e-001
1.511982e+003;2.162711e-001
1.513910e+003;2.174268e-001
1.515839e+003;2.170521e-001
1.517767e+003;2.146656e-001
1.519696e+003;2.107884e-001
1.521624e+003;2.064277e-001
1.523553e+003;2.023185e-001
1.525481e+003;1.986079e-001
1.527410e+003;1.951849e-001
1.529339e+003;1.921392e-001
1.531267e+003;1.891741e-001
1.533196e+003;1.860215e-001
1.535124e+003;1.827029e-001
1.537053e+003;1.795285e-001
1.538981e+003;1.764641e-001
1.540910e+003;1.731484e-001
1.542838e+003;1.697899e-001
1.544767e+003;1.668708e-001
1.546695e+003;1.639648e-001
1.548624e+003;1.607638e-001
1.550553e+003;1.577545e-001
1.552481e+003;1.546954e-001
1.554410e+003;1.517322e-001
1.556338e+003;1.489208e-001
1.558267e+003;1.457999e-001
1.560195e+003;1.425546e-001
1.562124e+003;1.394774e-001
1.564052e+003;1.365242e-001
1.565981e+003;1.336984e-001
1.567910e+003;1.310315e-001
1.569838e+003;1.285351e-001
1.571767e+003;1.265360e-001
1.573695e+003;1.250045e-001
1.575624e+003;1.239396e-001
1.577552e+003;1.233236e-001
1.579481e+003;1.230375e-001
1.581409e+003;1.230699e-001
1.583338e+003;1.239417e-001
1.585266e+003;1.256841e-001
1.587195e+003;1.279860e-001
1.589124e+003;1.309218e-001
1.591052e+003;1.345368e-001
1.592981e+003;1.388279e-001
1.594909e+003;1.434389e-001
1.596838e+003;1.486629e-001
1.598766e+003;1.545099e-001
1.600695e+003;1.607793e-001
1.602623e+003;1.680085e-001
1.604552e+003;1.765730e-001
1.606480e+003;1.857412e-001
1.608409e+003;1.950259e-001
1.610338e+003;2.043036e-001
1.612266e+003;2.134807e-001
1.614195e+003;2.218049e-001
1.616123e+003;2.286513e-001
1.618052e+003;2.338761e-001
1.619980e+003;2.370627e-001
1.621909e+003;2.385014e-001
1.623837e+003;2.380966e-001
1.625766e+003;2.360486e-001
1.627694e+003;2.328057e-001
1.629623e+003;2.287954e-001
1.631552e+003;2.241028e-001
1.633480e+003;2.193062e-001
1.635409e+003;2.140147e-001
1.637337e+003;2.085278e-001
1.639266e+003;2.036039e-001
1.641194e+003;1.991367e-001
1.643123e+003;1.948481e-001
1.645051e+003;1.907059e-001
1.646980e+003;1.865053e-001
1.648909e+003;1.823426e-001
1.650837e+003;1.784373e-001
1.652766e+003;1.742114e-001
1.654694e+003;1.696522e-001
1.656623e+003;1.651781e-001
1.658551e+003;1.608723e-001
1.660480e+003;1.567366e-001
1.662408e+003;1.523584e-001
1.664337e+003;1.483126e-001
1.666266e+003;1.447635e-001
1.668194e+003;1.411323e-001
1.670123e+003;1.375585e-001
1.672051e+003;1.343164e-001
1.673980e+003;1.311498e-001
1.675908e+003;1.279284e-001
1.677837e+003;1.248992e-001
1.679765e+003;1.219641e-001
1.681694e+003;1.191213e-001
1.683622e+003;1.164520e-001
1.685551e+003;1.139668e-001
1.687479e+003;1.121267e-001
1.689408e+003;1.104706e-001
1.691337e+003;1.087643e-001
1.693265e+003;1.075704e-001
1.695194e+003;1.065390e-001
1.697122e+003;1.053265e-001
1.699051e+003;1.034583e-001
1.700979e+003;9.971861e-002
1.702908e+003;9.436200e-002
1.704836e+003;8.806267e-002
1.706765e+003;8.130368e-002
1.708693e+003;7.470827e-002
1.710622e+003;6.929166e-002
1.712551e+003;6.501760e-002
1.714479e+003;6.143117e-002
1.716408e+003;5.826070e-002
1.718336e+003;5.547230e-002
1.720265e+003;5.318666e-002
1.722193e+003;5.131945e-002
1.724122e+003;4.963326e-002
1.726050e+003;4.836567e-002
1.727979e+003;4.733799e-002
1.729908e+003;4.623035e-002
1.731836e+003;4.520660e-002
1.733765e+003;4.449445e-002
1.735693e+003;4.367596e-002
1.737622e+003;4.280127e-002
1.739550e+003;4.190735e-002
1.741479e+003;4.113680e-002
1.743407e+003;4.045486e-002
1.745336e+003;3.976157e-002
1.747265e+003;3.918189e-002
1.749193e+003;3.882899e-002
1.751122e+003;3.839209e-002
1.753050e+003;3.781294e-002
1.754979e+003;3.720661e-002
1.756907e+003;3.663750e-002
1.758836e+003;3.629858e-002
1.760764e+003;3.598944e-002
1.762693e+003;3.577643e-002
1.764621e+003;3.554698e-002
1.766550e+003;3.532469e-002
1.768479e+003;3.524566e-002
1.770407e+003;3.514822e-002
1.772336e+003;3.469721e-002
1.774264e+003;3.435610e-002
1.776193e+003;3.433907e-002
1.778121e+003;3.422139e-002
1.780050e+003;3.400602e-002
1.781978e+003;3.379326e-002
1.783907e+003;3.356936e-002
1.785835e+003;3.335646e-002
1.787764e+003;3.308920e-002
1.789693e+003;3.272649e-002
1.791621e+003;3.244862e-002
1.793550e+003;3.229030e-002
1.795478e+003;3.231585e-002
1.797407e+003;3.222731e-002
1.799335e+003;3.199609e-002
1.801264e+003;3.175507e-002
1.803192e+003;3.149368e-002
1.805121e+003;3.128745e-002
1.807049e+003;3.119043e-002
1.808978e+003;3.095531e-002
1.810907e+003;3.071698e-002
1.812835e+003;3.062033e-002
1.814764e+003;3.048215e-002
1.816692e+003;3.020298e-002
1.818621e+003;2.993130e-002
1.820549e+003;2.989435e-002
1.822478e+003;2.993545e-002
1.824406e+003;2.987142e-002
1.826335e+003;2.971201e-002
1.828264e+003;2.943776e-002
1.830192e+003;2.911068e-002
1.832121e+003;2.888593e-002
1.834049e+003;2.859833e-002
1.835978e+003;2.823281e-002
1.837906e+003;2.817472e-002
1.839835e+003;2.828270e-002
1.841763e+003;2.827828e-002
1.843692e+003;2.817005e-002
1.845620e+003;2.794585e-002
1.847549e+003;2.769214e-002
1.849478e+003;2.752457e-002
1.851406e+003;2.728013e-002
1.853335e+003;2.709385e-002
1.855263e+003;2.710027e-002
1.857192e+003;2.715321e-002
1.859120e+003;2.721339e-002
1.861049e+003;2.719624e-002
1.862977e+003;2.700506e-002
1.864906e+003;2.700516e-002
1.866834e+003;2.700276e-002
1.868763e+003;2.686429e-002
1.870692e+003;2.680151e-002
1.872620e+003;2.681092e-002
1.874549e+003;2.686355e-002
1.876477e+003;2.680782e-002
1.878406e+003;2.693521e-002
1.880334e+003;2.709554e-002
1.882263e+003;2.686316e-002
1.884191e+003;2.655509e-002
1.886120e+003;2.647560e-002
1.888048e+003;2.646898e-002
1.889977e+003;2.646155e-002
1.891906e+003;2.646553e-002
1.893834e+003;2.647454e-002
1.895763e+003;2.628058e-002
1.897691e+003;2.608955e-002
1.899620e+003;2.604557e-002
1.901548e+003;2.587254e-002
1.903477e+003;2.571059e-002
1.905405e+003;2.589737e-002
1.907334e+003;2.600550e-002
1.909262e+003;2.573239e-002
1.911191e+003;2.561087e-002
1.913120e+003;2.585130e-002
1.915048e+003;2.605795e-002
1.916977e+003;2.603910e-002
1.918905e+003;2.594732e-002
1.920834e+003;2.594063e-002
1.922762e+003;2.600307e-002
1.924691e+003;2.599906e-002
1.926619e+003;2.583101e-002
1.928548e+003;2.576642e-002
1.930477e+003;2.569463e-002
1.932405e+003;2.560345e-002
1.934334e+003;2.567797e-002
1.936262e+003;2.574838e-002
1.938191e+003;2.579261e-002
1.940119e+003;2.577978e-002
1.942048e+003;2.577293e-002
1.943976e+003;2.574603e-002
1.945905e+003;2.563709e-002
1.947833e+003;2.578446e-002
1.949762e+003;2.594179e-002
1.951691e+003;2.611365e-002
1.953619e+003;2.609659e-002
1.955548e+003;2.586474e-002
1.957476e+003;2.593152e-002
1.959405e+003;2.586182e-002
1.961333e+003;2.577271e-002
1.963262e+003;2.585598e-002
1.965190e+003;2.595291e-002
1.967119e+003;2.602386e-002
1.969047e+003;2.610193e-002
1.970976e+003;2.603157e-002
1.972905e+003;2.595421e-002
1.974833e+003;2.593652e-002
1.976762e+003;2.589642e-002
1.978690e+003;2.574617e-002
1.980619e+003;2.549068e-002
1.982547e+003;2.541423e-002
1.984476e+003;2.554648e-002
1.986404e+003;2.562236e-002
1.988333e+003;2.566721e-002
1.990261e+003;2.560879e-002
1.992190e+003;2.549346e-002
1.994119e+003;2.554771e-002
1.996047e+003;2.568018e-002
1.997976e+003;2.566310e-002
1.999904e+003;2.543236e-002
2.001833e+003;2.531812e-002
2.003761e+003;2.527331e-002
2.005690e+003;2.505843e-002
2.007618e+003;2.495275e-002
2.009547e+003;2.516505e-002
2.011476e+003;2.527278e-002
2.013404e+003;2.508665e-002
2.015333e+003;2.511256e-002
2.017261e+003;2.528455e-002
2.019190e+003;2.524680e-002
2.021118e+003;2.509842e-002
2.023047e+003;2.508700e-002
2.024975e+003;2.512102e-002
2.026904e+003;2.506612e-002
2.028833e+003;2.501003e-002
2.030761e+003;2.499532e-002
2.032690e+003;2.495205e-002
2.034618e+003;2.498069e-002
2.036547e+003;2.474950e-002
2.038475e+003;2.449309e-002
2.040404e+003;2.437182e-002
2.042332e+003;2.457948e-002
2.044261e+003;2.473445e-002
2.046189e+003;2.474245e-002
2.048118e+003;2.470317e-002
2.050047e+003;2.469549e-002
2.051975e+003;2.461819e-002
2.053904e+003;2.454810e-002
2.055832e+003;2.447087e-002
2.057761e+003;2.440315e-002
2.059689e+003;2.445948e-002
2.061618e+003;2.455171e-002
2.063546e+003;2.445071e-002
2.065475e+003;2.433547e-002
2.067404e+003;2.454999e-002
2.069332e+003;2.446950e-002
2.071260e+003;2.422279e-002
2.073189e+003;2.427226e-002
2.075118e+003;2.452097e-002
2.077046e+003;2.456619e-002
2.078975e+003;2.416817e-002
2.080903e+003;2.400829e-002
2.082832e+003;2.414810e-002
2.084760e+003;2.431354e-002
2.086689e+003;2.431396e-002
2.088617e+003;2.420478e-002
2.090546e+003;2.424952e-002
2.092475e+003;2.426956e-002
2.094403e+003;2.415949e-002
2.096332e+003;2.417770e-002
2.098260e+003;2.419911e-002
2.100189e+003;2.403182e-002
2.102117e+003;2.395212e-002
2.104046e+003;2.404888e-002
2.105974e+003;2.391998e-002
2.107903e+003;2.394558e-002
2.109832e+003;2.423922e-002
2.111760e+003;2.410446e-002
2.113688e+003;2.400524e-002
2.115617e+003;2.396515e-002
2.117546e+003;2.389040e-002
2.119474e+003;2.380272e-002
2.121403e+003;2.356376e-002
2.123331e+003;2.351916e-002
2.125260e+003;2.375396e-002
2.127188e+003;2.379050e-002
2.129117e+003;2.365150e-002
2.131045e+003;2.344551e-002
2.132974e+003;2.356775e-002
2.134903e+003;2.378662e-002
2.136831e+003;2.378483e-002
2.138760e+003;2.376422e-002
2.140688e+003;2.384524e-002
2.142617e+003;2.388382e-002
2.144545e+003;2.375939e-002
2.146474e+003;2.364451e-002
2.148402e+003;2.366571e-002
2.150331e+003;2.352766e-002
2.152260e+003;2.345519e-002
2.154188e+003;2.361092e-002
2.156117e+003;2.351150e-002
2.158045e+003;2.348170e-002
2.159974e+003;2.358115e-002
2.161902e+003;2.344747e-002
2.163831e+003;2.319465e-002
2.165759e+003;2.346733e-002
2.167688e+003;2.364780e-002
2.169616e+003;2.347296e-002
2.171545e+003;2.343998e-002
2.173474e+003;2.339767e-002
2.175402e+003;2.322017e-002
2.177331e+003;2.320144e-002
2.179259e+003;2.321493e-002
2.181188e+003;2.298059e-002
2.183116e+003;2.287469e-002
2.185045e+003;2.305138e-002
2.186973e+003;2.299425e-002
2.188902e+003;2.277715e-002
2.190831e+003;2.261767e-002
2.192759e+003;2.265565e-002
2.194688e+003;2.279153e-002
2.196616e+003;2.282625e-002
2.198545e+003;2.273350e-002
2.200473e+003;2.265146e-002
2.202402e+003;2.282715e-002
2.204330e+003;2.299900e-002
2.206259e+003;2.299425e-002
2.208188e+003;2.289938e-002
2.210116e+003;2.267199e-002
2.212044e+003;2.258975e-002
2.213973e+003;2.277854e-002
2.215902e+003;2.269587e-002
2.217830e+003;2.248809e-002
2.219759e+003;2.255240e-002
2.221687e+003;2.280658e-002
2.223616e+003;2.258936e-002
2.225544e+003;2.227475e-002
2.227473e+003;2.238010e-002
2.229401e+003;2.254588e-002
2.231330e+003;2.244597e-002
2.233259e+003;2.209308e-002
2.235187e+003;2.210002e-002
2.237116e+003;2.224340e-002
2.239044e+003;2.212292e-002
2.240973e+003;2.224326e-002
2.242901e+003;2.238139e-002
2.244830e+003;2.207840e-002
2.246758e+003;2.196989e-002
2.248687e+003;2.230674e-002
2.250615e+003;2.253764e-002
2.252544e+003;2.243048e-002
2.254473e+003;2.222795e-002
2.256401e+003;2.225393e-002
2.258330e+003;2.227988e-002
2.260258e+003;2.218680e-002
2.262187e+003;2.212739e-002
2.264115e+003;2.212362e-002
2.266044e+003;2.188765e-002
2.267972e+003;2.186238e-002
2.269901e+003;2.203615e-002
2.271830e+003;2.193535e-002
2.273758e+003;2.198275e-002
2.275687e+003;2.205344e-002
2.277615e+003;2.177315e-002
2.279544e+003;2.177173e-002
2.281472e+003;2.195536e-002
2.283401e+003;2.190692e-002
2.285329e+003;2.203120e-002
2.287258e+003;2.229851e-002
2.289187e+003;2.243711e-002
2.291115e+003;2.252549e-002
2.293043e+003;2.252092e-002
2.294972e+003;2.239158e-002
2.296901e+003;2.234999e-002
2.298829e+003;2.227790e-002
2.300758e+003;2.217310e-002
2.302686e+003;2.224365e-002
2.304615e+003;2.230165e-002
2.306543e+003;2.236259e-002
2.308472e+003;2.227413e-002
2.310400e+003;2.215936e-002
2.312329e+003;2.211198e-002
2.314258e+003;2.210598e-002
2.316186e+003;2.232983e-002
2.318115e+003;2.256458e-002
2.320043e+003;2.269370e-002
2.321972e+003;2.260549e-002
2.323900e+003;2.230161e-002
2.325829e+003;2.226837e-002
2.327757e+003;2.231434e-002
2.329686e+003;2.230716e-002
2.331615e+003;2.233967e-002
2.333543e+003;2.232620e-002
2.335472e+003;2.240058e-002
2.337400e+003;2.247681e-002
2.339329e+003;2.243435e-002
2.341257e+003;2.216968e-002
2.343186e+003;2.210316e-002
2.345114e+003;2.234061e-002
2.347043e+003;2.245637e-002
2.348971e+003;2.234975e-002
2.350900e+003;2.240344e-002
2.352829e+003;2.252867e-002
2.354757e+003;2.255847e-002
2.356686e+003;2.253963e-002
2.358614e+003;2.277128e-002
2.360543e+003;2.297958e-002
2.362471e+003;2.266092e-002
2.364400e+003;2.228100e-002
2.366328e+003;2.217767e-002
2.368257e+003;2.234427e-002
2.370186e+003;2.266664e-002
2.372114e+003;2.262043e-002
2.374042e+003;2.241638e-002
2.375971e+003;2.238254e-002
2.377900e+003;2.229896e-002
2.379828e+003;2.251719e-002
2.381757e+003;2.279771e-002
2.383685e+003;2.266633e-002
2.385614e+003;2.262140e-002
2.387542e+003;2.291255e-002
2.389471e+003;2.302409e-002
2.391399e+003;2.301602e-002
2.393328e+003;2.302954e-002
2.395257e+003;2.295478e-002
2.397185e+003;2.286945e-002
2.399114e+003;2.313692e-002
2.401042e+003;2.329267e-002
2.402971e+003;2.340662e-002
2.404899e+003;2.349132e-002
2.406828e+003;2.344509e-002
2.408756e+003;2.360686e-002
2.410685e+003;2.379407e-002
2.412614e+003;2.420163e-002
2.414542e+003;2.459281e-002
2.416471e+003;2.453296e-002
2.418399e+003;2.427853e-002
2.420328e+003;2.449716e-002
2.422256e+003;2.470001e-002
2.424185e+003;2.468251e-002
2.426113e+003;2.475988e-002
2.428042e+003;2.479230e-002
2.429970e+003;2.491527e-002
2.431899e+003;2.512513e-002
2.433828e+003;2.522348e-002
2.435756e+003;2.520223e-002
2.437685e+003;2.526583e-002
2.439613e+003;2.541567e-002
2.441542e+003;2.545765e-002
2.443470e+003;2.542105e-002
2.445399e+003;2.542635e-002
2.447327e+003;2.556876e-002
2.449256e+003;2.542003e-002
2.451185e+003;2.547916e-002
2.453113e+003;2.559094e-002
2.455042e+003;2.565312e-002
2.456970e+003;2.571530e-002
2.458899e+003;2.554975e-002
2.460827e+003;2.556469e-002
2.462756e+003;2.595316e-002
2.464684e+003;2.614522e-002
2.466613e+003;2.607495e-002
2.468542e+003;2.608776e-002
2.470470e+003;2.615331e-002
2.472398e+003;2.604856e-002
2.474327e+003;2.604631e-002
2.476256e+003;2.610169e-002
2.478184e+003;2.607456e-002
2.480113e+003;2.614764e-002
2.482041e+003;2.624964e-002
2.483970e+003;2.619480e-002
2.485898e+003;2.610303e-002
2.487827e+003;2.617573e-002
2.489755e+003;2.617636e-002
2.491684e+003;2.595551e-002
2.493613e+003;2.615975e-002
2.495541e+003;2.665898e-002
2.497470e+003;2.662590e-002
2.499398e+003;2.646852e-002
2.501327e+003;2.653297e-002
2.503255e+003;2.666729e-002
2.505184e+003;2.675690e-002
2.507112e+003;2.674918e-002
2.509041e+003;2.653720e-002
2.510969e+003;2.659852e-002
2.512898e+003;2.697875e-002
2.514827e+003;2.711427e-002
2.516755e+003;2.687310e-002
2.518684e+003;2.662480e-002
2.520612e+003;2.667434e-002
2.522541e+003;2.675172e-002
2.524469e+003;2.659898e-002
2.526398e+003;2.676891e-002
2.528326e+003;2.702082e-002
2.530255e+003;2.707752e-002
2.532184e+003;2.709473e-002
2.534112e+003;2.701860e-002
2.536041e+003;2.699903e-002
2.537969e+003;2.716971e-002
2.539898e+003;2.712436e-002
2.541826e+003;2.705696e-002
2.543755e+003;2.717003e-002
2.545683e+003;2.736884e-002
2.547612e+003;2.758423e-002
2.549541e+003;2.778115e-002
2.551469e+003;2.777790e-002
2.553397e+003;2.769627e-002
2.555326e+003;2.755228e-002
2.557255e+003;2.746516e-002
2.559183e+003;2.770104e-002
2.561112e+003;2.801738e-002
2.563040e+003;2.812006e-002
2.564969e+003;2.820583e-002
2.566897e+003;2.843628e-002
2.568826e+003;2.861227e-002
2.570754e+003;2.858283e-002
2.572683e+003;2.877415e-002
2.574612e+003;2.884737e-002
2.576540e+003;2.884751e-002
2.578469e+003;2.927572e-002
2.580397e+003;2.971428e-002
2.582326e+003;2.971531e-002
2.584254e+003;2.965627e-002
2.586183e+003;2.969523e-002
2.588111e+003;2.971925e-002
2.590040e+003;2.995235e-002
2.591969e+003;3.027541e-002
2.593897e+003;3.058353e-002
2.595826e+003;3.085278e-002
2.597754e+003;3.091955e-002
2.599683e+003;3.080187e-002
2.601611e+003;3.082727e-002
2.603540e+003;3.098670e-002
2.605468e+003;3.120239e-002
2.607397e+003;3.148378e-002
2.609325e+003;3.149318e-002
2.611254e+003;3.149240e-002
2.613183e+003;3.156786e-002
2.615111e+003;3.176110e-002
2.617040e+003;3.171868e-002
2.618968e+003;3.160185e-002
2.620897e+003;3.155984e-002
2.622825e+003;3.143593e-002
2.624754e+003;3.150551e-002
2.626682e+003;3.164882e-002
2.628611e+003;3.144416e-002
2.630540e+003;3.145235e-002
2.632468e+003;3.171134e-002
2.634396e+003;3.161675e-002
2.636325e+003;3.157199e-002
2.638254e+003;3.175739e-002
2.640182e+003;3.187918e-002
2.642111e+003;3.189238e-002
2.644039e+003;3.168977e-002
2.645968e+003;3.151470e-002
2.647896e+003;3.174175e-002
2.649825e+003;3.192600e-002
2.651753e+003;3.177672e-002
2.653682e+003;3.166255e-002
2.655611e+003;3.189758e-002
2.657539e+003;3.218506e-002
2.659468e+003;3.218766e-002
2.661396e+003;3.222263e-002
2.663325e+003;3.221410e-002
2.665253e+003;3.217749e-002
2.667182e+003;3.242866e-002
2.669110e+003;3.271605e-002
2.671039e+003;3.273095e-002
2.672968e+003;3.267740e-002
2.674896e+003;3.283568e-002
2.676825e+003;3.316934e-002
2.678753e+003;3.325490e-002
2.680682e+003;3.337410e-002
2.682610e+003;3.343096e-002
2.684539e+003;3.348747e-002
2.686467e+003;3.391637e-002
2.688396e+003;3.399609e-002
2.690324e+003;3.391469e-002
2.692253e+003;3.421529e-002
2.694182e+003;3.437188e-002
2.696110e+003;3.432006e-002
2.698039e+003;3.445398e-002
2.699967e+003;3.467776e-002
2.701896e+003;3.500576e-002
2.703824e+003;3.540848e-002
2.705753e+003;3.537160e-002
2.707681e+003;3.526205e-002
2.709610e+003;3.553734e-002
2.711539e+003;3.586289e-002
2.713467e+003;3.611188e-002
2.715396e+003;3.628907e-002
2.717324e+003;3.635554e-002
2.719253e+003;3.641625e-002
2.721181e+003;3.655561e-002
2.723110e+003;3.672288e-002
2.725038e+003;3.687565e-002
2.726967e+003;3.711327e-002
2.728896e+003;3.723040e-002
2.730824e+003;3.758949e-002
2.732752e+003;3.816650e-002
2.734681e+003;3.834218e-002
2.736610e+003;3.819204e-002
2.738538e+003;3.819892e-002
2.740467e+003;3.817435e-002
2.742395e+003;3.814480e-002
2.744324e+003;3.846503e-002
2.746252e+003;3.870118e-002
2.748181e+003;3.884297e-002
2.750109e+003;3.924742e-002
2.752038e+003;3.946675e-002
2.753967e+003;3.943504e-002
2.755895e+003;3.953523e-002
2.757824e+003;3.981655e-002
2.759752e+003;4.012131e-002
2.761681e+003;4.030709e-002
2.763609e+003;4.040420e-002
2.765538e+003;4.034730e-002
2.767466e+003;4.030283e-002
2.769395e+003;4.054092e-002
2.771323e+003;4.080742e-002
2.773252e+003;4.105139e-002
2.775181e+003;4.118591e-002
2.777109e+003;4.110887e-002
2.779038e+003;4.118704e-002
2.780966e+003;4.174310e-002
2.782895e+003;4.213956e-002
2.784823e+003;4.219444e-002
2.786752e+003;4.217013e-002
2.788680e+003;4.210094e-002
2.790609e+003;4.220960e-002
2.792538e+003;4.236124e-002
2.794466e+003;4.262385e-002
2.796395e+003;4.284285e-002
2.798323e+003;4.304432e-002
2.800252e+003;4.348101e-002
2.802180e+003;4.386532e-002
2.804109e+003;4.397171e-002
2.806037e+003;4.410119e-002
2.807966e+003;4.424788e-002
2.809895e+003;4.440713e-002
2.811823e+003;4.453054e-002
2.813751e+003;4.454871e-002
2.815680e+003;4.460900e-002
2.817609e+003;4.487805e-002
2.819537e+003;4.523079e-002
2.821466e+003;4.534885e-002
2.823394e+003;4.538118e-002
2.825323e+003;4.567205e-002
2.827251e+003;4.616512e-002
2.829180e+003;4.628235e-002
2.831108e+003;4.629010e-002
2.833037e+003;4.675915e-002
2.834966e+003;4.702089e-002
2.836894e+003;4.710467e-002
2.838823e+003;4.753187e-002
2.840751e+003;4.816060e-002
2.842680e+003;4.858295e-002
2.844608e+003;4.920797e-002
2.846537e+003;5.023786e-002
2.848465e+003;5.081622e-002
2.850394e+003;5.105761e-002
2.852323e+003;5.138901e-002
2.854251e+003;5.188746e-002
2.856180e+003;5.261184e-002
2.858108e+003;5.323962e-002
2.860037e+003;5.371744e-002
2.861965e+003;5.412424e-002
2.863894e+003;5.456505e-002
2.865822e+003;5.500240e-002
2.867751e+003;5.546270e-002
2.869679e+003;5.597014e-002
2.871608e+003;5.628834e-002
2.873536e+003;5.664928e-002
2.875465e+003;5.722467e-002
2.877394e+003;5.751028e-002
2.879322e+003;5.730055e-002
2.881251e+003;5.711461e-002
2.883179e+003;5.692298e-002
2.885108e+003;5.665377e-002
2.887036e+003;5.639600e-002
2.888965e+003;5.665362e-002
2.890893e+003;5.696495e-002
2.892822e+003;5.735363e-002
2.894750e+003;5.769714e-002
2.896679e+003;5.771871e-002
2.898608e+003;5.793765e-002
2.900536e+003;5.815337e-002
2.902465e+003;5.838181e-002
2.904393e+003;5.877458e-002
2.906322e+003;5.915501e-002
2.908250e+003;5.921679e-002
2.910179e+003;5.934414e-002
2.912107e+003;5.948623e-002
2.914036e+003;6.022394e-002
2.915965e+003;6.124384e-002
2.917893e+003;6.176382e-002
2.919822e+003;6.219850e-002
2.921750e+003;6.248292e-002
2.923679e+003;6.271155e-002
2.925607e+003;6.324334e-002
2.927536e+003;6.407443e-002
2.929464e+003;6.497296e-002
2.931393e+003;6.539234e-002
2.933322e+003;6.537446e-002
2.935250e+003;6.564197e-002
2.937178e+003;6.577873e-002
2.939107e+003;6.537327e-002
2.941036e+003;6.521380e-002
2.942964e+003;6.509385e-002
2.944893e+003;6.466945e-002
2.946821e+003;6.412889e-002
2.948750e+003;6.337091e-002
2.950678e+003;6.306354e-002
2.952607e+003;6.291200e-002
2.954535e+003;6.225934e-002
2.956464e+003;6.183415e-002
2.958393e+003;6.188550e-002
2.960321e+003;6.174274e-002
2.962250e+003;6.182670e-002
2.964178e+003;6.210136e-002
2.966107e+003;6.188462e-002
2.968035e+003;6.191676e-002
2.969964e+003;6.235400e-002
2.971892e+003;6.252424e-002
2.973821e+003;6.187939e-002
2.975750e+003;6.134583e-002
2.977678e+003;6.128841e-002
2.979607e+003;6.133210e-002
2.981535e+003;6.124720e-002
2.983464e+003;6.116281e-002
2.985392e+003;6.092173e-002
2.987321e+003;6.058405e-002
2.989249e+003;6.044434e-002
2.991178e+003;6.025781e-002
2.993106e+003;5.974009e-002
2.995035e+003;5.950067e-002
2.996964e+003;5.942399e-002
2.998892e+003;5.917111e-002
3.000821e+003;5.877826e-002
3.002749e+003;5.809220e-002
3.004678e+003;5.757837e-002
3.006606e+003;5.751534e-002
3.008535e+003;5.756085e-002
3.010463e+003;5.795465e-002
3.012392e+003;5.821360e-002
3.014321e+003;5.819459e-002
3.016249e+003;5.825494e-002
3.018177e+003;5.817557e-002
3.020106e+003;5.815155e-002
3.022035e+003;5.820341e-002
3.023963e+003;5.815189e-002
3.025892e+003;5.840380e-002
3.027820e+003;5.887850e-002
3.029749e+003;5.941472e-002
3.031677e+003;5.980830e-002
3.033606e+003;5.968949e-002
3.035534e+003;5.961970e-002
3.037463e+003;6.013370e-002
3.039392e+003;6.068074e-002
3.041320e+003;6.087621e-002
3.043249e+003;6.121168e-002
3.045177e+003;6.171352e-002
3.047106e+003;6.190724e-002
3.049034e+003;6.217510e-002
3.050963e+003;6.255099e-002
3.052891e+003;6.313473e-002
3.054820e+003;6.338287e-002
3.056749e+003;6.345710e-002
3.058677e+003;6.373210e-002
3.060606e+003;6.410105e-002
3.062534e+003;6.415985e-002
3.064463e+003;6.418128e-002
3.066391e+003;6.441627e-002
3.068320e+003;6.458043e-002
3.070248e+003;6.474052e-002
3.072177e+003;6.483310e-002
3.074105e+003;6.493579e-002
3.076034e+003;6.489931e-002
3.077963e+003;6.448698e-002
3.079891e+003;6.427159e-002
3.081820e+003;6.440358e-002
3.083748e+003;6.450939e-002
3.085677e+003;6.421980e-002
3.087605e+003;6.395951e-002
3.089534e+003;6.409406e-002
3.091462e+003;6.402121e-002
3.093391e+003;6.391210e-002
3.095320e+003;6.378207e-002
3.097248e+003;6.344395e-002
3.099177e+003;6.319275e-002
3.101105e+003;6.322341e-002
3.103034e+003;6.293759e-002
3.104962e+003;6.230577e-002
3.106891e+003;6.191446e-002
3.108819e+003;6.196085e-002
3.110748e+003;6.194056e-002
3.112677e+003;6.149671e-002
3.114605e+003;6.135163e-002
3.116533e+003;6.135755e-002
3.118462e+003;6.139610e-002
3.120391e+003;6.143033e-002
3.122319e+003;6.118730e-002
3.124248e+003;6.111109e-002
3.126176e+003;6.142804e-002
3.128105e+003;6.174175e-002
3.130033e+003;6.198015e-002
3.131962e+003;6.177475e-002
3.133890e+003;6.147938e-002
3.135819e+003;6.155001e-002
3.137748e+003;6.199586e-002
3.139676e+003;6.242905e-002
3.141605e+003;6.258344e-002
3.143533e+003;6.293992e-002
3.145462e+003;6.334269e-002
3.147390e+003;6.356384e-002
3.149319e+003;6.382374e-002
3.151247e+003;6.401019e-002
3.153176e+003;6.462946e-002
3.155104e+003;6.518516e-002
3.157033e+003;6.542785e-002
3.158962e+003;6.558389e-002
3.160890e+003;6.588565e-002
3.162819e+003;6.650930e-002
3.164747e+003;6.709440e-002
3.166676e+003;6.746687e-002
3.168604e+003;6.792179e-002
3.170533e+003;6.849735e-002
3.172461e+003;6.927910e-002
3.174390e+003;7.010397e-002
3.176319e+003;7.057656e-002
3.178247e+003;7.091020e-002
3.180176e+003;7.119507e-002
3.182104e+003;7.164336e-002
3.184033e+003;7.232598e-002
3.185961e+003;7.302720e-002
3.187890e+003;7.372869e-002
3.189818e+003;7.445959e-002
3.191747e+003;7.475931e-002
3.193676e+003;7.534228e-002
3.195604e+003;7.609521e-002
3.197532e+003;7.668397e-002
3.199461e+003;7.751777e-002
3.201390e+003;7.838182e-002
3.203318e+003;7.927178e-002
3.205247e+003;7.980748e-002
3.207175e+003;7.972451e-002
3.209104e+003;8.007992e-002
3.211032e+003;8.082978e-002
3.212961e+003;8.168298e-002
3.214889e+003;8.297063e-002
3.216818e+003;8.382752e-002
3.218747e+003;8.427742e-002
3.220675e+003;8.494898e-002
3.222604e+003;8.580527e-002
3.224532e+003;8.658232e-002
3.226461e+003;8.736064e-002
3.228389e+003;8.819304e-002
3.230318e+003;8.878255e-002
3.232246e+003;8.927864e-002
3.234175e+003;9.030029e-002
3.236104e+003;9.147592e-002
3.238032e+003;9.270391e-002
3.239961e+003;9.355378e-002
3.241889e+003;9.409621e-002
3.243818e+003;9.485140e-002
3.245746e+003;9.575237e-002
3.247675e+003;9.695119e-002
3.249603e+003;9.825132e-002
3.251532e+003;9.934822e-002
3.253460e+003;1.005093e-001
3.255389e+003;1.019635e-001
3.257318e+003;1.034112e-001
3.259246e+003;1.047920e-001
3.261175e+003;1.059829e-001
3.263103e+003;1.070185e-001
3.265032e+003;1.079918e-001
3.266960e+003;1.093911e-001
3.268889e+003;1.108350e-001
3.270817e+003;1.120082e-001
3.272746e+003;1.126573e-001
3.274675e+003;1.131034e-001
3.276603e+003;1.139381e-001
3.278531e+003;1.144074e-001
3.280460e+003;1.142330e-001
3.282389e+003;1.144599e-001
3.284317e+003;1.147378e-001
3.286246e+003;1.144851e-001
3.288174e+003;1.140958e-001
3.290103e+003;1.135827e-001
3.292031e+003;1.129151e-001
3.293960e+003;1.119683e-001
3.295888e+003;1.108634e-001
3.297817e+003;1.098110e-001
3.299746e+003;1.088367e-001
3.301674e+003;1.077417e-001
3.303603e+003;1.063716e-001
3.305531e+003;1.049290e-001
3.307460e+003;1.032798e-001
3.309388e+003;1.018384e-001
3.311317e+003;1.010426e-001
3.313245e+003;1.000254e-001
3.315174e+003;9.846783e-002
3.317103e+003;9.658889e-002
3.319031e+003;9.483713e-002
3.320960e+003;9.372964e-002
3.322888e+003;9.261454e-002
3.324817e+003;9.143604e-002
3.326745e+003;9.016068e-002
3.328674e+003;8.884857e-002
3.330602e+003;8.744270e-002
3.332531e+003;8.619907e-002
3.334459e+003;8.540146e-002
3.336388e+003;8.425248e-002
3.338317e+003;8.277369e-002
3.340245e+003;8.177885e-002
3.342174e+003;8.060924e-002
3.344102e+003;7.990986e-002
3.346031e+003;7.934933e-002
3.347959e+003;7.838786e-002
3.349888e+003;7.730215e-002
3.351816e+003;7.672615e-002
3.353745e+003;7.597955e-002
3.355674e+003;7.483493e-002
3.357602e+003;7.435919e-002
3.359531e+003;7.374208e-002
3.361459e+003;7.237659e-002
3.363388e+003;7.162809e-002
3.365316e+003;7.148170e-002
3.367245e+003;7.112201e-002
3.369173e+003;7.065975e-002
3.371102e+003;7.012232e-002
3.373031e+003;6.973709e-002
3.374959e+003;6.941935e-002
3.376887e+003;6.884917e-002
3.378816e+003;6.829225e-002
3.380745e+003;6.754521e-002
3.382673e+003;6.693360e-002
3.384602e+003;6.655819e-002
3.386530e+003;6.597154e-002
3.388459e+003;6.521430e-002
3.390387e+003;6.478875e-002
3.392316e+003;6.462784e-002
3.394244e+003;6.409298e-002
3.396173e+003;6.350309e-002
3.398102e+003;6.300546e-002
3.400030e+003;6.258027e-002
3.401959e+003;6.202139e-002
3.403887e+003;6.151523e-002
3.405816e+003;6.120737e-002
3.407744e+003;6.069846e-002
3.409673e+003;6.013979e-002
3.411601e+003;5.976404e-002
3.413530e+003;5.925431e-002
3.415458e+003;5.853341e-002
3.417387e+003;5.824160e-002
3.419316e+003;5.797597e-002
3.421244e+003;5.740494e-002
3.423173e+003;5.689997e-002
3.425101e+003;5.645335e-002
3.427030e+003;5.600742e-002
3.428958e+003;5.569090e-002
3.430887e+003;5.519176e-002
3.432815e+003;5.474031e-002
3.434744e+003;5.432895e-002
3.436673e+003;5.398150e-002
3.438601e+003;5.350211e-002
3.440530e+003;5.253850e-002
3.442458e+003;5.240330e-002
3.444387e+003;5.241010e-002
3.446315e+003;5.166695e-002
3.448244e+003;5.116383e-002
3.450172e+003;5.120085e-002
3.452101e+003;5.097238e-002
3.454030e+003;5.063948e-002
3.455958e+003;5.067675e-002
3.457886e+003;5.050145e-002
3.459815e+003;5.028860e-002
3.461744e+003;5.027997e-002
3.463672e+003;5.000748e-002
3.465601e+003;4.990890e-002
3.467529e+003;4.955330e-002
3.469458e+003;4.902859e-002
3.471386e+003;4.893523e-002
3.473315e+003;4.903456e-002
3.475243e+003;4.875325e-002
3.477172e+003;4.825190e-002
3.479101e+003;4.823628e-002
3.481029e+003;4.846838e-002
3.482958e+003;4.840985e-002
3.484886e+003;4.811877e-002
3.486815e+003;4.807413e-002
3.488743e+003;4.767280e-002
3.490672e+003;4.695366e-002
3.492600e+003;4.703872e-002
3.494529e+003;4.746171e-002
3.496458e+003;4.714341e-002
3.498386e+003;4.683565e-002
3.500315e+003;4.659843e-002
3.502243e+003;4.604375e-002
3.504172e+003;4.565998e-002
3.506100e+003;4.543510e-002
3.508029e+003;4.535510e-002
3.509957e+003;4.538478e-002
3.511886e+003;4.534451e-002
3.513814e+003;4.513075e-002
3.515743e+003;4.480652e-002
3.517672e+003;4.442897e-002
3.519600e+003;4.427371e-002
3.521529e+003;4.401446e-002
3.523457e+003;4.357532e-002
3.525386e+003;4.323999e-002
3.527314e+003;4.279692e-002
3.529243e+003;4.269144e-002
3.531171e+003;4.271118e-002
3.533100e+003;4.233333e-002
3.535029e+003;4.198493e-002
3.536957e+003;4.138001e-002
3.538885e+003;4.123888e-002
3.540814e+003;4.124169e-002
3.542743e+003;4.070515e-002
3.544671e+003;4.034941e-002
3.546600e+003;4.033773e-002
3.548528e+003;4.008907e-002
3.550457e+003;3.983678e-002
3.552385e+003;3.953421e-002
3.554314e+003;3.930295e-002
3.556242e+003;3.906463e-002
3.558171e+003;3.882504e-002
3.560100e+003;3.862439e-002
3.562028e+003;3.831171e-002
3.563957e+003;3.766956e-002
3.565885e+003;3.705250e-002
3.567814e+003;3.672541e-002
3.569742e+003;3.658812e-002
3.571671e+003;3.629959e-002
3.573599e+003;3.608707e-002
3.575528e+003;3.588179e-002
3.577457e+003;3.574941e-002
3.579385e+003;3.533296e-002
3.581314e+003;3.475226e-002
3.583242e+003;3.450739e-002
3.585171e+003;3.424143e-002
3.587099e+003;3.382173e-002
3.589028e+003;3.350536e-002
3.590956e+003;3.319234e-002
3.592885e+003;3.287832e-002
3.594813e+003;3.238450e-002
3.596742e+003;3.178388e-002
3.598671e+003;3.135807e-002
3.600599e+003;3.141435e-002
3.602528e+003;3.133389e-002
3.604456e+003;3.058332e-002
3.606385e+003;3.027637e-002
3.608313e+003;3.005158e-002
3.610242e+003;2.983986e-002
3.612170e+003;2.968125e-002
3.614099e+003;2.903341e-002
3.616028e+003;2.826742e-002
3.617956e+003;2.741765e-002
3.619885e+003;2.704723e-002
3.621813e+003;2.694889e-002
3.623742e+003;2.649465e-002
3.625670e+003;2.591475e-002
3.627599e+003;2.534004e-002
3.629527e+003;2.472597e-002
3.631456e+003;2.411311e-002
3.633385e+003;2.412344e-002
3.635313e+003;2.388739e-002
3.637241e+003;2.286515e-002
3.639170e+003;2.197118e-002
3.641099e+003;2.139401e-002
3.643027e+003;2.096317e-002
3.644956e+003;2.049545e-002
3.646884e+003;2.019923e-002
3.648813e+003;2.017944e-002
3.650741e+003;1.974291e-002
3.652670e+003;1.883879e-002
3.654598e+003;1.836824e-002
3.656527e+003;1.807809e-002
3.658456e+003;1.775382e-002
3.660384e+003;1.713266e-002
3.662313e+003;1.654391e-002
3.664241e+003;1.613660e-002
3.666170e+003;1.596520e-002
3.668098e+003;1.560967e-002
3.670027e+003;1.499030e-002
3.671955e+003;1.452468e-002
3.673884e+003;1.436365e-002
3.675813e+003;1.415311e-002
3.677741e+003;1.377748e-002
3.679669e+003;1.330175e-002
3.681598e+003;1.281808e-002
3.683527e+003;1.247998e-002
3.685455e+003;1.222114e-002
3.687384e+003;1.228664e-002
3.689312e+003;1.200475e-002
3.691241e+003;1.177019e-002
3.693169e+003;1.163424e-002
3.695098e+003;1.133661e-002
3.697026e+003;1.115918e-002
3.698955e+003;1.125557e-002
3.700884e+003;1.082893e-002
3.702812e+003;1.054133e-002
3.704741e+003;1.061993e-002
3.706669e+003;1.084575e-002
3.708598e+003;1.072078e-002
3.710526e+003;1.051621e-002
3.712455e+003;1.038750e-002
3.714383e+003;1.048423e-002
3.716312e+003;1.045986e-002
3.718240e+003;9.804804e-003
3.720169e+003;9.453095e-003
3.722098e+003;9.409040e-003
3.724026e+003;9.131277e-003
3.725955e+003;8.976934e-003
3.727883e+003;8.977713e-003
3.729812e+003;9.130938e-003
3.731740e+003;9.630404e-003
3.733669e+003;9.736316e-003
3.735597e+003;9.707685e-003
3.737526e+003;9.476867e-003
3.739455e+003;9.431456e-003
3.741383e+003;9.223461e-003
3.743312e+003;8.864512e-003
3.745240e+003;8.779503e-003
3.747169e+003;9.086376e-003
3.749097e+003;9.176927e-003
3.751026e+003;8.999227e-003
3.752954e+003;8.820315e-003
3.754883e+003;8.926097e-003
3.756812e+003;9.071557e-003
3.758740e+003;9.390655e-003
3.760668e+003;9.488516e-003
3.762597e+003;8.830662e-003
3.764526e+003;8.318570e-003
3.766454e+003;8.400144e-003
3.768383e+003;8.466630e-003
3.770311e+003;8.359473e-003
3.772240e+003;8.307627e-003
3.774168e+003;8.275880e-003
3.776097e+003;8.558572e-003
3.778025e+003;8.628598e-003
3.779954e+003;8.637285e-003
3.781883e+003;8.794244e-003
3.783811e+003;8.595375e-003
3.785740e+003;8.415278e-003
3.787668e+003;8.649250e-003
3.789597e+003;9.074804e-003
3.791525e+003;9.205354e-003
3.793454e+003;8.974973e-003
3.795382e+003;8.699109e-003
3.797311e+003;8.300298e-003
3.799240e+003;8.191629e-003
3.801168e+003;8.427305e-003
3.803097e+003;8.782816e-003
3.805025e+003;8.889672e-003
3.806954e+003;8.566920e-003
3.808882e+003;8.345219e-003
3.810811e+003;7.957431e-003
3.812739e+003;7.871453e-003
3.814668e+003;8.155603e-003
3.816596e+003;8.183424e-003
3.818525e+003;8.378423e-003
3.820454e+003;8.946932e-003
3.822382e+003;9.242990e-003
3.824311e+003;8.802089e-003
3.826239e+003;8.593348e-003
3.828168e+003;8.884261e-003
3.830096e+003;8.644484e-003
3.832025e+003;8.099765e-003
3.833953e+003;8.363661e-003
3.835882e+003;8.734469e-003
3.837811e+003;8.376666e-003
3.839739e+003;8.195410e-003
3.841667e+003;8.586656e-003
3.843596e+003;9.111109e-003
3.845525e+003;9.062286e-003
3.847453e+003;8.661959e-003
3.849382e+003;8.779672e-003
3.851310e+003;9.145218e-003
3.853239e+003;9.328361e-003
3.855167e+003;9.417675e-003
3.857096e+003;9.144271e-003
3.859024e+003;9.202274e-003
3.860953e+003;8.917168e-003
3.862882e+003;8.743868e-003
3.864810e+003;8.871580e-003
3.866739e+003;8.993950e-003
3.868667e+003;9.211514e-003
3.870596e+003;9.082451e-003
3.872524e+003;9.166097e-003
3.874453e+003;9.357069e-003
3.876381e+003;9.460375e-003
3.878310e+003;9.602558e-003
3.880239e+003;9.542095e-003
3.882167e+003;9.644633e-003
3.884096e+003;9.924658e-003
3.886024e+003;1.010135e-002
3.887953e+003;9.936421e-003
3.889881e+003;9.700501e-003
3.891810e+003;1.002773e-002
3.893738e+003;1.032819e-002
3.895667e+003;1.070428e-002
3.897595e+003;1.083953e-002
3.899524e+003;1.057114e-002
3.901453e+003;1.058560e-002
3.903381e+003;1.086661e-002
3.905310e+003;1.070465e-002
3.907238e+003;1.065055e-002
3.909167e+003;1.083814e-002
3.911095e+003;1.053148e-002
3.913024e+003;1.023773e-002
3.914952e+003;1.073379e-002
3.916881e+003;1.108188e-002
3.918810e+003;1.110404e-002
3.920738e+003;1.107406e-002
3.922667e+003;1.053057e-002
3.924595e+003;1.035968e-002
3.926524e+003;1.047099e-002
3.928452e+003;1.050935e-002
3.930381e+003;1.120345e-002
3.932309e+003;1.150714e-002
3.934238e+003;1.126027e-002
3.936167e+003;1.133372e-002
3.938095e+003;1.159854e-002
3.940023e+003;1.163206e-002
3.941952e+003;1.185718e-002
3.943881e+003;1.202427e-002
3.945809e+003;1.172178e-002
3.947738e+003;1.182674e-002
3.949666e+003;1.237537e-002
3.951595e+003;1.197757e-002
3.953523e+003;1.158857e-002
3.955452e+003;1.177741e-002
3.957380e+003;1.209387e-002
3.959309e+003;1.205503e-002
3.961238e+003;1.209625e-002
3.963166e+003;1.225610e-002
3.965095e+003;1.223354e-002
3.967023e+003;1.194279e-002
3.968952e+003;1.181084e-002
3.970880e+003;1.180655e-002
3.972809e+003;1.176004e-002
3.974737e+003;1.187611e-002
3.976666e+003;1.182429e-002
3.978594e+003;1.177434e-002
3.980523e+003;1.211247e-002
3.982452e+003;1.225119e-002
3.984380e+003;1.194613e-002
3.986309e+003;1.193533e-002
3.988237e+003;1.202117e-002
3.990166e+003;1.181380e-002
3.992094e+003;1.170411e-002
3.994023e+003;1.190056e-002
3.995951e+003;1.162345e-002
3.997880e+003;1.147992e-002
3.999809e+003;1.182299e-002
4.001737e+003;0.000000e+000
