3.992094e+002;0.000000e+000
4.011380e+002;0.000000e+000
4.030665e+002;0.000000e+000
4.049951e+002;0.000000e+000
4.069236e+002;0.000000e+000
4.088522e+002;0.000000e+000
4.107807e+002;0.000000e+000
4.127093e+002;0.000000e+000
4.146378e+002;0.000000e+000
4.165664e+002;0.000000e+000
4.184949e+002;0.000000e+000
4.204235e+002;0.000000e+000
4.223520e+002;0.000000e+000
4.242806e+002;0.000000e+000
4.262091e+002;0.000000e+000
4.281377e+002;0.000000e+000
4.300662e+002;0.000000e+000
4.319948e+002;0.000000e+000
4.339233e+002;0.000000e+000
4.358519e+002;0.000000e+000
4.377804e+002;0.000000e+000
4.397090e+002;0.000000e+000
4.416375e+002;0.000000e+000
4.435660e+002;0.000000e+000
4.454946e+002;0.000000e+000
4.474232e+002;0.000000e+000
4.493517e+002;0.000000e+000
4.512802e+002;0.000000e+000
4.532088e+002;0.000000e+000
4.551373e+002;0.000000e+000
4.570659e+002;0.000000e+000
4.589944e+002;0.000000e+000
4.609230e+002;0.000000e+000
4.628515e+002;0.000000e+000
4.647801e+002;0.000000e+000
4.667086e+002;0.000000e+000
4.686372e+002;0.000000e+000
4.705657e+002;0.000000e+000
4.724943e+002;0.000000e+000
4.744228e+002;0.000000e+000
4.763513e+002;0.000000e+000
4.782799e+002;0.000000e+000
4.802085e+002;0.000000e+000
4.821370e+002;0.000000e+000
4.840656e+002;0.000000e+000
4.859941e+002;0.000000e+000
4.879226e+002;0.000000e+000
4.898512e+002;0.000000e+000
4.917798e+002;0.000000e+000
4.937083e+002;0.000000e+000
4.956368e+002;0.000000e+000
4.975654e+002;0.000000e+000
4.994939e+002;0.000000e+000
5.014225e+002;0.000000e+000
5.033510e+002;0.000000e+000
5.052796e+002;0.000000e+000
5.072081e+002;0.000000e+000
5.091367e+002;0.000000e+000
5.110652e+002;0.000000e+000
5.129938e+002;0.000000e+000
5.149223e+002;0.000000e+000
5.168509e+002;0.000000e+000
5.187794e+002;0.000000e+000
5.207079e+002;0.000000e+000
5.226365e+002;0.000000e+000
5.245651e+002;0.000000e+000
5.264936e+002;0.000000e+000
5.284222e+002;0.000000e+000
5.303507e+002;0.000000e+000
5.322792e+002;0.000000e+000
5.342078e+002;0.000000e+000
5.361364e+002;0.000000e+000
5.380649e+002;0.000000e+000
5.399935e+002;0.000000e+000
5.419220e+002;0.000000e+000
5.438505e+002;0.000000e+000
5.457791e+002;0.000000e+000
5.477076e+002;0.000000e+000
5.496362e+002;0.000000e+000
5.515648e+002;0.000000e+000
5.534933e+002;0.000000e+000
5.554218e+002;0.000000e+000
5.573504e+002;0.000000e+000
5.592789e+002;0.000000e+000
5.612075e+002;0.000000e+000
5.631360e+002;0.000000e+000
5.650646e+002;0.000000e+000
5.669931e+002;0.000000e+000
5.689217e+002;0.000000e+000
5.708502e+002;0.000000e+000
5.727787e+002;0.000000e+000
5.747073e+002;0.000000e+000
5.766359e+002;0.000000e+000
5.785644e+002;0.000000e+000
5.804930e+002;0.000000e+000
5.824215e+002;0.000000e+000
5.843500e+002;0.000000e+000
5.862786e+002;0.000000e+000
5.882072e+002;0.000000e+000
5.901357e+002;0.000000e+000
5.920643e+002;0.000000e+000
5.939928e+002;0.000000e+000
5.959213e+002;0.000000e+000
5.978499e+002;0.000000e+000
5.997784e+002;1.691155e-001
6.017070e+002;1.674972e-001
6.036355e+002;1.691441e-001
6.055641e+002;1.712540e-001
6.074926e+002;1.753903e-001
6.094211e+002;1.765250e-001
6.113497e+002;1.695083e-001
6.132783e+002;1.665687e-001
6.152068e+002;1.679104e-001
6.171354e+002;1.690323e-001
6.190639e+002;1.694969e-001
6.209924e+002;1.682565e-001
6.229210e+002;1.675790e-001
6.248495e+002;1.694427e-001
6.267781e+002;1.717285e-001
6.287067e+002;1.711565e-001
6.306352e+002;1.696386e-001
6.325637e+002;1.687982e-001
6.344923e+002;1.677799e-001
6.364208e+002;1.688610e-001
6.383494e+002;1.679203e-001
6.402780e+002;1.660824e-001
6.422065e+002;1.646055e-001
6.441350e+002;1.653403e-001
6.460636e+002;1.641615e-001
6.479921e+002;1.622711e-001
6.499207e+002;1.617919e-001
6.518492e+002;1.613832e-001
6.537778e+002;1.597181e-001
6.557063e+002;1.580313e-001
6.576349e+002;1.592970e-001
6.595634e+002;1.611700e-001
6.614919e+002;1.630600e-001
6.634205e+002;1.622153e-001
6.653491e+002;1.610387e-001
6.672776e+002;1.618645e-001
6.692062e+002;1.630034e-001
6.711347e+002;1.623463e-001
6.730632e+002;1.599929e-001
6.749918e+002;1.600979e-001
6.769203e+002;1.606795e-001
6.788489e+002;1.609563e-001
6.807775e+002;1.616841e-001
6.827060e+002;1.636008e-001
6.846345e+002;1.643706e-001
6.865631e+002;1.638773e-001
6.884916e+002;1.634587e-001
6.904202e+002;1.627441e-001
6.923488e+002;1.625013e-001
6.942773e+002;1.614056e-001
6.962058e+002;1.606907e-001
6.981344e+002;1.605920e-001
7.000629e+002;1.587589e-001
7.019915e+002;1.569501e-001
7.039200e+002;1.556970e-001
7.058486e+002;1.546379e-001
7.077771e+002;1.539049e-001
7.097057e+002;1.525040e-001
7.116342e+002;1.505602e-001
7.135627e+002;1.488231e-001
7.154913e+002;1.475900e-001
7.174199e+002;1.460897e-001
7.193484e+002;1.440333e-001
7.212770e+002;1.414390e-001
7.232055e+002;1.395253e-001
7.251340e+002;1.392680e-001
7.270626e+002;1.384160e-001
7.289911e+002;1.361030e-001
7.309197e+002;1.340292e-001
7.328483e+002;1.327936e-001
7.347768e+002;1.308360e-001
7.367053e+002;1.290910e-001
7.386339e+002;1.271052e-001
7.405624e+002;1.247927e-001
7.424910e+002;1.230846e-001
7.444196e+002;1.213946e-001
7.463481e+002;1.204143e-001
7.482766e+002;1.188694e-001
7.502052e+002;1.173036e-001
7.521337e+002;1.164522e-001
7.540623e+002;1.160532e-001
7.559908e+002;1.155097e-001
7.579194e+002;1.145899e-001
7.598479e+002;1.136766e-001
7.617765e+002;1.132005e-001
7.637050e+002;1.128239e-001
7.656335e+002;1.123224e-001
7.675621e+002;1.115464e-001
7.694907e+002;1.108086e-001
7.714192e+002;1.097874e-001
7.733478e+002;1.085114e-001
7.752763e+002;1.072803e-001
7.772048e+002;1.068453e-001
7.791334e+002;1.058491e-001
7.810620e+002;1.040096e-001
7.829905e+002;1.028177e-001
7.849191e+002;1.027966e-001
7.868476e+002;1.028812e-001
7.887761e+002;1.022946e-001
7.907047e+002;1.012781e-001
7.926332e+002;1.001947e-001
7.945618e+002;9.899125e-002
7.964903e+002;9.937380e-002
7.984189e+002;9.978490e-002
8.003474e+002;9.945820e-002
8.022759e+002;9.910709e-002
8.042045e+002;9.944224e-002
8.061331e+002;9.942486e-002
8.080616e+002;9.941320e-002
8.099902e+002;9.910118e-002
8.119187e+002;9.841878e-002
8.138472e+002;9.826511e-002
8.157758e+002;9.877357e-002
8.177043e+002;9.890433e-002
8.196329e+002;9.899916e-002
8.215615e+002;9.936788e-002
8.234900e+002;9.978619e-002
8.254185e+002;1.004587e-001
8.273471e+002;1.005597e-001
8.292756e+002;1.000256e-001
8.312042e+002;9.940220e-002
8.331328e+002;9.860028e-002
8.350613e+002;9.803895e-002
8.369898e+002;9.757079e-002
8.389184e+002;9.676615e-002
8.408469e+002;9.600855e-002
8.427755e+002;9.534002e-002
8.447040e+002;9.488165e-002
8.466326e+002;9.541642e-002
8.485611e+002;9.645814e-002
8.504897e+002;9.689096e-002
8.524182e+002;9.626839e-002
8.543467e+002;9.562788e-002
8.562753e+002;9.484678e-002
8.582039e+002;9.381422e-002
8.601324e+002;9.362813e-002
8.620610e+002;9.355933e-002
8.639895e+002;9.286162e-002
8.659180e+002;9.271900e-002
8.678466e+002;9.308633e-002
8.697751e+002;9.397763e-002
8.717037e+002;9.577174e-002
8.736323e+002;9.752716e-002
8.755608e+002;9.817326e-002
8.774893e+002;9.760389e-002
8.794179e+002;9.588870e-002
8.813464e+002;9.397475e-002
8.832750e+002;9.229867e-002
8.852036e+002;9.128376e-002
8.871321e+002;9.059034e-002
8.890606e+002;9.050801e-002
8.909892e+002;9.063517e-002
8.929177e+002;9.047382e-002
8.948463e+002;9.018515e-002
8.967748e+002;9.029993e-002
8.987034e+002;9.051932e-002
9.006319e+002;9.060006e-002
9.025605e+002;9.070885e-002
9.044890e+002;9.066533e-002
9.064175e+002;9.026044e-002
9.083461e+002;9.004379e-002
9.102747e+002;9.025694e-002
9.122032e+002;9.040004e-002
9.141318e+002;9.072959e-002
9.160603e+002;9.141976e-002
9.179888e+002;9.228929e-002
9.199174e+002;9.292846e-002
9.218459e+002;9.359246e-002
9.237745e+002;9.437398e-002
9.257031e+002;9.500588e-002
9.276316e+002;9.535236e-002
9.295601e+002;9.558820e-002
9.314887e+002;9.554926e-002
9.334172e+002;9.519152e-002
9.353458e+002;9.508184e-002
9.372744e+002;9.493876e-002
9.392029e+002;9.464105e-002
9.411314e+002;9.487679e-002
9.430600e+002;9.516454e-002
9.449885e+002;9.531382e-002
9.469171e+002;9.598222e-002
9.488456e+002;9.669048e-002
9.507742e+002;9.732596e-002
9.527027e+002;9.800079e-002
9.546313e+002;9.857038e-002
9.565598e+002;9.878060e-002
9.584883e+002;9.953135e-002
9.604169e+002;1.006033e-001
9.623455e+002;1.014258e-001
9.642740e+002;1.021903e-001
9.662026e+002;1.033341e-001
9.681311e+002;1.046701e-001
9.700596e+002;1.059460e-001
9.719882e+002;1.070561e-001
9.739167e+002;1.075117e-001
9.758453e+002;1.075181e-001
9.777739e+002;1.070663e-001
9.797024e+002;1.061450e-001
9.816309e+002;1.054624e-001
9.835595e+002;1.051664e-001
9.854880e+002;1.050320e-001
9.874166e+002;1.055404e-001
9.893452e+002;1.065110e-001
9.912737e+002;1.077451e-001
9.932022e+002;1.090169e-001
9.951307e+002;1.096619e-001
9.970593e+002;1.101018e-001
9.989879e+002;1.098279e-001
1.000916e+003;1.089786e-001
1.002845e+003;1.082171e-001
1.004773e+003;1.073136e-001
1.006702e+003;1.069452e-001
1.008631e+003;1.068975e-001
1.010559e+003;1.068771e-001
1.012488e+003;1.072631e-001
1.014416e+003;1.070723e-001
1.016345e+003;1.063622e-001
1.018273e+003;1.056706e-001
1.020202e+003;1.057831e-001
1.022130e+003;1.062949e-001
1.024059e+003;1.068311e-001
1.025988e+003;1.078589e-001
1.027916e+003;1.089922e-001
1.029845e+003;1.100204e-001
1.031773e+003;1.111676e-001
1.033702e+003;1.123105e-001
1.035630e+003;1.130548e-001
1.037559e+003;1.137083e-001
1.039487e+003;1.141377e-001
1.041416e+003;1.145788e-001
1.043344e+003;1.151466e-001
1.045273e+003;1.155097e-001
1.047202e+003;1.157724e-001
1.049130e+003;1.160428e-001
1.051059e+003;1.165444e-001
1.052987e+003;1.169225e-001
1.054916e+003;1.175694e-001
1.056844e+003;1.181876e-001
1.058773e+003;1.186708e-001
1.060701e+003;1.190543e-001
1.062630e+003;1.194139e-001
1.064558e+003;1.199342e-001
1.066487e+003;1.197724e-001
1.068416e+003;1.191102e-001
1.070344e+003;1.186448e-001
1.072273e+003;1.179371e-001
1.074201e+003;1.168277e-001
1.076130e+003;1.155142e-001
1.078058e+003;1.138616e-001
1.079987e+003;1.122164e-001
1.081915e+003;1.102177e-001
1.083844e+003;1.084706e-001
1.085773e+003;1.075505e-001
1.087701e+003;1.065565e-001
1.089630e+003;1.051252e-001
1.091558e+003;1.039773e-001
1.093487e+003;1.034565e-001
1.095415e+003;1.033776e-001
1.097344e+003;1.035277e-001
1.099272e+003;1.037104e-001
1.101201e+003;1.040111e-001
1.103129e+003;1.039603e-001
1.105058e+003;1.035900e-001
1.106987e+003;1.031449e-001
1.108915e+003;1.028295e-001
1.110844e+003;1.028548e-001
1.112772e+003;1.032489e-001
1.114701e+003;1.030048e-001
1.116629e+003;1.024741e-001
1.118558e+003;1.026162e-001
1.120486e+003;1.029627e-001
1.122415e+003;1.036144e-001
1.124344e+003;1.040616e-001
1.126272e+003;1.038839e-001
1.128201e+003;1.039040e-001
1.130129e+003;1.041084e-001
1.132058e+003;1.045839e-001
1.133986e+003;1.055770e-001
1.135915e+003;1.063861e-001
1.137843e+003;1.072581e-001
1.139772e+003;1.081563e-001
1.141700e+003;1.094810e-001
1.143629e+003;1.108080e-001
1.145557e+003;1.118649e-001
1.147486e+003;1.134835e-001
1.149415e+003;1.150071e-001
1.151343e+003;1.163188e-001
1.153272e+003;1.174219e-001
1.155200e+003;1.184118e-001
1.157129e+003;1.197454e-001
1.159057e+003;1.205837e-001
1.160986e+003;1.211399e-001
1.162914e+003;1.216288e-001
1.164843e+003;1.216079e-001
1.166771e+003;1.215927e-001
1.168700e+003;1.215073e-001
1.170629e+003;1.212124e-001
1.172557e+003;1.207574e-001
1.174486e+003;1.201747e-001
1.176414e+003;1.191801e-001
1.178343e+003;1.179580e-001
1.180271e+003;1.175000e-001
1.182200e+003;1.174872e-001
1.184128e+003;1.176701e-001
1.186057e+003;1.182409e-001
1.187986e+003;1.189292e-001
1.189914e+003;1.196361e-001
1.191843e+003;1.205281e-001
1.193771e+003;1.218366e-001
1.195700e+003;1.236564e-001
1.197628e+003;1.253622e-001
1.199557e+003;1.270113e-001
1.201485e+003;1.290005e-001
1.203414e+003;1.316129e-001
1.205343e+003;1.345184e-001
1.207271e+003;1.371345e-001
1.209200e+003;1.396467e-001
1.211128e+003;1.423090e-001
1.213057e+003;1.448615e-001
1.214985e+003;1.471969e-001
1.216914e+003;1.491672e-001
1.218842e+003;1.506884e-001
1.220771e+003;1.517395e-001
1.222699e+003;1.527783e-001
1.224628e+003;1.538487e-001
1.226557e+003;1.543040e-001
1.228485e+003;1.542033e-001
1.230414e+003;1.539040e-001
1.232342e+003;1.531231e-001
1.234271e+003;1.517931e-001
1.236199e+003;1.502288e-001
1.238128e+003;1.488062e-001
1.240056e+003;1.476811e-001
1.241985e+003;1.462842e-001
1.243913e+003;1.450962e-001
1.245842e+003;1.442544e-001
1.247771e+003;1.434541e-001
1.249699e+003;1.430157e-001
1.251628e+003;1.427991e-001
1.253556e+003;1.428104e-001
1.255485e+003;1.430001e-001
1.257413e+003;1.430213e-001
1.259342e+003;1.430372e-001
1.261270e+003;1.427376e-001
1.263199e+003;1.418006e-001
1.265127e+003;1.402757e-001
1.267056e+003;1.381651e-001
1.268985e+003;1.359370e-001
1.270913e+003;1.337108e-001
1.272842e+003;1.313485e-001
1.274770e+003;1.292886e-001
1.276699e+003;1.277747e-001
1.278627e+003;1.262563e-001
1.280556e+003;1.250287e-001
1.282484e+003;1.241913e-001
1.284413e+003;1.234399e-001
1.286342e+003;1.226505e-001
1.288270e+003;1.222587e-001
1.290199e+003;1.221988e-001
1.292127e+003;1.220596e-001
1.294056e+003;1.220570e-001
1.295984e+003;1.219186e-001
1.297913e+003;1.216419e-001
1.299841e+003;1.217153e-001
1.301770e+003;1.217287e-001
1.303698e+003;1.214370e-001
1.305627e+003;1.210262e-001
1.307556e+003;1.208800e-001
1.309484e+003;1.208318e-001
1.311413e+003;1.207759e-001
1.313341e+003;1.206286e-001
1.315270e+003;1.203741e-001
1.317198e+003;1.202523e-001
1.319127e+003;1.203631e-001
1.321055e+003;1.206526e-001
1.322984e+003;1.210197e-001
1.324912e+003;1.213786e-001
1.326841e+003;1.217208e-001
1.328770e+003;1.219067e-001
1.330698e+003;1.219359e-001
1.332627e+003;1.219776e-001
1.334555e+003;1.219912e-001
1.336484e+003;1.217278e-001
1.338412e+003;1.215306e-001
1.340341e+003;1.214140e-001
1.342269e+003;1.211814e-001
1.344198e+003;1.209635e-001
1.346126e+003;1.207278e-001
1.348055e+003;1.205816e-001
1.349984e+003;1.207034e-001
1.351912e+003;1.207073e-001
1.353841e+003;1.207274e-001
1.355769e+003;1.213635e-001
1.357698e+003;1.224290e-001
1.359626e+003;1.237253e-001
1.361555e+003;1.253517e-001
1.363483e+003;1.270523e-001
1.365412e+003;1.283715e-001
1.367341e+003;1.290724e-001
1.369269e+003;1.291317e-001
1.371198e+003;1.286362e-001
1.373126e+003;1.283245e-001
1.375055e+003;1.283218e-001
1.376983e+003;1.281990e-001
1.378912e+003;1.283142e-001
1.380840e+003;1.290197e-001
1.382769e+003;1.296704e-001
1.384698e+003;1.303160e-001
1.386626e+003;1.309401e-001
1.388555e+003;1.313544e-001
1.390483e+003;1.320226e-001
1.392412e+003;1.328909e-001
1.394340e+003;1.338415e-001
1.396269e+003;1.349758e-001
1.398197e+003;1.363311e-001
1.400126e+003;1.377898e-001
1.402054e+003;1.391650e-001
1.403983e+003;1.405588e-001
1.405911e+003;1.416990e-001
1.407840e+003;1.422724e-001
1.409769e+003;1.427341e-001
1.411697e+003;1.429503e-001
1.413626e+003;1.426784e-001
1.415554e+003;1.423240e-001
1.417483e+003;1.422920e-001
1.419411e+003;1.424843e-001
1.421340e+003;1.429787e-001
1.423268e+003;1.437862e-001
1.425197e+003;1.450037e-001
1.427125e+003;1.468855e-001
1.429054e+003;1.491677e-001
1.430983e+003;1.520379e-001
1.432911e+003;1.554900e-001
1.434840e+003;1.588818e-001
1.436768e+003;1.615526e-001
1.438697e+003;1.631545e-001
1.440625e+003;1.637553e-001
1.442554e+003;1.637740e-001
1.444482e+003;1.634963e-001
1.446411e+003;1.625638e-001
1.448340e+003;1.605275e-001
1.450268e+003;1.576650e-001
1.452197e+003;1.543507e-001
1.454125e+003;1.507434e-001
1.456054e+003;1.473872e-001
1.457982e+003;1.445740e-001
1.459911e+003;1.428676e-001
1.461839e+003;1.418738e-001
1.463768e+003;1.411672e-001
1.465697e+003;1.407426e-001
1.467625e+003;1.408254e-001
1.469554e+003;1.411354e-001
1.471482e+003;1.419721e-001
1.473411e+003;1.431732e-001
1.475339e+003;1.445384e-001
1.477268e+003;1.463006e-001
1.479196e+003;1.485940e-001
1.481125e+003;1.513337e-001
1.483053e+003;1.543020e-001
1.484982e+003;1.576295e-001
1.486911e+003;1.612881e-001
1.488839e+003;1.651323e-001
1.490768e+003;1.689892e-001
1.492696e+003;1.731428e-001
1.494625e+003;1.777104e-001
1.496553e+003;1.820175e-001
1.498482e+003;1.859534e-001
1.500410e+003;1.896712e-001
1.502339e+003;1.933233e-001
1.504267e+003;1.963858e-001
1.506196e+003;1.990089e-001
1.508125e+003;2.015444e-001
1.510053e+003;2.036916e-001
1.511982e+003;2.053949e-001
1.513910e+003;2.057685e-001
1.515839e+003;2.038563e-001
1.517767e+003;2.003768e-001
1.519696e+003;1.965326e-001
1.521624e+003;1.929230e-001
1.523553e+003;1.897314e-001
1.525481e+003;1.867144e-001
1.527410e+003;1.835639e-001
1.529339e+003;1.804775e-001
1.531267e+003;1.776155e-001
1.533196e+003;1.743865e-001
1.535124e+003;1.711588e-001
1.537053e+003;1.679189e-001
1.538981e+003;1.645935e-001
1.540910e+003;1.613977e-001
1.542838e+003;1.585208e-001
1.544767e+003;1.560388e-001
1.546695e+003;1.535686e-001
1.548624e+003;1.512338e-001
1.550553e+003;1.488711e-001
1.552481e+003;1.464160e-001
1.554410e+003;1.439624e-001
1.556338e+003;1.414335e-001
1.558267e+003;1.391085e-001
1.560195e+003;1.366185e-001
1.562124e+003;1.340200e-001
1.564052e+003;1.316617e-001
1.565981e+003;1.293074e-001
1.567910e+003;1.270079e-001
1.569838e+003;1.249391e-001
1.571767e+003;1.233546e-001
1.573695e+003;1.221879e-001
1.575624e+003;1.216651e-001
1.577552e+003;1.216792e-001
1.579481e+003;1.219927e-001
1.581409e+003;1.226879e-001
1.583338e+003;1.239824e-001
1.585266e+003;1.257563e-001
1.587195e+003;1.279037e-001
1.589124e+003;1.302002e-001
1.591052e+003;1.328157e-001
1.592981e+003;1.360194e-001
1.594909e+003;1.396702e-001
1.596838e+003;1.437284e-001
1.598766e+003;1.482613e-001
1.600695e+003;1.534951e-001
1.602623e+003;1.595571e-001
1.604552e+003;1.663705e-001
1.606480e+003;1.738422e-001
1.608409e+003;1.812572e-001
1.610338e+003;1.883837e-001
1.612266e+003;1.952687e-001
1.614195e+003;2.016666e-001
1.616123e+003;2.075460e-001
1.618052e+003;2.120987e-001
1.619980e+003;2.147961e-001
1.621909e+003;2.156471e-001
1.623837e+003;2.148087e-001
1.625766e+003;2.122823e-001
1.627694e+003;2.082637e-001
1.629623e+003;2.032643e-001
1.631552e+003;1.977972e-001
1.633480e+003;1.924266e-001
1.635409e+003;1.870936e-001
1.637337e+003;1.820168e-001
1.639266e+003;1.769777e-001
1.641194e+003;1.721220e-001
1.643123e+003;1.678169e-001
1.645051e+003;1.636774e-001
1.646980e+003;1.595495e-001
1.648909e+003;1.557423e-001
1.650837e+003;1.523498e-001
1.652766e+003;1.488601e-001
1.654694e+003;1.452328e-001
1.656623e+003;1.417621e-001
1.658551e+003;1.382104e-001
1.660480e+003;1.347681e-001
1.662408e+003;1.312823e-001
1.664337e+003;1.281958e-001
1.666266e+003;1.255004e-001
1.668194e+003;1.225319e-001
1.670123e+003;1.195332e-001
1.672051e+003;1.168146e-001
1.673980e+003;1.140711e-001
1.675908e+003;1.116564e-001
1.677837e+003;1.096800e-001
1.679765e+003;1.076441e-001
1.681694e+003;1.055267e-001
1.683622e+003;1.032432e-001
1.685551e+003;1.014373e-001
1.687479e+003;1.002049e-001
1.689408e+003;9.924373e-002
1.691337e+003;9.848886e-002
1.693265e+003;9.803106e-002
1.695194e+003;9.811652e-002
1.697122e+003;9.819428e-002
1.699051e+003;9.691299e-002
1.700979e+003;9.341731e-002
1.702908e+003;8.832707e-002
1.704836e+003;8.232874e-002
1.706765e+003;7.669654e-002
1.708693e+003;7.225046e-002
1.710622e+003;6.909271e-002
1.712551e+003;6.686322e-002
1.714479e+003;6.524199e-002
1.716408e+003;6.410431e-002
1.718336e+003;6.325146e-002
1.720265e+003;6.261096e-002
1.722193e+003;6.181093e-002
1.724122e+003;6.095932e-002
1.726050e+003;6.055003e-002
1.727979e+003;6.029847e-002
1.729908e+003;5.986052e-002
1.731836e+003;5.943938e-002
1.733765e+003;5.882913e-002
1.735693e+003;5.830094e-002
1.737622e+003;5.811511e-002
1.739550e+003;5.793261e-002
1.741479e+003;5.779720e-002
1.743407e+003;5.776075e-002
1.745336e+003;5.770864e-002
1.747265e+003;5.788449e-002
1.749193e+003;5.834612e-002
1.751122e+003;5.880386e-002
1.753050e+003;5.935489e-002
1.754979e+003;5.966691e-002
1.756907e+003;5.964828e-002
1.758836e+003;5.976154e-002
1.760764e+003;5.990217e-002
1.762693e+003;5.987832e-002
1.764621e+003;6.008815e-002
1.766550e+003;6.042119e-002
1.768479e+003;6.057609e-002
1.770407e+003;6.057277e-002
1.772336e+003;6.041783e-002
1.774264e+003;6.031930e-002
1.776193e+003;6.046216e-002
1.778121e+003;6.071541e-002
1.780050e+003;6.088071e-002
1.781978e+003;6.087656e-002
1.783907e+003;6.082643e-002
1.785835e+003;6.081187e-002
1.787764e+003;6.081866e-002
1.789693e+003;6.077795e-002
1.791621e+003;6.075047e-002
1.793550e+003;6.087621e-002
1.795478e+003;6.083668e-002
1.797407e+003;6.062729e-002
1.799335e+003;6.055140e-002
1.801264e+003;6.054645e-002
1.803192e+003;6.059448e-002
1.805121e+003;6.058290e-002
1.807049e+003;6.039834e-002
1.808978e+003;6.035032e-002
1.810907e+003;6.037317e-002
1.812835e+003;6.027700e-002
1.814764e+003;6.032527e-002
1.816692e+003;6.035684e-002
1.818621e+003;6.043813e-002
1.820549e+003;6.034542e-002
1.822478e+003;6.017975e-002
1.824406e+003;6.028347e-002
1.826335e+003;6.035010e-002
1.828264e+003;6.020259e-002
1.830192e+003;6.021009e-002
1.832121e+003;6.017800e-002
1.834049e+003;5.994830e-002
1.835978e+003;5.975564e-002
1.837906e+003;5.974758e-002
1.839835e+003;5.973868e-002
1.841763e+003;5.983397e-002
1.843692e+003;5.997482e-002
1.845620e+003;6.003355e-002
1.847549e+003;5.991228e-002
1.849478e+003;5.968018e-002
1.851406e+003;5.950998e-002
1.853335e+003;5.950055e-002
1.855263e+003;5.957337e-002
1.857192e+003;5.948592e-002
1.859120e+003;5.939592e-002
1.861049e+003;5.934965e-002
1.862977e+003;5.943824e-002
1.864906e+003;5.967801e-002
1.866834e+003;5.975374e-002
1.868763e+003;5.973256e-002
1.870692e+003;5.970987e-002
1.872620e+003;5.967303e-002
1.874549e+003;5.965760e-002
1.876477e+003;5.961210e-002
1.878406e+003;5.951032e-002
1.880334e+003;5.957834e-002
1.882263e+003;5.965569e-002
1.884191e+003;5.978404e-002
1.886120e+003;5.973682e-002
1.888048e+003;5.969899e-002
1.889977e+003;5.979606e-002
1.891906e+003;5.975606e-002
1.893834e+003;5.970291e-002
1.895763e+003;5.972534e-002
1.897691e+003;5.965459e-002
1.899620e+003;5.962772e-002
1.901548e+003;5.956139e-002
1.903477e+003;5.955090e-002
1.905405e+003;5.949816e-002
1.907334e+003;5.935413e-002
1.909262e+003;5.943307e-002
1.911191e+003;5.935576e-002
1.913120e+003;5.923058e-002
1.915048e+003;5.938357e-002
1.916977e+003;5.933783e-002
1.918905e+003;5.918410e-002
1.920834e+003;5.924349e-002
1.922762e+003;5.944439e-002
1.924691e+003;5.962635e-002
1.926619e+003;5.956314e-002
1.928548e+003;5.946396e-002
1.930477e+003;5.939022e-002
1.932405e+003;5.948083e-002
1.934334e+003;5.966284e-002
1.936262e+003;5.977613e-002
1.938191e+003;5.968801e-002
1.940119e+003;5.962513e-002
1.942048e+003;5.964931e-002
1.943976e+003;5.946533e-002
1.945905e+003;5.926555e-002
1.947833e+003;5.932252e-002
1.949762e+003;5.963779e-002
1.951691e+003;5.986888e-002
1.953619e+003;5.960700e-002
1.955548e+003;5.930706e-002
1.957476e+003;5.945671e-002
1.959405e+003;5.957413e-002
1.961333e+003;5.968592e-002
1.963262e+003;5.965474e-002
1.965190e+003;5.946157e-002
1.967119e+003;5.953103e-002
1.969047e+003;5.971899e-002
1.970976e+003;5.977499e-002
1.972905e+003;5.971405e-002
1.974833e+003;5.956421e-002
1.976762e+003;5.948140e-002
1.978690e+003;5.952336e-002
1.980619e+003;5.953418e-002
1.982547e+003;5.948205e-002
1.984476e+003;5.941852e-002
1.986404e+003;5.942209e-002
1.988333e+003;5.947566e-002
1.990261e+003;5.946647e-002
1.992190e+003;5.954315e-002
1.994119e+003;5.958100e-002
1.996047e+003;5.944082e-002
1.997976e+003;5.931504e-002
1.999904e+003;5.919762e-002
2.001833e+003;5.929704e-002
2.003761e+003;5.961476e-002
2.005690e+003;5.977070e-002
2.007618e+003;5.957720e-002
2.009547e+003;5.937757e-002
2.011476e+003;5.938368e-002
2.013404e+003;5.950755e-002
2.015333e+003;5.954919e-002
2.017261e+003;5.960567e-002
2.019190e+003;5.954019e-002
2.021118e+003;5.946985e-002
2.023047e+003;5.951899e-002
2.024975e+003;5.951975e-002
2.026904e+003;5.964725e-002
2.028833e+003;5.970683e-002
2.030761e+003;5.943634e-002
2.032690e+003;5.926559e-002
2.034618e+003;5.922784e-002
2.036547e+003;5.937745e-002
2.038475e+003;5.961651e-002
2.040404e+003;5.966972e-002
2.042332e+003;5.970006e-002
2.044261e+003;5.955915e-002
2.046189e+003;5.939428e-002
2.048118e+003;5.923593e-002
2.050047e+003;5.928310e-002
2.051975e+003;5.959625e-002
2.053904e+003;5.955436e-002
2.055832e+003;5.941856e-002
2.057761e+003;5.955455e-002
2.059689e+003;5.968542e-002
2.061618e+003;5.975990e-002
2.063546e+003;5.962977e-002
2.065475e+003;5.946385e-002
2.067404e+003;5.962205e-002
2.069332e+003;5.976081e-002
2.071260e+003;5.983055e-002
2.073189e+003;5.955075e-002
2.075118e+003;5.942973e-002
2.077046e+003;5.948870e-002
2.078975e+003;5.931831e-002
2.080903e+003;5.919203e-002
2.082832e+003;5.928678e-002
2.084760e+003;5.931022e-002
2.086689e+003;5.932511e-002
2.088617e+003;5.958956e-002
2.090546e+003;5.964239e-002
2.092475e+003;5.967451e-002
2.094403e+003;5.984766e-002
2.096332e+003;5.983435e-002
2.098260e+003;5.978093e-002
2.100189e+003;5.968949e-002
2.102117e+003;5.946677e-002
2.104046e+003;5.939079e-002
2.105974e+003;5.939242e-002
2.107903e+003;5.924725e-002
2.109832e+003;5.922731e-002
2.111760e+003;5.929457e-002
2.113688e+003;5.935470e-002
2.115617e+003;5.951180e-002
2.117546e+003;5.943209e-002
2.119474e+003;5.923741e-002
2.121403e+003;5.926092e-002
2.123331e+003;5.935200e-002
2.125260e+003;5.943695e-002
2.127188e+003;5.935808e-002
2.129117e+003;5.926624e-002
2.131045e+003;5.901842e-002
2.132974e+003;5.885660e-002
2.134903e+003;5.897872e-002
2.136831e+003;5.903585e-002
2.138760e+003;5.904135e-002
2.140688e+003;5.893822e-002
2.142617e+003;5.875720e-002
2.144545e+003;5.874514e-002
2.146474e+003;5.892809e-002
2.148402e+003;5.908398e-002
2.150331e+003;5.904598e-002
2.152260e+003;5.900332e-002
2.154188e+003;5.879813e-002
2.156117e+003;5.870376e-002
2.158045e+003;5.888385e-002
2.159974e+003;5.907430e-002
2.161902e+003;5.911234e-002
2.163831e+003;5.908121e-002
2.165759e+003;5.896980e-002
2.167688e+003;5.882932e-002
2.169616e+003;5.883319e-002
2.171545e+003;5.881464e-002
2.173474e+003;5.883646e-002
2.175402e+003;5.883425e-002
2.177331e+003;5.873505e-002
2.179259e+003;5.880276e-002
2.181188e+003;5.897352e-002
2.183116e+003;5.900343e-002
2.185045e+003;5.883892e-002
2.186973e+003;5.857732e-002
2.188902e+003;5.838485e-002
2.190831e+003;5.845236e-002
2.192759e+003;5.853819e-002
2.194688e+003;5.861865e-002
2.196616e+003;5.848958e-002
2.198545e+003;5.824255e-002
2.200473e+003;5.818356e-002
2.202402e+003;5.839865e-002
2.204330e+003;5.864258e-002
2.206259e+003;5.855734e-002
2.208188e+003;5.845668e-002
2.210116e+003;5.839910e-002
2.212044e+003;5.825915e-002
2.213973e+003;5.819735e-002
2.215902e+003;5.826203e-002
2.217830e+003;5.824013e-002
2.219759e+003;5.818599e-002
2.221687e+003;5.843435e-002
2.223616e+003;5.844591e-002
2.225544e+003;5.816659e-002
2.227473e+003;5.807053e-002
2.229401e+003;5.796275e-002
2.231330e+003;5.796321e-002
2.233259e+003;5.798994e-002
2.235187e+003;5.793704e-002
2.237116e+003;5.800501e-002
2.239044e+003;5.794912e-002
2.240973e+003;5.765918e-002
2.242901e+003;5.770243e-002
2.244830e+003;5.780946e-002
2.246758e+003;5.762168e-002
2.248687e+003;5.746754e-002
2.250615e+003;5.765812e-002
2.252544e+003;5.765797e-002
2.254473e+003;5.740555e-002
2.256401e+003;5.733363e-002
2.258330e+003;5.732512e-002
2.260258e+003;5.732089e-002
2.262187e+003;5.733434e-002
2.264115e+003;5.717244e-002
2.266044e+003;5.708461e-002
2.267972e+003;5.731000e-002
2.269901e+003;5.747347e-002
2.271830e+003;5.743614e-002
2.273758e+003;5.736445e-002
2.275687e+003;5.736081e-002
2.277615e+003;5.734966e-002
2.279544e+003;5.740929e-002
2.281472e+003;5.731072e-002
2.283401e+003;5.736815e-002
2.285329e+003;5.746125e-002
2.287258e+003;5.712984e-002
2.289187e+003;5.678686e-002
2.291115e+003;5.691535e-002
2.293043e+003;5.707478e-002
2.294972e+003;5.698689e-002
2.296901e+003;5.696411e-002
2.298829e+003;5.695274e-002
2.300758e+003;5.703666e-002
2.302686e+003;5.726255e-002
2.304615e+003;5.702181e-002
2.306543e+003;5.685684e-002
2.308472e+003;5.687066e-002
2.310400e+003;5.677270e-002
2.312329e+003;5.677817e-002
2.314258e+003;5.673717e-002
2.316186e+003;5.668231e-002
2.318115e+003;5.684668e-002
2.320043e+003;5.687648e-002
2.321972e+003;5.683153e-002
2.323900e+003;5.663542e-002
2.325829e+003;5.654502e-002
2.327757e+003;5.655502e-002
2.329686e+003;5.642577e-002
2.331615e+003;5.619986e-002
2.333543e+003;5.625983e-002
2.335472e+003;5.629291e-002
2.337400e+003;5.625077e-002
2.339329e+003;5.643566e-002
2.341257e+003;5.644513e-002
2.343186e+003;5.644951e-002
2.345114e+003;5.645543e-002
2.347043e+003;5.639231e-002
2.348971e+003;5.622350e-002
2.350900e+003;5.600803e-002
2.352829e+003;5.611943e-002
2.354757e+003;5.626948e-002
2.356686e+003;5.638205e-002
2.358614e+003;5.650019e-002
2.360543e+003;5.647426e-002
2.362471e+003;5.651724e-002
2.364400e+003;5.645739e-002
2.366328e+003;5.637793e-002
2.368257e+003;5.618070e-002
2.370186e+003;5.616558e-002
2.372114e+003;5.624719e-002
2.374042e+003;5.645392e-002
2.375971e+003;5.659243e-002
2.377900e+003;5.644970e-002
2.379828e+003;5.655393e-002
2.381757e+003;5.659235e-002
2.383685e+003;5.640608e-002
2.385614e+003;5.636378e-002
2.387542e+003;5.652592e-002
2.389471e+003;5.644268e-002
2.391399e+003;5.642042e-002
2.393328e+003;5.654358e-002
2.395257e+003;5.665324e-002
2.397185e+003;5.670972e-002
2.399114e+003;5.679369e-002
2.401042e+003;5.692309e-002
2.402971e+003;5.700110e-002
2.404899e+003;5.690171e-002
2.406828e+003;5.680110e-002
2.408756e+003;5.691640e-002
2.410685e+003;5.719477e-002
2.412614e+003;5.720604e-002
2.414542e+003;5.701720e-002
2.416471e+003;5.706979e-002
2.418399e+003;5.738433e-002
2.420328e+003;5.753819e-002
2.422256e+003;5.754905e-002
2.424185e+003;5.745970e-002
2.426113e+003;5.770073e-002
2.428042e+003;5.807602e-002
2.429970e+003;5.806973e-002
2.431899e+003;5.785769e-002
2.433828e+003;5.772256e-002
2.435756e+003;5.779285e-002
2.437685e+003;5.779811e-002
2.439613e+003;5.781760e-002
2.441542e+003;5.794666e-002
2.443470e+003;5.802149e-002
2.445399e+003;5.822061e-002
2.447327e+003;5.825308e-002
2.449256e+003;5.796200e-002
2.451185e+003;5.781064e-002
2.453113e+003;5.808151e-002
2.455042e+003;5.819383e-002
2.456970e+003;5.811007e-002
2.458899e+003;5.821766e-002
2.460827e+003;5.838060e-002
2.462756e+003;5.830117e-002
2.464684e+003;5.824266e-002
2.466613e+003;5.808329e-002
2.468542e+003;5.796942e-002
2.470470e+003;5.800365e-002
2.472398e+003;5.828942e-002
2.474327e+003;5.824350e-002
2.476256e+003;5.804360e-002
2.478184e+003;5.817833e-002
2.480113e+003;5.823482e-002
2.482041e+003;5.819307e-002
2.483970e+003;5.809912e-002
2.485898e+003;5.830401e-002
2.487827e+003;5.841092e-002
2.489755e+003;5.864998e-002
2.491684e+003;5.880383e-002
2.493613e+003;5.862445e-002
2.495541e+003;5.835506e-002
2.497470e+003;5.806080e-002
2.499398e+003;5.814102e-002
2.501327e+003;5.857561e-002
2.503255e+003;5.860196e-002
2.505184e+003;5.823262e-002
2.507112e+003;5.810852e-002
2.509041e+003;5.834691e-002
2.510969e+003;5.856905e-002
2.512898e+003;5.859980e-002
2.514827e+003;5.858137e-002
2.516755e+003;5.879609e-002
2.518684e+003;5.890817e-002
2.520612e+003;5.883756e-002
2.522541e+003;5.891507e-002
2.524469e+003;5.878448e-002
2.526398e+003;5.861179e-002
2.528326e+003;5.867584e-002
2.530255e+003;5.880747e-002
2.532184e+003;5.902199e-002
2.534112e+003;5.926104e-002
2.536041e+003;5.912361e-002
2.537969e+003;5.879734e-002
2.539898e+003;5.903911e-002
2.541826e+003;5.928538e-002
2.543755e+003;5.934790e-002
2.545683e+003;5.939740e-002
2.547612e+003;5.924527e-002
2.549541e+003;5.912699e-002
2.551469e+003;5.917468e-002
2.553397e+003;5.925811e-002
2.555326e+003;5.936629e-002
2.557255e+003;5.938581e-002
2.559183e+003;5.951081e-002
2.561112e+003;5.968717e-002
2.563040e+003;5.967588e-002
2.564969e+003;5.960385e-002
2.566897e+003;5.957694e-002
2.568826e+003;5.972439e-002
2.570754e+003;5.993138e-002
2.572683e+003;5.996694e-002
2.574612e+003;5.978385e-002
2.576540e+003;5.965406e-002
2.578469e+003;5.972834e-002
2.580397e+003;5.975492e-002
2.582326e+003;5.973511e-002
2.584254e+003;6.019376e-002
2.586183e+003;6.063235e-002
2.588111e+003;6.038931e-002
2.590040e+003;6.024990e-002
2.591969e+003;6.043585e-002
2.593897e+003;6.069537e-002
2.595826e+003;6.076293e-002
2.597754e+003;6.062024e-002
2.599683e+003;6.055883e-002
2.601611e+003;6.087736e-002
2.603540e+003;6.103085e-002
2.605468e+003;6.090797e-002
2.607397e+003;6.104759e-002
2.609325e+003;6.131836e-002
2.611254e+003;6.132187e-002
2.613183e+003;6.109477e-002
2.615111e+003;6.098750e-002
2.617040e+003;6.082437e-002
2.618968e+003;6.090827e-002
2.620897e+003;6.123541e-002
2.622825e+003;6.114656e-002
2.624754e+003;6.108077e-002
2.626682e+003;6.109759e-002
2.628611e+003;6.108009e-002
2.630540e+003;6.118063e-002
2.632468e+003;6.104969e-002
2.634396e+003;6.083817e-002
2.636325e+003;6.063403e-002
2.638254e+003;6.057765e-002
2.640182e+003;6.074929e-002
2.642111e+003;6.083954e-002
2.644039e+003;6.090168e-002
2.645968e+003;6.101900e-002
2.647896e+003;6.090766e-002
2.649825e+003;6.069633e-002
2.651753e+003;6.081488e-002
2.653682e+003;6.111117e-002
2.655611e+003;6.119101e-002
2.657539e+003;6.101644e-002
2.659468e+003;6.078511e-002
2.661396e+003;6.083474e-002
2.663325e+003;6.125117e-002
2.665253e+003;6.147621e-002
2.667182e+003;6.147427e-002
2.669110e+003;6.137457e-002
2.671039e+003;6.124003e-002
2.672968e+003;6.142602e-002
2.674896e+003;6.147171e-002
2.676825e+003;6.150584e-002
2.678753e+003;6.137056e-002
2.680682e+003;6.125998e-002
2.682610e+003;6.148606e-002
2.684539e+003;6.152615e-002
2.686467e+003;6.161240e-002
2.688396e+003;6.176249e-002
2.690324e+003;6.168064e-002
2.692253e+003;6.161892e-002
2.694182e+003;6.162763e-002
2.696110e+003;6.190269e-002
2.698039e+003;6.215966e-002
2.699967e+003;6.208064e-002
2.701896e+003;6.205533e-002
2.703824e+003;6.202326e-002
2.705753e+003;6.209321e-002
2.707681e+003;6.220799e-002
2.709610e+003;6.219024e-002
2.711539e+003;6.217086e-002
2.713467e+003;6.218661e-002
2.715396e+003;6.250687e-002
2.717324e+003;6.260747e-002
2.719253e+003;6.251372e-002
2.721181e+003;6.265972e-002
2.723110e+003;6.269540e-002
2.725038e+003;6.284406e-002
2.726967e+003;6.288064e-002
2.728896e+003;6.300239e-002
2.730824e+003;6.312465e-002
2.732752e+003;6.308200e-002
2.734681e+003;6.318508e-002
2.736610e+003;6.341274e-002
2.738538e+003;6.351889e-002
2.740467e+003;6.363250e-002
2.742395e+003;6.375190e-002
2.744324e+003;6.384186e-002
2.746252e+003;6.375912e-002
2.748181e+003;6.383768e-002
2.750109e+003;6.393137e-002
2.752038e+003;6.379803e-002
2.753967e+003;6.379078e-002
2.755895e+003;6.395744e-002
2.757824e+003;6.410454e-002
2.759752e+003;6.432530e-002
2.761681e+003;6.454287e-002
2.763609e+003;6.463599e-002
2.765538e+003;6.462761e-002
2.767466e+003;6.464396e-002
2.769395e+003;6.458735e-002
2.771323e+003;6.440343e-002
2.773252e+003;6.435036e-002
2.775181e+003;6.460381e-002
2.777109e+003;6.474175e-002
2.779038e+003;6.475286e-002
2.780966e+003;6.490593e-002
2.782895e+003;6.515786e-002
2.784823e+003;6.542092e-002
2.786752e+003;6.552779e-002
2.788680e+003;6.550571e-002
2.790609e+003;6.548795e-002
2.792538e+003;6.537493e-002
2.794466e+003;6.535167e-002
2.796395e+003;6.529439e-002
2.798323e+003;6.555954e-002
2.800252e+003;6.587712e-002
2.802180e+003;6.577549e-002
2.804109e+003;6.568509e-002
2.806037e+003;6.554250e-002
2.807966e+003;6.550178e-002
2.809895e+003;6.555680e-002
2.811823e+003;6.576693e-002
2.813751e+003;6.588592e-002
2.815680e+003;6.578051e-002
2.817609e+003;6.581740e-002
2.819537e+003;6.600945e-002
2.821466e+003;6.608564e-002
2.823394e+003;6.626519e-002
2.825323e+003;6.625246e-002
2.827251e+003;6.602006e-002
2.829180e+003;6.596143e-002
2.831108e+003;6.600810e-002
2.833037e+003;6.628441e-002
2.834966e+003;6.654668e-002
2.836894e+003;6.646837e-002
2.838823e+003;6.643523e-002
2.840751e+003;6.636308e-002
2.842680e+003;6.632965e-002
2.844608e+003;6.629549e-002
2.846537e+003;6.605123e-002
2.848465e+003;6.560462e-002
2.850394e+003;6.539030e-002
2.852323e+003;6.570776e-002
2.854251e+003;6.606781e-002
2.856180e+003;6.636833e-002
2.858108e+003;6.693596e-002
2.860037e+003;6.745777e-002
2.861965e+003;6.790346e-002
2.863894e+003;6.838587e-002
2.865822e+003;6.876830e-002
2.867751e+003;6.892698e-002
2.869679e+003;6.912123e-002
2.871608e+003;6.947118e-002
2.873536e+003;6.963583e-002
2.875465e+003;6.984480e-002
2.877394e+003;6.969679e-002
2.879322e+003;6.949237e-002
2.881251e+003;6.938168e-002
2.883179e+003;6.927083e-002
2.885108e+003;6.928579e-002
2.887036e+003;6.935497e-002
2.888965e+003;6.917974e-002
2.890893e+003;6.907822e-002
2.892822e+003;6.914163e-002
2.894750e+003;6.913684e-002
2.896679e+003;6.903351e-002
2.898608e+003;6.913968e-002
2.900536e+003;6.932715e-002
2.902465e+003;6.937115e-002
2.904393e+003;6.913269e-002
2.906322e+003;6.892597e-002
2.908250e+003;6.907453e-002
2.910179e+003;6.939198e-002
2.912107e+003;6.941216e-002
2.914036e+003;6.916105e-002
2.915965e+003;6.870002e-002
2.917893e+003;6.850251e-002
2.919822e+003;6.867103e-002
2.921750e+003;6.918378e-002
2.923679e+003;6.952570e-002
2.925607e+003;6.986137e-002
2.927536e+003;7.046410e-002
2.929464e+003;7.069706e-002
2.931393e+003;7.080571e-002
2.933322e+003;7.098807e-002
2.935250e+003;7.138295e-002
2.937178e+003;7.138377e-002
2.939107e+003;7.120144e-002
2.941036e+003;7.104481e-002
2.942964e+003;7.091215e-002
2.944893e+003;7.115010e-002
2.946821e+003;7.090595e-002
2.948750e+003;7.038489e-002
2.950678e+003;7.030673e-002
2.952607e+003;7.023179e-002
2.954535e+003;7.023261e-002
2.956464e+003;7.032045e-002
2.958393e+003;7.041610e-002
2.960321e+003;7.058010e-002
2.962250e+003;7.088286e-002
2.964178e+003;7.119617e-002
2.966107e+003;7.137663e-002
2.968035e+003;7.138670e-002
2.969964e+003;7.156400e-002
2.971892e+003;7.173954e-002
2.973821e+003;7.182495e-002
2.975750e+003;7.218969e-002
2.977678e+003;7.217404e-002
2.979607e+003;7.171961e-002
2.981535e+003;7.129615e-002
2.983464e+003;7.100212e-002
2.985392e+003;7.092717e-002
2.987321e+003;7.058010e-002
2.989249e+003;7.036310e-002
2.991178e+003;7.050940e-002
2.993106e+003;7.047841e-002
2.995035e+003;7.024982e-002
2.996964e+003;7.008629e-002
2.998892e+003;7.002123e-002
3.000821e+003;6.990224e-002
3.002749e+003;6.980324e-002
3.004678e+003;6.957987e-002
3.006606e+003;6.917391e-002
3.008535e+003;6.893436e-002
3.010463e+003;6.923115e-002
3.012392e+003;6.960048e-002
3.014321e+003;6.971947e-002
3.016249e+003;6.953371e-002
3.018177e+003;6.961405e-002
3.020106e+003;6.984387e-002
3.022035e+003;6.954529e-002
3.023963e+003;6.950897e-002
3.025892e+003;7.001388e-002
3.027820e+003;7.026700e-002
3.029749e+003;7.028075e-002
3.031677e+003;7.052974e-002
3.033606e+003;7.080843e-002
3.035534e+003;7.065733e-002
3.037463e+003;7.073332e-002
3.039392e+003;7.135344e-002
3.041320e+003;7.192078e-002
3.043249e+003;7.247681e-002
3.045177e+003;7.272588e-002
3.047106e+003;7.249188e-002
3.049034e+003;7.255328e-002
3.050963e+003;7.306691e-002
3.052891e+003;7.344486e-002
3.054820e+003;7.340099e-002
3.056749e+003;7.357848e-002
3.058677e+003;7.391508e-002
3.060606e+003;7.409404e-002
3.062534e+003;7.444397e-002
3.064463e+003;7.444441e-002
3.066391e+003;7.407880e-002
3.068320e+003;7.420083e-002
3.070248e+003;7.446069e-002
3.072177e+003;7.438156e-002
3.074105e+003;7.428987e-002
3.076034e+003;7.414014e-002
3.077963e+003;7.403954e-002
3.079891e+003;7.420826e-002
3.081820e+003;7.429373e-002
3.083748e+003;7.407675e-002
3.085677e+003;7.386751e-002
3.087605e+003;7.371938e-002
3.089534e+003;7.344360e-002
3.091462e+003;7.316972e-002
3.093391e+003;7.303939e-002
3.095320e+003;7.292329e-002
3.097248e+003;7.298788e-002
3.099177e+003;7.322427e-002
3.101105e+003;7.283281e-002
3.103034e+003;7.218844e-002
3.104962e+003;7.214297e-002
3.106891e+003;7.227820e-002
3.108819e+003;7.199500e-002
3.110748e+003;7.174564e-002
3.112677e+003;7.161730e-002
3.114605e+003;7.157541e-002
3.116533e+003;7.165505e-002
3.118462e+003;7.156971e-002
3.120391e+003;7.155982e-002
3.122319e+003;7.149017e-002
3.124248e+003;7.134484e-002
3.126176e+003;7.150482e-002
3.128105e+003;7.183359e-002
3.130033e+003;7.201698e-002
3.131962e+003;7.195117e-002
3.133890e+003;7.186100e-002
3.135819e+003;7.181584e-002
3.137748e+003;7.173974e-002
3.139676e+003;7.187488e-002
3.141605e+003;7.233729e-002
3.143533e+003;7.274438e-002
3.145462e+003;7.259984e-002
3.147390e+003;7.238814e-002
3.149319e+003;7.277450e-002
3.151247e+003;7.339573e-002
3.153176e+003;7.382490e-002
3.155104e+003;7.366402e-002
3.157033e+003;7.335254e-002
3.158962e+003;7.350890e-002
3.160890e+003;7.388967e-002
3.162819e+003;7.391606e-002
3.164747e+003;7.401612e-002
3.166676e+003;7.457355e-002
3.168604e+003;7.517919e-002
3.170533e+003;7.533740e-002
3.172461e+003;7.555563e-002
3.174390e+003;7.616790e-002
3.176319e+003;7.638248e-002
3.178247e+003;7.678922e-002
3.180176e+003;7.730860e-002
3.182104e+003;7.755726e-002
3.184033e+003;7.748410e-002
3.185961e+003;7.769735e-002
3.187890e+003;7.859778e-002
3.189818e+003;7.918990e-002
3.191747e+003;7.971543e-002
3.193676e+003;8.037203e-002
3.195604e+003;8.077063e-002
3.197532e+003;8.094455e-002
3.199461e+003;8.135626e-002
3.201390e+003;8.203780e-002
3.203318e+003;8.223452e-002
3.205247e+003;8.225082e-002
3.207175e+003;8.301475e-002
3.209104e+003;8.360827e-002
3.211032e+003;8.391209e-002
3.212961e+003;8.433395e-002
3.214889e+003;8.487429e-002
3.216818e+003;8.531778e-002
3.218747e+003;8.559224e-002
3.220675e+003;8.594401e-002
3.222604e+003;8.658750e-002
3.224532e+003;8.728759e-002
3.226461e+003;8.791595e-002
3.228389e+003;8.860348e-002
3.230318e+003;8.939264e-002
3.232246e+003;9.046724e-002
3.234175e+003;9.094467e-002
3.236104e+003;9.132064e-002
3.238032e+003;9.203369e-002
3.239961e+003;9.285283e-002
3.241889e+003;9.354581e-002
3.243818e+003;9.437674e-002
3.245746e+003;9.545770e-002
3.247675e+003;9.609944e-002
3.249603e+003;9.700752e-002
3.251532e+003;9.834506e-002
3.253460e+003;9.920350e-002
3.255389e+003;1.001825e-001
3.257318e+003;1.010613e-001
3.259246e+003;1.021976e-001
3.261175e+003;1.033966e-001
3.263103e+003;1.047055e-001
3.265032e+003;1.057728e-001
3.266960e+003;1.066246e-001
3.268889e+003;1.075545e-001
3.270817e+003;1.086480e-001
3.272746e+003;1.097821e-001
3.274675e+003;1.103773e-001
3.276603e+003;1.105571e-001
3.278531e+003;1.107889e-001
3.280460e+003;1.107727e-001
3.282389e+003;1.105680e-001
3.284317e+003;1.103877e-001
3.286246e+003;1.099980e-001
3.288174e+003;1.093883e-001
3.290103e+003;1.085442e-001
3.292031e+003;1.074963e-001
3.293960e+003;1.059438e-001
3.295888e+003;1.047516e-001
3.297817e+003;1.037064e-001
3.299746e+003;1.022551e-001
3.301674e+003;1.003980e-001
3.303603e+003;9.860688e-002
3.305531e+003;9.745591e-002
3.307460e+003;9.621727e-002
3.309388e+003;9.486574e-002
3.311317e+003;9.355645e-002
3.313245e+003;9.203549e-002
3.315174e+003;9.048667e-002
3.317103e+003;8.928604e-002
3.319031e+003;8.786054e-002
3.320960e+003;8.631511e-002
3.322888e+003;8.548197e-002
3.324817e+003;8.462737e-002
3.326745e+003;8.339659e-002
3.328674e+003;8.256242e-002
3.330602e+003;8.163887e-002
3.332531e+003;8.031650e-002
3.334459e+003;7.946821e-002
3.336388e+003;7.878909e-002
3.338317e+003;7.787471e-002
3.340245e+003;7.711438e-002
3.342174e+003;7.650390e-002
3.344102e+003;7.580699e-002
3.346031e+003;7.539687e-002
3.347959e+003;7.468505e-002
3.349888e+003;7.377397e-002
3.351816e+003;7.312015e-002
3.353745e+003;7.272028e-002
3.355674e+003;7.223108e-002
3.357602e+003;7.171816e-002
3.359531e+003;7.151756e-002
3.361459e+003;7.128658e-002
3.363388e+003;7.095643e-002
3.365316e+003;7.105316e-002
3.367245e+003;7.097583e-002
3.369173e+003;7.019035e-002
3.371102e+003;6.949544e-002
3.373031e+003;6.896997e-002
3.374959e+003;6.903988e-002
3.376887e+003;6.911187e-002
3.378816e+003;6.852385e-002
3.380745e+003;6.807830e-002
3.382673e+003;6.774472e-002
3.384602e+003;6.781545e-002
3.386530e+003;6.770573e-002
3.388459e+003;6.744879e-002
3.390387e+003;6.744996e-002
3.392316e+003;6.723762e-002
3.394244e+003;6.675428e-002
3.396173e+003;6.609845e-002
3.398102e+003;6.554632e-002
3.400030e+003;6.557406e-002
3.401959e+003;6.582912e-002
3.403887e+003;6.550286e-002
3.405816e+003;6.508376e-002
3.407744e+003;6.514739e-002
3.409673e+003;6.505501e-002
3.411601e+003;6.504212e-002
3.413530e+003;6.488935e-002
3.415458e+003;6.437565e-002
3.417387e+003;6.397291e-002
3.419316e+003;6.392603e-002
3.421244e+003;6.410991e-002
3.423173e+003;6.415931e-002
3.425101e+003;6.374734e-002
3.427030e+003;6.343406e-002
3.428958e+003;6.303990e-002
3.430887e+003;6.261279e-002
3.432815e+003;6.250928e-002
3.434744e+003;6.267476e-002
3.436673e+003;6.240568e-002
3.438601e+003;6.213752e-002
3.440530e+003;6.191183e-002
3.442458e+003;6.164669e-002
3.444387e+003;6.202938e-002
3.446315e+003;6.245017e-002
3.448244e+003;6.233189e-002
3.450172e+003;6.169362e-002
3.452101e+003;6.107303e-002
3.454030e+003;6.092833e-002
3.455958e+003;6.130573e-002
3.457886e+003;6.175572e-002
3.459815e+003;6.117815e-002
3.461744e+003;6.043756e-002
3.463672e+003;6.027826e-002
3.465601e+003;6.028100e-002
3.467529e+003;6.048261e-002
3.469458e+003;6.034439e-002
3.471386e+003;6.014444e-002
3.473315e+003;5.995131e-002
3.475243e+003;5.967671e-002
3.477172e+003;5.986782e-002
3.479101e+003;5.984447e-002
3.481029e+003;5.974754e-002
3.482958e+003;5.981408e-002
3.484886e+003;5.979484e-002
3.486815e+003;5.953122e-002
3.488743e+003;5.930763e-002
3.490672e+003;5.915801e-002
3.492600e+003;5.910577e-002
3.494529e+003;5.909415e-002
3.496458e+003;5.897606e-002
3.498386e+003;5.887831e-002
3.500315e+003;5.888681e-002
3.502243e+003;5.897424e-002
3.504172e+003;5.867361e-002
3.506100e+003;5.798559e-002
3.508029e+003;5.766940e-002
3.509957e+003;5.796726e-002
3.511886e+003;5.822686e-002
3.513814e+003;5.831671e-002
3.515743e+003;5.822077e-002
3.517672e+003;5.805909e-002
3.519600e+003;5.804220e-002
3.521529e+003;5.799301e-002
3.523457e+003;5.753437e-002
3.525386e+003;5.713056e-002
3.527314e+003;5.687316e-002
3.529243e+003;5.697862e-002
3.531171e+003;5.733835e-002
3.533100e+003;5.690318e-002
3.535029e+003;5.635631e-002
3.536957e+003;5.619526e-002
3.538885e+003;5.603000e-002
3.540814e+003;5.614748e-002
3.542743e+003;5.628027e-002
3.544671e+003;5.609187e-002
3.546600e+003;5.602137e-002
3.548528e+003;5.608169e-002
3.550457e+003;5.609334e-002
3.552385e+003;5.581100e-002
3.554314e+003;5.568002e-002
3.556242e+003;5.569105e-002
3.558171e+003;5.513280e-002
3.560100e+003;5.448857e-002
3.562028e+003;5.434597e-002
3.563957e+003;5.441131e-002
3.565885e+003;5.431517e-002
3.567814e+003;5.415341e-002
3.569742e+003;5.443140e-002
3.571671e+003;5.432024e-002
3.573599e+003;5.378040e-002
3.575528e+003;5.398881e-002
3.577457e+003;5.431840e-002
3.579385e+003;5.406529e-002
3.581314e+003;5.378126e-002
3.583242e+003;5.342941e-002
3.585171e+003;5.322479e-002
3.587099e+003;5.322614e-002
3.589028e+003;5.302532e-002
3.590956e+003;5.267097e-002
3.592885e+003;5.228369e-002
3.594813e+003;5.217659e-002
3.596742e+003;5.237298e-002
3.598671e+003;5.236457e-002
3.600599e+003;5.230372e-002
3.602528e+003;5.226190e-002
3.604456e+003;5.221403e-002
3.606385e+003;5.215552e-002
3.608313e+003;5.170244e-002
3.610242e+003;5.148401e-002
3.612170e+003;5.182809e-002
3.614099e+003;5.190530e-002
3.616028e+003;5.144768e-002
3.617956e+003;5.083637e-002
3.619885e+003;5.053349e-002
3.621813e+003;5.047000e-002
3.623742e+003;5.021104e-002
3.625670e+003;4.984311e-002
3.627599e+003;4.961057e-002
3.629527e+003;4.956017e-002
3.631456e+003;4.935335e-002
3.633385e+003;4.942463e-002
3.635313e+003;4.962123e-002
3.637241e+003;4.924408e-002
3.639170e+003;4.878706e-002
3.641099e+003;4.859162e-002
3.643027e+003;4.838048e-002
3.644956e+003;4.833874e-002
3.646884e+003;4.822150e-002
3.648813e+003;4.798949e-002
3.650741e+003;4.770535e-002
3.652670e+003;4.776692e-002
3.654598e+003;4.795475e-002
3.656527e+003;4.726021e-002
3.658456e+003;4.650734e-002
3.660384e+003;4.672915e-002
3.662313e+003;4.665554e-002
3.664241e+003;4.613306e-002
3.666170e+003;4.584019e-002
3.668098e+003;4.572767e-002
3.670027e+003;4.568162e-002
3.671955e+003;4.536503e-002
3.673884e+003;4.553110e-002
3.675813e+003;4.543761e-002
3.677741e+003;4.496028e-002
3.679669e+003;4.492497e-002
3.681598e+003;4.469508e-002
3.683527e+003;4.435920e-002
3.685455e+003;4.438100e-002
3.687384e+003;4.427176e-002
3.689312e+003;4.371418e-002
3.691241e+003;4.329230e-002
3.693169e+003;4.304823e-002
3.695098e+003;4.289529e-002
3.697026e+003;4.287671e-002
3.698955e+003;4.286859e-002
3.700884e+003;4.255960e-002
3.702812e+003;4.219579e-002
3.704741e+003;4.182605e-002
3.706669e+003;4.193676e-002
3.708598e+003;4.225532e-002
3.710526e+003;4.223625e-002
3.712455e+003;4.184627e-002
3.714383e+003;4.153968e-002
3.716312e+003;4.162081e-002
3.718240e+003;4.160079e-002
3.720169e+003;4.141639e-002
3.722098e+003;4.136842e-002
3.724026e+003;4.117942e-002
3.725955e+003;4.110690e-002
3.727883e+003;4.122988e-002
3.729812e+003;4.132433e-002
3.731740e+003;4.129197e-002
3.733669e+003;4.138030e-002
3.735597e+003;4.116427e-002
3.737526e+003;4.068346e-002
3.739455e+003;4.076640e-002
3.741383e+003;4.105733e-002
3.743312e+003;4.084247e-002
3.745240e+003;4.019247e-002
3.747169e+003;4.009619e-002
3.749097e+003;4.035228e-002
3.751026e+003;4.034137e-002
3.752954e+003;4.015176e-002
3.754883e+003;4.014609e-002
3.756812e+003;4.020541e-002
3.758740e+003;4.004369e-002
3.760668e+003;3.974135e-002
3.762597e+003;3.994185e-002
3.764526e+003;4.037111e-002
3.766454e+003;4.038849e-002
3.768383e+003;4.025255e-002
3.770311e+003;4.027938e-002
3.772240e+003;4.033806e-002
3.774168e+003;4.058817e-002
3.776097e+003;4.049291e-002
3.778025e+003;3.978866e-002
3.779954e+003;3.986852e-002
3.781883e+003;4.018065e-002
3.783811e+003;4.034773e-002
3.785740e+003;4.069267e-002
3.787668e+003;4.023580e-002
3.789597e+003;3.990785e-002
3.791525e+003;4.005237e-002
3.793454e+003;4.049523e-002
3.795382e+003;4.077714e-002
3.797311e+003;4.088281e-002
3.799240e+003;4.062143e-002
3.801168e+003;3.974106e-002
3.803097e+003;3.954913e-002
3.805025e+003;4.001920e-002
3.806954e+003;3.991312e-002
3.808882e+003;4.004547e-002
3.810811e+003;4.019232e-002
3.812739e+003;3.992435e-002
3.814668e+003;4.001219e-002
3.816596e+003;4.030745e-002
3.818525e+003;4.042915e-002
3.820454e+003;4.025244e-002
3.822382e+003;4.013116e-002
3.824311e+003;4.026935e-002
3.826239e+003;4.037227e-002
3.828168e+003;4.041959e-002
3.830096e+003;4.065781e-002
3.832025e+003;4.052753e-002
3.833953e+003;4.027822e-002
3.835882e+003;4.069980e-002
3.837811e+003;4.100922e-002
3.839739e+003;4.052048e-002
3.841667e+003;3.998360e-002
3.843596e+003;4.020036e-002
3.845525e+003;4.062546e-002
3.847453e+003;4.078766e-002
3.849382e+003;4.053935e-002
3.851310e+003;4.027586e-002
3.853239e+003;3.999453e-002
3.855167e+003;3.997455e-002
3.857096e+003;4.065221e-002
3.859024e+003;4.113669e-002
3.860953e+003;4.081641e-002
3.862882e+003;4.049083e-002
3.864810e+003;4.071738e-002
3.866739e+003;4.096771e-002
3.868667e+003;4.100481e-002
3.870596e+003;4.087487e-002
3.872524e+003;4.055438e-002
3.874453e+003;4.048130e-002
3.876381e+003;4.109109e-002
3.878310e+003;4.124952e-002
3.880239e+003;4.097842e-002
3.882167e+003;4.094306e-002
3.884096e+003;4.080403e-002
3.886024e+003;4.058130e-002
3.887953e+003;4.097798e-002
3.889881e+003;4.135972e-002
3.891810e+003;4.159605e-002
3.893738e+003;4.188717e-002
3.895667e+003;4.192103e-002
3.897595e+003;4.138563e-002
3.899524e+003;4.120237e-002
3.901453e+003;4.153377e-002
3.903381e+003;4.187801e-002
3.905310e+003;4.178472e-002
3.907238e+003;4.127433e-002
3.909167e+003;4.115400e-002
3.911095e+003;4.175838e-002
3.913024e+003;4.203045e-002
3.914952e+003;4.168080e-002
3.916881e+003;4.161501e-002
3.918810e+003;4.166640e-002
3.920738e+003;4.132502e-002
3.922667e+003;4.151270e-002
3.924595e+003;4.185189e-002
3.926524e+003;4.196946e-002
3.928452e+003;4.203760e-002
3.930381e+003;4.209875e-002
3.932309e+003;4.189943e-002
3.934238e+003;4.224626e-002
3.936167e+003;4.238736e-002
3.938095e+003;4.203118e-002
3.940023e+003;4.184470e-002
3.941952e+003;4.181719e-002
3.943881e+003;4.190290e-002
3.945809e+003;4.192315e-002
3.947738e+003;4.203746e-002
3.949666e+003;4.216870e-002
3.951595e+003;4.216330e-002
3.953523e+003;4.235503e-002
3.955452e+003;4.246898e-002
3.957380e+003;4.227701e-002
3.959309e+003;4.183500e-002
3.961238e+003;4.166089e-002
3.963166e+003;4.185849e-002
3.965095e+003;4.219766e-002
3.967023e+003;4.254304e-002
3.968952e+003;4.257842e-002
3.970880e+003;4.235083e-002
3.972809e+003;4.224546e-002
3.974737e+003;4.247069e-002
3.976666e+003;4.243394e-002
3.978594e+003;4.199391e-002
3.980523e+003;4.210831e-002
3.982452e+003;4.231927e-002
3.984380e+003;4.228391e-002
3.986309e+003;4.252207e-002
3.988237e+003;4.291976e-002
3.990166e+003;4.295260e-002
3.992094e+003;4.285115e-002
3.994023e+003;4.278873e-002
3.995951e+003;4.249941e-002
3.997880e+003;4.273557e-002
3.999809e+003;4.254469e-002
4.001737e+003;0.000000e+000
