3.992094e+002;0.000000e+000
4.011380e+002;0.000000e+000
4.030665e+002;0.000000e+000
4.049951e+002;0.000000e+000
4.069236e+002;0.000000e+000
4.088522e+002;0.000000e+000
4.107807e+002;0.000000e+000
4.127093e+002;0.000000e+000
4.146378e+002;0.000000e+000
4.165664e+002;0.000000e+000
4.184949e+002;0.000000e+000
4.204235e+002;0.000000e+000
4.223520e+002;0.000000e+000
4.242806e+002;0.000000e+000
4.262091e+002;0.000000e+000
4.281377e+002;0.000000e+000
4.300662e+002;0.000000e+000
4.319948e+002;0.000000e+000
4.339233e+002;0.000000e+000
4.358519e+002;0.000000e+000
4.377804e+002;0.000000e+000
4.397090e+002;0.000000e+000
4.416375e+002;0.000000e+000
4.435660e+002;0.000000e+000
4.454946e+002;0.000000e+000
4.474232e+002;0.000000e+000
4.493517e+002;0.000000e+000
4.512802e+002;0.000000e+000
4.532088e+002;0.000000e+000
4.551373e+002;0.000000e+000
4.570659e+002;0.000000e+000
4.589944e+002;0.000000e+000
4.609230e+002;0.000000e+000
4.628515e+002;0.000000e+000
4.647801e+002;0.000000e+000
4.667086e+002;0.000000e+000
4.686372e+002;0.000000e+000
4.705657e+002;0.000000e+000
4.724943e+002;0.000000e+000
4.744228e+002;0.000000e+000
4.763513e+002;0.000000e+000
4.782799e+002;0.000000e+000
4.802085e+002;0.000000e+000
4.821370e+002;0.000000e+000
4.840656e+002;0.000000e+000
4.859941e+002;0.000000e+000
4.879226e+002;0.000000e+000
4.898512e+002;0.000000e+000
4.917798e+002;0.000000e+000
4.937083e+002;0.000000e+000
4.956368e+002;0.000000e+000
4.975654e+002;0.000000e+000
4.994939e+002;0.000000e+000
5.014225e+002;0.000000e+000
5.033510e+002;0.000000e+000
5.052796e+002;0.000000e+000
5.072081e+002;0.000000e+000
5.091367e+002;0.000000e+000
5.110652e+002;0.000000e+000
5.129938e+002;0.000000e+000
5.149223e+002;0.000000e+000
5.168509e+002;0.000000e+000
5.187794e+002;0.000000e+000
5.207079e+002;0.000000e+000
5.226365e+002;0.000000e+000
5.245651e+002;0.000000e+000
5.264936e+002;0.000000e+000
5.284222e+002;0.000000e+000
5.303507e+002;0.000000e+000
5.322792e+002;0.000000e+000
5.342078e+002;0.000000e+000
5.361364e+002;0.000000e+000
5.380649e+002;0.000000e+000
5.399935e+002;0.000000e+000
5.419220e+002;0.000000e+000
5.438505e+002;0.000000e+000
5.457791e+002;0.000000e+000
5.477076e+002;0.000000e+000
5.496362e+002;0.000000e+000
5.515648e+002;0.000000e+000
5.534933e+002;0.000000e+000
5.554218e+002;0.000000e+000
5.573504e+002;0.000000e+000
5.592789e+002;0.000000e+000
5.612075e+002;0.000000e+000
5.631360e+002;0.000000e+000
5.650646e+002;0.000000e+000
5.669931e+002;0.000000e+000
5.689217e+002;0.000000e+000
5.708502e+002;0.000000e+000
5.727787e+002;0.000000e+000
5.747073e+002;0.000000e+000
5.766359e+002;0.000000e+000
5.785644e+002;0.000000e+000
5.804930e+002;0.000000e+000
5.824215e+002;0.000000e+000
5.843500e+002;0.000000e+000
5.862786e+002;0.000000e+000
5.882072e+002;0.000000e+000
5.901357e+002;0.000000e+000
5.920643e+002;0.000000e+000
5.939928e+002;0.000000e+000
5.959213e+002;0.000000e+000
5.978499e+002;0.000000e+000
5.997784e+002;1.835714e-001
6.017070e+002;1.803391e-001
6.036355e+002;1.790586e-001
6.055641e+002;1.834013e-001
6.074926e+002;1.863619e-001
6.094211e+002;1.835792e-001
6.113497e+002;1.791705e-001
6.132783e+002;1.784433e-001
6.152068e+002;1.791982e-001
6.171354e+002;1.768317e-001
6.190639e+002;1.727816e-001
6.209924e+002;1.721089e-001
6.229210e+002;1.746835e-001
6.248495e+002;1.780626e-001
6.267781e+002;1.773963e-001
6.287067e+002;1.737737e-001
6.306352e+002;1.722995e-001
6.325637e+002;1.732671e-001
6.344923e+002;1.733086e-001
6.364208e+002;1.723315e-001
6.383494e+002;1.698733e-001
6.402780e+002;1.676057e-001
6.422065e+002;1.674919e-001
6.441350e+002;1.696724e-001
6.460636e+002;1.732239e-001
6.479921e+002;1.721070e-001
6.499207e+002;1.684757e-001
6.518492e+002;1.682312e-001
6.537778e+002;1.668246e-001
6.557063e+002;1.637265e-001
6.576349e+002;1.625718e-001
6.595634e+002;1.622707e-001
6.614919e+002;1.629694e-001
6.634205e+002;1.625899e-001
6.653491e+002;1.627541e-001
6.672776e+002;1.643301e-001
6.692062e+002;1.650459e-001
6.711347e+002;1.655391e-001
6.730632e+002;1.654413e-001
6.749918e+002;1.653894e-001
6.769203e+002;1.651886e-001
6.788489e+002;1.641904e-001
6.807775e+002;1.642749e-001
6.827060e+002;1.642230e-001
6.846345e+002;1.641145e-001
6.865631e+002;1.646696e-001
6.884916e+002;1.648817e-001
6.904202e+002;1.631836e-001
6.923488e+002;1.620852e-001
6.942773e+002;1.608729e-001
6.962058e+002;1.592600e-001
6.981344e+002;1.595755e-001
7.000629e+002;1.599805e-001
7.019915e+002;1.583603e-001
7.039200e+002;1.555346e-001
7.058486e+002;1.536090e-001
7.077771e+002;1.522591e-001
7.097057e+002;1.510475e-001
7.116342e+002;1.498777e-001
7.135627e+002;1.486053e-001
7.154913e+002;1.475090e-001
7.174199e+002;1.461388e-001
7.193484e+002;1.441074e-001
7.212770e+002;1.417204e-001
7.232055e+002;1.395627e-001
7.251340e+002;1.382632e-001
7.270626e+002;1.371362e-001
7.289911e+002;1.358146e-001
7.309197e+002;1.339617e-001
7.328483e+002;1.319417e-001
7.347768e+002;1.300299e-001
7.367053e+002;1.286256e-001
7.386339e+002;1.272090e-001
7.405624e+002;1.253443e-001
7.424910e+002;1.237841e-001
7.444196e+002;1.221106e-001
7.463481e+002;1.201951e-001
7.482766e+002;1.187662e-001
7.502052e+002;1.181194e-001
7.521337e+002;1.169114e-001
7.540623e+002;1.151565e-001
7.559908e+002;1.145044e-001
7.579194e+002;1.140668e-001
7.598479e+002;1.127511e-001
7.617765e+002;1.115455e-001
7.637050e+002;1.113659e-001
7.656335e+002;1.114616e-001
7.675621e+002;1.100604e-001
7.694907e+002;1.088149e-001
7.714192e+002;1.080481e-001
7.733478e+002;1.068921e-001
7.752763e+002;1.055788e-001
7.772048e+002;1.042802e-001
7.791334e+002;1.031789e-001
7.810620e+002;1.021812e-001
7.829905e+002;1.013802e-001
7.849191e+002;1.011800e-001
7.868476e+002;1.004448e-001
7.887761e+002;9.910168e-002
7.907047e+002;9.856452e-002
7.926332e+002;9.806627e-002
7.945618e+002;9.699928e-002
7.964903e+002;9.679212e-002
7.984189e+002;9.634007e-002
8.003474e+002;9.536924e-002
8.022759e+002;9.532154e-002
8.042045e+002;9.529129e-002
8.061331e+002;9.508102e-002
8.080616e+002;9.555414e-002
8.099902e+002;9.633812e-002
8.119187e+002;9.663443e-002
8.138472e+002;9.677977e-002
8.157758e+002;9.682044e-002
8.177043e+002;9.697927e-002
8.196329e+002;9.668985e-002
8.215615e+002;9.705698e-002
8.234900e+002;9.824584e-002
8.254185e+002;9.870494e-002
8.273471e+002;9.891901e-002
8.292756e+002;9.919064e-002
8.312042e+002;9.870441e-002
8.331328e+002;9.796014e-002
8.350613e+002;9.659233e-002
8.369898e+002;9.475733e-002
8.389184e+002;9.421470e-002
8.408469e+002;9.426607e-002
8.427755e+002;9.446754e-002
8.447040e+002;9.472363e-002
8.466326e+002;9.444720e-002
8.485611e+002;9.428472e-002
8.504897e+002;9.451520e-002
8.524182e+002;9.460591e-002
8.543467e+002;9.445774e-002
8.562753e+002;9.333474e-002
8.582039e+002;9.191048e-002
8.601324e+002;9.099190e-002
8.620610e+002;9.058218e-002
8.639895e+002;9.030364e-002
8.659180e+002;9.016215e-002
8.678466e+002;9.049533e-002
8.697751e+002;9.107951e-002
8.717037e+002;9.234887e-002
8.736323e+002;9.308760e-002
8.755608e+002;9.236396e-002
8.774893e+002;9.141829e-002
8.794179e+002;9.107906e-002
8.813464e+002;9.122334e-002
8.832750e+002;9.110096e-002
8.852036e+002;9.044077e-002
8.871321e+002;9.010360e-002
8.890606e+002;9.008709e-002
8.909892e+002;8.998203e-002
8.929177e+002;9.009276e-002
8.948463e+002;9.049973e-002
8.967748e+002;9.078093e-002
8.987034e+002;9.038959e-002
9.006319e+002;8.958685e-002
9.025605e+002;8.918525e-002
9.044890e+002;8.937099e-002
9.064175e+002;8.949308e-002
9.083461e+002;8.941699e-002
9.102747e+002;8.957590e-002
9.122032e+002;9.011771e-002
9.141318e+002;9.039376e-002
9.160603e+002;9.082062e-002
9.179888e+002;9.178635e-002
9.199174e+002;9.280934e-002
9.218459e+002;9.309798e-002
9.237745e+002;9.366501e-002
9.257031e+002;9.482601e-002
9.276316e+002;9.522238e-002
9.295601e+002;9.498876e-002
9.314887e+002;9.477864e-002
9.334172e+002;9.459726e-002
9.353458e+002;9.450416e-002
9.372744e+002;9.451577e-002
9.392029e+002;9.469750e-002
9.411314e+002;9.506184e-002
9.430600e+002;9.527557e-002
9.449885e+002;9.530783e-002
9.469171e+002;9.533589e-002
9.488456e+002;9.595151e-002
9.507742e+002;9.666042e-002
9.527027e+002;9.731187e-002
9.546313e+002;9.821547e-002
9.565598e+002;9.881438e-002
9.584883e+002;9.957203e-002
9.604169e+002;1.007928e-001
9.623455e+002;1.019218e-001
9.642740e+002;1.031014e-001
9.662026e+002;1.043546e-001
9.681311e+002;1.054979e-001
9.700596e+002;1.067515e-001
9.719882e+002;1.079583e-001
9.739167e+002;1.087100e-001
9.758453e+002;1.090634e-001
9.777739e+002;1.089703e-001
9.797024e+002;1.084271e-001
9.816309e+002;1.078901e-001
9.835595e+002;1.076087e-001
9.854880e+002;1.077990e-001
9.874166e+002;1.089110e-001
9.893452e+002;1.105176e-001
9.912737e+002;1.116109e-001
9.932022e+002;1.119048e-001
9.951307e+002;1.122035e-001
9.970593e+002;1.126341e-001
9.989879e+002;1.127869e-001
1.000916e+003;1.124891e-001
1.002845e+003;1.118321e-001
1.004773e+003;1.110739e-001
1.006702e+003;1.108344e-001
1.008631e+003;1.109307e-001
1.010559e+003;1.108808e-001
1.012488e+003;1.112361e-001
1.014416e+003;1.117076e-001
1.016345e+003;1.112896e-001
1.018273e+003;1.108099e-001
1.020202e+003;1.106400e-001
1.022130e+003;1.105922e-001
1.024059e+003;1.108541e-001
1.025988e+003;1.114009e-001
1.027916e+003;1.125293e-001
1.029845e+003;1.145907e-001
1.031773e+003;1.162826e-001
1.033702e+003;1.177815e-001
1.035630e+003;1.190932e-001
1.037559e+003;1.198668e-001
1.039487e+003;1.204075e-001
1.041416e+003;1.214313e-001
1.043344e+003;1.225906e-001
1.045273e+003;1.229609e-001
1.047202e+003;1.228304e-001
1.049130e+003;1.225891e-001
1.051059e+003;1.221266e-001
1.052987e+003;1.218080e-001
1.054916e+003;1.218921e-001
1.056844e+003;1.219279e-001
1.058773e+003;1.223658e-001
1.060701e+003;1.227410e-001
1.062630e+003;1.227714e-001
1.064558e+003;1.232062e-001
1.066487e+003;1.233855e-001
1.068416e+003;1.227626e-001
1.070344e+003;1.222964e-001
1.072273e+003;1.215349e-001
1.074201e+003;1.202368e-001
1.076130e+003;1.186803e-001
1.078058e+003;1.169432e-001
1.079987e+003;1.151436e-001
1.081915e+003;1.135029e-001
1.083844e+003;1.120491e-001
1.085773e+003;1.106537e-001
1.087701e+003;1.089746e-001
1.089630e+003;1.075961e-001
1.091558e+003;1.069176e-001
1.093487e+003;1.065884e-001
1.095415e+003;1.063276e-001
1.097344e+003;1.064449e-001
1.099272e+003;1.070401e-001
1.101201e+003;1.070021e-001
1.103129e+003;1.065436e-001
1.105058e+003;1.062226e-001
1.106987e+003;1.056847e-001
1.108915e+003;1.051368e-001
1.110844e+003;1.048417e-001
1.112772e+003;1.048867e-001
1.114701e+003;1.053504e-001
1.116629e+003;1.056284e-001
1.118558e+003;1.059076e-001
1.120486e+003;1.067713e-001
1.122415e+003;1.069266e-001
1.124344e+003;1.069491e-001
1.126272e+003;1.078467e-001
1.128201e+003;1.086163e-001
1.130129e+003;1.092542e-001
1.132058e+003;1.098034e-001
1.133986e+003;1.110137e-001
1.135915e+003;1.126480e-001
1.137843e+003;1.140376e-001
1.139772e+003;1.151302e-001
1.141700e+003;1.168487e-001
1.143629e+003;1.188539e-001
1.145557e+003;1.201675e-001
1.147486e+003;1.219974e-001
1.149415e+003;1.241932e-001
1.151343e+003;1.255165e-001
1.153272e+003;1.263189e-001
1.155200e+003;1.274458e-001
1.157129e+003;1.285041e-001
1.159057e+003;1.293835e-001
1.160986e+003;1.304006e-001
1.162914e+003;1.314175e-001
1.164843e+003;1.324564e-001
1.166771e+003;1.331704e-001
1.168700e+003;1.336361e-001
1.170629e+003;1.336332e-001
1.172557e+003;1.328264e-001
1.174486e+003;1.320873e-001
1.176414e+003;1.317480e-001
1.178343e+003;1.313176e-001
1.180271e+003;1.311091e-001
1.182200e+003;1.305780e-001
1.184128e+003;1.305186e-001
1.186057e+003;1.312407e-001
1.187986e+003;1.323042e-001
1.189914e+003;1.334705e-001
1.191843e+003;1.347605e-001
1.193771e+003;1.360943e-001
1.195700e+003;1.373783e-001
1.197628e+003;1.387935e-001
1.199557e+003;1.405575e-001
1.201485e+003;1.427360e-001
1.203414e+003;1.454201e-001
1.205343e+003;1.481175e-001
1.207271e+003;1.507918e-001
1.209200e+003;1.534616e-001
1.211128e+003;1.561930e-001
1.213057e+003;1.587017e-001
1.214985e+003;1.609022e-001
1.216914e+003;1.629598e-001
1.218842e+003;1.649746e-001
1.220771e+003;1.666582e-001
1.222699e+003;1.677067e-001
1.224628e+003;1.686321e-001
1.226557e+003;1.696467e-001
1.228485e+003;1.700058e-001
1.230414e+003;1.699887e-001
1.232342e+003;1.692644e-001
1.234271e+003;1.677705e-001
1.236199e+003;1.663446e-001
1.238128e+003;1.651846e-001
1.240056e+003;1.639681e-001
1.241985e+003;1.626645e-001
1.243913e+003;1.615740e-001
1.245842e+003;1.606724e-001
1.247771e+003;1.601228e-001
1.249699e+003;1.595198e-001
1.251628e+003;1.586155e-001
1.253556e+003;1.577367e-001
1.255485e+003;1.570815e-001
1.257413e+003;1.564480e-001
1.259342e+003;1.553581e-001
1.261270e+003;1.539606e-001
1.263199e+003;1.525990e-001
1.265127e+003;1.514459e-001
1.267056e+003;1.500309e-001
1.268985e+003;1.482818e-001
1.270913e+003;1.466478e-001
1.272842e+003;1.451172e-001
1.274770e+003;1.434368e-001
1.276699e+003;1.418368e-001
1.278627e+003;1.403320e-001
1.280556e+003;1.393008e-001
1.282484e+003;1.388871e-001
1.284413e+003;1.382581e-001
1.286342e+003;1.375063e-001
1.288270e+003;1.370295e-001
1.290199e+003;1.367625e-001
1.292127e+003;1.364296e-001
1.294056e+003;1.362047e-001
1.295984e+003;1.360381e-001
1.297913e+003;1.356040e-001
1.299841e+003;1.350927e-001
1.301770e+003;1.345741e-001
1.303698e+003;1.342827e-001
1.305627e+003;1.338940e-001
1.307556e+003;1.334376e-001
1.309484e+003;1.332055e-001
1.311413e+003;1.330796e-001
1.313341e+003;1.330555e-001
1.315270e+003;1.330984e-001
1.317198e+003;1.332599e-001
1.319127e+003;1.334646e-001
1.321055e+003;1.335670e-001
1.322984e+003;1.337320e-001
1.324912e+003;1.338868e-001
1.326841e+003;1.342891e-001
1.328770e+003;1.344585e-001
1.330698e+003;1.342470e-001
1.332627e+003;1.342344e-001
1.334555e+003;1.340798e-001
1.336484e+003;1.334923e-001
1.338412e+003;1.328051e-001
1.340341e+003;1.322635e-001
1.342269e+003;1.316994e-001
1.344198e+003;1.310723e-001
1.346126e+003;1.308069e-001
1.348055e+003;1.307341e-001
1.349984e+003;1.303450e-001
1.351912e+003;1.300233e-001
1.353841e+003;1.302686e-001
1.355769e+003;1.308522e-001
1.357698e+003;1.316382e-001
1.359626e+003;1.326799e-001
1.361555e+003;1.341451e-001
1.363483e+003;1.357072e-001
1.365412e+003;1.370275e-001
1.367341e+003;1.379886e-001
1.369269e+003;1.385649e-001
1.371198e+003;1.384681e-001
1.373126e+003;1.379445e-001
1.375055e+003;1.378243e-001
1.376983e+003;1.381389e-001
1.378912e+003;1.382887e-001
1.380840e+003;1.385356e-001
1.382769e+003;1.387682e-001
1.384698e+003;1.390771e-001
1.386626e+003;1.395217e-001
1.388555e+003;1.399175e-001
1.390483e+003;1.400506e-001
1.392412e+003;1.403660e-001
1.394340e+003;1.410048e-001
1.396269e+003;1.418552e-001
1.398197e+003;1.427656e-001
1.400126e+003;1.433754e-001
1.402054e+003;1.438449e-001
1.403983e+003;1.445806e-001
1.405911e+003;1.451605e-001
1.407840e+003;1.453464e-001
1.409769e+003;1.455434e-001
1.411697e+003;1.459451e-001
1.413626e+003;1.462450e-001
1.415554e+003;1.463861e-001
1.417483e+003;1.462797e-001
1.419411e+003;1.462296e-001
1.421340e+003;1.465561e-001
1.423268e+003;1.473114e-001
1.425197e+003;1.487851e-001
1.427125e+003;1.505017e-001
1.429054e+003;1.526285e-001
1.430983e+003;1.553721e-001
1.432911e+003;1.583355e-001
1.434840e+003;1.613149e-001
1.436768e+003;1.638280e-001
1.438697e+003;1.657858e-001
1.440625e+003;1.668872e-001
1.442554e+003;1.673914e-001
1.444482e+003;1.673032e-001
1.446411e+003;1.664739e-001
1.448340e+003;1.650924e-001
1.450268e+003;1.631557e-001
1.452197e+003;1.607705e-001
1.454125e+003;1.580232e-001
1.456054e+003;1.549875e-001
1.457982e+003;1.525376e-001
1.459911e+003;1.509849e-001
1.461839e+003;1.499477e-001
1.463768e+003;1.493724e-001
1.465697e+003;1.490707e-001
1.467625e+003;1.492717e-001
1.469554e+003;1.497076e-001
1.471482e+003;1.501132e-001
1.473411e+003;1.509824e-001
1.475339e+003;1.527266e-001
1.477268e+003;1.551018e-001
1.479196e+003;1.578742e-001
1.481125e+003;1.608768e-001
1.483053e+003;1.641532e-001
1.484982e+003;1.680101e-001
1.486911e+003;1.721740e-001
1.488839e+003;1.765607e-001
1.490768e+003;1.814511e-001
1.492696e+003;1.862431e-001
1.494625e+003;1.906343e-001
1.496553e+003;1.951026e-001
1.498482e+003;1.997258e-001
1.500410e+003;2.036642e-001
1.502339e+003;2.069125e-001
1.504267e+003;2.097673e-001
1.506196e+003;2.124247e-001
1.508125e+003;2.153526e-001
1.510053e+003;2.179483e-001
1.511982e+003;2.195726e-001
1.513910e+003;2.198081e-001
1.515839e+003;2.181861e-001
1.517767e+003;2.150273e-001
1.519696e+003;2.111194e-001
1.521624e+003;2.075410e-001
1.523553e+003;2.046192e-001
1.525481e+003;2.017184e-001
1.527410e+003;1.988586e-001
1.529339e+003;1.960291e-001
1.531267e+003;1.933712e-001
1.533196e+003;1.909810e-001
1.535124e+003;1.881870e-001
1.537053e+003;1.847710e-001
1.538981e+003;1.813587e-001
1.540910e+003;1.786318e-001
1.542838e+003;1.762404e-001
1.544767e+003;1.737744e-001
1.546695e+003;1.711948e-001
1.548624e+003;1.687381e-001
1.550553e+003;1.661676e-001
1.552481e+003;1.634083e-001
1.554410e+003;1.605271e-001
1.556338e+003;1.575322e-001
1.558267e+003;1.543466e-001
1.560195e+003;1.515728e-001
1.562124e+003;1.492074e-001
1.564052e+003;1.464115e-001
1.565981e+003;1.439198e-001
1.567910e+003;1.417612e-001
1.569838e+003;1.396170e-001
1.571767e+003;1.379360e-001
1.573695e+003;1.363423e-001
1.575624e+003;1.347514e-001
1.577552e+003;1.342355e-001
1.579481e+003;1.345251e-001
1.581409e+003;1.349304e-001
1.583338e+003;1.357057e-001
1.585266e+003;1.369178e-001
1.587195e+003;1.386986e-001
1.589124e+003;1.408788e-001
1.591052e+003;1.432477e-001
1.592981e+003;1.458882e-001
1.594909e+003;1.490439e-001
1.596838e+003;1.522702e-001
1.598766e+003;1.559120e-001
1.600695e+003;1.606508e-001
1.602623e+003;1.663058e-001
1.604552e+003;1.725740e-001
1.606480e+003;1.796103e-001
1.608409e+003;1.871503e-001
1.610338e+003;1.948174e-001
1.612266e+003;2.023659e-001
1.614195e+003;2.093219e-001
1.616123e+003;2.156033e-001
1.618052e+003;2.209322e-001
1.619980e+003;2.248651e-001
1.621909e+003;2.267632e-001
1.623837e+003;2.270735e-001
1.625766e+003;2.260666e-001
1.627694e+003;2.236004e-001
1.629623e+003;2.202239e-001
1.631552e+003;2.160290e-001
1.633480e+003;2.112255e-001
1.635409e+003;2.065002e-001
1.637337e+003;2.024119e-001
1.639266e+003;1.985110e-001
1.641194e+003;1.947012e-001
1.643123e+003;1.910510e-001
1.645051e+003;1.872935e-001
1.646980e+003;1.837119e-001
1.648909e+003;1.803306e-001
1.650837e+003;1.767573e-001
1.652766e+003;1.727879e-001
1.654694e+003;1.694962e-001
1.656623e+003;1.663809e-001
1.658551e+003;1.626656e-001
1.660480e+003;1.587631e-001
1.662408e+003;1.549427e-001
1.664337e+003;1.516057e-001
1.666266e+003;1.486661e-001
1.668194e+003;1.453323e-001
1.670123e+003;1.422565e-001
1.672051e+003;1.397084e-001
1.673980e+003;1.367296e-001
1.675908e+003;1.337495e-001
1.677837e+003;1.310570e-001
1.679765e+003;1.282737e-001
1.681694e+003;1.255778e-001
1.683622e+003;1.230958e-001
1.685551e+003;1.209385e-001
1.687479e+003;1.194853e-001
1.689408e+003;1.183115e-001
1.691337e+003;1.171279e-001
1.693265e+003;1.158583e-001
1.695194e+003;1.147248e-001
1.697122e+003;1.140373e-001
1.699051e+003;1.123805e-001
1.700979e+003;1.088679e-001
1.702908e+003;1.039485e-001
1.704836e+003;9.757557e-002
1.706765e+003;9.107199e-002
1.708693e+003;8.573189e-002
1.710622e+003;8.168302e-002
1.712551e+003;7.857081e-002
1.714479e+003;7.605483e-002
1.716408e+003;7.373650e-002
1.718336e+003;7.218222e-002
1.720265e+003;7.116326e-002
1.722193e+003;7.033529e-002
1.724122e+003;6.965322e-002
1.726050e+003;6.884354e-002
1.727979e+003;6.818555e-002
1.729908e+003;6.774139e-002
1.731836e+003;6.721061e-002
1.733765e+003;6.678744e-002
1.735693e+003;6.654282e-002
1.737622e+003;6.626558e-002
1.739550e+003;6.593528e-002
1.741479e+003;6.594785e-002
1.743407e+003;6.566054e-002
1.745336e+003;6.518777e-002
1.747265e+003;6.480656e-002
1.749193e+003;6.449082e-002
1.751122e+003;6.413177e-002
1.753050e+003;6.405174e-002
1.754979e+003;6.394907e-002
1.756907e+003;6.380225e-002
1.758836e+003;6.364220e-002
1.760764e+003;6.335619e-002
1.762693e+003;6.302607e-002
1.764621e+003;6.304947e-002
1.766550e+003;6.295287e-002
1.768479e+003;6.260059e-002
1.770407e+003;6.247465e-002
1.772336e+003;6.239646e-002
1.774264e+003;6.246497e-002
1.776193e+003;6.259626e-002
1.778121e+003;6.243379e-002
1.780050e+003;6.220175e-002
1.781978e+003;6.199972e-002
1.783907e+003;6.176822e-002
1.785835e+003;6.176466e-002
1.787764e+003;6.179965e-002
1.789693e+003;6.164092e-002
1.791621e+003;6.142579e-002
1.793550e+003;6.142377e-002
1.795478e+003;6.133217e-002
1.797407e+003;6.119627e-002
1.799335e+003;6.113352e-002
1.801264e+003;6.098304e-002
1.803192e+003;6.086851e-002
1.805121e+003;6.055837e-002
1.807049e+003;6.029379e-002
1.808978e+003;6.024274e-002
1.810907e+003;6.015966e-002
1.812835e+003;5.983568e-002
1.814764e+003;5.963091e-002
1.816692e+003;5.952347e-002
1.818621e+003;5.941016e-002
1.820549e+003;5.925268e-002
1.822478e+003;5.902446e-002
1.824406e+003;5.896938e-002
1.826335e+003;5.894266e-002
1.828264e+003;5.877272e-002
1.830192e+003;5.873812e-002
1.832121e+003;5.851870e-002
1.834049e+003;5.816916e-002
1.835978e+003;5.791694e-002
1.837906e+003;5.774508e-002
1.839835e+003;5.783888e-002
1.841763e+003;5.778838e-002
1.843692e+003;5.750071e-002
1.845620e+003;5.737314e-002
1.847549e+003;5.716450e-002
1.849478e+003;5.699075e-002
1.851406e+003;5.710331e-002
1.853335e+003;5.698716e-002
1.855263e+003;5.669790e-002
1.857192e+003;5.664614e-002
1.859120e+003;5.668544e-002
1.861049e+003;5.678652e-002
1.862977e+003;5.673766e-002
1.864906e+003;5.657767e-002
1.866834e+003;5.653853e-002
1.868763e+003;5.655219e-002
1.870692e+003;5.646694e-002
1.872620e+003;5.632719e-002
1.874549e+003;5.631720e-002
1.876477e+003;5.624576e-002
1.878406e+003;5.629000e-002
1.880334e+003;5.643381e-002
1.882263e+003;5.622513e-002
1.884191e+003;5.610095e-002
1.886120e+003;5.615389e-002
1.888048e+003;5.607543e-002
1.889977e+003;5.595100e-002
1.891906e+003;5.598202e-002
1.893834e+003;5.602601e-002
1.895763e+003;5.584808e-002
1.897691e+003;5.565836e-002
1.899620e+003;5.551484e-002
1.901548e+003;5.529098e-002
1.903477e+003;5.523713e-002
1.905405e+003;5.530464e-002
1.907334e+003;5.528858e-002
1.909262e+003;5.514458e-002
1.911191e+003;5.505212e-002
1.913120e+003;5.478888e-002
1.915048e+003;5.466759e-002
1.916977e+003;5.484951e-002
1.918905e+003;5.490512e-002
1.920834e+003;5.477877e-002
1.922762e+003;5.456329e-002
1.924691e+003;5.466511e-002
1.926619e+003;5.476997e-002
1.928548e+003;5.478001e-002
1.930477e+003;5.475092e-002
1.932405e+003;5.476298e-002
1.934334e+003;5.479884e-002
1.936262e+003;5.468533e-002
1.938191e+003;5.453207e-002
1.940119e+003;5.447366e-002
1.942048e+003;5.451141e-002
1.943976e+003;5.458767e-002
1.945905e+003;5.454503e-002
1.947833e+003;5.464850e-002
1.949762e+003;5.482895e-002
1.951691e+003;5.471134e-002
1.953619e+003;5.467090e-002
1.955548e+003;5.468597e-002
1.957476e+003;5.450367e-002
1.959405e+003;5.437544e-002
1.961333e+003;5.443332e-002
1.963262e+003;5.446783e-002
1.965190e+003;5.446393e-002
1.967119e+003;5.455983e-002
1.969047e+003;5.462727e-002
1.970976e+003;5.468947e-002
1.972905e+003;5.461608e-002
1.974833e+003;5.447054e-002
1.976762e+003;5.429392e-002
1.978690e+003;5.415562e-002
1.980619e+003;5.418914e-002
1.982547e+003;5.425356e-002
1.984476e+003;5.425559e-002
1.986404e+003;5.419838e-002
1.988333e+003;5.437063e-002
1.990261e+003;5.438205e-002
1.992190e+003;5.436211e-002
1.994119e+003;5.420908e-002
1.996047e+003;5.389420e-002
1.997976e+003;5.391502e-002
1.999904e+003;5.410540e-002
2.001833e+003;5.392594e-002
2.003761e+003;5.386697e-002
2.005690e+003;5.406578e-002
2.007618e+003;5.405429e-002
2.009547e+003;5.393194e-002
2.011476e+003;5.393302e-002
2.013404e+003;5.397227e-002
2.015333e+003;5.391307e-002
2.017261e+003;5.396942e-002
2.019190e+003;5.407061e-002
2.021118e+003;5.401789e-002
2.023047e+003;5.407992e-002
2.024975e+003;5.406683e-002
2.026904e+003;5.401538e-002
2.028833e+003;5.404345e-002
2.030761e+003;5.398600e-002
2.032690e+003;5.401444e-002
2.034618e+003;5.424962e-002
2.036547e+003;5.420934e-002
2.038475e+003;5.402423e-002
2.040404e+003;5.407501e-002
2.042332e+003;5.394492e-002
2.044261e+003;5.364268e-002
2.046189e+003;5.358746e-002
2.048118e+003;5.374204e-002
2.050047e+003;5.385500e-002
2.051975e+003;5.380204e-002
2.053904e+003;5.379717e-002
2.055832e+003;5.383171e-002
2.057761e+003;5.378884e-002
2.059689e+003;5.372269e-002
2.061618e+003;5.363604e-002
2.063546e+003;5.364411e-002
2.065475e+003;5.368921e-002
2.067404e+003;5.387330e-002
2.069332e+003;5.407328e-002
2.071260e+003;5.397099e-002
2.073189e+003;5.372483e-002
2.075118e+003;5.369101e-002
2.077046e+003;5.383895e-002
2.078975e+003;5.387713e-002
2.080903e+003;5.406630e-002
2.082832e+003;5.413505e-002
2.084760e+003;5.397065e-002
2.086689e+003;5.387859e-002
2.088617e+003;5.380767e-002
2.090546e+003;5.391982e-002
2.092475e+003;5.413727e-002
2.094403e+003;5.409640e-002
2.096332e+003;5.391044e-002
2.098260e+003;5.371148e-002
2.100189e+003;5.372153e-002
2.102117e+003;5.383253e-002
2.104046e+003;5.385102e-002
2.105974e+003;5.380538e-002
2.107903e+003;5.385841e-002
2.109832e+003;5.379949e-002
2.111760e+003;5.371999e-002
2.113688e+003;5.366619e-002
2.115617e+003;5.365119e-002
2.117546e+003;5.353915e-002
2.119474e+003;5.351771e-002
2.121403e+003;5.353199e-002
2.123331e+003;5.339415e-002
2.125260e+003;5.334665e-002
2.127188e+003;5.347682e-002
2.129117e+003;5.345602e-002
2.131045e+003;5.327363e-002
2.132974e+003;5.328749e-002
2.134903e+003;5.343713e-002
2.136831e+003;5.335069e-002
2.138760e+003;5.326464e-002
2.140688e+003;5.323183e-002
2.142617e+003;5.310937e-002
2.144545e+003;5.291894e-002
2.146474e+003;5.285726e-002
2.148402e+003;5.291523e-002
2.150331e+003;5.281943e-002
2.152260e+003;5.258080e-002
2.154188e+003;5.246446e-002
2.156117e+003;5.265433e-002
2.158045e+003;5.267034e-002
2.159974e+003;5.252672e-002
2.161902e+003;5.251633e-002
2.163831e+003;5.257825e-002
2.165759e+003;5.265631e-002
2.167688e+003;5.276918e-002
2.169616e+003;5.273083e-002
2.171545e+003;5.250761e-002
2.173474e+003;5.252743e-002
2.175402e+003;5.255073e-002
2.177331e+003;5.246592e-002
2.179259e+003;5.268078e-002
2.181188e+003;5.286811e-002
2.183116e+003;5.276435e-002
2.185045e+003;5.266779e-002
2.186973e+003;5.276577e-002
2.188902e+003;5.277625e-002
2.190831e+003;5.266372e-002
2.192759e+003;5.269005e-002
2.194688e+003;5.276861e-002
2.196616e+003;5.267049e-002
2.198545e+003;5.254553e-002
2.200473e+003;5.258951e-002
2.202402e+003;5.262138e-002
2.204330e+003;5.260275e-002
2.206259e+003;5.258962e-002
2.208188e+003;5.234185e-002
2.210116e+003;5.208312e-002
2.212044e+003;5.201416e-002
2.213973e+003;5.219763e-002
2.215902e+003;5.206795e-002
2.217830e+003;5.182081e-002
2.219759e+003;5.182118e-002
2.221687e+003;5.179054e-002
2.223616e+003;5.180730e-002
2.225544e+003;5.190549e-002
2.227473e+003;5.180468e-002
2.229401e+003;5.165449e-002
2.231330e+003;5.142906e-002
2.233259e+003;5.112775e-002
2.235187e+003;5.128530e-002
2.237116e+003;5.137663e-002
2.239044e+003;5.135033e-002
2.240973e+003;5.133213e-002
2.242901e+003;5.124059e-002
2.244830e+003;5.125305e-002
2.246758e+003;5.131617e-002
2.248687e+003;5.113297e-002
2.250615e+003;5.102809e-002
2.252544e+003;5.107538e-002
2.254473e+003;5.102437e-002
2.256401e+003;5.106640e-002
2.258330e+003;5.112190e-002
2.260258e+003;5.107099e-002
2.262187e+003;5.106767e-002
2.264115e+003;5.110021e-002
2.266044e+003;5.103525e-002
2.267972e+003;5.088759e-002
2.269901e+003;5.087112e-002
2.271830e+003;5.087317e-002
2.273758e+003;5.088852e-002
2.275687e+003;5.106003e-002
2.277615e+003;5.113066e-002
2.279544e+003;5.098982e-002
2.281472e+003;5.078058e-002
2.283401e+003;5.073004e-002
2.285329e+003;5.095510e-002
2.287258e+003;5.108232e-002
2.289187e+003;5.116223e-002
2.291115e+003;5.125286e-002
2.293043e+003;5.118009e-002
2.294972e+003;5.093811e-002
2.296901e+003;5.119474e-002
2.298829e+003;5.157329e-002
2.300758e+003;5.120529e-002
2.302686e+003;5.087686e-002
2.304615e+003;5.089310e-002
2.306543e+003;5.096788e-002
2.308472e+003;5.119630e-002
2.310400e+003;5.121480e-002
2.312329e+003;5.103569e-002
2.314258e+003;5.085149e-002
2.316186e+003;5.094496e-002
2.318115e+003;5.105981e-002
2.320043e+003;5.112257e-002
2.321972e+003;5.129566e-002
2.323900e+003;5.116685e-002
2.325829e+003;5.081465e-002
2.327757e+003;5.064343e-002
2.329686e+003;5.072922e-002
2.331615e+003;5.069723e-002
2.333543e+003;5.068960e-002
2.335472e+003;5.076683e-002
2.337400e+003;5.080624e-002
2.339329e+003;5.066316e-002
2.341257e+003;5.051864e-002
2.343186e+003;5.073935e-002
2.345114e+003;5.078884e-002
2.347043e+003;5.053629e-002
2.348971e+003;5.057411e-002
2.350900e+003;5.079689e-002
2.352829e+003;5.074381e-002
2.354757e+003;5.067463e-002
2.356686e+003;5.060318e-002
2.358614e+003;5.059987e-002
2.360543e+003;5.074288e-002
2.362471e+003;5.045537e-002
2.364400e+003;5.035895e-002
2.366328e+003;5.069868e-002
2.368257e+003;5.085749e-002
2.370186e+003;5.090964e-002
2.372114e+003;5.104449e-002
2.374042e+003;5.104565e-002
2.375971e+003;5.086587e-002
2.377900e+003;5.092701e-002
2.379828e+003;5.129697e-002
2.381757e+003;5.137573e-002
2.383685e+003;5.119712e-002
2.385614e+003;5.105921e-002
2.387542e+003;5.107993e-002
2.389471e+003;5.106342e-002
2.391399e+003;5.112626e-002
2.393328e+003;5.135671e-002
2.395257e+003;5.166747e-002
2.397185e+003;5.167598e-002
2.399114e+003;5.169882e-002
2.401042e+003;5.194985e-002
2.402971e+003;5.205469e-002
2.404899e+003;5.200513e-002
2.406828e+003;5.210531e-002
2.408756e+003;5.218336e-002
2.410685e+003;5.204020e-002
2.412614e+003;5.211730e-002
2.414542e+003;5.239766e-002
2.416471e+003;5.258005e-002
2.418399e+003;5.280270e-002
2.420328e+003;5.322775e-002
2.422256e+003;5.328723e-002
2.424185e+003;5.342612e-002
2.426113e+003;5.381794e-002
2.428042e+003;5.405684e-002
2.429970e+003;5.415953e-002
2.431899e+003;5.420480e-002
2.433828e+003;5.414680e-002
2.435756e+003;5.418685e-002
2.437685e+003;5.423160e-002
2.439613e+003;5.439024e-002
2.441542e+003;5.457433e-002
2.443470e+003;5.465805e-002
2.445399e+003;5.458361e-002
2.447327e+003;5.453999e-002
2.449256e+003;5.455577e-002
2.451185e+003;5.442468e-002
2.453113e+003;5.430943e-002
2.455042e+003;5.436369e-002
2.456970e+003;5.437856e-002
2.458899e+003;5.449495e-002
2.460827e+003;5.477050e-002
2.462756e+003;5.479060e-002
2.464684e+003;5.470198e-002
2.466613e+003;5.464020e-002
2.468542e+003;5.454961e-002
2.470470e+003;5.465632e-002
2.472398e+003;5.493464e-002
2.474327e+003;5.520775e-002
2.476256e+003;5.504354e-002
2.478184e+003;5.485455e-002
2.480113e+003;5.490222e-002
2.482041e+003;5.499593e-002
2.483970e+003;5.505385e-002
2.485898e+003;5.517893e-002
2.487827e+003;5.524541e-002
2.489755e+003;5.530671e-002
2.491684e+003;5.525584e-002
2.493613e+003;5.500458e-002
2.495541e+003;5.505814e-002
2.497470e+003;5.527221e-002
2.499398e+003;5.516275e-002
2.501327e+003;5.515970e-002
2.503255e+003;5.551420e-002
2.505184e+003;5.568303e-002
2.507112e+003;5.558872e-002
2.509041e+003;5.554926e-002
2.510969e+003;5.542625e-002
2.512898e+003;5.551782e-002
2.514827e+003;5.577909e-002
2.516755e+003;5.575155e-002
2.518684e+003;5.553740e-002
2.520612e+003;5.544937e-002
2.522541e+003;5.558304e-002
2.524469e+003;5.561422e-002
2.526398e+003;5.583689e-002
2.528326e+003;5.612640e-002
2.530255e+003;5.602096e-002
2.532184e+003;5.594870e-002
2.534112e+003;5.599710e-002
2.536041e+003;5.617218e-002
2.537969e+003;5.631109e-002
2.539898e+003;5.614315e-002
2.541826e+003;5.605752e-002
2.543755e+003;5.632878e-002
2.545683e+003;5.657378e-002
2.547612e+003;5.667865e-002
2.549541e+003;5.673849e-002
2.551469e+003;5.686341e-002
2.553397e+003;5.701334e-002
2.555326e+003;5.699728e-002
2.557255e+003;5.701950e-002
2.559183e+003;5.718052e-002
2.561112e+003;5.721949e-002
2.563040e+003;5.729034e-002
2.564969e+003;5.759270e-002
2.566897e+003;5.765112e-002
2.568826e+003;5.774891e-002
2.570754e+003;5.804512e-002
2.572683e+003;5.825055e-002
2.574612e+003;5.818959e-002
2.576540e+003;5.819424e-002
2.578469e+003;5.830227e-002
2.580397e+003;5.830151e-002
2.582326e+003;5.833459e-002
2.584254e+003;5.857664e-002
2.586183e+003;5.873023e-002
2.588111e+003;5.893876e-002
2.590040e+003;5.920939e-002
2.591969e+003;5.934646e-002
2.593897e+003;5.938729e-002
2.595826e+003;5.943038e-002
2.597754e+003;5.974013e-002
2.599683e+003;5.982553e-002
2.601611e+003;5.980260e-002
2.603540e+003;5.990482e-002
2.605468e+003;5.983766e-002
2.607397e+003;5.976804e-002
2.609325e+003;5.976173e-002
2.611254e+003;5.974739e-002
2.613183e+003;5.982055e-002
2.615111e+003;6.011829e-002
2.617040e+003;6.037961e-002
2.618968e+003;6.044209e-002
2.620897e+003;6.044910e-002
2.622825e+003;6.053514e-002
2.624754e+003;6.061860e-002
2.626682e+003;6.059688e-002
2.628611e+003;6.053453e-002
2.630540e+003;6.056450e-002
2.632468e+003;6.049263e-002
2.634396e+003;6.044209e-002
2.636325e+003;6.014287e-002
2.638254e+003;6.008347e-002
2.640182e+003;6.022767e-002
2.642111e+003;6.016114e-002
2.644039e+003;6.039362e-002
2.645968e+003;6.068215e-002
2.647896e+003;6.049495e-002
2.649825e+003;6.013096e-002
2.651753e+003;5.997523e-002
2.653682e+003;6.023795e-002
2.655611e+003;6.066855e-002
2.657539e+003;6.083478e-002
2.659468e+003;6.080459e-002
2.661396e+003;6.084389e-002
2.663325e+003;6.083093e-002
2.665253e+003;6.095101e-002
2.667182e+003;6.106857e-002
2.669110e+003;6.103722e-002
2.671039e+003;6.104508e-002
2.672968e+003;6.105537e-002
2.674896e+003;6.092551e-002
2.676825e+003;6.121279e-002
2.678753e+003;6.156581e-002
2.680682e+003;6.154153e-002
2.682610e+003;6.166979e-002
2.684539e+003;6.174171e-002
2.686467e+003;6.169442e-002
2.688396e+003;6.176971e-002
2.690324e+003;6.201134e-002
2.692253e+003;6.225746e-002
2.694182e+003;6.250274e-002
2.696110e+003;6.230535e-002
2.698039e+003;6.210327e-002
2.699967e+003;6.229433e-002
2.701896e+003;6.239841e-002
2.703824e+003;6.245304e-002
2.705753e+003;6.270397e-002
2.707681e+003;6.300998e-002
2.709610e+003;6.303128e-002
2.711539e+003;6.299006e-002
2.713467e+003;6.295609e-002
2.715396e+003;6.290568e-002
2.717324e+003;6.334040e-002
2.719253e+003;6.362445e-002
2.721181e+003;6.364643e-002
2.723110e+003;6.385752e-002
2.725038e+003;6.386182e-002
2.726967e+003;6.378333e-002
2.728896e+003;6.401967e-002
2.730824e+003;6.412620e-002
2.732752e+003;6.408756e-002
2.734681e+003;6.410346e-002
2.736610e+003;6.428442e-002
2.738538e+003;6.476013e-002
2.740467e+003;6.481452e-002
2.742395e+003;6.452008e-002
2.744324e+003;6.445420e-002
2.746252e+003;6.455199e-002
2.748181e+003;6.462615e-002
2.750109e+003;6.485395e-002
2.752038e+003;6.514031e-002
2.753967e+003;6.514370e-002
2.755895e+003;6.526539e-002
2.757824e+003;6.560069e-002
2.759752e+003;6.572464e-002
2.761681e+003;6.567997e-002
2.763609e+003;6.574723e-002
2.765538e+003;6.595083e-002
2.767466e+003;6.595676e-002
2.769395e+003;6.611211e-002
2.771323e+003;6.623265e-002
2.773252e+003;6.626025e-002
2.775181e+003;6.637926e-002
2.777109e+003;6.649552e-002
2.779038e+003;6.660438e-002
2.780966e+003;6.671796e-002
2.782895e+003;6.683798e-002
2.784823e+003;6.690569e-002
2.786752e+003;6.706942e-002
2.788680e+003;6.712747e-002
2.790609e+003;6.700277e-002
2.792538e+003;6.695978e-002
2.794466e+003;6.692769e-002
2.796395e+003;6.708562e-002
2.798323e+003;6.748495e-002
2.800252e+003;6.748115e-002
2.802180e+003;6.745719e-002
2.804109e+003;6.769051e-002
2.806037e+003;6.777242e-002
2.807966e+003;6.795863e-002
2.809895e+003;6.818342e-002
2.811823e+003;6.842644e-002
2.813751e+003;6.836884e-002
2.815680e+003;6.823634e-002
2.817609e+003;6.825285e-002
2.819537e+003;6.825767e-002
2.821466e+003;6.829109e-002
2.823394e+003;6.843062e-002
2.825323e+003;6.865368e-002
2.827251e+003;6.886291e-002
2.829180e+003;6.896155e-002
2.831108e+003;6.908506e-002
2.833037e+003;6.919781e-002
2.834966e+003;6.941710e-002
2.836894e+003;6.964653e-002
2.838823e+003;6.997639e-002
2.840751e+003;7.037047e-002
2.842680e+003;7.069094e-002
2.844608e+003;7.106455e-002
2.846537e+003;7.147388e-002
2.848465e+003;7.186761e-002
2.850394e+003;7.195562e-002
2.852323e+003;7.205437e-002
2.854251e+003;7.225491e-002
2.856180e+003;7.234132e-002
2.858108e+003;7.240755e-002
2.860037e+003;7.294378e-002
2.861965e+003;7.325353e-002
2.863894e+003;7.304049e-002
2.865822e+003;7.299976e-002
2.867751e+003;7.342488e-002
2.869679e+003;7.375814e-002
2.871608e+003;7.371785e-002
2.873536e+003;7.397942e-002
2.875465e+003;7.423460e-002
2.877394e+003;7.429274e-002
2.879322e+003;7.431122e-002
2.881251e+003;7.426679e-002
2.883179e+003;7.425433e-002
2.885108e+003;7.421804e-002
2.887036e+003;7.418168e-002
2.888965e+003;7.412175e-002
2.890893e+003;7.428551e-002
2.892822e+003;7.441802e-002
2.894750e+003;7.449609e-002
2.896679e+003;7.476451e-002
2.898608e+003;7.495248e-002
2.900536e+003;7.500490e-002
2.902465e+003;7.526741e-002
2.904393e+003;7.571874e-002
2.906322e+003;7.617217e-002
2.908250e+003;7.666994e-002
2.910179e+003;7.699323e-002
2.912107e+003;7.730797e-002
2.914036e+003;7.771831e-002
2.915965e+003;7.822203e-002
2.917893e+003;7.863661e-002
2.919822e+003;7.909981e-002
2.921750e+003;7.947552e-002
2.923679e+003;7.978335e-002
2.925607e+003;8.029409e-002
2.927536e+003;8.060218e-002
2.929464e+003;8.047846e-002
2.931393e+003;8.025938e-002
2.933322e+003;8.024917e-002
2.935250e+003;8.039273e-002
2.937178e+003;8.043850e-002
2.939107e+003;8.038574e-002
2.941036e+003;8.000861e-002
2.942964e+003;7.939094e-002
2.944893e+003;7.871775e-002
2.946821e+003;7.835448e-002
2.948750e+003;7.807459e-002
2.950678e+003;7.754050e-002
2.952607e+003;7.713044e-002
2.954535e+003;7.714687e-002
2.956464e+003;7.722389e-002
2.958393e+003;7.736883e-002
2.960321e+003;7.734641e-002
2.962250e+003;7.729419e-002
2.964178e+003;7.716314e-002
2.966107e+003;7.722449e-002
2.968035e+003;7.732931e-002
2.969964e+003;7.755734e-002
2.971892e+003;7.817549e-002
2.973821e+003;7.808343e-002
2.975750e+003;7.763804e-002
2.977678e+003;7.760559e-002
2.979607e+003;7.752525e-002
2.981535e+003;7.703991e-002
2.983464e+003;7.696020e-002
2.985392e+003;7.693551e-002
2.987321e+003;7.658713e-002
2.989249e+003;7.630277e-002
2.991178e+003;7.584976e-002
2.993106e+003;7.547287e-002
2.995035e+003;7.538844e-002
2.996964e+003;7.543510e-002
2.998892e+003;7.555890e-002
3.000821e+003;7.542537e-002
3.002749e+003;7.487623e-002
3.004678e+003;7.465432e-002
3.006606e+003;7.482383e-002
3.008535e+003;7.470839e-002
3.010463e+003;7.433233e-002
3.012392e+003;7.408709e-002
3.014321e+003;7.411102e-002
3.016249e+003;7.448256e-002
3.018177e+003;7.484587e-002
3.020106e+003;7.505917e-002
3.022035e+003;7.513503e-002
3.023963e+003;7.519286e-002
3.025892e+003;7.545552e-002
3.027820e+003;7.557444e-002
3.029749e+003;7.545525e-002
3.031677e+003;7.560618e-002
3.033606e+003;7.576974e-002
3.035534e+003;7.598141e-002
3.037463e+003;7.675157e-002
3.039392e+003;7.732951e-002
3.041320e+003;7.737155e-002
3.043249e+003;7.761201e-002
3.045177e+003;7.782064e-002
3.047106e+003;7.819390e-002
3.049034e+003;7.877848e-002
3.050963e+003;7.912879e-002
3.052891e+003;7.930165e-002
3.054820e+003;7.928061e-002
3.056749e+003;7.949980e-002
3.058677e+003;7.965369e-002
3.060606e+003;7.945905e-002
3.062534e+003;7.942571e-002
3.064463e+003;8.008849e-002
3.066391e+003;8.020915e-002
3.068320e+003;7.988736e-002
3.070248e+003;7.994249e-002
3.072177e+003;8.009251e-002
3.074105e+003;8.033615e-002
3.076034e+003;8.049401e-002
3.077963e+003;8.036908e-002
3.079891e+003;7.999551e-002
3.081820e+003;7.967132e-002
3.083748e+003;7.961779e-002
3.085677e+003;7.980935e-002
3.087605e+003;7.989915e-002
3.089534e+003;7.981253e-002
3.091462e+003;7.962599e-002
3.093391e+003;7.915797e-002
3.095320e+003;7.898068e-002
3.097248e+003;7.907747e-002
3.099177e+003;7.896598e-002
3.101105e+003;7.892589e-002
3.103034e+003;7.903896e-002
3.104962e+003;7.875902e-002
3.106891e+003;7.815153e-002
3.108819e+003;7.782476e-002
3.110748e+003;7.779876e-002
3.112677e+003;7.785307e-002
3.114605e+003;7.764156e-002
3.116533e+003;7.738296e-002
3.118462e+003;7.753991e-002
3.120391e+003;7.773880e-002
3.122319e+003;7.763503e-002
3.124248e+003;7.731399e-002
3.126176e+003;7.712498e-002
3.128105e+003;7.720612e-002
3.130033e+003;7.746125e-002
3.131962e+003;7.763756e-002
3.133890e+003;7.770817e-002
3.135819e+003;7.797506e-002
3.137748e+003;7.817549e-002
3.139676e+003;7.820346e-002
3.141605e+003;7.827539e-002
3.143533e+003;7.854394e-002
3.145462e+003;7.865658e-002
3.147390e+003;7.854140e-002
3.149319e+003;7.853905e-002
3.151247e+003;7.892561e-002
3.153176e+003;7.951496e-002
3.155104e+003;7.982396e-002
3.157033e+003;7.983161e-002
3.158962e+003;8.004407e-002
3.160890e+003;8.040449e-002
3.162819e+003;8.097213e-002
3.164747e+003;8.112707e-002
3.166676e+003;8.103350e-002
3.168604e+003;8.120628e-002
3.170533e+003;8.171793e-002
3.172461e+003;8.223256e-002
3.174390e+003;8.252928e-002
3.176319e+003;8.279125e-002
3.178247e+003;8.317820e-002
3.180176e+003;8.374152e-002
3.182104e+003;8.455953e-002
3.184033e+003;8.532657e-002
3.185961e+003;8.542433e-002
3.187890e+003;8.556323e-002
3.189818e+003;8.606567e-002
3.191747e+003;8.659138e-002
3.193676e+003;8.727929e-002
3.195604e+003;8.808134e-002
3.197532e+003;8.849188e-002
3.199461e+003;8.865193e-002
3.201390e+003;8.887382e-002
3.203318e+003;8.922708e-002
3.205247e+003;8.990324e-002
3.207175e+003;9.038682e-002
3.209104e+003;9.079494e-002
3.211032e+003;9.130518e-002
3.212961e+003;9.174845e-002
3.214889e+003;9.232171e-002
3.216818e+003;9.294898e-002
3.218747e+003;9.338206e-002
3.220675e+003;9.386148e-002
3.222604e+003;9.455804e-002
3.224532e+003;9.533346e-002
3.226461e+003;9.611788e-002
3.228389e+003;9.669209e-002
3.230318e+003;9.695326e-002
3.232246e+003;9.776381e-002
3.234175e+003;9.835275e-002
3.236104e+003;9.872607e-002
3.238032e+003;9.964158e-002
3.239961e+003;1.006883e-001
3.241889e+003;1.014691e-001
3.243818e+003;1.023723e-001
3.245746e+003;1.035456e-001
3.247675e+003;1.045511e-001
3.249603e+003;1.054257e-001
3.251532e+003;1.060918e-001
3.253460e+003;1.067791e-001
3.255389e+003;1.076776e-001
3.257318e+003;1.090896e-001
3.259246e+003;1.102442e-001
3.261175e+003;1.115596e-001
3.263103e+003;1.130276e-001
3.265032e+003;1.138580e-001
3.266960e+003;1.143714e-001
3.268889e+003;1.153462e-001
3.270817e+003;1.165211e-001
3.272746e+003;1.173958e-001
3.274675e+003;1.183671e-001
3.276603e+003;1.191200e-001
3.278531e+003;1.192720e-001
3.280460e+003;1.195214e-001
3.282389e+003;1.196348e-001
3.284317e+003;1.194425e-001
3.286246e+003;1.192921e-001
3.288174e+003;1.191149e-001
3.290103e+003;1.186496e-001
3.292031e+003;1.178371e-001
3.293960e+003;1.165797e-001
3.295888e+003;1.155425e-001
3.297817e+003;1.144445e-001
3.299746e+003;1.132978e-001
3.301674e+003;1.118355e-001
3.303603e+003;1.108993e-001
3.305531e+003;1.104374e-001
3.307460e+003;1.093641e-001
3.309388e+003;1.076584e-001
3.311317e+003;1.060597e-001
3.313245e+003;1.050189e-001
3.315174e+003;1.039468e-001
3.317103e+003;1.026074e-001
3.319031e+003;1.010292e-001
3.320960e+003;9.993935e-002
3.322888e+003;9.894427e-002
3.324817e+003;9.745044e-002
3.326745e+003;9.620946e-002
3.328674e+003;9.540948e-002
3.330602e+003;9.471839e-002
3.332531e+003;9.352296e-002
3.334459e+003;9.223028e-002
3.336388e+003;9.130465e-002
3.338317e+003;9.037862e-002
3.340245e+003;8.968310e-002
3.342174e+003;8.888793e-002
3.344102e+003;8.810265e-002
3.346031e+003;8.723275e-002
3.347959e+003;8.648882e-002
3.349888e+003;8.580039e-002
3.351816e+003;8.521467e-002
3.353745e+003;8.468495e-002
3.355674e+003;8.401942e-002
3.357602e+003;8.329278e-002
3.359531e+003;8.281291e-002
3.361459e+003;8.264169e-002
3.363388e+003;8.235614e-002
3.365316e+003;8.186109e-002
3.367245e+003;8.093756e-002
3.369173e+003;8.048851e-002
3.371102e+003;8.037315e-002
3.373031e+003;7.996997e-002
3.374959e+003;7.968677e-002
3.376887e+003;7.909898e-002
3.378816e+003;7.845481e-002
3.380745e+003;7.798120e-002
3.382673e+003;7.771701e-002
3.384602e+003;7.742561e-002
3.386530e+003;7.730778e-002
3.388459e+003;7.733901e-002
3.390387e+003;7.678309e-002
3.392316e+003;7.644036e-002
3.394244e+003;7.659262e-002
3.396173e+003;7.668681e-002
3.398102e+003;7.604855e-002
3.400030e+003;7.531419e-002
3.401959e+003;7.504916e-002
3.403887e+003;7.465401e-002
3.405816e+003;7.411251e-002
3.407744e+003;7.370364e-002
3.409673e+003;7.349497e-002
3.411601e+003;7.324545e-002
3.413530e+003;7.303759e-002
3.415458e+003;7.297918e-002
3.417387e+003;7.262655e-002
3.419316e+003;7.235362e-002
3.421244e+003;7.220104e-002
3.423173e+003;7.189204e-002
3.425101e+003;7.128701e-002
3.427030e+003;7.068805e-002
3.428958e+003;7.023973e-002
3.430887e+003;7.009841e-002
3.432815e+003;7.000228e-002
3.434744e+003;6.980744e-002
3.436673e+003;6.935532e-002
3.438601e+003;6.882424e-002
3.440530e+003;6.863233e-002
3.442458e+003;6.873814e-002
3.444387e+003;6.870883e-002
3.446315e+003;6.849790e-002
3.448244e+003;6.829718e-002
3.450172e+003;6.815691e-002
3.452101e+003;6.783892e-002
3.454030e+003;6.741803e-002
3.455958e+003;6.766453e-002
3.457886e+003;6.764188e-002
3.459815e+003;6.718586e-002
3.461744e+003;6.677735e-002
3.463672e+003;6.646253e-002
3.465601e+003;6.644411e-002
3.467529e+003;6.664985e-002
3.469458e+003;6.655580e-002
3.471386e+003;6.637126e-002
3.473315e+003;6.630112e-002
3.475243e+003;6.606018e-002
3.477172e+003;6.580383e-002
3.479101e+003;6.574634e-002
3.481029e+003;6.599360e-002
3.482958e+003;6.605297e-002
3.484886e+003;6.565808e-002
3.486815e+003;6.554490e-002
3.488743e+003;6.548660e-002
3.490672e+003;6.513704e-002
3.492600e+003;6.479887e-002
3.494529e+003;6.478398e-002
3.496458e+003;6.484299e-002
3.498386e+003;6.484564e-002
3.500315e+003;6.459489e-002
3.502243e+003;6.429019e-002
3.504172e+003;6.399514e-002
3.506100e+003;6.347037e-002
3.508029e+003;6.337463e-002
3.509957e+003;6.361735e-002
3.511886e+003;6.385008e-002
3.513814e+003;6.378882e-002
3.515743e+003;6.323287e-002
3.517672e+003;6.281864e-002
3.519600e+003;6.271687e-002
3.521529e+003;6.261039e-002
3.523457e+003;6.264288e-002
3.525386e+003;6.230963e-002
3.527314e+003;6.194396e-002
3.529243e+003;6.203909e-002
3.531171e+003;6.186586e-002
3.533100e+003;6.188462e-002
3.535029e+003;6.155665e-002
3.536957e+003;6.129520e-002
3.538885e+003;6.171257e-002
3.540814e+003;6.185043e-002
3.542743e+003;6.144461e-002
3.544671e+003;6.112982e-002
3.546600e+003;6.036750e-002
3.548528e+003;5.995705e-002
3.550457e+003;6.015414e-002
3.552385e+003;6.019098e-002
3.554314e+003;6.005703e-002
3.556242e+003;5.982842e-002
3.558171e+003;5.938942e-002
3.560100e+003;5.904913e-002
3.562028e+003;5.915915e-002
3.563957e+003;5.913762e-002
3.565885e+003;5.857155e-002
3.567814e+003;5.841593e-002
3.569742e+003;5.849925e-002
3.571671e+003;5.827434e-002
3.573599e+003;5.784637e-002
3.575528e+003;5.776344e-002
3.577457e+003;5.782559e-002
3.579385e+003;5.782926e-002
3.581314e+003;5.760254e-002
3.583242e+003;5.725956e-002
3.585171e+003;5.702528e-002
3.587099e+003;5.661277e-002
3.589028e+003;5.631176e-002
3.590956e+003;5.642830e-002
3.592885e+003;5.616777e-002
3.594813e+003;5.609549e-002
3.596742e+003;5.617259e-002
3.598671e+003;5.605914e-002
3.600599e+003;5.606363e-002
3.602528e+003;5.573878e-002
3.604456e+003;5.538688e-002
3.606385e+003;5.524282e-002
3.608313e+003;5.486673e-002
3.610242e+003;5.466868e-002
3.612170e+003;5.489670e-002
3.614099e+003;5.485481e-002
3.616028e+003;5.442404e-002
3.617956e+003;5.392286e-002
3.619885e+003;5.340341e-002
3.621813e+003;5.303498e-002
3.623742e+003;5.306444e-002
3.625670e+003;5.316535e-002
3.627599e+003;5.290056e-002
3.629527e+003;5.242076e-002
3.631456e+003;5.227469e-002
3.633385e+003;5.186528e-002
3.635313e+003;5.152493e-002
3.637241e+003;5.124887e-002
3.639170e+003;5.071678e-002
3.641099e+003;5.085779e-002
3.643027e+003;5.100100e-002
3.644956e+003;5.048046e-002
3.646884e+003;4.944958e-002
3.648813e+003;4.868753e-002
3.650741e+003;4.838848e-002
3.652670e+003;4.846383e-002
3.654598e+003;4.818104e-002
3.656527e+003;4.747106e-002
3.658456e+003;4.703835e-002
3.660384e+003;4.673332e-002
3.662313e+003;4.655838e-002
3.664241e+003;4.609662e-002
3.666170e+003;4.566458e-002
3.668098e+003;4.545354e-002
3.670027e+003;4.477941e-002
3.671955e+003;4.426600e-002
3.673884e+003;4.391338e-002
3.675813e+003;4.324548e-002
3.677741e+003;4.287894e-002
3.679669e+003;4.234878e-002
3.681598e+003;4.178914e-002
3.683527e+003;4.124107e-002
3.685455e+003;4.096137e-002
3.687384e+003;4.038078e-002
3.689312e+003;4.020915e-002
3.691241e+003;4.044377e-002
3.693169e+003;4.031341e-002
3.695098e+003;3.986598e-002
3.697026e+003;3.953262e-002
3.698955e+003;3.954906e-002
3.700884e+003;3.936310e-002
3.702812e+003;3.919665e-002
3.704741e+003;3.902132e-002
3.706669e+003;3.854592e-002
3.708598e+003;3.824096e-002
3.710526e+003;3.791796e-002
3.712455e+003;3.787020e-002
3.714383e+003;3.848596e-002
3.716312e+003;3.855472e-002
3.718240e+003;3.808363e-002
3.720169e+003;3.819906e-002
3.722098e+003;3.785845e-002
3.724026e+003;3.740545e-002
3.725955e+003;3.730300e-002
3.727883e+003;3.725325e-002
3.729812e+003;3.713370e-002
3.731740e+003;3.693297e-002
3.733669e+003;3.699628e-002
3.735597e+003;3.684820e-002
3.737526e+003;3.661843e-002
3.739455e+003;3.638238e-002
3.741383e+003;3.646053e-002
3.743312e+003;3.619856e-002
3.745240e+003;3.562609e-002
3.747169e+003;3.570368e-002
3.749097e+003;3.574610e-002
3.751026e+003;3.606936e-002
3.752954e+003;3.622982e-002
3.754883e+003;3.652227e-002
3.756812e+003;3.637651e-002
3.758740e+003;3.617619e-002
3.760668e+003;3.642288e-002
3.762597e+003;3.621091e-002
3.764526e+003;3.586905e-002
3.766454e+003;3.626188e-002
3.768383e+003;3.672908e-002
3.770311e+003;3.649801e-002
3.772240e+003;3.603019e-002
3.774168e+003;3.586271e-002
3.776097e+003;3.541970e-002
3.778025e+003;3.534874e-002
3.779954e+003;3.559114e-002
3.781883e+003;3.575991e-002
3.783811e+003;3.561592e-002
3.785740e+003;3.551041e-002
3.787668e+003;3.552555e-002
3.789597e+003;3.573566e-002
3.791525e+003;3.571429e-002
3.793454e+003;3.572581e-002
3.795382e+003;3.557736e-002
3.797311e+003;3.551062e-002
3.799240e+003;3.561416e-002
3.801168e+003;3.566717e-002
3.803097e+003;3.578355e-002
3.805025e+003;3.583061e-002
3.806954e+003;3.588110e-002
3.808882e+003;3.602425e-002
3.810811e+003;3.596183e-002
3.812739e+003;3.595877e-002
3.814668e+003;3.594020e-002
3.816596e+003;3.575966e-002
3.818525e+003;3.598562e-002
3.820454e+003;3.589010e-002
3.822382e+003;3.594333e-002
3.824311e+003;3.632387e-002
3.826239e+003;3.651787e-002
3.828168e+003;3.653621e-002
3.830096e+003;3.613738e-002
3.832025e+003;3.587405e-002
3.833953e+003;3.603829e-002
3.835882e+003;3.611343e-002
3.837811e+003;3.593620e-002
3.839739e+003;3.612524e-002
3.841667e+003;3.640284e-002
3.843596e+003;3.647805e-002
3.845525e+003;3.670384e-002
3.847453e+003;3.718271e-002
3.849382e+003;3.733030e-002
3.851310e+003;3.697611e-002
3.853239e+003;3.657752e-002
3.855167e+003;3.617389e-002
3.857096e+003;3.628010e-002
3.859024e+003;3.691681e-002
3.860953e+003;3.713009e-002
3.862882e+003;3.718957e-002
3.864810e+003;3.726343e-002
3.866739e+003;3.739700e-002
3.868667e+003;3.704611e-002
3.870596e+003;3.712792e-002
3.872524e+003;3.748097e-002
3.874453e+003;3.758233e-002
3.876381e+003;3.814168e-002
3.878310e+003;3.813069e-002
3.880239e+003;3.776913e-002
3.882167e+003;3.802240e-002
3.884096e+003;3.804919e-002
3.886024e+003;3.801997e-002
3.887953e+003;3.795542e-002
3.889881e+003;3.761283e-002
3.891810e+003;3.741520e-002
3.893738e+003;3.732124e-002
3.895667e+003;3.804243e-002
3.897595e+003;3.849421e-002
3.899524e+003;3.858767e-002
3.901453e+003;3.876515e-002
3.903381e+003;3.895459e-002
3.905310e+003;3.935044e-002
3.907238e+003;3.937268e-002
3.909167e+003;3.887827e-002
3.911095e+003;3.834030e-002
3.913024e+003;3.814693e-002
3.914952e+003;3.846398e-002
3.916881e+003;3.905307e-002
3.918810e+003;3.940794e-002
3.920738e+003;3.940145e-002
3.922667e+003;3.954779e-002
3.924595e+003;3.982617e-002
3.926524e+003;3.974716e-002
3.928452e+003;3.986645e-002
3.930381e+003;3.992780e-002
3.932309e+003;3.993266e-002
3.934238e+003;4.029629e-002
3.936167e+003;4.028862e-002
3.938095e+003;3.999558e-002
3.940023e+003;3.993797e-002
3.941952e+003;3.992522e-002
3.943881e+003;3.995965e-002
3.945809e+003;4.032646e-002
3.947738e+003;4.039500e-002
3.949666e+003;4.029527e-002
3.951595e+003;4.015459e-002
3.953523e+003;4.031137e-002
3.955452e+003;4.053863e-002
3.957380e+003;4.067433e-002
3.959309e+003;4.069110e-002
3.961238e+003;4.040202e-002
3.963166e+003;4.034606e-002
3.965095e+003;4.040395e-002
3.967023e+003;4.073739e-002
3.968952e+003;4.109725e-002
3.970880e+003;4.098858e-002
3.972809e+003;4.120343e-002
3.974737e+003;4.148179e-002
3.976666e+003;4.106920e-002
3.978594e+003;4.108024e-002
3.980523e+003;4.168558e-002
3.982452e+003;4.148146e-002
3.984380e+003;4.072411e-002
3.986309e+003;4.065126e-002
3.988237e+003;4.080684e-002
3.990166e+003;4.092628e-002
3.992094e+003;4.105362e-002
3.994023e+003;4.123582e-002
3.995951e+003;4.178137e-002
3.997880e+003;4.172410e-002
3.999809e+003;4.151631e-002
4.001737e+003;0.000000e+000
