3.992094e+002;0.000000e+000
4.011380e+002;0.000000e+000
4.030665e+002;0.000000e+000
4.049951e+002;0.000000e+000
4.069236e+002;0.000000e+000
4.088522e+002;0.000000e+000
4.107807e+002;0.000000e+000
4.127093e+002;0.000000e+000
4.146378e+002;0.000000e+000
4.165664e+002;0.000000e+000
4.184949e+002;0.000000e+000
4.204235e+002;0.000000e+000
4.223520e+002;0.000000e+000
4.242806e+002;0.000000e+000
4.262091e+002;0.000000e+000
4.281377e+002;0.000000e+000
4.300662e+002;0.000000e+000
4.319948e+002;0.000000e+000
4.339233e+002;0.000000e+000
4.358519e+002;0.000000e+000
4.377804e+002;0.000000e+000
4.397090e+002;0.000000e+000
4.416375e+002;0.000000e+000
4.435660e+002;0.000000e+000
4.454946e+002;0.000000e+000
4.474232e+002;0.000000e+000
4.493517e+002;0.000000e+000
4.512802e+002;0.000000e+000
4.532088e+002;0.000000e+000
4.551373e+002;0.000000e+000
4.570659e+002;0.000000e+000
4.589944e+002;0.000000e+000
4.609230e+002;0.000000e+000
4.628515e+002;0.000000e+000
4.647801e+002;0.000000e+000
4.667086e+002;0.000000e+000
4.686372e+002;0.000000e+000
4.705657e+002;0.000000e+000
4.724943e+002;0.000000e+000
4.744228e+002;0.000000e+000
4.763513e+002;0.000000e+000
4.782799e+002;0.000000e+000
4.802085e+002;0.000000e+000
4.821370e+002;0.000000e+000
4.840656e+002;0.000000e+000
4.859941e+002;0.000000e+000
4.879226e+002;0.000000e+000
4.898512e+002;0.000000e+000
4.917798e+002;0.000000e+000
4.937083e+002;0.000000e+000
4.956368e+002;0.000000e+000
4.975654e+002;0.000000e+000
4.994939e+002;0.000000e+000
5.014225e+002;0.000000e+000
5.033510e+002;0.000000e+000
5.052796e+002;0.000000e+000
5.072081e+002;0.000000e+000
5.091367e+002;0.000000e+000
5.110652e+002;0.000000e+000
5.129938e+002;0.000000e+000
5.149223e+002;0.000000e+000
5.168509e+002;0.000000e+000
5.187794e+002;0.000000e+000
5.207079e+002;0.000000e+000
5.226365e+002;0.000000e+000
5.245651e+002;0.000000e+000
5.264936e+002;0.000000e+000
5.284222e+002;0.000000e+000
5.303507e+002;0.000000e+000
5.322792e+002;0.000000e+000
5.342078e+002;0.000000e+000
5.361364e+002;0.000000e+000
5.380649e+002;0.000000e+000
5.399935e+002;0.000000e+000
5.419220e+002;0.000000e+000
5.438505e+002;0.000000e+000
5.457791e+002;0.000000e+000
5.477076e+002;0.000000e+000
5.496362e+002;0.000000e+000
5.515648e+002;0.000000e+000
5.534933e+002;0.000000e+000
5.554218e+002;0.000000e+000
5.573504e+002;0.000000e+000
5.592789e+002;0.000000e+000
5.612075e+002;0.000000e+000
5.631360e+002;0.000000e+000
5.650646e+002;0.000000e+000
5.669931e+002;0.000000e+000
5.689217e+002;0.000000e+000
5.708502e+002;0.000000e+000
5.727787e+002;0.000000e+000
5.747073e+002;0.000000e+000
5.766359e+002;0.000000e+000
5.785644e+002;0.000000e+000
5.804930e+002;0.000000e+000
5.824215e+002;0.000000e+000
5.843500e+002;0.000000e+000
5.862786e+002;0.000000e+000
5.882072e+002;0.000000e+000
5.901357e+002;0.000000e+000
5.920643e+002;0.000000e+000
5.939928e+002;0.000000e+000
5.959213e+002;0.000000e+000
5.978499e+002;0.000000e+000
5.997784e+002;2.472593e-001
6.017070e+002;2.509757e-001
6.036355e+002;2.590175e-001
6.055641e+002;2.534350e-001
6.074926e+002;2.501068e-001
6.094211e+002;2.479397e-001
6.113497e+002;2.482791e-001
6.132783e+002;2.496286e-001
6.152068e+002;2.478179e-001
6.171354e+002;2.504761e-001
6.190639e+002;2.516668e-001
6.209924e+002;2.471972e-001
6.229210e+002;2.445540e-001
6.248495e+002;2.460040e-001
6.267781e+002;2.476430e-001
6.287067e+002;2.436374e-001
6.306352e+002;2.384094e-001
6.325637e+002;2.347033e-001
6.344923e+002;2.367567e-001
6.364208e+002;2.427562e-001
6.383494e+002;2.442337e-001
6.402780e+002;2.404791e-001
6.422065e+002;2.348994e-001
6.441350e+002;2.345441e-001
6.460636e+002;2.358660e-001
6.479921e+002;2.323186e-001
6.499207e+002;2.290046e-001
6.518492e+002;2.284346e-001
6.537778e+002;2.281012e-001
6.557063e+002;2.286688e-001
6.576349e+002;2.287038e-001
6.595634e+002;2.281826e-001
6.614919e+002;2.285094e-001
6.634205e+002;2.303939e-001
6.653491e+002;2.296985e-001
6.672776e+002;2.281105e-001
6.692062e+002;2.285087e-001
6.711347e+002;2.260804e-001
6.730632e+002;2.236453e-001
6.749918e+002;2.221678e-001
6.769203e+002;2.204231e-001
6.788489e+002;2.206740e-001
6.807775e+002;2.216986e-001
6.827060e+002;2.203495e-001
6.846345e+002;2.182448e-001
6.865631e+002;2.177494e-001
6.884916e+002;2.167593e-001
6.904202e+002;2.148012e-001
6.923488e+002;2.125263e-001
6.942773e+002;2.104597e-001
6.962058e+002;2.100547e-001
6.981344e+002;2.089888e-001
7.000629e+002;2.058855e-001
7.019915e+002;2.031976e-001
7.039200e+002;2.014696e-001
7.058486e+002;1.988098e-001
7.077771e+002;1.956955e-001
7.097057e+002;1.940186e-001
7.116342e+002;1.921977e-001
7.135627e+002;1.894953e-001
7.154913e+002;1.864790e-001
7.174199e+002;1.832234e-001
7.193484e+002;1.812704e-001
7.212770e+002;1.805264e-001
7.232055e+002;1.790221e-001
7.251340e+002;1.761026e-001
7.270626e+002;1.732786e-001
7.289911e+002;1.707495e-001
7.309197e+002;1.679262e-001
7.328483e+002;1.649795e-001
7.347768e+002;1.624985e-001
7.367053e+002;1.598821e-001
7.386339e+002;1.568548e-001
7.405624e+002;1.532812e-001
7.424910e+002;1.498296e-001
7.444196e+002;1.479254e-001
7.463481e+002;1.476210e-001
7.482766e+002;1.459213e-001
7.502052e+002;1.426819e-001
7.521337e+002;1.395138e-001
7.540623e+002;1.360986e-001
7.559908e+002;1.333671e-001
7.579194e+002;1.318978e-001
7.598479e+002;1.304835e-001
7.617765e+002;1.288227e-001
7.637050e+002;1.276391e-001
7.656335e+002;1.262127e-001
7.675621e+002;1.242977e-001
7.694907e+002;1.225012e-001
7.714192e+002;1.206353e-001
7.733478e+002;1.187144e-001
7.752763e+002;1.167488e-001
7.772048e+002;1.151190e-001
7.791334e+002;1.132330e-001
7.810620e+002;1.112108e-001
7.829905e+002;1.093321e-001
7.849191e+002;1.075649e-001
7.868476e+002;1.056517e-001
7.887761e+002;1.031239e-001
7.907047e+002;1.015758e-001
7.926332e+002;1.001823e-001
7.945618e+002;9.878056e-002
7.964903e+002;9.755760e-002
7.984189e+002;9.620652e-002
8.003474e+002;9.503153e-002
8.022759e+002;9.463664e-002
8.042045e+002;9.409012e-002
8.061331e+002;9.312340e-002
8.080616e+002;9.289066e-002
8.099902e+002;9.248083e-002
8.119187e+002;9.188894e-002
8.138472e+002;9.177825e-002
8.157758e+002;9.180150e-002
8.177043e+002;9.153000e-002
8.196329e+002;9.133238e-002
8.215615e+002;9.124734e-002
8.234900e+002;9.162135e-002
8.254185e+002;9.188350e-002
8.273471e+002;9.240958e-002
8.292756e+002;9.278391e-002
8.312042e+002;9.225843e-002
8.331328e+002;9.099533e-002
8.350613e+002;8.980475e-002
8.369898e+002;8.795243e-002
8.389184e+002;8.587343e-002
8.408469e+002;8.437676e-002
8.427755e+002;8.383235e-002
8.447040e+002;8.380900e-002
8.466326e+002;8.410358e-002
8.485611e+002;8.426535e-002
8.504897e+002;8.385152e-002
8.524182e+002;8.323607e-002
8.543467e+002;8.236948e-002
8.562753e+002;8.087844e-002
8.582039e+002;7.888813e-002
8.601324e+002;7.595453e-002
8.620610e+002;7.344034e-002
8.639895e+002;7.162847e-002
8.659180e+002;6.972679e-002
8.678466e+002;6.868376e-002
8.697751e+002;6.852482e-002
8.717037e+002;6.810240e-002
8.736323e+002;6.753104e-002
8.755608e+002;6.719267e-002
8.774893e+002;6.697760e-002
8.794179e+002;6.677032e-002
8.813464e+002;6.629772e-002
8.832750e+002;6.561989e-002
8.852036e+002;6.505239e-002
8.871321e+002;6.501852e-002
8.890606e+002;6.516209e-002
8.909892e+002;6.503253e-002
8.929177e+002;6.493748e-002
8.948463e+002;6.443290e-002
8.967748e+002;6.396373e-002
8.987034e+002;6.377074e-002
9.006319e+002;6.358912e-002
9.025605e+002;6.340921e-002
9.044890e+002;6.336259e-002
9.064175e+002;6.365625e-002
9.083461e+002;6.402893e-002
9.102747e+002;6.461696e-002
9.122032e+002;6.545039e-002
9.141318e+002;6.618056e-002
9.160603e+002;6.699271e-002
9.179888e+002;6.797266e-002
9.199174e+002;6.920500e-002
9.218459e+002;7.066641e-002
9.237745e+002;7.195347e-002
9.257031e+002;7.286008e-002
9.276316e+002;7.390718e-002
9.295601e+002;7.461894e-002
9.314887e+002;7.527655e-002
9.334172e+002;7.595386e-002
9.353458e+002;7.643510e-002
9.372744e+002;7.688306e-002
9.392029e+002;7.752351e-002
9.411314e+002;7.822877e-002
9.430600e+002;7.903299e-002
9.449885e+002;7.978152e-002
9.469171e+002;8.068257e-002
9.488456e+002;8.202928e-002
9.507742e+002;8.372654e-002
9.527027e+002;8.536314e-002
9.546313e+002;8.678827e-002
9.565598e+002;8.810606e-002
9.584883e+002;8.959504e-002
9.604169e+002;9.097074e-002
9.623455e+002;9.200413e-002
9.642740e+002;9.307951e-002
9.662026e+002;9.437797e-002
9.681311e+002;9.546814e-002
9.700596e+002;9.683526e-002
9.719882e+002;9.833995e-002
9.739167e+002;9.938458e-002
9.758453e+002;1.001169e-001
9.777739e+002;1.003543e-001
9.797024e+002;1.002541e-001
9.816309e+002;1.003659e-001
9.835595e+002;1.005481e-001
9.854880e+002;1.014328e-001
9.874166e+002;1.031972e-001
9.893452e+002;1.055911e-001
9.912737e+002;1.087701e-001
9.932022e+002;1.120423e-001
9.951307e+002;1.151063e-001
9.970593e+002;1.180563e-001
9.989879e+002;1.205661e-001
1.000916e+003;1.224312e-001
1.002845e+003;1.241503e-001
1.004773e+003;1.265800e-001
1.006702e+003;1.290402e-001
1.008631e+003;1.314090e-001
1.010559e+003;1.333477e-001
1.012488e+003;1.340430e-001
1.014416e+003;1.339428e-001
1.016345e+003;1.335707e-001
1.018273e+003;1.325559e-001
1.020202e+003;1.315049e-001
1.022130e+003;1.311312e-001
1.024059e+003;1.316010e-001
1.025988e+003;1.328377e-001
1.027916e+003;1.347122e-001
1.029845e+003;1.370946e-001
1.031773e+003;1.394929e-001
1.033702e+003;1.417912e-001
1.035630e+003;1.443699e-001
1.037559e+003;1.462069e-001
1.039487e+003;1.475080e-001
1.041416e+003;1.490240e-001
1.043344e+003;1.501729e-001
1.045273e+003;1.508766e-001
1.047202e+003;1.517277e-001
1.049130e+003;1.524664e-001
1.051059e+003;1.531626e-001
1.052987e+003;1.544721e-001
1.054916e+003;1.559900e-001
1.056844e+003;1.566113e-001
1.058773e+003;1.569981e-001
1.060701e+003;1.577590e-001
1.062630e+003;1.584420e-001
1.064558e+003;1.588004e-001
1.066487e+003;1.583437e-001
1.068416e+003;1.572195e-001
1.070344e+003;1.556932e-001
1.072273e+003;1.537669e-001
1.074201e+003;1.518835e-001
1.076130e+003;1.495281e-001
1.078058e+003;1.459557e-001
1.079987e+003;1.422020e-001
1.081915e+003;1.390957e-001
1.083844e+003;1.362703e-001
1.085773e+003;1.329234e-001
1.087701e+003;1.295883e-001
1.089630e+003;1.265887e-001
1.091558e+003;1.238087e-001
1.093487e+003;1.216684e-001
1.095415e+003;1.204828e-001
1.097344e+003;1.196925e-001
1.099272e+003;1.191607e-001
1.101201e+003;1.185888e-001
1.103129e+003;1.179369e-001
1.105058e+003;1.172431e-001
1.106987e+003;1.163861e-001
1.108915e+003;1.149596e-001
1.110844e+003;1.131087e-001
1.112772e+003;1.114168e-001
1.114701e+003;1.102862e-001
1.116629e+003;1.092562e-001
1.118558e+003;1.080595e-001
1.120486e+003;1.074593e-001
1.122415e+003;1.074491e-001
1.124344e+003;1.072111e-001
1.126272e+003;1.068350e-001
1.128201e+003;1.068530e-001
1.130129e+003;1.074449e-001
1.132058e+003;1.082450e-001
1.133986e+003;1.091594e-001
1.135915e+003;1.100269e-001
1.137843e+003;1.113148e-001
1.139772e+003;1.133232e-001
1.141700e+003;1.154315e-001
1.143629e+003;1.175732e-001
1.145557e+003;1.202753e-001
1.147486e+003;1.229736e-001
1.149415e+003;1.256186e-001
1.151343e+003;1.278836e-001
1.153272e+003;1.305081e-001
1.155200e+003;1.333787e-001
1.157129e+003;1.353264e-001
1.159057e+003;1.373623e-001
1.160986e+003;1.393193e-001
1.162914e+003;1.405088e-001
1.164843e+003;1.415127e-001
1.166771e+003;1.423750e-001
1.168700e+003;1.433011e-001
1.170629e+003;1.444320e-001
1.172557e+003;1.442629e-001
1.174486e+003;1.431438e-001
1.176414e+003;1.414299e-001
1.178343e+003;1.389416e-001
1.180271e+003;1.364908e-001
1.182200e+003;1.346602e-001
1.184128e+003;1.334839e-001
1.186057e+003;1.329737e-001
1.187986e+003;1.333218e-001
1.189914e+003;1.345496e-001
1.191843e+003;1.365995e-001
1.193771e+003;1.395085e-001
1.195700e+003;1.431514e-001
1.197628e+003;1.472883e-001
1.199557e+003;1.522460e-001
1.201485e+003;1.580868e-001
1.203414e+003;1.641295e-001
1.205343e+003;1.700125e-001
1.207271e+003;1.761233e-001
1.209200e+003;1.823621e-001
1.211128e+003;1.886836e-001
1.213057e+003;1.945572e-001
1.214985e+003;1.997827e-001
1.216914e+003;2.047166e-001
1.218842e+003;2.096073e-001
1.220771e+003;2.138841e-001
1.222699e+003;2.172153e-001
1.224628e+003;2.198982e-001
1.226557e+003;2.221973e-001
1.228485e+003;2.237801e-001
1.230414e+003;2.245973e-001
1.232342e+003;2.241944e-001
1.234271e+003;2.226969e-001
1.236199e+003;2.210564e-001
1.238128e+003;2.192674e-001
1.240056e+003;2.168200e-001
1.241985e+003;2.140165e-001
1.243913e+003;2.111844e-001
1.245842e+003;2.081590e-001
1.247771e+003;2.050549e-001
1.249699e+003;2.021202e-001
1.251628e+003;1.994787e-001
1.253556e+003;1.971269e-001
1.255485e+003;1.947878e-001
1.257413e+003;1.924810e-001
1.259342e+003;1.896543e-001
1.261270e+003;1.868572e-001
1.263199e+003;1.841997e-001
1.265127e+003;1.814310e-001
1.267056e+003;1.787274e-001
1.268985e+003;1.758230e-001
1.270913e+003;1.732539e-001
1.272842e+003;1.703174e-001
1.274770e+003;1.669332e-001
1.276699e+003;1.638751e-001
1.278627e+003;1.612452e-001
1.280556e+003;1.587980e-001
1.282484e+003;1.567676e-001
1.284413e+003;1.549783e-001
1.286342e+003;1.531710e-001
1.288270e+003;1.514843e-001
1.290199e+003;1.503106e-001
1.292127e+003;1.493094e-001
1.294056e+003;1.482362e-001
1.295984e+003;1.474892e-001
1.297913e+003;1.469534e-001
1.299841e+003;1.461563e-001
1.301770e+003;1.454208e-001
1.303698e+003;1.450450e-001
1.305627e+003;1.441229e-001
1.307556e+003;1.430395e-001
1.309484e+003;1.422425e-001
1.311413e+003;1.415247e-001
1.313341e+003;1.407114e-001
1.315270e+003;1.400435e-001
1.317198e+003;1.395153e-001
1.319127e+003;1.393344e-001
1.321055e+003;1.398411e-001
1.322984e+003;1.405004e-001
1.324912e+003;1.408925e-001
1.326841e+003;1.416679e-001
1.328770e+003;1.426332e-001
1.330698e+003;1.433144e-001
1.332627e+003;1.437816e-001
1.334555e+003;1.441652e-001
1.336484e+003;1.443211e-001
1.338412e+003;1.445112e-001
1.340341e+003;1.447129e-001
1.342269e+003;1.447329e-001
1.344198e+003;1.443844e-001
1.346126e+003;1.438718e-001
1.348055e+003;1.434864e-001
1.349984e+003;1.433426e-001
1.351912e+003;1.433621e-001
1.353841e+003;1.437510e-001
1.355769e+003;1.447917e-001
1.357698e+003;1.467533e-001
1.359626e+003;1.493627e-001
1.361555e+003;1.525581e-001
1.363483e+003;1.565194e-001
1.365412e+003;1.607283e-001
1.367341e+003;1.643978e-001
1.369269e+003;1.671122e-001
1.371198e+003;1.687440e-001
1.373126e+003;1.695748e-001
1.375055e+003;1.699865e-001
1.376983e+003;1.702601e-001
1.378912e+003;1.703864e-001
1.380840e+003;1.702963e-001
1.382769e+003;1.701615e-001
1.384698e+003;1.699102e-001
1.386626e+003;1.695115e-001
1.388555e+003;1.690473e-001
1.390483e+003;1.687786e-001
1.392412e+003;1.682338e-001
1.394340e+003;1.672547e-001
1.396269e+003;1.666961e-001
1.398197e+003;1.669032e-001
1.400126e+003;1.679973e-001
1.402054e+003;1.695181e-001
1.403983e+003;1.712156e-001
1.405911e+003;1.731040e-001
1.407840e+003;1.748759e-001
1.409769e+003;1.766109e-001
1.411697e+003;1.782440e-001
1.413626e+003;1.793264e-001
1.415554e+003;1.800158e-001
1.417483e+003;1.804227e-001
1.419411e+003;1.804835e-001
1.421340e+003;1.810329e-001
1.423268e+003;1.819250e-001
1.425197e+003;1.831618e-001
1.427125e+003;1.856405e-001
1.429054e+003;1.892040e-001
1.430983e+003;1.930662e-001
1.432911e+003;1.973918e-001
1.434840e+003;2.021956e-001
1.436768e+003;2.071345e-001
1.438697e+003;2.118148e-001
1.440625e+003;2.160693e-001
1.442554e+003;2.197686e-001
1.444482e+003;2.223552e-001
1.446411e+003;2.237587e-001
1.448340e+003;2.237267e-001
1.450268e+003;2.224246e-001
1.452197e+003;2.199675e-001
1.454125e+003;2.171449e-001
1.456054e+003;2.140122e-001
1.457982e+003;2.103909e-001
1.459911e+003;2.072899e-001
1.461839e+003;2.051288e-001
1.463768e+003;2.034197e-001
1.465697e+003;2.021756e-001
1.467625e+003;2.015779e-001
1.469554e+003;2.016438e-001
1.471482e+003;2.024469e-001
1.473411e+003;2.038704e-001
1.475339e+003;2.061763e-001
1.477268e+003;2.099805e-001
1.479196e+003;2.153213e-001
1.481125e+003;2.218756e-001
1.483053e+003;2.298769e-001
1.484982e+003;2.394299e-001
1.486911e+003;2.501133e-001
1.488839e+003;2.616327e-001
1.490768e+003;2.739085e-001
1.492696e+003;2.863224e-001
1.494625e+003;2.985650e-001
1.496553e+003;3.107023e-001
1.498482e+003;3.219684e-001
1.500410e+003;3.322921e-001
1.502339e+003;3.417096e-001
1.504267e+003;3.502213e-001
1.506196e+003;3.572162e-001
1.508125e+003;3.634476e-001
1.510053e+003;3.690113e-001
1.511982e+003;3.727908e-001
1.513910e+003;3.739359e-001
1.515839e+003;3.716280e-001
1.517767e+003;3.658475e-001
1.519696e+003;3.577747e-001
1.521624e+003;3.486530e-001
1.523553e+003;3.407700e-001
1.525481e+003;3.339678e-001
1.527410e+003;3.275637e-001
1.529339e+003;3.212730e-001
1.531267e+003;3.152599e-001
1.533196e+003;3.094457e-001
1.535124e+003;3.036958e-001
1.537053e+003;2.979157e-001
1.538981e+003;2.914435e-001
1.540910e+003;2.850310e-001
1.542838e+003;2.792954e-001
1.544767e+003;2.736454e-001
1.546695e+003;2.676626e-001
1.548624e+003;2.612814e-001
1.550553e+003;2.552371e-001
1.552481e+003;2.495290e-001
1.554410e+003;2.431131e-001
1.556338e+003;2.365902e-001
1.558267e+003;2.301144e-001
1.560195e+003;2.235424e-001
1.562124e+003;2.173353e-001
1.564052e+003;2.112126e-001
1.565981e+003;2.051571e-001
1.567910e+003;1.994140e-001
1.569838e+003;1.935775e-001
1.571767e+003;1.886219e-001
1.573695e+003;1.844917e-001
1.575624e+003;1.805190e-001
1.577552e+003;1.773384e-001
1.579481e+003;1.750585e-001
1.581409e+003;1.732867e-001
1.583338e+003;1.721199e-001
1.585266e+003;1.719519e-001
1.587195e+003;1.732173e-001
1.589124e+003;1.753940e-001
1.591052e+003;1.781941e-001
1.592981e+003;1.822233e-001
1.594909e+003;1.872799e-001
1.596838e+003;1.927023e-001
1.598766e+003;1.986530e-001
1.600695e+003;2.057105e-001
1.602623e+003;2.142969e-001
1.604552e+003;2.244402e-001
1.606480e+003;2.363017e-001
1.608409e+003;2.503893e-001
1.610338e+003;2.661033e-001
1.612266e+003;2.821938e-001
1.614195e+003;2.978368e-001
1.616123e+003;3.131623e-001
1.618052e+003;3.278764e-001
1.619980e+003;3.418851e-001
1.621909e+003;3.548757e-001
1.623837e+003;3.661945e-001
1.625766e+003;3.753020e-001
1.627694e+003;3.817008e-001
1.629623e+003;3.854877e-001
1.631552e+003;3.868944e-001
1.633480e+003;3.859228e-001
1.635409e+003;3.832237e-001
1.637337e+003;3.793195e-001
1.639266e+003;3.743633e-001
1.641194e+003;3.683991e-001
1.643123e+003;3.617118e-001
1.645051e+003;3.540224e-001
1.646980e+003;3.452569e-001
1.648909e+003;3.365547e-001
1.650837e+003;3.276308e-001
1.652766e+003;3.180838e-001
1.654694e+003;3.092282e-001
1.656623e+003;3.002687e-001
1.658551e+003;2.906854e-001
1.660480e+003;2.812907e-001
1.662408e+003;2.720510e-001
1.664337e+003;2.631373e-001
1.666266e+003;2.544389e-001
1.668194e+003;2.462529e-001
1.670123e+003;2.381946e-001
1.672051e+003;2.304867e-001
1.673980e+003;2.232426e-001
1.675908e+003;2.161648e-001
1.677837e+003;2.094484e-001
1.679765e+003;2.027031e-001
1.681694e+003;1.962636e-001
1.683622e+003;1.900479e-001
1.685551e+003;1.841620e-001
1.687479e+003;1.790915e-001
1.689408e+003;1.741909e-001
1.691337e+003;1.692801e-001
1.693265e+003;1.647943e-001
1.695194e+003;1.600965e-001
1.697122e+003;1.547701e-001
1.699051e+003;1.489003e-001
1.700979e+003;1.416787e-001
1.702908e+003;1.332058e-001
1.704836e+003;1.235618e-001
1.706765e+003;1.131780e-001
1.708693e+003;1.028532e-001
1.710622e+003;9.320322e-002
1.712551e+003;8.461496e-002
1.714479e+003;7.689442e-002
1.716408e+003;6.979196e-002
1.718336e+003;6.384535e-002
1.720265e+003;5.895227e-002
1.722193e+003;5.468018e-002
1.724122e+003;5.116558e-002
1.726050e+003;4.851632e-002
1.727979e+003;4.612422e-002
1.729908e+003;4.413974e-002
1.731836e+003;4.262104e-002
1.733765e+003;4.134408e-002
1.735693e+003;4.044097e-002
1.737622e+003;3.954517e-002
1.739550e+003;3.833469e-002
1.741479e+003;3.696154e-002
1.743407e+003;3.534187e-002
1.745336e+003;3.386303e-002
1.747265e+003;3.218131e-002
1.749193e+003;3.061603e-002
1.751122e+003;2.923393e-002
1.753050e+003;2.791677e-002
1.754979e+003;2.641619e-002
1.756907e+003;2.495475e-002
1.758836e+003;2.369412e-002
1.760764e+003;2.260210e-002
1.762693e+003;2.192661e-002
1.764621e+003;2.136258e-002
1.766550e+003;2.057441e-002
1.768479e+003;1.983890e-002
1.770407e+003;1.932912e-002
1.772336e+003;1.878551e-002
1.774264e+003;1.839424e-002
1.776193e+003;1.806604e-002
1.778121e+003;1.738827e-002
1.780050e+003;1.687606e-002
1.781978e+003;1.653592e-002
1.783907e+003;1.618292e-002
1.785835e+003;1.591777e-002
1.787764e+003;1.541408e-002
1.789693e+003;1.484072e-002
1.791621e+003;1.450954e-002
1.793550e+003;1.420422e-002
1.795478e+003;1.393145e-002
1.797407e+003;1.377389e-002
1.799335e+003;1.357720e-002
1.801264e+003;1.309688e-002
1.803192e+003;1.273969e-002
1.805121e+003;1.250736e-002
1.807049e+003;1.237490e-002
1.808978e+003;1.218423e-002
1.810907e+003;1.184775e-002
1.812835e+003;1.149282e-002
1.814764e+003;1.126016e-002
1.816692e+003;1.095970e-002
1.818621e+003;1.064515e-002
1.820549e+003;1.042086e-002
1.822478e+003;1.015110e-002
1.824406e+003;9.846085e-003
1.826335e+003;9.771050e-003
1.828264e+003;9.510123e-003
1.830192e+003;9.168500e-003
1.832121e+003;8.936311e-003
1.834049e+003;8.792148e-003
1.835978e+003;8.711380e-003
1.837906e+003;8.535425e-003
1.839835e+003;8.235323e-003
1.841763e+003;8.057029e-003
1.843692e+003;8.071375e-003
1.845620e+003;7.954732e-003
1.847549e+003;7.571978e-003
1.849478e+003;7.358738e-003
1.851406e+003;7.406831e-003
1.853335e+003;7.397293e-003
1.855263e+003;7.433020e-003
1.857192e+003;7.374847e-003
1.859120e+003;7.068541e-003
1.861049e+003;6.829461e-003
1.862977e+003;6.732735e-003
1.864906e+003;6.723044e-003
1.866834e+003;6.627048e-003
1.868763e+003;6.594920e-003
1.870692e+003;6.513382e-003
1.872620e+003;6.444403e-003
1.874549e+003;6.410842e-003
1.876477e+003;6.320933e-003
1.878406e+003;6.263379e-003
1.880334e+003;6.232286e-003
1.882263e+003;6.022727e-003
1.884191e+003;5.864213e-003
1.886120e+003;5.792583e-003
1.888048e+003;5.886076e-003
1.889977e+003;6.097318e-003
1.891906e+003;6.063112e-003
1.893834e+003;5.911670e-003
1.895763e+003;5.895212e-003
1.897691e+003;5.763941e-003
1.899620e+003;5.750813e-003
1.901548e+003;5.818876e-003
1.903477e+003;5.790568e-003
1.905405e+003;5.639960e-003
1.907334e+003;5.679672e-003
1.909262e+003;5.730332e-003
1.911191e+003;5.554070e-003
1.913120e+003;5.351278e-003
1.915048e+003;5.404416e-003
1.916977e+003;5.489706e-003
1.918905e+003;5.262594e-003
1.920834e+003;5.147473e-003
1.922762e+003;5.180937e-003
1.924691e+003;5.042037e-003
1.926619e+003;4.901607e-003
1.928548e+003;4.911460e-003
1.930477e+003;4.910655e-003
1.932405e+003;4.813015e-003
1.934334e+003;4.937397e-003
1.936262e+003;5.017501e-003
1.938191e+003;4.947518e-003
1.940119e+003;4.850507e-003
1.942048e+003;4.580531e-003
1.943976e+003;4.493344e-003
1.945905e+003;4.678856e-003
1.947833e+003;4.715499e-003
1.949762e+003;4.759748e-003
1.951691e+003;4.778374e-003
1.953619e+003;4.793383e-003
1.955548e+003;4.686961e-003
1.957476e+003;4.615927e-003
1.959405e+003;4.595098e-003
1.961333e+003;4.654942e-003
1.963262e+003;4.601962e-003
1.965190e+003;4.547884e-003
1.967119e+003;4.667870e-003
1.969047e+003;4.621386e-003
1.970976e+003;4.626476e-003
1.972905e+003;4.614420e-003
1.974833e+003;4.628150e-003
1.976762e+003;4.742966e-003
1.978690e+003;4.745411e-003
1.980619e+003;4.551333e-003
1.982547e+003;4.448351e-003
1.984476e+003;4.498132e-003
1.986404e+003;4.419697e-003
1.988333e+003;4.252031e-003
1.990261e+003;4.203382e-003
1.992190e+003;4.392585e-003
1.994119e+003;4.446644e-003
1.996047e+003;4.406577e-003
1.997976e+003;4.277728e-003
1.999904e+003;4.208334e-003
2.001833e+003;4.278565e-003
2.003761e+003;4.169325e-003
2.005690e+003;4.204419e-003
2.007618e+003;4.309853e-003
2.009547e+003;4.311091e-003
2.011476e+003;4.294694e-003
2.013404e+003;4.009045e-003
2.015333e+003;3.820610e-003
2.017261e+003;3.999681e-003
2.019190e+003;4.072688e-003
2.021118e+003;4.134969e-003
2.023047e+003;4.264177e-003
2.024975e+003;4.160226e-003
2.026904e+003;4.072086e-003
2.028833e+003;3.925516e-003
2.030761e+003;3.836789e-003
2.032690e+003;4.079478e-003
2.034618e+003;4.173206e-003
2.036547e+003;4.021987e-003
2.038475e+003;3.908197e-003
2.040404e+003;3.916690e-003
2.042332e+003;3.920334e-003
2.044261e+003;3.850227e-003
2.046189e+003;3.843408e-003
2.048118e+003;3.820577e-003
2.050047e+003;3.780066e-003
2.051975e+003;3.815931e-003
2.053904e+003;3.855476e-003
2.055832e+003;3.874698e-003
2.057761e+003;3.997942e-003
2.059689e+003;4.098242e-003
2.061618e+003;3.982360e-003
2.063546e+003;3.852300e-003
2.065475e+003;3.892952e-003
2.067404e+003;4.005801e-003
2.069332e+003;4.124098e-003
2.071260e+003;4.092388e-003
2.073189e+003;3.990753e-003
2.075118e+003;4.063792e-003
2.077046e+003;4.050949e-003
2.078975e+003;3.980855e-003
2.080903e+003;4.146677e-003
2.082832e+003;4.200338e-003
2.084760e+003;4.061986e-003
2.086689e+003;4.009379e-003
2.088617e+003;4.008577e-003
2.090546e+003;3.885363e-003
2.092475e+003;3.871355e-003
2.094403e+003;3.932571e-003
2.096332e+003;3.713658e-003
2.098260e+003;3.627346e-003
2.100189e+003;3.975738e-003
2.102117e+003;4.078374e-003
2.104046e+003;3.881585e-003
2.105974e+003;3.748348e-003
2.107903e+003;3.701895e-003
2.109832e+003;3.705002e-003
2.111760e+003;3.761148e-003
2.113688e+003;3.827129e-003
2.115617e+003;3.809279e-003
2.117546e+003;3.761182e-003
2.119474e+003;3.569881e-003
2.121403e+003;3.495155e-003
2.123331e+003;3.624138e-003
2.125260e+003;3.631189e-003
2.127188e+003;3.699422e-003
2.129117e+003;3.770874e-003
2.131045e+003;3.795441e-003
2.132974e+003;3.773214e-003
2.134903e+003;3.647962e-003
2.136831e+003;3.739257e-003
2.138760e+003;3.792733e-003
2.140688e+003;3.590528e-003
2.142617e+003;3.552075e-003
2.144545e+003;3.634730e-003
2.146474e+003;3.722881e-003
2.148402e+003;3.507113e-003
2.150331e+003;3.362203e-003
2.152260e+003;3.411692e-003
2.154188e+003;3.493285e-003
2.156117e+003;3.540884e-003
2.158045e+003;3.449330e-003
2.159974e+003;3.537878e-003
2.161902e+003;3.414998e-003
2.163831e+003;3.312686e-003
2.165759e+003;3.291953e-003
2.167688e+003;3.309014e-003
2.169616e+003;3.522011e-003
2.171545e+003;3.572086e-003
2.173474e+003;3.522980e-003
2.175402e+003;3.310850e-003
2.177331e+003;3.125421e-003
2.179259e+003;3.167207e-003
2.181188e+003;3.208462e-003
2.183116e+003;3.188935e-003
2.185045e+003;3.251057e-003
2.186973e+003;3.188401e-003
2.188902e+003;2.990881e-003
2.190831e+003;3.103462e-003
2.192759e+003;3.213669e-003
2.194688e+003;3.357294e-003
2.196616e+003;3.385311e-003
2.198545e+003;3.119715e-003
2.200473e+003;2.734928e-003
2.202402e+003;2.741931e-003
2.204330e+003;2.999522e-003
2.206259e+003;3.013902e-003
2.208188e+003;3.018373e-003
2.210116e+003;3.148716e-003
2.212044e+003;2.971564e-003
2.213973e+003;2.958420e-003
2.215902e+003;2.988879e-003
2.217830e+003;2.903112e-003
2.219759e+003;3.017072e-003
2.221687e+003;3.042430e-003
2.223616e+003;2.829234e-003
2.225544e+003;2.857416e-003
2.227473e+003;2.886367e-003
2.229401e+003;2.983908e-003
2.231330e+003;3.118980e-003
2.233259e+003;3.125054e-003
2.235187e+003;2.961456e-003
2.237116e+003;2.573077e-003
2.239044e+003;2.455834e-003
2.240973e+003;2.552845e-003
2.242901e+003;2.498788e-003
2.244830e+003;2.405954e-003
2.246758e+003;2.402156e-003
2.248687e+003;2.389929e-003
2.250615e+003;2.455701e-003
2.252544e+003;2.443939e-003
2.254473e+003;2.505454e-003
2.256401e+003;2.570810e-003
2.258330e+003;2.492723e-003
2.260258e+003;2.385964e-003
2.262187e+003;2.585009e-003
2.264115e+003;2.727860e-003
2.266044e+003;2.654545e-003
2.267972e+003;2.655112e-003
2.269901e+003;2.710755e-003
2.271830e+003;2.570543e-003
2.273758e+003;2.493856e-003
2.275687e+003;2.617509e-003
2.277615e+003;2.521250e-003
2.279544e+003;2.362776e-003
2.281472e+003;2.467964e-003
2.283401e+003;2.594676e-003
2.285329e+003;2.823231e-003
2.287258e+003;2.921024e-003
2.289187e+003;2.877628e-003
2.291115e+003;2.915687e-003
2.293043e+003;2.957819e-003
2.294972e+003;3.044131e-003
2.296901e+003;3.066822e-003
2.298829e+003;2.979171e-003
2.300758e+003;2.873726e-003
2.302686e+003;2.921458e-003
2.304615e+003;3.099524e-003
2.306543e+003;3.040094e-003
2.308472e+003;2.830868e-003
2.310400e+003;2.607176e-003
2.312329e+003;2.723525e-003
2.314258e+003;3.022377e-003
2.316186e+003;2.944175e-003
2.318115e+003;2.732861e-003
2.320043e+003;2.965592e-003
2.321972e+003;3.035222e-003
2.323900e+003;2.718024e-003
2.325829e+003;2.704120e-003
2.327757e+003;2.804588e-003
2.329686e+003;2.894939e-003
2.331615e+003;3.101994e-003
2.333543e+003;3.187333e-003
2.335472e+003;3.168208e-003
2.337400e+003;3.030251e-003
2.339329e+003;2.857849e-003
2.341257e+003;2.972231e-003
2.343186e+003;3.064085e-003
2.345114e+003;3.081170e-003
2.347043e+003;3.122284e-003
2.348971e+003;3.224685e-003
2.350900e+003;3.315557e-003
2.352829e+003;3.270252e-003
2.354757e+003;3.267047e-003
2.356686e+003;3.372354e-003
2.358614e+003;3.432531e-003
2.360543e+003;3.355725e-003
2.362471e+003;3.255597e-003
2.364400e+003;3.246550e-003
2.366328e+003;3.398902e-003
2.368257e+003;3.535239e-003
2.370186e+003;3.355458e-003
2.372114e+003;3.125688e-003
2.374042e+003;3.341835e-003
2.375971e+003;3.545361e-003
2.377900e+003;3.485502e-003
2.379828e+003;3.618626e-003
2.381757e+003;3.826126e-003
2.383685e+003;3.825491e-003
2.385614e+003;3.729498e-003
2.387542e+003;3.882387e-003
2.389471e+003;4.079846e-003
2.391399e+003;4.079411e-003
2.393328e+003;4.094228e-003
2.395257e+003;4.106035e-003
2.397185e+003;4.253871e-003
2.399114e+003;4.217601e-003
2.401042e+003;4.182874e-003
2.402971e+003;4.491938e-003
2.404899e+003;4.702335e-003
2.406828e+003;4.807353e-003
2.408756e+003;4.865485e-003
2.410685e+003;4.825512e-003
2.412614e+003;5.022294e-003
2.414542e+003;5.216012e-003
2.416471e+003;5.412971e-003
2.418399e+003;5.710826e-003
2.420328e+003;5.805880e-003
2.422256e+003;5.778950e-003
2.424185e+003;5.874993e-003
2.426113e+003;6.067648e-003
2.428042e+003;6.348939e-003
2.429970e+003;6.310242e-003
2.431899e+003;6.058543e-003
2.433828e+003;6.239917e-003
2.435756e+003;6.681083e-003
2.437685e+003;6.659516e-003
2.439613e+003;6.402839e-003
2.441542e+003;6.374997e-003
2.443470e+003;6.621329e-003
2.445399e+003;6.767869e-003
2.447327e+003;6.955129e-003
2.449256e+003;7.263882e-003
2.451185e+003;7.276416e-003
2.453113e+003;7.123911e-003
2.455042e+003;7.215670e-003
2.456970e+003;7.342765e-003
2.458899e+003;7.234233e-003
2.460827e+003;7.026850e-003
2.462756e+003;7.027119e-003
2.464684e+003;7.150521e-003
2.466613e+003;7.308966e-003
2.468542e+003;7.598784e-003
2.470470e+003;7.793622e-003
2.472398e+003;7.760698e-003
2.474327e+003;7.826480e-003
2.476256e+003;7.932459e-003
2.478184e+003;7.962730e-003
2.480113e+003;7.946328e-003
2.482041e+003;8.031579e-003
2.483970e+003;8.023208e-003
2.485898e+003;8.137777e-003
2.487827e+003;8.256361e-003
2.489755e+003;8.290504e-003
2.491684e+003;8.231676e-003
2.493613e+003;8.297631e-003
2.495541e+003;8.514339e-003
2.497470e+003;8.647324e-003
2.499398e+003;8.584256e-003
2.501327e+003;8.465549e-003
2.503255e+003;8.488660e-003
2.505184e+003;8.592604e-003
2.507112e+003;8.637082e-003
2.509041e+003;8.640935e-003
2.510969e+003;8.828768e-003
2.512898e+003;8.831676e-003
2.514827e+003;8.778015e-003
2.516755e+003;9.026628e-003
2.518684e+003;9.132765e-003
2.520612e+003;9.310723e-003
2.522541e+003;9.615973e-003
2.524469e+003;9.639517e-003
2.526398e+003;9.515712e-003
2.528326e+003;9.438939e-003
2.530255e+003;9.516728e-003
2.532184e+003;9.592734e-003
2.534112e+003;9.661301e-003
2.536041e+003;9.877471e-003
2.537969e+003;9.916623e-003
2.539898e+003;9.795755e-003
2.541826e+003;9.661742e-003
2.543755e+003;9.898013e-003
2.545683e+003;1.023567e-002
2.547612e+003;1.038849e-002
2.549541e+003;1.040444e-002
2.551469e+003;1.053950e-002
2.553397e+003;1.099059e-002
2.555326e+003;1.111982e-002
2.557255e+003;1.086049e-002
2.559183e+003;1.107824e-002
2.561112e+003;1.134858e-002
2.563040e+003;1.122480e-002
2.564969e+003;1.111251e-002
2.566897e+003;1.122001e-002
2.568826e+003;1.157053e-002
2.570754e+003;1.186855e-002
2.572683e+003;1.199896e-002
2.574612e+003;1.210150e-002
2.576540e+003;1.235195e-002
2.578469e+003;1.249035e-002
2.580397e+003;1.236743e-002
2.582326e+003;1.245052e-002
2.584254e+003;1.286074e-002
2.586183e+003;1.317911e-002
2.588111e+003;1.348816e-002
2.590040e+003;1.371390e-002
2.591969e+003;1.393261e-002
2.593897e+003;1.400512e-002
2.595826e+003;1.400765e-002
2.597754e+003;1.409553e-002
2.599683e+003;1.433153e-002
2.601611e+003;1.462443e-002
2.603540e+003;1.486139e-002
2.605468e+003;1.497082e-002
2.607397e+003;1.499637e-002
2.609325e+003;1.504778e-002
2.611254e+003;1.530029e-002
2.613183e+003;1.544464e-002
2.615111e+003;1.556990e-002
2.617040e+003;1.570534e-002
2.618968e+003;1.579151e-002
2.620897e+003;1.579962e-002
2.622825e+003;1.589364e-002
2.624754e+003;1.605201e-002
2.626682e+003;1.591743e-002
2.628611e+003;1.576491e-002
2.630540e+003;1.587701e-002
2.632468e+003;1.599683e-002
2.634396e+003;1.602959e-002
2.636325e+003;1.610823e-002
2.638254e+003;1.612920e-002
2.640182e+003;1.584577e-002
2.642111e+003;1.555774e-002
2.644039e+003;1.549806e-002
2.645968e+003;1.573825e-002
2.647896e+003;1.608110e-002
2.649825e+003;1.609313e-002
2.651753e+003;1.605479e-002
2.653682e+003;1.629161e-002
2.655611e+003;1.637518e-002
2.657539e+003;1.631876e-002
2.659468e+003;1.660102e-002
2.661396e+003;1.690692e-002
2.663325e+003;1.703985e-002
2.665253e+003;1.718385e-002
2.667182e+003;1.711095e-002
2.669110e+003;1.698561e-002
2.671039e+003;1.723735e-002
2.672968e+003;1.761129e-002
2.674896e+003;1.782977e-002
2.676825e+003;1.798915e-002
2.678753e+003;1.806265e-002
2.680682e+003;1.794796e-002
2.682610e+003;1.799112e-002
2.684539e+003;1.833465e-002
2.686467e+003;1.868574e-002
2.688396e+003;1.892659e-002
2.690324e+003;1.916515e-002
2.692253e+003;1.927401e-002
2.694182e+003;1.941795e-002
2.696110e+003;1.947169e-002
2.698039e+003;1.937880e-002
2.699967e+003;1.952128e-002
2.701896e+003;2.006328e-002
2.703824e+003;2.057670e-002
2.705753e+003;2.067114e-002
2.707681e+003;2.081524e-002
2.709610e+003;2.094293e-002
2.711539e+003;2.126371e-002
2.713467e+003;2.169300e-002
2.715396e+003;2.165169e-002
2.717324e+003;2.151258e-002
2.719253e+003;2.177228e-002
2.721181e+003;2.222694e-002
2.723110e+003;2.254427e-002
2.725038e+003;2.279178e-002
2.726967e+003;2.322552e-002
2.728896e+003;2.348083e-002
2.730824e+003;2.384651e-002
2.732752e+003;2.425639e-002
2.734681e+003;2.465277e-002
2.736610e+003;2.481089e-002
2.738538e+003;2.475305e-002
2.740467e+003;2.508511e-002
2.742395e+003;2.559308e-002
2.744324e+003;2.573151e-002
2.746252e+003;2.582169e-002
2.748181e+003;2.606249e-002
2.750109e+003;2.625182e-002
2.752038e+003;2.638845e-002
2.753967e+003;2.685787e-002
2.755895e+003;2.720820e-002
2.757824e+003;2.737113e-002
2.759752e+003;2.782389e-002
2.761681e+003;2.816793e-002
2.763609e+003;2.840688e-002
2.765538e+003;2.873570e-002
2.767466e+003;2.895106e-002
2.769395e+003;2.907391e-002
2.771323e+003;2.935909e-002
2.773252e+003;2.952691e-002
2.775181e+003;2.983053e-002
2.777109e+003;3.021573e-002
2.779038e+003;3.059377e-002
2.780966e+003;3.088647e-002
2.782895e+003;3.118894e-002
2.784823e+003;3.157117e-002
2.786752e+003;3.198867e-002
2.788680e+003;3.226646e-002
2.790609e+003;3.239035e-002
2.792538e+003;3.272048e-002
2.794466e+003;3.308287e-002
2.796395e+003;3.351907e-002
2.798323e+003;3.409134e-002
2.800252e+003;3.453846e-002
2.802180e+003;3.469774e-002
2.804109e+003;3.486025e-002
2.806037e+003;3.521562e-002
2.807966e+003;3.556474e-002
2.809895e+003;3.587045e-002
2.811823e+003;3.628932e-002
2.813751e+003;3.680135e-002
2.815680e+003;3.693831e-002
2.817609e+003;3.709000e-002
2.819537e+003;3.762053e-002
2.821466e+003;3.815662e-002
2.823394e+003;3.823883e-002
2.825323e+003;3.842268e-002
2.827251e+003;3.889095e-002
2.829180e+003;3.923216e-002
2.831108e+003;3.958184e-002
2.833037e+003;3.992115e-002
2.834966e+003;4.057188e-002
2.836894e+003;4.148933e-002
2.838823e+003;4.214975e-002
2.840751e+003;4.285813e-002
2.842680e+003;4.420947e-002
2.844608e+003;4.563090e-002
2.846537e+003;4.696576e-002
2.848465e+003;4.866666e-002
2.850394e+003;5.043739e-002
2.852323e+003;5.192043e-002
2.854251e+003;5.295569e-002
2.856180e+003;5.321636e-002
2.858108e+003;5.336602e-002
2.860037e+003;5.372494e-002
2.861965e+003;5.394008e-002
2.863894e+003;5.422664e-002
2.865822e+003;5.479459e-002
2.867751e+003;5.543823e-002
2.869679e+003;5.612754e-002
2.871608e+003;5.693201e-002
2.873536e+003;5.757875e-002
2.875465e+003;5.795579e-002
2.877394e+003;5.826930e-002
2.879322e+003;5.846479e-002
2.881251e+003;5.872614e-002
2.883179e+003;5.906226e-002
2.885108e+003;5.941047e-002
2.887036e+003;5.972774e-002
2.888965e+003;6.009862e-002
2.890893e+003;6.037153e-002
2.892822e+003;6.080055e-002
2.894750e+003;6.157043e-002
2.896679e+003;6.245369e-002
2.898608e+003;6.304051e-002
2.900536e+003;6.363914e-002
2.902465e+003;6.436534e-002
2.904393e+003;6.540832e-002
2.906322e+003;6.656553e-002
2.908250e+003;6.771057e-002
2.910179e+003;6.904334e-002
2.912107e+003;7.065043e-002
2.914036e+003;7.242043e-002
2.915965e+003;7.388837e-002
2.917893e+003;7.566632e-002
2.919822e+003;7.791586e-002
2.921750e+003;7.996491e-002
2.923679e+003;8.171413e-002
2.925607e+003;8.318976e-002
2.927536e+003;8.429593e-002
2.929464e+003;8.523874e-002
2.931393e+003;8.582921e-002
2.933322e+003;8.611766e-002
2.935250e+003;8.646663e-002
2.937178e+003;8.624502e-002
2.939107e+003;8.541037e-002
2.941036e+003;8.451959e-002
2.942964e+003;8.376708e-002
2.944893e+003;8.261512e-002
2.946821e+003;8.129744e-002
2.948750e+003;8.052955e-002
2.950678e+003;7.941747e-002
2.952607e+003;7.848665e-002
2.954535e+003;7.793822e-002
2.956464e+003;7.714505e-002
2.958393e+003;7.648880e-002
2.960321e+003;7.620230e-002
2.962250e+003;7.587043e-002
2.964178e+003;7.581058e-002
2.966107e+003;7.573235e-002
2.968035e+003;7.564928e-002
2.969964e+003;7.532495e-002
2.971892e+003;7.512113e-002
2.973821e+003;7.506874e-002
2.975750e+003;7.470500e-002
2.977678e+003;7.438860e-002
2.979607e+003;7.406669e-002
2.981535e+003;7.381869e-002
2.983464e+003;7.361523e-002
2.985392e+003;7.322901e-002
2.987321e+003;7.264386e-002
2.989249e+003;7.206658e-002
2.991178e+003;7.120546e-002
2.993106e+003;7.055686e-002
2.995035e+003;6.990944e-002
2.996964e+003;6.913386e-002
2.998892e+003;6.861767e-002
3.000821e+003;6.790064e-002
3.002749e+003;6.751746e-002
3.004678e+003;6.732725e-002
3.006606e+003;6.709885e-002
3.008535e+003;6.697960e-002
3.010463e+003;6.713191e-002
3.012392e+003;6.705573e-002
3.014321e+003;6.704417e-002
3.016249e+003;6.731495e-002
3.018177e+003;6.757808e-002
3.020106e+003;6.798258e-002
3.022035e+003;6.834371e-002
3.023963e+003;6.847466e-002
3.025892e+003;6.873476e-002
3.027820e+003;6.913754e-002
3.029749e+003;6.987897e-002
3.031677e+003;7.080878e-002
3.033606e+003;7.125324e-002
3.035534e+003;7.175431e-002
3.037463e+003;7.240673e-002
3.039392e+003;7.323702e-002
3.041320e+003;7.422268e-002
3.043249e+003;7.516493e-002
3.045177e+003;7.607291e-002
3.047106e+003;7.649200e-002
3.049034e+003;7.718328e-002
3.050963e+003;7.810949e-002
3.052891e+003;7.891567e-002
3.054820e+003;7.975867e-002
3.056749e+003;8.042311e-002
3.058677e+003;8.089799e-002
3.060606e+003;8.134367e-002
3.062534e+003;8.215445e-002
3.064463e+003;8.294572e-002
3.066391e+003;8.361558e-002
3.068320e+003;8.382133e-002
3.070248e+003;8.369680e-002
3.072177e+003;8.381462e-002
3.074105e+003;8.393532e-002
3.076034e+003;8.388877e-002
3.077963e+003;8.418317e-002
3.079891e+003;8.438767e-002
3.081820e+003;8.395281e-002
3.083748e+003;8.369604e-002
3.085677e+003;8.370677e-002
3.087605e+003;8.340731e-002
3.089534e+003;8.302618e-002
3.091462e+003;8.259905e-002
3.093391e+003;8.219793e-002
3.095320e+003;8.203616e-002
3.097248e+003;8.180313e-002
3.099177e+003;8.110163e-002
3.101105e+003;8.037630e-002
3.103034e+003;8.036382e-002
3.104962e+003;8.007020e-002
3.106891e+003;7.915030e-002
3.108819e+003;7.864483e-002
3.110748e+003;7.834142e-002
3.112677e+003;7.823849e-002
3.114605e+003;7.819632e-002
3.116533e+003;7.811838e-002
3.118462e+003;7.777554e-002
3.120391e+003;7.728022e-002
3.122319e+003;7.731862e-002
3.124248e+003;7.750224e-002
3.126176e+003;7.719159e-002
3.128105e+003;7.693274e-002
3.130033e+003;7.679915e-002
3.131962e+003;7.698069e-002
3.133890e+003;7.715688e-002
3.135819e+003;7.743915e-002
3.137748e+003;7.774316e-002
3.139676e+003;7.828400e-002
3.141605e+003;7.863574e-002
3.143533e+003;7.877380e-002
3.145462e+003;7.939015e-002
3.147390e+003;8.021753e-002
3.149319e+003;8.118091e-002
3.151247e+003;8.194016e-002
3.153176e+003;8.278239e-002
3.155104e+003;8.360831e-002
3.157033e+003;8.424741e-002
3.158962e+003;8.490595e-002
3.160890e+003;8.590331e-002
3.162819e+003;8.709477e-002
3.164747e+003;8.824107e-002
3.166676e+003;8.922358e-002
3.168604e+003;9.012476e-002
3.170533e+003;9.140136e-002
3.172461e+003;9.263796e-002
3.174390e+003;9.370209e-002
3.176319e+003;9.492333e-002
3.178247e+003;9.576310e-002
3.180176e+003;9.698357e-002
3.182104e+003;9.874284e-002
3.184033e+003;1.004108e-001
3.185961e+003;1.014903e-001
3.187890e+003;1.025210e-001
3.189818e+003;1.038652e-001
3.191747e+003;1.051379e-001
3.193676e+003;1.065437e-001
3.195604e+003;1.078856e-001
3.197532e+003;1.092620e-001
3.199461e+003;1.107244e-001
3.201390e+003;1.117707e-001
3.203318e+003;1.128603e-001
3.205247e+003;1.142769e-001
3.207175e+003;1.157781e-001
3.209104e+003;1.168550e-001
3.211032e+003;1.181248e-001
3.212961e+003;1.194302e-001
3.214889e+003;1.205303e-001
3.216818e+003;1.216424e-001
3.218747e+003;1.228741e-001
3.220675e+003;1.240081e-001
3.222604e+003;1.252331e-001
3.224532e+003;1.265837e-001
3.226461e+003;1.279621e-001
3.228389e+003;1.290726e-001
3.230318e+003;1.298900e-001
3.232246e+003;1.311667e-001
3.234175e+003;1.328686e-001
3.236104e+003;1.341278e-001
3.238032e+003;1.350944e-001
3.239961e+003;1.364417e-001
3.241889e+003;1.378491e-001
3.243818e+003;1.394622e-001
3.245746e+003;1.412369e-001
3.247675e+003;1.424142e-001
3.249603e+003;1.431711e-001
3.251532e+003;1.441720e-001
3.253460e+003;1.455769e-001
3.255389e+003;1.469497e-001
3.257318e+003;1.487195e-001
3.259246e+003;1.506228e-001
3.261175e+003;1.517469e-001
3.263103e+003;1.531122e-001
3.265032e+003;1.547097e-001
3.266960e+003;1.559607e-001
3.268889e+003;1.574565e-001
3.270817e+003;1.589307e-001
3.272746e+003;1.600873e-001
3.274675e+003;1.609717e-001
3.276603e+003;1.618671e-001
3.278531e+003;1.625714e-001
3.280460e+003;1.629214e-001
3.282389e+003;1.632750e-001
3.284317e+003;1.637616e-001
3.286246e+003;1.638884e-001
3.288174e+003;1.636600e-001
3.290103e+003;1.635573e-001
3.292031e+003;1.633054e-001
3.293960e+003;1.631279e-001
3.295888e+003;1.628927e-001
3.297817e+003;1.622411e-001
3.299746e+003;1.608842e-001
3.301674e+003;1.596664e-001
3.303603e+003;1.587462e-001
3.305531e+003;1.576993e-001
3.307460e+003;1.563940e-001
3.309388e+003;1.549911e-001
3.311317e+003;1.536724e-001
3.313245e+003;1.519865e-001
3.315174e+003;1.506101e-001
3.317103e+003;1.493212e-001
3.319031e+003;1.476545e-001
3.320960e+003;1.461901e-001
3.322888e+003;1.446940e-001
3.324817e+003;1.432481e-001
3.326745e+003;1.416662e-001
3.328674e+003;1.396552e-001
3.330602e+003;1.379511e-001
3.332531e+003;1.366720e-001
3.334459e+003;1.349721e-001
3.336388e+003;1.331621e-001
3.338317e+003;1.317018e-001
3.340245e+003;1.301050e-001
3.342174e+003;1.288311e-001
3.344102e+003;1.277766e-001
3.346031e+003;1.266378e-001
3.347959e+003;1.250712e-001
3.349888e+003;1.234575e-001
3.351816e+003;1.221270e-001
3.353745e+003;1.206081e-001
3.355674e+003;1.193856e-001
3.357602e+003;1.185547e-001
3.359531e+003;1.174989e-001
3.361459e+003;1.161313e-001
3.363388e+003;1.147332e-001
3.365316e+003;1.134175e-001
3.367245e+003;1.119794e-001
3.369173e+003;1.104650e-001
3.371102e+003;1.094001e-001
3.373031e+003;1.087461e-001
3.374959e+003;1.079373e-001
3.376887e+003;1.064466e-001
3.378816e+003;1.052735e-001
3.380745e+003;1.045702e-001
3.382673e+003;1.034807e-001
3.384602e+003;1.023893e-001
3.386530e+003;1.015840e-001
3.388459e+003;1.006396e-001
3.390387e+003;9.960490e-002
3.392316e+003;9.858489e-002
3.394244e+003;9.739234e-002
3.396173e+003;9.649761e-002
3.398102e+003;9.573733e-002
3.400030e+003;9.429954e-002
3.401959e+003;9.282833e-002
3.403887e+003;9.222443e-002
3.405816e+003;9.122664e-002
3.407744e+003;8.972836e-002
3.409673e+003;8.846962e-002
3.411601e+003;8.740975e-002
3.413530e+003;8.625448e-002
3.415458e+003;8.489604e-002
3.417387e+003;8.407121e-002
3.419316e+003;8.285212e-002
3.421244e+003;8.129285e-002
3.423173e+003;7.982583e-002
3.425101e+003;7.880164e-002
3.427030e+003;7.808633e-002
3.428958e+003;7.711758e-002
3.430887e+003;7.591657e-002
3.432815e+003;7.456473e-002
3.434744e+003;7.348315e-002
3.436673e+003;7.223065e-002
3.438601e+003;7.115873e-002
3.440530e+003;7.021200e-002
3.442458e+003;6.924324e-002
3.444387e+003;6.867991e-002
3.446315e+003;6.786604e-002
3.448244e+003;6.672692e-002
3.450172e+003;6.562682e-002
3.452101e+003;6.504554e-002
3.454030e+003;6.481110e-002
3.455958e+003;6.466999e-002
3.457886e+003;6.436035e-002
3.459815e+003;6.332636e-002
3.461744e+003;6.236249e-002
3.463672e+003;6.162271e-002
3.465601e+003;6.093889e-002
3.467529e+003;6.071538e-002
3.469458e+003;6.072109e-002
3.471386e+003;6.027464e-002
3.473315e+003;5.962418e-002
3.475243e+003;5.910554e-002
3.477172e+003;5.844337e-002
3.479101e+003;5.748940e-002
3.481029e+003;5.722573e-002
3.482958e+003;5.690885e-002
3.484886e+003;5.615838e-002
3.486815e+003;5.560638e-002
3.488743e+003;5.496096e-002
3.490672e+003;5.434949e-002
3.492600e+003;5.417987e-002
3.494529e+003;5.404724e-002
3.496458e+003;5.355013e-002
3.498386e+003;5.290827e-002
3.500315e+003;5.262444e-002
3.502243e+003;5.218683e-002
3.504172e+003;5.138334e-002
3.506100e+003;5.087597e-002
3.508029e+003;5.074840e-002
3.509957e+003;5.041615e-002
3.511886e+003;5.001440e-002
3.513814e+003;4.945853e-002
3.515743e+003;4.854704e-002
3.517672e+003;4.803342e-002
3.519600e+003;4.765886e-002
3.521529e+003;4.707524e-002
3.523457e+003;4.639181e-002
3.525386e+003;4.580528e-002
3.527314e+003;4.560775e-002
3.529243e+003;4.509050e-002
3.531171e+003;4.438313e-002
3.533100e+003;4.390414e-002
3.535029e+003;4.302639e-002
3.536957e+003;4.194742e-002
3.538885e+003;4.119166e-002
3.540814e+003;4.067873e-002
3.542743e+003;4.025670e-002
3.544671e+003;3.963160e-002
3.546600e+003;3.872157e-002
3.548528e+003;3.844045e-002
3.550457e+003;3.815040e-002
3.552385e+003;3.731445e-002
3.554314e+003;3.669678e-002
3.556242e+003;3.618016e-002
3.558171e+003;3.553989e-002
3.560100e+003;3.491544e-002
3.562028e+003;3.432253e-002
3.563957e+003;3.387174e-002
3.565885e+003;3.317757e-002
3.567814e+003;3.260871e-002
3.569742e+003;3.206760e-002
3.571671e+003;3.118744e-002
3.573599e+003;3.032096e-002
3.575528e+003;2.969186e-002
3.577457e+003;2.892917e-002
3.579385e+003;2.824865e-002
3.581314e+003;2.785349e-002
3.583242e+003;2.759443e-002
3.585171e+003;2.688374e-002
3.587099e+003;2.610929e-002
3.589028e+003;2.547498e-002
3.590956e+003;2.495135e-002
3.592885e+003;2.419227e-002
3.594813e+003;2.319756e-002
3.596742e+003;2.259264e-002
3.598671e+003;2.240892e-002
3.600599e+003;2.210145e-002
3.602528e+003;2.131723e-002
3.604456e+003;2.046482e-002
3.606385e+003;1.953251e-002
3.608313e+003;1.886146e-002
3.610242e+003;1.856119e-002
3.612170e+003;1.771082e-002
3.614099e+003;1.680765e-002
3.616028e+003;1.623382e-002
3.617956e+003;1.556928e-002
3.619885e+003;1.494794e-002
3.621813e+003;1.395803e-002
3.623742e+003;1.322676e-002
3.625670e+003;1.274392e-002
3.627599e+003;1.211148e-002
3.629527e+003;1.147768e-002
3.631456e+003;1.127856e-002
3.633385e+003;1.079411e-002
3.635313e+003;9.914217e-003
3.637241e+003;8.891431e-003
3.639170e+003;7.785087e-003
3.641099e+003;7.088513e-003
3.643027e+003;7.054734e-003
3.644956e+003;7.030824e-003
3.646884e+003;6.460074e-003
3.648813e+003;5.999042e-003
3.650741e+003;5.599580e-003
3.652670e+003;4.894838e-003
3.654598e+003;4.273546e-003
3.656527e+003;3.653041e-003
3.658456e+003;2.927362e-003
3.660384e+003;2.365741e-003
3.662313e+003;1.649027e-003
3.664241e+003;1.126393e-003
3.666170e+003;8.895986e-004
3.668098e+003;6.532980e-004
3.670027e+003;1.163823e-004
3.671955e+003;-1.575238e-004
3.673884e+003;-4.602198e-004
3.675813e+003;-8.345399e-004
3.677741e+003;-1.156659e-003
3.679669e+003;-1.685270e-003
3.681598e+003;-1.865938e-003
3.683527e+003;-2.002636e-003
3.685455e+003;-2.171469e-003
3.687384e+003;-2.497539e-003
3.689312e+003;-2.811876e-003
3.691241e+003;-2.939061e-003
3.693169e+003;-3.764989e-003
3.695098e+003;-3.972868e-003
3.697026e+003;-3.322925e-003
3.698955e+003;-3.177301e-003
3.700884e+003;-3.501172e-003
3.702812e+003;-3.951164e-003
3.704741e+003;-4.150684e-003
3.706669e+003;-4.384783e-003
3.708598e+003;-4.462581e-003
3.710526e+003;-4.433293e-003
3.712455e+003;-4.543512e-003
3.714383e+003;-4.609774e-003
3.716312e+003;-4.959735e-003
3.718240e+003;-5.187342e-003
3.720169e+003;-4.853882e-003
3.722098e+003;-4.982927e-003
3.724026e+003;-5.470914e-003
3.725955e+003;-5.557383e-003
3.727883e+003;-5.434922e-003
3.729812e+003;-5.568472e-003
3.731740e+003;-6.051979e-003
3.733669e+003;-6.007179e-003
3.735597e+003;-5.498987e-003
3.737526e+003;-5.540568e-003
3.739455e+003;-5.860426e-003
3.741383e+003;-5.917924e-003
3.743312e+003;-5.924167e-003
3.745240e+003;-6.076747e-003
3.747169e+003;-6.138757e-003
3.749097e+003;-5.907007e-003
3.751026e+003;-5.769244e-003
3.752954e+003;-5.835189e-003
3.754883e+003;-5.807040e-003
3.756812e+003;-5.779413e-003
3.758740e+003;-6.004891e-003
3.760668e+003;-6.049627e-003
3.762597e+003;-5.861080e-003
3.764526e+003;-5.887754e-003
3.766454e+003;-6.131047e-003
3.768383e+003;-6.216633e-003
3.770311e+003;-6.315754e-003
3.772240e+003;-6.602115e-003
3.774168e+003;-6.743822e-003
3.776097e+003;-6.552019e-003
3.778025e+003;-6.408552e-003
3.779954e+003;-6.610209e-003
3.781883e+003;-6.656513e-003
3.783811e+003;-6.472963e-003
3.785740e+003;-6.643298e-003
3.787668e+003;-6.714460e-003
3.789597e+003;-6.308537e-003
3.791525e+003;-6.268793e-003
3.793454e+003;-6.467577e-003
3.795382e+003;-6.611579e-003
3.797311e+003;-6.366400e-003
3.799240e+003;-6.218886e-003
3.801168e+003;-6.653348e-003
3.803097e+003;-6.815196e-003
3.805025e+003;-6.509033e-003
3.806954e+003;-6.477598e-003
3.808882e+003;-6.729305e-003
3.810811e+003;-6.957421e-003
3.812739e+003;-7.098263e-003
3.814668e+003;-7.018556e-003
3.816596e+003;-6.963030e-003
3.818525e+003;-7.205884e-003
3.820454e+003;-6.966192e-003
3.822382e+003;-6.670511e-003
3.824311e+003;-6.470221e-003
3.826239e+003;-5.937502e-003
3.828168e+003;-5.774999e-003
3.830096e+003;-6.041131e-003
3.832025e+003;-6.269707e-003
3.833953e+003;-6.544643e-003
3.835882e+003;-6.867578e-003
3.837811e+003;-7.005090e-003
3.839739e+003;-7.046724e-003
3.841667e+003;-6.748977e-003
3.843596e+003;-6.422362e-003
3.845525e+003;-6.371755e-003
3.847453e+003;-6.299361e-003
3.849382e+003;-6.307492e-003
3.851310e+003;-6.460492e-003
3.853239e+003;-6.782969e-003
3.855167e+003;-6.863664e-003
3.857096e+003;-6.571503e-003
3.859024e+003;-6.302430e-003
3.860953e+003;-6.347168e-003
3.862882e+003;-6.267127e-003
3.864810e+003;-6.296062e-003
3.866739e+003;-6.483833e-003
3.868667e+003;-6.175900e-003
3.870596e+003;-5.719052e-003
3.872524e+003;-5.658715e-003
3.874453e+003;-5.921258e-003
3.876381e+003;-5.663261e-003
3.878310e+003;-5.510536e-003
3.880239e+003;-5.518715e-003
3.882167e+003;-5.641185e-003
3.884096e+003;-5.959858e-003
3.886024e+003;-6.137222e-003
3.887953e+003;-5.980480e-003
3.889881e+003;-5.779151e-003
3.891810e+003;-5.634807e-003
3.893738e+003;-5.608673e-003
3.895667e+003;-5.628462e-003
3.897595e+003;-5.779969e-003
3.899524e+003;-5.885858e-003
3.901453e+003;-5.708032e-003
3.903381e+003;-5.574230e-003
3.905310e+003;-5.546588e-003
3.907238e+003;-5.677357e-003
3.909167e+003;-5.539129e-003
3.911095e+003;-5.390549e-003
3.913024e+003;-5.306371e-003
3.914952e+003;-5.286535e-003
3.916881e+003;-5.245322e-003
3.918810e+003;-4.568661e-003
3.920738e+003;-4.373237e-003
3.922667e+003;-4.453594e-003
3.924595e+003;-4.863449e-003
3.926524e+003;-5.319071e-003
3.928452e+003;-4.924585e-003
3.930381e+003;-4.625379e-003
3.932309e+003;-4.880454e-003
3.934238e+003;-4.946796e-003
3.936167e+003;-4.739842e-003
3.938095e+003;-4.457399e-003
3.940023e+003;-4.578923e-003
3.941952e+003;-4.709787e-003
3.943881e+003;-4.738531e-003
3.945809e+003;-4.569283e-003
3.947738e+003;-4.701199e-003
3.949666e+003;-4.984008e-003
3.951595e+003;-4.979717e-003
3.953523e+003;-5.079973e-003
3.955452e+003;-4.900112e-003
3.957380e+003;-4.850704e-003
3.959309e+003;-4.971626e-003
3.961238e+003;-4.753869e-003
3.963166e+003;-4.771206e-003
3.965095e+003;-4.719259e-003
3.967023e+003;-4.618462e-003
3.968952e+003;-4.695201e-003
3.970880e+003;-4.616691e-003
3.972809e+003;-4.400560e-003
3.974737e+003;-4.204635e-003
3.976666e+003;-3.911663e-003
3.978594e+003;-4.481897e-003
3.980523e+003;-5.117763e-003
3.982452e+003;-5.052495e-003
3.984380e+003;-4.998846e-003
3.986309e+003;-4.871083e-003
3.988237e+003;-4.749543e-003
3.990166e+003;-4.827603e-003
3.992094e+003;-4.775499e-003
3.994023e+003;-4.736171e-003
3.995951e+003;-4.982207e-003
3.997880e+003;-4.804370e-003
3.999809e+003;-4.848803e-003
4.001737e+003;0.000000e+000
