3.992094e+002;0.000000e+000
4.011380e+002;0.000000e+000
4.030665e+002;0.000000e+000
4.049951e+002;0.000000e+000
4.069236e+002;0.000000e+000
4.088522e+002;0.000000e+000
4.107807e+002;0.000000e+000
4.127093e+002;0.000000e+000
4.146378e+002;0.000000e+000
4.165664e+002;0.000000e+000
4.184949e+002;0.000000e+000
4.204235e+002;0.000000e+000
4.223520e+002;0.000000e+000
4.242806e+002;0.000000e+000
4.262091e+002;0.000000e+000
4.281377e+002;0.000000e+000
4.300662e+002;0.000000e+000
4.319948e+002;0.000000e+000
4.339233e+002;0.000000e+000
4.358519e+002;0.000000e+000
4.377804e+002;0.000000e+000
4.397090e+002;0.000000e+000
4.416375e+002;0.000000e+000
4.435660e+002;0.000000e+000
4.454946e+002;0.000000e+000
4.474232e+002;0.000000e+000
4.493517e+002;0.000000e+000
4.512802e+002;0.000000e+000
4.532088e+002;0.000000e+000
4.551373e+002;0.000000e+000
4.570659e+002;0.000000e+000
4.589944e+002;0.000000e+000
4.609230e+002;0.000000e+000
4.628515e+002;0.000000e+000
4.647801e+002;0.000000e+000
4.667086e+002;0.000000e+000
4.686372e+002;0.000000e+000
4.705657e+002;0.000000e+000
4.724943e+002;0.000000e+000
4.744228e+002;0.000000e+000
4.763513e+002;0.000000e+000
4.782799e+002;0.000000e+000
4.802085e+002;0.000000e+000
4.821370e+002;0.000000e+000
4.840656e+002;0.000000e+000
4.859941e+002;0.000000e+000
4.879226e+002;0.000000e+000
4.898512e+002;0.000000e+000
4.917798e+002;0.000000e+000
4.937083e+002;0.000000e+000
4.956368e+002;0.000000e+000
4.975654e+002;0.000000e+000
4.994939e+002;0.000000e+000
5.014225e+002;0.000000e+000
5.033510e+002;0.000000e+000
5.052796e+002;0.000000e+000
5.072081e+002;0.000000e+000
5.091367e+002;0.000000e+000
5.110652e+002;0.000000e+000
5.129938e+002;0.000000e+000
5.149223e+002;0.000000e+000
5.168509e+002;0.000000e+000
5.187794e+002;0.000000e+000
5.207079e+002;0.000000e+000
5.226365e+002;0.000000e+000
5.245651e+002;0.000000e+000
5.264936e+002;0.000000e+000
5.284222e+002;0.000000e+000
5.303507e+002;0.000000e+000
5.322792e+002;0.000000e+000
5.342078e+002;0.000000e+000
5.361364e+002;0.000000e+000
5.380649e+002;0.000000e+000
5.399935e+002;0.000000e+000
5.419220e+002;0.000000e+000
5.438505e+002;0.000000e+000
5.457791e+002;0.000000e+000
5.477076e+002;0.000000e+000
5.496362e+002;0.000000e+000
5.515648e+002;0.000000e+000
5.534933e+002;0.000000e+000
5.554218e+002;0.000000e+000
5.573504e+002;0.000000e+000
5.592789e+002;0.000000e+000
5.612075e+002;0.000000e+000
5.631360e+002;0.000000e+000
5.650646e+002;0.000000e+000
5.669931e+002;0.000000e+000
5.689217e+002;0.000000e+000
5.708502e+002;0.000000e+000
5.727787e+002;0.000000e+000
5.747073e+002;0.000000e+000
5.766359e+002;0.000000e+000
5.785644e+002;0.000000e+000
5.804930e+002;0.000000e+000
5.824215e+002;0.000000e+000
5.843500e+002;0.000000e+000
5.862786e+002;0.000000e+000
5.882072e+002;0.000000e+000
5.901357e+002;0.000000e+000
5.920643e+002;0.000000e+000
5.939928e+002;0.000000e+000
5.959213e+002;0.000000e+000
5.978499e+002;0.000000e+000
5.997784e+002;2.070705e-001
6.017070e+002;2.119355e-001
6.036355e+002;2.121008e-001
6.055641e+002;2.114248e-001
6.074926e+002;2.172943e-001
6.094211e+002;2.186183e-001
6.113497e+002;2.156167e-001
6.132783e+002;2.150522e-001
6.152068e+002;2.163969e-001
6.171354e+002;2.176141e-001
6.190639e+002;2.136167e-001
6.209924e+002;2.119132e-001
6.229210e+002;2.138443e-001
6.248495e+002;2.152105e-001
6.267781e+002;2.148635e-001
6.287067e+002;2.103214e-001
6.306352e+002;2.065697e-001
6.325637e+002;2.081211e-001
6.344923e+002;2.068542e-001
6.364208e+002;2.075253e-001
6.383494e+002;2.091548e-001
6.402780e+002;2.057776e-001
6.422065e+002;2.047799e-001
6.441350e+002;2.041513e-001
6.460636e+002;2.027312e-001
6.479921e+002;1.995818e-001
6.499207e+002;2.005533e-001
6.518492e+002;2.027059e-001
6.537778e+002;2.027428e-001
6.557063e+002;2.023205e-001
6.576349e+002;2.015868e-001
6.595634e+002;2.037467e-001
6.614919e+002;2.044053e-001
6.634205e+002;2.032713e-001
6.653491e+002;2.031366e-001
6.672776e+002;2.033275e-001
6.692062e+002;2.042868e-001
6.711347e+002;2.068962e-001
6.730632e+002;2.085974e-001
6.749918e+002;2.073764e-001
6.769203e+002;2.048743e-001
6.788489e+002;2.048637e-001
6.807775e+002;2.075484e-001
6.827060e+002;2.081020e-001
6.846345e+002;2.086260e-001
6.865631e+002;2.093799e-001
6.884916e+002;2.077402e-001
6.904202e+002;2.068276e-001
6.923488e+002;2.067990e-001
6.942773e+002;2.058465e-001
6.962058e+002;2.050637e-001
6.981344e+002;2.033429e-001
7.000629e+002;2.011188e-001
7.019915e+002;1.992081e-001
7.039200e+002;1.976860e-001
7.058486e+002;1.962259e-001
7.077771e+002;1.935987e-001
7.097057e+002;1.921987e-001
7.116342e+002;1.918690e-001
7.135627e+002;1.906603e-001
7.154913e+002;1.887613e-001
7.174199e+002;1.869173e-001
7.193484e+002;1.858831e-001
7.212770e+002;1.846322e-001
7.232055e+002;1.818991e-001
7.251340e+002;1.791926e-001
7.270626e+002;1.774374e-001
7.289911e+002;1.759560e-001
7.309197e+002;1.734927e-001
7.328483e+002;1.703127e-001
7.347768e+002;1.682300e-001
7.367053e+002;1.661011e-001
7.386339e+002;1.638934e-001
7.405624e+002;1.623586e-001
7.424910e+002;1.608414e-001
7.444196e+002;1.579332e-001
7.463481e+002;1.550591e-001
7.482766e+002;1.542270e-001
7.502052e+002;1.535883e-001
7.521337e+002;1.523764e-001
7.540623e+002;1.515414e-001
7.559908e+002;1.503443e-001
7.579194e+002;1.493523e-001
7.598479e+002;1.484788e-001
7.617765e+002;1.475512e-001
7.637050e+002;1.474379e-001
7.656335e+002;1.467639e-001
7.675621e+002;1.456296e-001
7.694907e+002;1.447228e-001
7.714192e+002;1.433715e-001
7.733478e+002;1.421009e-001
7.752763e+002;1.408609e-001
7.772048e+002;1.398502e-001
7.791334e+002;1.390682e-001
7.810620e+002;1.380338e-001
7.829905e+002;1.372818e-001
7.849191e+002;1.368102e-001
7.868476e+002;1.353538e-001
7.887761e+002;1.344028e-001
7.907047e+002;1.341777e-001
7.926332e+002;1.331002e-001
7.945618e+002;1.320107e-001
7.964903e+002;1.323744e-001
7.984189e+002;1.329039e-001
8.003474e+002;1.326720e-001
8.022759e+002;1.321887e-001
8.042045e+002;1.324214e-001
8.061331e+002;1.328475e-001
8.080616e+002;1.331827e-001
8.099902e+002;1.334374e-001
8.119187e+002;1.335883e-001
8.138472e+002;1.329082e-001
8.157758e+002;1.326479e-001
8.177043e+002;1.332584e-001
8.196329e+002;1.341231e-001
8.215615e+002;1.348262e-001
8.234900e+002;1.345638e-001
8.254185e+002;1.345745e-001
8.273471e+002;1.347478e-001
8.292756e+002;1.343520e-001
8.312042e+002;1.336108e-001
8.331328e+002;1.327382e-001
8.350613e+002;1.316239e-001
8.369898e+002;1.305228e-001
8.389184e+002;1.299149e-001
8.408469e+002;1.291063e-001
8.427755e+002;1.283528e-001
8.447040e+002;1.282085e-001
8.466326e+002;1.284719e-001
8.485611e+002;1.287713e-001
8.504897e+002;1.291007e-001
8.524182e+002;1.294527e-001
8.543467e+002;1.286171e-001
8.562753e+002;1.270535e-001
8.582039e+002;1.257548e-001
8.601324e+002;1.243749e-001
8.620610e+002;1.224842e-001
8.639895e+002;1.209461e-001
8.659180e+002;1.207600e-001
8.678466e+002;1.213579e-001
8.697751e+002;1.215663e-001
8.717037e+002;1.213457e-001
8.736323e+002;1.215966e-001
8.755608e+002;1.218044e-001
8.774893e+002;1.217921e-001
8.794179e+002;1.217819e-001
8.813464e+002;1.216192e-001
8.832750e+002;1.216486e-001
8.852036e+002;1.214955e-001
8.871321e+002;1.209917e-001
8.890606e+002;1.206501e-001
8.909892e+002;1.207456e-001
8.929177e+002;1.209489e-001
8.948463e+002;1.207507e-001
8.967748e+002;1.208572e-001
8.987034e+002;1.211061e-001
9.006319e+002;1.209725e-001
9.025605e+002;1.208131e-001
9.044890e+002;1.206168e-001
9.064175e+002;1.204169e-001
9.083461e+002;1.202974e-001
9.102747e+002;1.206849e-001
9.122032e+002;1.215261e-001
9.141318e+002;1.223189e-001
9.160603e+002;1.229974e-001
9.179888e+002;1.240964e-001
9.199174e+002;1.253489e-001
9.218459e+002;1.265999e-001
9.237745e+002;1.277250e-001
9.257031e+002;1.282610e-001
9.276316e+002;1.286755e-001
9.295601e+002;1.287640e-001
9.314887e+002;1.282185e-001
9.334172e+002;1.280850e-001
9.353458e+002;1.282345e-001
9.372744e+002;1.280106e-001
9.392029e+002;1.279536e-001
9.411314e+002;1.283195e-001
9.430600e+002;1.285026e-001
9.449885e+002;1.286025e-001
9.469171e+002;1.287095e-001
9.488456e+002;1.293511e-001
9.507742e+002;1.299324e-001
9.527027e+002;1.302831e-001
9.546313e+002;1.307620e-001
9.565598e+002;1.313309e-001
9.584883e+002;1.318270e-001
9.604169e+002;1.324696e-001
9.623455e+002;1.334161e-001
9.642740e+002;1.345707e-001
9.662026e+002;1.359288e-001
9.681311e+002;1.380073e-001
9.700596e+002;1.398134e-001
9.719882e+002;1.408597e-001
9.739167e+002;1.417266e-001
9.758453e+002;1.422955e-001
9.777739e+002;1.415913e-001
9.797024e+002;1.402319e-001
9.816309e+002;1.394138e-001
9.835595e+002;1.388316e-001
9.854880e+002;1.389110e-001
9.874166e+002;1.399380e-001
9.893452e+002;1.417074e-001
9.912737e+002;1.438192e-001
9.932022e+002;1.454640e-001
9.951307e+002;1.464534e-001
9.970593e+002;1.467485e-001
9.989879e+002;1.464377e-001
1.000916e+003;1.458781e-001
1.002845e+003;1.449368e-001
1.004773e+003;1.438749e-001
1.006702e+003;1.428439e-001
1.008631e+003;1.419224e-001
1.010559e+003;1.409964e-001
1.012488e+003;1.399873e-001
1.014416e+003;1.386709e-001
1.016345e+003;1.376424e-001
1.018273e+003;1.371230e-001
1.020202e+003;1.370027e-001
1.022130e+003;1.382775e-001
1.024059e+003;1.407180e-001
1.025988e+003;1.436060e-001
1.027916e+003;1.459119e-001
1.029845e+003;1.475024e-001
1.031773e+003;1.490648e-001
1.033702e+003;1.511955e-001
1.035630e+003;1.530942e-001
1.037559e+003;1.540998e-001
1.039487e+003;1.547951e-001
1.041416e+003;1.555016e-001
1.043344e+003;1.556830e-001
1.045273e+003;1.559266e-001
1.047202e+003;1.562634e-001
1.049130e+003;1.568009e-001
1.051059e+003;1.575195e-001
1.052987e+003;1.587736e-001
1.054916e+003;1.606482e-001
1.056844e+003;1.625820e-001
1.058773e+003;1.640344e-001
1.060701e+003;1.651975e-001
1.062630e+003;1.661073e-001
1.064558e+003;1.667724e-001
1.066487e+003;1.668233e-001
1.068416e+003;1.661961e-001
1.070344e+003;1.652890e-001
1.072273e+003;1.641711e-001
1.074201e+003;1.625220e-001
1.076130e+003;1.603715e-001
1.078058e+003;1.579255e-001
1.079987e+003;1.557722e-001
1.081915e+003;1.539890e-001
1.083844e+003;1.518320e-001
1.085773e+003;1.490369e-001
1.087701e+003;1.469143e-001
1.089630e+003;1.452613e-001
1.091558e+003;1.436930e-001
1.093487e+003;1.436986e-001
1.095415e+003;1.441994e-001
1.097344e+003;1.442440e-001
1.099272e+003;1.444813e-001
1.101201e+003;1.441085e-001
1.103129e+003;1.437618e-001
1.105058e+003;1.435975e-001
1.106987e+003;1.430747e-001
1.108915e+003;1.423256e-001
1.110844e+003;1.415127e-001
1.112772e+003;1.411259e-001
1.114701e+003;1.409917e-001
1.116629e+003;1.408028e-001
1.118558e+003;1.409150e-001
1.120486e+003;1.409933e-001
1.122415e+003;1.406602e-001
1.124344e+003;1.405338e-001
1.126272e+003;1.408476e-001
1.128201e+003;1.409212e-001
1.130129e+003;1.413545e-001
1.132058e+003;1.416450e-001
1.133986e+003;1.421550e-001
1.135915e+003;1.433584e-001
1.137843e+003;1.447812e-001
1.139772e+003;1.459917e-001
1.141700e+003;1.474117e-001
1.143629e+003;1.487371e-001
1.145557e+003;1.496558e-001
1.147486e+003;1.505761e-001
1.149415e+003;1.518348e-001
1.151343e+003;1.532275e-001
1.153272e+003;1.545592e-001
1.155200e+003;1.558018e-001
1.157129e+003;1.569277e-001
1.159057e+003;1.579838e-001
1.160986e+003;1.586199e-001
1.162914e+003;1.587861e-001
1.164843e+003;1.590624e-001
1.166771e+003;1.597337e-001
1.168700e+003;1.606857e-001
1.170629e+003;1.609157e-001
1.172557e+003;1.598986e-001
1.174486e+003;1.583909e-001
1.176414e+003;1.568081e-001
1.178343e+003;1.556611e-001
1.180271e+003;1.547003e-001
1.182200e+003;1.542301e-001
1.184128e+003;1.546905e-001
1.186057e+003;1.554674e-001
1.187986e+003;1.558842e-001
1.189914e+003;1.562730e-001
1.191843e+003;1.574496e-001
1.193771e+003;1.590796e-001
1.195700e+003;1.607281e-001
1.197628e+003;1.632335e-001
1.199557e+003;1.660712e-001
1.201485e+003;1.686454e-001
1.203414e+003;1.720681e-001
1.205343e+003;1.762204e-001
1.207271e+003;1.797696e-001
1.209200e+003;1.832533e-001
1.211128e+003;1.868047e-001
1.213057e+003;1.900829e-001
1.214985e+003;1.930165e-001
1.216914e+003;1.958736e-001
1.218842e+003;1.985980e-001
1.220771e+003;2.005342e-001
1.222699e+003;2.020369e-001
1.224628e+003;2.035406e-001
1.226557e+003;2.045701e-001
1.228485e+003;2.052815e-001
1.230414e+003;2.053186e-001
1.232342e+003;2.043637e-001
1.234271e+003;2.025499e-001
1.236199e+003;2.004294e-001
1.238128e+003;1.982872e-001
1.240056e+003;1.961823e-001
1.241985e+003;1.942637e-001
1.243913e+003;1.925248e-001
1.245842e+003;1.912227e-001
1.247771e+003;1.906575e-001
1.249699e+003;1.899379e-001
1.251628e+003;1.891811e-001
1.253556e+003;1.889422e-001
1.255485e+003;1.888719e-001
1.257413e+003;1.889121e-001
1.259342e+003;1.884429e-001
1.261270e+003;1.874071e-001
1.263199e+003;1.856314e-001
1.265127e+003;1.835365e-001
1.267056e+003;1.812222e-001
1.268985e+003;1.782926e-001
1.270913e+003;1.750649e-001
1.272842e+003;1.720332e-001
1.274770e+003;1.691422e-001
1.276699e+003;1.669138e-001
1.278627e+003;1.651090e-001
1.280556e+003;1.636165e-001
1.282484e+003;1.625097e-001
1.284413e+003;1.613834e-001
1.286342e+003;1.605354e-001
1.288270e+003;1.600134e-001
1.290199e+003;1.596692e-001
1.292127e+003;1.592393e-001
1.294056e+003;1.589161e-001
1.295984e+003;1.592015e-001
1.297913e+003;1.593897e-001
1.299841e+003;1.593286e-001
1.301770e+003;1.594066e-001
1.303698e+003;1.593724e-001
1.305627e+003;1.590178e-001
1.307556e+003;1.587237e-001
1.309484e+003;1.586071e-001
1.311413e+003;1.581984e-001
1.313341e+003;1.578783e-001
1.315270e+003;1.578030e-001
1.317198e+003;1.578190e-001
1.319127e+003;1.578010e-001
1.321055e+003;1.582743e-001
1.322984e+003;1.588248e-001
1.324912e+003;1.594999e-001
1.326841e+003;1.604900e-001
1.328770e+003;1.610900e-001
1.330698e+003;1.613785e-001
1.332627e+003;1.615482e-001
1.334555e+003;1.614381e-001
1.336484e+003;1.610360e-001
1.338412e+003;1.607077e-001
1.340341e+003;1.603484e-001
1.342269e+003;1.601464e-001
1.344198e+003;1.600732e-001
1.346126e+003;1.600114e-001
1.348055e+003;1.601321e-001
1.349984e+003;1.601561e-001
1.351912e+003;1.600255e-001
1.353841e+003;1.601366e-001
1.355769e+003;1.609359e-001
1.357698e+003;1.621822e-001
1.359626e+003;1.635877e-001
1.361555e+003;1.654072e-001
1.363483e+003;1.677848e-001
1.365412e+003;1.701309e-001
1.367341e+003;1.711820e-001
1.369269e+003;1.709158e-001
1.371198e+003;1.703029e-001
1.373126e+003;1.697318e-001
1.375055e+003;1.691240e-001
1.376983e+003;1.685418e-001
1.378912e+003;1.683881e-001
1.380840e+003;1.687925e-001
1.382769e+003;1.690644e-001
1.384698e+003;1.691057e-001
1.386626e+003;1.694952e-001
1.388555e+003;1.701837e-001
1.390483e+003;1.706081e-001
1.392412e+003;1.706602e-001
1.394340e+003;1.708055e-001
1.396269e+003;1.715431e-001
1.398197e+003;1.724271e-001
1.400126e+003;1.732243e-001
1.402054e+003;1.738927e-001
1.403983e+003;1.745904e-001
1.405911e+003;1.754949e-001
1.407840e+003;1.760340e-001
1.409769e+003;1.760092e-001
1.411697e+003;1.758640e-001
1.413626e+003;1.757053e-001
1.415554e+003;1.755447e-001
1.417483e+003;1.751985e-001
1.419411e+003;1.752193e-001
1.421340e+003;1.762674e-001
1.423268e+003;1.779082e-001
1.425197e+003;1.802279e-001
1.427125e+003;1.832629e-001
1.429054e+003;1.867014e-001
1.430983e+003;1.909297e-001
1.432911e+003;1.961292e-001
1.434840e+003;2.013866e-001
1.436768e+003;2.055088e-001
1.438697e+003;2.083595e-001
1.440625e+003;2.100653e-001
1.442554e+003;2.105438e-001
1.444482e+003;2.102410e-001
1.446411e+003;2.090145e-001
1.448340e+003;2.063252e-001
1.450268e+003;2.026263e-001
1.452197e+003;1.978159e-001
1.454125e+003;1.923325e-001
1.456054e+003;1.871025e-001
1.457982e+003;1.836054e-001
1.459911e+003;1.813192e-001
1.461839e+003;1.794300e-001
1.463768e+003;1.783075e-001
1.465697e+003;1.780205e-001
1.467625e+003;1.784697e-001
1.469554e+003;1.790183e-001
1.471482e+003;1.795938e-001
1.473411e+003;1.810798e-001
1.475339e+003;1.834729e-001
1.477268e+003;1.861350e-001
1.479196e+003;1.894240e-001
1.481125e+003;1.935132e-001
1.483053e+003;1.984389e-001
1.484982e+003;2.038206e-001
1.486911e+003;2.094023e-001
1.488839e+003;2.157260e-001
1.490768e+003;2.228896e-001
1.492696e+003;2.302889e-001
1.494625e+003;2.376851e-001
1.496553e+003;2.452368e-001
1.498482e+003;2.529523e-001
1.500410e+003;2.604853e-001
1.502339e+003;2.674499e-001
1.504267e+003;2.733818e-001
1.506196e+003;2.786559e-001
1.508125e+003;2.846069e-001
1.510053e+003;2.900169e-001
1.511982e+003;2.937909e-001
1.513910e+003;2.955766e-001
1.515839e+003;2.943000e-001
1.517767e+003;2.899847e-001
1.519696e+003;2.845820e-001
1.521624e+003;2.798779e-001
1.523553e+003;2.760520e-001
1.525481e+003;2.721613e-001
1.527410e+003;2.684949e-001
1.529339e+003;2.644941e-001
1.531267e+003;2.601829e-001
1.533196e+003;2.554271e-001
1.535124e+003;2.505502e-001
1.537053e+003;2.453991e-001
1.538981e+003;2.399879e-001
1.540910e+003;2.355291e-001
1.542838e+003;2.316314e-001
1.544767e+003;2.278052e-001
1.546695e+003;2.240394e-001
1.548624e+003;2.201120e-001
1.550553e+003;2.160504e-001
1.552481e+003;2.119716e-001
1.554410e+003;2.076010e-001
1.556338e+003;2.031202e-001
1.558267e+003;1.980555e-001
1.560195e+003;1.939069e-001
1.562124e+003;1.905498e-001
1.564052e+003;1.865667e-001
1.565981e+003;1.824695e-001
1.567910e+003;1.787924e-001
1.569838e+003;1.755102e-001
1.571767e+003;1.731363e-001
1.573695e+003;1.712820e-001
1.575624e+003;1.697780e-001
1.577552e+003;1.696317e-001
1.579481e+003;1.703806e-001
1.581409e+003;1.715268e-001
1.583338e+003;1.733504e-001
1.585266e+003;1.757311e-001
1.587195e+003;1.790885e-001
1.589124e+003;1.833831e-001
1.591052e+003;1.884191e-001
1.592981e+003;1.942049e-001
1.594909e+003;2.003290e-001
1.596838e+003;2.065703e-001
1.598766e+003;2.135866e-001
1.600695e+003;2.220407e-001
1.602623e+003;2.316692e-001
1.604552e+003;2.421826e-001
1.606480e+003;2.533672e-001
1.608409e+003;2.649481e-001
1.610338e+003;2.759911e-001
1.612266e+003;2.855309e-001
1.614195e+003;2.937739e-001
1.616123e+003;3.008742e-001
1.618052e+003;3.064737e-001
1.619980e+003;3.095543e-001
1.621909e+003;3.096166e-001
1.623837e+003;3.070311e-001
1.625766e+003;3.021237e-001
1.627694e+003;2.955583e-001
1.629623e+003;2.879309e-001
1.631552e+003;2.797576e-001
1.633480e+003;2.711766e-001
1.635409e+003;2.622938e-001
1.637337e+003;2.548246e-001
1.639266e+003;2.481645e-001
1.641194e+003;2.416652e-001
1.643123e+003;2.356981e-001
1.645051e+003;2.298564e-001
1.646980e+003;2.241884e-001
1.648909e+003;2.193478e-001
1.650837e+003;2.143680e-001
1.652766e+003;2.087376e-001
1.654694e+003;2.044369e-001
1.656623e+003;2.002958e-001
1.658551e+003;1.954480e-001
1.660480e+003;1.906270e-001
1.662408e+003;1.856770e-001
1.664337e+003;1.811145e-001
1.666266e+003;1.767473e-001
1.668194e+003;1.722162e-001
1.670123e+003;1.680924e-001
1.672051e+003;1.646416e-001
1.673980e+003;1.610744e-001
1.675908e+003;1.576393e-001
1.677837e+003;1.542987e-001
1.679765e+003;1.509347e-001
1.681694e+003;1.477769e-001
1.683622e+003;1.441349e-001
1.685551e+003;1.416126e-001
1.687479e+003;1.400631e-001
1.689408e+003;1.384408e-001
1.691337e+003;1.374140e-001
1.693265e+003;1.366020e-001
1.695194e+003;1.360322e-001
1.697122e+003;1.363486e-001
1.699051e+003;1.348775e-001
1.700979e+003;1.301019e-001
1.702908e+003;1.226714e-001
1.704836e+003;1.131647e-001
1.706765e+003;1.044042e-001
1.708693e+003;9.781435e-002
1.710622e+003;9.280667e-002
1.712551e+003;8.871613e-002
1.714479e+003;8.548472e-002
1.716408e+003;8.294323e-002
1.718336e+003;8.147284e-002
1.720265e+003;8.078133e-002
1.722193e+003;7.995806e-002
1.724122e+003;7.886394e-002
1.726050e+003;7.801542e-002
1.727979e+003;7.729954e-002
1.729908e+003;7.645063e-002
1.731836e+003;7.530595e-002
1.733765e+003;7.427040e-002
1.735693e+003;7.426923e-002
1.737622e+003;7.393912e-002
1.739550e+003;7.297691e-002
1.741479e+003;7.280432e-002
1.743407e+003;7.256315e-002
1.745336e+003;7.217067e-002
1.747265e+003;7.200626e-002
1.749193e+003;7.175142e-002
1.751122e+003;7.167283e-002
1.753050e+003;7.201491e-002
1.754979e+003;7.207702e-002
1.756907e+003;7.199856e-002
1.758836e+003;7.205206e-002
1.760764e+003;7.210029e-002
1.762693e+003;7.214817e-002
1.764621e+003;7.240897e-002
1.766550e+003;7.227831e-002
1.768479e+003;7.204389e-002
1.770407e+003;7.183042e-002
1.772336e+003;7.136800e-002
1.774264e+003;7.151545e-002
1.776193e+003;7.192051e-002
1.778121e+003;7.189478e-002
1.780050e+003;7.175615e-002
1.781978e+003;7.162734e-002
1.783907e+003;7.146880e-002
1.785835e+003;7.136253e-002
1.787764e+003;7.134093e-002
1.789693e+003;7.111697e-002
1.791621e+003;7.074179e-002
1.793550e+003;7.055504e-002
1.795478e+003;7.080173e-002
1.797407e+003;7.088184e-002
1.799335e+003;7.071429e-002
1.801264e+003;7.045241e-002
1.803192e+003;7.034908e-002
1.805121e+003;7.022817e-002
1.807049e+003;7.000951e-002
1.808978e+003;6.983238e-002
1.810907e+003;6.961573e-002
1.812835e+003;6.942300e-002
1.814764e+003;6.951714e-002
1.816692e+003;6.945045e-002
1.818621e+003;6.928505e-002
1.820549e+003;6.904411e-002
1.822478e+003;6.876892e-002
1.824406e+003;6.849816e-002
1.826335e+003;6.855050e-002
1.828264e+003;6.858430e-002
1.830192e+003;6.830365e-002
1.832121e+003;6.796347e-002
1.834049e+003;6.790548e-002
1.835978e+003;6.782835e-002
1.837906e+003;6.777319e-002
1.839835e+003;6.790002e-002
1.841763e+003;6.792644e-002
1.843692e+003;6.740181e-002
1.845620e+003;6.709293e-002
1.847549e+003;6.722764e-002
1.849478e+003;6.723634e-002
1.851406e+003;6.704394e-002
1.853335e+003;6.708261e-002
1.855263e+003;6.714018e-002
1.857192e+003;6.702198e-002
1.859120e+003;6.711327e-002
1.861049e+003;6.731866e-002
1.862977e+003;6.725819e-002
1.864906e+003;6.710929e-002
1.866834e+003;6.708953e-002
1.868763e+003;6.709355e-002
1.870692e+003;6.714560e-002
1.872620e+003;6.721464e-002
1.874549e+003;6.730513e-002
1.876477e+003;6.735321e-002
1.878406e+003;6.743149e-002
1.880334e+003;6.742550e-002
1.882263e+003;6.717233e-002
1.884191e+003;6.694125e-002
1.886120e+003;6.693194e-002
1.888048e+003;6.712604e-002
1.889977e+003;6.723425e-002
1.891906e+003;6.720261e-002
1.893834e+003;6.707413e-002
1.895763e+003;6.704556e-002
1.897691e+003;6.703037e-002
1.899620e+003;6.700470e-002
1.901548e+003;6.698679e-002
1.903477e+003;6.697794e-002
1.905405e+003;6.681213e-002
1.907334e+003;6.659195e-002
1.909262e+003;6.663876e-002
1.911191e+003;6.687327e-002
1.913120e+003;6.681105e-002
1.915048e+003;6.644230e-002
1.916977e+003;6.630815e-002
1.918905e+003;6.665649e-002
1.920834e+003;6.688513e-002
1.922762e+003;6.692506e-002
1.924691e+003;6.684818e-002
1.926619e+003;6.677399e-002
1.928548e+003;6.665302e-002
1.930477e+003;6.667484e-002
1.932405e+003;6.687176e-002
1.934334e+003;6.684478e-002
1.936262e+003;6.664332e-002
1.938191e+003;6.674408e-002
1.940119e+003;6.685707e-002
1.942048e+003;6.679366e-002
1.943976e+003;6.676289e-002
1.945905e+003;6.672024e-002
1.947833e+003;6.690597e-002
1.949762e+003;6.722060e-002
1.951691e+003;6.721859e-002
1.953619e+003;6.709989e-002
1.955548e+003;6.704599e-002
1.957476e+003;6.722535e-002
1.959405e+003;6.757219e-002
1.961333e+003;6.769834e-002
1.963262e+003;6.755446e-002
1.965190e+003;6.739523e-002
1.967119e+003;6.711884e-002
1.969047e+003;6.701328e-002
1.970976e+003;6.726570e-002
1.972905e+003;6.740618e-002
1.974833e+003;6.720977e-002
1.976762e+003;6.717461e-002
1.978690e+003;6.749121e-002
1.980619e+003;6.751730e-002
1.982547e+003;6.737167e-002
1.984476e+003;6.727092e-002
1.986404e+003;6.735662e-002
1.988333e+003;6.747650e-002
1.990261e+003;6.743676e-002
1.992190e+003;6.727669e-002
1.994119e+003;6.722005e-002
1.996047e+003;6.724199e-002
1.997976e+003;6.714927e-002
1.999904e+003;6.707127e-002
2.001833e+003;6.689487e-002
2.003761e+003;6.696105e-002
2.005690e+003;6.709022e-002
2.007618e+003;6.683728e-002
2.009547e+003;6.677920e-002
2.011476e+003;6.705365e-002
2.013404e+003;6.702248e-002
2.015333e+003;6.690805e-002
2.017261e+003;6.700999e-002
2.019190e+003;6.701506e-002
2.021118e+003;6.695645e-002
2.023047e+003;6.703006e-002
2.024975e+003;6.710248e-002
2.026904e+003;6.714018e-002
2.028833e+003;6.718311e-002
2.030761e+003;6.712503e-002
2.032690e+003;6.695595e-002
2.034618e+003;6.685244e-002
2.036547e+003;6.699897e-002
2.038475e+003;6.716266e-002
2.040404e+003;6.708315e-002
2.042332e+003;6.703772e-002
2.044261e+003;6.715728e-002
2.046189e+003;6.708218e-002
2.048118e+003;6.694025e-002
2.050047e+003;6.715782e-002
2.051975e+003;6.750023e-002
2.053904e+003;6.749295e-002
2.055832e+003;6.732199e-002
2.057761e+003;6.728519e-002
2.059689e+003;6.723858e-002
2.061618e+003;6.725641e-002
2.063546e+003;6.740166e-002
2.065475e+003;6.745537e-002
2.067404e+003;6.762171e-002
2.069332e+003;6.760010e-002
2.071260e+003;6.749582e-002
2.073189e+003;6.757858e-002
2.075118e+003;6.753100e-002
2.077046e+003;6.759902e-002
2.078975e+003;6.780031e-002
2.080903e+003;6.792527e-002
2.082832e+003;6.770767e-002
2.084760e+003;6.748587e-002
2.086689e+003;6.739771e-002
2.088617e+003;6.741122e-002
2.090546e+003;6.744133e-002
2.092475e+003;6.744887e-002
2.094403e+003;6.752020e-002
2.096332e+003;6.765841e-002
2.098260e+003;6.765102e-002
2.100189e+003;6.754354e-002
2.102117e+003;6.752655e-002
2.104046e+003;6.755148e-002
2.105974e+003;6.743618e-002
2.107903e+003;6.743010e-002
2.109832e+003;6.749876e-002
2.111760e+003;6.750023e-002
2.113688e+003;6.755384e-002
2.115617e+003;6.750140e-002
2.117546e+003;6.728636e-002
2.119474e+003;6.699975e-002
2.121403e+003;6.691787e-002
2.123331e+003;6.717240e-002
2.125260e+003;6.726760e-002
2.127188e+003;6.700775e-002
2.129117e+003;6.704143e-002
2.131045e+003;6.718586e-002
2.132974e+003;6.736284e-002
2.134903e+003;6.744210e-002
2.136831e+003;6.733244e-002
2.138760e+003;6.735132e-002
2.140688e+003;6.734803e-002
2.142617e+003;6.705136e-002
2.144545e+003;6.693766e-002
2.146474e+003;6.706528e-002
2.148402e+003;6.727997e-002
2.150331e+003;6.726705e-002
2.152260e+003;6.696449e-002
2.154188e+003;6.688529e-002
2.156117e+003;6.705658e-002
2.158045e+003;6.695390e-002
2.159974e+003;6.692436e-002
2.161902e+003;6.710233e-002
2.163831e+003;6.714336e-002
2.165759e+003;6.697550e-002
2.167688e+003;6.689564e-002
2.169616e+003;6.684401e-002
2.171545e+003;6.692931e-002
2.173474e+003;6.694160e-002
2.175402e+003;6.689889e-002
2.177331e+003;6.687956e-002
2.179259e+003;6.674589e-002
2.181188e+003;6.653085e-002
2.183116e+003;6.658654e-002
2.185045e+003;6.678288e-002
2.186973e+003;6.668597e-002
2.188902e+003;6.643176e-002
2.190831e+003;6.636339e-002
2.192759e+003;6.644841e-002
2.194688e+003;6.665619e-002
2.196616e+003;6.672611e-002
2.198545e+003;6.671734e-002
2.200473e+003;6.657901e-002
2.202402e+003;6.641635e-002
2.204330e+003;6.642203e-002
2.206259e+003;6.625932e-002
2.208188e+003;6.622725e-002
2.210116e+003;6.645276e-002
2.212044e+003;6.650841e-002
2.213973e+003;6.643663e-002
2.215902e+003;6.659909e-002
2.217830e+003;6.662146e-002
2.219759e+003;6.649397e-002
2.221687e+003;6.633957e-002
2.223616e+003;6.622663e-002
2.225544e+003;6.610917e-002
2.227473e+003;6.600528e-002
2.229401e+003;6.615802e-002
2.231330e+003;6.624419e-002
2.233259e+003;6.605439e-002
2.235187e+003;6.593069e-002
2.237116e+003;6.589425e-002
2.239044e+003;6.593586e-002
2.240973e+003;6.617064e-002
2.242901e+003;6.622574e-002
2.244830e+003;6.604436e-002
2.246758e+003;6.603715e-002
2.248687e+003;6.595777e-002
2.250615e+003;6.593154e-002
2.252544e+003;6.605177e-002
2.254473e+003;6.581994e-002
2.256401e+003;6.538536e-002
2.258330e+003;6.530695e-002
2.260258e+003;6.547585e-002
2.262187e+003;6.541726e-002
2.264115e+003;6.526706e-002
2.266044e+003;6.538329e-002
2.267972e+003;6.544476e-002
2.269901e+003;6.545775e-002
2.271830e+003;6.539680e-002
2.273758e+003;6.533248e-002
2.275687e+003;6.528354e-002
2.277615e+003;6.512225e-002
2.279544e+003;6.503192e-002
2.281472e+003;6.523090e-002
2.283401e+003;6.548410e-002
2.285329e+003;6.555017e-002
2.287258e+003;6.546611e-002
2.289187e+003;6.530545e-002
2.291115e+003;6.530048e-002
2.293043e+003;6.524056e-002
2.294972e+003;6.526513e-002
2.296901e+003;6.541025e-002
2.298829e+003;6.542096e-002
2.300758e+003;6.537724e-002
2.302686e+003;6.550848e-002
2.304615e+003;6.551592e-002
2.306543e+003;6.530652e-002
2.308472e+003;6.546036e-002
2.310400e+003;6.543386e-002
2.312329e+003;6.526601e-002
2.314258e+003;6.537597e-002
2.316186e+003;6.536191e-002
2.318115e+003;6.527045e-002
2.320043e+003;6.500298e-002
2.321972e+003;6.476221e-002
2.323900e+003;6.488154e-002
2.325829e+003;6.493371e-002
2.327757e+003;6.474190e-002
2.329686e+003;6.454818e-002
2.331615e+003;6.447391e-002
2.333543e+003;6.445420e-002
2.335472e+003;6.459693e-002
2.337400e+003;6.473502e-002
2.339329e+003;6.469937e-002
2.341257e+003;6.459197e-002
2.343186e+003;6.464330e-002
2.345114e+003;6.470960e-002
2.347043e+003;6.496480e-002
2.348971e+003;6.514119e-002
2.350900e+003;6.506632e-002
2.352829e+003;6.477198e-002
2.354757e+003;6.440274e-002
2.356686e+003;6.410085e-002
2.358614e+003;6.402420e-002
2.360543e+003;6.419027e-002
2.362471e+003;6.445892e-002
2.364400e+003;6.450490e-002
2.366328e+003;6.434828e-002
2.368257e+003;6.452758e-002
2.370186e+003;6.475933e-002
2.372114e+003;6.487992e-002
2.374042e+003;6.515740e-002
2.375971e+003;6.543732e-002
2.377900e+003;6.570556e-002
2.379828e+003;6.580857e-002
2.381757e+003;6.577799e-002
2.383685e+003;6.593239e-002
2.385614e+003;6.604815e-002
2.387542e+003;6.592595e-002
2.389471e+003;6.577796e-002
2.391399e+003;6.579141e-002
2.393328e+003;6.607272e-002
2.395257e+003;6.630328e-002
2.397185e+003;6.630039e-002
2.399114e+003;6.628186e-002
2.401042e+003;6.638609e-002
2.402971e+003;6.662247e-002
2.404899e+003;6.683844e-002
2.406828e+003;6.710163e-002
2.408756e+003;6.740917e-002
2.410685e+003;6.755369e-002
2.412614e+003;6.757207e-002
2.414542e+003;6.778299e-002
2.416471e+003;6.782568e-002
2.418399e+003;6.799792e-002
2.420328e+003;6.830846e-002
2.422256e+003;6.849565e-002
2.424185e+003;6.852354e-002
2.426113e+003;6.843889e-002
2.428042e+003;6.869657e-002
2.429970e+003;6.898372e-002
2.431899e+003;6.897894e-002
2.433828e+003;6.887635e-002
2.435756e+003;6.914847e-002
2.437685e+003;6.946500e-002
2.439613e+003;6.932633e-002
2.441542e+003;6.934880e-002
2.443470e+003;6.955731e-002
2.445399e+003;6.943327e-002
2.447327e+003;6.950127e-002
2.449256e+003;6.959009e-002
2.451185e+003;6.932656e-002
2.453113e+003;6.937434e-002
2.455042e+003;6.954471e-002
2.456970e+003;6.958527e-002
2.458899e+003;6.970324e-002
2.460827e+003;6.981530e-002
2.462756e+003;6.985395e-002
2.464684e+003;6.995553e-002
2.466613e+003;6.995117e-002
2.468542e+003;6.998713e-002
2.470470e+003;6.988901e-002
2.472398e+003;6.994946e-002
2.474327e+003;7.035208e-002
2.476256e+003;7.062224e-002
2.478184e+003;7.057819e-002
2.480113e+003;7.067975e-002
2.482041e+003;7.090123e-002
2.483970e+003;7.085817e-002
2.485898e+003;7.070150e-002
2.487827e+003;7.060817e-002
2.489755e+003;7.083273e-002
2.491684e+003;7.103857e-002
2.493613e+003;7.097200e-002
2.495541e+003;7.083803e-002
2.497470e+003;7.075559e-002
2.499398e+003;7.104762e-002
2.501327e+003;7.109910e-002
2.503255e+003;7.077868e-002
2.505184e+003;7.078574e-002
2.507112e+003;7.114401e-002
2.509041e+003;7.131603e-002
2.510969e+003;7.144146e-002
2.512898e+003;7.141139e-002
2.514827e+003;7.115018e-002
2.516755e+003;7.109624e-002
2.518684e+003;7.116318e-002
2.520612e+003;7.116595e-002
2.522541e+003;7.130755e-002
2.524469e+003;7.139108e-002
2.526398e+003;7.130107e-002
2.528326e+003;7.138698e-002
2.530255e+003;7.155158e-002
2.532184e+003;7.139350e-002
2.534112e+003;7.124442e-002
2.536041e+003;7.140631e-002
2.537969e+003;7.153092e-002
2.539898e+003;7.171457e-002
2.541826e+003;7.213202e-002
2.543755e+003;7.256326e-002
2.545683e+003;7.270253e-002
2.547612e+003;7.264335e-002
2.549541e+003;7.240579e-002
2.551469e+003;7.220632e-002
2.553397e+003;7.249095e-002
2.555326e+003;7.296354e-002
2.557255e+003;7.305738e-002
2.559183e+003;7.300803e-002
2.561112e+003;7.309714e-002
2.563040e+003;7.330413e-002
2.564969e+003;7.360847e-002
2.566897e+003;7.391877e-002
2.568826e+003;7.402708e-002
2.570754e+003;7.417544e-002
2.572683e+003;7.443430e-002
2.574612e+003;7.454289e-002
2.576540e+003;7.463201e-002
2.578469e+003;7.452367e-002
2.580397e+003;7.439049e-002
2.582326e+003;7.471598e-002
2.584254e+003;7.510466e-002
2.586183e+003;7.516056e-002
2.588111e+003;7.528341e-002
2.590040e+003;7.541772e-002
2.591969e+003;7.543597e-002
2.593897e+003;7.547192e-002
2.595826e+003;7.555760e-002
2.597754e+003;7.563166e-002
2.599683e+003;7.591294e-002
2.601611e+003;7.633579e-002
2.603540e+003;7.620573e-002
2.605468e+003;7.619076e-002
2.607397e+003;7.650228e-002
2.609325e+003;7.670429e-002
2.611254e+003;7.665297e-002
2.613183e+003;7.658795e-002
2.615111e+003;7.675557e-002
2.617040e+003;7.700506e-002
2.618968e+003;7.706492e-002
2.620897e+003;7.679962e-002
2.622825e+003;7.668733e-002
2.624754e+003;7.674003e-002
2.626682e+003;7.668239e-002
2.628611e+003;7.658812e-002
2.630540e+003;7.652907e-002
2.632468e+003;7.642076e-002
2.634396e+003;7.654966e-002
2.636325e+003;7.662764e-002
2.638254e+003;7.665926e-002
2.640182e+003;7.658910e-002
2.642111e+003;7.660108e-002
2.644039e+003;7.661954e-002
2.645968e+003;7.632402e-002
2.647896e+003;7.628981e-002
2.649825e+003;7.661578e-002
2.651753e+003;7.679322e-002
2.653682e+003;7.693393e-002
2.655611e+003;7.686412e-002
2.657539e+003;7.663325e-002
2.659468e+003;7.665021e-002
2.661396e+003;7.695813e-002
2.663325e+003;7.712474e-002
2.665253e+003;7.707991e-002
2.667182e+003;7.702135e-002
2.669110e+003;7.724645e-002
2.671039e+003;7.743281e-002
2.672968e+003;7.765163e-002
2.674896e+003;7.782837e-002
2.676825e+003;7.776646e-002
2.678753e+003;7.765860e-002
2.680682e+003;7.783067e-002
2.682610e+003;7.833365e-002
2.684539e+003;7.837813e-002
2.686467e+003;7.841060e-002
2.688396e+003;7.882278e-002
2.690324e+003;7.897881e-002
2.692253e+003;7.919078e-002
2.694182e+003;7.936612e-002
2.696110e+003;7.932591e-002
2.698039e+003;7.930924e-002
2.699967e+003;7.920060e-002
2.701896e+003;7.913583e-002
2.703824e+003;7.965679e-002
2.705753e+003;8.008494e-002
2.707681e+003;8.016575e-002
2.709610e+003;8.033005e-002
2.711539e+003;8.063326e-002
2.713467e+003;8.067463e-002
2.715396e+003;8.066298e-002
2.717324e+003;8.077427e-002
2.719253e+003;8.084024e-002
2.721181e+003;8.113222e-002
2.723110e+003;8.139223e-002
2.725038e+003;8.149998e-002
2.726967e+003;8.178361e-002
2.728896e+003;8.214904e-002
2.730824e+003;8.217955e-002
2.732752e+003;8.198749e-002
2.734681e+003;8.228141e-002
2.736610e+003;8.260193e-002
2.738538e+003;8.251265e-002
2.740467e+003;8.247492e-002
2.742395e+003;8.266682e-002
2.744324e+003;8.305386e-002
2.746252e+003;8.354790e-002
2.748181e+003;8.383805e-002
2.750109e+003;8.394255e-002
2.752038e+003;8.402891e-002
2.753967e+003;8.409245e-002
2.755895e+003;8.418072e-002
2.757824e+003;8.410370e-002
2.759752e+003;8.424766e-002
2.761681e+003;8.448365e-002
2.763609e+003;8.455683e-002
2.765538e+003;8.464871e-002
2.767466e+003;8.471265e-002
2.769395e+003;8.480206e-002
2.771323e+003;8.498537e-002
2.773252e+003;8.502792e-002
2.775181e+003;8.526640e-002
2.777109e+003;8.550860e-002
2.779038e+003;8.567405e-002
2.780966e+003;8.572591e-002
2.782895e+003;8.572655e-002
2.784823e+003;8.605133e-002
2.786752e+003;8.613701e-002
2.788680e+003;8.593028e-002
2.790609e+003;8.592741e-002
2.792538e+003;8.605145e-002
2.794466e+003;8.613863e-002
2.796395e+003;8.640784e-002
2.798323e+003;8.672871e-002
2.800252e+003;8.669946e-002
2.802180e+003;8.671831e-002
2.804109e+003;8.708517e-002
2.806037e+003;8.763652e-002
2.807966e+003;8.785437e-002
2.809895e+003;8.761301e-002
2.811823e+003;8.738617e-002
2.813751e+003;8.743130e-002
2.815680e+003;8.786699e-002
2.817609e+003;8.800314e-002
2.819537e+003;8.798987e-002
2.821466e+003;8.790991e-002
2.823394e+003;8.774884e-002
2.825323e+003;8.804932e-002
2.827251e+003;8.815448e-002
2.829180e+003;8.807635e-002
2.831108e+003;8.838120e-002
2.833037e+003;8.868350e-002
2.834966e+003;8.928654e-002
2.836894e+003;8.973011e-002
2.838823e+003;8.956006e-002
2.840751e+003;8.935491e-002
2.842680e+003;8.936957e-002
2.844608e+003;8.941796e-002
2.846537e+003;8.909294e-002
2.848465e+003;8.870268e-002
2.850394e+003;8.885219e-002
2.852323e+003;8.966864e-002
2.854251e+003;9.069370e-002
2.856180e+003;9.138680e-002
2.858108e+003;9.217235e-002
2.860037e+003;9.288558e-002
2.861965e+003;9.334908e-002
2.863894e+003;9.397084e-002
2.865822e+003;9.465089e-002
2.867751e+003;9.526867e-002
2.869679e+003;9.588085e-002
2.871608e+003;9.632365e-002
2.873536e+003;9.660235e-002
2.875465e+003;9.666952e-002
2.877394e+003;9.653953e-002
2.879322e+003;9.635078e-002
2.881251e+003;9.605046e-002
2.883179e+003;9.587882e-002
2.885108e+003;9.589444e-002
2.887036e+003;9.591783e-002
2.888965e+003;9.572345e-002
2.890893e+003;9.556260e-002
2.892822e+003;9.530730e-002
2.894750e+003;9.532195e-002
2.896679e+003;9.539079e-002
2.898608e+003;9.536441e-002
2.900536e+003;9.559142e-002
2.902465e+003;9.591196e-002
2.904393e+003;9.617279e-002
2.906322e+003;9.624007e-002
2.908250e+003;9.596792e-002
2.910179e+003;9.569635e-002
2.912107e+003;9.567141e-002
2.914036e+003;9.539029e-002
2.915965e+003;9.525523e-002
2.917893e+003;9.553188e-002
2.919822e+003;9.608907e-002
2.921750e+003;9.707662e-002
2.923679e+003;9.826665e-002
2.925607e+003;9.907287e-002
2.927536e+003;9.934843e-002
2.929464e+003;1.001773e-001
2.931393e+003;1.011507e-001
2.933322e+003;1.010576e-001
2.935250e+003;1.007385e-001
2.937178e+003;1.005389e-001
2.939107e+003;1.001043e-001
2.941036e+003;9.986679e-002
2.942964e+003;9.977464e-002
2.944893e+003;9.931698e-002
2.946821e+003;9.876708e-002
2.948750e+003;9.819100e-002
2.950678e+003;9.769438e-002
2.952607e+003;9.755512e-002
2.954535e+003;9.737057e-002
2.956464e+003;9.719668e-002
2.958393e+003;9.726270e-002
2.960321e+003;9.737447e-002
2.962250e+003;9.750053e-002
2.964178e+003;9.759842e-002
2.966107e+003;9.778567e-002
2.968035e+003;9.837016e-002
2.969964e+003;9.900136e-002
2.971892e+003;9.898064e-002
2.973821e+003;9.891410e-002
2.975750e+003;9.861009e-002
2.977678e+003;9.843021e-002
2.979607e+003;9.832291e-002
2.981535e+003;9.819457e-002
2.983464e+003;9.789318e-002
2.985392e+003;9.720774e-002
2.987321e+003;9.663252e-002
2.989249e+003;9.644808e-002
2.991178e+003;9.621008e-002
2.993106e+003;9.572894e-002
2.995035e+003;9.536776e-002
2.996964e+003;9.495504e-002
2.998892e+003;9.443155e-002
3.000821e+003;9.413242e-002
3.002749e+003;9.392983e-002
3.004678e+003;9.380081e-002
3.006606e+003;9.394904e-002
3.008535e+003;9.395077e-002
3.010463e+003;9.418477e-002
3.012392e+003;9.439094e-002
3.014321e+003;9.426780e-002
3.016249e+003;9.413308e-002
3.018177e+003;9.406625e-002
3.020106e+003;9.437357e-002
3.022035e+003;9.504988e-002
3.023963e+003;9.546290e-002
3.025892e+003;9.562132e-002
3.027820e+003;9.582065e-002
3.029749e+003;9.612383e-002
3.031677e+003;9.659775e-002
3.033606e+003;9.708690e-002
3.035534e+003;9.723572e-002
3.037463e+003;9.722038e-002
3.039392e+003;9.744807e-002
3.041320e+003;9.790082e-002
3.043249e+003;9.850781e-002
3.045177e+003;9.904565e-002
3.047106e+003;9.950335e-002
3.049034e+003;1.000226e-001
3.050963e+003;1.004565e-001
3.052891e+003;1.005427e-001
3.054820e+003;1.008887e-001
3.056749e+003;1.015386e-001
3.058677e+003;1.019718e-001
3.060606e+003;1.023559e-001
3.062534e+003;1.024017e-001
3.064463e+003;1.024219e-001
3.066391e+003;1.024655e-001
3.068320e+003;1.026012e-001
3.070248e+003;1.029652e-001
3.072177e+003;1.031884e-001
3.074105e+003;1.032912e-001
3.076034e+003;1.031319e-001
3.077963e+003;1.028058e-001
3.079891e+003;1.026893e-001
3.081820e+003;1.024813e-001
3.083748e+003;1.022997e-001
3.085677e+003;1.024543e-001
3.087605e+003;1.022609e-001
3.089534e+003;1.019175e-001
3.091462e+003;1.016552e-001
3.093391e+003;1.013227e-001
3.095320e+003;1.007643e-001
3.097248e+003;1.002827e-001
3.099177e+003;1.002693e-001
3.101105e+003;1.003130e-001
3.103034e+003;9.991195e-002
3.104962e+003;9.972636e-002
3.106891e+003;9.996046e-002
3.108819e+003;9.974204e-002
3.110748e+003;9.930111e-002
3.112677e+003;9.908739e-002
3.114605e+003;9.913894e-002
3.116533e+003;9.896883e-002
3.118462e+003;9.874545e-002
3.120391e+003;9.856456e-002
3.122319e+003;9.826075e-002
3.124248e+003;9.815590e-002
3.126176e+003;9.824708e-002
3.128105e+003;9.826906e-002
3.130033e+003;9.847780e-002
3.131962e+003;9.907017e-002
3.133890e+003;9.949448e-002
3.135819e+003;9.959749e-002
3.137748e+003;9.961379e-002
3.139676e+003;9.985787e-002
3.141605e+003;9.993172e-002
3.143533e+003;9.995691e-002
3.145462e+003;1.001999e-001
3.147390e+003;1.005116e-001
3.149319e+003;1.007397e-001
3.151247e+003;1.011230e-001
3.153176e+003;1.016221e-001
3.155104e+003;1.019935e-001
3.157033e+003;1.020417e-001
3.158962e+003;1.020420e-001
3.160890e+003;1.029900e-001
3.162819e+003;1.038075e-001
3.164747e+003;1.039804e-001
3.166676e+003;1.041953e-001
3.168604e+003;1.048493e-001
3.170533e+003;1.055780e-001
3.172461e+003;1.062378e-001
3.174390e+003;1.073773e-001
3.176319e+003;1.083044e-001
3.178247e+003;1.086816e-001
3.180176e+003;1.088805e-001
3.182104e+003;1.092037e-001
3.184033e+003;1.098951e-001
3.185961e+003;1.105474e-001
3.187890e+003;1.111781e-001
3.189818e+003;1.119133e-001
3.191747e+003;1.128038e-001
3.193676e+003;1.135039e-001
3.195604e+003;1.138913e-001
3.197532e+003;1.147101e-001
3.199461e+003;1.154073e-001
3.201390e+003;1.157905e-001
3.203318e+003;1.166399e-001
3.205247e+003;1.177824e-001
3.207175e+003;1.186238e-001
3.209104e+003;1.193518e-001
3.211032e+003;1.203778e-001
3.212961e+003;1.210497e-001
3.214889e+003;1.213889e-001
3.216818e+003;1.222699e-001
3.218747e+003;1.231874e-001
3.220675e+003;1.240963e-001
3.222604e+003;1.250499e-001
3.224532e+003;1.258862e-001
3.226461e+003;1.269194e-001
3.228389e+003;1.281067e-001
3.230318e+003;1.289915e-001
3.232246e+003;1.300691e-001
3.234175e+003;1.312529e-001
3.236104e+003;1.323039e-001
3.238032e+003;1.334511e-001
3.239961e+003;1.347145e-001
3.241889e+003;1.364305e-001
3.243818e+003;1.377233e-001
3.245746e+003;1.386165e-001
3.247675e+003;1.400070e-001
3.249603e+003;1.415426e-001
3.251532e+003;1.430431e-001
3.253460e+003;1.452764e-001
3.255389e+003;1.471452e-001
3.257318e+003;1.486464e-001
3.259246e+003;1.507356e-001
3.261175e+003;1.526537e-001
3.263103e+003;1.544791e-001
3.265032e+003;1.566691e-001
3.266960e+003;1.586166e-001
3.268889e+003;1.602838e-001
3.270817e+003;1.613427e-001
3.272746e+003;1.625095e-001
3.274675e+003;1.643143e-001
3.276603e+003;1.653684e-001
3.278531e+003;1.655236e-001
3.280460e+003;1.654766e-001
3.282389e+003;1.652607e-001
3.284317e+003;1.649935e-001
3.286246e+003;1.642610e-001
3.288174e+003;1.627428e-001
3.290103e+003;1.615681e-001
3.292031e+003;1.600883e-001
3.293960e+003;1.580087e-001
3.295888e+003;1.560377e-001
3.297817e+003;1.541823e-001
3.299746e+003;1.523759e-001
3.301674e+003;1.504726e-001
3.303603e+003;1.482771e-001
3.305531e+003;1.455775e-001
3.307460e+003;1.430479e-001
3.309388e+003;1.409282e-001
3.311317e+003;1.388352e-001
3.313245e+003;1.367527e-001
3.315174e+003;1.346858e-001
3.317103e+003;1.324434e-001
3.319031e+003;1.307466e-001
3.320960e+003;1.292828e-001
3.322888e+003;1.272913e-001
3.324817e+003;1.250252e-001
3.326745e+003;1.232798e-001
3.328674e+003;1.217090e-001
3.330602e+003;1.204331e-001
3.332531e+003;1.190946e-001
3.334459e+003;1.173738e-001
3.336388e+003;1.159045e-001
3.338317e+003;1.147360e-001
3.340245e+003;1.135443e-001
3.342174e+003;1.123589e-001
3.344102e+003;1.111315e-001
3.346031e+003;1.097284e-001
3.347959e+003;1.085166e-001
3.349888e+003;1.078984e-001
3.351816e+003;1.072085e-001
3.353745e+003;1.065654e-001
3.355674e+003;1.057337e-001
3.357602e+003;1.046294e-001
3.359531e+003;1.039465e-001
3.361459e+003;1.033692e-001
3.363388e+003;1.026239e-001
3.365316e+003;1.018818e-001
3.367245e+003;1.013600e-001
3.369173e+003;1.011756e-001
3.371102e+003;1.009182e-001
3.373031e+003;1.002529e-001
3.374959e+003;9.916650e-002
3.376887e+003;9.836476e-002
3.378816e+003;9.831173e-002
3.380745e+003;9.831592e-002
3.382673e+003;9.809896e-002
3.384602e+003;9.784328e-002
3.386530e+003;9.749307e-002
3.388459e+003;9.686487e-002
3.390387e+003;9.620363e-002
3.392316e+003;9.587163e-002
3.394244e+003;9.554905e-002
3.396173e+003;9.523105e-002
3.398102e+003;9.483685e-002
3.400030e+003;9.455404e-002
3.401959e+003;9.423738e-002
3.403887e+003;9.366283e-002
3.405816e+003;9.307212e-002
3.407744e+003;9.277545e-002
3.409673e+003;9.276622e-002
3.411601e+003;9.242913e-002
3.413530e+003;9.183920e-002
3.415458e+003;9.129909e-002
3.417387e+003;9.088887e-002
3.419316e+003;9.061581e-002
3.421244e+003;9.033526e-002
3.423173e+003;9.023426e-002
3.425101e+003;8.995114e-002
3.427030e+003;8.954988e-002
3.428958e+003;8.924042e-002
3.430887e+003;8.874186e-002
3.432815e+003;8.825337e-002
3.434744e+003;8.766661e-002
3.436673e+003;8.728383e-002
3.438601e+003;8.706164e-002
3.440530e+003;8.669489e-002
3.442458e+003;8.625925e-002
3.444387e+003;8.628657e-002
3.446315e+003;8.618870e-002
3.448244e+003;8.580309e-002
3.450172e+003;8.554669e-002
3.452101e+003;8.516008e-002
3.454030e+003;8.476581e-002
3.455958e+003;8.473682e-002
3.457886e+003;8.495930e-002
3.459815e+003;8.492336e-002
3.461744e+003;8.433749e-002
3.463672e+003;8.367415e-002
3.465601e+003;8.411682e-002
3.467529e+003;8.436783e-002
3.469458e+003;8.420043e-002
3.471386e+003;8.387776e-002
3.473315e+003;8.370552e-002
3.475243e+003;8.331851e-002
3.477172e+003;8.308567e-002
3.479101e+003;8.299284e-002
3.481029e+003;8.259452e-002
3.482958e+003;8.263099e-002
3.484886e+003;8.290625e-002
3.486815e+003;8.291347e-002
3.488743e+003;8.259693e-002
3.490672e+003;8.244827e-002
3.492600e+003;8.236688e-002
3.494529e+003;8.201723e-002
3.496458e+003;8.142021e-002
3.498386e+003;8.074825e-002
3.500315e+003;8.083230e-002
3.502243e+003;8.100770e-002
3.504172e+003;8.084735e-002
3.506100e+003;8.053134e-002
3.508029e+003;8.042091e-002
3.509957e+003;8.036007e-002
3.511886e+003;7.993273e-002
3.513814e+003;7.977276e-002
3.515743e+003;7.991990e-002
3.517672e+003;7.966512e-002
3.519600e+003;7.943422e-002
3.521529e+003;7.947417e-002
3.523457e+003;7.936636e-002
3.525386e+003;7.864603e-002
3.527314e+003;7.807705e-002
3.529243e+003;7.823647e-002
3.531171e+003;7.821925e-002
3.533100e+003;7.787891e-002
3.535029e+003;7.756677e-002
3.536957e+003;7.729467e-002
3.538885e+003;7.701305e-002
3.540814e+003;7.680441e-002
3.542743e+003;7.681595e-002
3.544671e+003;7.699948e-002
3.546600e+003;7.679670e-002
3.548528e+003;7.622524e-002
3.550457e+003;7.584680e-002
3.552385e+003;7.593358e-002
3.554314e+003;7.571606e-002
3.556242e+003;7.503463e-002
3.558171e+003;7.469324e-002
3.560100e+003;7.468257e-002
3.562028e+003;7.468469e-002
3.563957e+003;7.427850e-002
3.565885e+003;7.361849e-002
3.567814e+003;7.351059e-002
3.569742e+003;7.387969e-002
3.571671e+003;7.380534e-002
3.573599e+003;7.314694e-002
3.575528e+003;7.294191e-002
3.577457e+003;7.300846e-002
3.579385e+003;7.298718e-002
3.581314e+003;7.296342e-002
3.583242e+003;7.266212e-002
3.585171e+003;7.213409e-002
3.587099e+003;7.173419e-002
3.589028e+003;7.151810e-002
3.590956e+003;7.129212e-002
3.592885e+003;7.113566e-002
3.594813e+003;7.118172e-002
3.596742e+003;7.094804e-002
3.598671e+003;7.047362e-002
3.600599e+003;7.022899e-002
3.602528e+003;7.001680e-002
3.604456e+003;6.955723e-002
3.606385e+003;6.893106e-002
3.608313e+003;6.859594e-002
3.610242e+003;6.826837e-002
3.612170e+003;6.811993e-002
3.614099e+003;6.817733e-002
3.616028e+003;6.800710e-002
3.617956e+003;6.767277e-002
3.619885e+003;6.713907e-002
3.621813e+003;6.676703e-002
3.623742e+003;6.666036e-002
3.625670e+003;6.653803e-002
3.627599e+003;6.586124e-002
3.629527e+003;6.526925e-002
3.631456e+003;6.540474e-002
3.633385e+003;6.553935e-002
3.635313e+003;6.538644e-002
3.637241e+003;6.492336e-002
3.639170e+003;6.474117e-002
3.641099e+003;6.443321e-002
3.643027e+003;6.354293e-002
3.644956e+003;6.259791e-002
3.646884e+003;6.212127e-002
3.648813e+003;6.148770e-002
3.650741e+003;6.081755e-002
3.652670e+003;6.073569e-002
3.654598e+003;6.072178e-002
3.656527e+003;6.049012e-002
3.658456e+003;6.011859e-002
3.660384e+003;5.933255e-002
3.662313e+003;5.870011e-002
3.664241e+003;5.824850e-002
3.666170e+003;5.779092e-002
3.668098e+003;5.712077e-002
3.670027e+003;5.599483e-002
3.671955e+003;5.530035e-002
3.673884e+003;5.478031e-002
3.675813e+003;5.406221e-002
3.677741e+003;5.416981e-002
3.679669e+003;5.429069e-002
3.681598e+003;5.353371e-002
3.683527e+003;5.268133e-002
3.685455e+003;5.237295e-002
3.687384e+003;5.215298e-002
3.689312e+003;5.177773e-002
3.691241e+003;5.171506e-002
3.693169e+003;5.159284e-002
3.695098e+003;5.081223e-002
3.697026e+003;5.027450e-002
3.698955e+003;5.029853e-002
3.700884e+003;5.023615e-002
3.702812e+003;4.988381e-002
3.704741e+003;4.978195e-002
3.706669e+003;4.990266e-002
3.708598e+003;4.965682e-002
3.710526e+003;4.916322e-002
3.712455e+003;4.891049e-002
3.714383e+003;4.899257e-002
3.716312e+003;4.865476e-002
3.718240e+003;4.845664e-002
3.720169e+003;4.818459e-002
3.722098e+003;4.794835e-002
3.724026e+003;4.779818e-002
3.725955e+003;4.793347e-002
3.727883e+003;4.795197e-002
3.729812e+003;4.782082e-002
3.731740e+003;4.788756e-002
3.733669e+003;4.763731e-002
3.735597e+003;4.713278e-002
3.737526e+003;4.723468e-002
3.739455e+003;4.744637e-002
3.741383e+003;4.742405e-002
3.743312e+003;4.666019e-002
3.745240e+003;4.670819e-002
3.747169e+003;4.710718e-002
3.749097e+003;4.665576e-002
3.751026e+003;4.643830e-002
3.752954e+003;4.653651e-002
3.754883e+003;4.699611e-002
3.756812e+003;4.732642e-002
3.758740e+003;4.709592e-002
3.760668e+003;4.684963e-002
3.762597e+003;4.707698e-002
3.764526e+003;4.678427e-002
3.766454e+003;4.651066e-002
3.768383e+003;4.643487e-002
3.770311e+003;4.668602e-002
3.772240e+003;4.697618e-002
3.774168e+003;4.724159e-002
3.776097e+003;4.701690e-002
3.778025e+003;4.628896e-002
3.779954e+003;4.618962e-002
3.781883e+003;4.680435e-002
3.783811e+003;4.739301e-002
3.785740e+003;4.747328e-002
3.787668e+003;4.712258e-002
3.789597e+003;4.692700e-002
3.791525e+003;4.728075e-002
3.793454e+003;4.726860e-002
3.795382e+003;4.722142e-002
3.797311e+003;4.715449e-002
3.799240e+003;4.652865e-002
3.801168e+003;4.605208e-002
3.803097e+003;4.661245e-002
3.805025e+003;4.695720e-002
3.806954e+003;4.666144e-002
3.808882e+003;4.661330e-002
3.810811e+003;4.664274e-002
3.812739e+003;4.672926e-002
3.814668e+003;4.622762e-002
3.816596e+003;4.672295e-002
3.818525e+003;4.745587e-002
3.820454e+003;4.712332e-002
3.822382e+003;4.697909e-002
3.824311e+003;4.718094e-002
3.826239e+003;4.714596e-002
3.828168e+003;4.733344e-002
3.830096e+003;4.754721e-002
3.832025e+003;4.770380e-002
3.833953e+003;4.758566e-002
3.835882e+003;4.728955e-002
3.837811e+003;4.718452e-002
3.839739e+003;4.733314e-002
3.841667e+003;4.718179e-002
3.843596e+003;4.748588e-002
3.845525e+003;4.796903e-002
3.847453e+003;4.781971e-002
3.849382e+003;4.750488e-002
3.851310e+003;4.723321e-002
3.853239e+003;4.670424e-002
3.855167e+003;4.696473e-002
3.857096e+003;4.764012e-002
3.859024e+003;4.799401e-002
3.860953e+003;4.802646e-002
3.862882e+003;4.791405e-002
3.864810e+003;4.808742e-002
3.866739e+003;4.848602e-002
3.868667e+003;4.810041e-002
3.870596e+003;4.791434e-002
3.872524e+003;4.842597e-002
3.874453e+003;4.854333e-002
3.876381e+003;4.851132e-002
3.878310e+003;4.857320e-002
3.880239e+003;4.876686e-002
3.882167e+003;4.895522e-002
3.884096e+003;4.903745e-002
3.886024e+003;4.892566e-002
3.887953e+003;4.908178e-002
3.889881e+003;4.919817e-002
3.891810e+003;4.932792e-002
3.893738e+003;4.986374e-002
3.895667e+003;5.016224e-002
3.897595e+003;4.957581e-002
3.899524e+003;4.906798e-002
3.901453e+003;4.923651e-002
3.903381e+003;4.948972e-002
3.905310e+003;4.932239e-002
3.907238e+003;4.978392e-002
3.909167e+003;5.056041e-002
3.911095e+003;5.093170e-002
3.913024e+003;5.067679e-002
3.914952e+003;5.052895e-002
3.916881e+003;5.057578e-002
3.918810e+003;5.069760e-002
3.920738e+003;5.064551e-002
3.922667e+003;5.079402e-002
3.924595e+003;5.088889e-002
3.926524e+003;5.094939e-002
3.928452e+003;5.092272e-002
3.930381e+003;5.085432e-002
3.932309e+003;5.087723e-002
3.934238e+003;5.114229e-002
3.936167e+003;5.151195e-002
3.938095e+003;5.134000e-002
3.940023e+003;5.112980e-002
3.941952e+003;5.144839e-002
3.943881e+003;5.175373e-002
3.945809e+003;5.170580e-002
3.947738e+003;5.189384e-002
3.949666e+003;5.195482e-002
3.951595e+003;5.154497e-002
3.953523e+003;5.151844e-002
3.955452e+003;5.202937e-002
3.957380e+003;5.238013e-002
3.959309e+003;5.212556e-002
3.961238e+003;5.201786e-002
3.963166e+003;5.215399e-002
3.965095e+003;5.213856e-002
3.967023e+003;5.255540e-002
3.968952e+003;5.270778e-002
3.970880e+003;5.246906e-002
3.972809e+003;5.237269e-002
3.974737e+003;5.225547e-002
3.976666e+003;5.251595e-002
3.978594e+003;5.264131e-002
3.980523e+003;5.268859e-002
3.982452e+003;5.288970e-002
3.984380e+003;5.300806e-002
3.986309e+003;5.315023e-002
3.988237e+003;5.307972e-002
3.990166e+003;5.300671e-002
3.992094e+003;5.286845e-002
3.994023e+003;5.254138e-002
3.995951e+003;5.305145e-002
3.997880e+003;5.338801e-002
3.999809e+003;5.328824e-002
4.001737e+003;0.000000e+000
