3.992094e+002;0.000000e+000
4.011380e+002;0.000000e+000
4.030665e+002;0.000000e+000
4.049951e+002;0.000000e+000
4.069236e+002;0.000000e+000
4.088522e+002;0.000000e+000
4.107807e+002;0.000000e+000
4.127093e+002;0.000000e+000
4.146378e+002;0.000000e+000
4.165664e+002;0.000000e+000
4.184949e+002;0.000000e+000
4.204235e+002;0.000000e+000
4.223520e+002;0.000000e+000
4.242806e+002;0.000000e+000
4.262091e+002;0.000000e+000
4.281377e+002;0.000000e+000
4.300662e+002;0.000000e+000
4.319948e+002;0.000000e+000
4.339233e+002;0.000000e+000
4.358519e+002;0.000000e+000
4.377804e+002;0.000000e+000
4.397090e+002;0.000000e+000
4.416375e+002;0.000000e+000
4.435660e+002;0.000000e+000
4.454946e+002;0.000000e+000
4.474232e+002;0.000000e+000
4.493517e+002;0.000000e+000
4.512802e+002;0.000000e+000
4.532088e+002;0.000000e+000
4.551373e+002;0.000000e+000
4.570659e+002;0.000000e+000
4.589944e+002;0.000000e+000
4.609230e+002;0.000000e+000
4.628515e+002;0.000000e+000
4.647801e+002;0.000000e+000
4.667086e+002;0.000000e+000
4.686372e+002;0.000000e+000
4.705657e+002;0.000000e+000
4.724943e+002;0.000000e+000
4.744228e+002;0.000000e+000
4.763513e+002;0.000000e+000
4.782799e+002;0.000000e+000
4.802085e+002;0.000000e+000
4.821370e+002;0.000000e+000
4.840656e+002;0.000000e+000
4.859941e+002;0.000000e+000
4.879226e+002;0.000000e+000
4.898512e+002;0.000000e+000
4.917798e+002;0.000000e+000
4.937083e+002;0.000000e+000
4.956368e+002;0.000000e+000
4.975654e+002;0.000000e+000
4.994939e+002;0.000000e+000
5.014225e+002;0.000000e+000
5.033510e+002;0.000000e+000
5.052796e+002;0.000000e+000
5.072081e+002;0.000000e+000
5.091367e+002;0.000000e+000
5.110652e+002;0.000000e+000
5.129938e+002;0.000000e+000
5.149223e+002;0.000000e+000
5.168509e+002;0.000000e+000
5.187794e+002;0.000000e+000
5.207079e+002;0.000000e+000
5.226365e+002;0.000000e+000
5.245651e+002;0.000000e+000
5.264936e+002;0.000000e+000
5.284222e+002;0.000000e+000
5.303507e+002;0.000000e+000
5.322792e+002;0.000000e+000
5.342078e+002;0.000000e+000
5.361364e+002;0.000000e+000
5.380649e+002;0.000000e+000
5.399935e+002;0.000000e+000
5.419220e+002;0.000000e+000
5.438505e+002;0.000000e+000
5.457791e+002;0.000000e+000
5.477076e+002;0.000000e+000
5.496362e+002;0.000000e+000
5.515648e+002;0.000000e+000
5.534933e+002;0.000000e+000
5.554218e+002;0.000000e+000
5.573504e+002;0.000000e+000
5.592789e+002;0.000000e+000
5.612075e+002;0.000000e+000
5.631360e+002;0.000000e+000
5.650646e+002;0.000000e+000
5.669931e+002;0.000000e+000
5.689217e+002;0.000000e+000
5.708502e+002;0.000000e+000
5.727787e+002;0.000000e+000
5.747073e+002;0.000000e+000
5.766359e+002;0.000000e+000
5.785644e+002;0.000000e+000
5.804930e+002;0.000000e+000
5.824215e+002;0.000000e+000
5.843500e+002;0.000000e+000
5.862786e+002;0.000000e+000
5.882072e+002;0.000000e+000
5.901357e+002;0.000000e+000
5.920643e+002;0.000000e+000
5.939928e+002;0.000000e+000
5.959213e+002;0.000000e+000
5.978499e+002;0.000000e+000
5.997784e+002;2.440221e-001
6.017070e+002;2.431075e-001
6.036355e+002;2.439916e-001
6.055641e+002;2.467888e-001
6.074926e+002;2.534182e-001
6.094211e+002;2.505516e-001
6.113497e+002;2.412436e-001
6.132783e+002;2.427008e-001
6.152068e+002;2.440361e-001
6.171354e+002;2.424919e-001
6.190639e+002;2.415000e-001
6.209924e+002;2.405763e-001
6.229210e+002;2.418011e-001
6.248495e+002;2.466705e-001
6.267781e+002;2.523156e-001
6.287067e+002;2.536381e-001
6.306352e+002;2.520163e-001
6.325637e+002;2.454208e-001
6.344923e+002;2.374573e-001
6.364208e+002;2.367015e-001
6.383494e+002;2.360964e-001
6.402780e+002;2.351608e-001
6.422065e+002;2.381472e-001
6.441350e+002;2.368877e-001
6.460636e+002;2.326358e-001
6.479921e+002;2.292232e-001
6.499207e+002;2.277699e-001
6.518492e+002;2.280676e-001
6.537778e+002;2.286145e-001
6.557063e+002;2.294284e-001
6.576349e+002;2.281829e-001
6.595634e+002;2.282409e-001
6.614919e+002;2.298643e-001
6.634205e+002;2.285458e-001
6.653491e+002;2.275802e-001
6.672776e+002;2.279857e-001
6.692062e+002;2.277770e-001
6.711347e+002;2.254536e-001
6.730632e+002;2.247420e-001
6.749918e+002;2.268370e-001
6.769203e+002;2.269441e-001
6.788489e+002;2.277334e-001
6.807775e+002;2.293856e-001
6.827060e+002;2.305558e-001
6.846345e+002;2.300839e-001
6.865631e+002;2.297047e-001
6.884916e+002;2.297623e-001
6.904202e+002;2.286473e-001
6.923488e+002;2.273496e-001
6.942773e+002;2.253880e-001
6.962058e+002;2.245740e-001
6.981344e+002;2.243754e-001
7.000629e+002;2.221651e-001
7.019915e+002;2.190919e-001
7.039200e+002;2.165758e-001
7.058486e+002;2.129839e-001
7.077771e+002;2.090113e-001
7.097057e+002;2.065204e-001
7.116342e+002;2.049366e-001
7.135627e+002;2.035097e-001
7.154913e+002;2.010888e-001
7.174199e+002;1.973174e-001
7.193484e+002;1.933775e-001
7.212770e+002;1.910333e-001
7.232055e+002;1.894709e-001
7.251340e+002;1.875962e-001
7.270626e+002;1.843135e-001
7.289911e+002;1.799850e-001
7.309197e+002;1.765711e-001
7.328483e+002;1.741643e-001
7.347768e+002;1.707923e-001
7.367053e+002;1.672874e-001
7.386339e+002;1.639629e-001
7.405624e+002;1.601174e-001
7.424910e+002;1.566999e-001
7.444196e+002;1.538902e-001
7.463481e+002;1.515900e-001
7.482766e+002;1.485793e-001
7.502052e+002;1.449298e-001
7.521337e+002;1.431717e-001
7.540623e+002;1.426043e-001
7.559908e+002;1.410546e-001
7.579194e+002;1.396093e-001
7.598479e+002;1.385033e-001
7.617765e+002;1.374292e-001
7.637050e+002;1.364958e-001
7.656335e+002;1.356149e-001
7.675621e+002;1.345288e-001
7.694907e+002;1.331050e-001
7.714192e+002;1.315678e-001
7.733478e+002;1.291439e-001
7.752763e+002;1.265528e-001
7.772048e+002;1.247251e-001
7.791334e+002;1.231558e-001
7.810620e+002;1.213206e-001
7.829905e+002;1.195458e-001
7.849191e+002;1.185633e-001
7.868476e+002;1.174397e-001
7.887761e+002;1.156520e-001
7.907047e+002;1.140511e-001
7.926332e+002;1.126559e-001
7.945618e+002;1.112197e-001
7.964903e+002;1.106644e-001
7.984189e+002;1.102536e-001
8.003474e+002;1.097459e-001
8.022759e+002;1.096071e-001
8.042045e+002;1.102130e-001
8.061331e+002;1.105318e-001
8.080616e+002;1.100164e-001
8.099902e+002;1.094349e-001
8.119187e+002;1.088319e-001
8.138472e+002;1.083960e-001
8.157758e+002;1.083796e-001
8.177043e+002;1.085847e-001
8.196329e+002;1.090311e-001
8.215615e+002;1.092469e-001
8.234900e+002;1.093866e-001
8.254185e+002;1.099516e-001
8.273471e+002;1.103969e-001
8.292756e+002;1.100756e-001
8.312042e+002;1.089617e-001
8.331328e+002;1.076059e-001
8.350613e+002;1.061931e-001
8.369898e+002;1.049748e-001
8.389184e+002;1.035551e-001
8.408469e+002;1.028036e-001
8.427755e+002;1.024244e-001
8.447040e+002;1.024141e-001
8.466326e+002;1.035495e-001
8.485611e+002;1.045492e-001
8.504897e+002;1.044239e-001
8.524182e+002;1.035025e-001
8.543467e+002;1.024883e-001
8.562753e+002;1.009617e-001
8.582039e+002;9.909268e-002
8.601324e+002;9.810074e-002
8.620610e+002;9.724915e-002
8.639895e+002;9.624668e-002
8.659180e+002;9.609754e-002
8.678466e+002;9.648184e-002
8.697751e+002;9.743513e-002
8.717037e+002;9.938888e-002
8.736323e+002;1.018016e-001
8.755608e+002;1.035628e-001
8.774893e+002;1.034596e-001
8.794179e+002;1.012482e-001
8.813464e+002;9.821763e-002
8.832750e+002;9.599093e-002
8.852036e+002;9.494893e-002
8.871321e+002;9.430806e-002
8.890606e+002;9.423479e-002
8.909892e+002;9.423079e-002
8.929177e+002;9.399121e-002
8.948463e+002;9.370711e-002
8.967748e+002;9.374665e-002
8.987034e+002;9.367701e-002
9.006319e+002;9.353923e-002
9.025605e+002;9.367372e-002
9.044890e+002;9.359792e-002
9.064175e+002;9.349439e-002
9.083461e+002;9.351100e-002
9.102747e+002;9.399619e-002
9.122032e+002;9.438922e-002
9.141318e+002;9.491896e-002
9.160603e+002;9.625615e-002
9.179888e+002;9.770513e-002
9.199174e+002;9.868889e-002
9.218459e+002;9.969052e-002
9.237745e+002;1.008670e-001
9.257031e+002;1.021420e-001
9.276316e+002;1.030127e-001
9.295601e+002;1.035500e-001
9.314887e+002;1.035243e-001
9.334172e+002;1.031638e-001
9.353458e+002;1.029334e-001
9.372744e+002;1.029138e-001
9.392029e+002;1.031963e-001
9.411314e+002;1.033792e-001
9.430600e+002;1.034326e-001
9.449885e+002;1.038529e-001
9.469171e+002;1.044869e-001
9.488456e+002;1.052031e-001
9.507742e+002;1.065343e-001
9.527027e+002;1.078711e-001
9.546313e+002;1.086682e-001
9.565598e+002;1.092192e-001
9.584883e+002;1.101709e-001
9.604169e+002;1.114912e-001
9.623455e+002;1.130548e-001
9.642740e+002;1.148099e-001
9.662026e+002;1.164202e-001
9.681311e+002;1.182925e-001
9.700596e+002;1.204951e-001
9.719882e+002;1.225827e-001
9.739167e+002;1.235426e-001
9.758453e+002;1.234703e-001
9.777739e+002;1.228076e-001
9.797024e+002;1.214791e-001
9.816309e+002;1.202519e-001
9.835595e+002;1.194303e-001
9.854880e+002;1.191706e-001
9.874166e+002;1.199559e-001
9.893452e+002;1.220939e-001
9.912737e+002;1.247967e-001
9.932022e+002;1.270823e-001
9.951307e+002;1.286897e-001
9.970593e+002;1.298829e-001
9.989879e+002;1.297690e-001
1.000916e+003;1.285360e-001
1.002845e+003;1.279644e-001
1.004773e+003;1.270830e-001
1.006702e+003;1.260232e-001
1.008631e+003;1.258561e-001
1.010559e+003;1.260827e-001
1.012488e+003;1.260029e-001
1.014416e+003;1.253402e-001
1.016345e+003;1.247732e-001
1.018273e+003;1.241673e-001
1.020202e+003;1.237171e-001
1.022130e+003;1.238930e-001
1.024059e+003;1.246575e-001
1.025988e+003;1.260797e-001
1.027916e+003;1.281148e-001
1.029845e+003;1.301641e-001
1.031773e+003;1.321159e-001
1.033702e+003;1.340456e-001
1.035630e+003;1.358525e-001
1.037559e+003;1.378198e-001
1.039487e+003;1.396664e-001
1.041416e+003;1.409041e-001
1.043344e+003;1.416087e-001
1.045273e+003;1.422207e-001
1.047202e+003;1.427795e-001
1.049130e+003;1.436076e-001
1.051059e+003;1.448942e-001
1.052987e+003;1.462560e-001
1.054916e+003;1.478027e-001
1.056844e+003;1.491312e-001
1.058773e+003;1.504348e-001
1.060701e+003;1.517933e-001
1.062630e+003;1.526133e-001
1.064558e+003;1.530832e-001
1.066487e+003;1.528320e-001
1.068416e+003;1.520751e-001
1.070344e+003;1.511492e-001
1.072273e+003;1.498220e-001
1.074201e+003;1.477831e-001
1.076130e+003;1.451661e-001
1.078058e+003;1.421815e-001
1.079987e+003;1.389731e-001
1.081915e+003;1.351700e-001
1.083844e+003;1.314001e-001
1.085773e+003;1.285410e-001
1.087701e+003;1.262358e-001
1.089630e+003;1.235293e-001
1.091558e+003;1.212823e-001
1.093487e+003;1.205725e-001
1.095415e+003;1.202411e-001
1.097344e+003;1.200120e-001
1.099272e+003;1.203676e-001
1.101201e+003;1.205570e-001
1.103129e+003;1.202547e-001
1.105058e+003;1.198726e-001
1.106987e+003;1.194341e-001
1.108915e+003;1.190511e-001
1.110844e+003;1.183431e-001
1.112772e+003;1.175818e-001
1.114701e+003;1.171087e-001
1.116629e+003;1.170944e-001
1.118558e+003;1.173820e-001
1.120486e+003;1.177319e-001
1.122415e+003;1.186014e-001
1.124344e+003;1.188979e-001
1.126272e+003;1.192704e-001
1.128201e+003;1.200415e-001
1.130129e+003;1.207878e-001
1.132058e+003;1.215481e-001
1.133986e+003;1.227091e-001
1.135915e+003;1.239530e-001
1.137843e+003;1.254887e-001
1.139772e+003;1.274352e-001
1.141700e+003;1.294314e-001
1.143629e+003;1.312717e-001
1.145557e+003;1.332314e-001
1.147486e+003;1.356951e-001
1.149415e+003;1.378022e-001
1.151343e+003;1.401165e-001
1.153272e+003;1.428136e-001
1.155200e+003;1.452214e-001
1.157129e+003;1.471396e-001
1.159057e+003;1.485253e-001
1.160986e+003;1.495283e-001
1.162914e+003;1.506278e-001
1.164843e+003;1.514563e-001
1.166771e+003;1.521000e-001
1.168700e+003;1.527585e-001
1.170629e+003;1.523979e-001
1.172557e+003;1.510953e-001
1.174486e+003;1.493015e-001
1.176414e+003;1.470065e-001
1.178343e+003;1.448207e-001
1.180271e+003;1.433975e-001
1.182200e+003;1.429493e-001
1.184128e+003;1.433250e-001
1.186057e+003;1.443618e-001
1.187986e+003;1.457714e-001
1.189914e+003;1.468796e-001
1.191843e+003;1.485575e-001
1.193771e+003;1.510601e-001
1.195700e+003;1.539576e-001
1.197628e+003;1.574240e-001
1.199557e+003;1.615396e-001
1.201485e+003;1.658166e-001
1.203414e+003;1.707467e-001
1.205343e+003;1.761664e-001
1.207271e+003;1.815498e-001
1.209200e+003;1.870492e-001
1.211128e+003;1.927009e-001
1.213057e+003;1.982634e-001
1.214985e+003;2.031393e-001
1.216914e+003;2.070857e-001
1.218842e+003;2.103191e-001
1.220771e+003;2.134126e-001
1.222699e+003;2.163358e-001
1.224628e+003;2.187595e-001
1.226557e+003;2.204244e-001
1.228485e+003;2.210365e-001
1.230414e+003;2.205091e-001
1.232342e+003;2.189378e-001
1.234271e+003;2.169623e-001
1.236199e+003;2.142248e-001
1.238128e+003;2.113036e-001
1.240056e+003;2.085622e-001
1.241985e+003;2.056278e-001
1.243913e+003;2.031940e-001
1.245842e+003;2.014940e-001
1.247771e+003;2.000826e-001
1.249699e+003;1.989837e-001
1.251628e+003;1.978320e-001
1.253556e+003;1.971508e-001
1.255485e+003;1.973172e-001
1.257413e+003;1.973116e-001
1.259342e+003;1.971787e-001
1.261270e+003;1.965936e-001
1.263199e+003;1.947321e-001
1.265127e+003;1.918912e-001
1.267056e+003;1.884055e-001
1.268985e+003;1.846796e-001
1.270913e+003;1.805557e-001
1.272842e+003;1.762553e-001
1.274770e+003;1.725831e-001
1.276699e+003;1.694720e-001
1.278627e+003;1.666642e-001
1.280556e+003;1.642575e-001
1.282484e+003;1.624278e-001
1.284413e+003;1.611219e-001
1.286342e+003;1.602320e-001
1.288270e+003;1.594074e-001
1.290199e+003;1.586710e-001
1.292127e+003;1.582538e-001
1.294056e+003;1.580446e-001
1.295984e+003;1.576871e-001
1.297913e+003;1.574599e-001
1.299841e+003;1.576669e-001
1.301770e+003;1.578483e-001
1.303698e+003;1.575257e-001
1.305627e+003;1.574728e-001
1.307556e+003;1.577381e-001
1.309484e+003;1.577724e-001
1.311413e+003;1.574280e-001
1.313341e+003;1.569975e-001
1.315270e+003;1.566356e-001
1.317198e+003;1.568646e-001
1.319127e+003;1.572640e-001
1.321055e+003;1.576541e-001
1.322984e+003;1.585789e-001
1.324912e+003;1.596331e-001
1.326841e+003;1.603839e-001
1.328770e+003;1.610343e-001
1.330698e+003;1.619230e-001
1.332627e+003;1.625948e-001
1.334555e+003;1.626697e-001
1.336484e+003;1.624148e-001
1.338412e+003;1.621155e-001
1.340341e+003;1.617532e-001
1.342269e+003;1.612739e-001
1.344198e+003;1.609554e-001
1.346126e+003;1.606594e-001
1.348055e+003;1.604626e-001
1.349984e+003;1.607866e-001
1.351912e+003;1.610852e-001
1.353841e+003;1.613924e-001
1.355769e+003;1.623719e-001
1.357698e+003;1.642719e-001
1.359626e+003;1.670007e-001
1.361555e+003;1.701427e-001
1.363483e+003;1.733647e-001
1.365412e+003;1.763562e-001
1.367341e+003;1.787435e-001
1.369269e+003;1.799550e-001
1.371198e+003;1.795993e-001
1.373126e+003;1.790626e-001
1.375055e+003;1.789584e-001
1.376983e+003;1.788697e-001
1.378912e+003;1.790793e-001
1.380840e+003;1.799577e-001
1.382769e+003;1.807611e-001
1.384698e+003;1.814355e-001
1.386626e+003;1.822481e-001
1.388555e+003;1.829861e-001
1.390483e+003;1.837603e-001
1.392412e+003;1.848176e-001
1.394340e+003;1.862767e-001
1.396269e+003;1.879857e-001
1.398197e+003;1.899529e-001
1.400126e+003;1.920171e-001
1.402054e+003;1.942420e-001
1.403983e+003;1.965791e-001
1.405911e+003;1.985277e-001
1.407840e+003;1.999856e-001
1.409769e+003;2.010892e-001
1.411697e+003;2.018427e-001
1.413626e+003;2.018227e-001
1.415554e+003;2.011094e-001
1.417483e+003;2.007010e-001
1.419411e+003;2.007652e-001
1.421340e+003;2.013709e-001
1.423268e+003;2.028427e-001
1.425197e+003;2.052396e-001
1.427125e+003;2.084308e-001
1.429054e+003;2.126693e-001
1.430983e+003;2.183028e-001
1.432911e+003;2.250490e-001
1.434840e+003;2.319248e-001
1.436768e+003;2.376053e-001
1.438697e+003;2.412062e-001
1.440625e+003;2.434766e-001
1.442554e+003;2.446305e-001
1.444482e+003;2.445478e-001
1.446411e+003;2.434128e-001
1.448340e+003;2.404327e-001
1.450268e+003;2.355787e-001
1.452197e+003;2.291504e-001
1.454125e+003;2.223407e-001
1.456054e+003;2.161558e-001
1.457982e+003;2.104143e-001
1.459911e+003;2.064398e-001
1.461839e+003;2.043717e-001
1.463768e+003;2.030021e-001
1.465697e+003;2.021249e-001
1.467625e+003;2.019750e-001
1.469554e+003;2.025053e-001
1.471482e+003;2.041341e-001
1.473411e+003;2.062536e-001
1.475339e+003;2.087621e-001
1.477268e+003;2.123002e-001
1.479196e+003;2.169257e-001
1.481125e+003;2.227422e-001
1.483053e+003;2.296106e-001
1.484982e+003;2.373181e-001
1.486911e+003;2.457506e-001
1.488839e+003;2.548794e-001
1.490768e+003;2.644360e-001
1.492696e+003;2.744943e-001
1.494625e+003;2.848392e-001
1.496553e+003;2.951713e-001
1.498482e+003;3.047356e-001
1.500410e+003;3.136307e-001
1.502339e+003;3.222477e-001
1.504267e+003;3.298903e-001
1.506196e+003;3.367911e-001
1.508125e+003;3.433978e-001
1.510053e+003;3.489779e-001
1.511982e+003;3.532743e-001
1.513910e+003;3.544884e-001
1.515839e+003;3.511603e-001
1.517767e+003;3.441760e-001
1.519696e+003;3.356026e-001
1.521624e+003;3.270269e-001
1.523553e+003;3.202376e-001
1.525481e+003;3.143909e-001
1.527410e+003;3.080890e-001
1.529339e+003;3.018090e-001
1.531267e+003;2.959728e-001
1.533196e+003;2.897294e-001
1.535124e+003;2.833302e-001
1.537053e+003;2.773513e-001
1.538981e+003;2.712691e-001
1.540910e+003;2.652355e-001
1.542838e+003;2.596269e-001
1.544767e+003;2.543670e-001
1.546695e+003;2.490797e-001
1.548624e+003;2.437866e-001
1.550553e+003;2.385840e-001
1.552481e+003;2.331413e-001
1.554410e+003;2.275175e-001
1.556338e+003;2.223328e-001
1.558267e+003;2.172593e-001
1.560195e+003;2.115917e-001
1.562124e+003;2.060866e-001
1.564052e+003;2.007349e-001
1.565981e+003;1.954326e-001
1.567910e+003;1.903689e-001
1.569838e+003;1.857596e-001
1.571767e+003;1.820310e-001
1.573695e+003;1.792202e-001
1.575624e+003;1.774502e-001
1.577552e+003;1.764662e-001
1.579481e+003;1.761825e-001
1.581409e+003;1.766012e-001
1.583338e+003;1.781284e-001
1.585266e+003;1.804557e-001
1.587195e+003;1.838836e-001
1.589124e+003;1.885503e-001
1.591052e+003;1.940397e-001
1.592981e+003;1.999835e-001
1.594909e+003;2.061562e-001
1.596838e+003;2.132799e-001
1.598766e+003;2.214467e-001
1.600695e+003;2.307877e-001
1.602623e+003;2.419874e-001
1.604552e+003;2.547840e-001
1.606480e+003;2.687513e-001
1.608409e+003;2.832229e-001
1.610338e+003;2.980138e-001
1.612266e+003;3.126450e-001
1.614195e+003;3.262033e-001
1.616123e+003;3.386509e-001
1.618052e+003;3.493998e-001
1.619980e+003;3.573276e-001
1.621909e+003;3.618034e-001
1.623837e+003;3.627256e-001
1.625766e+003;3.602124e-001
1.627694e+003;3.550169e-001
1.629623e+003;3.479938e-001
1.631552e+003;3.398821e-001
1.633480e+003;3.312890e-001
1.635409e+003;3.220605e-001
1.637337e+003;3.131462e-001
1.639266e+003;3.046324e-001
1.641194e+003;2.961483e-001
1.643123e+003;2.883736e-001
1.645051e+003;2.811327e-001
1.646980e+003;2.741239e-001
1.648909e+003;2.672492e-001
1.650837e+003;2.606021e-001
1.652766e+003;2.531853e-001
1.654694e+003;2.458510e-001
1.656623e+003;2.392984e-001
1.658551e+003;2.323148e-001
1.660480e+003;2.252447e-001
1.662408e+003;2.182667e-001
1.664337e+003;2.114924e-001
1.666266e+003;2.052545e-001
1.668194e+003;1.994475e-001
1.670123e+003;1.936060e-001
1.672051e+003;1.879278e-001
1.673980e+003;1.824853e-001
1.675908e+003;1.773081e-001
1.677837e+003;1.725409e-001
1.679765e+003;1.678514e-001
1.681694e+003;1.633802e-001
1.683622e+003;1.590230e-001
1.685551e+003;1.549708e-001
1.687479e+003;1.515287e-001
1.689408e+003;1.485773e-001
1.691337e+003;1.462879e-001
1.693265e+003;1.448558e-001
1.695194e+003;1.438222e-001
1.697122e+003;1.424749e-001
1.699051e+003;1.391959e-001
1.700979e+003;1.323743e-001
1.702908e+003;1.229844e-001
1.704836e+003;1.121707e-001
1.706765e+003;1.017322e-001
1.708693e+003;9.305554e-002
1.710622e+003;8.628738e-002
1.712551e+003;8.099002e-002
1.714479e+003;7.695659e-002
1.716408e+003;7.393771e-002
1.718336e+003;7.158373e-002
1.720265e+003;6.957839e-002
1.722193e+003;6.785012e-002
1.724122e+003;6.628468e-002
1.726050e+003;6.539492e-002
1.727979e+003;6.470871e-002
1.729908e+003;6.372485e-002
1.731836e+003;6.264605e-002
1.733765e+003;6.179977e-002
1.735693e+003;6.117617e-002
1.737622e+003;6.073271e-002
1.739550e+003;6.022817e-002
1.741479e+003;5.996873e-002
1.743407e+003;5.992959e-002
1.745336e+003;5.965482e-002
1.747265e+003;5.951761e-002
1.749193e+003;5.989547e-002
1.751122e+003;6.017678e-002
1.753050e+003;6.041509e-002
1.754979e+003;6.069655e-002
1.756907e+003;6.085643e-002
1.758836e+003;6.095726e-002
1.760764e+003;6.102685e-002
1.762693e+003;6.104352e-002
1.764621e+003;6.132851e-002
1.766550e+003;6.156696e-002
1.768479e+003;6.164210e-002
1.770407e+003;6.153000e-002
1.772336e+003;6.111285e-002
1.774264e+003;6.094899e-002
1.776193e+003;6.135015e-002
1.778121e+003;6.151801e-002
1.780050e+003;6.145991e-002
1.781978e+003;6.161473e-002
1.783907e+003;6.170874e-002
1.785835e+003;6.157574e-002
1.787764e+003;6.150648e-002
1.789693e+003;6.135663e-002
1.791621e+003;6.109553e-002
1.793550e+003;6.108737e-002
1.795478e+003;6.128326e-002
1.797407e+003;6.138999e-002
1.799335e+003;6.137301e-002
1.801264e+003;6.109992e-002
1.803192e+003;6.097701e-002
1.805121e+003;6.102654e-002
1.807049e+003;6.089013e-002
1.808978e+003;6.084961e-002
1.810907e+003;6.098861e-002
1.812835e+003;6.089996e-002
1.814764e+003;6.072338e-002
1.816692e+003;6.064409e-002
1.818621e+003;6.072342e-002
1.820549e+003;6.060309e-002
1.822478e+003;6.039533e-002
1.824406e+003;6.046517e-002
1.826335e+003;6.064458e-002
1.828264e+003;6.066386e-002
1.830192e+003;6.059456e-002
1.832121e+003;6.037880e-002
1.834049e+003;6.018504e-002
1.835978e+003;6.006148e-002
1.837906e+003;6.009766e-002
1.839835e+003;6.007069e-002
1.841763e+003;6.006502e-002
1.843692e+003;6.018405e-002
1.845620e+003;6.011886e-002
1.847549e+003;5.994317e-002
1.849478e+003;5.980241e-002
1.851406e+003;5.973211e-002
1.853335e+003;5.980990e-002
1.855263e+003;5.992586e-002
1.857192e+003;5.978032e-002
1.859120e+003;5.979112e-002
1.861049e+003;5.992004e-002
1.862977e+003;5.989821e-002
1.864906e+003;5.987523e-002
1.866834e+003;5.994347e-002
1.868763e+003;6.000471e-002
1.870692e+003;6.002195e-002
1.872620e+003;6.021933e-002
1.874549e+003;6.039792e-002
1.876477e+003;6.035783e-002
1.878406e+003;6.023018e-002
1.880334e+003;6.029204e-002
1.882263e+003;6.034808e-002
1.884191e+003;6.048094e-002
1.886120e+003;6.066938e-002
1.888048e+003;6.053331e-002
1.889977e+003;6.031907e-002
1.891906e+003;6.025314e-002
1.893834e+003;6.011426e-002
1.895763e+003;6.019737e-002
1.897691e+003;6.022893e-002
1.899620e+003;6.020038e-002
1.901548e+003;6.017869e-002
1.903477e+003;6.025275e-002
1.905405e+003;6.023939e-002
1.907334e+003;5.997466e-002
1.909262e+003;6.002674e-002
1.911191e+003;5.998585e-002
1.913120e+003;5.982161e-002
1.915048e+003;6.004158e-002
1.916977e+003;6.024403e-002
1.918905e+003;6.032489e-002
1.920834e+003;6.031343e-002
1.922762e+003;6.017515e-002
1.924691e+003;6.018165e-002
1.926619e+003;6.030110e-002
1.928548e+003;6.042001e-002
1.930477e+003;6.028324e-002
1.932405e+003;6.023224e-002
1.934334e+003;6.065773e-002
1.936262e+003;6.070345e-002
1.938191e+003;6.042241e-002
1.940119e+003;6.050885e-002
1.942048e+003;6.057753e-002
1.943976e+003;6.041433e-002
1.945905e+003;6.028496e-002
1.947833e+003;6.022375e-002
1.949762e+003;6.054115e-002
1.951691e+003;6.072745e-002
1.953619e+003;6.063414e-002
1.955548e+003;6.065887e-002
1.957476e+003;6.074986e-002
1.959405e+003;6.088544e-002
1.961333e+003;6.113718e-002
1.963262e+003;6.113673e-002
1.965190e+003;6.089867e-002
1.967119e+003;6.086516e-002
1.969047e+003;6.103821e-002
1.970976e+003;6.112845e-002
1.972905e+003;6.111285e-002
1.974833e+003;6.093420e-002
1.976762e+003;6.076080e-002
1.978690e+003;6.086988e-002
1.980619e+003;6.110934e-002
1.982547e+003;6.113539e-002
1.984476e+003;6.103360e-002
1.986404e+003;6.114245e-002
1.988333e+003;6.123064e-002
1.990261e+003;6.105644e-002
1.992190e+003;6.099791e-002
1.994119e+003;6.104176e-002
1.996047e+003;6.097282e-002
1.997976e+003;6.097282e-002
1.999904e+003;6.104710e-002
2.001833e+003;6.115034e-002
2.003761e+003;6.136473e-002
2.005690e+003;6.137346e-002
2.007618e+003;6.122713e-002
2.009547e+003;6.124331e-002
2.011476e+003;6.121710e-002
2.013404e+003;6.129688e-002
2.015333e+003;6.134839e-002
2.017261e+003;6.129306e-002
2.019190e+003;6.123869e-002
2.021118e+003;6.128680e-002
2.023047e+003;6.136503e-002
2.024975e+003;6.145556e-002
2.026904e+003;6.144499e-002
2.028833e+003;6.132649e-002
2.030761e+003;6.124190e-002
2.032690e+003;6.132424e-002
2.034618e+003;6.150679e-002
2.036547e+003;6.157532e-002
2.038475e+003;6.152832e-002
2.040404e+003;6.157658e-002
2.042332e+003;6.159769e-002
2.044261e+003;6.158995e-002
2.046189e+003;6.151114e-002
2.048118e+003;6.127234e-002
2.050047e+003;6.119936e-002
2.051975e+003;6.138144e-002
2.053904e+003;6.138484e-002
2.055832e+003;6.138373e-002
2.057761e+003;6.157525e-002
2.059689e+003;6.168408e-002
2.061618e+003;6.163577e-002
2.063546e+003;6.139976e-002
2.065475e+003;6.132336e-002
2.067404e+003;6.168785e-002
2.069332e+003;6.189226e-002
2.071260e+003;6.176459e-002
2.073189e+003;6.149488e-002
2.075118e+003;6.156146e-002
2.077046e+003;6.170722e-002
2.078975e+003;6.184244e-002
2.080903e+003;6.192803e-002
2.082832e+003;6.199364e-002
2.084760e+003;6.204004e-002
2.086689e+003;6.211990e-002
2.088617e+003;6.230619e-002
2.090546e+003;6.221552e-002
2.092475e+003;6.217881e-002
2.094403e+003;6.214165e-002
2.096332e+003;6.198008e-002
2.098260e+003;6.190755e-002
2.100189e+003;6.192669e-002
2.102117e+003;6.199139e-002
2.104046e+003;6.201424e-002
2.105974e+003;6.194710e-002
2.107903e+003;6.188118e-002
2.109832e+003;6.186987e-002
2.111760e+003;6.195012e-002
2.113688e+003;6.205736e-002
2.115617e+003;6.207861e-002
2.117546e+003;6.186250e-002
2.119474e+003;6.170668e-002
2.121403e+003;6.175187e-002
2.123331e+003;6.180905e-002
2.125260e+003;6.178227e-002
2.127188e+003;6.180030e-002
2.129117e+003;6.177463e-002
2.131045e+003;6.150519e-002
2.132974e+003;6.138759e-002
2.134903e+003;6.147079e-002
2.136831e+003;6.170500e-002
2.138760e+003;6.190682e-002
2.140688e+003;6.184259e-002
2.142617e+003;6.160071e-002
2.144545e+003;6.158002e-002
2.146474e+003;6.180202e-002
2.148402e+003;6.175183e-002
2.150331e+003;6.157891e-002
2.152260e+003;6.149694e-002
2.154188e+003;6.154313e-002
2.156117e+003;6.151069e-002
2.158045e+003;6.136381e-002
2.159974e+003;6.139220e-002
2.161902e+003;6.139262e-002
2.163831e+003;6.144266e-002
2.165759e+003;6.155065e-002
2.167688e+003;6.157891e-002
2.169616e+003;6.149369e-002
2.171545e+003;6.117575e-002
2.173474e+003;6.115789e-002
2.175402e+003;6.127662e-002
2.177331e+003;6.122984e-002
2.179259e+003;6.117399e-002
2.181188e+003;6.125823e-002
2.183116e+003;6.127509e-002
2.185045e+003;6.103124e-002
2.186973e+003;6.082243e-002
2.188902e+003;6.086257e-002
2.190831e+003;6.096870e-002
2.192759e+003;6.097290e-002
2.194688e+003;6.095456e-002
2.196616e+003;6.090240e-002
2.198545e+003;6.095360e-002
2.200473e+003;6.100713e-002
2.202402e+003;6.106132e-002
2.204330e+003;6.124648e-002
2.206259e+003;6.121184e-002
2.208188e+003;6.114275e-002
2.210116e+003;6.132153e-002
2.212044e+003;6.155520e-002
2.213973e+003;6.137507e-002
2.215902e+003;6.095517e-002
2.217830e+003;6.089653e-002
2.219759e+003;6.100889e-002
2.221687e+003;6.096394e-002
2.223616e+003;6.077742e-002
2.225544e+003;6.068280e-002
2.227473e+003;6.066154e-002
2.229401e+003;6.055277e-002
2.231330e+003;6.058488e-002
2.233259e+003;6.053346e-002
2.235187e+003;6.029954e-002
2.237116e+003;6.039571e-002
2.239044e+003;6.059376e-002
2.240973e+003;6.054424e-002
2.242901e+003;6.045416e-002
2.244830e+003;6.035501e-002
2.246758e+003;6.033384e-002
2.248687e+003;6.031899e-002
2.250615e+003;6.051183e-002
2.252544e+003;6.048894e-002
2.254473e+003;6.014580e-002
2.256401e+003;5.993198e-002
2.258330e+003;5.986824e-002
2.260258e+003;6.002427e-002
2.262187e+003;6.020765e-002
2.264115e+003;6.011936e-002
2.266044e+003;5.997752e-002
2.267972e+003;6.005284e-002
2.269901e+003;6.013256e-002
2.271830e+003;6.012118e-002
2.273758e+003;6.031610e-002
2.275687e+003;6.052272e-002
2.277615e+003;6.022101e-002
2.279544e+003;6.001955e-002
2.281472e+003;5.999753e-002
2.283401e+003;5.985257e-002
2.285329e+003;5.979249e-002
2.287258e+003;5.987657e-002
2.289187e+003;5.974899e-002
2.291115e+003;5.969895e-002
2.293043e+003;5.986303e-002
2.294972e+003;5.996021e-002
2.296901e+003;5.982717e-002
2.298829e+003;5.977644e-002
2.300758e+003;5.989714e-002
2.302686e+003;5.982846e-002
2.304615e+003;5.948216e-002
2.306543e+003;5.924938e-002
2.308472e+003;5.945348e-002
2.310400e+003;5.964946e-002
2.312329e+003;5.977583e-002
2.314258e+003;5.979952e-002
2.316186e+003;5.970736e-002
2.318115e+003;5.969515e-002
2.320043e+003;5.953958e-002
2.321972e+003;5.947745e-002
2.323900e+003;5.950477e-002
2.325829e+003;5.950804e-002
2.327757e+003;5.963292e-002
2.329686e+003;5.950177e-002
2.331615e+003;5.935861e-002
2.333543e+003;5.951750e-002
2.335472e+003;5.947726e-002
2.337400e+003;5.945013e-002
2.339329e+003;5.946141e-002
2.341257e+003;5.942639e-002
2.343186e+003;5.948072e-002
2.345114e+003;5.955611e-002
2.347043e+003;5.954152e-002
2.348971e+003;5.943668e-002
2.350900e+003;5.936883e-002
2.352829e+003;5.951507e-002
2.354757e+003;5.958496e-002
2.356686e+003;5.944386e-002
2.358614e+003;5.939265e-002
2.360543e+003;5.942802e-002
2.362471e+003;5.962768e-002
2.364400e+003;5.954627e-002
2.366328e+003;5.942859e-002
2.368257e+003;5.929540e-002
2.370186e+003;5.917779e-002
2.372114e+003;5.918622e-002
2.374042e+003;5.939189e-002
2.375971e+003;5.945363e-002
2.377900e+003;5.937001e-002
2.379828e+003;5.945986e-002
2.381757e+003;5.968903e-002
2.383685e+003;5.961270e-002
2.385614e+003;5.945401e-002
2.387542e+003;5.956595e-002
2.389471e+003;5.969899e-002
2.391399e+003;5.985827e-002
2.393328e+003;5.995945e-002
2.395257e+003;6.005638e-002
2.397185e+003;6.027719e-002
2.399114e+003;6.049994e-002
2.401042e+003;6.048753e-002
2.402971e+003;6.048219e-002
2.404899e+003;6.034111e-002
2.406828e+003;6.022957e-002
2.408756e+003;6.033308e-002
2.410685e+003;6.063936e-002
2.412614e+003;6.066131e-002
2.414542e+003;6.051575e-002
2.416471e+003;6.054759e-002
2.418399e+003;6.084610e-002
2.420328e+003;6.109153e-002
2.422256e+003;6.147545e-002
2.424185e+003;6.160587e-002
2.426113e+003;6.158712e-002
2.428042e+003;6.165894e-002
2.429970e+003;6.149668e-002
2.431899e+003;6.145461e-002
2.433828e+003;6.154608e-002
2.435756e+003;6.169240e-002
2.437685e+003;6.191817e-002
2.439613e+003;6.189796e-002
2.441542e+003;6.180722e-002
2.443470e+003;6.192276e-002
2.445399e+003;6.201065e-002
2.447327e+003;6.187259e-002
2.449256e+003;6.180825e-002
2.451185e+003;6.206626e-002
2.453113e+003;6.245388e-002
2.455042e+003;6.245070e-002
2.456970e+003;6.224993e-002
2.458899e+003;6.230707e-002
2.460827e+003;6.234229e-002
2.462756e+003;6.216341e-002
2.464684e+003;6.207857e-002
2.466613e+003;6.220351e-002
2.468542e+003;6.247634e-002
2.470470e+003;6.241930e-002
2.472398e+003;6.240331e-002
2.474327e+003;6.249520e-002
2.476256e+003;6.275202e-002
2.478184e+003;6.267821e-002
2.480113e+003;6.234730e-002
2.482041e+003;6.236693e-002
2.483970e+003;6.250580e-002
2.485898e+003;6.265452e-002
2.487827e+003;6.261899e-002
2.489755e+003;6.265310e-002
2.491684e+003;6.274926e-002
2.493613e+003;6.283514e-002
2.495541e+003;6.291376e-002
2.497470e+003;6.299856e-002
2.499398e+003;6.326100e-002
2.501327e+003;6.330980e-002
2.503255e+003;6.334534e-002
2.505184e+003;6.338169e-002
2.507112e+003;6.306855e-002
2.509041e+003;6.303419e-002
2.510969e+003;6.317228e-002
2.512898e+003;6.343364e-002
2.514827e+003;6.349887e-002
2.516755e+003;6.352702e-002
2.518684e+003;6.366442e-002
2.520612e+003;6.362936e-002
2.522541e+003;6.365755e-002
2.524469e+003;6.357247e-002
2.526398e+003;6.342075e-002
2.528326e+003;6.363626e-002
2.530255e+003;6.372803e-002
2.532184e+003;6.385329e-002
2.534112e+003;6.393905e-002
2.536041e+003;6.391118e-002
2.537969e+003;6.377554e-002
2.539898e+003;6.381971e-002
2.541826e+003;6.405561e-002
2.543755e+003;6.422914e-002
2.545683e+003;6.424328e-002
2.547612e+003;6.431723e-002
2.549541e+003;6.458593e-002
2.551469e+003;6.466264e-002
2.553397e+003;6.445324e-002
2.555326e+003;6.447638e-002
2.557255e+003;6.468995e-002
2.559183e+003;6.496045e-002
2.561112e+003;6.514358e-002
2.563040e+003;6.515574e-002
2.564969e+003;6.500390e-002
2.566897e+003;6.491844e-002
2.568826e+003;6.499008e-002
2.570754e+003;6.511097e-002
2.572683e+003;6.538802e-002
2.574612e+003;6.560092e-002
2.576540e+003;6.552447e-002
2.578469e+003;6.552829e-002
2.580397e+003;6.567596e-002
2.582326e+003;6.585935e-002
2.584254e+003;6.610385e-002
2.586183e+003;6.619421e-002
2.588111e+003;6.620467e-002
2.590040e+003;6.637450e-002
2.591969e+003;6.638563e-002
2.593897e+003;6.632957e-002
2.595826e+003;6.657998e-002
2.597754e+003;6.684857e-002
2.599683e+003;6.712909e-002
2.601611e+003;6.745901e-002
2.603540e+003;6.727630e-002
2.605468e+003;6.712232e-002
2.607397e+003;6.714726e-002
2.609325e+003;6.718908e-002
2.611254e+003;6.726601e-002
2.613183e+003;6.730044e-002
2.615111e+003;6.736451e-002
2.617040e+003;6.719240e-002
2.618968e+003;6.714417e-002
2.620897e+003;6.742190e-002
2.622825e+003;6.738189e-002
2.624754e+003;6.722125e-002
2.626682e+003;6.741017e-002
2.628611e+003;6.762206e-002
2.630540e+003;6.757982e-002
2.632468e+003;6.750956e-002
2.634396e+003;6.751788e-002
2.636325e+003;6.715051e-002
2.638254e+003;6.681978e-002
2.640182e+003;6.689426e-002
2.642111e+003;6.696630e-002
2.644039e+003;6.724226e-002
2.645968e+003;6.754471e-002
2.647896e+003;6.744001e-002
2.649825e+003;6.723487e-002
2.651753e+003;6.733967e-002
2.653682e+003;6.755017e-002
2.655611e+003;6.763410e-002
2.657539e+003;6.743475e-002
2.659468e+003;6.739315e-002
2.661396e+003;6.768668e-002
2.663325e+003;6.800265e-002
2.665253e+003;6.812795e-002
2.667182e+003;6.803858e-002
2.669110e+003;6.801842e-002
2.671039e+003;6.797870e-002
2.672968e+003;6.798719e-002
2.674896e+003;6.798847e-002
2.676825e+003;6.810322e-002
2.678753e+003;6.834185e-002
2.680682e+003;6.839223e-002
2.682610e+003;6.842628e-002
2.684539e+003;6.832599e-002
2.686467e+003;6.825100e-002
2.688396e+003;6.852156e-002
2.690324e+003;6.871671e-002
2.692253e+003;6.873240e-002
2.694182e+003;6.882206e-002
2.696110e+003;6.917784e-002
2.698039e+003;6.935031e-002
2.699967e+003;6.933076e-002
2.701896e+003;6.942577e-002
2.703824e+003;6.961215e-002
2.705753e+003;6.969655e-002
2.707681e+003;6.985538e-002
2.709610e+003;6.997495e-002
2.711539e+003;6.989811e-002
2.713467e+003;6.987429e-002
2.715396e+003;7.017041e-002
2.717324e+003;7.050885e-002
2.719253e+003;7.057635e-002
2.721181e+003;7.047408e-002
2.723110e+003;7.059324e-002
2.725038e+003;7.091145e-002
2.726967e+003;7.094781e-002
2.728896e+003;7.110710e-002
2.730824e+003;7.140506e-002
2.732752e+003;7.142057e-002
2.734681e+003;7.164485e-002
2.736610e+003;7.195875e-002
2.738538e+003;7.176233e-002
2.740467e+003;7.173368e-002
2.742395e+003;7.217219e-002
2.744324e+003;7.249510e-002
2.746252e+003;7.260168e-002
2.748181e+003;7.275021e-002
2.750109e+003;7.272134e-002
2.752038e+003;7.267171e-002
2.753967e+003;7.273912e-002
2.755895e+003;7.300729e-002
2.757824e+003;7.326035e-002
2.759752e+003;7.359140e-002
2.761681e+003;7.397188e-002
2.763609e+003;7.402673e-002
2.765538e+003;7.390168e-002
2.767466e+003;7.373760e-002
2.769395e+003;7.384724e-002
2.771323e+003;7.401938e-002
2.773252e+003;7.394647e-002
2.775181e+003;7.395688e-002
2.777109e+003;7.408264e-002
2.779038e+003;7.405667e-002
2.780966e+003;7.427513e-002
2.782895e+003;7.461619e-002
2.784823e+003;7.485803e-002
2.786752e+003;7.526599e-002
2.788680e+003;7.553268e-002
2.790609e+003;7.541603e-002
2.792538e+003;7.531174e-002
2.794466e+003;7.525622e-002
2.796395e+003;7.541252e-002
2.798323e+003;7.584364e-002
2.800252e+003;7.607231e-002
2.802180e+003;7.581492e-002
2.804109e+003;7.585082e-002
2.806037e+003;7.610919e-002
2.807966e+003;7.639468e-002
2.809895e+003;7.650038e-002
2.811823e+003;7.668255e-002
2.813751e+003;7.667231e-002
2.815680e+003;7.640512e-002
2.817609e+003;7.626437e-002
2.819537e+003;7.657558e-002
2.821466e+003;7.681591e-002
2.823394e+003;7.681785e-002
2.825323e+003;7.696629e-002
2.827251e+003;7.700086e-002
2.829180e+003;7.680777e-002
2.831108e+003;7.688037e-002
2.833037e+003;7.708921e-002
2.834966e+003;7.719496e-002
2.836894e+003;7.733410e-002
2.838823e+003;7.768729e-002
2.840751e+003;7.762476e-002
2.842680e+003;7.761894e-002
2.844608e+003;7.797890e-002
2.846537e+003;7.814507e-002
2.848465e+003;7.829119e-002
2.850394e+003;7.833392e-002
2.852323e+003;7.873415e-002
2.854251e+003;7.907043e-002
2.856180e+003;7.948256e-002
2.858108e+003;8.022669e-002
2.860037e+003;8.064331e-002
2.861965e+003;8.126604e-002
2.863894e+003;8.216069e-002
2.865822e+003;8.270514e-002
2.867751e+003;8.305631e-002
2.869679e+003;8.350714e-002
2.871608e+003;8.400523e-002
2.873536e+003;8.435334e-002
2.875465e+003;8.482917e-002
2.877394e+003;8.484142e-002
2.879322e+003;8.445810e-002
2.881251e+003;8.424967e-002
2.883179e+003;8.428656e-002
2.885108e+003;8.428744e-002
2.887036e+003;8.423088e-002
2.888965e+003;8.426568e-002
2.890893e+003;8.413278e-002
2.892822e+003;8.391116e-002
2.894750e+003;8.379509e-002
2.896679e+003;8.367383e-002
2.898608e+003;8.406284e-002
2.900536e+003;8.455945e-002
2.902465e+003;8.488005e-002
2.904393e+003;8.503944e-002
2.906322e+003;8.530914e-002
2.908250e+003;8.584278e-002
2.910179e+003;8.601562e-002
2.912107e+003;8.584318e-002
2.914036e+003;8.624373e-002
2.915965e+003;8.636563e-002
2.917893e+003;8.645215e-002
2.919822e+003;8.715624e-002
2.921750e+003;8.806198e-002
2.923679e+003;8.861856e-002
2.925607e+003;8.933683e-002
2.927536e+003;9.044423e-002
2.929464e+003;9.104759e-002
2.931393e+003;9.149343e-002
2.933322e+003;9.180764e-002
2.935250e+003;9.187969e-002
2.937178e+003;9.172189e-002
2.939107e+003;9.144925e-002
2.941036e+003;9.099251e-002
2.942964e+003;9.017222e-002
2.944893e+003;8.951499e-002
2.946821e+003;8.885707e-002
2.948750e+003;8.853141e-002
2.950678e+003;8.856984e-002
2.952607e+003;8.836520e-002
2.954535e+003;8.814190e-002
2.956464e+003;8.827842e-002
2.958393e+003;8.847072e-002
2.960321e+003;8.863587e-002
2.962250e+003;8.906504e-002
2.964178e+003;8.948298e-002
2.966107e+003;8.981767e-002
2.968035e+003;9.000657e-002
2.969964e+003;9.005361e-002
2.971892e+003;9.012871e-002
2.973821e+003;9.020253e-002
2.975750e+003;9.031621e-002
2.977678e+003;9.040441e-002
2.979607e+003;9.043334e-002
2.981535e+003;9.005064e-002
2.983464e+003;8.929093e-002
2.985392e+003;8.892046e-002
2.987321e+003;8.859447e-002
2.989249e+003;8.807765e-002
2.991178e+003;8.758245e-002
2.993106e+003;8.710987e-002
2.995035e+003;8.718520e-002
2.996964e+003;8.708946e-002
2.998892e+003;8.662928e-002
3.000821e+003;8.627424e-002
3.002749e+003;8.616154e-002
3.004678e+003;8.603618e-002
3.006606e+003;8.587953e-002
3.008535e+003;8.566557e-002
3.010463e+003;8.559999e-002
3.012392e+003;8.572967e-002
3.014321e+003;8.601453e-002
3.016249e+003;8.629223e-002
3.018177e+003;8.662272e-002
3.020106e+003;8.681251e-002
3.022035e+003;8.672082e-002
3.023963e+003;8.696647e-002
3.025892e+003;8.758536e-002
3.027820e+003;8.781771e-002
3.029749e+003;8.793839e-002
3.031677e+003;8.849444e-002
3.033606e+003;8.882231e-002
3.035534e+003;8.913659e-002
3.037463e+003;8.997726e-002
3.039392e+003;9.072408e-002
3.041320e+003;9.114952e-002
3.043249e+003;9.160838e-002
3.045177e+003;9.177330e-002
3.047106e+003;9.194786e-002
3.049034e+003;9.245373e-002
3.050963e+003;9.307196e-002
3.052891e+003;9.391034e-002
3.054820e+003;9.449345e-002
3.056749e+003;9.500770e-002
3.058677e+003;9.550963e-002
3.060606e+003;9.599276e-002
3.062534e+003;9.665235e-002
3.064463e+003;9.678151e-002
3.066391e+003;9.671399e-002
3.068320e+003;9.705608e-002
3.070248e+003;9.758407e-002
3.072177e+003;9.749149e-002
3.074105e+003;9.720866e-002
3.076034e+003;9.698221e-002
3.077963e+003;9.664834e-002
3.079891e+003;9.645011e-002
3.081820e+003;9.639785e-002
3.083748e+003;9.607906e-002
3.085677e+003;9.616762e-002
3.087605e+003;9.627389e-002
3.089534e+003;9.593581e-002
3.091462e+003;9.541535e-002
3.093391e+003;9.498142e-002
3.095320e+003;9.478264e-002
3.097248e+003;9.438708e-002
3.099177e+003;9.400281e-002
3.101105e+003;9.394168e-002
3.103034e+003;9.358707e-002
3.104962e+003;9.316290e-002
3.106891e+003;9.293962e-002
3.108819e+003;9.282784e-002
3.110748e+003;9.246951e-002
3.112677e+003;9.202202e-002
3.114605e+003;9.178366e-002
3.116533e+003;9.164116e-002
3.118462e+003;9.166984e-002
3.120391e+003;9.166779e-002
3.122319e+003;9.150112e-002
3.124248e+003;9.141571e-002
3.126176e+003;9.144295e-002
3.128105e+003;9.147653e-002
3.130033e+003;9.153683e-002
3.131962e+003;9.161092e-002
3.133890e+003;9.183437e-002
3.135819e+003;9.203149e-002
3.137748e+003;9.199594e-002
3.139676e+003;9.216854e-002
3.141605e+003;9.260195e-002
3.143533e+003;9.313247e-002
3.145462e+003;9.344427e-002
3.147390e+003;9.360820e-002
3.149319e+003;9.423145e-002
3.151247e+003;9.468535e-002
3.153176e+003;9.518138e-002
3.155104e+003;9.583573e-002
3.157033e+003;9.651834e-002
3.158962e+003;9.719572e-002
3.160890e+003;9.768542e-002
3.162819e+003;9.769372e-002
3.164747e+003;9.808808e-002
3.166676e+003;9.889285e-002
3.168604e+003;9.958795e-002
3.170533e+003;1.000765e-001
3.172461e+003;1.005988e-001
3.174390e+003;1.012905e-001
3.176319e+003;1.020627e-001
3.178247e+003;1.032128e-001
3.180176e+003;1.043193e-001
3.182104e+003;1.050613e-001
3.184033e+003;1.057051e-001
3.185961e+003;1.062349e-001
3.187890e+003;1.071883e-001
3.189818e+003;1.080603e-001
3.191747e+003;1.089388e-001
3.193676e+003;1.100911e-001
3.195604e+003;1.110828e-001
3.197532e+003;1.116626e-001
3.199461e+003;1.124791e-001
3.201390e+003;1.137446e-001
3.203318e+003;1.144547e-001
3.205247e+003;1.151085e-001
3.207175e+003;1.160075e-001
3.209104e+003;1.169521e-001
3.211032e+003;1.182876e-001
3.212961e+003;1.194497e-001
3.214889e+003;1.203903e-001
3.216818e+003;1.214203e-001
3.218747e+003;1.223183e-001
3.220675e+003;1.231992e-001
3.222604e+003;1.245086e-001
3.224532e+003;1.259858e-001
3.226461e+003;1.269249e-001
3.228389e+003;1.276070e-001
3.230318e+003;1.289912e-001
3.232246e+003;1.307420e-001
3.234175e+003;1.319500e-001
3.236104e+003;1.330259e-001
3.238032e+003;1.343517e-001
3.239961e+003;1.358844e-001
3.241889e+003;1.373442e-001
3.243818e+003;1.389076e-001
3.245746e+003;1.405517e-001
3.247675e+003;1.419669e-001
3.249603e+003;1.437120e-001
3.251532e+003;1.455223e-001
3.253460e+003;1.473511e-001
3.255389e+003;1.496415e-001
3.257318e+003;1.515940e-001
3.259246e+003;1.539302e-001
3.261175e+003;1.559889e-001
3.263103e+003;1.575851e-001
3.265032e+003;1.593549e-001
3.266960e+003;1.613314e-001
3.268889e+003;1.633733e-001
3.270817e+003;1.652407e-001
3.272746e+003;1.665974e-001
3.274675e+003;1.677835e-001
3.276603e+003;1.689989e-001
3.278531e+003;1.699135e-001
3.280460e+003;1.701687e-001
3.282389e+003;1.701040e-001
3.284317e+003;1.698986e-001
3.286246e+003;1.693152e-001
3.288174e+003;1.682125e-001
3.290103e+003;1.666735e-001
3.292031e+003;1.652846e-001
3.293960e+003;1.635626e-001
3.295888e+003;1.616345e-001
3.297817e+003;1.596779e-001
3.299746e+003;1.572887e-001
3.301674e+003;1.548510e-001
3.303603e+003;1.523447e-001
3.305531e+003;1.501216e-001
3.307460e+003;1.478879e-001
3.309388e+003;1.454442e-001
3.311317e+003;1.431254e-001
3.313245e+003;1.406303e-001
3.315174e+003;1.381210e-001
3.317103e+003;1.361063e-001
3.319031e+003;1.339494e-001
3.320960e+003;1.314031e-001
3.322888e+003;1.290896e-001
3.324817e+003;1.273535e-001
3.326745e+003;1.254917e-001
3.328674e+003;1.235022e-001
3.330602e+003;1.216593e-001
3.332531e+003;1.196788e-001
3.334459e+003;1.178505e-001
3.336388e+003;1.159830e-001
3.338317e+003;1.145129e-001
3.340245e+003;1.132104e-001
3.342174e+003;1.117943e-001
3.344102e+003;1.104889e-001
3.346031e+003;1.091294e-001
3.347959e+003;1.076729e-001
3.349888e+003;1.063871e-001
3.351816e+003;1.053604e-001
3.353745e+003;1.044542e-001
3.355674e+003;1.034313e-001
3.357602e+003;1.025872e-001
3.359531e+003;1.017962e-001
3.361459e+003;1.006067e-001
3.363388e+003;9.983502e-002
3.365316e+003;9.948178e-002
3.367245e+003;9.891610e-002
3.369173e+003;9.805257e-002
3.371102e+003;9.734296e-002
3.373031e+003;9.653737e-002
3.374959e+003;9.581879e-002
3.376887e+003;9.530057e-002
3.378816e+003;9.456331e-002
3.380745e+003;9.404560e-002
3.382673e+003;9.356817e-002
3.384602e+003;9.301962e-002
3.386530e+003;9.259248e-002
3.388459e+003;9.234900e-002
3.390387e+003;9.191126e-002
3.392316e+003;9.092114e-002
3.394244e+003;8.993275e-002
3.396173e+003;8.942236e-002
3.398102e+003;8.870552e-002
3.400030e+003;8.814125e-002
3.401959e+003;8.819816e-002
3.403887e+003;8.793466e-002
3.405816e+003;8.736736e-002
3.407744e+003;8.681656e-002
3.409673e+003;8.613960e-002
3.411601e+003;8.585009e-002
3.413530e+003;8.536443e-002
3.415458e+003;8.458409e-002
3.417387e+003;8.395803e-002
3.419316e+003;8.340651e-002
3.421244e+003;8.292322e-002
3.423173e+003;8.222679e-002
3.425101e+003;8.155907e-002
3.427030e+003;8.124598e-002
3.428958e+003;8.077734e-002
3.430887e+003;8.025938e-002
3.432815e+003;8.016320e-002
3.434744e+003;8.005327e-002
3.436673e+003;7.932189e-002
3.438601e+003;7.894261e-002
3.440530e+003;7.860286e-002
3.442458e+003;7.792304e-002
3.444387e+003;7.798469e-002
3.446315e+003;7.823239e-002
3.448244e+003;7.773951e-002
3.450172e+003;7.709048e-002
3.452101e+003;7.658886e-002
3.454030e+003;7.639445e-002
3.455958e+003;7.651635e-002
3.457886e+003;7.654041e-002
3.459815e+003;7.606738e-002
3.461744e+003;7.517686e-002
3.463672e+003;7.475483e-002
3.465601e+003;7.512707e-002
3.467529e+003;7.521386e-002
3.469458e+003;7.463016e-002
3.471386e+003;7.430906e-002
3.473315e+003;7.420464e-002
3.475243e+003;7.367823e-002
3.477172e+003;7.342661e-002
3.479101e+003;7.334151e-002
3.481029e+003;7.334104e-002
3.482958e+003;7.338930e-002
3.484886e+003;7.317090e-002
3.486815e+003;7.292274e-002
3.488743e+003;7.288222e-002
3.490672e+003;7.264801e-002
3.492600e+003;7.249114e-002
3.494529e+003;7.222498e-002
3.496458e+003;7.140557e-002
3.498386e+003;7.119535e-002
3.500315e+003;7.137382e-002
3.502243e+003;7.125535e-002
3.504172e+003;7.095171e-002
3.506100e+003;7.037378e-002
3.508029e+003;7.007617e-002
3.509957e+003;7.026303e-002
3.511886e+003;6.999126e-002
3.513814e+003;6.988636e-002
3.515743e+003;6.997425e-002
3.517672e+003;6.988204e-002
3.519600e+003;6.978631e-002
3.521529e+003;6.954599e-002
3.523457e+003;6.895805e-002
3.525386e+003;6.857526e-002
3.527314e+003;6.856001e-002
3.529243e+003;6.845235e-002
3.531171e+003;6.833231e-002
3.533100e+003;6.786991e-002
3.535029e+003;6.724125e-002
3.536957e+003;6.706277e-002
3.538885e+003;6.683624e-002
3.540814e+003;6.674512e-002
3.542743e+003;6.627190e-002
3.544671e+003;6.563915e-002
3.546600e+003;6.558574e-002
3.548528e+003;6.521145e-002
3.550457e+003;6.483926e-002
3.552385e+003;6.504716e-002
3.554314e+003;6.500140e-002
3.556242e+003;6.463400e-002
3.558171e+003;6.428266e-002
3.560100e+003;6.366810e-002
3.562028e+003;6.302775e-002
3.563957e+003;6.296007e-002
3.565885e+003;6.282618e-002
3.567814e+003;6.274831e-002
3.569742e+003;6.277622e-002
3.571671e+003;6.242985e-002
3.573599e+003;6.232489e-002
3.575528e+003;6.260224e-002
3.577457e+003;6.230072e-002
3.579385e+003;6.170764e-002
3.581314e+003;6.157406e-002
3.583242e+003;6.144419e-002
3.585171e+003;6.090172e-002
3.587099e+003;6.055601e-002
3.589028e+003;6.040150e-002
3.590956e+003;6.013386e-002
3.592885e+003;5.971348e-002
3.594813e+003;5.947688e-002
3.596742e+003;5.964144e-002
3.598671e+003;5.959085e-002
3.600599e+003;5.924129e-002
3.602528e+003;5.890787e-002
3.604456e+003;5.889641e-002
3.606385e+003;5.864838e-002
3.608313e+003;5.800100e-002
3.610242e+003;5.773101e-002
3.612170e+003;5.767681e-002
3.614099e+003;5.730501e-002
3.616028e+003;5.681605e-002
3.617956e+003;5.667298e-002
3.619885e+003;5.670579e-002
3.621813e+003;5.654087e-002
3.623742e+003;5.617870e-002
3.625670e+003;5.578237e-002
3.627599e+003;5.582524e-002
3.629527e+003;5.610853e-002
3.631456e+003;5.572706e-002
3.633385e+003;5.513826e-002
3.635313e+003;5.490933e-002
3.637241e+003;5.464745e-002
3.639170e+003;5.412702e-002
3.641099e+003;5.406221e-002
3.643027e+003;5.414744e-002
3.644956e+003;5.380560e-002
3.646884e+003;5.313109e-002
3.648813e+003;5.277973e-002
3.650741e+003;5.280577e-002
3.652670e+003;5.300372e-002
3.654598e+003;5.298354e-002
3.656527e+003;5.221930e-002
3.658456e+003;5.152273e-002
3.660384e+003;5.180442e-002
3.662313e+003;5.184829e-002
3.664241e+003;5.113070e-002
3.666170e+003;5.066216e-002
3.668098e+003;5.063121e-002
3.670027e+003;5.050904e-002
3.671955e+003;5.022294e-002
3.673884e+003;5.000700e-002
3.675813e+003;4.956708e-002
3.677741e+003;4.934025e-002
3.679669e+003;4.929255e-002
3.681598e+003;4.886473e-002
3.683527e+003;4.826001e-002
3.685455e+003;4.781841e-002
3.687384e+003;4.748511e-002
3.689312e+003;4.722811e-002
3.691241e+003;4.694575e-002
3.693169e+003;4.693139e-002
3.695098e+003;4.678475e-002
3.697026e+003;4.661873e-002
3.698955e+003;4.660806e-002
3.700884e+003;4.639822e-002
3.702812e+003;4.621365e-002
3.704741e+003;4.566796e-002
3.706669e+003;4.566329e-002
3.708598e+003;4.607227e-002
3.710526e+003;4.595870e-002
3.712455e+003;4.540292e-002
3.714383e+003;4.494040e-002
3.716312e+003;4.510528e-002
3.718240e+003;4.526404e-002
3.720169e+003;4.480134e-002
3.722098e+003;4.445162e-002
3.724026e+003;4.449130e-002
3.725955e+003;4.432020e-002
3.727883e+003;4.407093e-002
3.729812e+003;4.426755e-002
3.731740e+003;4.436570e-002
3.733669e+003;4.434185e-002
3.735597e+003;4.430380e-002
3.737526e+003;4.399180e-002
3.739455e+003;4.410497e-002
3.741383e+003;4.460772e-002
3.743312e+003;4.463838e-002
3.745240e+003;4.393497e-002
3.747169e+003;4.375511e-002
3.749097e+003;4.367933e-002
3.751026e+003;4.338225e-002
3.752954e+003;4.313594e-002
3.754883e+003;4.351906e-002
3.756812e+003;4.393145e-002
3.758740e+003;4.376559e-002
3.760668e+003;4.336083e-002
3.762597e+003;4.312507e-002
3.764526e+003;4.332360e-002
3.766454e+003;4.352826e-002
3.768383e+003;4.330698e-002
3.770311e+003;4.334480e-002
3.772240e+003;4.388075e-002
3.774168e+003;4.387474e-002
3.776097e+003;4.364889e-002
3.778025e+003;4.367413e-002
3.779954e+003;4.409657e-002
3.781883e+003;4.413438e-002
3.783811e+003;4.383383e-002
3.785740e+003;4.382742e-002
3.787668e+003;4.365706e-002
3.789597e+003;4.327267e-002
3.791525e+003;4.344633e-002
3.793454e+003;4.381998e-002
3.795382e+003;4.385652e-002
3.797311e+003;4.396702e-002
3.799240e+003;4.374452e-002
3.801168e+003;4.317996e-002
3.803097e+003;4.322699e-002
3.805025e+003;4.344765e-002
3.806954e+003;4.329991e-002
3.808882e+003;4.335438e-002
3.810811e+003;4.374152e-002
3.812739e+003;4.382724e-002
3.814668e+003;4.386613e-002
3.816596e+003;4.392423e-002
3.818525e+003;4.392804e-002
3.820454e+003;4.396797e-002
3.822382e+003;4.380228e-002
3.824311e+003;4.396107e-002
3.826239e+003;4.403826e-002
3.828168e+003;4.383482e-002
3.830096e+003;4.377846e-002
3.832025e+003;4.381272e-002
3.833953e+003;4.413537e-002
3.835882e+003;4.471120e-002
3.837811e+003;4.471249e-002
3.839739e+003;4.410119e-002
3.841667e+003;4.375207e-002
3.843596e+003;4.401699e-002
3.845525e+003;4.464543e-002
3.847453e+003;4.505216e-002
3.849382e+003;4.485666e-002
3.851310e+003;4.440207e-002
3.853239e+003;4.421424e-002
3.855167e+003;4.437036e-002
3.857096e+003;4.446160e-002
3.859024e+003;4.484733e-002
3.860953e+003;4.506106e-002
3.862882e+003;4.491097e-002
3.864810e+003;4.491104e-002
3.866739e+003;4.499858e-002
3.868667e+003;4.511682e-002
3.870596e+003;4.495382e-002
3.872524e+003;4.462134e-002
3.874453e+003;4.477923e-002
3.876381e+003;4.524977e-002
3.878310e+003;4.542587e-002
3.880239e+003;4.543812e-002
3.882167e+003;4.550954e-002
3.884096e+003;4.529136e-002
3.886024e+003;4.497109e-002
3.887953e+003;4.509513e-002
3.889881e+003;4.541046e-002
3.891810e+003;4.577700e-002
3.893738e+003;4.582951e-002
3.895667e+003;4.586298e-002
3.897595e+003;4.552514e-002
3.899524e+003;4.514987e-002
3.901453e+003;4.545766e-002
3.903381e+003;4.581835e-002
3.905310e+003;4.608689e-002
3.907238e+003;4.615812e-002
3.909167e+003;4.610145e-002
3.911095e+003;4.648362e-002
3.913024e+003;4.675066e-002
3.914952e+003;4.656211e-002
3.916881e+003;4.629898e-002
3.918810e+003;4.639133e-002
3.920738e+003;4.637761e-002
3.922667e+003;4.628029e-002
3.924595e+003;4.621015e-002
3.926524e+003;4.618060e-002
3.928452e+003;4.616541e-002
3.930381e+003;4.627653e-002
3.932309e+003;4.647993e-002
3.934238e+003;4.702351e-002
3.936167e+003;4.721012e-002
3.938095e+003;4.684410e-002
3.940023e+003;4.646190e-002
3.941952e+003;4.652308e-002
3.943881e+003;4.688348e-002
3.945809e+003;4.693417e-002
3.947738e+003;4.690888e-002
3.949666e+003;4.706206e-002
3.951595e+003;4.699678e-002
3.953523e+003;4.700985e-002
3.955452e+003;4.728574e-002
3.957380e+003;4.734053e-002
3.959309e+003;4.719110e-002
3.961238e+003;4.733259e-002
3.963166e+003;4.762477e-002
3.965095e+003;4.723114e-002
3.967023e+003;4.693295e-002
3.968952e+003;4.725729e-002
3.970880e+003;4.776785e-002
3.972809e+003;4.761010e-002
3.974737e+003;4.727931e-002
3.976666e+003;4.717414e-002
3.978594e+003;4.721865e-002
3.980523e+003;4.754883e-002
3.982452e+003;4.782552e-002
3.984380e+003;4.771541e-002
3.986309e+003;4.793055e-002
3.988237e+003;4.829567e-002
3.990166e+003;4.809837e-002
3.992094e+003;4.766127e-002
3.994023e+003;4.769218e-002
3.995951e+003;4.763453e-002
3.997880e+003;4.771744e-002
3.999809e+003;4.737727e-002
4.001737e+003;0.000000e+000
