3.992094e+002;0.000000e+000
4.011380e+002;0.000000e+000
4.030665e+002;0.000000e+000
4.049951e+002;0.000000e+000
4.069236e+002;0.000000e+000
4.088522e+002;0.000000e+000
4.107807e+002;0.000000e+000
4.127093e+002;0.000000e+000
4.146378e+002;0.000000e+000
4.165664e+002;0.000000e+000
4.184949e+002;0.000000e+000
4.204235e+002;0.000000e+000
4.223520e+002;0.000000e+000
4.242806e+002;0.000000e+000
4.262091e+002;0.000000e+000
4.281377e+002;0.000000e+000
4.300662e+002;0.000000e+000
4.319948e+002;0.000000e+000
4.339233e+002;0.000000e+000
4.358519e+002;0.000000e+000
4.377804e+002;0.000000e+000
4.397090e+002;0.000000e+000
4.416375e+002;0.000000e+000
4.435660e+002;0.000000e+000
4.454946e+002;0.000000e+000
4.474232e+002;0.000000e+000
4.493517e+002;0.000000e+000
4.512802e+002;0.000000e+000
4.532088e+002;0.000000e+000
4.551373e+002;0.000000e+000
4.570659e+002;0.000000e+000
4.589944e+002;0.000000e+000
4.609230e+002;0.000000e+000
4.628515e+002;0.000000e+000
4.647801e+002;0.000000e+000
4.667086e+002;0.000000e+000
4.686372e+002;0.000000e+000
4.705657e+002;0.000000e+000
4.724943e+002;0.000000e+000
4.744228e+002;0.000000e+000
4.763513e+002;0.000000e+000
4.782799e+002;0.000000e+000
4.802085e+002;0.000000e+000
4.821370e+002;0.000000e+000
4.840656e+002;0.000000e+000
4.859941e+002;0.000000e+000
4.879226e+002;0.000000e+000
4.898512e+002;0.000000e+000
4.917798e+002;0.000000e+000
4.937083e+002;0.000000e+000
4.956368e+002;0.000000e+000
4.975654e+002;0.000000e+000
4.994939e+002;0.000000e+000
5.014225e+002;0.000000e+000
5.033510e+002;0.000000e+000
5.052796e+002;0.000000e+000
5.072081e+002;0.000000e+000
5.091367e+002;0.000000e+000
5.110652e+002;0.000000e+000
5.129938e+002;0.000000e+000
5.149223e+002;0.000000e+000
5.168509e+002;0.000000e+000
5.187794e+002;0.000000e+000
5.207079e+002;0.000000e+000
5.226365e+002;0.000000e+000
5.245651e+002;0.000000e+000
5.264936e+002;0.000000e+000
5.284222e+002;0.000000e+000
5.303507e+002;0.000000e+000
5.322792e+002;0.000000e+000
5.342078e+002;0.000000e+000
5.361364e+002;0.000000e+000
5.380649e+002;0.000000e+000
5.399935e+002;0.000000e+000
5.419220e+002;0.000000e+000
5.438505e+002;0.000000e+000
5.457791e+002;0.000000e+000
5.477076e+002;0.000000e+000
5.496362e+002;0.000000e+000
5.515648e+002;0.000000e+000
5.534933e+002;0.000000e+000
5.554218e+002;0.000000e+000
5.573504e+002;0.000000e+000
5.592789e+002;0.000000e+000
5.612075e+002;0.000000e+000
5.631360e+002;0.000000e+000
5.650646e+002;0.000000e+000
5.669931e+002;0.000000e+000
5.689217e+002;0.000000e+000
5.708502e+002;0.000000e+000
5.727787e+002;0.000000e+000
5.747073e+002;0.000000e+000
5.766359e+002;0.000000e+000
5.785644e+002;0.000000e+000
5.804930e+002;0.000000e+000
5.824215e+002;0.000000e+000
5.843500e+002;0.000000e+000
5.862786e+002;0.000000e+000
5.882072e+002;0.000000e+000
5.901357e+002;0.000000e+000
5.920643e+002;0.000000e+000
5.939928e+002;0.000000e+000
5.959213e+002;0.000000e+000
5.978499e+002;0.000000e+000
5.997784e+002;2.740147e-001
6.017070e+002;2.802305e-001
6.036355e+002;2.804826e-001
6.055641e+002;2.830457e-001
6.074926e+002;2.885852e-001
6.094211e+002;2.922203e-001
6.113497e+002;2.936657e-001
6.132783e+002;2.922548e-001
6.152068e+002;2.874981e-001
6.171354e+002;2.866060e-001
6.190639e+002;2.868536e-001
6.209924e+002;2.856039e-001
6.229210e+002;2.873106e-001
6.248495e+002;2.887151e-001
6.267781e+002;2.883131e-001
6.287067e+002;2.847230e-001
6.306352e+002;2.814986e-001
6.325637e+002;2.800720e-001
6.344923e+002;2.775472e-001
6.364208e+002;2.762615e-001
6.383494e+002;2.781013e-001
6.402780e+002;2.740615e-001
6.422065e+002;2.676696e-001
6.441350e+002;2.650025e-001
6.460636e+002;2.641732e-001
6.479921e+002;2.641560e-001
6.499207e+002;2.646391e-001
6.518492e+002;2.671110e-001
6.537778e+002;2.668476e-001
6.557063e+002;2.631309e-001
6.576349e+002;2.620277e-001
6.595634e+002;2.610092e-001
6.614919e+002;2.595817e-001
6.634205e+002;2.618385e-001
6.653491e+002;2.651041e-001
6.672776e+002;2.658264e-001
6.692062e+002;2.645886e-001
6.711347e+002;2.641537e-001
6.730632e+002;2.647402e-001
6.749918e+002;2.628650e-001
6.769203e+002;2.613333e-001
6.788489e+002;2.608250e-001
6.807775e+002;2.607676e-001
6.827060e+002;2.614803e-001
6.846345e+002;2.621444e-001
6.865631e+002;2.616738e-001
6.884916e+002;2.584918e-001
6.904202e+002;2.570761e-001
6.923488e+002;2.570783e-001
6.942773e+002;2.560930e-001
6.962058e+002;2.548423e-001
6.981344e+002;2.527689e-001
7.000629e+002;2.496018e-001
7.019915e+002;2.473433e-001
7.039200e+002;2.458597e-001
7.058486e+002;2.434165e-001
7.077771e+002;2.406501e-001
7.097057e+002;2.376801e-001
7.116342e+002;2.337287e-001
7.135627e+002;2.306265e-001
7.154913e+002;2.282705e-001
7.174199e+002;2.260369e-001
7.193484e+002;2.240528e-001
7.212770e+002;2.201804e-001
7.232055e+002;2.160282e-001
7.251340e+002;2.133733e-001
7.270626e+002;2.109075e-001
7.289911e+002;2.083431e-001
7.309197e+002;2.054381e-001
7.328483e+002;2.016842e-001
7.347768e+002;1.978546e-001
7.367053e+002;1.945392e-001
7.386339e+002;1.918498e-001
7.405624e+002;1.890119e-001
7.424910e+002;1.858224e-001
7.444196e+002;1.819039e-001
7.463481e+002;1.783890e-001
7.482766e+002;1.767686e-001
7.502052e+002;1.752363e-001
7.521337e+002;1.728547e-001
7.540623e+002;1.703074e-001
7.559908e+002;1.685569e-001
7.579194e+002;1.675660e-001
7.598479e+002;1.658719e-001
7.617765e+002;1.640749e-001
7.637050e+002;1.624787e-001
7.656335e+002;1.606452e-001
7.675621e+002;1.596402e-001
7.694907e+002;1.579770e-001
7.714192e+002;1.553976e-001
7.733478e+002;1.539433e-001
7.752763e+002;1.528134e-001
7.772048e+002;1.515429e-001
7.791334e+002;1.496175e-001
7.810620e+002;1.473960e-001
7.829905e+002;1.460607e-001
7.849191e+002;1.453601e-001
7.868476e+002;1.436220e-001
7.887761e+002;1.422804e-001
7.907047e+002;1.413659e-001
7.926332e+002;1.399034e-001
7.945618e+002;1.387548e-001
7.964903e+002;1.378651e-001
7.984189e+002;1.367138e-001
8.003474e+002;1.357429e-001
8.022759e+002;1.354564e-001
8.042045e+002;1.361255e-001
8.061331e+002;1.365502e-001
8.080616e+002;1.369885e-001
8.099902e+002;1.376937e-001
8.119187e+002;1.380566e-001
8.138472e+002;1.374389e-001
8.157758e+002;1.373245e-001
8.177043e+002;1.370877e-001
8.196329e+002;1.377762e-001
8.215615e+002;1.393386e-001
8.234900e+002;1.399641e-001
8.254185e+002;1.402222e-001
8.273471e+002;1.399231e-001
8.292756e+002;1.394401e-001
8.312042e+002;1.388714e-001
8.331328e+002;1.374068e-001
8.350613e+002;1.356443e-001
8.369898e+002;1.338669e-001
8.389184e+002;1.317660e-001
8.408469e+002;1.301395e-001
8.427755e+002;1.296725e-001
8.447040e+002;1.302671e-001
8.466326e+002;1.309374e-001
8.485611e+002;1.312154e-001
8.504897e+002;1.315928e-001
8.524182e+002;1.318639e-001
8.543467e+002;1.306265e-001
8.562753e+002;1.281927e-001
8.582039e+002;1.258000e-001
8.601324e+002;1.238157e-001
8.620610e+002;1.222119e-001
8.639895e+002;1.209964e-001
8.659180e+002;1.199583e-001
8.678466e+002;1.194534e-001
8.697751e+002;1.195958e-001
8.717037e+002;1.195276e-001
8.736323e+002;1.196930e-001
8.755608e+002;1.198243e-001
8.774893e+002;1.196455e-001
8.794179e+002;1.196971e-001
8.813464e+002;1.196187e-001
8.832750e+002;1.196642e-001
8.852036e+002;1.196755e-001
8.871321e+002;1.193641e-001
8.890606e+002;1.190241e-001
8.909892e+002;1.189206e-001
8.929177e+002;1.191999e-001
8.948463e+002;1.192732e-001
8.967748e+002;1.195329e-001
8.987034e+002;1.194765e-001
9.006319e+002;1.188490e-001
9.025605e+002;1.182345e-001
9.044890e+002;1.182538e-001
9.064175e+002;1.183965e-001
9.083461e+002;1.183991e-001
9.102747e+002;1.188759e-001
9.122032e+002;1.199126e-001
9.141318e+002;1.209789e-001
9.160603e+002;1.220153e-001
9.179888e+002;1.232877e-001
9.199174e+002;1.248642e-001
9.218459e+002;1.264475e-001
9.237745e+002;1.279645e-001
9.257031e+002;1.291550e-001
9.276316e+002;1.301273e-001
9.295601e+002;1.307456e-001
9.314887e+002;1.308294e-001
9.334172e+002;1.309558e-001
9.353458e+002;1.315538e-001
9.372744e+002;1.321358e-001
9.392029e+002;1.321943e-001
9.411314e+002;1.322781e-001
9.430600e+002;1.328021e-001
9.449885e+002;1.334410e-001
9.469171e+002;1.341336e-001
9.488456e+002;1.351166e-001
9.507742e+002;1.362353e-001
9.527027e+002;1.373313e-001
9.546313e+002;1.382598e-001
9.565598e+002;1.392484e-001
9.584883e+002;1.406739e-001
9.604169e+002;1.423756e-001
9.623455e+002;1.443802e-001
9.642740e+002;1.463314e-001
9.662026e+002;1.480765e-001
9.681311e+002;1.502965e-001
9.700596e+002;1.525300e-001
9.719882e+002;1.544287e-001
9.739167e+002;1.555709e-001
9.758453e+002;1.558470e-001
9.777739e+002;1.555722e-001
9.797024e+002;1.547625e-001
9.816309e+002;1.538476e-001
9.835595e+002;1.537178e-001
9.854880e+002;1.543050e-001
9.874166e+002;1.555756e-001
9.893452e+002;1.577847e-001
9.912737e+002;1.602442e-001
9.932022e+002;1.620037e-001
9.951307e+002;1.629089e-001
9.970593e+002;1.632440e-001
9.989879e+002;1.633433e-001
1.000916e+003;1.627447e-001
1.002845e+003;1.616286e-001
1.004773e+003;1.606007e-001
1.006702e+003;1.598274e-001
1.008631e+003;1.594072e-001
1.010559e+003;1.589124e-001
1.012488e+003;1.581814e-001
1.014416e+003;1.574246e-001
1.016345e+003;1.564216e-001
1.018273e+003;1.557362e-001
1.020202e+003;1.562019e-001
1.022130e+003;1.579458e-001
1.024059e+003;1.607314e-001
1.025988e+003;1.639835e-001
1.027916e+003;1.668791e-001
1.029845e+003;1.695415e-001
1.031773e+003;1.719117e-001
1.033702e+003;1.744635e-001
1.035630e+003;1.763225e-001
1.037559e+003;1.781013e-001
1.039487e+003;1.799091e-001
1.041416e+003;1.809275e-001
1.043344e+003;1.809967e-001
1.045273e+003;1.814171e-001
1.047202e+003;1.822945e-001
1.049130e+003;1.830263e-001
1.051059e+003;1.839437e-001
1.052987e+003;1.859067e-001
1.054916e+003;1.885398e-001
1.056844e+003;1.907585e-001
1.058773e+003;1.922102e-001
1.060701e+003;1.940094e-001
1.062630e+003;1.954882e-001
1.064558e+003;1.962502e-001
1.066487e+003;1.963612e-001
1.068416e+003;1.959424e-001
1.070344e+003;1.954411e-001
1.072273e+003;1.941377e-001
1.074201e+003;1.921172e-001
1.076130e+003;1.894554e-001
1.078058e+003;1.860810e-001
1.079987e+003;1.825870e-001
1.081915e+003;1.790514e-001
1.083844e+003;1.757135e-001
1.085773e+003;1.724626e-001
1.087701e+003;1.695863e-001
1.089630e+003;1.671758e-001
1.091558e+003;1.646280e-001
1.093487e+003;1.637152e-001
1.095415e+003;1.635898e-001
1.097344e+003;1.628459e-001
1.099272e+003;1.621817e-001
1.101201e+003;1.623026e-001
1.103129e+003;1.627923e-001
1.105058e+003;1.625968e-001
1.106987e+003;1.620039e-001
1.108915e+003;1.610502e-001
1.110844e+003;1.597326e-001
1.112772e+003;1.586870e-001
1.114701e+003;1.583904e-001
1.116629e+003;1.581574e-001
1.118558e+003;1.577427e-001
1.120486e+003;1.579474e-001
1.122415e+003;1.584810e-001
1.124344e+003;1.588093e-001
1.126272e+003;1.590322e-001
1.128201e+003;1.593187e-001
1.130129e+003;1.600154e-001
1.132058e+003;1.608046e-001
1.133986e+003;1.617255e-001
1.135915e+003;1.632500e-001
1.137843e+003;1.649099e-001
1.139772e+003;1.662309e-001
1.141700e+003;1.678703e-001
1.143629e+003;1.698811e-001
1.145557e+003;1.721902e-001
1.147486e+003;1.745469e-001
1.149415e+003;1.763394e-001
1.151343e+003;1.778477e-001
1.153272e+003;1.794950e-001
1.155200e+003;1.816000e-001
1.157129e+003;1.834876e-001
1.159057e+003;1.843909e-001
1.160986e+003;1.852178e-001
1.162914e+003;1.861942e-001
1.164843e+003;1.869525e-001
1.166771e+003;1.877618e-001
1.168700e+003;1.890506e-001
1.170629e+003;1.899545e-001
1.172557e+003;1.893726e-001
1.174486e+003;1.880668e-001
1.176414e+003;1.862536e-001
1.178343e+003;1.843041e-001
1.180271e+003;1.828621e-001
1.182200e+003;1.821315e-001
1.184128e+003;1.822576e-001
1.186057e+003;1.829370e-001
1.187986e+003;1.839385e-001
1.189914e+003;1.853683e-001
1.191843e+003;1.873233e-001
1.193771e+003;1.898037e-001
1.195700e+003;1.928258e-001
1.197628e+003;1.962423e-001
1.199557e+003;2.001294e-001
1.201485e+003;2.047997e-001
1.203414e+003;2.097654e-001
1.205343e+003;2.147709e-001
1.207271e+003;2.199754e-001
1.209200e+003;2.253527e-001
1.211128e+003;2.305334e-001
1.213057e+003;2.352739e-001
1.214985e+003;2.399497e-001
1.216914e+003;2.444673e-001
1.218842e+003;2.483740e-001
1.220771e+003;2.515888e-001
1.222699e+003;2.543414e-001
1.224628e+003;2.565467e-001
1.226557e+003;2.584048e-001
1.228485e+003;2.597204e-001
1.230414e+003;2.597420e-001
1.232342e+003;2.585000e-001
1.234271e+003;2.565967e-001
1.236199e+003;2.542124e-001
1.238128e+003;2.514400e-001
1.240056e+003;2.489075e-001
1.241985e+003;2.466976e-001
1.243913e+003;2.442579e-001
1.245842e+003;2.421933e-001
1.247771e+003;2.408583e-001
1.249699e+003;2.395267e-001
1.251628e+003;2.382397e-001
1.253556e+003;2.373027e-001
1.255485e+003;2.362677e-001
1.257413e+003;2.353699e-001
1.259342e+003;2.341371e-001
1.261270e+003;2.317367e-001
1.263199e+003;2.281688e-001
1.265127e+003;2.247746e-001
1.267056e+003;2.217045e-001
1.268985e+003;2.178353e-001
1.270913e+003;2.133641e-001
1.272842e+003;2.095169e-001
1.274770e+003;2.060551e-001
1.276699e+003;2.031385e-001
1.278627e+003;2.006036e-001
1.280556e+003;1.982014e-001
1.282484e+003;1.961040e-001
1.284413e+003;1.946382e-001
1.286342e+003;1.935692e-001
1.288270e+003;1.928327e-001
1.290199e+003;1.922137e-001
1.292127e+003;1.916144e-001
1.294056e+003;1.914383e-001
1.295984e+003;1.916111e-001
1.297913e+003;1.916011e-001
1.299841e+003;1.914974e-001
1.301770e+003;1.915825e-001
1.303698e+003;1.913742e-001
1.305627e+003;1.906302e-001
1.307556e+003;1.904341e-001
1.309484e+003;1.903687e-001
1.311413e+003;1.896683e-001
1.313341e+003;1.893005e-001
1.315270e+003;1.892780e-001
1.317198e+003;1.892299e-001
1.319127e+003;1.893239e-001
1.321055e+003;1.900161e-001
1.322984e+003;1.912849e-001
1.324912e+003;1.924554e-001
1.326841e+003;1.934250e-001
1.328770e+003;1.941474e-001
1.330698e+003;1.947345e-001
1.332627e+003;1.953623e-001
1.334555e+003;1.957095e-001
1.336484e+003;1.956320e-001
1.338412e+003;1.954467e-001
1.340341e+003;1.952084e-001
1.342269e+003;1.950251e-001
1.344198e+003;1.950454e-001
1.346126e+003;1.949227e-001
1.348055e+003;1.948007e-001
1.349984e+003;1.950084e-001
1.351912e+003;1.953938e-001
1.353841e+003;1.962711e-001
1.355769e+003;1.976818e-001
1.357698e+003;1.995585e-001
1.359626e+003;2.020244e-001
1.361555e+003;2.051434e-001
1.363483e+003;2.088476e-001
1.365412e+003;2.125435e-001
1.367341e+003;2.147180e-001
1.369269e+003;2.153874e-001
1.371198e+003;2.154674e-001
1.373126e+003;2.148858e-001
1.375055e+003;2.141349e-001
1.376983e+003;2.137740e-001
1.378912e+003;2.135882e-001
1.380840e+003;2.137384e-001
1.382769e+003;2.142020e-001
1.384698e+003;2.145289e-001
1.386626e+003;2.149006e-001
1.388555e+003;2.156429e-001
1.390483e+003;2.161775e-001
1.392412e+003;2.162677e-001
1.394340e+003;2.164159e-001
1.396269e+003;2.172571e-001
1.398197e+003;2.181001e-001
1.400126e+003;2.189282e-001
1.402054e+003;2.201211e-001
1.403983e+003;2.215475e-001
1.405911e+003;2.228696e-001
1.407840e+003;2.238714e-001
1.409769e+003;2.245116e-001
1.411697e+003;2.249011e-001
1.413626e+003;2.255189e-001
1.415554e+003;2.263640e-001
1.417483e+003;2.266449e-001
1.419411e+003;2.272848e-001
1.421340e+003;2.292904e-001
1.423268e+003;2.321464e-001
1.425197e+003;2.357562e-001
1.427125e+003;2.404251e-001
1.429054e+003;2.463935e-001
1.430983e+003;2.534207e-001
1.432911e+003;2.609638e-001
1.434840e+003;2.680469e-001
1.436768e+003;2.736851e-001
1.438697e+003;2.783382e-001
1.440625e+003;2.816601e-001
1.442554e+003;2.836429e-001
1.444482e+003;2.843224e-001
1.446411e+003;2.831950e-001
1.448340e+003;2.804431e-001
1.450268e+003;2.762383e-001
1.452197e+003;2.704339e-001
1.454125e+003;2.638368e-001
1.456054e+003;2.572165e-001
1.457982e+003;2.522770e-001
1.459911e+003;2.493503e-001
1.461839e+003;2.473249e-001
1.463768e+003;2.458677e-001
1.465697e+003;2.455210e-001
1.467625e+003;2.464626e-001
1.469554e+003;2.478452e-001
1.471482e+003;2.494727e-001
1.473411e+003;2.522234e-001
1.475339e+003;2.558205e-001
1.477268e+003;2.597582e-001
1.479196e+003;2.646498e-001
1.481125e+003;2.704524e-001
1.483053e+003;2.773911e-001
1.484982e+003;2.854303e-001
1.486911e+003;2.941943e-001
1.488839e+003;3.037641e-001
1.490768e+003;3.144345e-001
1.492696e+003;3.257375e-001
1.494625e+003;3.368066e-001
1.496553e+003;3.477133e-001
1.498482e+003;3.584779e-001
1.500410e+003;3.687514e-001
1.502339e+003;3.784072e-001
1.504267e+003;3.867913e-001
1.506196e+003;3.941628e-001
1.508125e+003;4.017814e-001
1.510053e+003;4.088447e-001
1.511982e+003;4.139439e-001
1.513910e+003;4.160557e-001
1.515839e+003;4.135220e-001
1.517767e+003;4.062642e-001
1.519696e+003;3.960770e-001
1.521624e+003;3.853824e-001
1.523553e+003;3.764773e-001
1.525481e+003;3.684862e-001
1.527410e+003;3.616690e-001
1.529339e+003;3.554921e-001
1.531267e+003;3.487273e-001
1.533196e+003;3.416968e-001
1.535124e+003;3.349826e-001
1.537053e+003;3.279955e-001
1.538981e+003;3.207927e-001
1.540910e+003;3.147570e-001
1.542838e+003;3.092926e-001
1.544767e+003;3.037405e-001
1.546695e+003;2.981189e-001
1.548624e+003;2.920633e-001
1.550553e+003;2.856879e-001
1.552481e+003;2.789817e-001
1.554410e+003;2.721440e-001
1.556338e+003;2.657177e-001
1.558267e+003;2.587675e-001
1.560195e+003;2.525885e-001
1.562124e+003;2.474627e-001
1.564052e+003;2.415821e-001
1.565981e+003;2.353838e-001
1.567910e+003;2.296585e-001
1.569838e+003;2.245330e-001
1.571767e+003;2.206805e-001
1.573695e+003;2.174732e-001
1.575624e+003;2.147493e-001
1.577552e+003;2.139781e-001
1.579481e+003;2.141990e-001
1.581409e+003;2.147310e-001
1.583338e+003;2.163658e-001
1.585266e+003;2.191056e-001
1.587195e+003;2.233349e-001
1.589124e+003;2.288007e-001
1.591052e+003;2.354026e-001
1.592981e+003;2.430903e-001
1.594909e+003;2.517790e-001
1.596838e+003;2.613589e-001
1.598766e+003;2.718431e-001
1.600695e+003;2.842479e-001
1.602623e+003;2.988775e-001
1.604552e+003;3.153920e-001
1.606480e+003;3.333139e-001
1.608409e+003;3.524800e-001
1.610338e+003;3.722090e-001
1.612266e+003;3.908219e-001
1.614195e+003;4.072754e-001
1.616123e+003;4.216177e-001
1.618052e+003;4.337124e-001
1.619980e+003;4.417935e-001
1.621909e+003;4.449778e-001
1.623837e+003;4.432550e-001
1.625766e+003;4.380165e-001
1.627694e+003;4.305638e-001
1.629623e+003;4.205278e-001
1.631552e+003;4.087234e-001
1.633480e+003;3.960010e-001
1.635409e+003;3.834314e-001
1.637337e+003;3.722109e-001
1.639266e+003;3.617576e-001
1.641194e+003;3.518381e-001
1.643123e+003;3.422082e-001
1.645051e+003;3.325136e-001
1.646980e+003;3.232229e-001
1.648909e+003;3.152237e-001
1.650837e+003;3.072067e-001
1.652766e+003;2.981655e-001
1.654694e+003;2.902305e-001
1.656623e+003;2.825763e-001
1.658551e+003;2.742970e-001
1.660480e+003;2.660927e-001
1.662408e+003;2.578920e-001
1.664337e+003;2.505537e-001
1.666266e+003;2.437738e-001
1.668194e+003;2.367555e-001
1.670123e+003;2.301192e-001
1.672051e+003;2.242283e-001
1.673980e+003;2.184100e-001
1.675908e+003;2.127867e-001
1.677837e+003;2.074951e-001
1.679765e+003;2.021261e-001
1.681694e+003;1.970019e-001
1.683622e+003;1.919341e-001
1.685551e+003;1.881802e-001
1.687479e+003;1.853826e-001
1.689408e+003;1.825038e-001
1.691337e+003;1.803171e-001
1.693265e+003;1.787610e-001
1.695194e+003;1.772457e-001
1.697122e+003;1.761764e-001
1.699051e+003;1.728427e-001
1.700979e+003;1.653896e-001
1.702908e+003;1.548040e-001
1.704836e+003;1.418162e-001
1.706765e+003;1.292870e-001
1.708693e+003;1.187672e-001
1.710622e+003;1.102683e-001
1.712551e+003;1.035238e-001
1.714479e+003;9.807030e-002
1.716408e+003;9.355029e-002
1.718336e+003;9.061026e-002
1.720265e+003;8.865193e-002
1.722193e+003;8.670982e-002
1.724122e+003;8.486120e-002
1.726050e+003;8.342136e-002
1.727979e+003;8.203508e-002
1.729908e+003;8.060932e-002
1.731836e+003;7.908415e-002
1.733765e+003;7.747495e-002
1.735693e+003;7.694975e-002
1.737622e+003;7.665021e-002
1.739550e+003;7.569496e-002
1.741479e+003;7.510734e-002
1.743407e+003;7.451171e-002
1.745336e+003;7.398406e-002
1.747265e+003;7.364828e-002
1.749193e+003;7.322953e-002
1.751122e+003;7.303833e-002
1.753050e+003;7.318059e-002
1.754979e+003;7.304837e-002
1.756907e+003;7.292917e-002
1.758836e+003;7.301959e-002
1.760764e+003;7.290988e-002
1.762693e+003;7.283261e-002
1.764621e+003;7.290820e-002
1.766550e+003;7.257525e-002
1.768479e+003;7.232242e-002
1.770407e+003;7.203302e-002
1.772336e+003;7.149072e-002
1.774264e+003;7.141264e-002
1.776193e+003;7.171308e-002
1.778121e+003;7.191198e-002
1.780050e+003;7.182346e-002
1.781978e+003;7.158428e-002
1.783907e+003;7.131122e-002
1.785835e+003;7.110596e-002
1.787764e+003;7.113387e-002
1.789693e+003;7.096884e-002
1.791621e+003;7.065678e-002
1.793550e+003;7.053555e-002
1.795478e+003;7.067983e-002
1.797407e+003;7.051761e-002
1.799335e+003;7.026193e-002
1.801264e+003;7.012274e-002
1.803192e+003;7.005947e-002
1.805121e+003;6.988142e-002
1.807049e+003;6.963716e-002
1.808978e+003;6.939762e-002
1.810907e+003;6.914295e-002
1.812835e+003;6.906459e-002
1.814764e+003;6.919548e-002
1.816692e+003;6.907582e-002
1.818621e+003;6.882494e-002
1.820549e+003;6.856195e-002
1.822478e+003;6.829120e-002
1.824406e+003;6.810159e-002
1.826335e+003;6.803947e-002
1.828264e+003;6.787956e-002
1.830192e+003;6.743451e-002
1.832121e+003;6.711706e-002
1.834049e+003;6.710395e-002
1.835978e+003;6.693268e-002
1.837906e+003;6.676155e-002
1.839835e+003;6.680073e-002
1.841763e+003;6.666063e-002
1.843692e+003;6.602272e-002
1.845620e+003;6.582893e-002
1.847549e+003;6.600575e-002
1.849478e+003;6.608356e-002
1.851406e+003;6.603622e-002
1.853335e+003;6.600421e-002
1.855263e+003;6.609552e-002
1.857192e+003;6.607268e-002
1.859120e+003;6.597821e-002
1.861049e+003;6.593979e-002
1.862977e+003;6.568047e-002
1.864906e+003;6.547835e-002
1.866834e+003;6.562474e-002
1.868763e+003;6.577923e-002
1.870692e+003;6.590007e-002
1.872620e+003;6.594851e-002
1.874549e+003;6.594897e-002
1.876477e+003;6.598295e-002
1.878406e+003;6.609174e-002
1.880334e+003;6.619977e-002
1.882263e+003;6.605991e-002
1.884191e+003;6.587061e-002
1.886120e+003;6.578548e-002
1.888048e+003;6.574620e-002
1.889977e+003;6.586390e-002
1.891906e+003;6.592382e-002
1.893834e+003;6.577653e-002
1.895763e+003;6.554905e-002
1.897691e+003;6.542115e-002
1.899620e+003;6.557557e-002
1.901548e+003;6.564023e-002
1.903477e+003;6.566077e-002
1.905405e+003;6.563410e-002
1.907334e+003;6.553757e-002
1.909262e+003;6.544172e-002
1.911191e+003;6.553230e-002
1.913120e+003;6.548371e-002
1.915048e+003;6.513569e-002
1.916977e+003;6.489570e-002
1.918905e+003;6.508622e-002
1.920834e+003;6.521307e-002
1.922762e+003;6.524041e-002
1.924691e+003;6.516448e-002
1.926619e+003;6.506786e-002
1.928548e+003;6.486572e-002
1.930477e+003;6.485873e-002
1.932405e+003;6.513681e-002
1.934334e+003;6.533745e-002
1.936262e+003;6.526370e-002
1.938191e+003;6.514554e-002
1.940119e+003;6.524156e-002
1.942048e+003;6.529840e-002
1.943976e+003;6.532047e-002
1.945905e+003;6.531084e-002
1.947833e+003;6.547666e-002
1.949762e+003;6.569955e-002
1.951691e+003;6.564724e-002
1.953619e+003;6.553977e-002
1.955548e+003;6.541579e-002
1.957476e+003;6.560273e-002
1.959405e+003;6.588442e-002
1.961333e+003;6.581073e-002
1.963262e+003;6.581474e-002
1.965190e+003;6.594998e-002
1.967119e+003;6.567631e-002
1.969047e+003;6.555114e-002
1.970976e+003;6.567704e-002
1.972905e+003;6.570098e-002
1.974833e+003;6.558994e-002
1.976762e+003;6.569596e-002
1.978690e+003;6.595723e-002
1.980619e+003;6.593316e-002
1.982547e+003;6.582604e-002
1.984476e+003;6.585789e-002
1.986404e+003;6.602793e-002
1.988333e+003;6.595730e-002
1.990261e+003;6.573347e-002
1.992190e+003;6.558262e-002
1.994119e+003;6.535987e-002
1.996047e+003;6.538849e-002
1.997976e+003;6.553761e-002
1.999904e+003;6.556474e-002
2.001833e+003;6.545054e-002
2.003761e+003;6.532944e-002
2.005690e+003;6.529509e-002
2.007618e+003;6.521422e-002
2.009547e+003;6.540335e-002
2.011476e+003;6.566178e-002
2.013404e+003;6.551769e-002
2.015333e+003;6.540200e-002
2.017261e+003;6.537281e-002
2.019190e+003;6.538810e-002
2.021118e+003;6.556613e-002
2.023047e+003;6.575810e-002
2.024975e+003;6.573740e-002
2.026904e+003;6.550694e-002
2.028833e+003;6.550297e-002
2.030761e+003;6.570595e-002
2.032690e+003;6.556693e-002
2.034618e+003;6.542604e-002
2.036547e+003;6.560909e-002
2.038475e+003;6.572237e-002
2.040404e+003;6.555719e-002
2.042332e+003;6.547053e-002
2.044261e+003;6.552794e-002
2.046189e+003;6.541591e-002
2.048118e+003;6.516718e-002
2.050047e+003;6.523170e-002
2.051975e+003;6.555726e-002
2.053904e+003;6.586899e-002
2.055832e+003;6.590987e-002
2.057761e+003;6.572368e-002
2.059689e+003;6.567889e-002
2.061618e+003;6.569319e-002
2.063546e+003;6.585796e-002
2.065475e+003;6.604475e-002
2.067404e+003;6.609096e-002
2.069332e+003;6.608009e-002
2.071260e+003;6.617519e-002
2.073189e+003;6.638740e-002
2.075118e+003;6.626855e-002
2.077046e+003;6.609930e-002
2.078975e+003;6.631224e-002
2.080903e+003;6.652714e-002
2.082832e+003;6.647532e-002
2.084760e+003;6.643288e-002
2.086689e+003;6.637478e-002
2.088617e+003;6.626426e-002
2.090546e+003;6.637632e-002
2.092475e+003;6.657136e-002
2.094403e+003;6.645134e-002
2.096332e+003;6.641856e-002
2.098260e+003;6.639814e-002
2.100189e+003;6.646343e-002
2.102117e+003;6.663405e-002
2.104046e+003;6.675559e-002
2.105974e+003;6.662019e-002
2.107903e+003;6.643813e-002
2.109832e+003;6.639195e-002
2.111760e+003;6.635802e-002
2.113688e+003;6.628291e-002
2.115617e+003;6.616265e-002
2.117546e+003;6.592672e-002
2.119474e+003;6.589841e-002
2.121403e+003;6.593648e-002
2.123331e+003;6.600066e-002
2.125260e+003;6.608884e-002
2.127188e+003;6.614108e-002
2.129117e+003;6.612029e-002
2.131045e+003;6.624693e-002
2.132974e+003;6.651273e-002
2.134903e+003;6.651675e-002
2.136831e+003;6.637906e-002
2.138760e+003;6.623697e-002
2.140688e+003;6.597257e-002
2.142617e+003;6.570637e-002
2.144545e+003;6.562821e-002
2.146474e+003;6.568741e-002
2.148402e+003;6.592487e-002
2.150331e+003;6.613703e-002
2.152260e+003;6.599842e-002
2.154188e+003;6.589355e-002
2.156117e+003;6.598345e-002
2.158045e+003;6.598940e-002
2.159974e+003;6.599036e-002
2.161902e+003;6.605100e-002
2.163831e+003;6.614313e-002
2.165759e+003;6.606959e-002
2.167688e+003;6.609775e-002
2.169616e+003;6.607287e-002
2.171545e+003;6.603201e-002
2.173474e+003;6.600521e-002
2.175402e+003;6.573112e-002
2.177331e+003;6.571146e-002
2.179259e+003;6.563784e-002
2.181188e+003;6.554690e-002
2.183116e+003;6.581609e-002
2.185045e+003;6.595576e-002
2.186973e+003;6.576817e-002
2.188902e+003;6.558277e-002
2.190831e+003;6.567769e-002
2.192759e+003;6.573524e-002
2.194688e+003;6.587146e-002
2.196616e+003;6.595715e-002
2.198545e+003;6.586544e-002
2.200473e+003;6.580317e-002
2.202402e+003;6.583506e-002
2.204330e+003;6.581578e-002
2.206259e+003;6.547173e-002
2.208188e+003;6.539322e-002
2.210116e+003;6.569963e-002
2.212044e+003;6.566186e-002
2.213973e+003;6.569462e-002
2.215902e+003;6.605744e-002
2.217830e+003;6.598997e-002
2.219759e+003;6.568217e-002
2.221687e+003;6.556135e-002
2.223616e+003;6.548934e-002
2.225544e+003;6.554092e-002
2.227473e+003;6.564359e-002
2.229401e+003;6.564767e-002
2.231330e+003;6.543806e-002
2.233259e+003;6.533549e-002
2.235187e+003;6.540724e-002
2.237116e+003;6.557144e-002
2.239044e+003;6.555457e-002
2.240973e+003;6.554493e-002
2.242901e+003;6.562597e-002
2.244830e+003;6.567087e-002
2.246758e+003;6.565719e-002
2.248687e+003;6.540228e-002
2.250615e+003;6.544927e-002
2.252544e+003;6.548687e-002
2.254473e+003;6.528577e-002
2.256401e+003;6.509280e-002
2.258330e+003;6.504665e-002
2.260258e+003;6.512364e-002
2.262187e+003;6.502603e-002
2.264115e+003;6.498700e-002
2.266044e+003;6.523475e-002
2.267972e+003;6.533761e-002
2.269901e+003;6.542908e-002
2.271830e+003;6.541476e-002
2.273758e+003;6.526648e-002
2.275687e+003;6.522485e-002
2.277615e+003;6.515902e-002
2.279544e+003;6.520671e-002
2.281472e+003;6.545512e-002
2.283401e+003;6.585538e-002
2.285329e+003;6.605701e-002
2.287258e+003;6.583995e-002
2.289187e+003;6.557561e-002
2.291115e+003;6.570965e-002
2.293043e+003;6.569947e-002
2.294972e+003;6.561083e-002
2.296901e+003;6.577272e-002
2.298829e+003;6.590486e-002
2.300758e+003;6.591792e-002
2.302686e+003;6.598373e-002
2.304615e+003;6.597971e-002
2.306543e+003;6.584543e-002
2.308472e+003;6.590821e-002
2.310400e+003;6.584211e-002
2.312329e+003;6.549669e-002
2.314258e+003;6.527826e-002
2.316186e+003;6.531735e-002
2.318115e+003;6.548864e-002
2.320043e+003;6.557657e-002
2.321972e+003;6.548513e-002
2.323900e+003;6.533429e-002
2.325829e+003;6.523548e-002
2.327757e+003;6.519151e-002
2.329686e+003;6.511282e-002
2.331615e+003;6.507830e-002
2.333543e+003;6.503453e-002
2.335472e+003;6.506702e-002
2.337400e+003;6.512768e-002
2.339329e+003;6.516406e-002
2.341257e+003;6.506405e-002
2.343186e+003;6.518497e-002
2.345114e+003;6.544738e-002
2.347043e+003;6.582037e-002
2.348971e+003;6.590053e-002
2.350900e+003;6.575622e-002
2.352829e+003;6.539696e-002
2.354757e+003;6.500767e-002
2.356686e+003;6.478852e-002
2.358614e+003;6.479548e-002
2.360543e+003;6.490605e-002
2.362471e+003;6.498054e-002
2.364400e+003;6.515925e-002
2.366328e+003;6.532058e-002
2.368257e+003;6.533221e-002
2.370186e+003;6.555691e-002
2.372114e+003;6.575737e-002
2.374042e+003;6.584860e-002
2.375971e+003;6.616014e-002
2.377900e+003;6.664537e-002
2.379828e+003;6.679779e-002
2.381757e+003;6.673693e-002
2.383685e+003;6.685521e-002
2.385614e+003;6.702105e-002
2.387542e+003;6.707568e-002
2.389471e+003;6.712306e-002
2.391399e+003;6.721681e-002
2.393328e+003;6.741729e-002
2.395257e+003;6.753027e-002
2.397185e+003;6.758171e-002
2.399114e+003;6.771991e-002
2.401042e+003;6.781685e-002
2.402971e+003;6.796371e-002
2.404899e+003;6.804807e-002
2.406828e+003;6.829973e-002
2.408756e+003;6.864305e-002
2.410685e+003;6.882206e-002
2.412614e+003;6.882245e-002
2.414542e+003;6.900524e-002
2.416471e+003;6.926481e-002
2.418399e+003;6.945516e-002
2.420328e+003;6.966820e-002
2.422256e+003;6.992669e-002
2.424185e+003;7.010394e-002
2.426113e+003;7.015475e-002
2.428042e+003;7.048196e-002
2.429970e+003;7.074678e-002
2.431899e+003;7.060505e-002
2.433828e+003;7.072931e-002
2.435756e+003;7.115272e-002
2.437685e+003;7.127452e-002
2.439613e+003;7.122420e-002
2.441542e+003;7.139421e-002
2.443470e+003;7.160542e-002
2.445399e+003;7.147064e-002
2.447327e+003;7.148021e-002
2.449256e+003;7.175604e-002
2.451185e+003;7.166059e-002
2.453113e+003;7.149595e-002
2.455042e+003;7.153963e-002
2.456970e+003;7.160007e-002
2.458899e+003;7.171578e-002
2.460827e+003;7.176440e-002
2.462756e+003;7.178023e-002
2.464684e+003;7.195648e-002
2.466613e+003;7.205613e-002
2.468542e+003;7.216414e-002
2.470470e+003;7.236626e-002
2.472398e+003;7.270128e-002
2.474327e+003;7.295503e-002
2.476256e+003;7.295441e-002
2.478184e+003;7.288069e-002
2.480113e+003;7.293419e-002
2.482041e+003;7.312667e-002
2.483970e+003;7.305766e-002
2.485898e+003;7.298988e-002
2.487827e+003;7.320348e-002
2.489755e+003;7.366540e-002
2.491684e+003;7.381386e-002
2.493613e+003;7.353755e-002
2.495541e+003;7.359179e-002
2.497470e+003;7.374474e-002
2.499398e+003;7.373776e-002
2.501327e+003;7.366654e-002
2.503255e+003;7.339593e-002
2.505184e+003;7.337938e-002
2.507112e+003;7.366598e-002
2.509041e+003;7.387411e-002
2.510969e+003;7.416824e-002
2.512898e+003;7.408316e-002
2.514827e+003;7.388251e-002
2.516755e+003;7.400209e-002
2.518684e+003;7.400429e-002
2.520612e+003;7.393680e-002
2.522541e+003;7.411723e-002
2.524469e+003;7.429679e-002
2.526398e+003;7.444673e-002
2.528326e+003;7.459991e-002
2.530255e+003;7.467458e-002
2.532184e+003;7.459672e-002
2.534112e+003;7.439128e-002
2.536041e+003;7.440854e-002
2.537969e+003;7.445031e-002
2.539898e+003;7.450722e-002
2.541826e+003;7.475790e-002
2.543755e+003;7.530469e-002
2.545683e+003;7.552787e-002
2.547612e+003;7.557337e-002
2.549541e+003;7.570616e-002
2.551469e+003;7.571141e-002
2.553397e+003;7.578260e-002
2.555326e+003;7.604006e-002
2.557255e+003;7.634436e-002
2.559183e+003;7.640669e-002
2.561112e+003;7.656708e-002
2.563040e+003;7.673948e-002
2.564969e+003;7.713033e-002
2.566897e+003;7.742644e-002
2.568826e+003;7.748458e-002
2.570754e+003;7.747032e-002
2.572683e+003;7.779060e-002
2.574612e+003;7.821671e-002
2.576540e+003;7.848415e-002
2.578469e+003;7.866798e-002
2.580397e+003;7.878762e-002
2.582326e+003;7.892370e-002
2.584254e+003;7.930861e-002
2.586183e+003;7.954794e-002
2.588111e+003;7.963832e-002
2.590040e+003;7.967853e-002
2.591969e+003;7.964390e-002
2.593897e+003;7.982735e-002
2.595826e+003;7.989094e-002
2.597754e+003;7.990126e-002
2.599683e+003;8.013894e-002
2.601611e+003;8.047535e-002
2.603540e+003;8.067104e-002
2.605468e+003;8.091181e-002
2.607397e+003;8.131207e-002
2.609325e+003;8.170582e-002
2.611254e+003;8.172533e-002
2.613183e+003;8.150662e-002
2.615111e+003;8.153436e-002
2.617040e+003;8.162564e-002
2.618968e+003;8.163939e-002
2.620897e+003;8.164867e-002
2.622825e+003;8.175285e-002
2.624754e+003;8.173657e-002
2.626682e+003;8.160221e-002
2.628611e+003;8.174989e-002
2.630540e+003;8.177945e-002
2.632468e+003;8.172134e-002
2.634396e+003;8.179189e-002
2.636325e+003;8.165675e-002
2.638254e+003;8.152629e-002
2.640182e+003;8.144502e-002
2.642111e+003;8.132281e-002
2.644039e+003;8.149690e-002
2.645968e+003;8.157834e-002
2.647896e+003;8.165463e-002
2.649825e+003;8.191279e-002
2.651753e+003;8.203052e-002
2.653682e+003;8.197877e-002
2.655611e+003;8.193608e-002
2.657539e+003;8.201358e-002
2.659468e+003;8.219000e-002
2.661396e+003;8.233059e-002
2.663325e+003;8.235963e-002
2.665253e+003;8.230644e-002
2.667182e+003;8.253481e-002
2.669110e+003;8.298980e-002
2.671039e+003;8.319654e-002
2.672968e+003;8.328608e-002
2.674896e+003;8.342666e-002
2.676825e+003;8.357617e-002
2.678753e+003;8.346871e-002
2.680682e+003;8.353983e-002
2.682610e+003;8.400921e-002
2.684539e+003;8.412591e-002
2.686467e+003;8.425695e-002
2.688396e+003;8.476754e-002
2.690324e+003;8.508072e-002
2.692253e+003;8.526390e-002
2.694182e+003;8.553608e-002
2.696110e+003;8.556440e-002
2.698039e+003;8.549674e-002
2.699967e+003;8.557126e-002
2.701896e+003;8.599333e-002
2.703824e+003;8.647297e-002
2.705753e+003;8.684856e-002
2.707681e+003;8.681987e-002
2.709610e+003;8.676302e-002
2.711539e+003;8.719326e-002
2.713467e+003;8.745266e-002
2.715396e+003;8.745019e-002
2.717324e+003;8.759736e-002
2.719253e+003;8.778542e-002
2.721181e+003;8.793031e-002
2.723110e+003;8.818358e-002
2.725038e+003;8.842084e-002
2.726967e+003;8.868118e-002
2.728896e+003;8.900187e-002
2.730824e+003;8.906077e-002
2.732752e+003;8.918293e-002
2.734681e+003;8.963748e-002
2.736610e+003;8.999947e-002
2.738538e+003;8.994946e-002
2.740467e+003;8.993956e-002
2.742395e+003;9.044823e-002
2.744324e+003;9.102549e-002
2.746252e+003;9.123462e-002
2.748181e+003;9.150708e-002
2.750109e+003;9.175656e-002
2.752038e+003;9.177800e-002
2.753967e+003;9.179360e-002
2.755895e+003;9.206994e-002
2.757824e+003;9.197096e-002
2.759752e+003;9.193882e-002
2.761681e+003;9.242921e-002
2.763609e+003;9.273434e-002
2.765538e+003;9.295107e-002
2.767466e+003;9.302902e-002
2.769395e+003;9.294751e-002
2.771323e+003;9.307832e-002
2.773252e+003;9.321629e-002
2.775181e+003;9.362295e-002
2.777109e+003;9.398208e-002
2.779038e+003;9.404173e-002
2.780966e+003;9.418708e-002
2.782895e+003;9.439663e-002
2.784823e+003;9.448299e-002
2.786752e+003;9.435804e-002
2.788680e+003;9.441734e-002
2.790609e+003;9.450078e-002
2.792538e+003;9.467603e-002
2.794466e+003;9.485288e-002
2.796395e+003;9.527152e-002
2.798323e+003;9.575666e-002
2.800252e+003;9.581623e-002
2.802180e+003;9.583589e-002
2.804109e+003;9.611622e-002
2.806037e+003;9.652289e-002
2.807966e+003;9.662665e-002
2.809895e+003;9.662528e-002
2.811823e+003;9.679638e-002
2.813751e+003;9.724152e-002
2.815680e+003;9.756263e-002
2.817609e+003;9.755698e-002
2.819537e+003;9.757370e-002
2.821466e+003;9.748954e-002
2.823394e+003;9.766322e-002
2.825323e+003;9.819860e-002
2.827251e+003;9.839576e-002
2.829180e+003;9.851430e-002
2.831108e+003;9.917424e-002
2.833037e+003;9.937592e-002
2.834966e+003;9.970644e-002
2.836894e+003;1.001045e-001
2.838823e+003;1.001286e-001
2.840751e+003;1.000454e-001
2.842680e+003;1.001198e-001
2.844608e+003;1.002448e-001
2.846537e+003;1.000010e-001
2.848465e+003;9.991967e-002
2.850394e+003;1.004583e-001
2.852323e+003;1.014784e-001
2.854251e+003;1.029074e-001
2.856180e+003;1.043527e-001
2.858108e+003;1.055944e-001
2.860037e+003;1.063641e-001
2.861965e+003;1.069151e-001
2.863894e+003;1.076758e-001
2.865822e+003;1.084325e-001
2.867751e+003;1.092145e-001
2.869679e+003;1.099940e-001
2.871608e+003;1.104686e-001
2.873536e+003;1.107552e-001
2.875465e+003;1.110432e-001
2.877394e+003;1.112672e-001
2.879322e+003;1.110576e-001
2.881251e+003;1.107236e-001
2.883179e+003;1.104170e-001
2.885108e+003;1.104028e-001
2.887036e+003;1.105493e-001
2.888965e+003;1.101111e-001
2.890893e+003;1.098169e-001
2.892822e+003;1.100731e-001
2.894750e+003;1.103189e-001
2.896679e+003;1.104693e-001
2.898608e+003;1.107693e-001
2.900536e+003;1.111465e-001
2.902465e+003;1.113837e-001
2.904393e+003;1.115192e-001
2.906322e+003;1.117891e-001
2.908250e+003;1.119981e-001
2.910179e+003;1.119864e-001
2.912107e+003;1.120850e-001
2.914036e+003;1.119476e-001
2.915965e+003;1.119429e-001
2.917893e+003;1.125804e-001
2.919822e+003;1.137881e-001
2.921750e+003;1.152804e-001
2.923679e+003;1.167224e-001
2.925607e+003;1.180415e-001
2.927536e+003;1.191133e-001
2.929464e+003;1.200449e-001
2.931393e+003;1.207968e-001
2.933322e+003;1.212310e-001
2.935250e+003;1.213905e-001
2.937178e+003;1.212257e-001
2.939107e+003;1.208528e-001
2.941036e+003;1.205061e-001
2.942964e+003;1.198743e-001
2.944893e+003;1.191848e-001
2.946821e+003;1.183405e-001
2.948750e+003;1.170949e-001
2.950678e+003;1.162567e-001
2.952607e+003;1.160271e-001
2.954535e+003;1.157119e-001
2.956464e+003;1.153871e-001
2.958393e+003;1.153254e-001
2.960321e+003;1.152520e-001
2.962250e+003;1.150173e-001
2.964178e+003;1.147461e-001
2.966107e+003;1.150535e-001
2.968035e+003;1.156291e-001
2.969964e+003;1.161168e-001
2.971892e+003;1.163512e-001
2.973821e+003;1.160808e-001
2.975750e+003;1.155593e-001
2.977678e+003;1.152440e-001
2.979607e+003;1.154045e-001
2.981535e+003;1.154457e-001
2.983464e+003;1.151359e-001
2.985392e+003;1.147499e-001
2.987321e+003;1.140530e-001
2.989249e+003;1.134306e-001
2.991178e+003;1.130006e-001
2.993106e+003;1.125988e-001
2.995035e+003;1.117978e-001
2.996964e+003;1.108173e-001
2.998892e+003;1.103609e-001
3.000821e+003;1.103212e-001
3.002749e+003;1.104512e-001
3.004678e+003;1.103884e-001
3.006606e+003;1.100718e-001
3.008535e+003;1.096300e-001
3.010463e+003;1.097805e-001
3.012392e+003;1.101438e-001
3.014321e+003;1.103002e-001
3.016249e+003;1.104357e-001
3.018177e+003;1.104472e-001
3.020106e+003;1.105303e-001
3.022035e+003;1.109052e-001
3.023963e+003;1.113071e-001
3.025892e+003;1.116551e-001
3.027820e+003;1.120686e-001
3.029749e+003;1.125629e-001
3.031677e+003;1.131141e-001
3.033606e+003;1.134116e-001
3.035534e+003;1.137945e-001
3.037463e+003;1.144897e-001
3.039392e+003;1.150245e-001
3.041320e+003;1.153346e-001
3.043249e+003;1.157248e-001
3.045177e+003;1.162807e-001
3.047106e+003;1.171273e-001
3.049034e+003;1.177942e-001
3.050963e+003;1.179628e-001
3.052891e+003;1.184235e-001
3.054820e+003;1.193747e-001
3.056749e+003;1.202233e-001
3.058677e+003;1.205311e-001
3.060606e+003;1.209699e-001
3.062534e+003;1.213031e-001
3.064463e+003;1.213722e-001
3.066391e+003;1.217884e-001
3.068320e+003;1.220272e-001
3.070248e+003;1.220721e-001
3.072177e+003;1.222930e-001
3.074105e+003;1.223419e-001
3.076034e+003;1.221943e-001
3.077963e+003;1.221366e-001
3.079891e+003;1.220657e-001
3.081820e+003;1.217503e-001
3.083748e+003;1.217612e-001
3.085677e+003;1.217163e-001
3.087605e+003;1.211891e-001
3.089534e+003;1.207553e-001
3.091462e+003;1.204215e-001
3.093391e+003;1.200283e-001
3.095320e+003;1.196250e-001
3.097248e+003;1.192647e-001
3.099177e+003;1.190199e-001
3.101105e+003;1.186524e-001
3.103034e+003;1.181754e-001
3.104962e+003;1.180483e-001
3.106891e+003;1.181844e-001
3.108819e+003;1.180991e-001
3.110748e+003;1.175831e-001
3.112677e+003;1.174275e-001
3.114605e+003;1.174776e-001
3.116533e+003;1.171463e-001
3.118462e+003;1.168660e-001
3.120391e+003;1.169017e-001
3.122319e+003;1.169047e-001
3.124248e+003;1.168602e-001
3.126176e+003;1.167801e-001
3.128105e+003;1.168926e-001
3.130033e+003;1.170590e-001
3.131962e+003;1.176895e-001
3.133890e+003;1.180332e-001
3.135819e+003;1.178968e-001
3.137748e+003;1.180951e-001
3.139676e+003;1.184167e-001
3.141605e+003;1.183382e-001
3.143533e+003;1.186915e-001
3.145462e+003;1.194312e-001
3.147390e+003;1.199133e-001
3.149319e+003;1.204088e-001
3.151247e+003;1.211309e-001
3.153176e+003;1.216540e-001
3.155104e+003;1.220955e-001
3.157033e+003;1.228080e-001
3.158962e+003;1.236035e-001
3.160890e+003;1.244966e-001
3.162819e+003;1.251912e-001
3.164747e+003;1.256656e-001
3.166676e+003;1.261417e-001
3.168604e+003;1.269760e-001
3.170533e+003;1.279569e-001
3.172461e+003;1.288145e-001
3.174390e+003;1.301412e-001
3.176319e+003;1.316065e-001
3.178247e+003;1.324055e-001
3.180176e+003;1.328157e-001
3.182104e+003;1.336579e-001
3.184033e+003;1.349745e-001
3.185961e+003;1.357935e-001
3.187890e+003;1.366298e-001
3.189818e+003;1.379290e-001
3.191747e+003;1.390948e-001
3.193676e+003;1.402301e-001
3.195604e+003;1.414916e-001
3.197532e+003;1.428247e-001
3.199461e+003;1.437620e-001
3.201390e+003;1.444484e-001
3.203318e+003;1.457836e-001
3.205247e+003;1.472497e-001
3.207175e+003;1.481851e-001
3.209104e+003;1.497618e-001
3.211032e+003;1.512132e-001
3.212961e+003;1.519116e-001
3.214889e+003;1.529414e-001
3.216818e+003;1.545294e-001
3.218747e+003;1.558134e-001
3.220675e+003;1.569827e-001
3.222604e+003;1.582756e-001
3.224532e+003;1.597139e-001
3.226461e+003;1.611411e-001
3.228389e+003;1.627324e-001
3.230318e+003;1.643340e-001
3.232246e+003;1.660617e-001
3.234175e+003;1.677895e-001
3.236104e+003;1.697093e-001
3.238032e+003;1.715495e-001
3.239961e+003;1.734798e-001
3.241889e+003;1.753308e-001
3.243818e+003;1.768296e-001
3.245746e+003;1.790291e-001
3.247675e+003;1.814858e-001
3.249603e+003;1.835116e-001
3.251532e+003;1.853013e-001
3.253460e+003;1.876538e-001
3.255389e+003;1.904322e-001
3.257318e+003;1.930086e-001
3.259246e+003;1.957942e-001
3.261175e+003;1.985372e-001
3.263103e+003;2.009465e-001
3.265032e+003;2.032428e-001
3.266960e+003;2.056988e-001
3.268889e+003;2.084248e-001
3.270817e+003;2.107407e-001
3.272746e+003;2.125275e-001
3.274675e+003;2.141423e-001
3.276603e+003;2.156539e-001
3.278531e+003;2.168982e-001
3.280460e+003;2.172530e-001
3.282389e+003;2.172889e-001
3.284317e+003;2.170719e-001
3.286246e+003;2.162522e-001
3.288174e+003;2.149635e-001
3.290103e+003;2.136814e-001
3.292031e+003;2.121877e-001
3.293960e+003;2.099214e-001
3.295888e+003;2.071114e-001
3.297817e+003;2.048927e-001
3.299746e+003;2.030898e-001
3.301674e+003;2.002815e-001
3.303603e+003;1.969639e-001
3.305531e+003;1.940740e-001
3.307460e+003;1.909027e-001
3.309388e+003;1.877903e-001
3.311317e+003;1.849226e-001
3.313245e+003;1.819381e-001
3.315174e+003;1.788482e-001
3.317103e+003;1.760939e-001
3.319031e+003;1.737268e-001
3.320960e+003;1.712410e-001
3.322888e+003;1.683463e-001
3.324817e+003;1.655627e-001
3.326745e+003;1.631605e-001
3.328674e+003;1.604612e-001
3.330602e+003;1.579868e-001
3.332531e+003;1.555455e-001
3.334459e+003;1.534483e-001
3.336388e+003;1.518195e-001
3.338317e+003;1.498517e-001
3.340245e+003;1.477014e-001
3.342174e+003;1.459160e-001
3.344102e+003;1.439180e-001
3.346031e+003;1.418279e-001
3.347959e+003;1.400481e-001
3.349888e+003;1.387069e-001
3.351816e+003;1.373273e-001
3.353745e+003;1.359346e-001
3.355674e+003;1.345938e-001
3.357602e+003;1.335909e-001
3.359531e+003;1.326723e-001
3.361459e+003;1.313062e-001
3.363388e+003;1.302454e-001
3.365316e+003;1.292020e-001
3.367245e+003;1.278566e-001
3.369173e+003;1.267331e-001
3.371102e+003;1.262161e-001
3.373031e+003;1.257292e-001
3.374959e+003;1.244280e-001
3.376887e+003;1.232524e-001
3.378816e+003;1.228987e-001
3.380745e+003;1.224731e-001
3.382673e+003;1.219050e-001
3.384602e+003;1.210506e-001
3.386530e+003;1.201929e-001
3.388459e+003;1.196936e-001
3.390387e+003;1.194810e-001
3.392316e+003;1.187064e-001
3.394244e+003;1.176011e-001
3.396173e+003;1.167492e-001
3.398102e+003;1.160136e-001
3.400030e+003;1.153782e-001
3.401959e+003;1.145680e-001
3.403887e+003;1.137712e-001
3.405816e+003;1.131773e-001
3.407744e+003;1.121172e-001
3.409673e+003;1.109401e-001
3.411601e+003;1.103000e-001
3.413530e+003;1.099039e-001
3.415458e+003;1.094870e-001
3.417387e+003;1.086964e-001
3.419316e+003;1.078709e-001
3.421244e+003;1.073862e-001
3.423173e+003;1.068407e-001
3.425101e+003;1.063222e-001
3.427030e+003;1.059558e-001
3.428958e+003;1.051596e-001
3.430887e+003;1.043815e-001
3.432815e+003;1.036241e-001
3.434744e+003;1.026485e-001
3.436673e+003;1.019145e-001
3.438601e+003;1.014472e-001
3.440530e+003;1.009562e-001
3.442458e+003;1.004288e-001
3.444387e+003;1.002468e-001
3.446315e+003;1.001960e-001
3.448244e+003;9.966926e-002
3.450172e+003;9.929787e-002
3.452101e+003;9.892409e-002
3.454030e+003;9.848761e-002
3.455958e+003;9.816147e-002
3.457886e+003;9.803841e-002
3.459815e+003;9.776617e-002
3.461744e+003;9.717003e-002
3.463672e+003;9.662756e-002
3.465601e+003;9.668021e-002
3.467529e+003;9.670525e-002
3.469458e+003;9.644456e-002
3.471386e+003;9.606658e-002
3.473315e+003;9.568302e-002
3.475243e+003;9.531287e-002
3.477172e+003;9.502097e-002
3.479101e+003;9.492053e-002
3.481029e+003;9.439609e-002
3.482958e+003;9.399261e-002
3.484886e+003;9.383116e-002
3.486815e+003;9.335421e-002
3.488743e+003;9.310936e-002
3.490672e+003;9.334312e-002
3.492600e+003;9.327941e-002
3.494529e+003;9.275991e-002
3.496458e+003;9.220623e-002
3.498386e+003;9.152885e-002
3.500315e+003;9.100575e-002
3.502243e+003;9.098300e-002
3.504172e+003;9.110141e-002
3.506100e+003;9.128036e-002
3.508029e+003;9.078056e-002
3.509957e+003;8.988645e-002
3.511886e+003;8.983079e-002
3.513814e+003;8.994392e-002
3.515743e+003;8.959737e-002
3.517672e+003;8.902624e-002
3.519600e+003;8.872040e-002
3.521529e+003;8.853665e-002
3.523457e+003;8.821687e-002
3.525386e+003;8.763944e-002
3.527314e+003;8.719750e-002
3.529243e+003;8.719022e-002
3.531171e+003;8.695137e-002
3.533100e+003;8.631483e-002
3.535029e+003;8.582098e-002
3.536957e+003;8.528826e-002
3.538885e+003;8.481475e-002
3.540814e+003;8.469988e-002
3.542743e+003;8.480262e-002
3.544671e+003;8.487384e-002
3.546600e+003;8.441423e-002
3.548528e+003;8.394525e-002
3.550457e+003;8.339407e-002
3.552385e+003;8.295931e-002
3.554314e+003;8.276784e-002
3.556242e+003;8.238058e-002
3.558171e+003;8.193035e-002
3.560100e+003;8.161648e-002
3.562028e+003;8.146049e-002
3.563957e+003;8.101813e-002
3.565885e+003;8.035836e-002
3.567814e+003;8.046805e-002
3.569742e+003;8.076181e-002
3.571671e+003;7.997427e-002
3.573599e+003;7.905084e-002
3.575528e+003;7.906034e-002
3.577457e+003;7.930940e-002
3.579385e+003;7.903390e-002
3.581314e+003;7.846081e-002
3.583242e+003;7.798893e-002
3.585171e+003;7.743178e-002
3.587099e+003;7.703821e-002
3.589028e+003;7.678021e-002
3.590956e+003;7.645205e-002
3.592885e+003;7.644945e-002
3.594813e+003;7.648031e-002
3.596742e+003;7.600268e-002
3.598671e+003;7.528412e-002
3.600599e+003;7.519007e-002
3.602528e+003;7.514776e-002
3.604456e+003;7.442026e-002
3.606385e+003;7.366320e-002
3.608313e+003;7.359698e-002
3.610242e+003;7.335214e-002
3.612170e+003;7.285710e-002
3.614099e+003;7.264672e-002
3.616028e+003;7.244811e-002
3.617956e+003;7.174963e-002
3.619885e+003;7.068969e-002
3.621813e+003;7.044832e-002
3.623742e+003;7.071468e-002
3.625670e+003;7.036880e-002
3.627599e+003;6.915398e-002
3.629527e+003;6.854662e-002
3.631456e+003;6.874194e-002
3.633385e+003;6.858348e-002
3.635313e+003;6.838684e-002
3.637241e+003;6.824467e-002
3.639170e+003;6.795782e-002
3.641099e+003;6.731363e-002
3.643027e+003;6.596733e-002
3.644956e+003;6.514955e-002
3.646884e+003;6.458409e-002
3.648813e+003;6.355068e-002
3.650741e+003;6.303335e-002
3.652670e+003;6.310936e-002
3.654598e+003;6.286095e-002
3.656527e+003;6.225024e-002
3.658456e+003;6.186143e-002
3.660384e+003;6.102799e-002
3.662313e+003;6.007841e-002
3.664241e+003;5.938015e-002
3.666170e+003;5.854911e-002
3.668098e+003;5.796412e-002
3.670027e+003;5.745010e-002
3.671955e+003;5.700575e-002
3.673884e+003;5.620341e-002
3.675813e+003;5.550972e-002
3.677741e+003;5.543552e-002
3.679669e+003;5.497145e-002
3.681598e+003;5.446201e-002
3.683527e+003;5.371336e-002
3.685455e+003;5.317468e-002
3.687384e+003;5.279533e-002
3.689312e+003;5.215212e-002
3.691241e+003;5.188432e-002
3.693169e+003;5.160582e-002
3.695098e+003;5.109868e-002
3.697026e+003;5.109503e-002
3.698955e+003;5.101214e-002
3.700884e+003;5.044674e-002
3.702812e+003;5.012799e-002
3.704741e+003;5.013885e-002
3.706669e+003;5.012937e-002
3.708598e+003;4.973517e-002
3.710526e+003;4.936067e-002
3.712455e+003;4.927541e-002
3.714383e+003;4.935064e-002
3.716312e+003;4.894873e-002
3.718240e+003;4.867245e-002
3.720169e+003;4.852799e-002
3.722098e+003;4.797606e-002
3.724026e+003;4.760706e-002
3.725955e+003;4.749087e-002
3.727883e+003;4.754303e-002
3.729812e+003;4.776330e-002
3.731740e+003;4.761764e-002
3.733669e+003;4.730880e-002
3.735597e+003;4.698777e-002
3.737526e+003;4.753065e-002
3.739455e+003;4.806865e-002
3.741383e+003;4.730115e-002
3.743312e+003;4.593686e-002
3.745240e+003;4.618712e-002
3.747169e+003;4.670863e-002
3.749097e+003;4.640261e-002
3.751026e+003;4.636552e-002
3.752954e+003;4.645530e-002
3.754883e+003;4.674276e-002
3.756812e+003;4.688282e-002
3.758740e+003;4.645213e-002
3.760668e+003;4.613542e-002
3.762597e+003;4.654964e-002
3.764526e+003;4.679058e-002
3.766454e+003;4.693217e-002
3.768383e+003;4.670620e-002
3.770311e+003;4.664189e-002
3.772240e+003;4.663588e-002
3.774168e+003;4.669572e-002
3.776097e+003;4.674243e-002
3.778025e+003;4.646297e-002
3.779954e+003;4.639973e-002
3.781883e+003;4.680815e-002
3.783811e+003;4.692630e-002
3.785740e+003;4.698688e-002
3.787668e+003;4.693981e-002
3.789597e+003;4.693346e-002
3.791525e+003;4.707254e-002
3.793454e+003;4.716048e-002
3.795382e+003;4.708639e-002
3.797311e+003;4.689182e-002
3.799240e+003;4.638642e-002
3.801168e+003;4.586269e-002
3.803097e+003;4.634926e-002
3.805025e+003;4.681768e-002
3.806954e+003;4.649977e-002
3.808882e+003;4.646717e-002
3.810811e+003;4.643675e-002
3.812739e+003;4.632766e-002
3.814668e+003;4.601701e-002
3.816596e+003;4.605620e-002
3.818525e+003;4.633824e-002
3.820454e+003;4.621454e-002
3.822382e+003;4.636246e-002
3.824311e+003;4.720923e-002
3.826239e+003;4.747838e-002
3.828168e+003;4.723635e-002
3.830096e+003;4.708868e-002
3.832025e+003;4.728696e-002
3.833953e+003;4.742113e-002
3.835882e+003;4.712377e-002
3.837811e+003;4.699460e-002
3.839739e+003;4.718500e-002
3.841667e+003;4.704404e-002
3.843596e+003;4.715080e-002
3.845525e+003;4.773434e-002
3.847453e+003;4.794083e-002
3.849382e+003;4.762977e-002
3.851310e+003;4.671608e-002
3.853239e+003;4.593645e-002
3.855167e+003;4.690449e-002
3.857096e+003;4.808383e-002
3.859024e+003;4.794383e-002
3.860953e+003;4.752688e-002
3.862882e+003;4.764666e-002
3.864810e+003;4.773235e-002
3.866739e+003;4.801961e-002
3.868667e+003;4.802125e-002
3.870596e+003;4.779896e-002
3.872524e+003;4.801051e-002
3.874453e+003;4.838604e-002
3.876381e+003;4.916322e-002
3.878310e+003;4.939768e-002
3.880239e+003;4.919020e-002
3.882167e+003;4.905314e-002
3.884096e+003;4.866084e-002
3.886024e+003;4.872830e-002
3.887953e+003;4.926512e-002
3.889881e+003;4.947387e-002
3.891810e+003;4.997815e-002
3.893738e+003;5.045883e-002
3.895667e+003;5.037209e-002
3.897595e+003;4.979291e-002
3.899524e+003;4.948701e-002
3.901453e+003;4.983201e-002
3.903381e+003;5.031111e-002
3.905310e+003;5.026531e-002
3.907238e+003;5.019884e-002
3.909167e+003;5.027022e-002
3.911095e+003;5.049906e-002
3.913024e+003;5.075528e-002
3.914952e+003;5.101367e-002
3.916881e+003;5.144947e-002
3.918810e+003;5.163594e-002
3.920738e+003;5.136495e-002
3.922667e+003;5.125238e-002
3.924595e+003;5.138442e-002
3.926524e+003;5.169468e-002
3.928452e+003;5.174977e-002
3.930381e+003;5.167665e-002
3.932309e+003;5.196065e-002
3.934238e+003;5.222734e-002
3.936167e+003;5.242831e-002
3.938095e+003;5.249288e-002
3.940023e+003;5.240868e-002
3.941952e+003;5.261206e-002
3.943881e+003;5.286239e-002
3.945809e+003;5.256513e-002
3.947738e+003;5.232790e-002
3.949666e+003;5.247568e-002
3.951595e+003;5.262968e-002
3.953523e+003;5.296950e-002
3.955452e+003;5.345591e-002
3.957380e+003;5.354259e-002
3.959309e+003;5.311911e-002
3.961238e+003;5.316681e-002
3.963166e+003;5.354878e-002
3.965095e+003;5.338479e-002
3.967023e+003;5.336178e-002
3.968952e+003;5.333511e-002
3.970880e+003;5.303045e-002
3.972809e+003;5.319584e-002
3.974737e+003;5.379004e-002
3.976666e+003;5.425071e-002
3.978594e+003;5.412717e-002
3.980523e+003;5.394346e-002
3.982452e+003;5.398431e-002
3.984380e+003;5.372442e-002
3.986309e+003;5.381161e-002
3.988237e+003;5.387631e-002
3.990166e+003;5.382200e-002
3.992094e+003;5.384675e-002
3.994023e+003;5.365396e-002
3.995951e+003;5.393970e-002
3.997880e+003;5.435366e-002
3.999809e+003;5.440094e-002
4.001737e+003;0.000000e+000
