3.992094e+002;0.000000e+000
4.011380e+002;0.000000e+000
4.030665e+002;0.000000e+000
4.049951e+002;0.000000e+000
4.069236e+002;0.000000e+000
4.088522e+002;0.000000e+000
4.107807e+002;0.000000e+000
4.127093e+002;0.000000e+000
4.146378e+002;0.000000e+000
4.165664e+002;0.000000e+000
4.184949e+002;0.000000e+000
4.204235e+002;0.000000e+000
4.223520e+002;0.000000e+000
4.242806e+002;0.000000e+000
4.262091e+002;0.000000e+000
4.281377e+002;0.000000e+000
4.300662e+002;0.000000e+000
4.319948e+002;0.000000e+000
4.339233e+002;0.000000e+000
4.358519e+002;0.000000e+000
4.377804e+002;0.000000e+000
4.397090e+002;0.000000e+000
4.416375e+002;0.000000e+000
4.435660e+002;0.000000e+000
4.454946e+002;0.000000e+000
4.474232e+002;0.000000e+000
4.493517e+002;0.000000e+000
4.512802e+002;0.000000e+000
4.532088e+002;0.000000e+000
4.551373e+002;0.000000e+000
4.570659e+002;0.000000e+000
4.589944e+002;0.000000e+000
4.609230e+002;0.000000e+000
4.628515e+002;0.000000e+000
4.647801e+002;0.000000e+000
4.667086e+002;0.000000e+000
4.686372e+002;0.000000e+000
4.705657e+002;0.000000e+000
4.724943e+002;0.000000e+000
4.744228e+002;0.000000e+000
4.763513e+002;0.000000e+000
4.782799e+002;0.000000e+000
4.802085e+002;0.000000e+000
4.821370e+002;0.000000e+000
4.840656e+002;0.000000e+000
4.859941e+002;0.000000e+000
4.879226e+002;0.000000e+000
4.898512e+002;0.000000e+000
4.917798e+002;0.000000e+000
4.937083e+002;0.000000e+000
4.956368e+002;0.000000e+000
4.975654e+002;0.000000e+000
4.994939e+002;0.000000e+000
5.014225e+002;0.000000e+000
5.033510e+002;0.000000e+000
5.052796e+002;0.000000e+000
5.072081e+002;0.000000e+000
5.091367e+002;0.000000e+000
5.110652e+002;0.000000e+000
5.129938e+002;0.000000e+000
5.149223e+002;0.000000e+000
5.168509e+002;0.000000e+000
5.187794e+002;0.000000e+000
5.207079e+002;0.000000e+000
5.226365e+002;0.000000e+000
5.245651e+002;0.000000e+000
5.264936e+002;0.000000e+000
5.284222e+002;0.000000e+000
5.303507e+002;0.000000e+000
5.322792e+002;0.000000e+000
5.342078e+002;0.000000e+000
5.361364e+002;0.000000e+000
5.380649e+002;0.000000e+000
5.399935e+002;0.000000e+000
5.419220e+002;0.000000e+000
5.438505e+002;0.000000e+000
5.457791e+002;0.000000e+000
5.477076e+002;0.000000e+000
5.496362e+002;0.000000e+000
5.515648e+002;0.000000e+000
5.534933e+002;0.000000e+000
5.554218e+002;0.000000e+000
5.573504e+002;0.000000e+000
5.592789e+002;0.000000e+000
5.612075e+002;0.000000e+000
5.631360e+002;0.000000e+000
5.650646e+002;0.000000e+000
5.669931e+002;0.000000e+000
5.689217e+002;0.000000e+000
5.708502e+002;0.000000e+000
5.727787e+002;0.000000e+000
5.747073e+002;0.000000e+000
5.766359e+002;0.000000e+000
5.785644e+002;0.000000e+000
5.804930e+002;0.000000e+000
5.824215e+002;0.000000e+000
5.843500e+002;0.000000e+000
5.862786e+002;0.000000e+000
5.882072e+002;0.000000e+000
5.901357e+002;0.000000e+000
5.920643e+002;0.000000e+000
5.939928e+002;0.000000e+000
5.959213e+002;0.000000e+000
5.978499e+002;0.000000e+000
5.997784e+002;2.699687e-001
6.017070e+002;2.600296e-001
6.036355e+002;2.573828e-001
6.055641e+002;2.657980e-001
6.074926e+002;2.719067e-001
6.094211e+002;2.719626e-001
6.113497e+002;2.686244e-001
6.132783e+002;2.663120e-001
6.152068e+002;2.658555e-001
6.171354e+002;2.628542e-001
6.190639e+002;2.642338e-001
6.209924e+002;2.683565e-001
6.229210e+002;2.696536e-001
6.248495e+002;2.672985e-001
6.267781e+002;2.622769e-001
6.287067e+002;2.578640e-001
6.306352e+002;2.572227e-001
6.325637e+002;2.557324e-001
6.344923e+002;2.543122e-001
6.364208e+002;2.532710e-001
6.383494e+002;2.519580e-001
6.402780e+002;2.484356e-001
6.422065e+002;2.489537e-001
6.441350e+002;2.513252e-001
6.460636e+002;2.512072e-001
6.479921e+002;2.450623e-001
6.499207e+002;2.410557e-001
6.518492e+002;2.451156e-001
6.537778e+002;2.453038e-001
6.557063e+002;2.409525e-001
6.576349e+002;2.382353e-001
6.595634e+002;2.393303e-001
6.614919e+002;2.412812e-001
6.634205e+002;2.412032e-001
6.653491e+002;2.412829e-001
6.672776e+002;2.413842e-001
6.692062e+002;2.409904e-001
6.711347e+002;2.411695e-001
6.730632e+002;2.409844e-001
6.749918e+002;2.419467e-001
6.769203e+002;2.428728e-001
6.788489e+002;2.423867e-001
6.807775e+002;2.417173e-001
6.827060e+002;2.404537e-001
6.846345e+002;2.400885e-001
6.865631e+002;2.404267e-001
6.884916e+002;2.394579e-001
6.904202e+002;2.372546e-001
6.923488e+002;2.356894e-001
6.942773e+002;2.340491e-001
6.962058e+002;2.328335e-001
6.981344e+002;2.319059e-001
7.000629e+002;2.303503e-001
7.019915e+002;2.273116e-001
7.039200e+002;2.238154e-001
7.058486e+002;2.216588e-001
7.077771e+002;2.198501e-001
7.097057e+002;2.172391e-001
7.116342e+002;2.151374e-001
7.135627e+002;2.124272e-001
7.154913e+002;2.091285e-001
7.174199e+002;2.073260e-001
7.193484e+002;2.062308e-001
7.212770e+002;2.036466e-001
7.232055e+002;1.997935e-001
7.251340e+002;1.970548e-001
7.270626e+002;1.949074e-001
7.289911e+002;1.917154e-001
7.309197e+002;1.875604e-001
7.328483e+002;1.844671e-001
7.347768e+002;1.830897e-001
7.367053e+002;1.808693e-001
7.386339e+002;1.771627e-001
7.405624e+002;1.741065e-001
7.424910e+002;1.710621e-001
7.444196e+002;1.679385e-001
7.463481e+002;1.657884e-001
7.482766e+002;1.638338e-001
7.502052e+002;1.619984e-001
7.521337e+002;1.603684e-001
7.540623e+002;1.586476e-001
7.559908e+002;1.566831e-001
7.579194e+002;1.550685e-001
7.598479e+002;1.534573e-001
7.617765e+002;1.516257e-001
7.637050e+002;1.501615e-001
7.656335e+002;1.495974e-001
7.675621e+002;1.487000e-001
7.694907e+002;1.466958e-001
7.714192e+002;1.443823e-001
7.733478e+002;1.424454e-001
7.752763e+002;1.402516e-001
7.772048e+002;1.382936e-001
7.791334e+002;1.370778e-001
7.810620e+002;1.362744e-001
7.829905e+002;1.353533e-001
7.849191e+002;1.340716e-001
7.868476e+002;1.320712e-001
7.887761e+002;1.300209e-001
7.907047e+002;1.285652e-001
7.926332e+002;1.276761e-001
7.945618e+002;1.263822e-001
7.964903e+002;1.264483e-001
7.984189e+002;1.268401e-001
8.003474e+002;1.256279e-001
8.022759e+002;1.245674e-001
8.042045e+002;1.246455e-001
8.061331e+002;1.246239e-001
8.080616e+002;1.240069e-001
8.099902e+002;1.240282e-001
8.119187e+002;1.241859e-001
8.138472e+002;1.242458e-001
8.157758e+002;1.242142e-001
8.177043e+002;1.242031e-001
8.196329e+002;1.237781e-001
8.215615e+002;1.240261e-001
8.234900e+002;1.254564e-001
8.254185e+002;1.265495e-001
8.273471e+002;1.273319e-001
8.292756e+002;1.268771e-001
8.312042e+002;1.248677e-001
8.331328e+002;1.231564e-001
8.350613e+002;1.213192e-001
8.369898e+002;1.201205e-001
8.389184e+002;1.193553e-001
8.408469e+002;1.185319e-001
8.427755e+002;1.186127e-001
8.447040e+002;1.193380e-001
8.466326e+002;1.194482e-001
8.485611e+002;1.194596e-001
8.504897e+002;1.195660e-001
8.524182e+002;1.194103e-001
8.543467e+002;1.186000e-001
8.562753e+002;1.162444e-001
8.582039e+002;1.140902e-001
8.601324e+002;1.129949e-001
8.620610e+002;1.115456e-001
8.639895e+002;1.100713e-001
8.659180e+002;1.093431e-001
8.678466e+002;1.091929e-001
8.697751e+002;1.093029e-001
8.717037e+002;1.099220e-001
8.736323e+002;1.109515e-001
8.755608e+002;1.111888e-001
8.774893e+002;1.107589e-001
8.794179e+002;1.103547e-001
8.813464e+002;1.100832e-001
8.832750e+002;1.097761e-001
8.852036e+002;1.096095e-001
8.871321e+002;1.097146e-001
8.890606e+002;1.094938e-001
8.909892e+002;1.093175e-001
8.929177e+002;1.096580e-001
8.948463e+002;1.101269e-001
8.967748e+002;1.104166e-001
8.987034e+002;1.099565e-001
9.006319e+002;1.093348e-001
9.025605e+002;1.089515e-001
9.044890e+002;1.088071e-001
9.064175e+002;1.090827e-001
9.083461e+002;1.095323e-001
9.102747e+002;1.097639e-001
9.122032e+002;1.101137e-001
9.141318e+002;1.106709e-001
9.160603e+002;1.115879e-001
9.179888e+002;1.127746e-001
9.199174e+002;1.143288e-001
9.218459e+002;1.157775e-001
9.237745e+002;1.168000e-001
9.257031e+002;1.176438e-001
9.276316e+002;1.185693e-001
9.295601e+002;1.188118e-001
9.314887e+002;1.185975e-001
9.334172e+002;1.185100e-001
9.353458e+002;1.184354e-001
9.372744e+002;1.184676e-001
9.392029e+002;1.184761e-001
9.411314e+002;1.190036e-001
9.430600e+002;1.196814e-001
9.449885e+002;1.201095e-001
9.469171e+002;1.207511e-001
9.488456e+002;1.217720e-001
9.507742e+002;1.227628e-001
9.527027e+002;1.237642e-001
9.546313e+002;1.249339e-001
9.565598e+002;1.262517e-001
9.584883e+002;1.276359e-001
9.604169e+002;1.293450e-001
9.623455e+002;1.313794e-001
9.642740e+002;1.331626e-001
9.662026e+002;1.349050e-001
9.681311e+002;1.369768e-001
9.700596e+002;1.389027e-001
9.719882e+002;1.404682e-001
9.739167e+002;1.413914e-001
9.758453e+002;1.416195e-001
9.777739e+002;1.412107e-001
9.797024e+002;1.403307e-001
9.816309e+002;1.393496e-001
9.835595e+002;1.386061e-001
9.854880e+002;1.389695e-001
9.874166e+002;1.404575e-001
9.893452e+002;1.426310e-001
9.912737e+002;1.451107e-001
9.932022e+002;1.470543e-001
9.951307e+002;1.481711e-001
9.970593e+002;1.486516e-001
9.989879e+002;1.485015e-001
1.000916e+003;1.479022e-001
1.002845e+003;1.469517e-001
1.004773e+003;1.459022e-001
1.006702e+003;1.455630e-001
1.008631e+003;1.458426e-001
1.010559e+003;1.462743e-001
1.012488e+003;1.467045e-001
1.014416e+003;1.462924e-001
1.016345e+003;1.455981e-001
1.018273e+003;1.453562e-001
1.020202e+003;1.450200e-001
1.022130e+003;1.447430e-001
1.024059e+003;1.451153e-001
1.025988e+003;1.461289e-001
1.027916e+003;1.474650e-001
1.029845e+003;1.499476e-001
1.031773e+003;1.527011e-001
1.033702e+003;1.549056e-001
1.035630e+003;1.569336e-001
1.037559e+003;1.584588e-001
1.039487e+003;1.595368e-001
1.041416e+003;1.607182e-001
1.043344e+003;1.616806e-001
1.045273e+003;1.622823e-001
1.047202e+003;1.631332e-001
1.049130e+003;1.638337e-001
1.051059e+003;1.642700e-001
1.052987e+003;1.649901e-001
1.054916e+003;1.664605e-001
1.056844e+003;1.678777e-001
1.058773e+003;1.685826e-001
1.060701e+003;1.697613e-001
1.062630e+003;1.704803e-001
1.064558e+003;1.705420e-001
1.066487e+003;1.708627e-001
1.068416e+003;1.705463e-001
1.070344e+003;1.697547e-001
1.072273e+003;1.678777e-001
1.074201e+003;1.648841e-001
1.076130e+003;1.618737e-001
1.078058e+003;1.588085e-001
1.079987e+003;1.548490e-001
1.081915e+003;1.515815e-001
1.083844e+003;1.488506e-001
1.085773e+003;1.459083e-001
1.087701e+003;1.430888e-001
1.089630e+003;1.408916e-001
1.091558e+003;1.392442e-001
1.093487e+003;1.378946e-001
1.095415e+003;1.371554e-001
1.097344e+003;1.374068e-001
1.099272e+003;1.379200e-001
1.101201e+003;1.383467e-001
1.103129e+003;1.385202e-001
1.105058e+003;1.378163e-001
1.106987e+003;1.364492e-001
1.108915e+003;1.353702e-001
1.110844e+003;1.347733e-001
1.112772e+003;1.345497e-001
1.114701e+003;1.349814e-001
1.116629e+003;1.349434e-001
1.118558e+003;1.347187e-001
1.120486e+003;1.353351e-001
1.122415e+003;1.359981e-001
1.124344e+003;1.364004e-001
1.126272e+003;1.373388e-001
1.128201e+003;1.385736e-001
1.130129e+003;1.399993e-001
1.132058e+003;1.414237e-001
1.133986e+003;1.429421e-001
1.135915e+003;1.448020e-001
1.137843e+003;1.469657e-001
1.139772e+003;1.490962e-001
1.141700e+003;1.514123e-001
1.143629e+003;1.541597e-001
1.145557e+003;1.565077e-001
1.147486e+003;1.588801e-001
1.149415e+003;1.614114e-001
1.151343e+003;1.638457e-001
1.153272e+003;1.663292e-001
1.155200e+003;1.687377e-001
1.157129e+003;1.707340e-001
1.159057e+003;1.724763e-001
1.160986e+003;1.739364e-001
1.162914e+003;1.750103e-001
1.164843e+003;1.756713e-001
1.166771e+003;1.763444e-001
1.168700e+003;1.773254e-001
1.170629e+003;1.774964e-001
1.172557e+003;1.763920e-001
1.174486e+003;1.744686e-001
1.176414e+003;1.726933e-001
1.178343e+003;1.711695e-001
1.180271e+003;1.700079e-001
1.182200e+003;1.692456e-001
1.184128e+003;1.690275e-001
1.186057e+003;1.696072e-001
1.187986e+003;1.709611e-001
1.189914e+003;1.729961e-001
1.191843e+003;1.753502e-001
1.193771e+003;1.782624e-001
1.195700e+003;1.814886e-001
1.197628e+003;1.851116e-001
1.199557e+003;1.892834e-001
1.201485e+003;1.938400e-001
1.203414e+003;1.987292e-001
1.205343e+003;2.040271e-001
1.207271e+003;2.095048e-001
1.209200e+003;2.146077e-001
1.211128e+003;2.191177e-001
1.213057e+003;2.234881e-001
1.214985e+003;2.276473e-001
1.216914e+003;2.315348e-001
1.218842e+003;2.348406e-001
1.220771e+003;2.376199e-001
1.222699e+003;2.399584e-001
1.224628e+003;2.418278e-001
1.226557e+003;2.430734e-001
1.228485e+003;2.434551e-001
1.230414e+003;2.426925e-001
1.232342e+003;2.405677e-001
1.234271e+003;2.381659e-001
1.236199e+003;2.357916e-001
1.238128e+003;2.333046e-001
1.240056e+003;2.308668e-001
1.241985e+003;2.281504e-001
1.243913e+003;2.259466e-001
1.245842e+003;2.243200e-001
1.247771e+003;2.227858e-001
1.249699e+003;2.212405e-001
1.251628e+003;2.196299e-001
1.253556e+003;2.183253e-001
1.255485e+003;2.175197e-001
1.257413e+003;2.165582e-001
1.259342e+003;2.148182e-001
1.261270e+003;2.123937e-001
1.263199e+003;2.095270e-001
1.265127e+003;2.065431e-001
1.267056e+003;2.034031e-001
1.268985e+003;2.002188e-001
1.270913e+003;1.968870e-001
1.272842e+003;1.935138e-001
1.274770e+003;1.905519e-001
1.276699e+003;1.877367e-001
1.278627e+003;1.849963e-001
1.280556e+003;1.828098e-001
1.282484e+003;1.812079e-001
1.284413e+003;1.800196e-001
1.286342e+003;1.789174e-001
1.288270e+003;1.780733e-001
1.290199e+003;1.777334e-001
1.292127e+003;1.774188e-001
1.294056e+003;1.771602e-001
1.295984e+003;1.771120e-001
1.297913e+003;1.769313e-001
1.299841e+003;1.765071e-001
1.301770e+003;1.764778e-001
1.303698e+003;1.766318e-001
1.305627e+003;1.764554e-001
1.307556e+003;1.760816e-001
1.309484e+003;1.757563e-001
1.311413e+003;1.754412e-001
1.313341e+003;1.750573e-001
1.315270e+003;1.748564e-001
1.317198e+003;1.749544e-001
1.319127e+003;1.753418e-001
1.321055e+003;1.757909e-001
1.322984e+003;1.762370e-001
1.324912e+003;1.768443e-001
1.326841e+003;1.777821e-001
1.328770e+003;1.784571e-001
1.330698e+003;1.788532e-001
1.332627e+003;1.792444e-001
1.334555e+003;1.794416e-001
1.336484e+003;1.791954e-001
1.338412e+003;1.788101e-001
1.340341e+003;1.785031e-001
1.342269e+003;1.783068e-001
1.344198e+003;1.780008e-001
1.346126e+003;1.776845e-001
1.348055e+003;1.776290e-001
1.349984e+003;1.776219e-001
1.351912e+003;1.779044e-001
1.353841e+003;1.785712e-001
1.355769e+003;1.796986e-001
1.357698e+003;1.814730e-001
1.359626e+003;1.839090e-001
1.361555e+003;1.868145e-001
1.363483e+003;1.901529e-001
1.365412e+003;1.931338e-001
1.367341e+003;1.950875e-001
1.369269e+003;1.959687e-001
1.371198e+003;1.959169e-001
1.373126e+003;1.953578e-001
1.375055e+003;1.949757e-001
1.376983e+003;1.950474e-001
1.378912e+003;1.951543e-001
1.380840e+003;1.955160e-001
1.382769e+003;1.958120e-001
1.384698e+003;1.961205e-001
1.386626e+003;1.964708e-001
1.388555e+003;1.969613e-001
1.390483e+003;1.974868e-001
1.392412e+003;1.978178e-001
1.394340e+003;1.982701e-001
1.396269e+003;1.990535e-001
1.398197e+003;1.999864e-001
1.400126e+003;2.013883e-001
1.402054e+003;2.029231e-001
1.403983e+003;2.040678e-001
1.405911e+003;2.050084e-001
1.407840e+003;2.059669e-001
1.409769e+003;2.067744e-001
1.411697e+003;2.071100e-001
1.413626e+003;2.072050e-001
1.415554e+003;2.075475e-001
1.417483e+003;2.080738e-001
1.419411e+003;2.087686e-001
1.421340e+003;2.097664e-001
1.423268e+003;2.114867e-001
1.425197e+003;2.142934e-001
1.427125e+003;2.181564e-001
1.429054e+003;2.229471e-001
1.430983e+003;2.287621e-001
1.432911e+003;2.350549e-001
1.434840e+003;2.412298e-001
1.436768e+003;2.467460e-001
1.438697e+003;2.508181e-001
1.440625e+003;2.532337e-001
1.442554e+003;2.547911e-001
1.444482e+003;2.554533e-001
1.446411e+003;2.544515e-001
1.448340e+003;2.518428e-001
1.450268e+003;2.479161e-001
1.452197e+003;2.431117e-001
1.454125e+003;2.375631e-001
1.456054e+003;2.319712e-001
1.457982e+003;2.277007e-001
1.459911e+003;2.251222e-001
1.461839e+003;2.237364e-001
1.463768e+003;2.232078e-001
1.465697e+003;2.234547e-001
1.467625e+003;2.246457e-001
1.469554e+003;2.261818e-001
1.471482e+003;2.279587e-001
1.473411e+003;2.306207e-001
1.475339e+003;2.343509e-001
1.477268e+003;2.391841e-001
1.479196e+003;2.452963e-001
1.481125e+003;2.522358e-001
1.483053e+003;2.600203e-001
1.484982e+003;2.685055e-001
1.486911e+003;2.774537e-001
1.488839e+003;2.868981e-001
1.490768e+003;2.967138e-001
1.492696e+003;3.065976e-001
1.494625e+003;3.162865e-001
1.496553e+003;3.254688e-001
1.498482e+003;3.341448e-001
1.500410e+003;3.420307e-001
1.502339e+003;3.491434e-001
1.504267e+003;3.555889e-001
1.506196e+003;3.608398e-001
1.508125e+003;3.653651e-001
1.510053e+003;3.696248e-001
1.511982e+003;3.723334e-001
1.513910e+003;3.718469e-001
1.515839e+003;3.671031e-001
1.517767e+003;3.588259e-001
1.519696e+003;3.491268e-001
1.521624e+003;3.396126e-001
1.523553e+003;3.318211e-001
1.525481e+003;3.248834e-001
1.527410e+003;3.182900e-001
1.529339e+003;3.120529e-001
1.531267e+003;3.060922e-001
1.533196e+003;3.003015e-001
1.535124e+003;2.944141e-001
1.537053e+003;2.880574e-001
1.538981e+003;2.816955e-001
1.540910e+003;2.761015e-001
1.542838e+003;2.710653e-001
1.544767e+003;2.661428e-001
1.546695e+003;2.611945e-001
1.548624e+003;2.563975e-001
1.550553e+003;2.511676e-001
1.552481e+003;2.458135e-001
1.554410e+003;2.403414e-001
1.556338e+003;2.348445e-001
1.558267e+003;2.291705e-001
1.560195e+003;2.235749e-001
1.562124e+003;2.187630e-001
1.564052e+003;2.135540e-001
1.565981e+003;2.082347e-001
1.567910e+003;2.035596e-001
1.569838e+003;1.995997e-001
1.571767e+003;1.961769e-001
1.573695e+003;1.932559e-001
1.575624e+003;1.909620e-001
1.577552e+003;1.900410e-001
1.579481e+003;1.902156e-001
1.581409e+003;1.907785e-001
1.583338e+003;1.919245e-001
1.585266e+003;1.939601e-001
1.587195e+003;1.969991e-001
1.589124e+003;2.009381e-001
1.591052e+003;2.058060e-001
1.592981e+003;2.112887e-001
1.594909e+003;2.172781e-001
1.596838e+003;2.236437e-001
1.598766e+003;2.306586e-001
1.600695e+003;2.390406e-001
1.602623e+003;2.491330e-001
1.604552e+003;2.606713e-001
1.606480e+003;2.737913e-001
1.608409e+003;2.880819e-001
1.610338e+003;3.027906e-001
1.612266e+003;3.169768e-001
1.614195e+003;3.305259e-001
1.616123e+003;3.434611e-001
1.618052e+003;3.550587e-001
1.619980e+003;3.644542e-001
1.621909e+003;3.702540e-001
1.623837e+003;3.731498e-001
1.625766e+003;3.731785e-001
1.627694e+003;3.703548e-001
1.629623e+003;3.652976e-001
1.631552e+003;3.586037e-001
1.633480e+003;3.509873e-001
1.635409e+003;3.428677e-001
1.637337e+003;3.348827e-001
1.639266e+003;3.272711e-001
1.641194e+003;3.200244e-001
1.643123e+003;3.128517e-001
1.645051e+003;3.054994e-001
1.646980e+003;2.984287e-001
1.648909e+003;2.916276e-001
1.650837e+003;2.843433e-001
1.652766e+003;2.766213e-001
1.654694e+003;2.694178e-001
1.656623e+003;2.623113e-001
1.658551e+003;2.548751e-001
1.660480e+003;2.474103e-001
1.662408e+003;2.398361e-001
1.664337e+003;2.328996e-001
1.666266e+003;2.265534e-001
1.668194e+003;2.201407e-001
1.670123e+003;2.140819e-001
1.672051e+003;2.086219e-001
1.673980e+003;2.029366e-001
1.675908e+003;1.973296e-001
1.677837e+003;1.922657e-001
1.679765e+003;1.874396e-001
1.681694e+003;1.826252e-001
1.683622e+003;1.779712e-001
1.685551e+003;1.739097e-001
1.687479e+003;1.707218e-001
1.689408e+003;1.682340e-001
1.691337e+003;1.662259e-001
1.693265e+003;1.644021e-001
1.695194e+003;1.622686e-001
1.697122e+003;1.601439e-001
1.699051e+003;1.563257e-001
1.700979e+003;1.493520e-001
1.702908e+003;1.400666e-001
1.704836e+003;1.287996e-001
1.706765e+003;1.176658e-001
1.708693e+003;1.083910e-001
1.710622e+003;1.010622e-001
1.712551e+003;9.526562e-002
1.714479e+003;9.051768e-002
1.716408e+003;8.654790e-002
1.718336e+003;8.372200e-002
1.720265e+003;8.157970e-002
1.722193e+003;7.985754e-002
1.724122e+003;7.867585e-002
1.726050e+003;7.772648e-002
1.727979e+003;7.669745e-002
1.729908e+003;7.573409e-002
1.731836e+003;7.488630e-002
1.733765e+003;7.415830e-002
1.735693e+003;7.400441e-002
1.737622e+003;7.389826e-002
1.739550e+003;7.334603e-002
1.741479e+003;7.314859e-002
1.743407e+003;7.290848e-002
1.745336e+003;7.254572e-002
1.747265e+003;7.208156e-002
1.749193e+003;7.172586e-002
1.751122e+003;7.139448e-002
1.753050e+003;7.110081e-002
1.754979e+003;7.076600e-002
1.756907e+003;7.065670e-002
1.758836e+003;7.070345e-002
1.760764e+003;7.058037e-002
1.762693e+003;7.044201e-002
1.764621e+003;7.044801e-002
1.766550e+003;7.013014e-002
1.768479e+003;6.972939e-002
1.770407e+003;6.968711e-002
1.772336e+003;6.975748e-002
1.774264e+003;6.976616e-002
1.776193e+003;6.957917e-002
1.778121e+003;6.925742e-002
1.780050e+003;6.914089e-002
1.781978e+003;6.907376e-002
1.783907e+003;6.899895e-002
1.785835e+003;6.885821e-002
1.787764e+003;6.894247e-002
1.789693e+003;6.886842e-002
1.791621e+003;6.827515e-002
1.793550e+003;6.812403e-002
1.795478e+003;6.834871e-002
1.797407e+003;6.830641e-002
1.799335e+003;6.821521e-002
1.801264e+003;6.826624e-002
1.803192e+003;6.823603e-002
1.805121e+003;6.789037e-002
1.807049e+003;6.765582e-002
1.808978e+003;6.748990e-002
1.810907e+003;6.736111e-002
1.812835e+003;6.729387e-002
1.814764e+003;6.711714e-002
1.816692e+003;6.693932e-002
1.818621e+003;6.688818e-002
1.820549e+003;6.653502e-002
1.822478e+003;6.622976e-002
1.824406e+003;6.629553e-002
1.826335e+003;6.618125e-002
1.828264e+003;6.595024e-002
1.830192e+003;6.595607e-002
1.832121e+003;6.582164e-002
1.834049e+003;6.546861e-002
1.835978e+003;6.527475e-002
1.837906e+003;6.520433e-002
1.839835e+003;6.522470e-002
1.841763e+003;6.525169e-002
1.843692e+003;6.494772e-002
1.845620e+003;6.459901e-002
1.847549e+003;6.447107e-002
1.849478e+003;6.443087e-002
1.851406e+003;6.448133e-002
1.853335e+003;6.459855e-002
1.855263e+003;6.449025e-002
1.857192e+003;6.427551e-002
1.859120e+003;6.418704e-002
1.861049e+003;6.426226e-002
1.862977e+003;6.426137e-002
1.864906e+003;6.413611e-002
1.866834e+003;6.409356e-002
1.868763e+003;6.412636e-002
1.870692e+003;6.423721e-002
1.872620e+003;6.434563e-002
1.874549e+003;6.444348e-002
1.876477e+003;6.423406e-002
1.878406e+003;6.412324e-002
1.880334e+003;6.434717e-002
1.882263e+003;6.430870e-002
1.884191e+003;6.414909e-002
1.886120e+003;6.418919e-002
1.888048e+003;6.416745e-002
1.889977e+003;6.393291e-002
1.891906e+003;6.398773e-002
1.893834e+003;6.418305e-002
1.895763e+003;6.395148e-002
1.897691e+003;6.370708e-002
1.899620e+003;6.361881e-002
1.901548e+003;6.358179e-002
1.903477e+003;6.365041e-002
1.905405e+003;6.353262e-002
1.907334e+003;6.333016e-002
1.909262e+003;6.331279e-002
1.911191e+003;6.340890e-002
1.913120e+003;6.330957e-002
1.915048e+003;6.305698e-002
1.916977e+003;6.292104e-002
1.918905e+003;6.306595e-002
1.920834e+003;6.318036e-002
1.922762e+003;6.308059e-002
1.924691e+003;6.320137e-002
1.926619e+003;6.325556e-002
1.928548e+003;6.322014e-002
1.930477e+003;6.334154e-002
1.932405e+003;6.337513e-002
1.934334e+003;6.307254e-002
1.936262e+003;6.284211e-002
1.938191e+003;6.304603e-002
1.940119e+003;6.314860e-002
1.942048e+003;6.314047e-002
1.943976e+003;6.321329e-002
1.945905e+003;6.315143e-002
1.947833e+003;6.335032e-002
1.949762e+003;6.350355e-002
1.951691e+003;6.337072e-002
1.953619e+003;6.334346e-002
1.955548e+003;6.328561e-002
1.957476e+003;6.316538e-002
1.959405e+003;6.309346e-002
1.961333e+003;6.313086e-002
1.963262e+003;6.334116e-002
1.965190e+003;6.347248e-002
1.967119e+003;6.349484e-002
1.969047e+003;6.336681e-002
1.970976e+003;6.325603e-002
1.972905e+003;6.341769e-002
1.974833e+003;6.341995e-002
1.976762e+003;6.323655e-002
1.978690e+003;6.322517e-002
1.980619e+003;6.317910e-002
1.982547e+003;6.316680e-002
1.984476e+003;6.337497e-002
1.986404e+003;6.346343e-002
1.988333e+003;6.343041e-002
1.990261e+003;6.337647e-002
1.992190e+003;6.335895e-002
1.994119e+003;6.312216e-002
1.996047e+003;6.283223e-002
1.997976e+003;6.298842e-002
1.999904e+003;6.324023e-002
2.001833e+003;6.316400e-002
2.003761e+003;6.294256e-002
2.005690e+003;6.286872e-002
2.007618e+003;6.298102e-002
2.009547e+003;6.289764e-002
2.011476e+003;6.282430e-002
2.013404e+003;6.288373e-002
2.015333e+003;6.278858e-002
2.017261e+003;6.272843e-002
2.019190e+003;6.289189e-002
2.021118e+003;6.299255e-002
2.023047e+003;6.293927e-002
2.024975e+003;6.299182e-002
2.026904e+003;6.311925e-002
2.028833e+003;6.303511e-002
2.030761e+003;6.281018e-002
2.032690e+003;6.271175e-002
2.034618e+003;6.288787e-002
2.036547e+003;6.302144e-002
2.038475e+003;6.288669e-002
2.040404e+003;6.283924e-002
2.042332e+003;6.275355e-002
2.044261e+003;6.257617e-002
2.046189e+003;6.245048e-002
2.048118e+003;6.260487e-002
2.050047e+003;6.286401e-002
2.051975e+003;6.279532e-002
2.053904e+003;6.259148e-002
2.055832e+003;6.252749e-002
2.057761e+003;6.265092e-002
2.059689e+003;6.287692e-002
2.061618e+003;6.285972e-002
2.063546e+003;6.274348e-002
2.065475e+003;6.269513e-002
2.067404e+003;6.283867e-002
2.069332e+003;6.298565e-002
2.071260e+003;6.299795e-002
2.073189e+003;6.291927e-002
2.075118e+003;6.282618e-002
2.077046e+003;6.283686e-002
2.078975e+003;6.300266e-002
2.080903e+003;6.323230e-002
2.082832e+003;6.337344e-002
2.084760e+003;6.328461e-002
2.086689e+003;6.326733e-002
2.088617e+003;6.335634e-002
2.090546e+003;6.318228e-002
2.092475e+003;6.308150e-002
2.094403e+003;6.321298e-002
2.096332e+003;6.328776e-002
2.098260e+003;6.328557e-002
2.100189e+003;6.335255e-002
2.102117e+003;6.331965e-002
2.104046e+003;6.336983e-002
2.105974e+003;6.327542e-002
2.107903e+003;6.321543e-002
2.109832e+003;6.330895e-002
2.111760e+003;6.313588e-002
2.113688e+003;6.303415e-002
2.115617e+003;6.318501e-002
2.117546e+003;6.320126e-002
2.119474e+003;6.293770e-002
2.121403e+003;6.273995e-002
2.123331e+003;6.285819e-002
2.125260e+003;6.297103e-002
2.127188e+003;6.301910e-002
2.129117e+003;6.299516e-002
2.131045e+003;6.268211e-002
2.132974e+003;6.253331e-002
2.134903e+003;6.276553e-002
2.136831e+003;6.287910e-002
2.138760e+003;6.291281e-002
2.140688e+003;6.287753e-002
2.142617e+003;6.270845e-002
2.144545e+003;6.263017e-002
2.146474e+003;6.262581e-002
2.148402e+003;6.252864e-002
2.150331e+003;6.235499e-002
2.152260e+003;6.229881e-002
2.154188e+003;6.252979e-002
2.156117e+003;6.267174e-002
2.158045e+003;6.261785e-002
2.159974e+003;6.261241e-002
2.161902e+003;6.265046e-002
2.163831e+003;6.258034e-002
2.165759e+003;6.241126e-002
2.167688e+003;6.230814e-002
2.169616e+003;6.230232e-002
2.171545e+003;6.226083e-002
2.173474e+003;6.228672e-002
2.175402e+003;6.220592e-002
2.177331e+003;6.230821e-002
2.179259e+003;6.258234e-002
2.181188e+003;6.259535e-002
2.183116e+003;6.248208e-002
2.185045e+003;6.261188e-002
2.186973e+003;6.281251e-002
2.188902e+003;6.256534e-002
2.190831e+003;6.234314e-002
2.192759e+003;6.236138e-002
2.194688e+003;6.235033e-002
2.196616e+003;6.233392e-002
2.198545e+003;6.235400e-002
2.200473e+003;6.226014e-002
2.202402e+003;6.210346e-002
2.204330e+003;6.231659e-002
2.206259e+003;6.235687e-002
2.208188e+003;6.200457e-002
2.210116e+003;6.194817e-002
2.212044e+003;6.196689e-002
2.213973e+003;6.212036e-002
2.215902e+003;6.205575e-002
2.217830e+003;6.177792e-002
2.219759e+003;6.192470e-002
2.221687e+003;6.219621e-002
2.223616e+003;6.213121e-002
2.225544e+003;6.183465e-002
2.227473e+003;6.170905e-002
2.229401e+003;6.176298e-002
2.231330e+003;6.160102e-002
2.233259e+003;6.146793e-002
2.235187e+003;6.156265e-002
2.237116e+003;6.158009e-002
2.239044e+003;6.173357e-002
2.240973e+003;6.179045e-002
2.242901e+003;6.143178e-002
2.244830e+003;6.130955e-002
2.246758e+003;6.141411e-002
2.248687e+003;6.139239e-002
2.250615e+003;6.149400e-002
2.252544e+003;6.170287e-002
2.254473e+003;6.160785e-002
2.256401e+003;6.147473e-002
2.258330e+003;6.142465e-002
2.260258e+003;6.111529e-002
2.262187e+003;6.093820e-002
2.264115e+003;6.106887e-002
2.266044e+003;6.101472e-002
2.267972e+003;6.100614e-002
2.269901e+003;6.115202e-002
2.271830e+003;6.117273e-002
2.273758e+003;6.109626e-002
2.275687e+003;6.106895e-002
2.277615e+003;6.113074e-002
2.279544e+003;6.127463e-002
2.281472e+003;6.133862e-002
2.283401e+003;6.113844e-002
2.285329e+003;6.118940e-002
2.287258e+003;6.142060e-002
2.289187e+003;6.146923e-002
2.291115e+003;6.144980e-002
2.293043e+003;6.142701e-002
2.294972e+003;6.130516e-002
2.296901e+003;6.138354e-002
2.298829e+003;6.168827e-002
2.300758e+003;6.158158e-002
2.302686e+003;6.141625e-002
2.304615e+003;6.149698e-002
2.306543e+003;6.146430e-002
2.308472e+003;6.153153e-002
2.310400e+003;6.134019e-002
2.312329e+003;6.115519e-002
2.314258e+003;6.124689e-002
2.316186e+003;6.131489e-002
2.318115e+003;6.139186e-002
2.320043e+003;6.147354e-002
2.321972e+003;6.150881e-002
2.323900e+003;6.128238e-002
2.325829e+003;6.099825e-002
2.327757e+003;6.110495e-002
2.329686e+003;6.137442e-002
2.331615e+003;6.110064e-002
2.333543e+003;6.082548e-002
2.335472e+003;6.085513e-002
2.337400e+003;6.097362e-002
2.339329e+003;6.088742e-002
2.341257e+003;6.088033e-002
2.343186e+003;6.116751e-002
2.345114e+003;6.107856e-002
2.347043e+003;6.091243e-002
2.348971e+003;6.108604e-002
2.350900e+003;6.125639e-002
2.352829e+003;6.109687e-002
2.354757e+003;6.092493e-002
2.356686e+003;6.089199e-002
2.358614e+003;6.096314e-002
2.360543e+003;6.098632e-002
2.362471e+003;6.079731e-002
2.364400e+003;6.084576e-002
2.366328e+003;6.129016e-002
2.368257e+003;6.164791e-002
2.370186e+003;6.164978e-002
2.372114e+003;6.165635e-002
2.374042e+003;6.163672e-002
2.375971e+003;6.142281e-002
2.377900e+003;6.150740e-002
2.379828e+003;6.189463e-002
2.381757e+003;6.195554e-002
2.383685e+003;6.175997e-002
2.385614e+003;6.167689e-002
2.387542e+003;6.167097e-002
2.389471e+003;6.167945e-002
2.391399e+003;6.167017e-002
2.393328e+003;6.185558e-002
2.395257e+003;6.210403e-002
2.397185e+003;6.222622e-002
2.399114e+003;6.226427e-002
2.401042e+003;6.233460e-002
2.402971e+003;6.254127e-002
2.404899e+003;6.264330e-002
2.406828e+003;6.266355e-002
2.408756e+003;6.287362e-002
2.410685e+003;6.301071e-002
2.412614e+003;6.314316e-002
2.414542e+003;6.343816e-002
2.416471e+003;6.372297e-002
2.418399e+003;6.395172e-002
2.420328e+003;6.435551e-002
2.422256e+003;6.443160e-002
2.424185e+003;6.446373e-002
2.426113e+003;6.473967e-002
2.428042e+003;6.480245e-002
2.429970e+003;6.490324e-002
2.431899e+003;6.514223e-002
2.433828e+003;6.526578e-002
2.435756e+003;6.536657e-002
2.437685e+003;6.549335e-002
2.439613e+003;6.567504e-002
2.441542e+003;6.575641e-002
2.443470e+003;6.580375e-002
2.445399e+003;6.579666e-002
2.447327e+003;6.580576e-002
2.449256e+003;6.581902e-002
2.451185e+003;6.580329e-002
2.453113e+003;6.585303e-002
2.455042e+003;6.584254e-002
2.456970e+003;6.574696e-002
2.458899e+003;6.577379e-002
2.460827e+003;6.599271e-002
2.462756e+003;6.604344e-002
2.464684e+003;6.604020e-002
2.466613e+003;6.611114e-002
2.468542e+003;6.604420e-002
2.470470e+003;6.604610e-002
2.472398e+003;6.614383e-002
2.474327e+003;6.647199e-002
2.476256e+003;6.648169e-002
2.478184e+003;6.625669e-002
2.480113e+003;6.639497e-002
2.482041e+003;6.668670e-002
2.483970e+003;6.677897e-002
2.485898e+003;6.657384e-002
2.487827e+003;6.640416e-002
2.489755e+003;6.674157e-002
2.491684e+003;6.698053e-002
2.493613e+003;6.684161e-002
2.495541e+003;6.673044e-002
2.497470e+003;6.673716e-002
2.499398e+003;6.684610e-002
2.501327e+003;6.704185e-002
2.503255e+003;6.721158e-002
2.505184e+003;6.750689e-002
2.507112e+003;6.763204e-002
2.509041e+003;6.745433e-002
2.510969e+003;6.711648e-002
2.512898e+003;6.719584e-002
2.514827e+003;6.759302e-002
2.516755e+003;6.759472e-002
2.518684e+003;6.727835e-002
2.520612e+003;6.745034e-002
2.522541e+003;6.790493e-002
2.524469e+003;6.798766e-002
2.526398e+003;6.801951e-002
2.528326e+003;6.799696e-002
2.530255e+003;6.783133e-002
2.532184e+003;6.782111e-002
2.534112e+003;6.793887e-002
2.536041e+003;6.811729e-002
2.537969e+003;6.833123e-002
2.539898e+003;6.827992e-002
2.541826e+003;6.828687e-002
2.543755e+003;6.849766e-002
2.545683e+003;6.857204e-002
2.547612e+003;6.883441e-002
2.549541e+003;6.914131e-002
2.551469e+003;6.922738e-002
2.553397e+003;6.907360e-002
2.555326e+003;6.905328e-002
2.557255e+003;6.934328e-002
2.559183e+003;6.956501e-002
2.561112e+003;6.968590e-002
2.563040e+003;6.993532e-002
2.564969e+003;7.027296e-002
2.566897e+003;7.037885e-002
2.568826e+003;7.040293e-002
2.570754e+003;7.053360e-002
2.572683e+003;7.071765e-002
2.574612e+003;7.078222e-002
2.576540e+003;7.095581e-002
2.578469e+003;7.133660e-002
2.580397e+003;7.157877e-002
2.582326e+003;7.147021e-002
2.584254e+003;7.151096e-002
2.586183e+003;7.189009e-002
2.588111e+003;7.216590e-002
2.590040e+003;7.218464e-002
2.591969e+003;7.220686e-002
2.593897e+003;7.240325e-002
2.595826e+003;7.259048e-002
2.597754e+003;7.276357e-002
2.599683e+003;7.272694e-002
2.601611e+003;7.285980e-002
2.603540e+003;7.334764e-002
2.605468e+003;7.358182e-002
2.607397e+003;7.350124e-002
2.609325e+003;7.345710e-002
2.611254e+003;7.363191e-002
2.613183e+003;7.371718e-002
2.615111e+003;7.372052e-002
2.617040e+003;7.386036e-002
2.618968e+003;7.388668e-002
2.620897e+003;7.385353e-002
2.622825e+003;7.407023e-002
2.624754e+003;7.413782e-002
2.626682e+003;7.395432e-002
2.628611e+003;7.386547e-002
2.630540e+003;7.399074e-002
2.632468e+003;7.401777e-002
2.634396e+003;7.396410e-002
2.636325e+003;7.386083e-002
2.638254e+003;7.377710e-002
2.640182e+003;7.364655e-002
2.642111e+003;7.367007e-002
2.644039e+003;7.385349e-002
2.645968e+003;7.397216e-002
2.647896e+003;7.396383e-002
2.649825e+003;7.387391e-002
2.651753e+003;7.366426e-002
2.653682e+003;7.373623e-002
2.655611e+003;7.418436e-002
2.657539e+003;7.435993e-002
2.659468e+003;7.431424e-002
2.661396e+003;7.436524e-002
2.663325e+003;7.447390e-002
2.665253e+003;7.429105e-002
2.667182e+003;7.426239e-002
2.669110e+003;7.459927e-002
2.671039e+003;7.472893e-002
2.672968e+003;7.474747e-002
2.674896e+003;7.494012e-002
2.676825e+003;7.518286e-002
2.678753e+003;7.533763e-002
2.680682e+003;7.534418e-002
2.682610e+003;7.531509e-002
2.684539e+003;7.535300e-002
2.686467e+003;7.552306e-002
2.688396e+003;7.565252e-002
2.690324e+003;7.581851e-002
2.692253e+003;7.611937e-002
2.694182e+003;7.629786e-002
2.696110e+003;7.624424e-002
2.698039e+003;7.626654e-002
2.699967e+003;7.640527e-002
2.701896e+003;7.649623e-002
2.703824e+003;7.657906e-002
2.705753e+003;7.703575e-002
2.707681e+003;7.713140e-002
2.709610e+003;7.686665e-002
2.711539e+003;7.706836e-002
2.713467e+003;7.727658e-002
2.715396e+003;7.743812e-002
2.717324e+003;7.790504e-002
2.719253e+003;7.823326e-002
2.721181e+003;7.831451e-002
2.723110e+003;7.838008e-002
2.725038e+003;7.847792e-002
2.726967e+003;7.871735e-002
2.728896e+003;7.908168e-002
2.730824e+003;7.918016e-002
2.732752e+003;7.896932e-002
2.734681e+003;7.883918e-002
2.736610e+003;7.899090e-002
2.738538e+003;7.940359e-002
2.740467e+003;7.953497e-002
2.742395e+003;7.955017e-002
2.744324e+003;7.964179e-002
2.746252e+003;7.968171e-002
2.748181e+003;7.981612e-002
2.750109e+003;8.014316e-002
2.752038e+003;8.022043e-002
2.753967e+003;8.031355e-002
2.755895e+003;8.055304e-002
2.757824e+003;8.057051e-002
2.759752e+003;8.054578e-002
2.761681e+003;8.073728e-002
2.763609e+003;8.102588e-002
2.765538e+003;8.114696e-002
2.767466e+003;8.113837e-002
2.769395e+003;8.156291e-002
2.771323e+003;8.196813e-002
2.773252e+003;8.186690e-002
2.775181e+003;8.190238e-002
2.777109e+003;8.214416e-002
2.779038e+003;8.236504e-002
2.780966e+003;8.236787e-002
2.782895e+003;8.250733e-002
2.784823e+003;8.270109e-002
2.786752e+003;8.296272e-002
2.788680e+003;8.316091e-002
2.790609e+003;8.307849e-002
2.792538e+003;8.311716e-002
2.794466e+003;8.344281e-002
2.796395e+003;8.371107e-002
2.798323e+003;8.386261e-002
2.800252e+003;8.388536e-002
2.802180e+003;8.380325e-002
2.804109e+003;8.386377e-002
2.806037e+003;8.394111e-002
2.807966e+003;8.396575e-002
2.809895e+003;8.430631e-002
2.811823e+003;8.463144e-002
2.813751e+003;8.459794e-002
2.815680e+003;8.486115e-002
2.817609e+003;8.512711e-002
2.819537e+003;8.526507e-002
2.821466e+003;8.536807e-002
2.823394e+003;8.531487e-002
2.825323e+003;8.509772e-002
2.827251e+003;8.508531e-002
2.829180e+003;8.548048e-002
2.831108e+003;8.589555e-002
2.833037e+003;8.591461e-002
2.834966e+003;8.599935e-002
2.836894e+003;8.629724e-002
2.838823e+003;8.685455e-002
2.840751e+003;8.741258e-002
2.842680e+003;8.813755e-002
2.844608e+003;8.928946e-002
2.846537e+003;9.003751e-002
2.848465e+003;9.034484e-002
2.850394e+003;9.046569e-002
2.852323e+003;9.083565e-002
2.854251e+003;9.145575e-002
2.856180e+003;9.145816e-002
2.858108e+003;9.145105e-002
2.860037e+003;9.221283e-002
2.861965e+003;9.277254e-002
2.863894e+003;9.268890e-002
2.865822e+003;9.279720e-002
2.867751e+003;9.374033e-002
2.869679e+003;9.425409e-002
2.871608e+003;9.454494e-002
2.873536e+003;9.512635e-002
2.875465e+003;9.509694e-002
2.877394e+003;9.483454e-002
2.879322e+003;9.450894e-002
2.881251e+003;9.422256e-002
2.883179e+003;9.423960e-002
2.885108e+003;9.446833e-002
2.887036e+003;9.481665e-002
2.888965e+003;9.488079e-002
2.890893e+003;9.475812e-002
2.892822e+003;9.491134e-002
2.894750e+003;9.518559e-002
2.896679e+003;9.556561e-002
2.898608e+003;9.613380e-002
2.900536e+003;9.669825e-002
2.902465e+003;9.691358e-002
2.904393e+003;9.689780e-002
2.906322e+003;9.737082e-002
2.908250e+003;9.839829e-002
2.910179e+003;9.909114e-002
2.912107e+003;9.978773e-002
2.914036e+003;1.007576e-001
2.915965e+003;1.017809e-001
2.917893e+003;1.028079e-001
2.919822e+003;1.037309e-001
2.921750e+003;1.041014e-001
2.923679e+003;1.045815e-001
2.925607e+003;1.055708e-001
2.927536e+003;1.063094e-001
2.929464e+003;1.063186e-001
2.931393e+003;1.061603e-001
2.933322e+003;1.063020e-001
2.935250e+003;1.064273e-001
2.937178e+003;1.061693e-001
2.939107e+003;1.055325e-001
2.941036e+003;1.046770e-001
2.942964e+003;1.037624e-001
2.944893e+003;1.028309e-001
2.946821e+003;1.018624e-001
2.948750e+003;1.013435e-001
2.950678e+003;1.010621e-001
2.952607e+003;1.007898e-001
2.954535e+003;1.006171e-001
2.956464e+003;1.004137e-001
2.958393e+003;1.004788e-001
2.960321e+003;1.007525e-001
2.962250e+003;1.006403e-001
2.964178e+003;1.004268e-001
2.966107e+003;1.006169e-001
2.968035e+003;1.007730e-001
2.969964e+003;1.010282e-001
2.971892e+003;1.013047e-001
2.973821e+003;1.011852e-001
2.975750e+003;1.009475e-001
2.977678e+003;1.011343e-001
2.979607e+003;1.009044e-001
2.981535e+003;1.000659e-001
2.983464e+003;9.951856e-002
2.985392e+003;9.940587e-002
2.987321e+003;9.917374e-002
2.989249e+003;9.892675e-002
2.991178e+003;9.806822e-002
2.993106e+003;9.714852e-002
2.995035e+003;9.682296e-002
2.996964e+003;9.656659e-002
2.998892e+003;9.626810e-002
3.000821e+003;9.597907e-002
3.002749e+003;9.559844e-002
3.004678e+003;9.532104e-002
3.006606e+003;9.528902e-002
3.008535e+003;9.541551e-002
3.010463e+003;9.528527e-002
3.012392e+003;9.506184e-002
3.014321e+003;9.511468e-002
3.016249e+003;9.531728e-002
3.018177e+003;9.560219e-002
3.020106e+003;9.595535e-002
3.022035e+003;9.630334e-002
3.023963e+003;9.662428e-002
3.025892e+003;9.699650e-002
3.027820e+003;9.728961e-002
3.029749e+003;9.764924e-002
3.031677e+003;9.796691e-002
3.033606e+003;9.846030e-002
3.035534e+003;9.883717e-002
3.037463e+003;9.938362e-002
3.039392e+003;1.000302e-001
3.041320e+003;1.002182e-001
3.043249e+003;1.003495e-001
3.045177e+003;1.007174e-001
3.047106e+003;1.012527e-001
3.049034e+003;1.018809e-001
3.050963e+003;1.024396e-001
3.052891e+003;1.029403e-001
3.054820e+003;1.034840e-001
3.056749e+003;1.039378e-001
3.058677e+003;1.039871e-001
3.060606e+003;1.041154e-001
3.062534e+003;1.044712e-001
3.064463e+003;1.049705e-001
3.066391e+003;1.051906e-001
3.068320e+003;1.050518e-001
3.070248e+003;1.050095e-001
3.072177e+003;1.050411e-001
3.074105e+003;1.052933e-001
3.076034e+003;1.055256e-001
3.077963e+003;1.052496e-001
3.079891e+003;1.047290e-001
3.081820e+003;1.044817e-001
3.083748e+003;1.047244e-001
3.085677e+003;1.046154e-001
3.087605e+003;1.043299e-001
3.089534e+003;1.040645e-001
3.091462e+003;1.036110e-001
3.093391e+003;1.032795e-001
3.095320e+003;1.031663e-001
3.097248e+003;1.028280e-001
3.099177e+003;1.024893e-001
3.101105e+003;1.023777e-001
3.103034e+003;1.023678e-001
3.104962e+003;1.021659e-001
3.106891e+003;1.018119e-001
3.108819e+003;1.013901e-001
3.110748e+003;1.009428e-001
3.112677e+003;1.007841e-001
3.114605e+003;1.008255e-001
3.116533e+003;1.007200e-001
3.118462e+003;1.006035e-001
3.120391e+003;1.004505e-001
3.122319e+003;1.001182e-001
3.124248e+003;1.000924e-001
3.126176e+003;1.006409e-001
3.128105e+003;1.008098e-001
3.130033e+003;1.006649e-001
3.131962e+003;1.009422e-001
3.133890e+003;1.009254e-001
3.135819e+003;1.009975e-001
3.137748e+003;1.011438e-001
3.139676e+003;1.014645e-001
3.141605e+003;1.018467e-001
3.143533e+003;1.022792e-001
3.145462e+003;1.025915e-001
3.147390e+003;1.028848e-001
3.149319e+003;1.033246e-001
3.151247e+003;1.038616e-001
3.153176e+003;1.044584e-001
3.155104e+003;1.049216e-001
3.157033e+003;1.050842e-001
3.158962e+003;1.055134e-001
3.160890e+003;1.061384e-001
3.162819e+003;1.067683e-001
3.164747e+003;1.074279e-001
3.166676e+003;1.080095e-001
3.168604e+003;1.084268e-001
3.170533e+003;1.093864e-001
3.172461e+003;1.100611e-001
3.174390e+003;1.104351e-001
3.176319e+003;1.110936e-001
3.178247e+003;1.120137e-001
3.180176e+003;1.128692e-001
3.182104e+003;1.135255e-001
3.184033e+003;1.142263e-001
3.185961e+003;1.148773e-001
3.187890e+003;1.158893e-001
3.189818e+003;1.165825e-001
3.191747e+003;1.173688e-001
3.193676e+003;1.186811e-001
3.195604e+003;1.197625e-001
3.197532e+003;1.202851e-001
3.199461e+003;1.209473e-001
3.201390e+003;1.218607e-001
3.203318e+003;1.229377e-001
3.205247e+003;1.241571e-001
3.207175e+003;1.247610e-001
3.209104e+003;1.250712e-001
3.211032e+003;1.260194e-001
3.212961e+003;1.272934e-001
3.214889e+003;1.282556e-001
3.216818e+003;1.290066e-001
3.218747e+003;1.296836e-001
3.220675e+003;1.306772e-001
3.222604e+003;1.321346e-001
3.224532e+003;1.332008e-001
3.226461e+003;1.338946e-001
3.228389e+003;1.352365e-001
3.230318e+003;1.367179e-001
3.232246e+003;1.378772e-001
3.234175e+003;1.387527e-001
3.236104e+003;1.397001e-001
3.238032e+003;1.411631e-001
3.239961e+003;1.428301e-001
3.241889e+003;1.444213e-001
3.243818e+003;1.458442e-001
3.245746e+003;1.474716e-001
3.247675e+003;1.488797e-001
3.249603e+003;1.503987e-001
3.251532e+003;1.518836e-001
3.253460e+003;1.536448e-001
3.255389e+003;1.556055e-001
3.257318e+003;1.573995e-001
3.259246e+003;1.594019e-001
3.261175e+003;1.616677e-001
3.263103e+003;1.637905e-001
3.265032e+003;1.653009e-001
3.266960e+003;1.667029e-001
3.268889e+003;1.687240e-001
3.270817e+003;1.705895e-001
3.272746e+003;1.719588e-001
3.274675e+003;1.734401e-001
3.276603e+003;1.747875e-001
3.278531e+003;1.755807e-001
3.280460e+003;1.760932e-001
3.282389e+003;1.761640e-001
3.284317e+003;1.760594e-001
3.286246e+003;1.761118e-001
3.288174e+003;1.758992e-001
3.290103e+003;1.751354e-001
3.292031e+003;1.739242e-001
3.293960e+003;1.728129e-001
3.295888e+003;1.716216e-001
3.297817e+003;1.700448e-001
3.299746e+003;1.678582e-001
3.301674e+003;1.653387e-001
3.303603e+003;1.635211e-001
3.305531e+003;1.620931e-001
3.307460e+003;1.600123e-001
3.309388e+003;1.573667e-001
3.311317e+003;1.548958e-001
3.313245e+003;1.527022e-001
3.315174e+003;1.509179e-001
3.317103e+003;1.491600e-001
3.319031e+003;1.470448e-001
3.320960e+003;1.448770e-001
3.322888e+003;1.426646e-001
3.324817e+003;1.403293e-001
3.326745e+003;1.382371e-001
3.328674e+003;1.366158e-001
3.330602e+003;1.350486e-001
3.332531e+003;1.333282e-001
3.334459e+003;1.317544e-001
3.336388e+003;1.300326e-001
3.338317e+003;1.279334e-001
3.340245e+003;1.262281e-001
3.342174e+003;1.249059e-001
3.344102e+003;1.238990e-001
3.346031e+003;1.229343e-001
3.347959e+003;1.215002e-001
3.349888e+003;1.200025e-001
3.351816e+003;1.187680e-001
3.353745e+003;1.176259e-001
3.355674e+003;1.166234e-001
3.357602e+003;1.157764e-001
3.359531e+003;1.147600e-001
3.361459e+003;1.138693e-001
3.363388e+003;1.131047e-001
3.365316e+003;1.125767e-001
3.367245e+003;1.117049e-001
3.369173e+003;1.105910e-001
3.371102e+003;1.096947e-001
3.373031e+003;1.090426e-001
3.374959e+003;1.085628e-001
3.376887e+003;1.077311e-001
3.378816e+003;1.069516e-001
3.380745e+003;1.062992e-001
3.382673e+003;1.057707e-001
3.384602e+003;1.048506e-001
3.386530e+003;1.038629e-001
3.388459e+003;1.037391e-001
3.390387e+003;1.034001e-001
3.392316e+003;1.025764e-001
3.394244e+003;1.019999e-001
3.396173e+003;1.019169e-001
3.398102e+003;1.015600e-001
3.400030e+003;1.008811e-001
3.401959e+003;1.001470e-001
3.403887e+003;9.927759e-002
3.405816e+003;9.869093e-002
3.407744e+003;9.780485e-002
3.409673e+003;9.695122e-002
3.411601e+003;9.646103e-002
3.413530e+003;9.577268e-002
3.415458e+003;9.526797e-002
3.417387e+003;9.474341e-002
3.419316e+003;9.414337e-002
3.421244e+003;9.339776e-002
3.423173e+003;9.279432e-002
3.425101e+003;9.238224e-002
3.427030e+003;9.160650e-002
3.428958e+003;9.089357e-002
3.430887e+003;9.053630e-002
3.432815e+003;8.985357e-002
3.434744e+003;8.891651e-002
3.436673e+003;8.823539e-002
3.438601e+003;8.780943e-002
3.440530e+003;8.768149e-002
3.442458e+003;8.746466e-002
3.444387e+003;8.693000e-002
3.446315e+003;8.644305e-002
3.448244e+003;8.608853e-002
3.450172e+003;8.583822e-002
3.452101e+003;8.570173e-002
3.454030e+003;8.541759e-002
3.455958e+003;8.532681e-002
3.457886e+003;8.498102e-002
3.459815e+003;8.448639e-002
3.461744e+003;8.425678e-002
3.463672e+003;8.411987e-002
3.465601e+003;8.411951e-002
3.467529e+003;8.378717e-002
3.469458e+003;8.294155e-002
3.471386e+003;8.275196e-002
3.473315e+003;8.273765e-002
3.475243e+003;8.232378e-002
3.477172e+003;8.201319e-002
3.479101e+003;8.182057e-002
3.481029e+003;8.162972e-002
3.482958e+003;8.144658e-002
3.484886e+003;8.109440e-002
3.486815e+003;8.099788e-002
3.488743e+003;8.100283e-002
3.490672e+003;8.072658e-002
3.492600e+003;8.068085e-002
3.494529e+003;8.033236e-002
3.496458e+003;7.968298e-002
3.498386e+003;7.961205e-002
3.500315e+003;7.948340e-002
3.502243e+003;7.931266e-002
3.504172e+003;7.897445e-002
3.506100e+003;7.849105e-002
3.508029e+003;7.792054e-002
3.509957e+003;7.766815e-002
3.511886e+003;7.765222e-002
3.513814e+003;7.783396e-002
3.515743e+003;7.776318e-002
3.517672e+003;7.745804e-002
3.519600e+003;7.704767e-002
3.521529e+003;7.663238e-002
3.523457e+003;7.675557e-002
3.525386e+003;7.676122e-002
3.527314e+003;7.632658e-002
3.529243e+003;7.585244e-002
3.531171e+003;7.519661e-002
3.533100e+003;7.483079e-002
3.535029e+003;7.469127e-002
3.536957e+003;7.488737e-002
3.538885e+003;7.499667e-002
3.540814e+003;7.433626e-002
3.542743e+003;7.368723e-002
3.544671e+003;7.358492e-002
3.546600e+003;7.301971e-002
3.548528e+003;7.264704e-002
3.550457e+003;7.271962e-002
3.552385e+003;7.242380e-002
3.554314e+003;7.201541e-002
3.556242e+003;7.173673e-002
3.558171e+003;7.143755e-002
3.560100e+003;7.095799e-002
3.562028e+003;7.090661e-002
3.563957e+003;7.103337e-002
3.565885e+003;7.037292e-002
3.567814e+003;6.985542e-002
3.569742e+003;6.978923e-002
3.571671e+003;6.955218e-002
3.573599e+003;6.931226e-002
3.575528e+003;6.899172e-002
3.577457e+003;6.849859e-002
3.579385e+003;6.821463e-002
3.581314e+003;6.791133e-002
3.583242e+003;6.765760e-002
3.585171e+003;6.768610e-002
3.587099e+003;6.738274e-002
3.589028e+003;6.698834e-002
3.590956e+003;6.700609e-002
3.592885e+003;6.682979e-002
3.594813e+003;6.648528e-002
3.596742e+003;6.590709e-002
3.598671e+003;6.544522e-002
3.600599e+003;6.578937e-002
3.602528e+003;6.612661e-002
3.604456e+003;6.581274e-002
3.606385e+003;6.513130e-002
3.608313e+003;6.453173e-002
3.610242e+003;6.443079e-002
3.612170e+003;6.451266e-002
3.614099e+003;6.419499e-002
3.616028e+003;6.382140e-002
3.617956e+003;6.321903e-002
3.619885e+003;6.302580e-002
3.621813e+003;6.283475e-002
3.623742e+003;6.239225e-002
3.625670e+003;6.200018e-002
3.627599e+003;6.170821e-002
3.629527e+003;6.132706e-002
3.631456e+003;6.136896e-002
3.633385e+003;6.092242e-002
3.635313e+003;6.045618e-002
3.637241e+003;6.029269e-002
3.639170e+003;5.992400e-002
3.641099e+003;5.959659e-002
3.643027e+003;5.942019e-002
3.644956e+003;5.915854e-002
3.646884e+003;5.861702e-002
3.648813e+003;5.794454e-002
3.650741e+003;5.744212e-002
3.652670e+003;5.741496e-002
3.654598e+003;5.705313e-002
3.656527e+003;5.618749e-002
3.658456e+003;5.564198e-002
3.660384e+003;5.518235e-002
3.662313e+003;5.474652e-002
3.664241e+003;5.443249e-002
3.666170e+003;5.385796e-002
3.668098e+003;5.319573e-002
3.670027e+003;5.270034e-002
3.671955e+003;5.250761e-002
3.673884e+003;5.228690e-002
3.675813e+003;5.124731e-002
3.677741e+003;5.036324e-002
3.679669e+003;5.000901e-002
3.681598e+003;4.991816e-002
3.683527e+003;4.948404e-002
3.685455e+003;4.884445e-002
3.687384e+003;4.821898e-002
3.689312e+003;4.792074e-002
3.691241e+003;4.775524e-002
3.693169e+003;4.744711e-002
3.695098e+003;4.708170e-002
3.697026e+003;4.689773e-002
3.698955e+003;4.697688e-002
3.700884e+003;4.690430e-002
3.702812e+003;4.657936e-002
3.704741e+003;4.598106e-002
3.706669e+003;4.554887e-002
3.708598e+003;4.539957e-002
3.710526e+003;4.536477e-002
3.712455e+003;4.543912e-002
3.714383e+003;4.562700e-002
3.716312e+003;4.558666e-002
3.718240e+003;4.525208e-002
3.720169e+003;4.530923e-002
3.722098e+003;4.496168e-002
3.724026e+003;4.456377e-002
3.725955e+003;4.462277e-002
3.727883e+003;4.478940e-002
3.729812e+003;4.471495e-002
3.731740e+003;4.457665e-002
3.733669e+003;4.449203e-002
3.735597e+003;4.410280e-002
3.737526e+003;4.424495e-002
3.739455e+003;4.440412e-002
3.741383e+003;4.429249e-002
3.743312e+003;4.359207e-002
3.745240e+003;4.259922e-002
3.747169e+003;4.264315e-002
3.749097e+003;4.301509e-002
3.751026e+003;4.336673e-002
3.752954e+003;4.360273e-002
3.754883e+003;4.363676e-002
3.756812e+003;4.308932e-002
3.758740e+003;4.282244e-002
3.760668e+003;4.313298e-002
3.762597e+003;4.321971e-002
3.764526e+003;4.283966e-002
3.766454e+003;4.286980e-002
3.768383e+003;4.340136e-002
3.770311e+003;4.363225e-002
3.772240e+003;4.354910e-002
3.774168e+003;4.355243e-002
3.776097e+003;4.307176e-002
3.778025e+003;4.258851e-002
3.779954e+003;4.269674e-002
3.781883e+003;4.256278e-002
3.783811e+003;4.247164e-002
3.785740e+003;4.249130e-002
3.787668e+003;4.252009e-002
3.789597e+003;4.282873e-002
3.791525e+003;4.301066e-002
3.793454e+003;4.333549e-002
3.795382e+003;4.306879e-002
3.797311e+003;4.269016e-002
3.799240e+003;4.296811e-002
3.801168e+003;4.321367e-002
3.803097e+003;4.317125e-002
3.805025e+003;4.297093e-002
3.806954e+003;4.266771e-002
3.808882e+003;4.260894e-002
3.810811e+003;4.283224e-002
3.812739e+003;4.297792e-002
3.814668e+003;4.259966e-002
3.816596e+003;4.224871e-002
3.818525e+003;4.278079e-002
3.820454e+003;4.290015e-002
3.822382e+003;4.240708e-002
3.824311e+003;4.261076e-002
3.826239e+003;4.330990e-002
3.828168e+003;4.344897e-002
3.830096e+003;4.296676e-002
3.832025e+003;4.262802e-002
3.833953e+003;4.294939e-002
3.835882e+003;4.343025e-002
3.837811e+003;4.324837e-002
3.839739e+003;4.270350e-002
3.841667e+003;4.250062e-002
3.843596e+003;4.289628e-002
3.845525e+003;4.307443e-002
3.847453e+003;4.369219e-002
3.849382e+003;4.434676e-002
3.851310e+003;4.423702e-002
3.853239e+003;4.366567e-002
3.855167e+003;4.363797e-002
3.857096e+003;4.387020e-002
3.859024e+003;4.386781e-002
3.860953e+003;4.405663e-002
3.862882e+003;4.420147e-002
3.864810e+003;4.466819e-002
3.866739e+003;4.512866e-002
3.868667e+003;4.472729e-002
3.870596e+003;4.412331e-002
3.872524e+003;4.378036e-002
3.874453e+003;4.383222e-002
3.876381e+003;4.451692e-002
3.878310e+003;4.464205e-002
3.880239e+003;4.437565e-002
3.882167e+003;4.476145e-002
3.884096e+003;4.500993e-002
3.886024e+003;4.495661e-002
3.887953e+003;4.517627e-002
3.889881e+003;4.498990e-002
3.891810e+003;4.479230e-002
3.893738e+003;4.481879e-002
3.895667e+003;4.517649e-002
3.897595e+003;4.570897e-002
3.899524e+003;4.601881e-002
3.901453e+003;4.603871e-002
3.903381e+003;4.598452e-002
3.905310e+003;4.594172e-002
3.907238e+003;4.592327e-002
3.909167e+003;4.605565e-002
3.911095e+003;4.609091e-002
3.913024e+003;4.632508e-002
3.914952e+003;4.638694e-002
3.916881e+003;4.627509e-002
3.918810e+003;4.641039e-002
3.920738e+003;4.659261e-002
3.922667e+003;4.701634e-002
3.924595e+003;4.713274e-002
3.926524e+003;4.695078e-002
3.928452e+003;4.735923e-002
3.930381e+003;4.799083e-002
3.932309e+003;4.808838e-002
3.934238e+003;4.791616e-002
3.936167e+003;4.756580e-002
3.938095e+003;4.717337e-002
3.940023e+003;4.736348e-002
3.941952e+003;4.750810e-002
3.943881e+003;4.746607e-002
3.945809e+003;4.793081e-002
3.947738e+003;4.810023e-002
3.949666e+003;4.795785e-002
3.951595e+003;4.797521e-002
3.953523e+003;4.827482e-002
3.955452e+003;4.823954e-002
3.957380e+003;4.793980e-002
3.959309e+003;4.776682e-002
3.961238e+003;4.803601e-002
3.963166e+003;4.801618e-002
3.965095e+003;4.780528e-002
3.967023e+003;4.811981e-002
3.968952e+003;4.856645e-002
3.970880e+003;4.849439e-002
3.972809e+003;4.828934e-002
3.974737e+003;4.869357e-002
3.976666e+003;4.892651e-002
3.978594e+003;4.905296e-002
3.980523e+003;4.938335e-002
3.982452e+003;4.895615e-002
3.984380e+003;4.858676e-002
3.986309e+003;4.896219e-002
3.988237e+003;4.933182e-002
3.990166e+003;4.916355e-002
3.992094e+003;4.868186e-002
3.994023e+003;4.874799e-002
3.995951e+003;4.882825e-002
3.997880e+003;4.866866e-002
3.999809e+003;4.892740e-002
4.001737e+003;0.000000e+000
