3.992094e+002;0.000000e+000
4.011380e+002;0.000000e+000
4.030665e+002;0.000000e+000
4.049951e+002;0.000000e+000
4.069236e+002;0.000000e+000
4.088522e+002;0.000000e+000
4.107807e+002;0.000000e+000
4.127093e+002;0.000000e+000
4.146378e+002;0.000000e+000
4.165664e+002;0.000000e+000
4.184949e+002;0.000000e+000
4.204235e+002;0.000000e+000
4.223520e+002;0.000000e+000
4.242806e+002;0.000000e+000
4.262091e+002;0.000000e+000
4.281377e+002;0.000000e+000
4.300662e+002;0.000000e+000
4.319948e+002;0.000000e+000
4.339233e+002;0.000000e+000
4.358519e+002;0.000000e+000
4.377804e+002;0.000000e+000
4.397090e+002;0.000000e+000
4.416375e+002;0.000000e+000
4.435660e+002;0.000000e+000
4.454946e+002;0.000000e+000
4.474232e+002;0.000000e+000
4.493517e+002;0.000000e+000
4.512802e+002;0.000000e+000
4.532088e+002;0.000000e+000
4.551373e+002;0.000000e+000
4.570659e+002;0.000000e+000
4.589944e+002;0.000000e+000
4.609230e+002;0.000000e+000
4.628515e+002;0.000000e+000
4.647801e+002;0.000000e+000
4.667086e+002;0.000000e+000
4.686372e+002;0.000000e+000
4.705657e+002;0.000000e+000
4.724943e+002;0.000000e+000
4.744228e+002;0.000000e+000
4.763513e+002;0.000000e+000
4.782799e+002;0.000000e+000
4.802085e+002;0.000000e+000
4.821370e+002;0.000000e+000
4.840656e+002;0.000000e+000
4.859941e+002;0.000000e+000
4.879226e+002;0.000000e+000
4.898512e+002;0.000000e+000
4.917798e+002;0.000000e+000
4.937083e+002;0.000000e+000
4.956368e+002;0.000000e+000
4.975654e+002;0.000000e+000
4.994939e+002;0.000000e+000
5.014225e+002;0.000000e+000
5.033510e+002;0.000000e+000
5.052796e+002;0.000000e+000
5.072081e+002;0.000000e+000
5.091367e+002;0.000000e+000
5.110652e+002;0.000000e+000
5.129938e+002;0.000000e+000
5.149223e+002;0.000000e+000
5.168509e+002;0.000000e+000
5.187794e+002;0.000000e+000
5.207079e+002;0.000000e+000
5.226365e+002;0.000000e+000
5.245651e+002;0.000000e+000
5.264936e+002;0.000000e+000
5.284222e+002;0.000000e+000
5.303507e+002;0.000000e+000
5.322792e+002;0.000000e+000
5.342078e+002;0.000000e+000
5.361364e+002;0.000000e+000
5.380649e+002;0.000000e+000
5.399935e+002;0.000000e+000
5.419220e+002;0.000000e+000
5.438505e+002;0.000000e+000
5.457791e+002;0.000000e+000
5.477076e+002;0.000000e+000
5.496362e+002;0.000000e+000
5.515648e+002;0.000000e+000
5.534933e+002;0.000000e+000
5.554218e+002;0.000000e+000
5.573504e+002;0.000000e+000
5.592789e+002;0.000000e+000
5.612075e+002;0.000000e+000
5.631360e+002;0.000000e+000
5.650646e+002;0.000000e+000
5.669931e+002;0.000000e+000
5.689217e+002;0.000000e+000
5.708502e+002;0.000000e+000
5.727787e+002;0.000000e+000
5.747073e+002;0.000000e+000
5.766359e+002;0.000000e+000
5.785644e+002;0.000000e+000
5.804930e+002;0.000000e+000
5.824215e+002;0.000000e+000
5.843500e+002;0.000000e+000
5.862786e+002;0.000000e+000
5.882072e+002;0.000000e+000
5.901357e+002;0.000000e+000
5.920643e+002;0.000000e+000
5.939928e+002;0.000000e+000
5.959213e+002;0.000000e+000
5.978499e+002;0.000000e+000
5.997784e+002;1.919036e-001
6.017070e+002;2.000661e-001
6.036355e+002;2.034444e-001
6.055641e+002;2.077143e-001
6.074926e+002;2.061989e-001
6.094211e+002;2.024487e-001
6.113497e+002;1.979257e-001
6.132783e+002;1.966566e-001
6.152068e+002;1.990512e-001
6.171354e+002;2.018453e-001
6.190639e+002;2.025728e-001
6.209924e+002;1.982918e-001
6.229210e+002;1.957671e-001
6.248495e+002;1.959465e-001
6.267781e+002;1.941694e-001
6.287067e+002;1.969110e-001
6.306352e+002;1.958799e-001
6.325637e+002;1.905181e-001
6.344923e+002;1.900709e-001
6.364208e+002;1.899529e-001
6.383494e+002;1.861666e-001
6.402780e+002;1.881277e-001
6.422065e+002;1.905834e-001
6.441350e+002;1.870393e-001
6.460636e+002;1.840981e-001
6.479921e+002;1.834388e-001
6.499207e+002;1.810127e-001
6.518492e+002;1.811444e-001
6.537778e+002;1.825458e-001
6.557063e+002;1.809570e-001
6.576349e+002;1.798559e-001
6.595634e+002;1.821432e-001
6.614919e+002;1.837899e-001
6.634205e+002;1.835666e-001
6.653491e+002;1.837299e-001
6.672776e+002;1.833291e-001
6.692062e+002;1.818089e-001
6.711347e+002;1.819201e-001
6.730632e+002;1.825798e-001
6.749918e+002;1.833087e-001
6.769203e+002;1.825593e-001
6.788489e+002;1.800971e-001
6.807775e+002;1.792493e-001
6.827060e+002;1.794159e-001
6.846345e+002;1.785047e-001
6.865631e+002;1.783741e-001
6.884916e+002;1.783135e-001
6.904202e+002;1.778011e-001
6.923488e+002;1.772910e-001
6.942773e+002;1.763075e-001
6.962058e+002;1.748093e-001
6.981344e+002;1.733636e-001
7.000629e+002;1.718957e-001
7.019915e+002;1.702385e-001
7.039200e+002;1.683981e-001
7.058486e+002;1.662157e-001
7.077771e+002;1.639376e-001
7.097057e+002;1.627626e-001
7.116342e+002;1.621949e-001
7.135627e+002;1.604093e-001
7.154913e+002;1.575976e-001
7.174199e+002;1.558668e-001
7.193484e+002;1.547580e-001
7.212770e+002;1.527535e-001
7.232055e+002;1.504159e-001
7.251340e+002;1.475182e-001
7.270626e+002;1.446153e-001
7.289911e+002;1.428244e-001
7.309197e+002;1.410185e-001
7.328483e+002;1.387126e-001
7.347768e+002;1.370034e-001
7.367053e+002;1.355452e-001
7.386339e+002;1.338661e-001
7.405624e+002;1.320971e-001
7.424910e+002;1.295543e-001
7.444196e+002;1.268627e-001
7.463481e+002;1.259067e-001
7.482766e+002;1.245206e-001
7.502052e+002;1.225112e-001
7.521337e+002;1.206573e-001
7.540623e+002;1.189402e-001
7.559908e+002;1.179038e-001
7.579194e+002;1.171472e-001
7.598479e+002;1.152077e-001
7.617765e+002;1.132245e-001
7.637050e+002;1.116255e-001
7.656335e+002;1.113807e-001
7.675621e+002;1.108772e-001
7.694907e+002;1.096007e-001
7.714192e+002;1.084302e-001
7.733478e+002;1.067229e-001
7.752763e+002;1.050065e-001
7.772048e+002;1.037098e-001
7.791334e+002;1.022593e-001
7.810620e+002;1.011441e-001
7.829905e+002;1.004008e-001
7.849191e+002;9.934614e-002
7.868476e+002;9.870224e-002
7.887761e+002;9.810423e-002
7.907047e+002;9.659171e-002
7.926332e+002;9.514256e-002
7.945618e+002;9.451870e-002
7.964903e+002;9.407930e-002
7.984189e+002;9.279986e-002
8.003474e+002;9.193967e-002
8.022759e+002;9.259814e-002
8.042045e+002;9.295210e-002
8.061331e+002;9.309618e-002
8.080616e+002;9.353513e-002
8.099902e+002;9.364059e-002
8.119187e+002;9.334259e-002
8.138472e+002;9.342138e-002
8.157758e+002;9.376314e-002
8.177043e+002;9.419543e-002
8.196329e+002;9.389191e-002
8.215615e+002;9.373013e-002
8.234900e+002;9.497400e-002
8.254185e+002;9.567393e-002
8.273471e+002;9.523794e-002
8.292756e+002;9.481685e-002
8.312042e+002;9.446050e-002
8.331328e+002;9.365995e-002
8.350613e+002;9.234441e-002
8.369898e+002;9.038919e-002
8.389184e+002;8.868504e-002
8.408469e+002;8.845568e-002
8.427755e+002;8.887301e-002
8.447040e+002;8.898581e-002
8.466326e+002;8.908550e-002
8.485611e+002;8.916128e-002
8.504897e+002;8.934746e-002
8.524182e+002;8.955184e-002
8.543467e+002;8.877149e-002
8.562753e+002;8.696371e-002
8.582039e+002;8.480049e-002
8.601324e+002;8.269155e-002
8.620610e+002;8.081753e-002
8.639895e+002;7.929476e-002
8.659180e+002;7.834440e-002
8.678466e+002;7.795496e-002
8.697751e+002;7.783503e-002
8.717037e+002;7.748169e-002
8.736323e+002;7.713725e-002
8.755608e+002;7.675027e-002
8.774893e+002;7.645948e-002
8.794179e+002;7.685297e-002
8.813464e+002;7.733533e-002
8.832750e+002;7.744762e-002
8.852036e+002;7.771000e-002
8.871321e+002;7.807336e-002
8.890606e+002;7.831987e-002
8.909892e+002;7.763934e-002
8.929177e+002;7.736617e-002
8.948463e+002;7.733858e-002
8.967748e+002;7.687381e-002
8.987034e+002;7.661875e-002
9.006319e+002;7.691273e-002
9.025605e+002;7.687638e-002
9.044890e+002;7.683422e-002
9.064175e+002;7.732246e-002
9.083461e+002;7.785104e-002
9.102747e+002;7.829095e-002
9.122032e+002;7.900000e-002
9.141318e+002;7.937770e-002
9.160603e+002;7.984519e-002
9.179888e+002;8.127119e-002
9.199174e+002;8.291388e-002
9.218459e+002;8.416652e-002
9.237745e+002;8.566819e-002
9.257031e+002;8.701359e-002
9.276316e+002;8.792768e-002
9.295601e+002;8.862194e-002
9.314887e+002;8.886503e-002
9.334172e+002;8.884332e-002
9.353458e+002;8.911210e-002
9.372744e+002;8.968481e-002
9.392029e+002;8.981624e-002
9.411314e+002;9.006666e-002
9.430600e+002;9.075034e-002
9.449885e+002;9.136681e-002
9.469171e+002;9.197923e-002
9.488456e+002;9.288037e-002
9.507742e+002;9.415901e-002
9.527027e+002;9.513835e-002
9.546313e+002;9.600677e-002
9.565598e+002;9.712357e-002
9.584883e+002;9.836276e-002
9.604169e+002;1.000151e-001
9.623455e+002;1.016714e-001
9.642740e+002;1.032708e-001
9.662026e+002;1.050182e-001
9.681311e+002;1.068297e-001
9.700596e+002;1.083110e-001
9.719882e+002;1.096178e-001
9.739167e+002;1.103494e-001
9.758453e+002;1.106631e-001
9.777739e+002;1.105497e-001
9.797024e+002;1.098855e-001
9.816309e+002;1.092189e-001
9.835595e+002;1.089328e-001
9.854880e+002;1.089229e-001
9.874166e+002;1.096677e-001
9.893452e+002;1.113040e-001
9.912737e+002;1.130181e-001
9.932022e+002;1.140313e-001
9.951307e+002;1.143070e-001
9.970593e+002;1.139802e-001
9.989879e+002;1.132478e-001
1.000916e+003;1.128619e-001
1.002845e+003;1.125350e-001
1.004773e+003;1.120922e-001
1.006702e+003;1.119714e-001
1.008631e+003;1.121840e-001
1.010559e+003;1.123178e-001
1.012488e+003;1.121467e-001
1.014416e+003;1.124742e-001
1.016345e+003;1.127770e-001
1.018273e+003;1.123968e-001
1.020202e+003;1.121359e-001
1.022130e+003;1.119655e-001
1.024059e+003;1.122795e-001
1.025988e+003;1.139344e-001
1.027916e+003;1.161069e-001
1.029845e+003;1.183843e-001
1.031773e+003;1.203579e-001
1.033702e+003;1.222252e-001
1.035630e+003;1.240677e-001
1.037559e+003;1.251812e-001
1.039487e+003;1.265305e-001
1.041416e+003;1.274128e-001
1.043344e+003;1.272860e-001
1.045273e+003;1.273152e-001
1.047202e+003;1.280780e-001
1.049130e+003;1.291105e-001
1.051059e+003;1.300880e-001
1.052987e+003;1.309430e-001
1.054916e+003;1.323020e-001
1.056844e+003;1.336575e-001
1.058773e+003;1.348320e-001
1.060701e+003;1.361848e-001
1.062630e+003;1.367086e-001
1.064558e+003;1.367812e-001
1.066487e+003;1.373933e-001
1.068416e+003;1.370718e-001
1.070344e+003;1.363293e-001
1.072273e+003;1.355936e-001
1.074201e+003;1.341784e-001
1.076130e+003;1.326326e-001
1.078058e+003;1.305035e-001
1.079987e+003;1.279394e-001
1.081915e+003;1.256694e-001
1.083844e+003;1.232938e-001
1.085773e+003;1.208143e-001
1.087701e+003;1.187946e-001
1.089630e+003;1.169287e-001
1.091558e+003;1.149159e-001
1.093487e+003;1.139725e-001
1.095415e+003;1.133108e-001
1.097344e+003;1.124905e-001
1.099272e+003;1.122163e-001
1.101201e+003;1.123754e-001
1.103129e+003;1.125061e-001
1.105058e+003;1.122055e-001
1.106987e+003;1.114952e-001
1.108915e+003;1.103088e-001
1.110844e+003;1.090769e-001
1.112772e+003;1.082351e-001
1.114701e+003;1.076170e-001
1.116629e+003;1.072471e-001
1.118558e+003;1.071092e-001
1.120486e+003;1.069220e-001
1.122415e+003;1.067833e-001
1.124344e+003;1.066671e-001
1.126272e+003;1.065480e-001
1.128201e+003;1.066385e-001
1.130129e+003;1.072032e-001
1.132058e+003;1.080283e-001
1.133986e+003;1.088884e-001
1.135915e+003;1.096909e-001
1.137843e+003;1.107485e-001
1.139772e+003;1.120585e-001
1.141700e+003;1.130830e-001
1.143629e+003;1.141382e-001
1.145557e+003;1.155021e-001
1.147486e+003;1.168320e-001
1.149415e+003;1.178971e-001
1.151343e+003;1.186442e-001
1.153272e+003;1.197091e-001
1.155200e+003;1.207094e-001
1.157129e+003;1.216486e-001
1.159057e+003;1.225130e-001
1.160986e+003;1.227010e-001
1.162914e+003;1.228898e-001
1.164843e+003;1.231569e-001
1.166771e+003;1.235869e-001
1.168700e+003;1.242791e-001
1.170629e+003;1.245588e-001
1.172557e+003;1.238131e-001
1.174486e+003;1.226726e-001
1.176414e+003;1.215559e-001
1.178343e+003;1.205463e-001
1.180271e+003;1.196754e-001
1.182200e+003;1.188657e-001
1.184128e+003;1.186985e-001
1.186057e+003;1.192647e-001
1.187986e+003;1.200937e-001
1.189914e+003;1.212977e-001
1.191843e+003;1.227502e-001
1.193771e+003;1.247365e-001
1.195700e+003;1.269600e-001
1.197628e+003;1.293048e-001
1.199557e+003;1.322021e-001
1.201485e+003;1.351599e-001
1.203414e+003;1.380325e-001
1.205343e+003;1.414577e-001
1.207271e+003;1.445526e-001
1.209200e+003;1.471734e-001
1.211128e+003;1.499265e-001
1.213057e+003;1.525575e-001
1.214985e+003;1.546412e-001
1.216914e+003;1.563475e-001
1.218842e+003;1.582456e-001
1.220771e+003;1.602431e-001
1.222699e+003;1.618808e-001
1.224628e+003;1.627147e-001
1.226557e+003;1.630260e-001
1.228485e+003;1.633040e-001
1.230414e+003;1.628539e-001
1.232342e+003;1.620589e-001
1.234271e+003;1.611645e-001
1.236199e+003;1.601321e-001
1.238128e+003;1.591045e-001
1.240056e+003;1.578325e-001
1.241985e+003;1.562049e-001
1.243913e+003;1.549039e-001
1.245842e+003;1.540254e-001
1.247771e+003;1.532822e-001
1.249699e+003;1.526022e-001
1.251628e+003;1.519207e-001
1.253556e+003;1.512733e-001
1.255485e+003;1.503003e-001
1.257413e+003;1.491166e-001
1.259342e+003;1.483299e-001
1.261270e+003;1.471900e-001
1.263199e+003;1.452651e-001
1.265127e+003;1.429786e-001
1.267056e+003;1.405308e-001
1.268985e+003;1.381809e-001
1.270913e+003;1.360525e-001
1.272842e+003;1.339375e-001
1.274770e+003;1.317855e-001
1.276699e+003;1.300339e-001
1.278627e+003;1.286323e-001
1.280556e+003;1.273672e-001
1.282484e+003;1.262805e-001
1.284413e+003;1.253349e-001
1.286342e+003;1.246270e-001
1.288270e+003;1.241517e-001
1.290199e+003;1.239425e-001
1.292127e+003;1.241216e-001
1.294056e+003;1.240605e-001
1.295984e+003;1.237483e-001
1.297913e+003;1.235068e-001
1.299841e+003;1.234347e-001
1.301770e+003;1.235172e-001
1.303698e+003;1.235276e-001
1.305627e+003;1.234178e-001
1.307556e+003;1.231882e-001
1.309484e+003;1.229651e-001
1.311413e+003;1.226443e-001
1.313341e+003;1.222526e-001
1.315270e+003;1.220748e-001
1.317198e+003;1.220332e-001
1.319127e+003;1.224262e-001
1.321055e+003;1.228427e-001
1.322984e+003;1.231331e-001
1.324912e+003;1.237390e-001
1.326841e+003;1.243852e-001
1.328770e+003;1.248678e-001
1.330698e+003;1.253673e-001
1.332627e+003;1.255515e-001
1.334555e+003;1.257368e-001
1.336484e+003;1.259071e-001
1.338412e+003;1.257835e-001
1.340341e+003;1.258541e-001
1.342269e+003;1.260894e-001
1.344198e+003;1.258318e-001
1.346126e+003;1.257527e-001
1.348055e+003;1.261283e-001
1.349984e+003;1.263941e-001
1.351912e+003;1.267844e-001
1.353841e+003;1.273957e-001
1.355769e+003;1.283982e-001
1.357698e+003;1.297665e-001
1.359626e+003;1.312885e-001
1.361555e+003;1.333960e-001
1.363483e+003;1.357035e-001
1.365412e+003;1.376158e-001
1.367341e+003;1.390461e-001
1.369269e+003;1.397652e-001
1.371198e+003;1.397032e-001
1.373126e+003;1.392176e-001
1.375055e+003;1.387050e-001
1.376983e+003;1.385804e-001
1.378912e+003;1.385693e-001
1.380840e+003;1.385802e-001
1.382769e+003;1.388304e-001
1.384698e+003;1.395182e-001
1.386626e+003;1.398684e-001
1.388555e+003;1.397934e-001
1.390483e+003;1.398639e-001
1.392412e+003;1.398944e-001
1.394340e+003;1.397916e-001
1.396269e+003;1.395850e-001
1.398197e+003;1.396752e-001
1.400126e+003;1.400443e-001
1.402054e+003;1.406836e-001
1.403983e+003;1.412503e-001
1.405911e+003;1.418034e-001
1.407840e+003;1.422507e-001
1.409769e+003;1.427117e-001
1.411697e+003;1.432446e-001
1.413626e+003;1.436569e-001
1.415554e+003;1.439839e-001
1.417483e+003;1.445429e-001
1.419411e+003;1.453275e-001
1.421340e+003;1.465018e-001
1.423268e+003;1.483413e-001
1.425197e+003;1.507734e-001
1.427125e+003;1.537207e-001
1.429054e+003;1.572471e-001
1.430983e+003;1.610923e-001
1.432911e+003;1.652747e-001
1.434840e+003;1.693712e-001
1.436768e+003;1.724483e-001
1.438697e+003;1.744754e-001
1.440625e+003;1.758978e-001
1.442554e+003;1.769055e-001
1.444482e+003;1.775090e-001
1.446411e+003;1.772950e-001
1.448340e+003;1.759823e-001
1.450268e+003;1.738928e-001
1.452197e+003;1.710248e-001
1.454125e+003;1.679064e-001
1.456054e+003;1.649261e-001
1.457982e+003;1.623732e-001
1.459911e+003;1.609880e-001
1.461839e+003;1.600740e-001
1.463768e+003;1.594693e-001
1.465697e+003;1.591896e-001
1.467625e+003;1.594980e-001
1.469554e+003;1.606072e-001
1.471482e+003;1.621327e-001
1.473411e+003;1.636672e-001
1.475339e+003;1.653684e-001
1.477268e+003;1.678321e-001
1.479196e+003;1.710867e-001
1.481125e+003;1.746814e-001
1.483053e+003;1.785742e-001
1.484982e+003;1.829734e-001
1.486911e+003;1.879045e-001
1.488839e+003;1.930088e-001
1.490768e+003;1.980697e-001
1.492696e+003;2.028175e-001
1.494625e+003;2.075313e-001
1.496553e+003;2.123459e-001
1.498482e+003;2.167144e-001
1.500410e+003;2.203541e-001
1.502339e+003;2.238109e-001
1.504267e+003;2.267996e-001
1.506196e+003;2.292389e-001
1.508125e+003;2.314967e-001
1.510053e+003;2.332565e-001
1.511982e+003;2.341983e-001
1.513910e+003;2.340676e-001
1.515839e+003;2.322759e-001
1.517767e+003;2.284713e-001
1.519696e+003;2.233717e-001
1.521624e+003;2.179545e-001
1.523553e+003;2.131247e-001
1.525481e+003;2.090803e-001
1.527410e+003;2.053485e-001
1.529339e+003;2.021271e-001
1.531267e+003;1.993903e-001
1.533196e+003;1.961099e-001
1.535124e+003;1.924217e-001
1.537053e+003;1.890736e-001
1.538981e+003;1.859637e-001
1.540910e+003;1.829653e-001
1.542838e+003;1.799188e-001
1.544767e+003;1.768427e-001
1.546695e+003;1.739025e-001
1.548624e+003;1.708087e-001
1.550553e+003;1.677260e-001
1.552481e+003;1.645440e-001
1.554410e+003;1.614937e-001
1.556338e+003;1.584099e-001
1.558267e+003;1.546881e-001
1.560195e+003;1.507783e-001
1.562124e+003;1.474735e-001
1.564052e+003;1.443432e-001
1.565981e+003;1.407587e-001
1.567910e+003;1.376794e-001
1.569838e+003;1.351960e-001
1.571767e+003;1.330844e-001
1.573695e+003;1.315365e-001
1.575624e+003;1.306689e-001
1.577552e+003;1.301662e-001
1.579481e+003;1.299010e-001
1.581409e+003;1.301886e-001
1.583338e+003;1.312203e-001
1.585266e+003;1.330394e-001
1.587195e+003;1.352593e-001
1.589124e+003;1.380238e-001
1.591052e+003;1.416454e-001
1.592981e+003;1.459040e-001
1.594909e+003;1.503363e-001
1.596838e+003;1.551178e-001
1.598766e+003;1.603974e-001
1.600695e+003;1.661271e-001
1.602623e+003;1.726684e-001
1.604552e+003;1.802992e-001
1.606480e+003;1.886949e-001
1.608409e+003;1.969133e-001
1.610338e+003;2.047967e-001
1.612266e+003;2.125791e-001
1.614195e+003;2.197180e-001
1.616123e+003;2.255064e-001
1.618052e+003;2.302232e-001
1.619980e+003;2.337626e-001
1.621909e+003;2.357843e-001
1.623837e+003;2.366930e-001
1.625766e+003;2.363984e-001
1.627694e+003;2.346812e-001
1.629623e+003;2.321302e-001
1.631552e+003;2.291809e-001
1.633480e+003;2.257710e-001
1.635409e+003;2.217319e-001
1.637337e+003;2.172829e-001
1.639266e+003;2.128945e-001
1.641194e+003;2.088359e-001
1.643123e+003;2.052347e-001
1.645051e+003;2.013011e-001
1.646980e+003;1.969172e-001
1.648909e+003;1.926279e-001
1.650837e+003;1.886767e-001
1.652766e+003;1.844306e-001
1.654694e+003;1.797850e-001
1.656623e+003;1.752056e-001
1.658551e+003;1.708295e-001
1.660480e+003;1.665495e-001
1.662408e+003;1.622271e-001
1.664337e+003;1.580963e-001
1.666266e+003;1.541692e-001
1.668194e+003;1.504056e-001
1.670123e+003;1.467275e-001
1.672051e+003;1.435108e-001
1.673980e+003;1.403344e-001
1.675908e+003;1.370037e-001
1.677837e+003;1.337858e-001
1.679765e+003;1.306982e-001
1.681694e+003;1.279205e-001
1.683622e+003;1.252896e-001
1.685551e+003;1.228338e-001
1.687479e+003;1.209090e-001
1.689408e+003;1.193836e-001
1.691337e+003;1.182625e-001
1.693265e+003;1.171441e-001
1.695194e+003;1.160330e-001
1.697122e+003;1.148335e-001
1.699051e+003;1.124027e-001
1.700979e+003;1.073955e-001
1.702908e+003;1.006904e-001
1.704836e+003;9.310994e-002
1.706765e+003;8.536673e-002
1.708693e+003;7.810481e-002
1.710622e+003;7.225722e-002
1.712551e+003;6.789137e-002
1.714479e+003;6.424052e-002
1.716408e+003;6.089722e-002
1.718336e+003;5.808773e-002
1.720265e+003;5.574843e-002
1.722193e+003;5.386423e-002
1.724122e+003;5.214398e-002
1.726050e+003;5.056420e-002
1.727979e+003;4.939018e-002
1.729908e+003;4.840430e-002
1.731836e+003;4.724677e-002
1.733765e+003;4.622279e-002
1.735693e+003;4.524131e-002
1.737622e+003;4.438482e-002
1.739550e+003;4.346255e-002
1.741479e+003;4.261325e-002
1.743407e+003;4.200136e-002
1.745336e+003;4.122318e-002
1.747265e+003;4.019694e-002
1.749193e+003;3.944223e-002
1.751122e+003;3.905293e-002
1.753050e+003;3.867944e-002
1.754979e+003;3.797021e-002
1.756907e+003;3.711948e-002
1.758836e+003;3.648846e-002
1.760764e+003;3.626144e-002
1.762693e+003;3.596561e-002
1.764621e+003;3.551835e-002
1.766550e+003;3.513385e-002
1.768479e+003;3.495637e-002
1.770407e+003;3.480216e-002
1.772336e+003;3.428352e-002
1.774264e+003;3.377675e-002
1.776193e+003;3.354180e-002
1.778121e+003;3.327185e-002
1.780050e+003;3.302842e-002
1.781978e+003;3.280517e-002
1.783907e+003;3.254746e-002
1.785835e+003;3.239103e-002
1.787764e+003;3.212026e-002
1.789693e+003;3.151894e-002
1.791621e+003;3.103406e-002
1.793550e+003;3.091706e-002
1.795478e+003;3.086018e-002
1.797407e+003;3.058798e-002
1.799335e+003;3.023310e-002
1.801264e+003;2.981932e-002
1.803192e+003;2.946989e-002
1.805121e+003;2.931464e-002
1.807049e+003;2.916146e-002
1.808978e+003;2.879256e-002
1.810907e+003;2.852497e-002
1.812835e+003;2.835181e-002
1.814764e+003;2.803883e-002
1.816692e+003;2.759751e-002
1.818621e+003;2.735190e-002
1.820549e+003;2.738264e-002
1.822478e+003;2.726609e-002
1.824406e+003;2.709854e-002
1.826335e+003;2.695266e-002
1.828264e+003;2.663058e-002
1.830192e+003;2.629776e-002
1.832121e+003;2.605774e-002
1.834049e+003;2.573615e-002
1.835978e+003;2.546440e-002
1.837906e+003;2.534647e-002
1.839835e+003;2.517492e-002
1.841763e+003;2.501277e-002
1.843692e+003;2.482464e-002
1.845620e+003;2.474522e-002
1.847549e+003;2.451280e-002
1.849478e+003;2.425358e-002
1.851406e+003;2.404635e-002
1.853335e+003;2.376607e-002
1.855263e+003;2.368317e-002
1.857192e+003;2.379295e-002
1.859120e+003;2.379103e-002
1.861049e+003;2.367785e-002
1.862977e+003;2.354732e-002
1.864906e+003;2.337183e-002
1.866834e+003;2.318899e-002
1.868763e+003;2.311053e-002
1.870692e+003;2.323618e-002
1.872620e+003;2.326928e-002
1.874549e+003;2.320234e-002
1.876477e+003;2.313496e-002
1.878406e+003;2.312996e-002
1.880334e+003;2.316191e-002
1.882263e+003;2.319350e-002
1.884191e+003;2.296728e-002
1.886120e+003;2.257729e-002
1.888048e+003;2.237989e-002
1.889977e+003;2.247633e-002
1.891906e+003;2.248924e-002
1.893834e+003;2.243285e-002
1.895763e+003;2.247619e-002
1.897691e+003;2.238603e-002
1.899620e+003;2.215786e-002
1.901548e+003;2.196965e-002
1.903477e+003;2.173205e-002
1.905405e+003;2.176563e-002
1.907334e+003;2.197707e-002
1.909262e+003;2.174469e-002
1.911191e+003;2.152640e-002
1.913120e+003;2.158556e-002
1.915048e+003;2.178444e-002
1.916977e+003;2.177824e-002
1.918905e+003;2.172707e-002
1.920834e+003;2.165782e-002
1.922762e+003;2.148810e-002
1.924691e+003;2.157724e-002
1.926619e+003;2.158406e-002
1.928548e+003;2.153765e-002
1.930477e+003;2.163163e-002
1.932405e+003;2.147738e-002
1.934334e+003;2.125665e-002
1.936262e+003;2.130519e-002
1.938191e+003;2.124485e-002
1.940119e+003;2.114890e-002
1.942048e+003;2.120546e-002
1.943976e+003;2.125289e-002
1.945905e+003;2.125296e-002
1.947833e+003;2.147306e-002
1.949762e+003;2.147122e-002
1.951691e+003;2.136902e-002
1.953619e+003;2.132343e-002
1.955548e+003;2.115752e-002
1.957476e+003;2.119210e-002
1.959405e+003;2.129698e-002
1.961333e+003;2.128998e-002
1.963262e+003;2.132276e-002
1.965190e+003;2.134246e-002
1.967119e+003;2.125508e-002
1.969047e+003;2.115164e-002
1.970976e+003;2.101759e-002
1.972905e+003;2.100160e-002
1.974833e+003;2.104851e-002
1.976762e+003;2.096098e-002
1.978690e+003;2.071774e-002
1.980619e+003;2.048493e-002
1.982547e+003;2.051758e-002
1.984476e+003;2.059515e-002
1.986404e+003;2.057445e-002
1.988333e+003;2.048340e-002
1.990261e+003;2.047176e-002
1.992190e+003;2.060172e-002
1.994119e+003;2.073582e-002
1.996047e+003;2.059515e-002
1.997976e+003;2.036723e-002
1.999904e+003;2.035275e-002
2.001833e+003;2.038046e-002
2.003761e+003;2.028404e-002
2.005690e+003;2.025269e-002
2.007618e+003;2.030198e-002
2.009547e+003;2.045085e-002
2.011476e+003;2.039081e-002
2.013404e+003;2.016053e-002
2.015333e+003;2.019638e-002
2.017261e+003;2.032702e-002
2.019190e+003;2.023050e-002
2.021118e+003;2.008948e-002
2.023047e+003;2.002230e-002
2.024975e+003;2.000551e-002
2.026904e+003;2.001679e-002
2.028833e+003;2.020940e-002
2.030761e+003;2.032629e-002
2.032690e+003;2.022266e-002
2.034618e+003;2.012752e-002
2.036547e+003;2.007657e-002
2.038475e+003;2.011048e-002
2.040404e+003;2.001856e-002
2.042332e+003;1.997182e-002
2.044261e+003;1.993526e-002
2.046189e+003;2.005593e-002
2.048118e+003;2.022894e-002
2.050047e+003;2.020443e-002
2.051975e+003;2.004822e-002
2.053904e+003;2.014730e-002
2.055832e+003;2.022106e-002
2.057761e+003;2.002633e-002
2.059689e+003;1.986706e-002
2.061618e+003;1.993928e-002
2.063546e+003;2.000013e-002
2.065475e+003;2.002171e-002
2.067404e+003;2.024665e-002
2.069332e+003;2.022995e-002
2.071260e+003;2.012193e-002
2.073189e+003;2.023272e-002
2.075118e+003;2.045693e-002
2.077046e+003;2.033365e-002
2.078975e+003;2.002244e-002
2.080903e+003;2.001307e-002
2.082832e+003;2.020148e-002
2.084760e+003;2.022800e-002
2.086689e+003;2.027421e-002
2.088617e+003;2.022911e-002
2.090546e+003;2.003191e-002
2.092475e+003;1.989082e-002
2.094403e+003;1.989169e-002
2.096332e+003;1.997744e-002
2.098260e+003;1.998292e-002
2.100189e+003;2.012787e-002
2.102117e+003;2.019027e-002
2.104046e+003;2.003899e-002
2.105974e+003;1.982586e-002
2.107903e+003;1.978341e-002
2.109832e+003;2.001810e-002
2.111760e+003;2.002459e-002
2.113688e+003;1.979912e-002
2.115617e+003;1.970216e-002
2.117546e+003;1.982936e-002
2.119474e+003;1.972283e-002
2.121403e+003;1.954114e-002
2.123331e+003;1.958506e-002
2.125260e+003;1.976156e-002
2.127188e+003;1.980807e-002
2.129117e+003;1.980300e-002
2.131045e+003;1.977637e-002
2.132974e+003;1.982117e-002
2.134903e+003;1.979568e-002
2.136831e+003;1.976732e-002
2.138760e+003;1.973895e-002
2.140688e+003;1.965994e-002
2.142617e+003;1.964451e-002
2.144545e+003;1.965262e-002
2.146474e+003;1.962035e-002
2.148402e+003;1.962302e-002
2.150331e+003;1.950767e-002
2.152260e+003;1.933674e-002
2.154188e+003;1.949408e-002
2.156117e+003;1.967010e-002
2.158045e+003;1.961567e-002
2.159974e+003;1.957906e-002
2.161902e+003;1.948292e-002
2.163831e+003;1.951799e-002
2.165759e+003;1.985350e-002
2.167688e+003;1.996402e-002
2.169616e+003;1.989561e-002
2.171545e+003;1.994282e-002
2.173474e+003;1.988326e-002
2.175402e+003;1.967020e-002
2.177331e+003;1.978650e-002
2.179259e+003;1.989873e-002
2.181188e+003;1.985190e-002
2.183116e+003;1.989006e-002
2.185045e+003;1.989294e-002
2.186973e+003;1.980904e-002
2.188902e+003;1.979516e-002
2.190831e+003;1.963258e-002
2.192759e+003;1.954108e-002
2.194688e+003;1.961130e-002
2.196616e+003;1.964936e-002
2.198545e+003;1.966833e-002
2.200473e+003;1.976493e-002
2.202402e+003;2.008220e-002
2.204330e+003;2.008702e-002
2.206259e+003;1.997581e-002
2.208188e+003;2.027463e-002
2.210116e+003;2.009639e-002
2.212044e+003;1.974502e-002
2.213973e+003;1.974388e-002
2.215902e+003;1.975466e-002
2.217830e+003;1.978802e-002
2.219759e+003;1.998306e-002
2.221687e+003;2.022478e-002
2.223616e+003;2.000041e-002
2.225544e+003;1.986803e-002
2.227473e+003;1.996467e-002
2.229401e+003;2.005076e-002
2.231330e+003;2.010045e-002
2.233259e+003;1.982711e-002
2.235187e+003;1.960537e-002
2.237116e+003;1.964507e-002
2.239044e+003;1.973902e-002
2.240973e+003;2.001196e-002
2.242901e+003;2.014397e-002
2.244830e+003;1.993439e-002
2.246758e+003;1.999361e-002
2.248687e+003;2.012932e-002
2.250615e+003;1.998858e-002
2.252544e+003;1.997540e-002
2.254473e+003;1.998317e-002
2.256401e+003;1.992835e-002
2.258330e+003;2.005398e-002
2.260258e+003;2.022655e-002
2.262187e+003;2.005225e-002
2.264115e+003;1.977453e-002
2.266044e+003;1.976683e-002
2.267972e+003;2.000707e-002
2.269901e+003;2.007369e-002
2.271830e+003;1.995226e-002
2.273758e+003;2.006058e-002
2.275687e+003;2.015046e-002
2.277615e+003;2.007293e-002
2.279544e+003;2.016688e-002
2.281472e+003;2.028761e-002
2.283401e+003;2.023384e-002
2.285329e+003;2.022616e-002
2.287258e+003;2.034258e-002
2.289187e+003;2.030775e-002
2.291115e+003;2.040553e-002
2.293043e+003;2.072119e-002
2.294972e+003;2.068921e-002
2.296901e+003;2.051671e-002
2.298829e+003;2.055082e-002
2.300758e+003;2.061239e-002
2.302686e+003;2.062920e-002
2.304615e+003;2.059720e-002
2.306543e+003;2.064901e-002
2.308472e+003;2.065933e-002
2.310400e+003;2.061485e-002
2.312329e+003;2.070471e-002
2.314258e+003;2.090782e-002
2.316186e+003;2.093250e-002
2.318115e+003;2.080909e-002
2.320043e+003;2.077294e-002
2.321972e+003;2.090361e-002
2.323900e+003;2.092968e-002
2.325829e+003;2.067222e-002
2.327757e+003;2.038546e-002
2.329686e+003;2.046353e-002
2.331615e+003;2.069443e-002
2.333543e+003;2.073474e-002
2.335472e+003;2.079782e-002
2.337400e+003;2.075486e-002
2.339329e+003;2.071277e-002
2.341257e+003;2.065905e-002
2.343186e+003;2.051921e-002
2.345114e+003;2.052182e-002
2.347043e+003;2.054662e-002
2.348971e+003;2.057896e-002
2.350900e+003;2.064859e-002
2.352829e+003;2.066496e-002
2.354757e+003;2.064703e-002
2.356686e+003;2.062792e-002
2.358614e+003;2.073662e-002
2.360543e+003;2.093341e-002
2.362471e+003;2.100090e-002
2.364400e+003;2.086940e-002
2.366328e+003;2.074291e-002
2.368257e+003;2.073794e-002
2.370186e+003;2.095820e-002
2.372114e+003;2.113776e-002
2.374042e+003;2.112169e-002
2.375971e+003;2.100674e-002
2.377900e+003;2.089968e-002
2.379828e+003;2.124621e-002
2.381757e+003;2.154861e-002
2.383685e+003;2.140779e-002
2.385614e+003;2.146391e-002
2.387542e+003;2.177719e-002
2.389471e+003;2.189291e-002
2.391399e+003;2.192469e-002
2.393328e+003;2.185674e-002
2.395257e+003;2.175173e-002
2.397185e+003;2.154701e-002
2.399114e+003;2.177740e-002
2.401042e+003;2.210664e-002
2.402971e+003;2.220717e-002
2.404899e+003;2.237727e-002
2.406828e+003;2.253617e-002
2.408756e+003;2.255390e-002
2.410685e+003;2.276486e-002
2.412614e+003;2.326414e-002
2.414542e+003;2.345187e-002
2.416471e+003;2.338686e-002
2.418399e+003;2.351962e-002
2.420328e+003;2.376548e-002
2.422256e+003;2.396809e-002
2.424185e+003;2.412779e-002
2.426113e+003;2.417928e-002
2.428042e+003;2.412320e-002
2.429970e+003;2.424444e-002
2.431899e+003;2.442768e-002
2.433828e+003;2.452552e-002
2.435756e+003;2.459933e-002
2.437685e+003;2.485447e-002
2.439613e+003;2.506205e-002
2.441542e+003;2.503189e-002
2.443470e+003;2.501140e-002
2.445399e+003;2.520775e-002
2.447327e+003;2.558047e-002
2.449256e+003;2.569280e-002
2.451185e+003;2.550562e-002
2.453113e+003;2.531503e-002
2.455042e+003;2.535701e-002
2.456970e+003;2.536874e-002
2.458899e+003;2.531963e-002
2.460827e+003;2.550899e-002
2.462756e+003;2.578906e-002
2.464684e+003;2.585573e-002
2.466613e+003;2.579870e-002
2.468542e+003;2.587923e-002
2.470470e+003;2.620167e-002
2.472398e+003;2.629892e-002
2.474327e+003;2.619047e-002
2.476256e+003;2.618769e-002
2.478184e+003;2.627019e-002
2.480113e+003;2.643521e-002
2.482041e+003;2.672779e-002
2.483970e+003;2.666772e-002
2.485898e+003;2.631363e-002
2.487827e+003;2.627642e-002
2.489755e+003;2.656097e-002
2.491684e+003;2.673234e-002
2.493613e+003;2.674090e-002
2.495541e+003;2.682925e-002
2.497470e+003;2.680310e-002
2.499398e+003;2.683471e-002
2.501327e+003;2.685621e-002
2.503255e+003;2.702656e-002
2.505184e+003;2.725134e-002
2.507112e+003;2.715187e-002
2.509041e+003;2.687740e-002
2.510969e+003;2.685861e-002
2.512898e+003;2.708246e-002
2.514827e+003;2.726267e-002
2.516755e+003;2.730776e-002
2.518684e+003;2.726489e-002
2.520612e+003;2.745460e-002
2.522541e+003;2.745309e-002
2.524469e+003;2.728363e-002
2.526398e+003;2.728955e-002
2.528326e+003;2.740202e-002
2.530255e+003;2.748432e-002
2.532184e+003;2.754889e-002
2.534112e+003;2.748192e-002
2.536041e+003;2.746198e-002
2.537969e+003;2.771425e-002
2.539898e+003;2.802943e-002
2.541826e+003;2.812024e-002
2.543755e+003;2.811518e-002
2.545683e+003;2.821488e-002
2.547612e+003;2.844792e-002
2.549541e+003;2.854521e-002
2.551469e+003;2.844353e-002
2.553397e+003;2.835672e-002
2.555326e+003;2.857696e-002
2.557255e+003;2.904748e-002
2.559183e+003;2.925941e-002
2.561112e+003;2.927763e-002
2.563040e+003;2.926983e-002
2.564969e+003;2.955121e-002
2.566897e+003;2.995483e-002
2.568826e+003;3.005900e-002
2.570754e+003;3.014207e-002
2.572683e+003;3.029808e-002
2.574612e+003;3.046196e-002
2.576540e+003;3.069436e-002
2.578469e+003;3.103168e-002
2.580397e+003;3.151673e-002
2.582326e+003;3.179147e-002
2.584254e+003;3.176894e-002
2.586183e+003;3.162424e-002
2.588111e+003;3.157581e-002
2.590040e+003;3.180705e-002
2.591969e+003;3.219208e-002
2.593897e+003;3.256482e-002
2.595826e+003;3.306099e-002
2.597754e+003;3.330626e-002
2.599683e+003;3.326731e-002
2.601611e+003;3.323851e-002
2.603540e+003;3.342344e-002
2.605468e+003;3.369420e-002
2.607397e+003;3.385601e-002
2.609325e+003;3.380060e-002
2.611254e+003;3.382954e-002
2.613183e+003;3.403942e-002
2.615111e+003;3.413145e-002
2.617040e+003;3.405303e-002
2.618968e+003;3.399315e-002
2.620897e+003;3.406790e-002
2.622825e+003;3.429643e-002
2.624754e+003;3.440297e-002
2.626682e+003;3.435700e-002
2.628611e+003;3.421555e-002
2.630540e+003;3.414088e-002
2.632468e+003;3.425254e-002
2.634396e+003;3.433344e-002
2.636325e+003;3.424218e-002
2.638254e+003;3.402311e-002
2.640182e+003;3.419016e-002
2.642111e+003;3.421117e-002
2.644039e+003;3.384641e-002
2.645968e+003;3.385823e-002
2.647896e+003;3.432637e-002
2.649825e+003;3.453172e-002
2.651753e+003;3.431590e-002
2.653682e+003;3.424265e-002
2.655611e+003;3.455991e-002
2.657539e+003;3.475930e-002
2.659468e+003;3.467786e-002
2.661396e+003;3.464567e-002
2.663325e+003;3.474383e-002
2.665253e+003;3.492377e-002
2.667182e+003;3.517624e-002
2.669110e+003;3.548801e-002
2.671039e+003;3.560854e-002
2.672968e+003;3.574013e-002
2.674896e+003;3.583356e-002
2.676825e+003;3.599336e-002
2.678753e+003;3.619420e-002
2.680682e+003;3.638335e-002
2.682610e+003;3.649747e-002
2.684539e+003;3.665737e-002
2.686467e+003;3.688138e-002
2.688396e+003;3.691046e-002
2.690324e+003;3.726581e-002
2.692253e+003;3.767176e-002
2.694182e+003;3.784019e-002
2.696110e+003;3.795296e-002
2.698039e+003;3.806149e-002
2.699967e+003;3.824299e-002
2.701896e+003;3.854498e-002
2.703824e+003;3.890809e-002
2.705753e+003;3.898311e-002
2.707681e+003;3.908200e-002
2.709610e+003;3.928743e-002
2.711539e+003;3.950123e-002
2.713467e+003;3.978997e-002
2.715396e+003;4.017698e-002
2.717324e+003;4.046268e-002
2.719253e+003;4.065996e-002
2.721181e+003;4.095679e-002
2.723110e+003;4.111786e-002
2.725038e+003;4.121436e-002
2.726967e+003;4.132356e-002
2.728896e+003;4.171162e-002
2.730824e+003;4.233019e-002
2.732752e+003;4.273747e-002
2.734681e+003;4.286548e-002
2.736610e+003;4.293036e-002
2.738538e+003;4.315614e-002
2.740467e+003;4.331931e-002
2.742395e+003;4.340268e-002
2.744324e+003;4.365618e-002
2.746252e+003;4.387078e-002
2.748181e+003;4.407713e-002
2.750109e+003;4.431774e-002
2.752038e+003;4.456285e-002
2.753967e+003;4.481111e-002
2.755895e+003;4.488411e-002
2.757824e+003;4.523984e-002
2.759752e+003;4.545011e-002
2.761681e+003;4.543441e-002
2.763609e+003;4.554651e-002
2.765538e+003;4.567128e-002
2.767466e+003;4.604346e-002
2.769395e+003;4.641607e-002
2.771323e+003;4.655661e-002
2.773252e+003;4.658291e-002
2.775181e+003;4.669225e-002
2.777109e+003;4.685576e-002
2.779038e+003;4.699995e-002
2.780966e+003;4.751608e-002
2.782895e+003;4.776911e-002
2.784823e+003;4.775010e-002
2.786752e+003;4.800614e-002
2.788680e+003;4.810641e-002
2.790609e+003;4.802065e-002
2.792538e+003;4.806858e-002
2.794466e+003;4.853429e-002
2.796395e+003;4.907525e-002
2.798323e+003;4.926048e-002
2.800252e+003;4.957492e-002
2.802180e+003;5.001209e-002
2.804109e+003;5.018988e-002
2.806037e+003;5.031081e-002
2.807966e+003;5.035992e-002
2.809895e+003;5.057035e-002
2.811823e+003;5.088364e-002
2.813751e+003;5.106219e-002
2.815680e+003;5.106253e-002
2.817609e+003;5.119198e-002
2.819537e+003;5.158105e-002
2.821466e+003;5.191994e-002
2.823394e+003;5.210576e-002
2.825323e+003;5.221269e-002
2.827251e+003;5.248454e-002
2.829180e+003;5.280693e-002
2.831108e+003;5.313555e-002
2.833037e+003;5.371077e-002
2.834966e+003;5.408563e-002
2.836894e+003;5.426302e-002
2.838823e+003;5.490110e-002
2.840751e+003;5.552855e-002
2.842680e+003;5.599845e-002
2.844608e+003;5.680185e-002
2.846537e+003;5.767594e-002
2.848465e+003;5.828863e-002
2.850394e+003;5.909320e-002
2.852323e+003;5.979925e-002
2.854251e+003;6.042599e-002
2.856180e+003;6.090740e-002
2.858108e+003;6.143724e-002
2.860037e+003;6.228244e-002
2.861965e+003;6.296536e-002
2.863894e+003;6.337528e-002
2.865822e+003;6.365065e-002
2.867751e+003;6.431504e-002
2.869679e+003;6.510378e-002
2.871608e+003;6.554960e-002
2.873536e+003;6.572098e-002
2.875465e+003;6.597833e-002
2.877394e+003;6.626029e-002
2.879322e+003;6.617404e-002
2.881251e+003;6.612538e-002
2.883179e+003;6.627712e-002
2.885108e+003;6.595260e-002
2.887036e+003;6.541973e-002
2.888965e+003;6.541456e-002
2.890893e+003;6.579797e-002
2.892822e+003;6.637285e-002
2.894750e+003;6.644945e-002
2.896679e+003;6.629788e-002
2.898608e+003;6.673848e-002
2.900536e+003;6.736641e-002
2.902465e+003;6.772095e-002
2.904393e+003;6.792043e-002
2.906322e+003;6.826678e-002
2.908250e+003;6.863610e-002
2.910179e+003;6.890807e-002
2.912107e+003;6.908455e-002
2.914036e+003;6.974281e-002
2.915965e+003;7.027662e-002
2.917893e+003;7.061842e-002
2.919822e+003;7.111603e-002
2.921750e+003;7.145791e-002
2.923679e+003;7.221664e-002
2.925607e+003;7.315184e-002
2.927536e+003;7.407483e-002
2.929464e+003;7.494131e-002
2.931393e+003;7.531667e-002
2.933322e+003;7.498486e-002
2.935250e+003;7.487311e-002
2.937178e+003;7.515977e-002
2.939107e+003;7.489130e-002
2.941036e+003;7.435663e-002
2.942964e+003;7.404540e-002
2.944893e+003;7.371392e-002
2.946821e+003;7.271903e-002
2.948750e+003;7.186463e-002
2.950678e+003;7.171160e-002
2.952607e+003;7.150204e-002
2.954535e+003;7.101523e-002
2.956464e+003;7.077646e-002
2.958393e+003;7.057215e-002
2.960321e+003;7.029887e-002
2.962250e+003;7.028469e-002
2.964178e+003;7.056256e-002
2.966107e+003;7.067242e-002
2.968035e+003;7.073364e-002
2.969964e+003;7.087146e-002
2.971892e+003;7.110935e-002
2.973821e+003;7.068022e-002
2.975750e+003;7.016627e-002
2.977678e+003;7.014026e-002
2.979607e+003;6.995954e-002
2.981535e+003;6.953211e-002
2.983464e+003;6.928043e-002
2.985392e+003;6.893308e-002
2.987321e+003;6.858077e-002
2.989249e+003;6.836900e-002
2.991178e+003;6.824173e-002
2.993106e+003;6.792582e-002
2.995035e+003;6.761749e-002
2.996964e+003;6.735712e-002
2.998892e+003;6.683956e-002
3.000821e+003;6.623358e-002
3.002749e+003;6.607357e-002
3.004678e+003;6.593374e-002
3.006606e+003;6.546780e-002
3.008535e+003;6.503057e-002
3.010463e+003;6.517065e-002
3.012392e+003;6.555075e-002
3.014321e+003;6.537031e-002
3.016249e+003;6.510016e-002
3.018177e+003;6.512275e-002
3.020106e+003;6.532701e-002
3.022035e+003;6.558362e-002
3.023963e+003;6.597281e-002
3.025892e+003;6.651556e-002
3.027820e+003;6.687242e-002
3.029749e+003;6.715840e-002
3.031677e+003;6.761323e-002
3.033606e+003;6.803989e-002
3.035534e+003;6.844421e-002
3.037463e+003;6.882241e-002
3.039392e+003;6.909706e-002
3.041320e+003;6.936940e-002
3.043249e+003;6.998141e-002
3.045177e+003;7.059488e-002
3.047106e+003;7.087583e-002
3.049034e+003;7.117423e-002
3.050963e+003;7.139741e-002
3.052891e+003;7.182144e-002
3.054820e+003;7.224967e-002
3.056749e+003;7.254126e-002
3.058677e+003;7.290518e-002
3.060606e+003;7.315200e-002
3.062534e+003;7.301226e-002
3.064463e+003;7.335552e-002
3.066391e+003;7.385514e-002
3.068320e+003;7.374015e-002
3.070248e+003;7.361146e-002
3.072177e+003;7.347645e-002
3.074105e+003;7.362304e-002
3.076034e+003;7.394815e-002
3.077963e+003;7.368102e-002
3.079891e+003;7.341143e-002
3.081820e+003;7.348104e-002
3.083748e+003;7.363658e-002
3.085677e+003;7.338137e-002
3.087605e+003;7.280494e-002
3.089534e+003;7.268374e-002
3.091462e+003;7.276322e-002
3.093391e+003;7.262177e-002
3.095320e+003;7.241903e-002
3.097248e+003;7.211293e-002
3.099177e+003;7.176033e-002
3.101105e+003;7.161754e-002
3.103034e+003;7.127335e-002
3.104962e+003;7.072704e-002
3.106891e+003;7.049088e-002
3.108819e+003;7.027584e-002
3.110748e+003;7.015997e-002
3.112677e+003;7.017636e-002
3.114605e+003;7.022871e-002
3.116533e+003;7.006994e-002
3.118462e+003;7.010133e-002
3.120391e+003;7.006986e-002
3.122319e+003;6.989769e-002
3.124248e+003;6.981448e-002
3.126176e+003;6.986196e-002
3.128105e+003;7.034959e-002
3.130033e+003;7.063230e-002
3.131962e+003;7.024328e-002
3.133890e+003;6.983678e-002
3.135819e+003;7.001770e-002
3.137748e+003;7.038247e-002
3.139676e+003;7.060450e-002
3.141605e+003;7.088204e-002
3.143533e+003;7.146978e-002
3.145462e+003;7.200654e-002
3.147390e+003;7.202777e-002
3.149319e+003;7.241257e-002
3.151247e+003;7.308357e-002
3.153176e+003;7.360290e-002
3.155104e+003;7.355937e-002
3.157033e+003;7.373410e-002
3.158962e+003;7.441605e-002
3.160890e+003;7.508611e-002
3.162819e+003;7.599514e-002
3.164747e+003;7.661057e-002
3.166676e+003;7.675344e-002
3.168604e+003;7.715882e-002
3.170533e+003;7.797783e-002
3.172461e+003;7.886056e-002
3.174390e+003;7.943820e-002
3.176319e+003;7.986303e-002
3.178247e+003;8.060661e-002
3.180176e+003;8.141956e-002
3.182104e+003;8.190618e-002
3.184033e+003;8.244110e-002
3.185961e+003;8.317567e-002
3.187890e+003;8.369279e-002
3.189818e+003;8.446268e-002
3.191747e+003;8.526487e-002
3.193676e+003;8.606099e-002
3.195604e+003;8.685780e-002
3.197532e+003;8.732417e-002
3.199461e+003;8.809482e-002
3.201390e+003;8.902139e-002
3.203318e+003;8.964640e-002
3.205247e+003;9.025930e-002
3.207175e+003;9.088434e-002
3.209104e+003;9.164713e-002
3.211032e+003;9.227466e-002
3.212961e+003;9.306949e-002
3.214889e+003;9.389450e-002
3.216818e+003;9.460986e-002
3.218747e+003;9.552272e-002
3.220675e+003;9.646036e-002
3.222604e+003;9.720082e-002
3.224532e+003;9.803093e-002
3.226461e+003;9.865433e-002
3.228389e+003;9.957807e-002
3.230318e+003;1.008428e-001
3.232246e+003;1.013951e-001
3.234175e+003;1.020570e-001
3.236104e+003;1.032384e-001
3.238032e+003;1.045241e-001
3.239961e+003;1.057789e-001
3.241889e+003;1.068663e-001
3.243818e+003;1.077190e-001
3.245746e+003;1.083754e-001
3.247675e+003;1.095276e-001
3.249603e+003;1.107102e-001
3.251532e+003;1.118498e-001
3.253460e+003;1.136751e-001
3.255389e+003;1.152421e-001
3.257318e+003;1.165140e-001
3.259246e+003;1.178199e-001
3.261175e+003;1.190507e-001
3.263103e+003;1.201616e-001
3.265032e+003;1.213547e-001
3.266960e+003;1.227624e-001
3.268889e+003;1.242516e-001
3.270817e+003;1.256737e-001
3.272746e+003;1.265523e-001
3.274675e+003;1.271878e-001
3.276603e+003;1.282729e-001
3.278531e+003;1.288953e-001
3.280460e+003;1.288770e-001
3.282389e+003;1.291527e-001
3.284317e+003;1.295753e-001
3.286246e+003;1.293799e-001
3.288174e+003;1.287918e-001
3.290103e+003;1.282296e-001
3.292031e+003;1.275188e-001
3.293960e+003;1.266332e-001
3.295888e+003;1.257867e-001
3.297817e+003;1.246343e-001
3.299746e+003;1.232464e-001
3.301674e+003;1.220673e-001
3.303603e+003;1.205294e-001
3.305531e+003;1.188184e-001
3.307460e+003;1.173303e-001
3.309388e+003;1.158009e-001
3.311317e+003;1.146181e-001
3.313245e+003;1.136213e-001
3.315174e+003;1.120319e-001
3.317103e+003;1.100507e-001
3.319031e+003;1.081670e-001
3.320960e+003;1.065256e-001
3.322888e+003;1.051137e-001
3.324817e+003;1.040143e-001
3.326745e+003;1.026291e-001
3.328674e+003;1.010974e-001
3.330602e+003;9.963275e-002
3.332531e+003;9.821463e-002
3.334459e+003;9.702086e-002
3.336388e+003;9.576120e-002
3.338317e+003;9.417687e-002
3.340245e+003;9.304453e-002
3.342174e+003;9.188632e-002
3.344102e+003;9.076320e-002
3.346031e+003;8.941450e-002
3.347959e+003;8.830384e-002
3.349888e+003;8.736453e-002
3.351816e+003;8.675764e-002
3.353745e+003;8.595257e-002
3.355674e+003;8.404013e-002
3.357602e+003;8.294471e-002
3.359531e+003;8.270719e-002
3.361459e+003;8.201379e-002
3.363388e+003;8.144658e-002
3.365316e+003;8.107235e-002
3.367245e+003;8.045322e-002
3.369173e+003;7.987537e-002
3.371102e+003;7.932185e-002
3.373031e+003;7.869519e-002
3.374959e+003;7.818565e-002
3.376887e+003;7.760265e-002
3.378816e+003;7.712439e-002
3.380745e+003;7.674410e-002
3.382673e+003;7.619727e-002
3.384602e+003;7.539147e-002
3.386530e+003;7.441912e-002
3.388459e+003;7.370497e-002
3.390387e+003;7.306240e-002
3.392316e+003;7.273553e-002
3.394244e+003;7.226094e-002
3.396173e+003;7.137296e-002
3.398102e+003;7.100543e-002
3.400030e+003;7.088621e-002
3.401959e+003;7.034542e-002
3.403887e+003;6.951185e-002
3.405816e+003;6.904288e-002
3.407744e+003;6.850034e-002
3.409673e+003;6.765822e-002
3.411601e+003;6.741644e-002
3.413530e+003;6.727150e-002
3.415458e+003;6.629969e-002
3.417387e+003;6.543941e-002
3.419316e+003;6.499651e-002
3.421244e+003;6.462442e-002
3.423173e+003;6.423847e-002
3.425101e+003;6.376690e-002
3.427030e+003;6.347156e-002
3.428958e+003;6.266592e-002
3.430887e+003;6.198914e-002
3.432815e+003;6.184000e-002
3.434744e+003;6.141362e-002
3.436673e+003;6.111083e-002
3.438601e+003;6.095860e-002
3.440530e+003;6.007027e-002
3.442458e+003;5.983059e-002
3.444387e+003;5.976268e-002
3.446315e+003;5.917890e-002
3.448244e+003;5.900855e-002
3.450172e+003;5.888715e-002
3.452101e+003;5.842829e-002
3.454030e+003;5.769619e-002
3.455958e+003;5.751375e-002
3.457886e+003;5.744847e-002
3.459815e+003;5.726259e-002
3.461744e+003;5.710989e-002
3.463672e+003;5.692505e-002
3.465601e+003;5.681397e-002
3.467529e+003;5.641430e-002
3.469458e+003;5.601658e-002
3.471386e+003;5.577679e-002
3.473315e+003;5.547358e-002
3.475243e+003;5.527973e-002
3.477172e+003;5.487147e-002
3.479101e+003;5.496258e-002
3.481029e+003;5.519857e-002
3.482958e+003;5.507819e-002
3.484886e+003;5.476884e-002
3.486815e+003;5.448575e-002
3.488743e+003;5.417435e-002
3.490672e+003;5.393471e-002
3.492600e+003;5.405568e-002
3.494529e+003;5.381712e-002
3.496458e+003;5.326880e-002
3.498386e+003;5.316333e-002
3.500315e+003;5.278089e-002
3.502243e+003;5.207927e-002
3.504172e+003;5.189664e-002
3.506100e+003;5.190325e-002
3.508029e+003;5.181943e-002
3.509957e+003;5.166878e-002
3.511886e+003;5.158721e-002
3.513814e+003;5.124425e-002
3.515743e+003;5.072594e-002
3.517672e+003;5.020915e-002
3.519600e+003;4.992659e-002
3.521529e+003;4.967115e-002
3.523457e+003;4.947855e-002
3.525386e+003;4.948382e-002
3.527314e+003;4.917012e-002
3.529243e+003;4.900473e-002
3.531171e+003;4.890430e-002
3.533100e+003;4.838326e-002
3.535029e+003;4.795863e-002
3.536957e+003;4.745683e-002
3.538885e+003;4.676029e-002
3.540814e+003;4.643211e-002
3.542743e+003;4.639443e-002
3.544671e+003;4.638727e-002
3.546600e+003;4.643355e-002
3.548528e+003;4.598865e-002
3.550457e+003;4.549099e-002
3.552385e+003;4.502614e-002
3.554314e+003;4.466452e-002
3.556242e+003;4.446601e-002
3.558171e+003;4.392324e-002
3.560100e+003;4.366182e-002
3.562028e+003;4.358569e-002
3.563957e+003;4.295326e-002
3.565885e+003;4.225660e-002
3.567814e+003;4.191439e-002
3.569742e+003;4.163182e-002
3.571671e+003;4.134288e-002
3.573599e+003;4.094794e-002
3.575528e+003;4.039238e-002
3.577457e+003;3.985563e-002
3.579385e+003;3.925921e-002
3.581314e+003;3.878449e-002
3.583242e+003;3.879337e-002
3.585171e+003;3.865391e-002
3.587099e+003;3.836621e-002
3.589028e+003;3.799361e-002
3.590956e+003;3.737240e-002
3.592885e+003;3.699581e-002
3.594813e+003;3.656945e-002
3.596742e+003;3.628050e-002
3.598671e+003;3.599880e-002
3.600599e+003;3.589053e-002
3.602528e+003;3.529648e-002
3.604456e+003;3.440462e-002
3.606385e+003;3.393532e-002
3.608313e+003;3.370366e-002
3.610242e+003;3.313701e-002
3.612170e+003;3.278966e-002
3.614099e+003;3.243833e-002
3.616028e+003;3.140783e-002
3.617956e+003;3.018170e-002
3.619885e+003;2.965787e-002
3.621813e+003;2.964826e-002
3.623742e+003;2.930428e-002
3.625670e+003;2.856238e-002
3.627599e+003;2.808630e-002
3.629527e+003;2.736757e-002
3.631456e+003;2.647490e-002
3.633385e+003;2.632360e-002
3.635313e+003;2.608339e-002
3.637241e+003;2.509069e-002
3.639170e+003;2.407616e-002
3.641099e+003;2.334256e-002
3.643027e+003;2.266909e-002
3.644956e+003;2.216996e-002
3.646884e+003;2.169335e-002
3.648813e+003;2.111748e-002
3.650741e+003;2.050997e-002
3.652670e+003;1.976891e-002
3.654598e+003;1.904345e-002
3.656527e+003;1.838186e-002
3.658456e+003;1.780605e-002
3.660384e+003;1.695884e-002
3.662313e+003;1.614653e-002
3.664241e+003;1.552708e-002
3.666170e+003;1.504339e-002
3.668098e+003;1.429225e-002
3.670027e+003;1.352511e-002
3.671955e+003;1.320722e-002
3.673884e+003;1.324692e-002
3.675813e+003;1.300131e-002
3.677741e+003;1.240612e-002
3.679669e+003;1.186849e-002
3.681598e+003;1.125139e-002
3.683527e+003;1.068879e-002
3.685455e+003;1.038106e-002
3.687384e+003;1.006947e-002
3.689312e+003;9.590533e-003
3.691241e+003;9.430542e-003
3.693169e+003;9.173238e-003
3.695098e+003;8.815005e-003
3.697026e+003;8.716924e-003
3.698955e+003;8.599633e-003
3.700884e+003;7.963843e-003
3.702812e+003;7.743597e-003
3.704741e+003;7.637899e-003
3.706669e+003;7.413471e-003
3.708598e+003;7.389945e-003
3.710526e+003;7.506876e-003
3.712455e+003;7.211190e-003
3.714383e+003;6.941494e-003
3.716312e+003;6.843498e-003
3.718240e+003;6.680713e-003
3.720169e+003;6.392784e-003
3.722098e+003;6.035762e-003
3.724026e+003;5.710792e-003
3.725955e+003;5.723953e-003
3.727883e+003;5.819716e-003
3.729812e+003;5.868008e-003
3.731740e+003;5.893230e-003
3.733669e+003;6.246909e-003
3.735597e+003;6.540021e-003
3.737526e+003;5.955068e-003
3.739455e+003;5.569307e-003
3.741383e+003;5.415789e-003
3.743312e+003;4.855969e-003
3.745240e+003;5.054742e-003
3.747169e+003;5.513699e-003
3.749097e+003;5.780662e-003
3.751026e+003;5.988359e-003
3.752954e+003;5.985403e-003
3.754883e+003;5.874489e-003
3.756812e+003;5.722946e-003
3.758740e+003;5.795538e-003
3.760668e+003;5.634186e-003
3.762597e+003;5.044183e-003
3.764526e+003;4.841226e-003
3.766454e+003;5.059267e-003
3.768383e+003;5.068184e-003
3.770311e+003;5.106302e-003
3.772240e+003;5.307068e-003
3.774168e+003;5.143953e-003
3.776097e+003;5.009322e-003
3.778025e+003;4.830069e-003
3.779954e+003;4.666396e-003
3.781883e+003;4.957271e-003
3.783811e+003;5.208098e-003
3.785740e+003;5.139729e-003
3.787668e+003;5.166552e-003
3.789597e+003;5.180803e-003
3.791525e+003;5.230466e-003
3.793454e+003;5.184156e-003
3.795382e+003;4.858716e-003
3.797311e+003;4.685186e-003
3.799240e+003;5.001076e-003
3.801168e+003;5.444844e-003
3.803097e+003;5.691421e-003
3.805025e+003;5.831335e-003
3.806954e+003;5.531350e-003
3.808882e+003;4.997122e-003
3.810811e+003;4.476471e-003
3.812739e+003;4.747387e-003
3.814668e+003;4.814154e-003
3.816596e+003;4.406342e-003
3.818525e+003;4.463583e-003
3.820454e+003;4.786582e-003
3.822382e+003;4.974464e-003
3.824311e+003;5.220003e-003
3.826239e+003;5.514336e-003
3.828168e+003;5.450011e-003
3.830096e+003;5.101038e-003
3.832025e+003;4.843002e-003
3.833953e+003;5.313608e-003
3.835882e+003;5.586189e-003
3.837811e+003;5.212558e-003
3.839739e+003;5.144791e-003
3.841667e+003;5.082700e-003
3.843596e+003;5.003054e-003
3.845525e+003;4.795962e-003
3.847453e+003;4.784539e-003
3.849382e+003;5.276781e-003
3.851310e+003;6.014999e-003
3.853239e+003;6.212724e-003
3.855167e+003;6.238001e-003
3.857096e+003;6.349780e-003
3.859024e+003;6.222741e-003
3.860953e+003;5.814074e-003
3.862882e+003;5.768642e-003
3.864810e+003;6.063179e-003
3.866739e+003;6.334280e-003
3.868667e+003;6.315184e-003
3.870596e+003;5.975492e-003
3.872524e+003;6.277330e-003
3.874453e+003;6.606425e-003
3.876381e+003;6.290811e-003
3.878310e+003;6.216993e-003
3.880239e+003;6.559363e-003
3.882167e+003;6.721799e-003
3.884096e+003;6.811218e-003
3.886024e+003;7.062041e-003
3.887953e+003;7.020923e-003
3.889881e+003;7.162579e-003
3.891810e+003;7.238748e-003
3.893738e+003;7.106363e-003
3.895667e+003;7.600537e-003
3.897595e+003;8.073029e-003
3.899524e+003;7.963843e-003
3.901453e+003;7.885927e-003
3.903381e+003;8.051493e-003
3.905310e+003;7.930131e-003
3.907238e+003;7.865751e-003
3.909167e+003;8.071847e-003
3.911095e+003;8.013893e-003
3.913024e+003;7.826345e-003
3.914952e+003;8.284324e-003
3.916881e+003;8.495417e-003
3.918810e+003;8.548435e-003
3.920738e+003;8.853352e-003
3.922667e+003;8.775649e-003
3.924595e+003;8.846014e-003
3.926524e+003;8.887575e-003
3.928452e+003;8.544650e-003
3.930381e+003;8.873236e-003
3.932309e+003;9.191885e-003
3.934238e+003;8.771895e-003
3.936167e+003;8.756749e-003
3.938095e+003;9.359608e-003
3.940023e+003;9.555204e-003
3.941952e+003;9.879505e-003
3.943881e+003;9.882183e-003
3.945809e+003;9.103665e-003
3.947738e+003;9.048009e-003
3.949666e+003;9.539894e-003
3.951595e+003;9.251181e-003
3.953523e+003;8.958906e-003
3.955452e+003;9.293425e-003
3.957380e+003;9.961644e-003
3.959309e+003;1.026620e-002
3.961238e+003;1.025873e-002
3.963166e+003;1.064512e-002
3.965095e+003;1.042304e-002
3.967023e+003;1.012102e-002
3.968952e+003;1.010704e-002
3.970880e+003;9.688541e-003
3.972809e+003;9.445645e-003
3.974737e+003;9.668721e-003
3.976666e+003;1.014947e-002
3.978594e+003;1.057086e-002
3.980523e+003;1.041078e-002
3.982452e+003;1.005984e-002
3.984380e+003;1.005828e-002
3.986309e+003;1.020279e-002
3.988237e+003;1.008164e-002
3.990166e+003;9.562215e-003
3.992094e+003;9.255277e-003
3.994023e+003;9.507380e-003
3.995951e+003;9.501250e-003
3.997880e+003;9.382225e-003
3.999809e+003;9.619529e-003
4.001737e+003;0.000000e+000
