3.992094e+002;0.000000e+000
4.011380e+002;0.000000e+000
4.030665e+002;0.000000e+000
4.049951e+002;0.000000e+000
4.069236e+002;0.000000e+000
4.088522e+002;0.000000e+000
4.107807e+002;0.000000e+000
4.127093e+002;0.000000e+000
4.146378e+002;0.000000e+000
4.165664e+002;0.000000e+000
4.184949e+002;0.000000e+000
4.204235e+002;0.000000e+000
4.223520e+002;0.000000e+000
4.242806e+002;0.000000e+000
4.262091e+002;0.000000e+000
4.281377e+002;0.000000e+000
4.300662e+002;0.000000e+000
4.319948e+002;0.000000e+000
4.339233e+002;0.000000e+000
4.358519e+002;0.000000e+000
4.377804e+002;0.000000e+000
4.397090e+002;0.000000e+000
4.416375e+002;0.000000e+000
4.435660e+002;0.000000e+000
4.454946e+002;0.000000e+000
4.474232e+002;0.000000e+000
4.493517e+002;0.000000e+000
4.512802e+002;0.000000e+000
4.532088e+002;0.000000e+000
4.551373e+002;0.000000e+000
4.570659e+002;0.000000e+000
4.589944e+002;0.000000e+000
4.609230e+002;0.000000e+000
4.628515e+002;0.000000e+000
4.647801e+002;0.000000e+000
4.667086e+002;0.000000e+000
4.686372e+002;0.000000e+000
4.705657e+002;0.000000e+000
4.724943e+002;0.000000e+000
4.744228e+002;0.000000e+000
4.763513e+002;0.000000e+000
4.782799e+002;0.000000e+000
4.802085e+002;0.000000e+000
4.821370e+002;0.000000e+000
4.840656e+002;0.000000e+000
4.859941e+002;0.000000e+000
4.879226e+002;0.000000e+000
4.898512e+002;0.000000e+000
4.917798e+002;0.000000e+000
4.937083e+002;0.000000e+000
4.956368e+002;0.000000e+000
4.975654e+002;0.000000e+000
4.994939e+002;0.000000e+000
5.014225e+002;0.000000e+000
5.033510e+002;0.000000e+000
5.052796e+002;0.000000e+000
5.072081e+002;0.000000e+000
5.091367e+002;0.000000e+000
5.110652e+002;0.000000e+000
5.129938e+002;0.000000e+000
5.149223e+002;0.000000e+000
5.168509e+002;0.000000e+000
5.187794e+002;0.000000e+000
5.207079e+002;0.000000e+000
5.226365e+002;0.000000e+000
5.245651e+002;0.000000e+000
5.264936e+002;0.000000e+000
5.284222e+002;0.000000e+000
5.303507e+002;0.000000e+000
5.322792e+002;0.000000e+000
5.342078e+002;0.000000e+000
5.361364e+002;0.000000e+000
5.380649e+002;0.000000e+000
5.399935e+002;0.000000e+000
5.419220e+002;0.000000e+000
5.438505e+002;0.000000e+000
5.457791e+002;0.000000e+000
5.477076e+002;0.000000e+000
5.496362e+002;0.000000e+000
5.515648e+002;0.000000e+000
5.534933e+002;0.000000e+000
5.554218e+002;0.000000e+000
5.573504e+002;0.000000e+000
5.592789e+002;0.000000e+000
5.612075e+002;0.000000e+000
5.631360e+002;0.000000e+000
5.650646e+002;0.000000e+000
5.669931e+002;0.000000e+000
5.689217e+002;0.000000e+000
5.708502e+002;0.000000e+000
5.727787e+002;0.000000e+000
5.747073e+002;0.000000e+000
5.766359e+002;0.000000e+000
5.785644e+002;0.000000e+000
5.804930e+002;0.000000e+000
5.824215e+002;0.000000e+000
5.843500e+002;0.000000e+000
5.862786e+002;0.000000e+000
5.882072e+002;0.000000e+000
5.901357e+002;0.000000e+000
5.920643e+002;0.000000e+000
5.939928e+002;0.000000e+000
5.959213e+002;0.000000e+000
5.978499e+002;0.000000e+000
5.997784e+002;1.678276e-001
6.017070e+002;1.706010e-001
6.036355e+002;1.695617e-001
6.055641e+002;1.677307e-001
6.074926e+002;1.689682e-001
6.094211e+002;1.688213e-001
6.113497e+002;1.666344e-001
6.132783e+002;1.657176e-001
6.152068e+002;1.629697e-001
6.171354e+002;1.634906e-001
6.190639e+002;1.672318e-001
6.209924e+002;1.649839e-001
6.229210e+002;1.608910e-001
6.248495e+002;1.593893e-001
6.267781e+002;1.609624e-001
6.287067e+002;1.645969e-001
6.306352e+002;1.625497e-001
6.325637e+002;1.548143e-001
6.344923e+002;1.531915e-001
6.364208e+002;1.518316e-001
6.383494e+002;1.517691e-001
6.402780e+002;1.558016e-001
6.422065e+002;1.565378e-001
6.441350e+002;1.533973e-001
6.460636e+002;1.508936e-001
6.479921e+002;1.508874e-001
6.499207e+002;1.512832e-001
6.518492e+002;1.506510e-001
6.537778e+002;1.494407e-001
6.557063e+002;1.470093e-001
6.576349e+002;1.457789e-001
6.595634e+002;1.464342e-001
6.614919e+002;1.464031e-001
6.634205e+002;1.474142e-001
6.653491e+002;1.480557e-001
6.672776e+002;1.467559e-001
6.692062e+002;1.451658e-001
6.711347e+002;1.449196e-001
6.730632e+002;1.440108e-001
6.749918e+002;1.434208e-001
6.769203e+002;1.436121e-001
6.788489e+002;1.434607e-001
6.807775e+002;1.438832e-001
6.827060e+002;1.444589e-001
6.846345e+002;1.445067e-001
6.865631e+002;1.434511e-001
6.884916e+002;1.420545e-001
6.904202e+002;1.398824e-001
6.923488e+002;1.382588e-001
6.942773e+002;1.378472e-001
6.962058e+002;1.370704e-001
6.981344e+002;1.356088e-001
7.000629e+002;1.339533e-001
7.019915e+002;1.323019e-001
7.039200e+002;1.308320e-001
7.058486e+002;1.293074e-001
7.077771e+002;1.270546e-001
7.097057e+002;1.247409e-001
7.116342e+002;1.234006e-001
7.135627e+002;1.228628e-001
7.154913e+002;1.211641e-001
7.174199e+002;1.183749e-001
7.193484e+002;1.163747e-001
7.212770e+002;1.150226e-001
7.232055e+002;1.130568e-001
7.251340e+002;1.100727e-001
7.270626e+002;1.074532e-001
7.289911e+002;1.062015e-001
7.309197e+002;1.056870e-001
7.328483e+002;1.044819e-001
7.347768e+002;1.032610e-001
7.367053e+002;1.014195e-001
7.386339e+002;9.890466e-002
7.405624e+002;9.738811e-002
7.424910e+002;9.499260e-002
7.444196e+002;9.184706e-002
7.463481e+002;9.067015e-002
7.482766e+002;8.959737e-002
7.502052e+002;8.811986e-002
7.521337e+002;8.627106e-002
7.540623e+002;8.511364e-002
7.559908e+002;8.470275e-002
7.579194e+002;8.381993e-002
7.598479e+002;8.318542e-002
7.617765e+002;8.193876e-002
7.637050e+002;8.003180e-002
7.656335e+002;7.923380e-002
7.675621e+002;7.906757e-002
7.694907e+002;7.828432e-002
7.714192e+002;7.639860e-002
7.733478e+002;7.544248e-002
7.752763e+002;7.489859e-002
7.772048e+002;7.339597e-002
7.791334e+002;7.163430e-002
7.810620e+002;7.089897e-002
7.829905e+002;7.048141e-002
7.849191e+002;6.976359e-002
7.868476e+002;6.953141e-002
7.887761e+002;6.887483e-002
7.907047e+002;6.736122e-002
7.926332e+002;6.666654e-002
7.945618e+002;6.659805e-002
7.964903e+002;6.660114e-002
7.984189e+002;6.607167e-002
8.003474e+002;6.555013e-002
8.022759e+002;6.593270e-002
8.042045e+002;6.633081e-002
8.061331e+002;6.709196e-002
8.080616e+002;6.765950e-002
8.099902e+002;6.737009e-002
8.119187e+002;6.731030e-002
8.138472e+002;6.782749e-002
8.157758e+002;6.799518e-002
8.177043e+002;6.786976e-002
8.196329e+002;6.717747e-002
8.215615e+002;6.701962e-002
8.234900e+002;6.781398e-002
8.254185e+002;6.816997e-002
8.273471e+002;6.834988e-002
8.292756e+002;6.846833e-002
8.312042e+002;6.820943e-002
8.331328e+002;6.703609e-002
8.350613e+002;6.569153e-002
8.369898e+002;6.480906e-002
8.389184e+002;6.399091e-002
8.408469e+002;6.330405e-002
8.427755e+002;6.338882e-002
8.447040e+002;6.372850e-002
8.466326e+002;6.396792e-002
8.485611e+002;6.432223e-002
8.504897e+002;6.479475e-002
8.524182e+002;6.483026e-002
8.543467e+002;6.375109e-002
8.562753e+002;6.240617e-002
8.582039e+002;6.094251e-002
8.601324e+002;5.936309e-002
8.620610e+002;5.808682e-002
8.639895e+002;5.731552e-002
8.659180e+002;5.663282e-002
8.678466e+002;5.560940e-002
8.697751e+002;5.521192e-002
8.717037e+002;5.500289e-002
8.736323e+002;5.473539e-002
8.755608e+002;5.486876e-002
8.774893e+002;5.497013e-002
8.794179e+002;5.512675e-002
8.813464e+002;5.550287e-002
8.832750e+002;5.558100e-002
8.852036e+002;5.572691e-002
8.871321e+002;5.580885e-002
8.890606e+002;5.563580e-002
8.909892e+002;5.490651e-002
8.929177e+002;5.452933e-002
8.948463e+002;5.459071e-002
8.967748e+002;5.496032e-002
8.987034e+002;5.529941e-002
9.006319e+002;5.511020e-002
9.025605e+002;5.466962e-002
9.044890e+002;5.446614e-002
9.064175e+002;5.492181e-002
9.083461e+002;5.541477e-002
9.102747e+002;5.537299e-002
9.122032e+002;5.568898e-002
9.141318e+002;5.635707e-002
9.160603e+002;5.708718e-002
9.179888e+002;5.814712e-002
9.199174e+002;5.939584e-002
9.218459e+002;6.061189e-002
9.237745e+002;6.162962e-002
9.257031e+002;6.214131e-002
9.276316e+002;6.276266e-002
9.295601e+002;6.353177e-002
9.314887e+002;6.376756e-002
9.334172e+002;6.367274e-002
9.353458e+002;6.345645e-002
9.372744e+002;6.366534e-002
9.392029e+002;6.414859e-002
9.411314e+002;6.453753e-002
9.430600e+002;6.486830e-002
9.449885e+002;6.516206e-002
9.469171e+002;6.570903e-002
9.488456e+002;6.644253e-002
9.507742e+002;6.753499e-002
9.527027e+002;6.837741e-002
9.546313e+002;6.893541e-002
9.565598e+002;6.981079e-002
9.584883e+002;7.095612e-002
9.604169e+002;7.242215e-002
9.623455e+002;7.403804e-002
9.642740e+002;7.547764e-002
9.662026e+002;7.698033e-002
9.681311e+002;7.856549e-002
9.700596e+002;7.992771e-002
9.719882e+002;8.102012e-002
9.739167e+002;8.191003e-002
9.758453e+002;8.220437e-002
9.777739e+002;8.164411e-002
9.797024e+002;8.114313e-002
9.816309e+002;8.096354e-002
9.835595e+002;8.079438e-002
9.854880e+002;8.079442e-002
9.874166e+002;8.145189e-002
9.893452e+002;8.273938e-002
9.912737e+002;8.436739e-002
9.932022e+002;8.545543e-002
9.951307e+002;8.552103e-002
9.970593e+002;8.506032e-002
9.989879e+002;8.458836e-002
1.000916e+003;8.435302e-002
1.002845e+003;8.403526e-002
1.004773e+003;8.384078e-002
1.006702e+003;8.381989e-002
1.008631e+003;8.380791e-002
1.010559e+003;8.402763e-002
1.012488e+003;8.422630e-002
1.014416e+003;8.424315e-002
1.016345e+003;8.420574e-002
1.018273e+003;8.360349e-002
1.020202e+003;8.322857e-002
1.022130e+003;8.334509e-002
1.024059e+003;8.398244e-002
1.025988e+003;8.510438e-002
1.027916e+003;8.641329e-002
1.029845e+003;8.810788e-002
1.031773e+003;8.957468e-002
1.033702e+003;9.086113e-002
1.035630e+003;9.248526e-002
1.037559e+003;9.358670e-002
1.039487e+003;9.421948e-002
1.041416e+003;9.459054e-002
1.043344e+003;9.509888e-002
1.045273e+003;9.573109e-002
1.047202e+003;9.610816e-002
1.049130e+003;9.671809e-002
1.051059e+003;9.772538e-002
1.052987e+003;9.890524e-002
1.054916e+003;1.000541e-001
1.056844e+003;1.008576e-001
1.058773e+003;1.019211e-001
1.060701e+003;1.032423e-001
1.062630e+003;1.036778e-001
1.064558e+003;1.038400e-001
1.066487e+003;1.044618e-001
1.068416e+003;1.046794e-001
1.070344e+003;1.039427e-001
1.072273e+003;1.030165e-001
1.074201e+003;1.021252e-001
1.076130e+003;1.007560e-001
1.078058e+003;9.909677e-002
1.079987e+003;9.730838e-002
1.081915e+003;9.565832e-002
1.083844e+003;9.413831e-002
1.085773e+003;9.220832e-002
1.087701e+003;9.053222e-002
1.089630e+003;8.923928e-002
1.091558e+003;8.795713e-002
1.093487e+003;8.743994e-002
1.095415e+003;8.689421e-002
1.097344e+003;8.617806e-002
1.099272e+003;8.623925e-002
1.101201e+003;8.650823e-002
1.103129e+003;8.711335e-002
1.105058e+003;8.696942e-002
1.106987e+003;8.613467e-002
1.108915e+003;8.520495e-002
1.110844e+003;8.401979e-002
1.112772e+003;8.305145e-002
1.114701e+003;8.280681e-002
1.116629e+003;8.273336e-002
1.118558e+003;8.220077e-002
1.120486e+003;8.163767e-002
1.122415e+003;8.153528e-002
1.124344e+003;8.149087e-002
1.126272e+003;8.113825e-002
1.128201e+003;8.145713e-002
1.130129e+003;8.212274e-002
1.132058e+003;8.257220e-002
1.133986e+003;8.349557e-002
1.135915e+003;8.423104e-002
1.137843e+003;8.468426e-002
1.139772e+003;8.557408e-002
1.141700e+003;8.674668e-002
1.143629e+003;8.814705e-002
1.145557e+003;8.948053e-002
1.147486e+003;9.052630e-002
1.149415e+003;9.147694e-002
1.151343e+003;9.253027e-002
1.153272e+003;9.338982e-002
1.155200e+003;9.425290e-002
1.157129e+003;9.521422e-002
1.159057e+003;9.594113e-002
1.160986e+003;9.644233e-002
1.162914e+003;9.680247e-002
1.164843e+003;9.724181e-002
1.166771e+003;9.804978e-002
1.168700e+003;9.908573e-002
1.170629e+003;9.940103e-002
1.172557e+003;9.888647e-002
1.174486e+003;9.794038e-002
1.176414e+003;9.690074e-002
1.178343e+003;9.607026e-002
1.180271e+003;9.512519e-002
1.182200e+003;9.463508e-002
1.184128e+003;9.473434e-002
1.186057e+003;9.530086e-002
1.187986e+003;9.609295e-002
1.189914e+003;9.717090e-002
1.191843e+003;9.860564e-002
1.193771e+003;1.007454e-001
1.195700e+003;1.029720e-001
1.197628e+003;1.052251e-001
1.199557e+003;1.078696e-001
1.201485e+003;1.107819e-001
1.203414e+003;1.137985e-001
1.205343e+003;1.169714e-001
1.207271e+003;1.199025e-001
1.209200e+003;1.224549e-001
1.211128e+003;1.249288e-001
1.213057e+003;1.274738e-001
1.214985e+003;1.297455e-001
1.216914e+003;1.316680e-001
1.218842e+003;1.336299e-001
1.220771e+003;1.353372e-001
1.222699e+003;1.368174e-001
1.224628e+003;1.379730e-001
1.226557e+003;1.384568e-001
1.228485e+003;1.388204e-001
1.230414e+003;1.390381e-001
1.232342e+003;1.383496e-001
1.234271e+003;1.371917e-001
1.236199e+003;1.363673e-001
1.238128e+003;1.353537e-001
1.240056e+003;1.341554e-001
1.241985e+003;1.331124e-001
1.243913e+003;1.325628e-001
1.245842e+003;1.318662e-001
1.247771e+003;1.309627e-001
1.249699e+003;1.303974e-001
1.251628e+003;1.298214e-001
1.253556e+003;1.294189e-001
1.255485e+003;1.290092e-001
1.257413e+003;1.284646e-001
1.259342e+003;1.280672e-001
1.261270e+003;1.274305e-001
1.263199e+003;1.261401e-001
1.265127e+003;1.238877e-001
1.267056e+003;1.211192e-001
1.268985e+003;1.186665e-001
1.270913e+003;1.163600e-001
1.272842e+003;1.139675e-001
1.274770e+003;1.118766e-001
1.276699e+003;1.100936e-001
1.278627e+003;1.085878e-001
1.280556e+003;1.074492e-001
1.282484e+003;1.064129e-001
1.284413e+003;1.055308e-001
1.286342e+003;1.047477e-001
1.288270e+003;1.040056e-001
1.290199e+003;1.034966e-001
1.292127e+003;1.033540e-001
1.294056e+003;1.031226e-001
1.295984e+003;1.026494e-001
1.297913e+003;1.023953e-001
1.299841e+003;1.022604e-001
1.301770e+003;1.019994e-001
1.303698e+003;1.017122e-001
1.305627e+003;1.014530e-001
1.307556e+003;1.010446e-001
1.309484e+003;1.005356e-001
1.311413e+003;1.000921e-001
1.313341e+003;9.960307e-002
1.315270e+003;9.909905e-002
1.317198e+003;9.884612e-002
1.319127e+003;9.909414e-002
1.321055e+003;9.939246e-002
1.322984e+003;9.951623e-002
1.324912e+003;9.962457e-002
1.326841e+003;1.001240e-001
1.328770e+003;1.004731e-001
1.330698e+003;1.005250e-001
1.332627e+003;1.004925e-001
1.334555e+003;1.005612e-001
1.336484e+003;1.005237e-001
1.338412e+003;1.003343e-001
1.340341e+003;1.004103e-001
1.342269e+003;1.006187e-001
1.344198e+003;1.003944e-001
1.346126e+003;1.003071e-001
1.348055e+003;1.004183e-001
1.349984e+003;1.005313e-001
1.351912e+003;1.008321e-001
1.353841e+003;1.012491e-001
1.355769e+003;1.020010e-001
1.357698e+003;1.028042e-001
1.359626e+003;1.040406e-001
1.361555e+003;1.059035e-001
1.363483e+003;1.075687e-001
1.365412e+003;1.091579e-001
1.367341e+003;1.105424e-001
1.369269e+003;1.109353e-001
1.371198e+003;1.107288e-001
1.373126e+003;1.103645e-001
1.375055e+003;1.099694e-001
1.376983e+003;1.098166e-001
1.378912e+003;1.098427e-001
1.380840e+003;1.099917e-001
1.382769e+003;1.101250e-001
1.384698e+003;1.104317e-001
1.386626e+003;1.106692e-001
1.388555e+003;1.107044e-001
1.390483e+003;1.107532e-001
1.392412e+003;1.108347e-001
1.394340e+003;1.106560e-001
1.396269e+003;1.104455e-001
1.398197e+003;1.105104e-001
1.400126e+003;1.105987e-001
1.402054e+003;1.110548e-001
1.403983e+003;1.116807e-001
1.405911e+003;1.120822e-001
1.407840e+003;1.123241e-001
1.409769e+003;1.128229e-001
1.411697e+003;1.132568e-001
1.413626e+003;1.136166e-001
1.415554e+003;1.141038e-001
1.417483e+003;1.146111e-001
1.419411e+003;1.152945e-001
1.421340e+003;1.161344e-001
1.423268e+003;1.175210e-001
1.425197e+003;1.194186e-001
1.427125e+003;1.218181e-001
1.429054e+003;1.245857e-001
1.430983e+003;1.276075e-001
1.432911e+003;1.308502e-001
1.434840e+003;1.342218e-001
1.436768e+003;1.369797e-001
1.438697e+003;1.388888e-001
1.440625e+003;1.401055e-001
1.442554e+003;1.409478e-001
1.444482e+003;1.413280e-001
1.446411e+003;1.411683e-001
1.448340e+003;1.401530e-001
1.450268e+003;1.381783e-001
1.452197e+003;1.358177e-001
1.454125e+003;1.335460e-001
1.456054e+003;1.313107e-001
1.457982e+003;1.292885e-001
1.459911e+003;1.280885e-001
1.461839e+003;1.274054e-001
1.463768e+003;1.271106e-001
1.465697e+003;1.269972e-001
1.467625e+003;1.275616e-001
1.469554e+003;1.288011e-001
1.471482e+003;1.301680e-001
1.473411e+003;1.313337e-001
1.475339e+003;1.329883e-001
1.477268e+003;1.354482e-001
1.479196e+003;1.383550e-001
1.481125e+003;1.413964e-001
1.483053e+003;1.445989e-001
1.484982e+003;1.481985e-001
1.486911e+003;1.522269e-001
1.488839e+003;1.565521e-001
1.490768e+003;1.609836e-001
1.492696e+003;1.653526e-001
1.494625e+003;1.692508e-001
1.496553e+003;1.728066e-001
1.498482e+003;1.763526e-001
1.500410e+003;1.792674e-001
1.502339e+003;1.818999e-001
1.504267e+003;1.842296e-001
1.506196e+003;1.859310e-001
1.508125e+003;1.876153e-001
1.510053e+003;1.890454e-001
1.511982e+003;1.897840e-001
1.513910e+003;1.894387e-001
1.515839e+003;1.876948e-001
1.517767e+003;1.845804e-001
1.519696e+003;1.807211e-001
1.521624e+003;1.766044e-001
1.523553e+003;1.729442e-001
1.525481e+003;1.697816e-001
1.527410e+003;1.666429e-001
1.529339e+003;1.638612e-001
1.531267e+003;1.613976e-001
1.533196e+003;1.587921e-001
1.535124e+003;1.560955e-001
1.537053e+003;1.534733e-001
1.538981e+003;1.508062e-001
1.540910e+003;1.480079e-001
1.542838e+003;1.453885e-001
1.544767e+003;1.430845e-001
1.546695e+003;1.408490e-001
1.548624e+003;1.382389e-001
1.550553e+003;1.355626e-001
1.552481e+003;1.331310e-001
1.554410e+003;1.306187e-001
1.556338e+003;1.277509e-001
1.558267e+003;1.246300e-001
1.560195e+003;1.216237e-001
1.562124e+003;1.187752e-001
1.564052e+003;1.159249e-001
1.565981e+003;1.133806e-001
1.567910e+003;1.112376e-001
1.569838e+003;1.091549e-001
1.571767e+003;1.074451e-001
1.573695e+003;1.062220e-001
1.575624e+003;1.052816e-001
1.577552e+003;1.046858e-001
1.579481e+003;1.045423e-001
1.581409e+003;1.047167e-001
1.583338e+003;1.054014e-001
1.585266e+003;1.068175e-001
1.587195e+003;1.086720e-001
1.589124e+003;1.110151e-001
1.591052e+003;1.136129e-001
1.592981e+003;1.167500e-001
1.594909e+003;1.204555e-001
1.596838e+003;1.242215e-001
1.598766e+003;1.282075e-001
1.600695e+003;1.327783e-001
1.602623e+003;1.381598e-001
1.604552e+003;1.444924e-001
1.606480e+003;1.512401e-001
1.608409e+003;1.579325e-001
1.610338e+003;1.647564e-001
1.612266e+003;1.715801e-001
1.614195e+003;1.779996e-001
1.616123e+003;1.836613e-001
1.618052e+003;1.883060e-001
1.619980e+003;1.919636e-001
1.621909e+003;1.943303e-001
1.623837e+003;1.953814e-001
1.625766e+003;1.953548e-001
1.627694e+003;1.946183e-001
1.629623e+003;1.928781e-001
1.631552e+003;1.903645e-001
1.633480e+003;1.877662e-001
1.635409e+003;1.845147e-001
1.637337e+003;1.807293e-001
1.639266e+003;1.770898e-001
1.641194e+003;1.735973e-001
1.643123e+003;1.702668e-001
1.645051e+003;1.670575e-001
1.646980e+003;1.635659e-001
1.648909e+003;1.598657e-001
1.650837e+003;1.563709e-001
1.652766e+003;1.526231e-001
1.654694e+003;1.487426e-001
1.656623e+003;1.450560e-001
1.658551e+003;1.415634e-001
1.660480e+003;1.381321e-001
1.662408e+003;1.343066e-001
1.664337e+003;1.305560e-001
1.666266e+003;1.272959e-001
1.668194e+003;1.241298e-001
1.670123e+003;1.209422e-001
1.672051e+003;1.180515e-001
1.673980e+003;1.152483e-001
1.675908e+003;1.124905e-001
1.677837e+003;1.101274e-001
1.679765e+003;1.076465e-001
1.681694e+003;1.051740e-001
1.683622e+003;1.027907e-001
1.685551e+003;1.004388e-001
1.687479e+003;9.864993e-002
1.689408e+003;9.738281e-002
1.691337e+003;9.645851e-002
1.693265e+003;9.546488e-002
1.695194e+003;9.449786e-002
1.697122e+003;9.349066e-002
1.699051e+003;9.150688e-002
1.700979e+003;8.749578e-002
1.702908e+003;8.199134e-002
1.704836e+003;7.557385e-002
1.706765e+003;6.914489e-002
1.708693e+003;6.319451e-002
1.710622e+003;5.807057e-002
1.712551e+003;5.411137e-002
1.714479e+003;5.112771e-002
1.716408e+003;4.829097e-002
1.718336e+003;4.575197e-002
1.720265e+003;4.372693e-002
1.722193e+003;4.203063e-002
1.724122e+003;4.044177e-002
1.726050e+003;3.900283e-002
1.727979e+003;3.764202e-002
1.729908e+003;3.641034e-002
1.731836e+003;3.546952e-002
1.733765e+003;3.461381e-002
1.735693e+003;3.355419e-002
1.737622e+003;3.256396e-002
1.739550e+003;3.155806e-002
1.741479e+003;3.080803e-002
1.743407e+003;3.031055e-002
1.745336e+003;2.962868e-002
1.747265e+003;2.871927e-002
1.749193e+003;2.790479e-002
1.751122e+003;2.731626e-002
1.753050e+003;2.699282e-002
1.754979e+003;2.654030e-002
1.756907e+003;2.589892e-002
1.758836e+003;2.545045e-002
1.760764e+003;2.526116e-002
1.762693e+003;2.500368e-002
1.764621e+003;2.449649e-002
1.766550e+003;2.415146e-002
1.768479e+003;2.402289e-002
1.770407e+003;2.368272e-002
1.772336e+003;2.309103e-002
1.774264e+003;2.274136e-002
1.776193e+003;2.270892e-002
1.778121e+003;2.254190e-002
1.780050e+003;2.229976e-002
1.781978e+003;2.207983e-002
1.783907e+003;2.182322e-002
1.785835e+003;2.161829e-002
1.787764e+003;2.151000e-002
1.789693e+003;2.109380e-002
1.791621e+003;2.063483e-002
1.793550e+003;2.045599e-002
1.795478e+003;2.031966e-002
1.797407e+003;2.010343e-002
1.799335e+003;1.981819e-002
1.801264e+003;1.945083e-002
1.803192e+003;1.921509e-002
1.805121e+003;1.905633e-002
1.807049e+003;1.882810e-002
1.808978e+003;1.849916e-002
1.810907e+003;1.835110e-002
1.812835e+003;1.826615e-002
1.814764e+003;1.793497e-002
1.816692e+003;1.760412e-002
1.818621e+003;1.741218e-002
1.820549e+003;1.725362e-002
1.822478e+003;1.712370e-002
1.824406e+003;1.697683e-002
1.826335e+003;1.674935e-002
1.828264e+003;1.655344e-002
1.830192e+003;1.639163e-002
1.832121e+003;1.629216e-002
1.834049e+003;1.602024e-002
1.835978e+003;1.560566e-002
1.837906e+003;1.547039e-002
1.839835e+003;1.530458e-002
1.841763e+003;1.496924e-002
1.843692e+003;1.487137e-002
1.845620e+003;1.489709e-002
1.847549e+003;1.475371e-002
1.849478e+003;1.456213e-002
1.851406e+003;1.427845e-002
1.853335e+003;1.406425e-002
1.855263e+003;1.403992e-002
1.857192e+003;1.399187e-002
1.859120e+003;1.395831e-002
1.861049e+003;1.379164e-002
1.862977e+003;1.377847e-002
1.864906e+003;1.384123e-002
1.866834e+003;1.378541e-002
1.868763e+003;1.373739e-002
1.870692e+003;1.370398e-002
1.872620e+003;1.357536e-002
1.874549e+003;1.343118e-002
1.876477e+003;1.332218e-002
1.878406e+003;1.320545e-002
1.880334e+003;1.321576e-002
1.882263e+003;1.322656e-002
1.884191e+003;1.308393e-002
1.886120e+003;1.300076e-002
1.888048e+003;1.297102e-002
1.889977e+003;1.288002e-002
1.891906e+003;1.268268e-002
1.893834e+003;1.257922e-002
1.895763e+003;1.269060e-002
1.897691e+003;1.268023e-002
1.899620e+003;1.242195e-002
1.901548e+003;1.224032e-002
1.903477e+003;1.213928e-002
1.905405e+003;1.232345e-002
1.907334e+003;1.244336e-002
1.909262e+003;1.218471e-002
1.911191e+003;1.194657e-002
1.913120e+003;1.186753e-002
1.915048e+003;1.191633e-002
1.916977e+003;1.209496e-002
1.918905e+003;1.228156e-002
1.920834e+003;1.213870e-002
1.922762e+003;1.187220e-002
1.924691e+003;1.200965e-002
1.926619e+003;1.206780e-002
1.928548e+003;1.192764e-002
1.930477e+003;1.189433e-002
1.932405e+003;1.190536e-002
1.934334e+003;1.187022e-002
1.936262e+003;1.190451e-002
1.938191e+003;1.193261e-002
1.940119e+003;1.187335e-002
1.942048e+003;1.180760e-002
1.943976e+003;1.178878e-002
1.945905e+003;1.186140e-002
1.947833e+003;1.204747e-002
1.949762e+003;1.200867e-002
1.951691e+003;1.201228e-002
1.953619e+003;1.204907e-002
1.955548e+003;1.195948e-002
1.957476e+003;1.206119e-002
1.959405e+003;1.205918e-002
1.961333e+003;1.186331e-002
1.963262e+003;1.180406e-002
1.965190e+003;1.193857e-002
1.967119e+003;1.204205e-002
1.969047e+003;1.212242e-002
1.970976e+003;1.211260e-002
1.972905e+003;1.208726e-002
1.974833e+003;1.210112e-002
1.976762e+003;1.213175e-002
1.978690e+003;1.195247e-002
1.980619e+003;1.168383e-002
1.982547e+003;1.170636e-002
1.984476e+003;1.181823e-002
1.986404e+003;1.190594e-002
1.988333e+003;1.189426e-002
1.990261e+003;1.176556e-002
1.992190e+003;1.173611e-002
1.994119e+003;1.175535e-002
1.996047e+003;1.162461e-002
1.997976e+003;1.137266e-002
1.999904e+003;1.131627e-002
2.001833e+003;1.124938e-002
2.003761e+003;1.120097e-002
2.005690e+003;1.124207e-002
2.007618e+003;1.119114e-002
2.009547e+003;1.126605e-002
2.011476e+003;1.131787e-002
2.013404e+003;1.131862e-002
2.015333e+003;1.151544e-002
2.017261e+003;1.144073e-002
2.019190e+003;1.121542e-002
2.021118e+003;1.118471e-002
2.023047e+003;1.123500e-002
2.024975e+003;1.124184e-002
2.026904e+003;1.123463e-002
2.028833e+003;1.134896e-002
2.030761e+003;1.149489e-002
2.032690e+003;1.147070e-002
2.034618e+003;1.150557e-002
2.036547e+003;1.152752e-002
2.038475e+003;1.142865e-002
2.040404e+003;1.116428e-002
2.042332e+003;1.116476e-002
2.044261e+003;1.120403e-002
2.046189e+003;1.111353e-002
2.048118e+003;1.111649e-002
2.050047e+003;1.134838e-002
2.051975e+003;1.143593e-002
2.053904e+003;1.148169e-002
2.055832e+003;1.144937e-002
2.057761e+003;1.118672e-002
2.059689e+003;1.104796e-002
2.061618e+003;1.118811e-002
2.063546e+003;1.132835e-002
2.065475e+003;1.111788e-002
2.067404e+003;1.110095e-002
2.069332e+003;1.123306e-002
2.071260e+003;1.134508e-002
2.073189e+003;1.147261e-002
2.075118e+003;1.150949e-002
2.077046e+003;1.143083e-002
2.078975e+003;1.134426e-002
2.080903e+003;1.134596e-002
2.082832e+003;1.140607e-002
2.084760e+003;1.153524e-002
2.086689e+003;1.150142e-002
2.088617e+003;1.135746e-002
2.090546e+003;1.133634e-002
2.092475e+003;1.123442e-002
2.094403e+003;1.112855e-002
2.096332e+003;1.115272e-002
2.098260e+003;1.117509e-002
2.100189e+003;1.108800e-002
2.102117e+003;1.107767e-002
2.104046e+003;1.106251e-002
2.105974e+003;1.100830e-002
2.107903e+003;1.091492e-002
2.109832e+003;1.101659e-002
2.111760e+003;1.100113e-002
2.113688e+003;1.082601e-002
2.115617e+003;1.076585e-002
2.117546e+003;1.101550e-002
2.119474e+003;1.100269e-002
2.121403e+003;1.061290e-002
2.123331e+003;1.056761e-002
2.125260e+003;1.080665e-002
2.127188e+003;1.074327e-002
2.129117e+003;1.051661e-002
2.131045e+003;1.053277e-002
2.132974e+003;1.067755e-002
2.134903e+003;1.061398e-002
2.136831e+003;1.053084e-002
2.138760e+003;1.048569e-002
2.140688e+003;1.030413e-002
2.142617e+003;1.030464e-002
2.144545e+003;1.042657e-002
2.146474e+003;1.037529e-002
2.148402e+003;1.033019e-002
2.150331e+003;1.027444e-002
2.152260e+003;1.017037e-002
2.154188e+003;1.019231e-002
2.156117e+003;1.027858e-002
2.158045e+003;1.026939e-002
2.159974e+003;1.016758e-002
2.161902e+003;1.008415e-002
2.163831e+003;1.011383e-002
2.165759e+003;1.039405e-002
2.167688e+003;1.038065e-002
2.169616e+003;1.018851e-002
2.171545e+003;1.024974e-002
2.173474e+003;1.025595e-002
2.175402e+003;1.008137e-002
2.177331e+003;1.015887e-002
2.179259e+003;1.012000e-002
2.181188e+003;9.820970e-003
2.183116e+003;9.763087e-003
2.185045e+003;9.899267e-003
2.186973e+003;9.901877e-003
2.188902e+003;9.900928e-003
2.190831e+003;9.824902e-003
2.192759e+003;9.648698e-003
2.194688e+003;9.672143e-003
2.196616e+003;9.832731e-003
2.198545e+003;9.893267e-003
2.200473e+003;9.830222e-003
2.202402e+003;1.003559e-002
2.204330e+003;1.011976e-002
2.206259e+003;1.001521e-002
2.208188e+003;1.005991e-002
2.210116e+003;9.942219e-003
2.212044e+003;9.793078e-003
2.213973e+003;9.767255e-003
2.215902e+003;9.751124e-003
2.217830e+003;9.815209e-003
2.219759e+003;9.774507e-003
2.221687e+003;9.967068e-003
2.223616e+003;1.002166e-002
2.225544e+003;9.800941e-003
2.227473e+003;9.737129e-003
2.229401e+003;9.947304e-003
2.231330e+003;1.003393e-002
2.233259e+003;9.920793e-003
2.235187e+003;9.934354e-003
2.237116e+003;9.850457e-003
2.239044e+003;9.549615e-003
2.240973e+003;9.524044e-003
2.242901e+003;9.684306e-003
2.244830e+003;9.701484e-003
2.246758e+003;9.778133e-003
2.248687e+003;9.988225e-003
2.250615e+003;9.874285e-003
2.252544e+003;9.574409e-003
2.254473e+003;9.471855e-003
2.256401e+003;9.588500e-003
2.258330e+003;9.768272e-003
2.260258e+003;9.677868e-003
2.262187e+003;9.458072e-003
2.264115e+003;9.377993e-003
2.266044e+003;9.341225e-003
2.267972e+003;9.419639e-003
2.269901e+003;9.640229e-003
2.271830e+003;9.689998e-003
2.273758e+003;9.638264e-003
2.275687e+003;9.478493e-003
2.277615e+003;9.316376e-003
2.279544e+003;9.449674e-003
2.281472e+003;9.658997e-003
2.283401e+003;9.663639e-003
2.285329e+003;9.622579e-003
2.287258e+003;9.663672e-003
2.289187e+003;9.828155e-003
2.291115e+003;9.964391e-003
2.293043e+003;1.006923e-002
2.294972e+003;1.008205e-002
2.296901e+003;9.798873e-003
2.298829e+003;9.623764e-003
2.300758e+003;9.817954e-003
2.302686e+003;9.997074e-003
2.304615e+003;1.015748e-002
2.306543e+003;1.015317e-002
2.308472e+003;9.973442e-003
2.310400e+003;9.952864e-003
2.312329e+003;9.928624e-003
2.314258e+003;9.964560e-003
2.316186e+003;1.017942e-002
2.318115e+003;1.026053e-002
2.320043e+003;1.026165e-002
2.321972e+003;1.019472e-002
2.323900e+003;9.988937e-003
2.325829e+003;9.823580e-003
2.327757e+003;9.827714e-003
2.329686e+003;9.975579e-003
2.331615e+003;1.022963e-002
2.333543e+003;1.020025e-002
2.335472e+003;1.023543e-002
2.337400e+003;1.027736e-002
2.339329e+003;1.012013e-002
2.341257e+003;1.004916e-002
2.343186e+003;1.012519e-002
2.345114e+003;1.031638e-002
2.347043e+003;1.057928e-002
2.348971e+003;1.043906e-002
2.350900e+003;1.032283e-002
2.352829e+003;1.047625e-002
2.354757e+003;1.044561e-002
2.356686e+003;1.038781e-002
2.358614e+003;1.058319e-002
2.360543e+003;1.091414e-002
2.362471e+003;1.078633e-002
2.364400e+003;1.046777e-002
2.366328e+003;1.038940e-002
2.368257e+003;1.053556e-002
2.370186e+003;1.081558e-002
2.372114e+003;1.092742e-002
2.374042e+003;1.085682e-002
2.375971e+003;1.079343e-002
2.377900e+003;1.093435e-002
2.379828e+003;1.111764e-002
2.381757e+003;1.114273e-002
2.383685e+003;1.092487e-002
2.385614e+003;1.078773e-002
2.387542e+003;1.106434e-002
2.389471e+003;1.124561e-002
2.391399e+003;1.140903e-002
2.393328e+003;1.147492e-002
2.395257e+003;1.135406e-002
2.397185e+003;1.143689e-002
2.399114e+003;1.179147e-002
2.401042e+003;1.191916e-002
2.402971e+003;1.206232e-002
2.404899e+003;1.200577e-002
2.406828e+003;1.193023e-002
2.408756e+003;1.220137e-002
2.410685e+003;1.248492e-002
2.412614e+003;1.275003e-002
2.414542e+003;1.294638e-002
2.416471e+003;1.305986e-002
2.418399e+003;1.302729e-002
2.420328e+003;1.308373e-002
2.422256e+003;1.320897e-002
2.424185e+003;1.330264e-002
2.426113e+003;1.338040e-002
2.428042e+003;1.347377e-002
2.429970e+003;1.370634e-002
2.431899e+003;1.390661e-002
2.433828e+003;1.397959e-002
2.435756e+003;1.407147e-002
2.437685e+003;1.426664e-002
2.439613e+003;1.429256e-002
2.441542e+003;1.425499e-002
2.443470e+003;1.446740e-002
2.445399e+003;1.481798e-002
2.447327e+003;1.499856e-002
2.449256e+003;1.482892e-002
2.451185e+003;1.476718e-002
2.453113e+003;1.483142e-002
2.455042e+003;1.484435e-002
2.456970e+003;1.464105e-002
2.458899e+003;1.445421e-002
2.460827e+003;1.464667e-002
2.462756e+003;1.484277e-002
2.464684e+003;1.490809e-002
2.466613e+003;1.512566e-002
2.468542e+003;1.531323e-002
2.470470e+003;1.530791e-002
2.472398e+003;1.516961e-002
2.474327e+003;1.524441e-002
2.476256e+003;1.533694e-002
2.478184e+003;1.509197e-002
2.480113e+003;1.492922e-002
2.482041e+003;1.517283e-002
2.483970e+003;1.534652e-002
2.485898e+003;1.527482e-002
2.487827e+003;1.525447e-002
2.489755e+003;1.534988e-002
2.491684e+003;1.527969e-002
2.493613e+003;1.538771e-002
2.495541e+003;1.559384e-002
2.497470e+003;1.549071e-002
2.499398e+003;1.547536e-002
2.501327e+003;1.560280e-002
2.503255e+003;1.581243e-002
2.505184e+003;1.602055e-002
2.507112e+003;1.601268e-002
2.509041e+003;1.591914e-002
2.510969e+003;1.604262e-002
2.512898e+003;1.620349e-002
2.514827e+003;1.625305e-002
2.516755e+003;1.618842e-002
2.518684e+003;1.614533e-002
2.520612e+003;1.616359e-002
2.522541e+003;1.613835e-002
2.524469e+003;1.595857e-002
2.526398e+003;1.612655e-002
2.528326e+003;1.652973e-002
2.530255e+003;1.661799e-002
2.532184e+003;1.652605e-002
2.534112e+003;1.659052e-002
2.536041e+003;1.658339e-002
2.537969e+003;1.653926e-002
2.539898e+003;1.669408e-002
2.541826e+003;1.677796e-002
2.543755e+003;1.688949e-002
2.545683e+003;1.706604e-002
2.547612e+003;1.723994e-002
2.549541e+003;1.723270e-002
2.551469e+003;1.723311e-002
2.553397e+003;1.724949e-002
2.555326e+003;1.725673e-002
2.557255e+003;1.751059e-002
2.559183e+003;1.765239e-002
2.561112e+003;1.777809e-002
2.563040e+003;1.805067e-002
2.564969e+003;1.818128e-002
2.566897e+003;1.848104e-002
2.568826e+003;1.874603e-002
2.570754e+003;1.878720e-002
2.572683e+003;1.902960e-002
2.574612e+003;1.913880e-002
2.576540e+003;1.910560e-002
2.578469e+003;1.949533e-002
2.580397e+003;1.977502e-002
2.582326e+003;1.971416e-002
2.584254e+003;1.989706e-002
2.586183e+003;2.026716e-002
2.588111e+003;2.034070e-002
2.590040e+003;2.039046e-002
2.591969e+003;2.044912e-002
2.593897e+003;2.053901e-002
2.595826e+003;2.086790e-002
2.597754e+003;2.115923e-002
2.599683e+003;2.133682e-002
2.601611e+003;2.149294e-002
2.603540e+003;2.163623e-002
2.605468e+003;2.172519e-002
2.607397e+003;2.190385e-002
2.609325e+003;2.202193e-002
2.611254e+003;2.209416e-002
2.613183e+003;2.217969e-002
2.615111e+003;2.220375e-002
2.617040e+003;2.213764e-002
2.618968e+003;2.223228e-002
2.620897e+003;2.218161e-002
2.622825e+003;2.218945e-002
2.624754e+003;2.237033e-002
2.626682e+003;2.230859e-002
2.628611e+003;2.222032e-002
2.630540e+003;2.228620e-002
2.632468e+003;2.257079e-002
2.634396e+003;2.256556e-002
2.636325e+003;2.246401e-002
2.638254e+003;2.261240e-002
2.640182e+003;2.273025e-002
2.642111e+003;2.261306e-002
2.644039e+003;2.235223e-002
2.645968e+003;2.218070e-002
2.647896e+003;2.242242e-002
2.649825e+003;2.276786e-002
2.651753e+003;2.262563e-002
2.653682e+003;2.251286e-002
2.655611e+003;2.278263e-002
2.657539e+003;2.285956e-002
2.659468e+003;2.279049e-002
2.661396e+003;2.279269e-002
2.663325e+003;2.276629e-002
2.665253e+003;2.299855e-002
2.667182e+003;2.343967e-002
2.669110e+003;2.380394e-002
2.671039e+003;2.378256e-002
2.672968e+003;2.367729e-002
2.674896e+003;2.381598e-002
2.676825e+003;2.401000e-002
2.678753e+003;2.410015e-002
2.680682e+003;2.442053e-002
2.682610e+003;2.460560e-002
2.684539e+003;2.454512e-002
2.686467e+003;2.486254e-002
2.688396e+003;2.519542e-002
2.690324e+003;2.534935e-002
2.692253e+003;2.551781e-002
2.694182e+003;2.557091e-002
2.696110e+003;2.558036e-002
2.698039e+003;2.579448e-002
2.699967e+003;2.605669e-002
2.701896e+003;2.636141e-002
2.703824e+003;2.667459e-002
2.705753e+003;2.676754e-002
2.707681e+003;2.661364e-002
2.709610e+003;2.659113e-002
2.711539e+003;2.686855e-002
2.713467e+003;2.717621e-002
2.715396e+003;2.744197e-002
2.717324e+003;2.763589e-002
2.719253e+003;2.795758e-002
2.721181e+003;2.818914e-002
2.723110e+003;2.830417e-002
2.725038e+003;2.844162e-002
2.726967e+003;2.850948e-002
2.728896e+003;2.871733e-002
2.730824e+003;2.930542e-002
2.732752e+003;2.980860e-002
2.734681e+003;2.986020e-002
2.736610e+003;2.971258e-002
2.738538e+003;2.990609e-002
2.740467e+003;3.008603e-002
2.742395e+003;3.018692e-002
2.744324e+003;3.038140e-002
2.746252e+003;3.062285e-002
2.748181e+003;3.083883e-002
2.750109e+003;3.124853e-002
2.752038e+003;3.146155e-002
2.753967e+003;3.148086e-002
2.755895e+003;3.175500e-002
2.757824e+003;3.215480e-002
2.759752e+003;3.236076e-002
2.761681e+003;3.248115e-002
2.763609e+003;3.248957e-002
2.765538e+003;3.248607e-002
2.767466e+003;3.281914e-002
2.769395e+003;3.290034e-002
2.771323e+003;3.301633e-002
2.773252e+003;3.346954e-002
2.775181e+003;3.361046e-002
2.777109e+003;3.341664e-002
2.779038e+003;3.363660e-002
2.780966e+003;3.412880e-002
2.782895e+003;3.433390e-002
2.784823e+003;3.462873e-002
2.786752e+003;3.489472e-002
2.788680e+003;3.488721e-002
2.790609e+003;3.495838e-002
2.792538e+003;3.513784e-002
2.794466e+003;3.543343e-002
2.796395e+003;3.561318e-002
2.798323e+003;3.564671e-002
2.800252e+003;3.594495e-002
2.802180e+003;3.618260e-002
2.804109e+003;3.619481e-002
2.806037e+003;3.645416e-002
2.807966e+003;3.665784e-002
2.809895e+003;3.697976e-002
2.811823e+003;3.741668e-002
2.813751e+003;3.749466e-002
2.815680e+003;3.745204e-002
2.817609e+003;3.753866e-002
2.819537e+003;3.780227e-002
2.821466e+003;3.809752e-002
2.823394e+003;3.820583e-002
2.825323e+003;3.835648e-002
2.827251e+003;3.872555e-002
2.829180e+003;3.868020e-002
2.831108e+003;3.884424e-002
2.833037e+003;3.946393e-002
2.834966e+003;3.976680e-002
2.836894e+003;3.980489e-002
2.838823e+003;4.024932e-002
2.840751e+003;4.117061e-002
2.842680e+003;4.178998e-002
2.844608e+003;4.228483e-002
2.846537e+003;4.283363e-002
2.848465e+003;4.335823e-002
2.850394e+003;4.405678e-002
2.852323e+003;4.498281e-002
2.854251e+003;4.582575e-002
2.856180e+003;4.616844e-002
2.858108e+003;4.654352e-002
2.860037e+003;4.709947e-002
2.861965e+003;4.776571e-002
2.863894e+003;4.826749e-002
2.865822e+003;4.854189e-002
2.867751e+003;4.910612e-002
2.869679e+003;4.987697e-002
2.871608e+003;5.047037e-002
2.873536e+003;5.072717e-002
2.875465e+003;5.118531e-002
2.877394e+003;5.151497e-002
2.879322e+003;5.112130e-002
2.881251e+003;5.066502e-002
2.883179e+003;5.048265e-002
2.885108e+003;5.022864e-002
2.887036e+003;4.998495e-002
2.888965e+003;5.026598e-002
2.890893e+003;5.086092e-002
2.892822e+003;5.138565e-002
2.894750e+003;5.153094e-002
2.896679e+003;5.136838e-002
2.898608e+003;5.153557e-002
2.900536e+003;5.196763e-002
2.902465e+003;5.213131e-002
2.904393e+003;5.248062e-002
2.906322e+003;5.293447e-002
2.908250e+003;5.304920e-002
2.910179e+003;5.347629e-002
2.912107e+003;5.388141e-002
2.914036e+003;5.437507e-002
2.915965e+003;5.491027e-002
2.917893e+003;5.547930e-002
2.919822e+003;5.609330e-002
2.921750e+003;5.653128e-002
2.923679e+003;5.701319e-002
2.925607e+003;5.772154e-002
2.927536e+003;5.836882e-002
2.929464e+003;5.901083e-002
2.931393e+003;5.971230e-002
2.933322e+003;5.971888e-002
2.935250e+003;5.945329e-002
2.937178e+003;5.917874e-002
2.939107e+003;5.867778e-002
2.941036e+003;5.826972e-002
2.942964e+003;5.805742e-002
2.944893e+003;5.784770e-002
2.946821e+003;5.732697e-002
2.948750e+003;5.683293e-002
2.950678e+003;5.648720e-002
2.952607e+003;5.617641e-002
2.954535e+003;5.569426e-002
2.956464e+003;5.554180e-002
2.958393e+003;5.578135e-002
2.960321e+003;5.571814e-002
2.962250e+003;5.585034e-002
2.964178e+003;5.604964e-002
2.966107e+003;5.566521e-002
2.968035e+003;5.549026e-002
2.969964e+003;5.573490e-002
2.971892e+003;5.591689e-002
2.973821e+003;5.574684e-002
2.975750e+003;5.540499e-002
2.977678e+003;5.534439e-002
2.979607e+003;5.530404e-002
2.981535e+003;5.505941e-002
2.983464e+003;5.500059e-002
2.985392e+003;5.483752e-002
2.987321e+003;5.450953e-002
2.989249e+003;5.430353e-002
2.991178e+003;5.416876e-002
2.993106e+003;5.367046e-002
2.995035e+003;5.321138e-002
2.996964e+003;5.294817e-002
2.998892e+003;5.251408e-002
3.000821e+003;5.217114e-002
3.002749e+003;5.198108e-002
3.004678e+003;5.155198e-002
3.006606e+003;5.118393e-002
3.008535e+003;5.100242e-002
3.010463e+003;5.112511e-002
3.012392e+003;5.126341e-002
3.014321e+003;5.121304e-002
3.016249e+003;5.098353e-002
3.018177e+003;5.103104e-002
3.020106e+003;5.134250e-002
3.022035e+003;5.162083e-002
3.023963e+003;5.201211e-002
3.025892e+003;5.237313e-002
3.027820e+003;5.276487e-002
3.029749e+003;5.301188e-002
3.031677e+003;5.311375e-002
3.033606e+003;5.316659e-002
3.035534e+003;5.336999e-002
3.037463e+003;5.377692e-002
3.039392e+003;5.429674e-002
3.041320e+003;5.488741e-002
3.043249e+003;5.536750e-002
3.045177e+003;5.584506e-002
3.047106e+003;5.636997e-002
3.049034e+003;5.672546e-002
3.050963e+003;5.676507e-002
3.052891e+003;5.689121e-002
3.054820e+003;5.702679e-002
3.056749e+003;5.748887e-002
3.058677e+003;5.809765e-002
3.060606e+003;5.833054e-002
3.062534e+003;5.847226e-002
3.064463e+003;5.881016e-002
3.066391e+003;5.895124e-002
3.068320e+003;5.876005e-002
3.070248e+003;5.872834e-002
3.072177e+003;5.873744e-002
3.074105e+003;5.868441e-002
3.076034e+003;5.883699e-002
3.077963e+003;5.881536e-002
3.079891e+003;5.849122e-002
3.081820e+003;5.847939e-002
3.083748e+003;5.871237e-002
3.085677e+003;5.876141e-002
3.087605e+003;5.845330e-002
3.089534e+003;5.846092e-002
3.091462e+003;5.843591e-002
3.093391e+003;5.814231e-002
3.095320e+003;5.792398e-002
3.097248e+003;5.769626e-002
3.099177e+003;5.760587e-002
3.101105e+003;5.754893e-002
3.103034e+003;5.705883e-002
3.104962e+003;5.642596e-002
3.106891e+003;5.630271e-002
3.108819e+003;5.634089e-002
3.110748e+003;5.635356e-002
3.112677e+003;5.610488e-002
3.114605e+003;5.595371e-002
3.116533e+003;5.602555e-002
3.118462e+003;5.617938e-002
3.120391e+003;5.617776e-002
3.122319e+003;5.604108e-002
3.124248e+003;5.587189e-002
3.126176e+003;5.567900e-002
3.128105e+003;5.595292e-002
3.130033e+003;5.629177e-002
3.131962e+003;5.599344e-002
3.133890e+003;5.595831e-002
3.135819e+003;5.646811e-002
3.137748e+003;5.679517e-002
3.139676e+003;5.694700e-002
3.141605e+003;5.715203e-002
3.143533e+003;5.750638e-002
3.145462e+003;5.779080e-002
3.147390e+003;5.747990e-002
3.149319e+003;5.746852e-002
3.151247e+003;5.812984e-002
3.153176e+003;5.883809e-002
3.155104e+003;5.918702e-002
3.157033e+003;5.951222e-002
3.158962e+003;5.985557e-002
3.160890e+003;6.034321e-002
3.162819e+003;6.123763e-002
3.164747e+003;6.189425e-002
3.166676e+003;6.196525e-002
3.168604e+003;6.232095e-002
3.170533e+003;6.292648e-002
3.172461e+003;6.339372e-002
3.174390e+003;6.405646e-002
3.176319e+003;6.483414e-002
3.178247e+003;6.537620e-002
3.180176e+003;6.568810e-002
3.182104e+003;6.587362e-002
3.184033e+003;6.633980e-002
3.185961e+003;6.708825e-002
3.187890e+003;6.779190e-002
3.189818e+003;6.833266e-002
3.191747e+003;6.886901e-002
3.193676e+003;6.971227e-002
3.195604e+003;7.039498e-002
3.197532e+003;7.084353e-002
3.199461e+003;7.123212e-002
3.201390e+003;7.178074e-002
3.203318e+003;7.259674e-002
3.205247e+003;7.349230e-002
3.207175e+003;7.397369e-002
3.209104e+003;7.431562e-002
3.211032e+003;7.517155e-002
3.212961e+003;7.586428e-002
3.214889e+003;7.617923e-002
3.216818e+003;7.664116e-002
3.218747e+003;7.735584e-002
3.220675e+003;7.827912e-002
3.222604e+003;7.920640e-002
3.224532e+003;7.976774e-002
3.226461e+003;8.037662e-002
3.228389e+003;8.127522e-002
3.230318e+003;8.167063e-002
3.232246e+003;8.199926e-002
3.234175e+003;8.298490e-002
3.236104e+003;8.397452e-002
3.238032e+003;8.464806e-002
3.239961e+003;8.554108e-002
3.241889e+003;8.673684e-002
3.243818e+003;8.759128e-002
3.245746e+003;8.799649e-002
3.247675e+003;8.884292e-002
3.249603e+003;9.009997e-002
3.251532e+003;9.133246e-002
3.253460e+003;9.284832e-002
3.255389e+003;9.392806e-002
3.257318e+003;9.443126e-002
3.259246e+003;9.555612e-002
3.261175e+003;9.703963e-002
3.263103e+003;9.817010e-002
3.265032e+003;9.881267e-002
3.266960e+003;9.988647e-002
3.268889e+003;1.014438e-001
3.270817e+003;1.026755e-001
3.272746e+003;1.036552e-001
3.274675e+003;1.045588e-001
3.276603e+003;1.054669e-001
3.278531e+003;1.060406e-001
3.280460e+003;1.062628e-001
3.282389e+003;1.064483e-001
3.284317e+003;1.065743e-001
3.286246e+003;1.067437e-001
3.288174e+003;1.068214e-001
3.290103e+003;1.064133e-001
3.292031e+003;1.058778e-001
3.293960e+003;1.054038e-001
3.295888e+003;1.048410e-001
3.297817e+003;1.039197e-001
3.299746e+003;1.025473e-001
3.301674e+003;1.016106e-001
3.303603e+003;1.005434e-001
3.305531e+003;9.930532e-002
3.307460e+003;9.830259e-002
3.309388e+003;9.700935e-002
3.311317e+003;9.562036e-002
3.313245e+003;9.437101e-002
3.315174e+003;9.292625e-002
3.317103e+003;9.133123e-002
3.319031e+003;9.001077e-002
3.320960e+003;8.885504e-002
3.322888e+003;8.775910e-002
3.324817e+003;8.644888e-002
3.326745e+003;8.521943e-002
3.328674e+003;8.424005e-002
3.330602e+003;8.300143e-002
3.332531e+003;8.166127e-002
3.334459e+003;8.083094e-002
3.336388e+003;7.990931e-002
3.338317e+003;7.869455e-002
3.340245e+003;7.756475e-002
3.342174e+003;7.643945e-002
3.344102e+003;7.553248e-002
3.346031e+003;7.468666e-002
3.347959e+003;7.365586e-002
3.349888e+003;7.271214e-002
3.351816e+003;7.210937e-002
3.353745e+003;7.172325e-002
3.355674e+003;7.089619e-002
3.357602e+003;7.009549e-002
3.359531e+003;6.935715e-002
3.361459e+003;6.839716e-002
3.363388e+003;6.790404e-002
3.365316e+003;6.761114e-002
3.367245e+003;6.707472e-002
3.369173e+003;6.669915e-002
3.371102e+003;6.652019e-002
3.373031e+003;6.596803e-002
3.374959e+003;6.524996e-002
3.376887e+003;6.471340e-002
3.378816e+003;6.443521e-002
3.380745e+003;6.382981e-002
3.382673e+003;6.315887e-002
3.384602e+003;6.252998e-002
3.386530e+003;6.192536e-002
3.388459e+003;6.140308e-002
3.390387e+003;6.080185e-002
3.392316e+003;6.062862e-002
3.394244e+003;6.045965e-002
3.396173e+003;6.000490e-002
3.398102e+003;5.970177e-002
3.400030e+003;5.928808e-002
3.401959e+003;5.879730e-002
3.403887e+003;5.843879e-002
3.405816e+003;5.786151e-002
3.407744e+003;5.691044e-002
3.409673e+003;5.653804e-002
3.411601e+003;5.662538e-002
3.413530e+003;5.616634e-002
3.415458e+003;5.542686e-002
3.417387e+003;5.525151e-002
3.419316e+003;5.496746e-002
3.421244e+003;5.412316e-002
3.423173e+003;5.371137e-002
3.425101e+003;5.337598e-002
3.427030e+003;5.271037e-002
3.428958e+003;5.210011e-002
3.430887e+003;5.159698e-002
3.432815e+003;5.133661e-002
3.434744e+003;5.097377e-002
3.436673e+003;5.077316e-002
3.438601e+003;5.065423e-002
3.440530e+003;4.992908e-002
3.442458e+003;4.977630e-002
3.444387e+003;4.988418e-002
3.446315e+003;4.953681e-002
3.448244e+003;4.921202e-002
3.450172e+003;4.907796e-002
3.452101e+003;4.868564e-002
3.454030e+003;4.792385e-002
3.455958e+003;4.761671e-002
3.457886e+003;4.779478e-002
3.459815e+003;4.780687e-002
3.461744e+003;4.724474e-002
3.463672e+003;4.696118e-002
3.465601e+003;4.712351e-002
3.467529e+003;4.714596e-002
3.469458e+003;4.711664e-002
3.471386e+003;4.698961e-002
3.473315e+003;4.655897e-002
3.475243e+003;4.597748e-002
3.477172e+003;4.564179e-002
3.479101e+003;4.595442e-002
3.481029e+003;4.612540e-002
3.482958e+003;4.588949e-002
3.484886e+003;4.560407e-002
3.486815e+003;4.531262e-002
3.488743e+003;4.495675e-002
3.490672e+003;4.468340e-002
3.492600e+003;4.473383e-002
3.494529e+003;4.457518e-002
3.496458e+003;4.407053e-002
3.498386e+003;4.361786e-002
3.500315e+003;4.330423e-002
3.502243e+003;4.306608e-002
3.504172e+003;4.305105e-002
3.506100e+003;4.276368e-002
3.508029e+003;4.251648e-002
3.509957e+003;4.252952e-002
3.511886e+003;4.268533e-002
3.513814e+003;4.242086e-002
3.515743e+003;4.193556e-002
3.517672e+003;4.177648e-002
3.519600e+003;4.154468e-002
3.521529e+003;4.116718e-002
3.523457e+003;4.093152e-002
3.525386e+003;4.074817e-002
3.527314e+003;4.039122e-002
3.529243e+003;4.017862e-002
3.531171e+003;4.024278e-002
3.533100e+003;3.990077e-002
3.535029e+003;3.949353e-002
3.536957e+003;3.893096e-002
3.538885e+003;3.831569e-002
3.540814e+003;3.811506e-002
3.542743e+003;3.800004e-002
3.544671e+003;3.798066e-002
3.546600e+003;3.788126e-002
3.548528e+003;3.761261e-002
3.550457e+003;3.704200e-002
3.552385e+003;3.646158e-002
3.554314e+003;3.638011e-002
3.556242e+003;3.618070e-002
3.558171e+003;3.552838e-002
3.560100e+003;3.532782e-002
3.562028e+003;3.523783e-002
3.563957e+003;3.484154e-002
3.565885e+003;3.434538e-002
3.567814e+003;3.385622e-002
3.569742e+003;3.379813e-002
3.571671e+003;3.327597e-002
3.573599e+003;3.283043e-002
3.575528e+003;3.259764e-002
3.577457e+003;3.212026e-002
3.579385e+003;3.142072e-002
3.581314e+003;3.085295e-002
3.583242e+003;3.093290e-002
3.585171e+003;3.080831e-002
3.587099e+003;3.035908e-002
3.589028e+003;3.011199e-002
3.590956e+003;2.994521e-002
3.592885e+003;2.966887e-002
3.594813e+003;2.904121e-002
3.596742e+003;2.848510e-002
3.598671e+003;2.808923e-002
3.600599e+003;2.786967e-002
3.602528e+003;2.760563e-002
3.604456e+003;2.685555e-002
3.606385e+003;2.627590e-002
3.608313e+003;2.587462e-002
3.610242e+003;2.544508e-002
3.612170e+003;2.509378e-002
3.614099e+003;2.440325e-002
3.616028e+003;2.371592e-002
3.617956e+003;2.300903e-002
3.619885e+003;2.230228e-002
3.621813e+003;2.200722e-002
3.623742e+003;2.172567e-002
3.625670e+003;2.144974e-002
3.627599e+003;2.100991e-002
3.629527e+003;2.035042e-002
3.631456e+003;1.965276e-002
3.633385e+003;1.927854e-002
3.635313e+003;1.883886e-002
3.637241e+003;1.806977e-002
3.639170e+003;1.723459e-002
3.641099e+003;1.666540e-002
3.643027e+003;1.623671e-002
3.644956e+003;1.570781e-002
3.646884e+003;1.502610e-002
3.648813e+003;1.438557e-002
3.650741e+003;1.430817e-002
3.652670e+003;1.375873e-002
3.654598e+003;1.290838e-002
3.656527e+003;1.215485e-002
3.658456e+003;1.178037e-002
3.660384e+003;1.124031e-002
3.662313e+003;1.081008e-002
3.664241e+003;1.061459e-002
3.666170e+003;9.908284e-003
3.668098e+003;8.875164e-003
3.670027e+003;8.263554e-003
3.671955e+003;7.848342e-003
3.673884e+003;7.612137e-003
3.675813e+003;7.597368e-003
3.677741e+003;7.407573e-003
3.679669e+003;6.790385e-003
3.681598e+003;6.122252e-003
3.683527e+003;5.789829e-003
3.685455e+003;5.647143e-003
3.687384e+003;5.425049e-003
3.689312e+003;4.727423e-003
3.691241e+003;4.368253e-003
3.693169e+003;4.183911e-003
3.695098e+003;3.865137e-003
3.697026e+003;3.750787e-003
3.698955e+003;3.756268e-003
3.700884e+003;3.310716e-003
3.702812e+003;3.112139e-003
3.704741e+003;3.043431e-003
3.706669e+003;3.157828e-003
3.708598e+003;3.010499e-003
3.710526e+003;2.628543e-003
3.712455e+003;2.417149e-003
3.714383e+003;2.479227e-003
3.716312e+003;2.628543e-003
3.718240e+003;2.422347e-003
3.720169e+003;2.156440e-003
3.722098e+003;1.833627e-003
3.724026e+003;1.624049e-003
3.725955e+003;1.755106e-003
3.727883e+003;1.599007e-003
3.729812e+003;1.559799e-003
3.731740e+003;1.954462e-003
3.733669e+003;2.139857e-003
3.735597e+003;2.332994e-003
3.737526e+003;2.243492e-003
3.739455e+003;2.137560e-003
3.741383e+003;1.610514e-003
3.743312e+003;9.528861e-004
3.745240e+003;1.193237e-003
3.747169e+003;1.399050e-003
3.749097e+003;1.109086e-003
3.751026e+003;1.161641e-003
3.752954e+003;1.420191e-003
3.754883e+003;1.462179e-003
3.756812e+003;1.489375e-003
3.758740e+003;1.480498e-003
3.760668e+003;1.471587e-003
3.762597e+003;1.360459e-003
3.764526e+003;1.214203e-003
3.766454e+003;1.138884e-003
3.768383e+003;9.936660e-004
3.770311e+003;1.130047e-003
3.772240e+003;1.260856e-003
3.774168e+003;9.670989e-004
3.776097e+003;1.051887e-003
3.778025e+003;1.102941e-003
3.779954e+003;8.960398e-004
3.781883e+003;9.009538e-004
3.783811e+003;9.317671e-004
3.785740e+003;8.437490e-004
3.787668e+003;8.977996e-004
3.789597e+003;8.664242e-004
3.791525e+003;7.826682e-004
3.793454e+003;8.338892e-004
3.795382e+003;8.496252e-004
3.797311e+003;7.327475e-004
3.799240e+003;1.240586e-003
3.801168e+003;1.567049e-003
3.803097e+003;1.387947e-003
3.805025e+003;1.637685e-003
3.806954e+003;1.644603e-003
3.808882e+003;1.128187e-003
3.810811e+003;5.311320e-004
3.812739e+003;7.450280e-004
3.814668e+003;1.044148e-003
3.816596e+003;8.697775e-004
3.818525e+003;1.047104e-003
3.820454e+003;1.324497e-003
3.822382e+003;1.444459e-003
3.824311e+003;1.356370e-003
3.826239e+003;1.432990e-003
3.828168e+003;1.476707e-003
3.830096e+003;1.394230e-003
3.832025e+003;9.955922e-004
3.833953e+003;1.063047e-003
3.835882e+003;1.160046e-003
3.837811e+003;8.671546e-004
3.839739e+003;7.607608e-004
3.841667e+003;1.041391e-003
3.843596e+003;1.338356e-003
3.845525e+003;1.391138e-003
3.847453e+003;1.318215e-003
3.849382e+003;1.398285e-003
3.851310e+003;1.734414e-003
3.853239e+003;1.889165e-003
3.855167e+003;1.757236e-003
3.857096e+003;1.716816e-003
3.859024e+003;1.806709e-003
3.860953e+003;1.662065e-003
3.862882e+003;1.721474e-003
3.864810e+003;1.871694e-003
3.866739e+003;2.080658e-003
3.868667e+003;1.968940e-003
3.870596e+003;1.758400e-003
3.872524e+003;2.085519e-003
3.874453e+003;2.097338e-003
3.876381e+003;2.124274e-003
3.878310e+003;2.559111e-003
3.880239e+003;2.460366e-003
3.882167e+003;2.292121e-003
3.884096e+003;2.130334e-003
3.886024e+003;1.873990e-003
3.887953e+003;2.177119e-003
3.889881e+003;2.649778e-003
3.891810e+003;2.913819e-003
3.893738e+003;2.952615e-003
3.895667e+003;3.357728e-003
3.897595e+003;3.523982e-003
3.899524e+003;3.264009e-003
3.901453e+003;3.021342e-003
3.903381e+003;3.018106e-003
3.905310e+003;3.000723e-003
3.907238e+003;2.855848e-003
3.909167e+003;2.796751e-003
3.911095e+003;2.694018e-003
3.913024e+003;2.568144e-003
3.914952e+003;3.112239e-003
3.916881e+003;3.943170e-003
3.918810e+003;4.114565e-003
3.920738e+003;3.843876e-003
3.922667e+003;3.376395e-003
3.924595e+003;3.354924e-003
3.926524e+003;3.885062e-003
3.928452e+003;3.982092e-003
3.930381e+003;4.003326e-003
3.932309e+003;4.387598e-003
3.934238e+003;4.183142e-003
3.936167e+003;3.822014e-003
3.938095e+003;4.025565e-003
3.940023e+003;4.317316e-003
3.941952e+003;4.687363e-003
3.943881e+003;5.179529e-003
3.945809e+003;4.933275e-003
3.947738e+003;4.315676e-003
3.949666e+003;4.323172e-003
3.951595e+003;4.362630e-003
3.953523e+003;4.460369e-003
3.955452e+003;4.391113e-003
3.957380e+003;4.317483e-003
3.959309e+003;4.463382e-003
3.961238e+003;4.423647e-003
3.963166e+003;4.706622e-003
3.965095e+003;4.861028e-003
3.967023e+003;5.100703e-003
3.968952e+003;5.396331e-003
3.970880e+003;5.049513e-003
3.972809e+003;4.713053e-003
3.974737e+003;4.600054e-003
3.976666e+003;4.566970e-003
3.978594e+003;4.721997e-003
3.980523e+003;4.786549e-003
3.982452e+003;4.644627e-003
3.984380e+003;4.482430e-003
3.986309e+003;4.210776e-003
3.988237e+003;4.440183e-003
3.990166e+003;4.587865e-003
3.992094e+003;4.469810e-003
3.994023e+003;4.669009e-003
3.995951e+003;4.621921e-003
3.997880e+003;4.783299e-003
3.999809e+003;4.805511e-003
4.001737e+003;0.000000e+000
