3.992094e+002;0.000000e+000
4.011380e+002;0.000000e+000
4.030665e+002;0.000000e+000
4.049951e+002;0.000000e+000
4.069236e+002;0.000000e+000
4.088522e+002;0.000000e+000
4.107807e+002;0.000000e+000
4.127093e+002;0.000000e+000
4.146378e+002;0.000000e+000
4.165664e+002;0.000000e+000
4.184949e+002;0.000000e+000
4.204235e+002;0.000000e+000
4.223520e+002;0.000000e+000
4.242806e+002;0.000000e+000
4.262091e+002;0.000000e+000
4.281377e+002;0.000000e+000
4.300662e+002;0.000000e+000
4.319948e+002;0.000000e+000
4.339233e+002;0.000000e+000
4.358519e+002;0.000000e+000
4.377804e+002;0.000000e+000
4.397090e+002;0.000000e+000
4.416375e+002;0.000000e+000
4.435660e+002;0.000000e+000
4.454946e+002;0.000000e+000
4.474232e+002;0.000000e+000
4.493517e+002;0.000000e+000
4.512802e+002;0.000000e+000
4.532088e+002;0.000000e+000
4.551373e+002;0.000000e+000
4.570659e+002;0.000000e+000
4.589944e+002;0.000000e+000
4.609230e+002;0.000000e+000
4.628515e+002;0.000000e+000
4.647801e+002;0.000000e+000
4.667086e+002;0.000000e+000
4.686372e+002;0.000000e+000
4.705657e+002;0.000000e+000
4.724943e+002;0.000000e+000
4.744228e+002;0.000000e+000
4.763513e+002;0.000000e+000
4.782799e+002;0.000000e+000
4.802085e+002;0.000000e+000
4.821370e+002;0.000000e+000
4.840656e+002;0.000000e+000
4.859941e+002;0.000000e+000
4.879226e+002;0.000000e+000
4.898512e+002;0.000000e+000
4.917798e+002;0.000000e+000
4.937083e+002;0.000000e+000
4.956368e+002;0.000000e+000
4.975654e+002;0.000000e+000
4.994939e+002;0.000000e+000
5.014225e+002;0.000000e+000
5.033510e+002;0.000000e+000
5.052796e+002;0.000000e+000
5.072081e+002;0.000000e+000
5.091367e+002;0.000000e+000
5.110652e+002;0.000000e+000
5.129938e+002;0.000000e+000
5.149223e+002;0.000000e+000
5.168509e+002;0.000000e+000
5.187794e+002;0.000000e+000
5.207079e+002;0.000000e+000
5.226365e+002;0.000000e+000
5.245651e+002;0.000000e+000
5.264936e+002;0.000000e+000
5.284222e+002;0.000000e+000
5.303507e+002;0.000000e+000
5.322792e+002;0.000000e+000
5.342078e+002;0.000000e+000
5.361364e+002;0.000000e+000
5.380649e+002;0.000000e+000
5.399935e+002;0.000000e+000
5.419220e+002;0.000000e+000
5.438505e+002;0.000000e+000
5.457791e+002;0.000000e+000
5.477076e+002;0.000000e+000
5.496362e+002;0.000000e+000
5.515648e+002;0.000000e+000
5.534933e+002;0.000000e+000
5.554218e+002;0.000000e+000
5.573504e+002;0.000000e+000
5.592789e+002;0.000000e+000
5.612075e+002;0.000000e+000
5.631360e+002;0.000000e+000
5.650646e+002;0.000000e+000
5.669931e+002;0.000000e+000
5.689217e+002;0.000000e+000
5.708502e+002;0.000000e+000
5.727787e+002;0.000000e+000
5.747073e+002;0.000000e+000
5.766359e+002;0.000000e+000
5.785644e+002;0.000000e+000
5.804930e+002;0.000000e+000
5.824215e+002;0.000000e+000
5.843500e+002;0.000000e+000
5.862786e+002;0.000000e+000
5.882072e+002;0.000000e+000
5.901357e+002;0.000000e+000
5.920643e+002;0.000000e+000
5.939928e+002;0.000000e+000
5.959213e+002;0.000000e+000
5.978499e+002;0.000000e+000
5.997784e+002;1.991374e-001
6.017070e+002;1.974851e-001
6.036355e+002;2.017343e-001
6.055641e+002;2.041289e-001
6.074926e+002;2.096373e-001
6.094211e+002;2.141169e-001
6.113497e+002;2.097621e-001
6.132783e+002;2.069715e-001
6.152068e+002;2.101416e-001
6.171354e+002;2.142416e-001
6.190639e+002;2.126114e-001
6.209924e+002;2.104253e-001
6.229210e+002;2.090488e-001
6.248495e+002;2.099277e-001
6.267781e+002;2.114509e-001
6.287067e+002;2.098830e-001
6.306352e+002;2.080786e-001
6.325637e+002;2.054178e-001
6.344923e+002;2.039482e-001
6.364208e+002;2.060317e-001
6.383494e+002;2.053027e-001
6.402780e+002;2.041580e-001
6.422065e+002;2.042617e-001
6.441350e+002;2.010703e-001
6.460636e+002;1.992824e-001
6.479921e+002;2.013619e-001
6.499207e+002;1.987722e-001
6.518492e+002;1.944186e-001
6.537778e+002;1.943980e-001
6.557063e+002;1.972744e-001
6.576349e+002;1.964025e-001
6.595634e+002;1.962234e-001
6.614919e+002;1.992005e-001
6.634205e+002;2.017430e-001
6.653491e+002;2.006902e-001
6.672776e+002;1.980014e-001
6.692062e+002;1.982425e-001
6.711347e+002;1.961994e-001
6.730632e+002;1.935446e-001
6.749918e+002;1.923765e-001
6.769203e+002;1.918404e-001
6.788489e+002;1.924938e-001
6.807775e+002;1.918632e-001
6.827060e+002;1.900152e-001
6.846345e+002;1.883422e-001
6.865631e+002;1.886093e-001
6.884916e+002;1.881124e-001
6.904202e+002;1.865874e-001
6.923488e+002;1.847663e-001
6.942773e+002;1.837164e-001
6.962058e+002;1.833827e-001
6.981344e+002;1.820320e-001
7.000629e+002;1.801935e-001
7.019915e+002;1.791456e-001
7.039200e+002;1.782193e-001
7.058486e+002;1.757841e-001
7.077771e+002;1.734156e-001
7.097057e+002;1.716059e-001
7.116342e+002;1.692426e-001
7.135627e+002;1.678085e-001
7.154913e+002;1.663734e-001
7.174199e+002;1.638953e-001
7.193484e+002;1.613890e-001
7.212770e+002;1.592102e-001
7.232055e+002;1.567687e-001
7.251340e+002;1.552494e-001
7.270626e+002;1.538491e-001
7.289911e+002;1.509116e-001
7.309197e+002;1.481930e-001
7.328483e+002;1.459444e-001
7.347768e+002;1.436950e-001
7.367053e+002;1.411566e-001
7.386339e+002;1.384331e-001
7.405624e+002;1.363255e-001
7.424910e+002;1.343075e-001
7.444196e+002;1.327558e-001
7.463481e+002;1.316703e-001
7.482766e+002;1.302525e-001
7.502052e+002;1.282957e-001
7.521337e+002;1.260001e-001
7.540623e+002;1.241254e-001
7.559908e+002;1.225573e-001
7.579194e+002;1.216030e-001
7.598479e+002;1.198514e-001
7.617765e+002;1.182834e-001
7.637050e+002;1.168060e-001
7.656335e+002;1.153959e-001
7.675621e+002;1.139588e-001
7.694907e+002;1.128469e-001
7.714192e+002;1.115745e-001
7.733478e+002;1.097409e-001
7.752763e+002;1.079785e-001
7.772048e+002;1.067190e-001
7.791334e+002;1.056777e-001
7.810620e+002;1.043579e-001
7.829905e+002;1.029024e-001
7.849191e+002;1.017077e-001
7.868476e+002;1.005632e-001
7.887761e+002;9.937063e-002
7.907047e+002;9.838554e-002
7.926332e+002;9.691987e-002
7.945618e+002;9.593593e-002
7.964903e+002;9.551834e-002
7.984189e+002;9.451359e-002
8.003474e+002;9.321485e-002
8.022759e+002;9.316385e-002
8.042045e+002;9.314200e-002
8.061331e+002;9.254352e-002
8.080616e+002;9.270371e-002
8.099902e+002;9.268262e-002
8.119187e+002;9.247333e-002
8.138472e+002;9.248231e-002
8.157758e+002;9.252158e-002
8.177043e+002;9.252769e-002
8.196329e+002;9.219615e-002
8.215615e+002;9.194151e-002
8.234900e+002;9.210750e-002
8.254185e+002;9.240212e-002
8.273471e+002;9.245410e-002
8.292756e+002;9.225135e-002
8.312042e+002;9.201211e-002
8.331328e+002;9.109246e-002
8.350613e+002;9.041126e-002
8.369898e+002;8.893778e-002
8.389184e+002;8.743192e-002
8.408469e+002;8.717106e-002
8.427755e+002;8.724842e-002
8.447040e+002;8.711068e-002
8.466326e+002;8.665533e-002
8.485611e+002;8.665553e-002
8.504897e+002;8.677576e-002
8.524182e+002;8.651038e-002
8.543467e+002;8.596586e-002
8.562753e+002;8.476871e-002
8.582039e+002;8.316275e-002
8.601324e+002;8.172629e-002
8.620610e+002;8.056261e-002
8.639895e+002;7.950425e-002
8.659180e+002;7.824024e-002
8.678466e+002;7.795016e-002
8.697751e+002;7.865079e-002
8.717037e+002;7.901685e-002
8.736323e+002;7.906300e-002
8.755608e+002;7.914720e-002
8.774893e+002;7.925086e-002
8.794179e+002;7.920954e-002
8.813464e+002;7.937758e-002
8.832750e+002;7.955861e-002
8.852036e+002;7.936008e-002
8.871321e+002;7.967041e-002
8.890606e+002;8.053884e-002
8.909892e+002;8.111852e-002
8.929177e+002;8.135610e-002
8.948463e+002;8.125278e-002
8.967748e+002;8.136753e-002
8.987034e+002;8.171249e-002
9.006319e+002;8.199618e-002
9.025605e+002;8.206498e-002
9.044890e+002;8.182929e-002
9.064175e+002;8.152501e-002
9.083461e+002;8.131582e-002
9.102747e+002;8.136937e-002
9.122032e+002;8.167746e-002
9.141318e+002;8.169854e-002
9.160603e+002;8.179177e-002
9.179888e+002;8.228510e-002
9.199174e+002;8.350979e-002
9.218459e+002;8.507673e-002
9.237745e+002;8.622013e-002
9.257031e+002;8.679745e-002
9.276316e+002;8.739131e-002
9.295601e+002;8.803557e-002
9.314887e+002;8.863331e-002
9.334172e+002;8.917756e-002
9.353458e+002;8.951613e-002
9.372744e+002;8.978597e-002
9.392029e+002;9.010405e-002
9.411314e+002;9.070587e-002
9.430600e+002;9.193701e-002
9.449885e+002;9.306362e-002
9.469171e+002;9.396278e-002
9.488456e+002;9.512800e-002
9.507742e+002;9.665268e-002
9.527027e+002;9.814838e-002
9.546313e+002;9.958965e-002
9.565598e+002;1.010790e-001
9.584883e+002;1.027981e-001
9.604169e+002;1.046652e-001
9.623455e+002;1.067998e-001
9.642740e+002;1.091902e-001
9.662026e+002;1.116568e-001
9.681311e+002;1.143683e-001
9.700596e+002;1.172799e-001
9.719882e+002;1.201037e-001
9.739167e+002;1.228494e-001
9.758453e+002;1.258541e-001
9.777739e+002;1.290269e-001
9.797024e+002;1.322925e-001
9.816309e+002;1.354829e-001
9.835595e+002;1.383351e-001
9.854880e+002;1.412507e-001
9.874166e+002;1.439735e-001
9.893452e+002;1.466818e-001
9.912737e+002;1.499742e-001
9.932022e+002;1.532362e-001
9.951307e+002;1.568264e-001
9.970593e+002;1.599776e-001
9.989879e+002;1.624209e-001
1.000916e+003;1.643099e-001
1.002845e+003;1.657291e-001
1.004773e+003;1.674469e-001
1.006702e+003;1.688104e-001
1.008631e+003;1.701328e-001
1.010559e+003;1.715490e-001
1.012488e+003;1.723344e-001
1.014416e+003;1.726809e-001
1.016345e+003;1.730564e-001
1.018273e+003;1.734188e-001
1.020202e+003;1.740795e-001
1.022130e+003;1.749479e-001
1.024059e+003;1.765718e-001
1.025988e+003;1.790352e-001
1.027916e+003;1.819113e-001
1.029845e+003;1.845651e-001
1.031773e+003;1.866414e-001
1.033702e+003;1.877086e-001
1.035630e+003;1.881412e-001
1.037559e+003;1.876102e-001
1.039487e+003;1.867310e-001
1.041416e+003;1.862814e-001
1.043344e+003;1.859697e-001
1.045273e+003;1.867330e-001
1.047202e+003;1.884348e-001
1.049130e+003;1.896696e-001
1.051059e+003;1.907495e-001
1.052987e+003;1.926524e-001
1.054916e+003;1.944534e-001
1.056844e+003;1.949028e-001
1.058773e+003;1.942302e-001
1.060701e+003;1.925971e-001
1.062630e+003;1.897855e-001
1.064558e+003;1.863559e-001
1.066487e+003;1.824335e-001
1.068416e+003;1.785331e-001
1.070344e+003;1.748152e-001
1.072273e+003;1.715462e-001
1.074201e+003;1.690042e-001
1.076130e+003;1.661683e-001
1.078058e+003;1.629962e-001
1.079987e+003;1.595797e-001
1.081915e+003;1.561452e-001
1.083844e+003;1.534346e-001
1.085773e+003;1.510535e-001
1.087701e+003;1.486529e-001
1.089630e+003;1.464629e-001
1.091558e+003;1.445340e-001
1.093487e+003;1.429596e-001
1.095415e+003;1.423096e-001
1.097344e+003;1.426539e-001
1.099272e+003;1.431424e-001
1.101201e+003;1.431961e-001
1.103129e+003;1.433045e-001
1.105058e+003;1.432781e-001
1.106987e+003;1.431406e-001
1.108915e+003;1.424059e-001
1.110844e+003;1.409420e-001
1.112772e+003;1.392843e-001
1.114701e+003;1.371087e-001
1.116629e+003;1.346794e-001
1.118558e+003;1.326547e-001
1.120486e+003;1.305773e-001
1.122415e+003;1.287707e-001
1.124344e+003;1.269839e-001
1.126272e+003;1.250846e-001
1.128201e+003;1.232347e-001
1.130129e+003;1.218826e-001
1.132058e+003;1.212596e-001
1.133986e+003;1.206439e-001
1.135915e+003;1.203171e-001
1.137843e+003;1.205804e-001
1.139772e+003;1.214243e-001
1.141700e+003;1.227573e-001
1.143629e+003;1.243040e-001
1.145557e+003;1.264395e-001
1.147486e+003;1.288875e-001
1.149415e+003;1.314558e-001
1.151343e+003;1.337484e-001
1.153272e+003;1.356107e-001
1.155200e+003;1.375565e-001
1.157129e+003;1.393638e-001
1.159057e+003;1.408833e-001
1.160986e+003;1.419262e-001
1.162914e+003;1.423147e-001
1.164843e+003;1.420373e-001
1.166771e+003;1.408087e-001
1.168700e+003;1.395144e-001
1.170629e+003;1.379994e-001
1.172557e+003;1.356397e-001
1.174486e+003;1.331356e-001
1.176414e+003;1.304354e-001
1.178343e+003;1.272817e-001
1.180271e+003;1.246326e-001
1.182200e+003;1.228089e-001
1.184128e+003;1.218273e-001
1.186057e+003;1.216178e-001
1.187986e+003;1.220354e-001
1.189914e+003;1.231359e-001
1.191843e+003;1.245619e-001
1.193771e+003;1.265122e-001
1.195700e+003;1.290157e-001
1.197628e+003;1.320908e-001
1.199557e+003;1.358310e-001
1.201485e+003;1.399453e-001
1.203414e+003;1.439127e-001
1.205343e+003;1.475842e-001
1.207271e+003;1.509676e-001
1.209200e+003;1.543273e-001
1.211128e+003;1.573451e-001
1.213057e+003;1.598338e-001
1.214985e+003;1.622367e-001
1.216914e+003;1.648721e-001
1.218842e+003;1.676466e-001
1.220771e+003;1.700300e-001
1.222699e+003;1.722465e-001
1.224628e+003;1.742336e-001
1.226557e+003;1.759838e-001
1.228485e+003;1.773291e-001
1.230414e+003;1.778514e-001
1.232342e+003;1.774400e-001
1.234271e+003;1.764726e-001
1.236199e+003;1.753095e-001
1.238128e+003;1.737511e-001
1.240056e+003;1.719909e-001
1.241985e+003;1.703996e-001
1.243913e+003;1.686921e-001
1.245842e+003;1.670406e-001
1.247771e+003;1.659024e-001
1.249699e+003;1.649469e-001
1.251628e+003;1.637746e-001
1.253556e+003;1.627090e-001
1.255485e+003;1.617074e-001
1.257413e+003;1.606592e-001
1.259342e+003;1.593224e-001
1.261270e+003;1.579748e-001
1.263199e+003;1.564061e-001
1.265127e+003;1.547427e-001
1.267056e+003;1.530612e-001
1.268985e+003;1.509764e-001
1.270913e+003;1.487760e-001
1.272842e+003;1.466430e-001
1.274770e+003;1.446462e-001
1.276699e+003;1.428782e-001
1.278627e+003;1.412389e-001
1.280556e+003;1.392393e-001
1.282484e+003;1.371808e-001
1.284413e+003;1.355295e-001
1.286342e+003;1.340726e-001
1.288270e+003;1.332781e-001
1.290199e+003;1.328253e-001
1.292127e+003;1.318996e-001
1.294056e+003;1.313332e-001
1.295984e+003;1.311244e-001
1.297913e+003;1.309095e-001
1.299841e+003;1.310011e-001
1.301770e+003;1.312018e-001
1.303698e+003;1.318917e-001
1.305627e+003;1.323407e-001
1.307556e+003;1.327316e-001
1.309484e+003;1.333160e-001
1.311413e+003;1.337557e-001
1.313341e+003;1.340661e-001
1.315270e+003;1.342682e-001
1.317198e+003;1.339067e-001
1.319127e+003;1.333120e-001
1.321055e+003;1.329809e-001
1.322984e+003;1.325220e-001
1.324912e+003;1.319878e-001
1.326841e+003;1.319917e-001
1.328770e+003;1.324107e-001
1.330698e+003;1.328742e-001
1.332627e+003;1.331905e-001
1.334555e+003;1.338042e-001
1.336484e+003;1.341712e-001
1.338412e+003;1.337164e-001
1.340341e+003;1.332312e-001
1.342269e+003;1.326962e-001
1.344198e+003;1.317729e-001
1.346126e+003;1.309692e-001
1.348055e+003;1.302446e-001
1.349984e+003;1.298577e-001
1.351912e+003;1.301341e-001
1.353841e+003;1.307388e-001
1.355769e+003;1.317036e-001
1.357698e+003;1.332411e-001
1.359626e+003;1.352104e-001
1.361555e+003;1.373619e-001
1.363483e+003;1.395695e-001
1.365412e+003;1.418531e-001
1.367341e+003;1.437986e-001
1.369269e+003;1.446751e-001
1.371198e+003;1.447930e-001
1.373126e+003;1.445648e-001
1.375055e+003;1.438334e-001
1.376983e+003;1.430901e-001
1.378912e+003;1.425043e-001
1.380840e+003;1.416028e-001
1.382769e+003;1.409257e-001
1.384698e+003;1.403885e-001
1.386626e+003;1.397682e-001
1.388555e+003;1.390766e-001
1.390483e+003;1.389421e-001
1.392412e+003;1.392211e-001
1.394340e+003;1.391493e-001
1.396269e+003;1.391650e-001
1.398197e+003;1.395444e-001
1.400126e+003;1.401363e-001
1.402054e+003;1.412872e-001
1.403983e+003;1.424404e-001
1.405911e+003;1.434411e-001
1.407840e+003;1.445368e-001
1.409769e+003;1.454262e-001
1.411697e+003;1.463158e-001
1.413626e+003;1.470231e-001
1.415554e+003;1.473162e-001
1.417483e+003;1.475473e-001
1.419411e+003;1.481356e-001
1.421340e+003;1.493351e-001
1.423268e+003;1.508443e-001
1.425197e+003;1.523156e-001
1.427125e+003;1.542171e-001
1.429054e+003;1.570077e-001
1.430983e+003;1.600719e-001
1.432911e+003;1.632251e-001
1.434840e+003;1.664739e-001
1.436768e+003;1.695939e-001
1.438697e+003;1.723225e-001
1.440625e+003;1.741127e-001
1.442554e+003;1.753635e-001
1.444482e+003;1.765602e-001
1.446411e+003;1.771913e-001
1.448340e+003;1.767235e-001
1.450268e+003;1.749826e-001
1.452197e+003;1.725462e-001
1.454125e+003;1.699097e-001
1.456054e+003;1.671163e-001
1.457982e+003;1.645392e-001
1.459911e+003;1.623672e-001
1.461839e+003;1.605904e-001
1.463768e+003;1.593301e-001
1.465697e+003;1.582659e-001
1.467625e+003;1.576871e-001
1.469554e+003;1.580992e-001
1.471482e+003;1.588694e-001
1.473411e+003;1.598257e-001
1.475339e+003;1.617587e-001
1.477268e+003;1.643945e-001
1.479196e+003;1.677836e-001
1.481125e+003;1.718867e-001
1.483053e+003;1.766698e-001
1.484982e+003;1.820989e-001
1.486911e+003;1.881239e-001
1.488839e+003;1.946725e-001
1.490768e+003;2.011366e-001
1.492696e+003;2.073855e-001
1.494625e+003;2.134919e-001
1.496553e+003;2.193254e-001
1.498482e+003;2.247805e-001
1.500410e+003;2.300004e-001
1.502339e+003;2.343953e-001
1.504267e+003;2.381333e-001
1.506196e+003;2.415407e-001
1.508125e+003;2.444422e-001
1.510053e+003;2.467586e-001
1.511982e+003;2.482275e-001
1.513910e+003;2.485306e-001
1.515839e+003;2.469737e-001
1.517767e+003;2.432969e-001
1.519696e+003;2.384030e-001
1.521624e+003;2.334692e-001
1.523553e+003;2.291520e-001
1.525481e+003;2.248854e-001
1.527410e+003;2.210796e-001
1.529339e+003;2.176912e-001
1.531267e+003;2.142190e-001
1.533196e+003;2.105715e-001
1.535124e+003;2.069205e-001
1.537053e+003;2.034033e-001
1.538981e+003;1.996945e-001
1.540910e+003;1.960401e-001
1.542838e+003;1.925666e-001
1.544767e+003;1.892998e-001
1.546695e+003;1.859697e-001
1.548624e+003;1.826514e-001
1.550553e+003;1.793367e-001
1.552481e+003;1.760992e-001
1.554410e+003;1.725864e-001
1.556338e+003;1.689626e-001
1.558267e+003;1.653569e-001
1.560195e+003;1.618229e-001
1.562124e+003;1.585299e-001
1.564052e+003;1.551116e-001
1.565981e+003;1.515818e-001
1.567910e+003;1.482739e-001
1.569838e+003;1.450913e-001
1.571767e+003;1.423429e-001
1.573695e+003;1.400368e-001
1.575624e+003;1.378898e-001
1.577552e+003;1.364471e-001
1.579481e+003;1.358331e-001
1.581409e+003;1.351560e-001
1.583338e+003;1.347474e-001
1.585266e+003;1.353844e-001
1.587195e+003;1.367164e-001
1.589124e+003;1.383259e-001
1.591052e+003;1.405914e-001
1.592981e+003;1.436437e-001
1.594909e+003;1.468410e-001
1.596838e+003;1.504266e-001
1.598766e+003;1.546745e-001
1.600695e+003;1.593147e-001
1.602623e+003;1.649937e-001
1.604552e+003;1.717535e-001
1.606480e+003;1.793417e-001
1.608409e+003;1.879383e-001
1.610338e+003;1.972931e-001
1.612266e+003;2.068045e-001
1.614195e+003;2.158861e-001
1.616123e+003;2.244553e-001
1.618052e+003;2.323593e-001
1.619980e+003;2.391877e-001
1.621909e+003;2.448132e-001
1.623837e+003;2.487324e-001
1.625766e+003;2.508656e-001
1.627694e+003;2.513408e-001
1.629623e+003;2.503745e-001
1.631552e+003;2.486489e-001
1.633480e+003;2.464322e-001
1.635409e+003;2.434200e-001
1.637337e+003;2.399781e-001
1.639266e+003;2.361994e-001
1.641194e+003;2.322265e-001
1.643123e+003;2.284581e-001
1.645051e+003;2.242838e-001
1.646980e+003;2.198474e-001
1.648909e+003;2.155062e-001
1.650837e+003;2.110468e-001
1.652766e+003;2.062184e-001
1.654694e+003;2.015134e-001
1.656623e+003;1.967342e-001
1.658551e+003;1.916119e-001
1.660480e+003;1.865093e-001
1.662408e+003;1.816568e-001
1.664337e+003;1.770916e-001
1.666266e+003;1.726119e-001
1.668194e+003;1.679989e-001
1.670123e+003;1.635085e-001
1.672051e+003;1.594517e-001
1.673980e+003;1.555160e-001
1.675908e+003;1.514909e-001
1.677837e+003;1.475710e-001
1.679765e+003;1.439411e-001
1.681694e+003;1.405198e-001
1.683622e+003;1.373381e-001
1.685551e+003;1.343090e-001
1.687479e+003;1.313200e-001
1.689408e+003;1.285847e-001
1.691337e+003;1.263360e-001
1.693265e+003;1.248004e-001
1.695194e+003;1.232032e-001
1.697122e+003;1.211715e-001
1.699051e+003;1.183558e-001
1.700979e+003;1.136911e-001
1.702908e+003;1.071550e-001
1.704836e+003;9.956394e-002
1.706765e+003;9.161243e-002
1.708693e+003;8.412120e-002
1.710622e+003;7.763416e-002
1.712551e+003;7.208773e-002
1.714479e+003;6.736355e-002
1.716408e+003;6.303836e-002
1.718336e+003;5.913189e-002
1.720265e+003;5.600953e-002
1.722193e+003;5.330705e-002
1.724122e+003;5.086572e-002
1.726050e+003;4.912983e-002
1.727979e+003;4.787150e-002
1.729908e+003;4.658966e-002
1.731836e+003;4.506128e-002
1.733765e+003;4.381683e-002
1.735693e+003;4.300554e-002
1.737622e+003;4.207553e-002
1.739550e+003;4.087112e-002
1.741479e+003;3.976444e-002
1.743407e+003;3.846243e-002
1.745336e+003;3.726293e-002
1.747265e+003;3.606875e-002
1.749193e+003;3.491806e-002
1.751122e+003;3.409722e-002
1.753050e+003;3.328001e-002
1.754979e+003;3.222595e-002
1.756907e+003;3.115277e-002
1.758836e+003;3.032298e-002
1.760764e+003;2.965918e-002
1.762693e+003;2.928603e-002
1.764621e+003;2.894288e-002
1.766550e+003;2.842372e-002
1.768479e+003;2.796730e-002
1.770407e+003;2.764104e-002
1.772336e+003;2.719882e-002
1.774264e+003;2.667342e-002
1.776193e+003;2.633462e-002
1.778121e+003;2.586790e-002
1.780050e+003;2.548531e-002
1.781978e+003;2.533681e-002
1.783907e+003;2.505229e-002
1.785835e+003;2.478725e-002
1.787764e+003;2.443133e-002
1.789693e+003;2.389380e-002
1.791621e+003;2.358101e-002
1.793550e+003;2.342498e-002
1.795478e+003;2.330144e-002
1.797407e+003;2.309264e-002
1.799335e+003;2.265722e-002
1.801264e+003;2.223817e-002
1.803192e+003;2.198000e-002
1.805121e+003;2.188127e-002
1.807049e+003;2.203221e-002
1.808978e+003;2.193619e-002
1.810907e+003;2.159715e-002
1.812835e+003;2.125825e-002
1.814764e+003;2.087030e-002
1.816692e+003;2.060790e-002
1.818621e+003;2.048795e-002
1.820549e+003;2.033660e-002
1.822478e+003;2.017604e-002
1.824406e+003;1.997949e-002
1.826335e+003;1.975300e-002
1.828264e+003;1.949779e-002
1.830192e+003;1.938770e-002
1.832121e+003;1.935288e-002
1.834049e+003;1.918036e-002
1.835978e+003;1.901825e-002
1.837906e+003;1.891645e-002
1.839835e+003;1.872334e-002
1.841763e+003;1.869359e-002
1.843692e+003;1.868069e-002
1.845620e+003;1.851227e-002
1.847549e+003;1.820509e-002
1.849478e+003;1.801716e-002
1.851406e+003;1.806960e-002
1.853335e+003;1.817627e-002
1.855263e+003;1.812107e-002
1.857192e+003;1.796819e-002
1.859120e+003;1.788366e-002
1.861049e+003;1.782317e-002
1.862977e+003;1.775697e-002
1.864906e+003;1.768870e-002
1.866834e+003;1.772877e-002
1.868763e+003;1.764615e-002
1.870692e+003;1.745422e-002
1.872620e+003;1.752746e-002
1.874549e+003;1.773602e-002
1.876477e+003;1.763372e-002
1.878406e+003;1.740317e-002
1.880334e+003;1.752252e-002
1.882263e+003;1.741676e-002
1.884191e+003;1.720670e-002
1.886120e+003;1.721960e-002
1.888048e+003;1.720415e-002
1.889977e+003;1.710523e-002
1.891906e+003;1.711908e-002
1.893834e+003;1.704147e-002
1.895763e+003;1.700542e-002
1.897691e+003;1.710436e-002
1.899620e+003;1.720825e-002
1.901548e+003;1.730058e-002
1.903477e+003;1.723276e-002
1.905405e+003;1.708975e-002
1.907334e+003;1.713545e-002
1.909262e+003;1.707352e-002
1.911191e+003;1.695016e-002
1.913120e+003;1.688643e-002
1.915048e+003;1.683820e-002
1.916977e+003;1.687254e-002
1.918905e+003;1.682188e-002
1.920834e+003;1.666206e-002
1.922762e+003;1.659912e-002
1.924691e+003;1.669945e-002
1.926619e+003;1.671298e-002
1.928548e+003;1.671047e-002
1.930477e+003;1.680555e-002
1.932405e+003;1.674070e-002
1.934334e+003;1.668922e-002
1.936262e+003;1.668495e-002
1.938191e+003;1.667142e-002
1.940119e+003;1.671250e-002
1.942048e+003;1.657658e-002
1.943976e+003;1.644180e-002
1.945905e+003;1.658098e-002
1.947833e+003;1.669050e-002
1.949762e+003;1.677793e-002
1.951691e+003;1.694578e-002
1.953619e+003;1.706328e-002
1.955548e+003;1.689049e-002
1.957476e+003;1.674415e-002
1.959405e+003;1.680386e-002
1.961333e+003;1.688629e-002
1.963262e+003;1.698069e-002
1.965190e+003;1.708861e-002
1.967119e+003;1.700553e-002
1.969047e+003;1.692015e-002
1.970976e+003;1.689314e-002
1.972905e+003;1.691295e-002
1.974833e+003;1.708899e-002
1.976762e+003;1.713094e-002
1.978690e+003;1.718560e-002
1.980619e+003;1.741256e-002
1.982547e+003;1.746181e-002
1.984476e+003;1.721849e-002
1.986404e+003;1.709923e-002
1.988333e+003;1.685849e-002
1.990261e+003;1.673877e-002
1.992190e+003;1.685474e-002
1.994119e+003;1.688660e-002
1.996047e+003;1.696821e-002
1.997976e+003;1.698013e-002
1.999904e+003;1.693297e-002
2.001833e+003;1.687613e-002
2.003761e+003;1.677115e-002
2.005690e+003;1.680441e-002
2.007618e+003;1.696480e-002
2.009547e+003;1.700756e-002
2.011476e+003;1.694193e-002
2.013404e+003;1.671939e-002
2.015333e+003;1.676481e-002
2.017261e+003;1.700084e-002
2.019190e+003;1.699075e-002
2.021118e+003;1.695819e-002
2.023047e+003;1.701452e-002
2.024975e+003;1.697779e-002
2.026904e+003;1.707438e-002
2.028833e+003;1.717378e-002
2.030761e+003;1.722601e-002
2.032690e+003;1.736441e-002
2.034618e+003;1.742249e-002
2.036547e+003;1.732410e-002
2.038475e+003;1.725100e-002
2.040404e+003;1.712036e-002
2.042332e+003;1.704688e-002
2.044261e+003;1.706008e-002
2.046189e+003;1.699612e-002
2.048118e+003;1.694954e-002
2.050047e+003;1.706956e-002
2.051975e+003;1.688160e-002
2.053904e+003;1.680242e-002
2.055832e+003;1.689583e-002
2.057761e+003;1.701759e-002
2.059689e+003;1.702868e-002
2.061618e+003;1.698875e-002
2.063546e+003;1.705291e-002
2.065475e+003;1.707976e-002
2.067404e+003;1.722328e-002
2.069332e+003;1.729120e-002
2.071260e+003;1.722008e-002
2.073189e+003;1.703024e-002
2.075118e+003;1.697845e-002
2.077046e+003;1.700250e-002
2.078975e+003;1.705091e-002
2.080903e+003;1.719998e-002
2.082832e+003;1.736272e-002
2.084760e+003;1.730976e-002
2.086689e+003;1.734737e-002
2.088617e+003;1.719957e-002
2.090546e+003;1.700150e-002
2.092475e+003;1.712318e-002
2.094403e+003;1.732558e-002
2.096332e+003;1.710440e-002
2.098260e+003;1.697824e-002
2.100189e+003;1.725276e-002
2.102117e+003;1.725211e-002
2.104046e+003;1.705794e-002
2.105974e+003;1.694985e-002
2.107903e+003;1.688729e-002
2.109832e+003;1.693476e-002
2.111760e+003;1.701735e-002
2.113688e+003;1.694685e-002
2.115617e+003;1.682439e-002
2.117546e+003;1.676677e-002
2.119474e+003;1.664832e-002
2.121403e+003;1.658119e-002
2.123331e+003;1.678699e-002
2.125260e+003;1.692935e-002
2.127188e+003;1.701587e-002
2.129117e+003;1.702806e-002
2.131045e+003;1.701835e-002
2.132974e+003;1.696601e-002
2.134903e+003;1.678719e-002
2.136831e+003;1.690231e-002
2.138760e+003;1.705046e-002
2.140688e+003;1.685146e-002
2.142617e+003;1.678151e-002
2.144545e+003;1.689710e-002
2.146474e+003;1.691251e-002
2.148402e+003;1.685725e-002
2.150331e+003;1.692029e-002
2.152260e+003;1.707404e-002
2.154188e+003;1.718178e-002
2.156117e+003;1.711905e-002
2.158045e+003;1.689077e-002
2.159974e+003;1.696208e-002
2.161902e+003;1.706215e-002
2.163831e+003;1.717537e-002
2.165759e+003;1.703913e-002
2.167688e+003;1.684984e-002
2.169616e+003;1.693717e-002
2.171545e+003;1.693338e-002
2.173474e+003;1.686882e-002
2.175402e+003;1.671508e-002
2.177331e+003;1.657293e-002
2.179259e+003;1.660091e-002
2.181188e+003;1.653634e-002
2.183116e+003;1.653348e-002
2.185045e+003;1.660746e-002
2.186973e+003;1.660749e-002
2.188902e+003;1.653782e-002
2.190831e+003;1.650206e-002
2.192759e+003;1.639995e-002
2.194688e+003;1.646661e-002
2.196616e+003;1.645043e-002
2.198545e+003;1.625518e-002
2.200473e+003;1.609805e-002
2.202402e+003;1.609791e-002
2.204330e+003;1.606745e-002
2.206259e+003;1.594733e-002
2.208188e+003;1.584989e-002
2.210116e+003;1.595355e-002
2.212044e+003;1.591530e-002
2.213973e+003;1.604551e-002
2.215902e+003;1.626275e-002
2.217830e+003;1.623798e-002
2.219759e+003;1.628239e-002
2.221687e+003;1.618711e-002
2.223616e+003;1.596245e-002
2.225544e+003;1.606002e-002
2.227473e+003;1.625391e-002
2.229401e+003;1.628312e-002
2.231330e+003;1.628962e-002
2.233259e+003;1.623616e-002
2.235187e+003;1.614065e-002
2.237116e+003;1.604905e-002
2.239044e+003;1.602378e-002
2.240973e+003;1.600016e-002
2.242901e+003;1.589089e-002
2.244830e+003;1.588337e-002
2.246758e+003;1.589687e-002
2.248687e+003;1.599738e-002
2.250615e+003;1.598641e-002
2.252544e+003;1.578536e-002
2.254473e+003;1.584371e-002
2.256401e+003;1.602278e-002
2.258330e+003;1.597758e-002
2.260258e+003;1.594939e-002
2.262187e+003;1.593963e-002
2.264115e+003;1.578271e-002
2.266044e+003;1.562396e-002
2.267972e+003;1.574980e-002
2.269901e+003;1.582195e-002
2.271830e+003;1.575615e-002
2.273758e+003;1.586786e-002
2.275687e+003;1.609595e-002
2.277615e+003;1.615204e-002
2.279544e+003;1.600195e-002
2.281472e+003;1.584079e-002
2.283401e+003;1.590674e-002
2.285329e+003;1.610699e-002
2.287258e+003;1.602808e-002
2.289187e+003;1.587127e-002
2.291115e+003;1.581907e-002
2.293043e+003;1.579532e-002
2.294972e+003;1.580048e-002
2.296901e+003;1.577343e-002
2.298829e+003;1.583034e-002
2.300758e+003;1.584481e-002
2.302686e+003;1.594688e-002
2.304615e+003;1.600811e-002
2.306543e+003;1.598665e-002
2.308472e+003;1.592042e-002
2.310400e+003;1.573732e-002
2.312329e+003;1.583219e-002
2.314258e+003;1.594943e-002
2.316186e+003;1.592303e-002
2.318115e+003;1.584209e-002
2.320043e+003;1.581566e-002
2.321972e+003;1.581305e-002
2.323900e+003;1.580745e-002
2.325829e+003;1.582346e-002
2.327757e+003;1.583285e-002
2.329686e+003;1.585683e-002
2.331615e+003;1.598865e-002
2.333543e+003;1.611930e-002
2.335472e+003;1.610362e-002
2.337400e+003;1.596716e-002
2.339329e+003;1.593554e-002
2.341257e+003;1.604537e-002
2.343186e+003;1.613601e-002
2.345114e+003;1.609537e-002
2.347043e+003;1.602447e-002
2.348971e+003;1.600302e-002
2.350900e+003;1.615537e-002
2.352829e+003;1.643836e-002
2.354757e+003;1.658893e-002
2.356686e+003;1.648089e-002
2.358614e+003;1.649301e-002
2.360543e+003;1.646854e-002
2.362471e+003;1.633472e-002
2.364400e+003;1.634253e-002
2.366328e+003;1.641086e-002
2.368257e+003;1.654663e-002
2.370186e+003;1.646871e-002
2.372114e+003;1.621122e-002
2.374042e+003;1.651713e-002
2.375971e+003;1.667552e-002
2.377900e+003;1.644923e-002
2.379828e+003;1.649266e-002
2.381757e+003;1.672700e-002
2.383685e+003;1.678637e-002
2.385614e+003;1.657864e-002
2.387542e+003;1.654281e-002
2.389471e+003;1.664426e-002
2.391399e+003;1.671236e-002
2.393328e+003;1.687565e-002
2.395257e+003;1.695250e-002
2.397185e+003;1.693331e-002
2.399114e+003;1.694641e-002
2.401042e+003;1.693765e-002
2.402971e+003;1.684213e-002
2.404899e+003;1.686541e-002
2.406828e+003;1.715072e-002
2.408756e+003;1.734358e-002
2.410685e+003;1.732306e-002
2.412614e+003;1.736020e-002
2.414542e+003;1.773270e-002
2.416471e+003;1.797855e-002
2.418399e+003;1.803025e-002
2.420328e+003;1.817779e-002
2.422256e+003;1.812207e-002
2.424185e+003;1.818325e-002
2.426113e+003;1.841363e-002
2.428042e+003;1.847866e-002
2.429970e+003;1.829200e-002
2.431899e+003;1.818881e-002
2.433828e+003;1.840713e-002
2.435756e+003;1.873199e-002
2.437685e+003;1.869504e-002
2.439613e+003;1.859778e-002
2.441542e+003;1.862113e-002
2.443470e+003;1.871365e-002
2.445399e+003;1.870251e-002
2.447327e+003;1.865751e-002
2.449256e+003;1.885613e-002
2.451185e+003;1.902299e-002
2.453113e+003;1.904172e-002
2.455042e+003;1.909607e-002
2.456970e+003;1.894525e-002
2.458899e+003;1.881693e-002
2.460827e+003;1.876046e-002
2.462756e+003;1.877821e-002
2.464684e+003;1.870708e-002
2.466613e+003;1.889569e-002
2.468542e+003;1.928505e-002
2.470470e+003;1.920158e-002
2.472398e+003;1.903694e-002
2.474327e+003;1.919743e-002
2.476256e+003;1.941112e-002
2.478184e+003;1.983682e-002
2.480113e+003;1.987070e-002
2.482041e+003;1.966909e-002
2.483970e+003;1.960558e-002
2.485898e+003;1.972696e-002
2.487827e+003;1.987022e-002
2.489755e+003;1.997252e-002
2.491684e+003;1.992610e-002
2.493613e+003;1.983751e-002
2.495541e+003;1.994591e-002
2.497470e+003;2.002629e-002
2.499398e+003;1.993151e-002
2.501327e+003;1.980904e-002
2.503255e+003;1.991257e-002
2.505184e+003;2.006675e-002
2.507112e+003;2.010236e-002
2.509041e+003;2.042818e-002
2.510969e+003;2.068240e-002
2.512898e+003;2.049969e-002
2.514827e+003;2.029633e-002
2.516755e+003;2.040268e-002
2.518684e+003;2.046544e-002
2.520612e+003;2.074544e-002
2.522541e+003;2.091679e-002
2.524469e+003;2.077735e-002
2.526398e+003;2.066253e-002
2.528326e+003;2.068251e-002
2.530255e+003;2.085980e-002
2.532184e+003;2.098852e-002
2.534112e+003;2.100219e-002
2.536041e+003;2.106169e-002
2.537969e+003;2.110061e-002
2.539898e+003;2.112761e-002
2.541826e+003;2.100573e-002
2.543755e+003;2.102740e-002
2.545683e+003;2.117930e-002
2.547612e+003;2.131866e-002
2.549541e+003;2.153246e-002
2.551469e+003;2.184294e-002
2.553397e+003;2.219608e-002
2.555326e+003;2.224085e-002
2.557255e+003;2.197331e-002
2.559183e+003;2.181824e-002
2.561112e+003;2.186015e-002
2.563040e+003;2.188005e-002
2.564969e+003;2.175197e-002
2.566897e+003;2.201437e-002
2.568826e+003;2.243160e-002
2.570754e+003;2.252180e-002
2.572683e+003;2.275180e-002
2.574612e+003;2.296386e-002
2.576540e+003;2.308181e-002
2.578469e+003;2.315146e-002
2.580397e+003;2.305686e-002
2.582326e+003;2.305249e-002
2.584254e+003;2.325422e-002
2.586183e+003;2.355117e-002
2.588111e+003;2.387059e-002
2.590040e+003;2.422458e-002
2.591969e+003;2.426809e-002
2.593897e+003;2.412887e-002
2.595826e+003;2.409511e-002
2.597754e+003;2.411181e-002
2.599683e+003;2.434480e-002
2.601611e+003;2.469566e-002
2.603540e+003;2.482731e-002
2.605468e+003;2.498662e-002
2.607397e+003;2.524669e-002
2.609325e+003;2.524363e-002
2.611254e+003;2.515350e-002
2.613183e+003;2.523275e-002
2.615111e+003;2.555576e-002
2.617040e+003;2.572325e-002
2.618968e+003;2.571249e-002
2.620897e+003;2.585626e-002
2.622825e+003;2.597665e-002
2.624754e+003;2.603181e-002
2.626682e+003;2.595400e-002
2.628611e+003;2.578513e-002
2.630540e+003;2.581603e-002
2.632468e+003;2.602042e-002
2.634396e+003;2.609039e-002
2.636325e+003;2.609346e-002
2.638254e+003;2.617805e-002
2.640182e+003;2.612878e-002
2.642111e+003;2.600736e-002
2.644039e+003;2.596016e-002
2.645968e+003;2.620173e-002
2.647896e+003;2.651684e-002
2.649825e+003;2.654558e-002
2.651753e+003;2.645856e-002
2.653682e+003;2.637957e-002
2.655611e+003;2.641584e-002
2.657539e+003;2.652325e-002
2.659468e+003;2.679513e-002
2.661396e+003;2.694417e-002
2.663325e+003;2.710993e-002
2.665253e+003;2.739446e-002
2.667182e+003;2.730804e-002
2.669110e+003;2.718643e-002
2.671039e+003;2.738779e-002
2.672968e+003;2.757823e-002
2.674896e+003;2.769758e-002
2.676825e+003;2.792387e-002
2.678753e+003;2.805018e-002
2.680682e+003;2.809051e-002
2.682610e+003;2.811716e-002
2.684539e+003;2.838056e-002
2.686467e+003;2.878356e-002
2.688396e+003;2.891504e-002
2.690324e+003;2.890300e-002
2.692253e+003;2.887265e-002
2.694182e+003;2.904131e-002
2.696110e+003;2.934243e-002
2.698039e+003;2.944379e-002
2.699967e+003;2.947464e-002
2.701896e+003;2.967124e-002
2.703824e+003;3.005517e-002
2.705753e+003;3.013684e-002
2.707681e+003;3.014956e-002
2.709610e+003;3.045592e-002
2.711539e+003;3.075990e-002
2.713467e+003;3.104997e-002
2.715396e+003;3.114376e-002
2.717324e+003;3.107243e-002
2.719253e+003;3.127250e-002
2.721181e+003;3.162402e-002
2.723110e+003;3.182327e-002
2.725038e+003;3.199922e-002
2.726967e+003;3.214320e-002
2.728896e+003;3.230771e-002
2.730824e+003;3.273145e-002
2.732752e+003;3.285591e-002
2.734681e+003;3.302541e-002
2.736610e+003;3.318754e-002
2.738538e+003;3.300986e-002
2.740467e+003;3.326820e-002
2.742395e+003;3.379595e-002
2.744324e+003;3.409256e-002
2.746252e+003;3.427818e-002
2.748181e+003;3.442309e-002
2.750109e+003;3.442998e-002
2.752038e+003;3.467068e-002
2.753967e+003;3.516392e-002
2.755895e+003;3.524229e-002
2.757824e+003;3.537433e-002
2.759752e+003;3.569019e-002
2.761681e+003;3.570440e-002
2.763609e+003;3.583162e-002
2.765538e+003;3.618700e-002
2.767466e+003;3.628068e-002
2.769395e+003;3.641798e-002
2.771323e+003;3.662204e-002
2.773252e+003;3.685278e-002
2.775181e+003;3.713226e-002
2.777109e+003;3.724231e-002
2.779038e+003;3.753609e-002
2.780966e+003;3.781507e-002
2.782895e+003;3.815883e-002
2.784823e+003;3.843390e-002
2.786752e+003;3.850710e-002
2.788680e+003;3.880913e-002
2.790609e+003;3.899975e-002
2.792538e+003;3.912163e-002
2.794466e+003;3.955581e-002
2.796395e+003;3.995835e-002
2.798323e+003;4.022115e-002
2.800252e+003;4.053750e-002
2.802180e+003;4.060324e-002
2.804109e+003;4.070712e-002
2.806037e+003;4.111207e-002
2.807966e+003;4.141985e-002
2.809895e+003;4.138913e-002
2.811823e+003;4.151277e-002
2.813751e+003;4.198745e-002
2.815680e+003;4.214150e-002
2.817609e+003;4.226127e-002
2.819537e+003;4.284749e-002
2.821466e+003;4.352760e-002
2.823394e+003;4.379590e-002
2.825323e+003;4.376889e-002
2.827251e+003;4.392284e-002
2.829180e+003;4.429484e-002
2.831108e+003;4.459997e-002
2.833037e+003;4.520601e-002
2.834966e+003;4.597328e-002
2.836894e+003;4.672225e-002
2.838823e+003;4.733381e-002
2.840751e+003;4.789925e-002
2.842680e+003;4.891231e-002
2.844608e+003;4.998176e-002
2.846537e+003;5.115716e-002
2.848465e+003;5.273737e-002
2.850394e+003;5.434671e-002
2.852323e+003;5.550795e-002
2.854251e+003;5.613334e-002
2.856180e+003;5.653898e-002
2.858108e+003;5.698406e-002
2.860037e+003;5.732758e-002
2.861965e+003;5.763436e-002
2.863894e+003;5.792886e-002
2.865822e+003;5.839432e-002
2.867751e+003;5.892175e-002
2.869679e+003;5.962635e-002
2.871608e+003;6.043143e-002
2.873536e+003;6.099676e-002
2.875465e+003;6.134770e-002
2.877394e+003;6.155451e-002
2.879322e+003;6.166784e-002
2.881251e+003;6.193491e-002
2.883179e+003;6.216880e-002
2.885108e+003;6.247859e-002
2.887036e+003;6.282634e-002
2.888965e+003;6.313699e-002
2.890893e+003;6.360178e-002
2.892822e+003;6.395690e-002
2.894750e+003;6.453200e-002
2.896679e+003;6.538952e-002
2.898608e+003;6.600228e-002
2.900536e+003;6.648323e-002
2.902465e+003;6.673601e-002
2.904393e+003;6.717550e-002
2.906322e+003;6.773973e-002
2.908250e+003;6.836528e-002
2.910179e+003;6.896892e-002
2.912107e+003;6.965781e-002
2.914036e+003;7.056018e-002
2.915965e+003;7.147607e-002
2.917893e+003;7.248800e-002
2.919822e+003;7.350168e-002
2.921750e+003;7.440984e-002
2.923679e+003;7.525610e-002
2.925607e+003;7.594380e-002
2.927536e+003;7.628870e-002
2.929464e+003;7.696082e-002
2.931393e+003;7.734788e-002
2.933322e+003;7.695837e-002
2.935250e+003;7.682963e-002
2.937178e+003;7.674763e-002
2.939107e+003;7.603241e-002
2.941036e+003;7.522643e-002
2.942964e+003;7.459066e-002
2.944893e+003;7.380899e-002
2.946821e+003;7.265663e-002
2.948750e+003;7.154182e-002
2.950678e+003;7.079010e-002
2.952607e+003;7.023342e-002
2.954535e+003;6.950816e-002
2.956464e+003;6.892084e-002
2.958393e+003;6.862066e-002
2.960321e+003;6.838905e-002
2.962250e+003;6.816164e-002
2.964178e+003;6.784640e-002
2.966107e+003;6.757924e-002
2.968035e+003;6.749404e-002
2.969964e+003;6.741083e-002
2.971892e+003;6.742836e-002
2.973821e+003;6.721023e-002
2.975750e+003;6.670915e-002
2.977678e+003;6.639802e-002
2.979607e+003;6.599966e-002
2.981535e+003;6.554497e-002
2.983464e+003;6.531242e-002
2.985392e+003;6.531392e-002
2.987321e+003;6.474983e-002
2.989249e+003;6.382520e-002
2.991178e+003;6.304105e-002
2.993106e+003;6.240931e-002
2.995035e+003;6.165352e-002
2.996964e+003;6.109324e-002
2.998892e+003;6.082441e-002
3.000821e+003;6.031690e-002
3.002749e+003;5.965969e-002
3.004678e+003;5.893887e-002
3.006606e+003;5.895769e-002
3.008535e+003;5.919340e-002
3.010463e+003;5.917681e-002
3.012392e+003;5.893652e-002
3.014321e+003;5.899857e-002
3.016249e+003;5.925902e-002
3.018177e+003;5.940994e-002
3.020106e+003;5.971450e-002
3.022035e+003;5.972271e-002
3.023963e+003;5.974541e-002
3.025892e+003;6.036399e-002
3.027820e+003;6.082285e-002
3.029749e+003;6.146312e-002
3.031677e+003;6.207414e-002
3.033606e+003;6.219020e-002
3.035534e+003;6.253274e-002
3.037463e+003;6.296325e-002
3.039392e+003;6.339990e-002
3.041320e+003;6.419177e-002
3.043249e+003;6.503680e-002
3.045177e+003;6.554671e-002
3.047106e+003;6.571543e-002
3.049034e+003;6.618021e-002
3.050963e+003;6.691099e-002
3.052891e+003;6.756995e-002
3.054820e+003;6.835011e-002
3.056749e+003;6.879858e-002
3.058677e+003;6.902279e-002
3.060606e+003;6.977670e-002
3.062534e+003;7.075680e-002
3.064463e+003;7.089690e-002
3.066391e+003;7.121974e-002
3.068320e+003;7.175182e-002
3.070248e+003;7.190260e-002
3.072177e+003;7.182976e-002
3.074105e+003;7.191081e-002
3.076034e+003;7.226931e-002
3.077963e+003;7.234360e-002
3.079891e+003;7.206196e-002
3.081820e+003;7.211727e-002
3.083748e+003;7.230826e-002
3.085677e+003;7.211324e-002
3.087605e+003;7.193446e-002
3.089534e+003;7.196571e-002
3.091462e+003;7.173911e-002
3.093391e+003;7.147916e-002
3.095320e+003;7.166560e-002
3.097248e+003;7.184907e-002
3.099177e+003;7.135968e-002
3.101105e+003;7.087494e-002
3.103034e+003;7.075364e-002
3.104962e+003;7.030623e-002
3.106891e+003;6.986484e-002
3.108819e+003;6.986982e-002
3.110748e+003;6.976538e-002
3.112677e+003;6.969605e-002
3.114605e+003;6.986733e-002
3.116533e+003;7.002162e-002
3.118462e+003;6.995366e-002
3.120391e+003;6.962020e-002
3.122319e+003;6.958877e-002
3.124248e+003;6.987784e-002
3.126176e+003;7.002883e-002
3.128105e+003;7.015674e-002
3.130033e+003;7.043558e-002
3.131962e+003;7.070993e-002
3.133890e+003;7.073711e-002
3.135819e+003;7.093138e-002
3.137748e+003;7.116138e-002
3.139676e+003;7.165728e-002
3.141605e+003;7.213753e-002
3.143533e+003;7.247602e-002
3.145462e+003;7.280953e-002
3.147390e+003;7.337647e-002
3.149319e+003;7.397117e-002
3.151247e+003;7.456698e-002
3.153176e+003;7.567346e-002
3.155104e+003;7.650635e-002
3.157033e+003;7.667851e-002
3.158962e+003;7.706603e-002
3.160890e+003;7.793549e-002
3.162819e+003;7.865778e-002
3.164747e+003;7.948515e-002
3.166676e+003;8.063338e-002
3.168604e+003;8.141013e-002
3.170533e+003;8.209840e-002
3.172461e+003;8.283299e-002
3.174390e+003;8.378460e-002
3.176319e+003;8.477020e-002
3.178247e+003;8.561024e-002
3.180176e+003;8.666580e-002
3.182104e+003;8.770727e-002
3.184033e+003;8.878902e-002
3.185961e+003;8.962771e-002
3.187890e+003;9.061605e-002
3.189818e+003;9.168776e-002
3.191747e+003;9.254552e-002
3.193676e+003;9.343502e-002
3.195604e+003;9.455330e-002
3.197532e+003;9.568731e-002
3.199461e+003;9.660686e-002
3.201390e+003;9.732749e-002
3.203318e+003;9.845959e-002
3.205247e+003;9.953053e-002
3.207175e+003;1.002770e-001
3.209104e+003;1.010436e-001
3.211032e+003;1.021729e-001
3.212961e+003;1.039440e-001
3.214889e+003;1.054336e-001
3.216818e+003;1.064470e-001
3.218747e+003;1.071973e-001
3.220675e+003;1.077806e-001
3.222604e+003;1.085776e-001
3.224532e+003;1.095120e-001
3.226461e+003;1.107090e-001
3.228389e+003;1.118724e-001
3.230318e+003;1.130217e-001
3.232246e+003;1.139956e-001
3.234175e+003;1.149712e-001
3.236104e+003;1.158203e-001
3.238032e+003;1.168852e-001
3.239961e+003;1.185576e-001
3.241889e+003;1.199555e-001
3.243818e+003;1.214798e-001
3.245746e+003;1.227923e-001
3.247675e+003;1.237549e-001
3.249603e+003;1.249527e-001
3.251532e+003;1.261779e-001
3.253460e+003;1.274274e-001
3.255389e+003;1.284772e-001
3.257318e+003;1.295720e-001
3.259246e+003;1.316192e-001
3.261175e+003;1.333794e-001
3.263103e+003;1.345626e-001
3.265032e+003;1.359497e-001
3.266960e+003;1.374257e-001
3.268889e+003;1.389512e-001
3.270817e+003;1.399019e-001
3.272746e+003;1.407156e-001
3.274675e+003;1.416764e-001
3.276603e+003;1.426387e-001
3.278531e+003;1.431261e-001
3.280460e+003;1.432774e-001
3.282389e+003;1.434703e-001
3.284317e+003;1.434149e-001
3.286246e+003;1.432099e-001
3.288174e+003;1.430506e-001
3.290103e+003;1.431825e-001
3.292031e+003;1.428879e-001
3.293960e+003;1.420620e-001
3.295888e+003;1.414453e-001
3.297817e+003;1.407898e-001
3.299746e+003;1.397140e-001
3.301674e+003;1.387263e-001
3.303603e+003;1.378836e-001
3.305531e+003;1.369866e-001
3.307460e+003;1.357150e-001
3.309388e+003;1.345735e-001
3.311317e+003;1.336391e-001
3.313245e+003;1.324675e-001
3.315174e+003;1.313363e-001
3.317103e+003;1.304146e-001
3.319031e+003;1.291564e-001
3.320960e+003;1.274400e-001
3.322888e+003;1.261231e-001
3.324817e+003;1.253609e-001
3.326745e+003;1.245109e-001
3.328674e+003;1.230768e-001
3.330602e+003;1.217164e-001
3.332531e+003;1.206300e-001
3.334459e+003;1.191459e-001
3.336388e+003;1.178698e-001
3.338317e+003;1.168888e-001
3.340245e+003;1.154890e-001
3.342174e+003;1.139841e-001
3.344102e+003;1.126840e-001
3.346031e+003;1.115346e-001
3.347959e+003;1.104134e-001
3.349888e+003;1.095274e-001
3.351816e+003;1.087371e-001
3.353745e+003;1.077216e-001
3.355674e+003;1.067779e-001
3.357602e+003;1.057298e-001
3.359531e+003;1.050833e-001
3.361459e+003;1.045359e-001
3.363388e+003;1.035696e-001
3.365316e+003;1.023455e-001
3.367245e+003;1.011787e-001
3.369173e+003;1.003054e-001
3.371102e+003;9.945352e-002
3.373031e+003;9.879553e-002
3.374959e+003;9.790949e-002
3.376887e+003;9.672508e-002
3.378816e+003;9.597076e-002
3.380745e+003;9.580276e-002
3.382673e+003;9.522515e-002
3.384602e+003;9.437834e-002
3.386530e+003;9.377400e-002
3.388459e+003;9.337611e-002
3.390387e+003;9.241315e-002
3.392316e+003;9.120110e-002
3.394244e+003;9.052683e-002
3.396173e+003;9.043485e-002
3.398102e+003;8.992977e-002
3.400030e+003;8.889435e-002
3.401959e+003;8.808236e-002
3.403887e+003;8.759964e-002
3.405816e+003;8.704424e-002
3.407744e+003;8.646178e-002
3.409673e+003;8.566052e-002
3.411601e+003;8.447810e-002
3.413530e+003;8.350798e-002
3.415458e+003;8.260141e-002
3.417387e+003;8.183117e-002
3.419316e+003;8.077646e-002
3.421244e+003;7.952399e-002
3.423173e+003;7.907270e-002
3.425101e+003;7.890315e-002
3.427030e+003;7.830011e-002
3.428958e+003;7.713195e-002
3.430887e+003;7.603868e-002
3.432815e+003;7.535020e-002
3.434744e+003;7.471791e-002
3.436673e+003;7.365833e-002
3.438601e+003;7.290561e-002
3.440530e+003;7.232864e-002
3.442458e+003;7.157975e-002
3.444387e+003;7.119527e-002
3.446315e+003;7.063768e-002
3.448244e+003;6.989831e-002
3.450172e+003;6.925287e-002
3.452101e+003;6.896698e-002
3.454030e+003;6.869389e-002
3.455958e+003;6.827728e-002
3.457886e+003;6.768157e-002
3.459815e+003;6.698737e-002
3.461744e+003;6.651397e-002
3.463672e+003;6.555622e-002
3.465601e+003;6.450870e-002
3.467529e+003;6.448191e-002
3.469458e+003;6.481410e-002
3.471386e+003;6.437414e-002
3.473315e+003;6.356334e-002
3.475243e+003;6.305461e-002
3.477172e+003;6.265245e-002
3.479101e+003;6.187404e-002
3.481029e+003;6.126674e-002
3.482958e+003;6.105614e-002
3.484886e+003;6.048859e-002
3.486815e+003;5.979690e-002
3.488743e+003;5.934258e-002
3.490672e+003;5.885391e-002
3.492600e+003;5.831417e-002
3.494529e+003;5.781018e-002
3.496458e+003;5.740846e-002
3.498386e+003;5.722101e-002
3.500315e+003;5.724788e-002
3.502243e+003;5.671799e-002
3.504172e+003;5.588316e-002
3.506100e+003;5.527687e-002
3.508029e+003;5.511516e-002
3.509957e+003;5.510297e-002
3.511886e+003;5.439028e-002
3.513814e+003;5.356396e-002
3.515743e+003;5.301843e-002
3.517672e+003;5.274332e-002
3.519600e+003;5.220944e-002
3.521529e+003;5.150639e-002
3.523457e+003;5.100212e-002
3.525386e+003;5.055359e-002
3.527314e+003;5.025683e-002
3.529243e+003;4.972792e-002
3.531171e+003;4.890371e-002
3.533100e+003;4.825201e-002
3.535029e+003;4.759342e-002
3.536957e+003;4.692379e-002
3.538885e+003;4.625018e-002
3.540814e+003;4.576784e-002
3.542743e+003;4.513288e-002
3.544671e+003;4.461073e-002
3.546600e+003;4.399466e-002
3.548528e+003;4.336585e-002
3.550457e+003;4.271334e-002
3.552385e+003;4.215822e-002
3.554314e+003;4.195184e-002
3.556242e+003;4.142740e-002
3.558171e+003;4.061324e-002
3.560100e+003;3.994974e-002
3.562028e+003;3.932980e-002
3.563957e+003;3.904053e-002
3.565885e+003;3.840292e-002
3.567814e+003;3.755076e-002
3.569742e+003;3.698593e-002
3.571671e+003;3.656296e-002
3.573599e+003;3.580265e-002
3.575528e+003;3.535233e-002
3.577457e+003;3.499566e-002
3.579385e+003;3.402995e-002
3.581314e+003;3.338873e-002
3.583242e+003;3.322231e-002
3.585171e+003;3.307089e-002
3.587099e+003;3.258106e-002
3.589028e+003;3.188218e-002
3.590956e+003;3.127278e-002
3.592885e+003;3.069994e-002
3.594813e+003;3.001696e-002
3.596742e+003;2.929149e-002
3.598671e+003;2.888072e-002
3.600599e+003;2.865846e-002
3.602528e+003;2.805668e-002
3.604456e+003;2.752051e-002
3.606385e+003;2.678026e-002
3.608313e+003;2.598358e-002
3.610242e+003;2.543457e-002
3.612170e+003;2.464702e-002
3.614099e+003;2.410369e-002
3.616028e+003;2.370434e-002
3.617956e+003;2.304795e-002
3.619885e+003;2.277366e-002
3.621813e+003;2.252005e-002
3.623742e+003;2.209740e-002
3.625670e+003;2.126848e-002
3.627599e+003;2.039529e-002
3.629527e+003;1.988711e-002
3.631456e+003;1.942969e-002
3.633385e+003;1.882623e-002
3.635313e+003;1.842355e-002
3.637241e+003;1.788674e-002
3.639170e+003;1.709971e-002
3.641099e+003;1.668530e-002
3.643027e+003;1.641513e-002
3.644956e+003;1.619221e-002
3.646884e+003;1.597187e-002
3.648813e+003;1.540993e-002
3.650741e+003;1.437656e-002
3.652670e+003;1.399300e-002
3.654598e+003;1.398250e-002
3.656527e+003;1.341389e-002
3.658456e+003;1.281770e-002
3.660384e+003;1.233729e-002
3.662313e+003;1.186011e-002
3.664241e+003;1.152936e-002
3.666170e+003;1.101095e-002
3.668098e+003;1.064084e-002
3.670027e+003;1.036891e-002
3.671955e+003;1.008839e-002
3.673884e+003;9.738282e-003
3.675813e+003;9.467892e-003
3.677741e+003;9.282424e-003
3.679669e+003;9.023109e-003
3.681598e+003;8.635054e-003
3.683527e+003;8.431933e-003
3.685455e+003;8.448792e-003
3.687384e+003;8.333904e-003
3.689312e+003;8.465414e-003
3.691241e+003;8.451190e-003
3.693169e+003;7.720964e-003
3.695098e+003;7.462041e-003
3.697026e+003;7.667947e-003
3.698955e+003;7.484424e-003
3.700884e+003;7.349201e-003
3.702812e+003;7.254684e-003
3.704741e+003;7.098212e-003
3.706669e+003;6.877125e-003
3.708598e+003;6.583987e-003
3.710526e+003;6.459300e-003
3.712455e+003;6.532083e-003
3.714383e+003;6.675330e-003
3.716312e+003;6.589605e-003
3.718240e+003;6.168023e-003
3.720169e+003;5.928498e-003
3.722098e+003;5.828782e-003
3.724026e+003;5.930211e-003
3.725955e+003;5.925744e-003
3.727883e+003;5.901292e-003
3.729812e+003;5.995078e-003
3.731740e+003;5.815585e-003
3.733669e+003;5.897060e-003
3.735597e+003;6.233060e-003
3.737526e+003;6.027968e-003
3.739455e+003;5.845272e-003
3.741383e+003;6.029076e-003
3.743312e+003;5.656139e-003
3.745240e+003;5.131581e-003
3.747169e+003;5.192405e-003
3.749097e+003;5.525175e-003
3.751026e+003;5.620659e-003
3.752954e+003;5.548633e-003
3.754883e+003;5.646774e-003
3.756812e+003;5.859780e-003
3.758740e+003;5.674367e-003
3.760668e+003;5.539371e-003
3.762597e+003;5.705253e-003
3.764526e+003;5.792852e-003
3.766454e+003;5.978482e-003
3.768383e+003;5.866799e-003
3.770311e+003;5.519638e-003
3.772240e+003;5.295597e-003
3.774168e+003;5.140567e-003
3.776097e+003;5.209406e-003
3.778025e+003;5.270610e-003
3.779954e+003;5.295362e-003
3.781883e+003;5.276009e-003
3.783811e+003;5.226576e-003
3.785740e+003;5.270945e-003
3.787668e+003;5.554003e-003
3.789597e+003;5.849503e-003
3.791525e+003;5.682525e-003
3.793454e+003;5.142679e-003
3.795382e+003;4.940782e-003
3.797311e+003;5.287949e-003
3.799240e+003;5.376001e-003
3.801168e+003;5.148848e-003
3.803097e+003;5.407704e-003
3.805025e+003;5.840268e-003
3.806954e+003;5.483901e-003
3.808882e+003;4.821090e-003
3.810811e+003;4.612812e-003
3.812739e+003;4.815696e-003
3.814668e+003;4.719853e-003
3.816596e+003;4.953350e-003
3.818525e+003;5.301332e-003
3.820454e+003;5.390594e-003
3.822382e+003;5.411293e-003
3.824311e+003;5.485780e-003
3.826239e+003;5.689541e-003
3.828168e+003;5.802690e-003
3.830096e+003;5.964373e-003
3.832025e+003;5.907304e-003
3.833953e+003;5.530176e-003
3.835882e+003;5.028260e-003
3.837811e+003;4.518052e-003
3.839739e+003;4.645130e-003
3.841667e+003;5.295698e-003
3.843596e+003;5.611026e-003
3.845525e+003;5.713545e-003
3.847453e+003;5.716936e-003
3.849382e+003;5.630863e-003
3.851310e+003;5.421660e-003
3.853239e+003;5.124238e-003
3.855167e+003;5.188314e-003
3.857096e+003;5.556587e-003
3.859024e+003;5.645800e-003
3.860953e+003;5.452628e-003
3.862882e+003;5.225067e-003
3.864810e+003;5.140433e-003
3.866739e+003;5.406597e-003
3.868667e+003;5.906397e-003
3.870596e+003;6.091370e-003
3.872524e+003;6.021416e-003
3.874453e+003;5.748227e-003
3.876381e+003;5.747993e-003
3.878310e+003;5.907740e-003
3.880239e+003;5.937668e-003
3.882167e+003;6.019972e-003
3.884096e+003;6.119698e-003
3.886024e+003;6.072453e-003
3.887953e+003;6.223043e-003
3.889881e+003;6.134854e-003
3.891810e+003;6.047623e-003
3.893738e+003;5.721972e-003
3.895667e+003;5.535176e-003
3.897595e+003;5.706327e-003
3.899524e+003;6.053234e-003
3.901453e+003;6.486610e-003
3.903381e+003;6.338987e-003
3.905310e+003;6.150716e-003
3.907238e+003;6.046010e-003
3.909167e+003;6.298240e-003
3.911095e+003;6.587384e-003
3.913024e+003;6.626375e-003
3.914952e+003;6.333541e-003
3.916881e+003;6.319151e-003
3.918810e+003;6.807954e-003
3.920738e+003;6.970281e-003
3.922667e+003;6.773624e-003
3.924595e+003;6.715742e-003
3.926524e+003;6.615139e-003
3.928452e+003;6.643029e-003
3.930381e+003;6.845786e-003
3.932309e+003;6.595660e-003
3.934238e+003;6.334818e-003
3.936167e+003;6.311587e-003
3.938095e+003;6.304359e-003
3.940023e+003;6.512070e-003
3.941952e+003;6.869753e-003
3.943881e+003;6.932504e-003
3.945809e+003;6.911968e-003
3.947738e+003;6.733947e-003
3.949666e+003;6.527576e-003
3.951595e+003;6.629773e-003
3.953523e+003;6.775745e-003
3.955452e+003;6.509144e-003
3.957380e+003;6.089388e-003
3.959309e+003;5.861895e-003
3.961238e+003;6.392078e-003
3.963166e+003;6.681554e-003
3.965095e+003;6.786312e-003
3.967023e+003;6.948126e-003
3.968952e+003;6.813709e-003
3.970880e+003;6.936376e-003
3.972809e+003;7.214693e-003
3.974737e+003;7.243162e-003
3.976666e+003;6.971425e-003
3.978594e+003;6.461587e-003
3.980523e+003;6.361178e-003
3.982452e+003;6.848984e-003
3.984380e+003;6.742427e-003
3.986309e+003;6.793952e-003
3.988237e+003;7.296026e-003
3.990166e+003;7.379700e-003
3.992094e+003;7.221499e-003
3.994023e+003;7.443199e-003
3.995951e+003;7.397697e-003
3.997880e+003;6.965230e-003
3.999809e+003;6.480454e-003
4.001737e+003;0.000000e+000
