3.992094e+002;0.000000e+000
4.011380e+002;0.000000e+000
4.030665e+002;0.000000e+000
4.049951e+002;0.000000e+000
4.069236e+002;0.000000e+000
4.088522e+002;0.000000e+000
4.107807e+002;0.000000e+000
4.127093e+002;0.000000e+000
4.146378e+002;0.000000e+000
4.165664e+002;0.000000e+000
4.184949e+002;0.000000e+000
4.204235e+002;0.000000e+000
4.223520e+002;0.000000e+000
4.242806e+002;0.000000e+000
4.262091e+002;0.000000e+000
4.281377e+002;0.000000e+000
4.300662e+002;0.000000e+000
4.319948e+002;0.000000e+000
4.339233e+002;0.000000e+000
4.358519e+002;0.000000e+000
4.377804e+002;0.000000e+000
4.397090e+002;0.000000e+000
4.416375e+002;0.000000e+000
4.435660e+002;0.000000e+000
4.454946e+002;0.000000e+000
4.474232e+002;0.000000e+000
4.493517e+002;0.000000e+000
4.512802e+002;0.000000e+000
4.532088e+002;0.000000e+000
4.551373e+002;0.000000e+000
4.570659e+002;0.000000e+000
4.589944e+002;0.000000e+000
4.609230e+002;0.000000e+000
4.628515e+002;0.000000e+000
4.647801e+002;0.000000e+000
4.667086e+002;0.000000e+000
4.686372e+002;0.000000e+000
4.705657e+002;0.000000e+000
4.724943e+002;0.000000e+000
4.744228e+002;0.000000e+000
4.763513e+002;0.000000e+000
4.782799e+002;0.000000e+000
4.802085e+002;0.000000e+000
4.821370e+002;0.000000e+000
4.840656e+002;0.000000e+000
4.859941e+002;0.000000e+000
4.879226e+002;0.000000e+000
4.898512e+002;0.000000e+000
4.917798e+002;0.000000e+000
4.937083e+002;0.000000e+000
4.956368e+002;0.000000e+000
4.975654e+002;0.000000e+000
4.994939e+002;0.000000e+000
5.014225e+002;0.000000e+000
5.033510e+002;0.000000e+000
5.052796e+002;0.000000e+000
5.072081e+002;0.000000e+000
5.091367e+002;0.000000e+000
5.110652e+002;0.000000e+000
5.129938e+002;0.000000e+000
5.149223e+002;0.000000e+000
5.168509e+002;0.000000e+000
5.187794e+002;0.000000e+000
5.207079e+002;0.000000e+000
5.226365e+002;0.000000e+000
5.245651e+002;0.000000e+000
5.264936e+002;0.000000e+000
5.284222e+002;0.000000e+000
5.303507e+002;0.000000e+000
5.322792e+002;0.000000e+000
5.342078e+002;0.000000e+000
5.361364e+002;0.000000e+000
5.380649e+002;0.000000e+000
5.399935e+002;0.000000e+000
5.419220e+002;0.000000e+000
5.438505e+002;0.000000e+000
5.457791e+002;0.000000e+000
5.477076e+002;0.000000e+000
5.496362e+002;0.000000e+000
5.515648e+002;0.000000e+000
5.534933e+002;0.000000e+000
5.554218e+002;0.000000e+000
5.573504e+002;0.000000e+000
5.592789e+002;0.000000e+000
5.612075e+002;0.000000e+000
5.631360e+002;0.000000e+000
5.650646e+002;0.000000e+000
5.669931e+002;0.000000e+000
5.689217e+002;0.000000e+000
5.708502e+002;0.000000e+000
5.727787e+002;0.000000e+000
5.747073e+002;0.000000e+000
5.766359e+002;0.000000e+000
5.785644e+002;0.000000e+000
5.804930e+002;0.000000e+000
5.824215e+002;0.000000e+000
5.843500e+002;0.000000e+000
5.862786e+002;0.000000e+000
5.882072e+002;0.000000e+000
5.901357e+002;0.000000e+000
5.920643e+002;0.000000e+000
5.939928e+002;0.000000e+000
5.959213e+002;0.000000e+000
5.978499e+002;0.000000e+000
5.997784e+002;2.590758e-001
6.017070e+002;2.555757e-001
6.036355e+002;2.526567e-001
6.055641e+002;2.532566e-001
6.074926e+002;2.582074e-001
6.094211e+002;2.630475e-001
6.113497e+002;2.549056e-001
6.132783e+002;2.563398e-001
6.152068e+002;2.605325e-001
6.171354e+002;2.596075e-001
6.190639e+002;2.574528e-001
6.209924e+002;2.553402e-001
6.229210e+002;2.517343e-001
6.248495e+002;2.488610e-001
6.267781e+002;2.523676e-001
6.287067e+002;2.549499e-001
6.306352e+002;2.520046e-001
6.325637e+002;2.491507e-001
6.344923e+002;2.463869e-001
6.364208e+002;2.452198e-001
6.383494e+002;2.471842e-001
6.402780e+002;2.453897e-001
6.422065e+002;2.379863e-001
6.441350e+002;2.357653e-001
6.460636e+002;2.361383e-001
6.479921e+002;2.361368e-001
6.499207e+002;2.333140e-001
6.518492e+002;2.322669e-001
6.537778e+002;2.349668e-001
6.557063e+002;2.358592e-001
6.576349e+002;2.342287e-001
6.595634e+002;2.351701e-001
6.614919e+002;2.356798e-001
6.634205e+002;2.346728e-001
6.653491e+002;2.337593e-001
6.672776e+002;2.338949e-001
6.692062e+002;2.332187e-001
6.711347e+002;2.320138e-001
6.730632e+002;2.319889e-001
6.749918e+002;2.334827e-001
6.769203e+002;2.331020e-001
6.788489e+002;2.327859e-001
6.807775e+002;2.330163e-001
6.827060e+002;2.338177e-001
6.846345e+002;2.331075e-001
6.865631e+002;2.316769e-001
6.884916e+002;2.312935e-001
6.904202e+002;2.310285e-001
6.923488e+002;2.303334e-001
6.942773e+002;2.279620e-001
6.962058e+002;2.257449e-001
6.981344e+002;2.245008e-001
7.000629e+002;2.224173e-001
7.019915e+002;2.204821e-001
7.039200e+002;2.189130e-001
7.058486e+002;2.161081e-001
7.077771e+002;2.130665e-001
7.097057e+002;2.104198e-001
7.116342e+002;2.084840e-001
7.135627e+002;2.068753e-001
7.154913e+002;2.047077e-001
7.174199e+002;2.021347e-001
7.193484e+002;1.988039e-001
7.212770e+002;1.958167e-001
7.232055e+002;1.935844e-001
7.251340e+002;1.905011e-001
7.270626e+002;1.869901e-001
7.289911e+002;1.839933e-001
7.309197e+002;1.809720e-001
7.328483e+002;1.779131e-001
7.347768e+002;1.747864e-001
7.367053e+002;1.719210e-001
7.386339e+002;1.690448e-001
7.405624e+002;1.653830e-001
7.424910e+002;1.623990e-001
7.444196e+002;1.596700e-001
7.463481e+002;1.574681e-001
7.482766e+002;1.560355e-001
7.502052e+002;1.533545e-001
7.521337e+002;1.509315e-001
7.540623e+002;1.499403e-001
7.559908e+002;1.484108e-001
7.579194e+002;1.469114e-001
7.598479e+002;1.461777e-001
7.617765e+002;1.451506e-001
7.637050e+002;1.437432e-001
7.656335e+002;1.422668e-001
7.675621e+002;1.412404e-001
7.694907e+002;1.399837e-001
7.714192e+002;1.381834e-001
7.733478e+002;1.363169e-001
7.752763e+002;1.344509e-001
7.772048e+002;1.335432e-001
7.791334e+002;1.325400e-001
7.810620e+002;1.306355e-001
7.829905e+002;1.289529e-001
7.849191e+002;1.283001e-001
7.868476e+002;1.268582e-001
7.887761e+002;1.252206e-001
7.907047e+002;1.246068e-001
7.926332e+002;1.239012e-001
7.945618e+002;1.223684e-001
7.964903e+002;1.216912e-001
7.984189e+002;1.216250e-001
8.003474e+002;1.212422e-001
8.022759e+002;1.209017e-001
8.042045e+002;1.211168e-001
8.061331e+002;1.217707e-001
8.080616e+002;1.222659e-001
8.099902e+002;1.218097e-001
8.119187e+002;1.210851e-001
8.138472e+002;1.206039e-001
8.157758e+002;1.205545e-001
8.177043e+002;1.206349e-001
8.196329e+002;1.210749e-001
8.215615e+002;1.212900e-001
8.234900e+002;1.215867e-001
8.254185e+002;1.224374e-001
8.273471e+002;1.228365e-001
8.292756e+002;1.220086e-001
8.312042e+002;1.211835e-001
8.331328e+002;1.202948e-001
8.350613e+002;1.190500e-001
8.369898e+002;1.177559e-001
8.389184e+002;1.162058e-001
8.408469e+002;1.152900e-001
8.427755e+002;1.153694e-001
8.447040e+002;1.153316e-001
8.466326e+002;1.156018e-001
8.485611e+002;1.168403e-001
8.504897e+002;1.172816e-001
8.524182e+002;1.168898e-001
8.543467e+002;1.162486e-001
8.562753e+002;1.151093e-001
8.582039e+002;1.131979e-001
8.601324e+002;1.118019e-001
8.620610e+002;1.109336e-001
8.639895e+002;1.099384e-001
8.659180e+002;1.095876e-001
8.678466e+002;1.107852e-001
8.697751e+002;1.137802e-001
8.717037e+002;1.178678e-001
8.736323e+002;1.216416e-001
8.755608e+002;1.234239e-001
8.774893e+002;1.222333e-001
8.794179e+002;1.186384e-001
8.813464e+002;1.147407e-001
8.832750e+002;1.120235e-001
8.852036e+002;1.102991e-001
8.871321e+002;1.094559e-001
8.890606e+002;1.096582e-001
8.909892e+002;1.097189e-001
8.929177e+002;1.092086e-001
8.948463e+002;1.088913e-001
8.967748e+002;1.088454e-001
8.987034e+002;1.088318e-001
9.006319e+002;1.089246e-001
9.025605e+002;1.088925e-001
9.044890e+002;1.091293e-001
9.064175e+002;1.088837e-001
9.083461e+002;1.086942e-001
9.102747e+002;1.094251e-001
9.122032e+002;1.101308e-001
9.141318e+002;1.109977e-001
9.160603e+002;1.122505e-001
9.179888e+002;1.131698e-001
9.199174e+002;1.142400e-001
9.218459e+002;1.158478e-001
9.237745e+002;1.169553e-001
9.257031e+002;1.177885e-001
9.276316e+002;1.187818e-001
9.295601e+002;1.196181e-001
9.314887e+002;1.197056e-001
9.334172e+002;1.194753e-001
9.353458e+002;1.197590e-001
9.372744e+002;1.199063e-001
9.392029e+002;1.200509e-001
9.411314e+002;1.207236e-001
9.430600e+002;1.214341e-001
9.449885e+002;1.220053e-001
9.469171e+002;1.229197e-001
9.488456e+002;1.240320e-001
9.507742e+002;1.253964e-001
9.527027e+002;1.266348e-001
9.546313e+002;1.276335e-001
9.565598e+002;1.289889e-001
9.584883e+002;1.308532e-001
9.604169e+002;1.327664e-001
9.623455e+002;1.346883e-001
9.642740e+002;1.364242e-001
9.662026e+002;1.380800e-001
9.681311e+002;1.403645e-001
9.700596e+002;1.429146e-001
9.719882e+002;1.449076e-001
9.739167e+002;1.461291e-001
9.758453e+002;1.466551e-001
9.777739e+002;1.460533e-001
9.797024e+002;1.449407e-001
9.816309e+002;1.440275e-001
9.835595e+002;1.434689e-001
9.854880e+002;1.435973e-001
9.874166e+002;1.452582e-001
9.893452e+002;1.482183e-001
9.912737e+002;1.512373e-001
9.932022e+002;1.534052e-001
9.951307e+002;1.546470e-001
9.970593e+002;1.555225e-001
9.989879e+002;1.555595e-001
1.000916e+003;1.548709e-001
1.002845e+003;1.545848e-001
1.004773e+003;1.541084e-001
1.006702e+003;1.537710e-001
1.008631e+003;1.539982e-001
1.010559e+003;1.546481e-001
1.012488e+003;1.557458e-001
1.014416e+003;1.558615e-001
1.016345e+003;1.552904e-001
1.018273e+003;1.545352e-001
1.020202e+003;1.540846e-001
1.022130e+003;1.545776e-001
1.024059e+003;1.555889e-001
1.025988e+003;1.572198e-001
1.027916e+003;1.592994e-001
1.029845e+003;1.610771e-001
1.031773e+003;1.630670e-001
1.033702e+003;1.646968e-001
1.035630e+003;1.664044e-001
1.037559e+003;1.682012e-001
1.039487e+003;1.693233e-001
1.041416e+003;1.697547e-001
1.043344e+003;1.699808e-001
1.045273e+003;1.703589e-001
1.047202e+003;1.708861e-001
1.049130e+003;1.713667e-001
1.051059e+003;1.718674e-001
1.052987e+003;1.726172e-001
1.054916e+003;1.734875e-001
1.056844e+003;1.741932e-001
1.058773e+003;1.750192e-001
1.060701e+003;1.758177e-001
1.062630e+003;1.761719e-001
1.064558e+003;1.764173e-001
1.066487e+003;1.760043e-001
1.068416e+003;1.747879e-001
1.070344e+003;1.738523e-001
1.072273e+003;1.724199e-001
1.074201e+003;1.698352e-001
1.076130e+003;1.668161e-001
1.078058e+003;1.638950e-001
1.079987e+003;1.605769e-001
1.081915e+003;1.567901e-001
1.083844e+003;1.534442e-001
1.085773e+003;1.511217e-001
1.087701e+003;1.488751e-001
1.089630e+003;1.459278e-001
1.091558e+003;1.438036e-001
1.093487e+003;1.429804e-001
1.095415e+003;1.424942e-001
1.097344e+003;1.422473e-001
1.099272e+003;1.422482e-001
1.101201e+003;1.422764e-001
1.103129e+003;1.421968e-001
1.105058e+003;1.416949e-001
1.106987e+003;1.410299e-001
1.108915e+003;1.398970e-001
1.110844e+003;1.384644e-001
1.112772e+003;1.381095e-001
1.114701e+003;1.380525e-001
1.116629e+003;1.379736e-001
1.118558e+003;1.378228e-001
1.120486e+003;1.378037e-001
1.122415e+003;1.382251e-001
1.124344e+003;1.385688e-001
1.126272e+003;1.389598e-001
1.128201e+003;1.396421e-001
1.130129e+003;1.403547e-001
1.132058e+003;1.410234e-001
1.133986e+003;1.421418e-001
1.135915e+003;1.434342e-001
1.137843e+003;1.449170e-001
1.139772e+003;1.463763e-001
1.141700e+003;1.481021e-001
1.143629e+003;1.501610e-001
1.145557e+003;1.521118e-001
1.147486e+003;1.542823e-001
1.149415e+003;1.566055e-001
1.151343e+003;1.591370e-001
1.153272e+003;1.618368e-001
1.155200e+003;1.642494e-001
1.157129e+003;1.658137e-001
1.159057e+003;1.666292e-001
1.160986e+003;1.676107e-001
1.162914e+003;1.687632e-001
1.164843e+003;1.694085e-001
1.166771e+003;1.696646e-001
1.168700e+003;1.697994e-001
1.170629e+003;1.691571e-001
1.172557e+003;1.678262e-001
1.174486e+003;1.661097e-001
1.176414e+003;1.637291e-001
1.178343e+003;1.614434e-001
1.180271e+003;1.597837e-001
1.182200e+003;1.588389e-001
1.184128e+003;1.589738e-001
1.186057e+003;1.597878e-001
1.187986e+003;1.611877e-001
1.189914e+003;1.625787e-001
1.191843e+003;1.642877e-001
1.193771e+003;1.669484e-001
1.195700e+003;1.701636e-001
1.197628e+003;1.733950e-001
1.199557e+003;1.768163e-001
1.201485e+003;1.806191e-001
1.203414e+003;1.853209e-001
1.205343e+003;1.909844e-001
1.207271e+003;1.960923e-001
1.209200e+003;2.006490e-001
1.211128e+003;2.054528e-001
1.213057e+003;2.098613e-001
1.214985e+003;2.137822e-001
1.216914e+003;2.169672e-001
1.218842e+003;2.193683e-001
1.220771e+003;2.218962e-001
1.222699e+003;2.241229e-001
1.224628e+003;2.256410e-001
1.226557e+003;2.266454e-001
1.228485e+003;2.270221e-001
1.230414e+003;2.264855e-001
1.232342e+003;2.245658e-001
1.234271e+003;2.215027e-001
1.236199e+003;2.185268e-001
1.238128e+003;2.157458e-001
1.240056e+003;2.130567e-001
1.241985e+003;2.107076e-001
1.243913e+003;2.086868e-001
1.245842e+003;2.070030e-001
1.247771e+003;2.057834e-001
1.249699e+003;2.047083e-001
1.251628e+003;2.037993e-001
1.253556e+003;2.033421e-001
1.255485e+003;2.027678e-001
1.257413e+003;2.020246e-001
1.259342e+003;2.011636e-001
1.261270e+003;1.996598e-001
1.263199e+003;1.974740e-001
1.265127e+003;1.946406e-001
1.267056e+003;1.911650e-001
1.268985e+003;1.872602e-001
1.270913e+003;1.834353e-001
1.272842e+003;1.796920e-001
1.274770e+003;1.761562e-001
1.276699e+003;1.731196e-001
1.278627e+003;1.704676e-001
1.280556e+003;1.683054e-001
1.282484e+003;1.670184e-001
1.284413e+003;1.661021e-001
1.286342e+003;1.651104e-001
1.288270e+003;1.643368e-001
1.290199e+003;1.639346e-001
1.292127e+003;1.633721e-001
1.294056e+003;1.631589e-001
1.295984e+003;1.633514e-001
1.297913e+003;1.633469e-001
1.299841e+003;1.634931e-001
1.301770e+003;1.636528e-001
1.303698e+003;1.634467e-001
1.305627e+003;1.633339e-001
1.307556e+003;1.633579e-001
1.309484e+003;1.632963e-001
1.311413e+003;1.631113e-001
1.313341e+003;1.630334e-001
1.315270e+003;1.629107e-001
1.317198e+003;1.628090e-001
1.319127e+003;1.629245e-001
1.321055e+003;1.634447e-001
1.322984e+003;1.641827e-001
1.324912e+003;1.650239e-001
1.326841e+003;1.658058e-001
1.328770e+003;1.665639e-001
1.330698e+003;1.672930e-001
1.332627e+003;1.679275e-001
1.334555e+003;1.683484e-001
1.336484e+003;1.683314e-001
1.338412e+003;1.679277e-001
1.340341e+003;1.676301e-001
1.342269e+003;1.674346e-001
1.344198e+003;1.671448e-001
1.346126e+003;1.668922e-001
1.348055e+003;1.670476e-001
1.349984e+003;1.676910e-001
1.351912e+003;1.683016e-001
1.353841e+003;1.687494e-001
1.355769e+003;1.700089e-001
1.357698e+003;1.721199e-001
1.359626e+003;1.749656e-001
1.361555e+003;1.784653e-001
1.363483e+003;1.820094e-001
1.365412e+003;1.849992e-001
1.367341e+003;1.871354e-001
1.369269e+003;1.880884e-001
1.371198e+003;1.877972e-001
1.373126e+003;1.874322e-001
1.375055e+003;1.874224e-001
1.376983e+003;1.877615e-001
1.378912e+003;1.884900e-001
1.380840e+003;1.894362e-001
1.382769e+003;1.902106e-001
1.384698e+003;1.912216e-001
1.386626e+003;1.926161e-001
1.388555e+003;1.939405e-001
1.390483e+003;1.951930e-001
1.392412e+003;1.966348e-001
1.394340e+003;1.983864e-001
1.396269e+003;2.003201e-001
1.398197e+003;2.027793e-001
1.400126e+003;2.055633e-001
1.402054e+003;2.080424e-001
1.403983e+003;2.105091e-001
1.405911e+003;2.128014e-001
1.407840e+003;2.147388e-001
1.409769e+003;2.161692e-001
1.411697e+003;2.169811e-001
1.413626e+003;2.171358e-001
1.415554e+003;2.168756e-001
1.417483e+003;2.167215e-001
1.419411e+003;2.169269e-001
1.421340e+003;2.178091e-001
1.423268e+003;2.196150e-001
1.425197e+003;2.221439e-001
1.427125e+003;2.253907e-001
1.429054e+003;2.295648e-001
1.430983e+003;2.349611e-001
1.432911e+003;2.412671e-001
1.434840e+003;2.474927e-001
1.436768e+003;2.524888e-001
1.438697e+003;2.559214e-001
1.440625e+003;2.579951e-001
1.442554e+003;2.589845e-001
1.444482e+003;2.592993e-001
1.446411e+003;2.582994e-001
1.448340e+003;2.552643e-001
1.450268e+003;2.507367e-001
1.452197e+003;2.452031e-001
1.454125e+003;2.391314e-001
1.456054e+003;2.335498e-001
1.457982e+003;2.289395e-001
1.459911e+003;2.258824e-001
1.461839e+003;2.239376e-001
1.463768e+003;2.229004e-001
1.465697e+003;2.228708e-001
1.467625e+003;2.234192e-001
1.469554e+003;2.249866e-001
1.471482e+003;2.273603e-001
1.473411e+003;2.297422e-001
1.475339e+003;2.327583e-001
1.477268e+003;2.369389e-001
1.479196e+003;2.420425e-001
1.481125e+003;2.480666e-001
1.483053e+003;2.549390e-001
1.484982e+003;2.628963e-001
1.486911e+003;2.716147e-001
1.488839e+003;2.802827e-001
1.490768e+003;2.890210e-001
1.492696e+003;2.982846e-001
1.494625e+003;3.077552e-001
1.496553e+003;3.168183e-001
1.498482e+003;3.249750e-001
1.500410e+003;3.325324e-001
1.502339e+003;3.396489e-001
1.504267e+003;3.454082e-001
1.506196e+003;3.500650e-001
1.508125e+003;3.545161e-001
1.510053e+003;3.578892e-001
1.511982e+003;3.594817e-001
1.513910e+003;3.587996e-001
1.515839e+003;3.539819e-001
1.517767e+003;3.453522e-001
1.519696e+003;3.354966e-001
1.521624e+003;3.263199e-001
1.523553e+003;3.185458e-001
1.525481e+003;3.112637e-001
1.527410e+003;3.041157e-001
1.529339e+003;2.971271e-001
1.531267e+003;2.907335e-001
1.533196e+003;2.845320e-001
1.535124e+003;2.779750e-001
1.537053e+003;2.716097e-001
1.538981e+003;2.654545e-001
1.540910e+003;2.593392e-001
1.542838e+003;2.535222e-001
1.544767e+003;2.479971e-001
1.546695e+003;2.430510e-001
1.548624e+003;2.381786e-001
1.550553e+003;2.330555e-001
1.552481e+003;2.282436e-001
1.554410e+003;2.231993e-001
1.556338e+003;2.179547e-001
1.558267e+003;2.127664e-001
1.560195e+003;2.073638e-001
1.562124e+003;2.022479e-001
1.564052e+003;1.972347e-001
1.565981e+003;1.923097e-001
1.567910e+003;1.879769e-001
1.569838e+003;1.841982e-001
1.571767e+003;1.808596e-001
1.573695e+003;1.781647e-001
1.575624e+003;1.764578e-001
1.577552e+003;1.756802e-001
1.579481e+003;1.757140e-001
1.581409e+003;1.762415e-001
1.583338e+003;1.775573e-001
1.585266e+003;1.798505e-001
1.587195e+003;1.830082e-001
1.589124e+003;1.867372e-001
1.591052e+003;1.912496e-001
1.592981e+003;1.966436e-001
1.594909e+003;2.023228e-001
1.596838e+003;2.087205e-001
1.598766e+003;2.161196e-001
1.600695e+003;2.250393e-001
1.602623e+003;2.354515e-001
1.604552e+003;2.472396e-001
1.606480e+003;2.604164e-001
1.608409e+003;2.744222e-001
1.610338e+003;2.884669e-001
1.612266e+003;3.022074e-001
1.614195e+003;3.152926e-001
1.616123e+003;3.273654e-001
1.618052e+003;3.374870e-001
1.619980e+003;3.446863e-001
1.621909e+003;3.487507e-001
1.623837e+003;3.496412e-001
1.625766e+003;3.474458e-001
1.627694e+003;3.426938e-001
1.629623e+003;3.360630e-001
1.631552e+003;3.281300e-001
1.633480e+003;3.198557e-001
1.635409e+003;3.116223e-001
1.637337e+003;3.034977e-001
1.639266e+003;2.954625e-001
1.641194e+003;2.876268e-001
1.643123e+003;2.806956e-001
1.645051e+003;2.737086e-001
1.646980e+003;2.667149e-001
1.648909e+003;2.602979e-001
1.650837e+003;2.542398e-001
1.652766e+003;2.474968e-001
1.654694e+003;2.404474e-001
1.656623e+003;2.339397e-001
1.658551e+003;2.273385e-001
1.660480e+003;2.206565e-001
1.662408e+003;2.139262e-001
1.664337e+003;2.076743e-001
1.666266e+003;2.018478e-001
1.668194e+003;1.962268e-001
1.670123e+003;1.907584e-001
1.672051e+003;1.855224e-001
1.673980e+003;1.803795e-001
1.675908e+003;1.755863e-001
1.677837e+003;1.713575e-001
1.679765e+003;1.670443e-001
1.681694e+003;1.628135e-001
1.683622e+003;1.588535e-001
1.685551e+003;1.555171e-001
1.687479e+003;1.527141e-001
1.689408e+003;1.502842e-001
1.691337e+003;1.486145e-001
1.693265e+003;1.479600e-001
1.695194e+003;1.477978e-001
1.697122e+003;1.471266e-001
1.699051e+003;1.440710e-001
1.700979e+003;1.369998e-001
1.702908e+003;1.271215e-001
1.704836e+003;1.158156e-001
1.706765e+003;1.048832e-001
1.708693e+003;9.570465e-002
1.710622e+003;8.863835e-002
1.712551e+003;8.324819e-002
1.714479e+003;7.908133e-002
1.716408e+003;7.589155e-002
1.718336e+003;7.334312e-002
1.720265e+003;7.143310e-002
1.722193e+003;6.977316e-002
1.724122e+003;6.826364e-002
1.726050e+003;6.725897e-002
1.727979e+003;6.646184e-002
1.729908e+003;6.577133e-002
1.731836e+003;6.506806e-002
1.733765e+003;6.415235e-002
1.735693e+003;6.333315e-002
1.737622e+003;6.283284e-002
1.739550e+003;6.267782e-002
1.741479e+003;6.252585e-002
1.743407e+003;6.229785e-002
1.745336e+003;6.213209e-002
1.747265e+003;6.207888e-002
1.749193e+003;6.226343e-002
1.751122e+003;6.241589e-002
1.753050e+003;6.249535e-002
1.754979e+003;6.274088e-002
1.756907e+003;6.275542e-002
1.758836e+003;6.276511e-002
1.760764e+003;6.287818e-002
1.762693e+003;6.288090e-002
1.764621e+003;6.306725e-002
1.766550e+003;6.325158e-002
1.768479e+003;6.327419e-002
1.770407e+003;6.324495e-002
1.772336e+003;6.302825e-002
1.774264e+003;6.299282e-002
1.776193e+003;6.319071e-002
1.778121e+003;6.333675e-002
1.780050e+003;6.339893e-002
1.781978e+003;6.358087e-002
1.783907e+003;6.363534e-002
1.785835e+003;6.360369e-002
1.787764e+003;6.363427e-002
1.789693e+003;6.355613e-002
1.791621e+003;6.339786e-002
1.793550e+003;6.319424e-002
1.795478e+003;6.324736e-002
1.797407e+003;6.335991e-002
1.799335e+003;6.333143e-002
1.801264e+003;6.326944e-002
1.803192e+003;6.322382e-002
1.805121e+003;6.325714e-002
1.807049e+003;6.308610e-002
1.808978e+003;6.291970e-002
1.810907e+003;6.289691e-002
1.812835e+003;6.278624e-002
1.814764e+003;6.278200e-002
1.816692e+003;6.289385e-002
1.818621e+003;6.304426e-002
1.820549e+003;6.273066e-002
1.822478e+003;6.250171e-002
1.824406e+003;6.267940e-002
1.826335e+003;6.275745e-002
1.828264e+003;6.266948e-002
1.830192e+003;6.259642e-002
1.832121e+003;6.263400e-002
1.834049e+003;6.269934e-002
1.835978e+003;6.250825e-002
1.837906e+003;6.243892e-002
1.839835e+003;6.250798e-002
1.841763e+003;6.255585e-002
1.843692e+003;6.263354e-002
1.845620e+003;6.262799e-002
1.847549e+003;6.240407e-002
1.849478e+003;6.228714e-002
1.851406e+003;6.233828e-002
1.853335e+003;6.234730e-002
1.855263e+003;6.228317e-002
1.857192e+003;6.230003e-002
1.859120e+003;6.231621e-002
1.861049e+003;6.213515e-002
1.862977e+003;6.224481e-002
1.864906e+003;6.244431e-002
1.866834e+003;6.257992e-002
1.868763e+003;6.278762e-002
1.870692e+003;6.276235e-002
1.872620e+003;6.264353e-002
1.874549e+003;6.271032e-002
1.876477e+003;6.277893e-002
1.878406e+003;6.274539e-002
1.880334e+003;6.288595e-002
1.882263e+003;6.292494e-002
1.884191e+003;6.292058e-002
1.886120e+003;6.294620e-002
1.888048e+003;6.278069e-002
1.889977e+003;6.281010e-002
1.891906e+003;6.273311e-002
1.893834e+003;6.273153e-002
1.895763e+003;6.312875e-002
1.897691e+003;6.315672e-002
1.899620e+003;6.294992e-002
1.901548e+003;6.289120e-002
1.903477e+003;6.300309e-002
1.905405e+003;6.290836e-002
1.907334e+003;6.260151e-002
1.909262e+003;6.261727e-002
1.911191e+003;6.267549e-002
1.913120e+003;6.276553e-002
1.915048e+003;6.293364e-002
1.916977e+003;6.300814e-002
1.918905e+003;6.296554e-002
1.920834e+003;6.283212e-002
1.922762e+003;6.274106e-002
1.924691e+003;6.284104e-002
1.926619e+003;6.297833e-002
1.928548e+003;6.299722e-002
1.930477e+003;6.293946e-002
1.932405e+003;6.286122e-002
1.934334e+003;6.303392e-002
1.936262e+003;6.328711e-002
1.938191e+003;6.328228e-002
1.940119e+003;6.321424e-002
1.942048e+003;6.307212e-002
1.943976e+003;6.278494e-002
1.945905e+003;6.265796e-002
1.947833e+003;6.271175e-002
1.949762e+003;6.297244e-002
1.951691e+003;6.315664e-002
1.953619e+003;6.309327e-002
1.955548e+003;6.296769e-002
1.957476e+003;6.302090e-002
1.959405e+003;6.321876e-002
1.961333e+003;6.339154e-002
1.963262e+003;6.335089e-002
1.965190e+003;6.328404e-002
1.967119e+003;6.337275e-002
1.969047e+003;6.360488e-002
1.970976e+003;6.388009e-002
1.972905e+003;6.381077e-002
1.974833e+003;6.349971e-002
1.976762e+003;6.342294e-002
1.978690e+003;6.347275e-002
1.980619e+003;6.359223e-002
1.982547e+003;6.357462e-002
1.984476e+003;6.347854e-002
1.986404e+003;6.360780e-002
1.988333e+003;6.373103e-002
1.990261e+003;6.361435e-002
1.992190e+003;6.356107e-002
1.994119e+003;6.364631e-002
1.996047e+003;6.364793e-002
1.997976e+003;6.378690e-002
1.999904e+003;6.380924e-002
2.001833e+003;6.350293e-002
2.003761e+003;6.349334e-002
2.005690e+003;6.378805e-002
2.007618e+003;6.379350e-002
2.009547e+003;6.364328e-002
2.011476e+003;6.368836e-002
2.013404e+003;6.360642e-002
2.015333e+003;6.348383e-002
2.017261e+003;6.365138e-002
2.019190e+003;6.356180e-002
2.021118e+003;6.359042e-002
2.023047e+003;6.378337e-002
2.024975e+003;6.374688e-002
2.026904e+003;6.380486e-002
2.028833e+003;6.377546e-002
2.030761e+003;6.362349e-002
2.032690e+003;6.357078e-002
2.034618e+003;6.366162e-002
2.036547e+003;6.371990e-002
2.038475e+003;6.381407e-002
2.040404e+003;6.378709e-002
2.042332e+003;6.393809e-002
2.044261e+003;6.404970e-002
2.046189e+003;6.399437e-002
2.048118e+003;6.370194e-002
2.050047e+003;6.360369e-002
2.051975e+003;6.380992e-002
2.053904e+003;6.392327e-002
2.055832e+003;6.397030e-002
2.057761e+003;6.395164e-002
2.059689e+003;6.401971e-002
2.061618e+003;6.414210e-002
2.063546e+003;6.403676e-002
2.065475e+003;6.399065e-002
2.067404e+003;6.424781e-002
2.069332e+003;6.425319e-002
2.071260e+003;6.414287e-002
2.073189e+003;6.388205e-002
2.075118e+003;6.375589e-002
2.077046e+003;6.386508e-002
2.078975e+003;6.388151e-002
2.080903e+003;6.375144e-002
2.082832e+003;6.375889e-002
2.084760e+003;6.397648e-002
2.086689e+003;6.422584e-002
2.088617e+003;6.454629e-002
2.090546e+003;6.450163e-002
2.092475e+003;6.416764e-002
2.094403e+003;6.401204e-002
2.096332e+003;6.404863e-002
2.098260e+003;6.416741e-002
2.100189e+003;6.411545e-002
2.102117e+003;6.401768e-002
2.104046e+003;6.407048e-002
2.105974e+003;6.410892e-002
2.107903e+003;6.421789e-002
2.109832e+003;6.416810e-002
2.111760e+003;6.412148e-002
2.113688e+003;6.413677e-002
2.115617e+003;6.398953e-002
2.117546e+003;6.381649e-002
2.119474e+003;6.384681e-002
2.121403e+003;6.390220e-002
2.123331e+003;6.390627e-002
2.125260e+003;6.392070e-002
2.127188e+003;6.398351e-002
2.129117e+003;6.400090e-002
2.131045e+003;6.366910e-002
2.132974e+003;6.358164e-002
2.134903e+003;6.387421e-002
2.136831e+003;6.402194e-002
2.138760e+003;6.399867e-002
2.140688e+003;6.404206e-002
2.142617e+003;6.401514e-002
2.144545e+003;6.398339e-002
2.146474e+003;6.404041e-002
2.148402e+003;6.381269e-002
2.150331e+003;6.353860e-002
2.152260e+003;6.360795e-002
2.154188e+003;6.384885e-002
2.156117e+003;6.393275e-002
2.158045e+003;6.397732e-002
2.159974e+003;6.398915e-002
2.161902e+003;6.396040e-002
2.163831e+003;6.394976e-002
2.165759e+003;6.384623e-002
2.167688e+003;6.362440e-002
2.169616e+003;6.365068e-002
2.171545e+003;6.387283e-002
2.173474e+003;6.402171e-002
2.175402e+003;6.396147e-002
2.177331e+003;6.371004e-002
2.179259e+003;6.370605e-002
2.181188e+003;6.384555e-002
2.183116e+003;6.389564e-002
2.185045e+003;6.375965e-002
2.186973e+003;6.364509e-002
2.188902e+003;6.358512e-002
2.190831e+003;6.359874e-002
2.192759e+003;6.365655e-002
2.194688e+003;6.356752e-002
2.196616e+003;6.346470e-002
2.198545e+003;6.348084e-002
2.200473e+003;6.337992e-002
2.202402e+003;6.326284e-002
2.204330e+003;6.354109e-002
2.206259e+003;6.371656e-002
2.208188e+003;6.363484e-002
2.210116e+003;6.370486e-002
2.212044e+003;6.384401e-002
2.213973e+003;6.377746e-002
2.215902e+003;6.359644e-002
2.217830e+003;6.341144e-002
2.219759e+003;6.336002e-002
2.221687e+003;6.343909e-002
2.223616e+003;6.345442e-002
2.225544e+003;6.343513e-002
2.227473e+003;6.330171e-002
2.229401e+003;6.315707e-002
2.231330e+003;6.307369e-002
2.233259e+003;6.301205e-002
2.235187e+003;6.296547e-002
2.237116e+003;6.300228e-002
2.239044e+003;6.296949e-002
2.240973e+003;6.284633e-002
2.242901e+003;6.291655e-002
2.244830e+003;6.292249e-002
2.246758e+003;6.266738e-002
2.248687e+003;6.271557e-002
2.250615e+003;6.300879e-002
2.252544e+003;6.299259e-002
2.254473e+003;6.273066e-002
2.256401e+003;6.249459e-002
2.258330e+003;6.248189e-002
2.260258e+003;6.257904e-002
2.262187e+003;6.270313e-002
2.264115e+003;6.255773e-002
2.266044e+003;6.237680e-002
2.267972e+003;6.252727e-002
2.269901e+003;6.278743e-002
2.271830e+003;6.280106e-002
2.273758e+003;6.270091e-002
2.275687e+003;6.278578e-002
2.277615e+003;6.269003e-002
2.279544e+003;6.266355e-002
2.281472e+003;6.274018e-002
2.283401e+003;6.278739e-002
2.285329e+003;6.287313e-002
2.287258e+003;6.276469e-002
2.289187e+003;6.245422e-002
2.291115e+003;6.235120e-002
2.293043e+003;6.247944e-002
2.294972e+003;6.258643e-002
2.296901e+003;6.247374e-002
2.298829e+003;6.224779e-002
2.300758e+003;6.233269e-002
2.302686e+003;6.257086e-002
2.304615e+003;6.248698e-002
2.306543e+003;6.230156e-002
2.308472e+003;6.239986e-002
2.310400e+003;6.245269e-002
2.312329e+003;6.240564e-002
2.314258e+003;6.244179e-002
2.316186e+003;6.251785e-002
2.318115e+003;6.260162e-002
2.320043e+003;6.284058e-002
2.321972e+003;6.270263e-002
2.323900e+003;6.226779e-002
2.325829e+003;6.216008e-002
2.327757e+003;6.227162e-002
2.329686e+003;6.221208e-002
2.331615e+003;6.206909e-002
2.333543e+003;6.208182e-002
2.335472e+003;6.212131e-002
2.337400e+003;6.236922e-002
2.339329e+003;6.252784e-002
2.341257e+003;6.250408e-002
2.343186e+003;6.251930e-002
2.345114e+003;6.248173e-002
2.347043e+003;6.236849e-002
2.348971e+003;6.225510e-002
2.350900e+003;6.222179e-002
2.352829e+003;6.228187e-002
2.354757e+003;6.232225e-002
2.356686e+003;6.238927e-002
2.358614e+003;6.253698e-002
2.360543e+003;6.261773e-002
2.362471e+003;6.255658e-002
2.364400e+003;6.227850e-002
2.366328e+003;6.212242e-002
2.368257e+003;6.196984e-002
2.370186e+003;6.182811e-002
2.372114e+003;6.167796e-002
2.374042e+003;6.180478e-002
2.375971e+003;6.206986e-002
2.377900e+003;6.223024e-002
2.379828e+003;6.233732e-002
2.381757e+003;6.235052e-002
2.383685e+003;6.222492e-002
2.385614e+003;6.235147e-002
2.387542e+003;6.267725e-002
2.389471e+003;6.274807e-002
2.391399e+003;6.278406e-002
2.393328e+003;6.286769e-002
2.395257e+003;6.304446e-002
2.397185e+003;6.318447e-002
2.399114e+003;6.308400e-002
2.401042e+003;6.288458e-002
2.402971e+003;6.282113e-002
2.404899e+003;6.280489e-002
2.406828e+003;6.298026e-002
2.408756e+003;6.330881e-002
2.410685e+003;6.361543e-002
2.412614e+003;6.352384e-002
2.414542e+003;6.344453e-002
2.416471e+003;6.364685e-002
2.418399e+003;6.395710e-002
2.420328e+003;6.398055e-002
2.422256e+003;6.398005e-002
2.424185e+003;6.411913e-002
2.426113e+003;6.431021e-002
2.428042e+003;6.434148e-002
2.429970e+003;6.438491e-002
2.431899e+003;6.459527e-002
2.433828e+003;6.461446e-002
2.435756e+003;6.445704e-002
2.437685e+003;6.443087e-002
2.439613e+003;6.453057e-002
2.441542e+003;6.456129e-002
2.443470e+003;6.457429e-002
2.445399e+003;6.449390e-002
2.447327e+003;6.444617e-002
2.449256e+003;6.452231e-002
2.451185e+003;6.468394e-002
2.453113e+003;6.496391e-002
2.455042e+003;6.508265e-002
2.456970e+003;6.496876e-002
2.458899e+003;6.479941e-002
2.460827e+003;6.458267e-002
2.462756e+003;6.442110e-002
2.464684e+003;6.469472e-002
2.466613e+003;6.500625e-002
2.468542e+003;6.495795e-002
2.470470e+003;6.479983e-002
2.472398e+003;6.489335e-002
2.474327e+003;6.487169e-002
2.476256e+003;6.479129e-002
2.478184e+003;6.489328e-002
2.480113e+003;6.496780e-002
2.482041e+003;6.508487e-002
2.483970e+003;6.500594e-002
2.485898e+003;6.498893e-002
2.487827e+003;6.507722e-002
2.489755e+003;6.526832e-002
2.491684e+003;6.558251e-002
2.493613e+003;6.569096e-002
2.495541e+003;6.542169e-002
2.497470e+003;6.509615e-002
2.499398e+003;6.515601e-002
2.501327e+003;6.554309e-002
2.503255e+003;6.569631e-002
2.505184e+003;6.561441e-002
2.507112e+003;6.552529e-002
2.509041e+003;6.546206e-002
2.510969e+003;6.555075e-002
2.512898e+003;6.588180e-002
2.514827e+003;6.601628e-002
2.516755e+003;6.597092e-002
2.518684e+003;6.584794e-002
2.520612e+003;6.572534e-002
2.522541e+003;6.599557e-002
2.524469e+003;6.628700e-002
2.526398e+003;6.627040e-002
2.528326e+003;6.601902e-002
2.530255e+003;6.584593e-002
2.532184e+003;6.601802e-002
2.534112e+003;6.621976e-002
2.536041e+003;6.617469e-002
2.537969e+003;6.599101e-002
2.539898e+003;6.609235e-002
2.541826e+003;6.628151e-002
2.543755e+003;6.645168e-002
2.545683e+003;6.673817e-002
2.547612e+003;6.685390e-002
2.549541e+003;6.665870e-002
2.551469e+003;6.666990e-002
2.553397e+003;6.684362e-002
2.555326e+003;6.689777e-002
2.557255e+003;6.684818e-002
2.559183e+003;6.695054e-002
2.561112e+003;6.688880e-002
2.563040e+003;6.688756e-002
2.564969e+003;6.709107e-002
2.566897e+003;6.708601e-002
2.568826e+003;6.705774e-002
2.570754e+003;6.732342e-002
2.572683e+003;6.764958e-002
2.574612e+003;6.762867e-002
2.576540e+003;6.756902e-002
2.578469e+003;6.769926e-002
2.580397e+003;6.788622e-002
2.582326e+003;6.796398e-002
2.584254e+003;6.810721e-002
2.586183e+003;6.829873e-002
2.588111e+003;6.812935e-002
2.590040e+003;6.806609e-002
2.591969e+003;6.820156e-002
2.593897e+003;6.832889e-002
2.595826e+003;6.831715e-002
2.597754e+003;6.832145e-002
2.599683e+003;6.864157e-002
2.601611e+003;6.892970e-002
2.603540e+003;6.889270e-002
2.605468e+003;6.865752e-002
2.607397e+003;6.854364e-002
2.609325e+003;6.869859e-002
2.611254e+003;6.894403e-002
2.613183e+003;6.894656e-002
2.615111e+003;6.896850e-002
2.617040e+003;6.894539e-002
2.618968e+003;6.886707e-002
2.620897e+003;6.906603e-002
2.622825e+003;6.922723e-002
2.624754e+003;6.938709e-002
2.626682e+003;6.944256e-002
2.628611e+003;6.938297e-002
2.630540e+003;6.925929e-002
2.632468e+003;6.911373e-002
2.634396e+003;6.900201e-002
2.636325e+003;6.862710e-002
2.638254e+003;6.834759e-002
2.640182e+003;6.854647e-002
2.642111e+003;6.874257e-002
2.644039e+003;6.898811e-002
2.645968e+003;6.916789e-002
2.647896e+003;6.910561e-002
2.649825e+003;6.903759e-002
2.651753e+003;6.920760e-002
2.653682e+003;6.936201e-002
2.655611e+003;6.938098e-002
2.657539e+003;6.928598e-002
2.659468e+003;6.926955e-002
2.661396e+003;6.924833e-002
2.663325e+003;6.931941e-002
2.665253e+003;6.929799e-002
2.667182e+003;6.924401e-002
2.669110e+003;6.919890e-002
2.671039e+003;6.931382e-002
2.672968e+003;6.983180e-002
2.674896e+003;6.991166e-002
2.676825e+003;6.994093e-002
2.678753e+003;7.010911e-002
2.680682e+003;7.002875e-002
2.682610e+003;7.004148e-002
2.684539e+003;7.016557e-002
2.686467e+003;7.009965e-002
2.688396e+003;7.017013e-002
2.690324e+003;7.027020e-002
2.692253e+003;7.037105e-002
2.694182e+003;7.055277e-002
2.696110e+003;7.087560e-002
2.698039e+003;7.097461e-002
2.699967e+003;7.094169e-002
2.701896e+003;7.098753e-002
2.703824e+003;7.126511e-002
2.705753e+003;7.130786e-002
2.707681e+003;7.111178e-002
2.709610e+003;7.119019e-002
2.711539e+003;7.139893e-002
2.713467e+003;7.158729e-002
2.715396e+003;7.179590e-002
2.717324e+003;7.175205e-002
2.719253e+003;7.156271e-002
2.721181e+003;7.155338e-002
2.723110e+003;7.179184e-002
2.725038e+003;7.209004e-002
2.726967e+003;7.204667e-002
2.728896e+003;7.224224e-002
2.730824e+003;7.258449e-002
2.732752e+003;7.254259e-002
2.734681e+003;7.243198e-002
2.736610e+003;7.259914e-002
2.738538e+003;7.260724e-002
2.740467e+003;7.290558e-002
2.742395e+003;7.344443e-002
2.744324e+003;7.368695e-002
2.746252e+003;7.371051e-002
2.748181e+003;7.353755e-002
2.750109e+003;7.339647e-002
2.752038e+003;7.356926e-002
2.753967e+003;7.379694e-002
2.755895e+003;7.409389e-002
2.757824e+003;7.423762e-002
2.759752e+003;7.448771e-002
2.761681e+003;7.478431e-002
2.763609e+003;7.491886e-002
2.765538e+003;7.477096e-002
2.767466e+003;7.448453e-002
2.769395e+003;7.449900e-002
2.771323e+003;7.471744e-002
2.773252e+003;7.478198e-002
2.775181e+003;7.503069e-002
2.777109e+003;7.530591e-002
2.779038e+003;7.514874e-002
2.780966e+003;7.514901e-002
2.782895e+003;7.562751e-002
2.784823e+003;7.602996e-002
2.786752e+003;7.613848e-002
2.788680e+003;7.610863e-002
2.790609e+003;7.610077e-002
2.792538e+003;7.598772e-002
2.794466e+003;7.591585e-002
2.796395e+003;7.613189e-002
2.798323e+003;7.648916e-002
2.800252e+003;7.668227e-002
2.802180e+003;7.697973e-002
2.804109e+003;7.704608e-002
2.806037e+003;7.695272e-002
2.807966e+003;7.712736e-002
2.809895e+003;7.705899e-002
2.811823e+003;7.705546e-002
2.813751e+003;7.688544e-002
2.815680e+003;7.692254e-002
2.817609e+003;7.732151e-002
2.819537e+003;7.780221e-002
2.821466e+003;7.824151e-002
2.823394e+003;7.830238e-002
2.825323e+003;7.833067e-002
2.827251e+003;7.834967e-002
2.829180e+003;7.814471e-002
2.831108e+003;7.825643e-002
2.833037e+003;7.863030e-002
2.834966e+003;7.876228e-002
2.836894e+003;7.881296e-002
2.838823e+003;7.906880e-002
2.840751e+003;7.927468e-002
2.842680e+003;7.975277e-002
2.844608e+003;8.022155e-002
2.846537e+003;8.029700e-002
2.848465e+003;8.053309e-002
2.850394e+003;8.085461e-002
2.852323e+003;8.156054e-002
2.854251e+003;8.211125e-002
2.856180e+003;8.218575e-002
2.858108e+003;8.252075e-002
2.860037e+003;8.288789e-002
2.861965e+003;8.327343e-002
2.863894e+003;8.380341e-002
2.865822e+003;8.426298e-002
2.867751e+003;8.485241e-002
2.869679e+003;8.541356e-002
2.871608e+003;8.563683e-002
2.873536e+003;8.575005e-002
2.875465e+003;8.596215e-002
2.877394e+003;8.592007e-002
2.879322e+003;8.583834e-002
2.881251e+003;8.583087e-002
2.883179e+003;8.577169e-002
2.885108e+003;8.567525e-002
2.887036e+003;8.559471e-002
2.888965e+003;8.545632e-002
2.890893e+003;8.530165e-002
2.892822e+003;8.549238e-002
2.894750e+003;8.587314e-002
2.896679e+003;8.604220e-002
2.898608e+003;8.637618e-002
2.900536e+003;8.666302e-002
2.902465e+003;8.709339e-002
2.904393e+003;8.734986e-002
2.906322e+003;8.750178e-002
2.908250e+003;8.796618e-002
2.910179e+003;8.829121e-002
2.912107e+003;8.868443e-002
2.914036e+003;8.938251e-002
2.915965e+003;8.992533e-002
2.917893e+003;9.038964e-002
2.919822e+003;9.121209e-002
2.921750e+003;9.212770e-002
2.923679e+003;9.282891e-002
2.925607e+003;9.379962e-002
2.927536e+003;9.454242e-002
2.929464e+003;9.464723e-002
2.931393e+003;9.462132e-002
2.933322e+003;9.473491e-002
2.935250e+003;9.472506e-002
2.937178e+003;9.438069e-002
2.939107e+003;9.372565e-002
2.941036e+003;9.301149e-002
2.942964e+003;9.209001e-002
2.944893e+003;9.152582e-002
2.946821e+003;9.102790e-002
2.948750e+003;9.030682e-002
2.950678e+003;9.000681e-002
2.952607e+003;8.982696e-002
2.954535e+003;8.954845e-002
2.956464e+003;8.954463e-002
2.958393e+003;8.960062e-002
2.960321e+003;8.959313e-002
2.962250e+003;8.972416e-002
2.964178e+003;9.011225e-002
2.966107e+003;9.040853e-002
2.968035e+003;9.051210e-002
2.969964e+003;9.061577e-002
2.971892e+003;9.090129e-002
2.973821e+003;9.097625e-002
2.975750e+003;9.104212e-002
2.977678e+003;9.103366e-002
2.979607e+003;9.082336e-002
2.981535e+003;9.037781e-002
2.983464e+003;8.980002e-002
2.985392e+003;8.951616e-002
2.987321e+003;8.920323e-002
2.989249e+003;8.884097e-002
2.991178e+003;8.829369e-002
2.993106e+003;8.784091e-002
2.995035e+003;8.777962e-002
2.996964e+003;8.733386e-002
2.998892e+003;8.693384e-002
3.000821e+003;8.674555e-002
3.002749e+003;8.640004e-002
3.004678e+003;8.618598e-002
3.006606e+003;8.587104e-002
3.008535e+003;8.550324e-002
3.010463e+003;8.561109e-002
3.012392e+003;8.585808e-002
3.014321e+003;8.613532e-002
3.016249e+003;8.631321e-002
3.018177e+003;8.656533e-002
3.020106e+003;8.656837e-002
3.022035e+003;8.641346e-002
3.023963e+003;8.655757e-002
3.025892e+003;8.694623e-002
3.027820e+003;8.722242e-002
3.029749e+003;8.770975e-002
3.031677e+003;8.829438e-002
3.033606e+003;8.840667e-002
3.035534e+003;8.873398e-002
3.037463e+003;8.954178e-002
3.039392e+003;9.024352e-002
3.041320e+003;9.056299e-002
3.043249e+003;9.108294e-002
3.045177e+003;9.126765e-002
3.047106e+003;9.136876e-002
3.049034e+003;9.152758e-002
3.050963e+003;9.196932e-002
3.052891e+003;9.268680e-002
3.054820e+003;9.348088e-002
3.056749e+003;9.402244e-002
3.058677e+003;9.399388e-002
3.060606e+003;9.397417e-002
3.062534e+003;9.445894e-002
3.064463e+003;9.477127e-002
3.066391e+003;9.485123e-002
3.068320e+003;9.509616e-002
3.070248e+003;9.542570e-002
3.072177e+003;9.535410e-002
3.074105e+003;9.528659e-002
3.076034e+003;9.521661e-002
3.077963e+003;9.503957e-002
3.079891e+003;9.479241e-002
3.081820e+003;9.461802e-002
3.083748e+003;9.442270e-002
3.085677e+003;9.430864e-002
3.087605e+003;9.420510e-002
3.089534e+003;9.391490e-002
3.091462e+003;9.359533e-002
3.093391e+003;9.338292e-002
3.095320e+003;9.312940e-002
3.097248e+003;9.280717e-002
3.099177e+003;9.278350e-002
3.101105e+003;9.270719e-002
3.103034e+003;9.225622e-002
3.104962e+003;9.199528e-002
3.106891e+003;9.180383e-002
3.108819e+003;9.152267e-002
3.110748e+003;9.127464e-002
3.112677e+003;9.107391e-002
3.114605e+003;9.103791e-002
3.116533e+003;9.103432e-002
3.118462e+003;9.099758e-002
3.120391e+003;9.094901e-002
3.122319e+003;9.089651e-002
3.124248e+003;9.052214e-002
3.126176e+003;9.036993e-002
3.128105e+003;9.061981e-002
3.130033e+003;9.074605e-002
3.131962e+003;9.090750e-002
3.133890e+003;9.119239e-002
3.135819e+003;9.126823e-002
3.137748e+003;9.109761e-002
3.139676e+003;9.119403e-002
3.141605e+003;9.160241e-002
3.143533e+003;9.205642e-002
3.145462e+003;9.243467e-002
3.147390e+003;9.254023e-002
3.149319e+003;9.292452e-002
3.151247e+003;9.360236e-002
3.153176e+003;9.423976e-002
3.155104e+003;9.464822e-002
3.157033e+003;9.507339e-002
3.158962e+003;9.553848e-002
3.160890e+003;9.591411e-002
3.162819e+003;9.621674e-002
3.164747e+003;9.658563e-002
3.166676e+003;9.732182e-002
3.168604e+003;9.807619e-002
3.170533e+003;9.866332e-002
3.172461e+003;9.936521e-002
3.174390e+003;1.000468e-001
3.176319e+003;1.004905e-001
3.178247e+003;1.014466e-001
3.180176e+003;1.024826e-001
3.182104e+003;1.029314e-001
3.184033e+003;1.034679e-001
3.185961e+003;1.040787e-001
3.187890e+003;1.048829e-001
3.189818e+003;1.059269e-001
3.191747e+003;1.069580e-001
3.193676e+003;1.078540e-001
3.195604e+003;1.085645e-001
3.197532e+003;1.091514e-001
3.199461e+003;1.101186e-001
3.201390e+003;1.112281e-001
3.203318e+003;1.115791e-001
3.205247e+003;1.122521e-001
3.207175e+003;1.134729e-001
3.209104e+003;1.142263e-001
3.211032e+003;1.152687e-001
3.212961e+003;1.162332e-001
3.214889e+003;1.169353e-001
3.216818e+003;1.178585e-001
3.218747e+003;1.188411e-001
3.220675e+003;1.196926e-001
3.222604e+003;1.206815e-001
3.224532e+003;1.218717e-001
3.226461e+003;1.230167e-001
3.228389e+003;1.240212e-001
3.230318e+003;1.252986e-001
3.232246e+003;1.267536e-001
3.234175e+003;1.276098e-001
3.236104e+003;1.286145e-001
3.238032e+003;1.302067e-001
3.239961e+003;1.315734e-001
3.241889e+003;1.323332e-001
3.243818e+003;1.337145e-001
3.245746e+003;1.355791e-001
3.247675e+003;1.372244e-001
3.249603e+003;1.386033e-001
3.251532e+003;1.404528e-001
3.253460e+003;1.425976e-001
3.255389e+003;1.447981e-001
3.257318e+003;1.464848e-001
3.259246e+003;1.483471e-001
3.261175e+003;1.505354e-001
3.263103e+003;1.523338e-001
3.265032e+003;1.539294e-001
3.266960e+003;1.559209e-001
3.268889e+003;1.578335e-001
3.270817e+003;1.596492e-001
3.272746e+003;1.612249e-001
3.274675e+003;1.625281e-001
3.276603e+003;1.639120e-001
3.278531e+003;1.647944e-001
3.280460e+003;1.651760e-001
3.282389e+003;1.651849e-001
3.284317e+003;1.650230e-001
3.286246e+003;1.647077e-001
3.288174e+003;1.639896e-001
3.290103e+003;1.628540e-001
3.292031e+003;1.616636e-001
3.293960e+003;1.605307e-001
3.295888e+003;1.591219e-001
3.297817e+003;1.569940e-001
3.299746e+003;1.548253e-001
3.301674e+003;1.527668e-001
3.303603e+003;1.507450e-001
3.305531e+003;1.485725e-001
3.307460e+003;1.461363e-001
3.309388e+003;1.436989e-001
3.311317e+003;1.411954e-001
3.313245e+003;1.391071e-001
3.315174e+003;1.370170e-001
3.317103e+003;1.349237e-001
3.319031e+003;1.331568e-001
3.320960e+003;1.311071e-001
3.322888e+003;1.288746e-001
3.324817e+003;1.266004e-001
3.326745e+003;1.242782e-001
3.328674e+003;1.225059e-001
3.330602e+003;1.210889e-001
3.332531e+003;1.193663e-001
3.334459e+003;1.175819e-001
3.336388e+003;1.157312e-001
3.338317e+003;1.138757e-001
3.340245e+003;1.127429e-001
3.342174e+003;1.116190e-001
3.344102e+003;1.103688e-001
3.346031e+003;1.092704e-001
3.347959e+003;1.076927e-001
3.349888e+003;1.061547e-001
3.351816e+003;1.051387e-001
3.353745e+003;1.043790e-001
3.355674e+003;1.034204e-001
3.357602e+003;1.024341e-001
3.359531e+003;1.016431e-001
3.361459e+003;1.006904e-001
3.363388e+003;9.982438e-002
3.365316e+003;9.930270e-002
3.367245e+003;9.926035e-002
3.369173e+003;9.862177e-002
3.371102e+003;9.733641e-002
3.373031e+003;9.640530e-002
3.374959e+003;9.603483e-002
3.376887e+003;9.561896e-002
3.378816e+003;9.495615e-002
3.380745e+003;9.448908e-002
3.382673e+003;9.369136e-002
3.384602e+003;9.291935e-002
3.386530e+003;9.218521e-002
3.388459e+003;9.155188e-002
3.390387e+003;9.141980e-002
3.392316e+003;9.100179e-002
3.394244e+003;9.028626e-002
3.396173e+003;8.967133e-002
3.398102e+003;8.929715e-002
3.400030e+003;8.902558e-002
3.401959e+003;8.849660e-002
3.403887e+003;8.774949e-002
3.405816e+003;8.718415e-002
3.407744e+003;8.666382e-002
3.409673e+003;8.619205e-002
3.411601e+003;8.576506e-002
3.413530e+003;8.532834e-002
3.415458e+003;8.472602e-002
3.417387e+003;8.371252e-002
3.419316e+003;8.301535e-002
3.421244e+003;8.285160e-002
3.423173e+003;8.240417e-002
3.425101e+003;8.189562e-002
3.427030e+003;8.156343e-002
3.428958e+003;8.141916e-002
3.430887e+003;8.119305e-002
3.432815e+003;8.039659e-002
3.434744e+003;7.980585e-002
3.436673e+003;7.942046e-002
3.438601e+003;7.907123e-002
3.440530e+003;7.839567e-002
3.442458e+003;7.774320e-002
3.444387e+003;7.783178e-002
3.446315e+003;7.777586e-002
3.448244e+003;7.747452e-002
3.450172e+003;7.697942e-002
3.452101e+003;7.652923e-002
3.454030e+003;7.648307e-002
3.455958e+003;7.652022e-002
3.457886e+003;7.654657e-002
3.459815e+003;7.621907e-002
3.461744e+003;7.548663e-002
3.463672e+003;7.486339e-002
3.465601e+003;7.451363e-002
3.467529e+003;7.429419e-002
3.469458e+003;7.435663e-002
3.471386e+003;7.469481e-002
3.473315e+003;7.462422e-002
3.475243e+003;7.412112e-002
3.477172e+003;7.374872e-002
3.479101e+003;7.349619e-002
3.481029e+003;7.330550e-002
3.482958e+003;7.312000e-002
3.484886e+003;7.271942e-002
3.486815e+003;7.257067e-002
3.488743e+003;7.259620e-002
3.490672e+003;7.213119e-002
3.492600e+003;7.196180e-002
3.494529e+003;7.199296e-002
3.496458e+003;7.182135e-002
3.498386e+003;7.142811e-002
3.500315e+003;7.108004e-002
3.502243e+003;7.129670e-002
3.504172e+003;7.094375e-002
3.506100e+003;7.032886e-002
3.508029e+003;7.025500e-002
3.509957e+003;7.050838e-002
3.511886e+003;7.035987e-002
3.513814e+003;6.980861e-002
3.515743e+003;6.938600e-002
3.517672e+003;6.927013e-002
3.519600e+003;6.917970e-002
3.521529e+003;6.895141e-002
3.523457e+003;6.855854e-002
3.525386e+003;6.832808e-002
3.527314e+003;6.829032e-002
3.529243e+003;6.817939e-002
3.531171e+003;6.789048e-002
3.533100e+003;6.740700e-002
3.535029e+003;6.692970e-002
3.536957e+003;6.683941e-002
3.538885e+003;6.648165e-002
3.540814e+003;6.612368e-002
3.542743e+003;6.596830e-002
3.544671e+003;6.570121e-002
3.546600e+003;6.568174e-002
3.548528e+003;6.553426e-002
3.550457e+003;6.507152e-002
3.552385e+003;6.465565e-002
3.554314e+003;6.437334e-002
3.556242e+003;6.425276e-002
3.558171e+003;6.424973e-002
3.560100e+003;6.371046e-002
3.562028e+003;6.305140e-002
3.563957e+003;6.286244e-002
3.565885e+003;6.257797e-002
3.567814e+003;6.242381e-002
3.569742e+003;6.256901e-002
3.571671e+003;6.226099e-002
3.573599e+003;6.194274e-002
3.575528e+003;6.202808e-002
3.577457e+003;6.183698e-002
3.579385e+003;6.119131e-002
3.581314e+003;6.084758e-002
3.583242e+003;6.043246e-002
3.585171e+003;5.996770e-002
3.587099e+003;6.001377e-002
3.589028e+003;5.999380e-002
3.590956e+003;5.969276e-002
3.592885e+003;5.927980e-002
3.594813e+003;5.911579e-002
3.596742e+003;5.923529e-002
3.598671e+003;5.915809e-002
3.600599e+003;5.875075e-002
3.602528e+003;5.827120e-002
3.604456e+003;5.820606e-002
3.606385e+003;5.830409e-002
3.608313e+003;5.801641e-002
3.610242e+003;5.746496e-002
3.612170e+003;5.725253e-002
3.614099e+003;5.711000e-002
3.616028e+003;5.685895e-002
3.617956e+003;5.691554e-002
3.619885e+003;5.655095e-002
3.621813e+003;5.615566e-002
3.623742e+003;5.609963e-002
3.625670e+003;5.557569e-002
3.627599e+003;5.493340e-002
3.629527e+003;5.473438e-002
3.631456e+003;5.466586e-002
3.633385e+003;5.466278e-002
3.635313e+003;5.437469e-002
3.637241e+003;5.385676e-002
3.639170e+003;5.374305e-002
3.641099e+003;5.400180e-002
3.643027e+003;5.376083e-002
3.644956e+003;5.321434e-002
3.646884e+003;5.305280e-002
3.648813e+003;5.286369e-002
3.650741e+003;5.258970e-002
3.652670e+003;5.244685e-002
3.654598e+003;5.231740e-002
3.656527e+003;5.173200e-002
3.658456e+003;5.136331e-002
3.660384e+003;5.197417e-002
3.662313e+003;5.196192e-002
3.664241e+003;5.073588e-002
3.666170e+003;5.011037e-002
3.668098e+003;5.031263e-002
3.670027e+003;5.019553e-002
3.671955e+003;4.990834e-002
3.673884e+003;5.000257e-002
3.675813e+003;4.961767e-002
3.677741e+003;4.975817e-002
3.679669e+003;5.004515e-002
3.681598e+003;4.924126e-002
3.683527e+003;4.845575e-002
3.685455e+003;4.843145e-002
3.687384e+003;4.839874e-002
3.689312e+003;4.785733e-002
3.691241e+003;4.751302e-002
3.693169e+003;4.738765e-002
3.695098e+003;4.707247e-002
3.697026e+003;4.692656e-002
3.698955e+003;4.677904e-002
3.700884e+003;4.645291e-002
3.702812e+003;4.629968e-002
3.704741e+003;4.609784e-002
3.706669e+003;4.615830e-002
3.708598e+003;4.627808e-002
3.710526e+003;4.606781e-002
3.712455e+003;4.558214e-002
3.714383e+003;4.537077e-002
3.716312e+003;4.555347e-002
3.718240e+003;4.562509e-002
3.720169e+003;4.548617e-002
3.722098e+003;4.535469e-002
3.724026e+003;4.533432e-002
3.725955e+003;4.512233e-002
3.727883e+003;4.485935e-002
3.729812e+003;4.490175e-002
3.731740e+003;4.484906e-002
3.733669e+003;4.488246e-002
3.735597e+003;4.485222e-002
3.737526e+003;4.459487e-002
3.739455e+003;4.471230e-002
3.741383e+003;4.494610e-002
3.743312e+003;4.497495e-002
3.745240e+003;4.427426e-002
3.747169e+003;4.428626e-002
3.749097e+003;4.477195e-002
3.751026e+003;4.452023e-002
3.752954e+003;4.390916e-002
3.754883e+003;4.383270e-002
3.756812e+003;4.435256e-002
3.758740e+003;4.445507e-002
3.760668e+003;4.374049e-002
3.762597e+003;4.365885e-002
3.764526e+003;4.407636e-002
3.766454e+003;4.425346e-002
3.768383e+003;4.407435e-002
3.770311e+003;4.388852e-002
3.772240e+003;4.429132e-002
3.774168e+003;4.467807e-002
3.776097e+003;4.450874e-002
3.778025e+003;4.416589e-002
3.779954e+003;4.415738e-002
3.781883e+003;4.413185e-002
3.783811e+003;4.418955e-002
3.785740e+003;4.432159e-002
3.787668e+003;4.438302e-002
3.789597e+003;4.402938e-002
3.791525e+003;4.385685e-002
3.793454e+003;4.399154e-002
3.795382e+003;4.423684e-002
3.797311e+003;4.443418e-002
3.799240e+003;4.414032e-002
3.801168e+003;4.373122e-002
3.803097e+003;4.402517e-002
3.805025e+003;4.433352e-002
3.806954e+003;4.413665e-002
3.808882e+003;4.411898e-002
3.810811e+003;4.406426e-002
3.812739e+003;4.395275e-002
3.814668e+003;4.395910e-002
3.816596e+003;4.432552e-002
3.818525e+003;4.467198e-002
3.820454e+003;4.435278e-002
3.822382e+003;4.414348e-002
3.824311e+003;4.447787e-002
3.826239e+003;4.449930e-002
3.828168e+003;4.445466e-002
3.830096e+003;4.450866e-002
3.832025e+003;4.433377e-002
3.833953e+003;4.448003e-002
3.835882e+003;4.489800e-002
3.837811e+003;4.489840e-002
3.839739e+003;4.430648e-002
3.841667e+003;4.397486e-002
3.843596e+003;4.393519e-002
3.845525e+003;4.406305e-002
3.847453e+003;4.452133e-002
3.849382e+003;4.487382e-002
3.851310e+003;4.481181e-002
3.853239e+003;4.458631e-002
3.855167e+003;4.470808e-002
3.857096e+003;4.529861e-002
3.859024e+003;4.563992e-002
3.860953e+003;4.548691e-002
3.862882e+003;4.494632e-002
3.864810e+003;4.460573e-002
3.866739e+003;4.473886e-002
3.868667e+003;4.505415e-002
3.870596e+003;4.515322e-002
3.872524e+003;4.499383e-002
3.874453e+003;4.516840e-002
3.876381e+003;4.522454e-002
3.878310e+003;4.542756e-002
3.880239e+003;4.545317e-002
3.882167e+003;4.524131e-002
3.884096e+003;4.551943e-002
3.886024e+003;4.563749e-002
3.887953e+003;4.585576e-002
3.889881e+003;4.588522e-002
3.891810e+003;4.558111e-002
3.893738e+003;4.545821e-002
3.895667e+003;4.562972e-002
3.897595e+003;4.582402e-002
3.899524e+003;4.580388e-002
3.901453e+003;4.584604e-002
3.903381e+003;4.597358e-002
3.905310e+003;4.585845e-002
3.907238e+003;4.570264e-002
3.909167e+003;4.567739e-002
3.911095e+003;4.604394e-002
3.913024e+003;4.647728e-002
3.914952e+003;4.630775e-002
3.916881e+003;4.620393e-002
3.918810e+003;4.616928e-002
3.920738e+003;4.617079e-002
3.922667e+003;4.628037e-002
3.924595e+003;4.603204e-002
3.926524e+003;4.593907e-002
3.928452e+003;4.602338e-002
3.930381e+003;4.636563e-002
3.932309e+003;4.678797e-002
3.934238e+003;4.704422e-002
3.936167e+003;4.672959e-002
3.938095e+003;4.635357e-002
3.940023e+003;4.620592e-002
3.941952e+003;4.620673e-002
3.943881e+003;4.640456e-002
3.945809e+003;4.652094e-002
3.947738e+003;4.671811e-002
3.949666e+003;4.680029e-002
3.951595e+003;4.650391e-002
3.953523e+003;4.654761e-002
3.955452e+003;4.689075e-002
3.957380e+003;4.685809e-002
3.959309e+003;4.652799e-002
3.961238e+003;4.676217e-002
3.963166e+003;4.717536e-002
3.965095e+003;4.708835e-002
3.967023e+003;4.695576e-002
3.968952e+003;4.698917e-002
3.970880e+003;4.686159e-002
3.972809e+003;4.716967e-002
3.974737e+003;4.729468e-002
3.976666e+003;4.700549e-002
3.978594e+003;4.695543e-002
3.980523e+003;4.730492e-002
3.982452e+003;4.730037e-002
3.984380e+003;4.695594e-002
3.986309e+003;4.718740e-002
3.988237e+003;4.754189e-002
3.990166e+003;4.746570e-002
3.992094e+003;4.721256e-002
3.994023e+003;4.718796e-002
3.995951e+003;4.720362e-002
3.997880e+003;4.714648e-002
3.999809e+003;4.708931e-002
4.001737e+003;0.000000e+000
