3.992094e+002;0.000000e+000
4.011380e+002;0.000000e+000
4.030665e+002;0.000000e+000
4.049951e+002;0.000000e+000
4.069236e+002;0.000000e+000
4.088522e+002;0.000000e+000
4.107807e+002;0.000000e+000
4.127093e+002;0.000000e+000
4.146378e+002;0.000000e+000
4.165664e+002;0.000000e+000
4.184949e+002;0.000000e+000
4.204235e+002;0.000000e+000
4.223520e+002;0.000000e+000
4.242806e+002;0.000000e+000
4.262091e+002;0.000000e+000
4.281377e+002;0.000000e+000
4.300662e+002;0.000000e+000
4.319948e+002;0.000000e+000
4.339233e+002;0.000000e+000
4.358519e+002;0.000000e+000
4.377804e+002;0.000000e+000
4.397090e+002;0.000000e+000
4.416375e+002;0.000000e+000
4.435660e+002;0.000000e+000
4.454946e+002;0.000000e+000
4.474232e+002;0.000000e+000
4.493517e+002;0.000000e+000
4.512802e+002;0.000000e+000
4.532088e+002;0.000000e+000
4.551373e+002;0.000000e+000
4.570659e+002;0.000000e+000
4.589944e+002;0.000000e+000
4.609230e+002;0.000000e+000
4.628515e+002;0.000000e+000
4.647801e+002;0.000000e+000
4.667086e+002;0.000000e+000
4.686372e+002;0.000000e+000
4.705657e+002;0.000000e+000
4.724943e+002;0.000000e+000
4.744228e+002;0.000000e+000
4.763513e+002;0.000000e+000
4.782799e+002;0.000000e+000
4.802085e+002;0.000000e+000
4.821370e+002;0.000000e+000
4.840656e+002;0.000000e+000
4.859941e+002;0.000000e+000
4.879226e+002;0.000000e+000
4.898512e+002;0.000000e+000
4.917798e+002;0.000000e+000
4.937083e+002;0.000000e+000
4.956368e+002;0.000000e+000
4.975654e+002;0.000000e+000
4.994939e+002;0.000000e+000
5.014225e+002;0.000000e+000
5.033510e+002;0.000000e+000
5.052796e+002;0.000000e+000
5.072081e+002;0.000000e+000
5.091367e+002;0.000000e+000
5.110652e+002;0.000000e+000
5.129938e+002;0.000000e+000
5.149223e+002;0.000000e+000
5.168509e+002;0.000000e+000
5.187794e+002;0.000000e+000
5.207079e+002;0.000000e+000
5.226365e+002;0.000000e+000
5.245651e+002;0.000000e+000
5.264936e+002;0.000000e+000
5.284222e+002;0.000000e+000
5.303507e+002;0.000000e+000
5.322792e+002;0.000000e+000
5.342078e+002;0.000000e+000
5.361364e+002;0.000000e+000
5.380649e+002;0.000000e+000
5.399935e+002;0.000000e+000
5.419220e+002;0.000000e+000
5.438505e+002;0.000000e+000
5.457791e+002;0.000000e+000
5.477076e+002;0.000000e+000
5.496362e+002;0.000000e+000
5.515648e+002;0.000000e+000
5.534933e+002;0.000000e+000
5.554218e+002;0.000000e+000
5.573504e+002;0.000000e+000
5.592789e+002;0.000000e+000
5.612075e+002;0.000000e+000
5.631360e+002;0.000000e+000
5.650646e+002;0.000000e+000
5.669931e+002;0.000000e+000
5.689217e+002;0.000000e+000
5.708502e+002;0.000000e+000
5.727787e+002;0.000000e+000
5.747073e+002;0.000000e+000
5.766359e+002;0.000000e+000
5.785644e+002;0.000000e+000
5.804930e+002;0.000000e+000
5.824215e+002;0.000000e+000
5.843500e+002;0.000000e+000
5.862786e+002;0.000000e+000
5.882072e+002;0.000000e+000
5.901357e+002;0.000000e+000
5.920643e+002;0.000000e+000
5.939928e+002;0.000000e+000
5.959213e+002;0.000000e+000
5.978499e+002;0.000000e+000
5.997784e+002;1.496184e-001
6.017070e+002;1.587259e-001
6.036355e+002;1.638537e-001
6.055641e+002;1.599465e-001
6.074926e+002;1.575823e-001
6.094211e+002;1.623779e-001
6.113497e+002;1.606676e-001
6.132783e+002;1.577458e-001
6.152068e+002;1.603157e-001
6.171354e+002;1.618572e-001
6.190639e+002;1.610272e-001
6.209924e+002;1.577389e-001
6.229210e+002;1.540669e-001
6.248495e+002;1.534251e-001
6.267781e+002;1.555752e-001
6.287067e+002;1.567463e-001
6.306352e+002;1.537031e-001
6.325637e+002;1.525249e-001
6.344923e+002;1.512704e-001
6.364208e+002;1.473571e-001
6.383494e+002;1.463620e-001
6.402780e+002;1.522152e-001
6.422065e+002;1.521322e-001
6.441350e+002;1.467479e-001
6.460636e+002;1.434500e-001
6.479921e+002;1.442874e-001
6.499207e+002;1.451155e-001
6.518492e+002;1.444607e-001
6.537778e+002;1.449162e-001
6.557063e+002;1.430386e-001
6.576349e+002;1.409630e-001
6.595634e+002;1.403286e-001
6.614919e+002;1.399272e-001
6.634205e+002;1.404233e-001
6.653491e+002;1.410475e-001
6.672776e+002;1.415918e-001
6.692062e+002;1.408496e-001
6.711347e+002;1.405570e-001
6.730632e+002;1.412109e-001
6.749918e+002;1.405540e-001
6.769203e+002;1.393539e-001
6.788489e+002;1.388154e-001
6.807775e+002;1.392762e-001
6.827060e+002;1.386018e-001
6.846345e+002;1.371814e-001
6.865631e+002;1.363809e-001
6.884916e+002;1.359096e-001
6.904202e+002;1.353551e-001
6.923488e+002;1.347545e-001
6.942773e+002;1.342559e-001
6.962058e+002;1.334766e-001
6.981344e+002;1.317456e-001
7.000629e+002;1.301890e-001
7.019915e+002;1.283541e-001
7.039200e+002;1.265965e-001
7.058486e+002;1.261647e-001
7.077771e+002;1.248253e-001
7.097057e+002;1.227926e-001
7.116342e+002;1.215178e-001
7.135627e+002;1.206200e-001
7.154913e+002;1.190123e-001
7.174199e+002;1.169713e-001
7.193484e+002;1.155902e-001
7.212770e+002;1.147705e-001
7.232055e+002;1.136391e-001
7.251340e+002;1.112469e-001
7.270626e+002;1.082817e-001
7.289911e+002;1.067901e-001
7.309197e+002;1.056723e-001
7.328483e+002;1.032995e-001
7.347768e+002;1.014495e-001
7.367053e+002;9.989557e-002
7.386339e+002;9.779061e-002
7.405624e+002;9.623655e-002
7.424910e+002;9.432243e-002
7.444196e+002;9.230380e-002
7.463481e+002;9.190364e-002
7.482766e+002;9.035716e-002
7.502052e+002;8.843347e-002
7.521337e+002;8.741027e-002
7.540623e+002;8.674583e-002
7.559908e+002;8.574892e-002
7.579194e+002;8.526181e-002
7.598479e+002;8.447883e-002
7.617765e+002;8.385437e-002
7.637050e+002;8.323101e-002
7.656335e+002;8.259656e-002
7.675621e+002;8.179181e-002
7.694907e+002;8.022697e-002
7.714192e+002;7.923523e-002
7.733478e+002;7.852952e-002
7.752763e+002;7.696008e-002
7.772048e+002;7.516052e-002
7.791334e+002;7.383683e-002
7.810620e+002;7.352252e-002
7.829905e+002;7.394733e-002
7.849191e+002;7.313239e-002
7.868476e+002;7.274724e-002
7.887761e+002;7.247481e-002
7.907047e+002;7.176413e-002
7.926332e+002;7.144333e-002
7.945618e+002;7.082166e-002
7.964903e+002;7.021247e-002
7.984189e+002;6.973600e-002
8.003474e+002;6.971636e-002
8.022759e+002;7.034811e-002
8.042045e+002;7.024211e-002
8.061331e+002;7.001676e-002
8.080616e+002;7.047303e-002
8.099902e+002;7.156647e-002
8.119187e+002;7.186584e-002
8.138472e+002;7.174751e-002
8.157758e+002;7.192203e-002
8.177043e+002;7.224263e-002
8.196329e+002;7.192105e-002
8.215615e+002;7.183379e-002
8.234900e+002;7.255426e-002
8.254185e+002;7.309624e-002
8.273471e+002;7.328358e-002
8.292756e+002;7.280291e-002
8.312042e+002;7.212634e-002
8.331328e+002;7.119011e-002
8.350613e+002;7.020569e-002
8.369898e+002;6.969290e-002
8.389184e+002;6.963369e-002
8.408469e+002;6.928855e-002
8.427755e+002;6.838893e-002
8.447040e+002;6.857169e-002
8.466326e+002;6.888703e-002
8.485611e+002;6.896927e-002
8.504897e+002;6.963389e-002
8.524182e+002;7.004962e-002
8.543467e+002;6.949723e-002
8.562753e+002;6.841930e-002
8.582039e+002;6.715566e-002
8.601324e+002;6.584705e-002
8.620610e+002;6.448541e-002
8.639895e+002;6.364451e-002
8.659180e+002;6.322099e-002
8.678466e+002;6.284685e-002
8.697751e+002;6.240660e-002
8.717037e+002;6.198317e-002
8.736323e+002;6.206531e-002
8.755608e+002;6.214559e-002
8.774893e+002;6.205331e-002
8.794179e+002;6.226133e-002
8.813464e+002;6.256530e-002
8.832750e+002;6.263235e-002
8.852036e+002;6.292043e-002
8.871321e+002;6.346090e-002
8.890606e+002;6.367267e-002
8.909892e+002;6.285594e-002
8.929177e+002;6.239589e-002
8.948463e+002;6.260189e-002
8.967748e+002;6.267568e-002
8.987034e+002;6.257514e-002
9.006319e+002;6.229743e-002
9.025605e+002;6.200435e-002
9.044890e+002;6.197633e-002
9.064175e+002;6.245901e-002
9.083461e+002;6.298450e-002
9.102747e+002;6.344783e-002
9.122032e+002;6.405946e-002
9.141318e+002;6.461646e-002
9.160603e+002;6.516129e-002
9.179888e+002;6.591546e-002
9.199174e+002;6.714301e-002
9.218459e+002;6.841880e-002
9.237745e+002;6.948040e-002
9.257031e+002;6.998507e-002
9.276316e+002;7.019603e-002
9.295601e+002;7.045627e-002
9.314887e+002;7.042366e-002
9.334172e+002;7.030872e-002
9.353458e+002;7.055005e-002
9.372744e+002;7.091449e-002
9.392029e+002;7.130704e-002
9.411314e+002;7.144314e-002
9.430600e+002;7.162300e-002
9.449885e+002;7.184923e-002
9.469171e+002;7.212275e-002
9.488456e+002;7.265671e-002
9.507742e+002;7.377098e-002
9.527027e+002;7.446175e-002
9.546313e+002;7.477348e-002
9.565598e+002;7.548001e-002
9.584883e+002;7.647438e-002
9.604169e+002;7.755199e-002
9.623455e+002;7.857391e-002
9.642740e+002;7.950942e-002
9.662026e+002;8.048611e-002
9.681311e+002;8.168090e-002
9.700596e+002;8.309165e-002
9.719882e+002;8.441825e-002
9.739167e+002;8.514488e-002
9.758453e+002;8.516988e-002
9.777739e+002;8.476766e-002
9.797024e+002;8.436139e-002
9.816309e+002;8.414666e-002
9.835595e+002;8.400628e-002
9.854880e+002;8.398457e-002
9.874166e+002;8.468305e-002
9.893452e+002;8.586095e-002
9.912737e+002;8.682542e-002
9.932022e+002;8.742555e-002
9.951307e+002;8.786739e-002
9.970593e+002;8.791973e-002
9.989879e+002;8.713377e-002
1.000916e+003;8.675954e-002
1.002845e+003;8.656716e-002
1.004773e+003;8.601885e-002
1.006702e+003;8.594967e-002
1.008631e+003;8.607407e-002
1.010559e+003;8.625666e-002
1.012488e+003;8.627433e-002
1.014416e+003;8.621407e-002
1.016345e+003;8.620126e-002
1.018273e+003;8.552901e-002
1.020202e+003;8.496442e-002
1.022130e+003;8.517105e-002
1.024059e+003;8.584593e-002
1.025988e+003;8.711870e-002
1.027916e+003;8.845926e-002
1.029845e+003;8.954328e-002
1.031773e+003;9.045248e-002
1.033702e+003;9.181222e-002
1.035630e+003;9.335269e-002
1.037559e+003;9.414008e-002
1.039487e+003;9.492568e-002
1.041416e+003;9.582156e-002
1.043344e+003;9.598978e-002
1.045273e+003;9.614244e-002
1.047202e+003;9.662817e-002
1.049130e+003;9.738214e-002
1.051059e+003;9.838075e-002
1.052987e+003;9.931969e-002
1.054916e+003;1.000972e-001
1.056844e+003;1.004030e-001
1.058773e+003;1.011081e-001
1.060701e+003;1.024760e-001
1.062630e+003;1.031667e-001
1.064558e+003;1.029123e-001
1.066487e+003;1.032276e-001
1.068416e+003;1.036955e-001
1.070344e+003;1.035467e-001
1.072273e+003;1.032191e-001
1.074201e+003;1.021787e-001
1.076130e+003;1.005316e-001
1.078058e+003;9.875698e-002
1.079987e+003;9.694083e-002
1.081915e+003;9.546067e-002
1.083844e+003;9.415074e-002
1.085773e+003;9.252281e-002
1.087701e+003;9.143616e-002
1.089630e+003;9.076169e-002
1.091558e+003;8.969361e-002
1.093487e+003;8.874454e-002
1.095415e+003;8.817587e-002
1.097344e+003;8.808337e-002
1.099272e+003;8.835805e-002
1.101201e+003;8.843867e-002
1.103129e+003;8.872077e-002
1.105058e+003;8.858049e-002
1.106987e+003;8.801094e-002
1.108915e+003;8.744541e-002
1.110844e+003;8.682007e-002
1.112772e+003;8.640849e-002
1.114701e+003;8.591615e-002
1.116629e+003;8.571868e-002
1.118558e+003;8.556436e-002
1.120486e+003;8.516032e-002
1.122415e+003;8.482163e-002
1.124344e+003;8.458139e-002
1.126272e+003;8.437435e-002
1.128201e+003;8.450897e-002
1.130129e+003;8.505053e-002
1.132058e+003;8.536944e-002
1.133986e+003;8.558788e-002
1.135915e+003;8.629013e-002
1.137843e+003;8.745830e-002
1.139772e+003;8.863445e-002
1.141700e+003;8.935227e-002
1.143629e+003;9.004962e-002
1.145557e+003;9.130637e-002
1.147486e+003;9.213917e-002
1.149415e+003;9.266474e-002
1.151343e+003;9.336489e-002
1.153272e+003;9.411370e-002
1.155200e+003;9.495804e-002
1.157129e+003;9.600276e-002
1.159057e+003;9.674959e-002
1.160986e+003;9.716041e-002
1.162914e+003;9.746694e-002
1.164843e+003;9.767222e-002
1.166771e+003;9.824131e-002
1.168700e+003;9.880996e-002
1.170629e+003;9.910734e-002
1.172557e+003;9.893150e-002
1.174486e+003;9.802993e-002
1.176414e+003;9.704708e-002
1.178343e+003;9.621248e-002
1.180271e+003;9.531914e-002
1.182200e+003;9.476669e-002
1.184128e+003;9.504980e-002
1.186057e+003;9.578479e-002
1.187986e+003;9.665003e-002
1.189914e+003;9.773032e-002
1.191843e+003;9.904973e-002
1.193771e+003;1.005332e-001
1.195700e+003;1.019908e-001
1.197628e+003;1.037899e-001
1.199557e+003;1.059198e-001
1.201485e+003;1.083856e-001
1.203414e+003;1.112170e-001
1.205343e+003;1.141246e-001
1.207271e+003;1.168196e-001
1.209200e+003;1.192840e-001
1.211128e+003;1.217884e-001
1.213057e+003;1.242836e-001
1.214985e+003;1.264821e-001
1.216914e+003;1.283665e-001
1.218842e+003;1.303428e-001
1.220771e+003;1.323335e-001
1.222699e+003;1.339436e-001
1.224628e+003;1.350660e-001
1.226557e+003;1.356962e-001
1.228485e+003;1.361140e-001
1.230414e+003;1.363533e-001
1.232342e+003;1.360007e-001
1.234271e+003;1.351404e-001
1.236199e+003;1.345144e-001
1.238128e+003;1.335935e-001
1.240056e+003;1.324947e-001
1.241985e+003;1.312835e-001
1.243913e+003;1.303724e-001
1.245842e+003;1.299401e-001
1.247771e+003;1.296312e-001
1.249699e+003;1.293255e-001
1.251628e+003;1.288212e-001
1.253556e+003;1.283880e-001
1.255485e+003;1.280552e-001
1.257413e+003;1.277585e-001
1.259342e+003;1.272961e-001
1.261270e+003;1.262775e-001
1.263199e+003;1.246778e-001
1.265127e+003;1.225242e-001
1.267056e+003;1.202250e-001
1.268985e+003;1.178125e-001
1.270913e+003;1.153407e-001
1.272842e+003;1.129207e-001
1.274770e+003;1.107556e-001
1.276699e+003;1.089419e-001
1.278627e+003;1.075930e-001
1.280556e+003;1.063864e-001
1.282484e+003;1.050743e-001
1.284413e+003;1.039576e-001
1.286342e+003;1.031610e-001
1.288270e+003;1.025556e-001
1.290199e+003;1.020895e-001
1.292127e+003;1.018879e-001
1.294056e+003;1.015788e-001
1.295984e+003;1.010796e-001
1.297913e+003;1.006827e-001
1.299841e+003;1.003516e-001
1.301770e+003;1.000101e-001
1.303698e+003;9.958869e-002
1.305627e+003;9.928562e-002
1.307556e+003;9.916004e-002
1.309484e+003;9.878505e-002
1.311413e+003;9.809493e-002
1.313341e+003;9.749693e-002
1.315270e+003;9.707750e-002
1.317198e+003;9.694713e-002
1.319127e+003;9.709822e-002
1.321055e+003;9.705815e-002
1.322984e+003;9.706876e-002
1.324912e+003;9.718996e-002
1.326841e+003;9.730631e-002
1.328770e+003;9.764717e-002
1.330698e+003;9.782162e-002
1.332627e+003;9.763484e-002
1.334555e+003;9.736709e-002
1.336484e+003;9.726403e-002
1.338412e+003;9.699307e-002
1.340341e+003;9.654499e-002
1.342269e+003;9.636323e-002
1.344198e+003;9.631658e-002
1.346126e+003;9.621169e-002
1.348055e+003;9.612739e-002
1.349984e+003;9.608059e-002
1.351912e+003;9.606653e-002
1.353841e+003;9.627079e-002
1.355769e+003;9.685472e-002
1.357698e+003;9.764040e-002
1.359626e+003;9.880523e-002
1.361555e+003;1.003265e-001
1.363483e+003;1.018740e-001
1.365412e+003;1.031048e-001
1.367341e+003;1.038830e-001
1.369269e+003;1.043062e-001
1.371198e+003;1.041180e-001
1.373126e+003;1.035508e-001
1.375055e+003;1.030938e-001
1.376983e+003;1.029972e-001
1.378912e+003;1.028512e-001
1.380840e+003;1.026089e-001
1.382769e+003;1.027136e-001
1.384698e+003;1.030633e-001
1.386626e+003;1.032250e-001
1.388555e+003;1.033316e-001
1.390483e+003;1.034138e-001
1.392412e+003;1.033139e-001
1.394340e+003;1.031239e-001
1.396269e+003;1.030910e-001
1.398197e+003;1.034497e-001
1.400126e+003;1.037145e-001
1.402054e+003;1.038586e-001
1.403983e+003;1.042960e-001
1.405911e+003;1.047621e-001
1.407840e+003;1.049790e-001
1.409769e+003;1.052346e-001
1.411697e+003;1.054059e-001
1.413626e+003;1.055332e-001
1.415554e+003;1.058066e-001
1.417483e+003;1.059369e-001
1.419411e+003;1.061429e-001
1.421340e+003;1.067825e-001
1.423268e+003;1.080087e-001
1.425197e+003;1.098518e-001
1.427125e+003;1.121387e-001
1.429054e+003;1.147263e-001
1.430983e+003;1.178504e-001
1.432911e+003;1.213927e-001
1.434840e+003;1.247677e-001
1.436768e+003;1.274256e-001
1.438697e+003;1.293215e-001
1.440625e+003;1.305305e-001
1.442554e+003;1.313696e-001
1.444482e+003;1.315562e-001
1.446411e+003;1.308846e-001
1.448340e+003;1.293944e-001
1.450268e+003;1.271401e-001
1.452197e+003;1.242864e-001
1.454125e+003;1.214682e-001
1.456054e+003;1.186879e-001
1.457982e+003;1.159979e-001
1.459911e+003;1.142527e-001
1.461839e+003;1.131333e-001
1.463768e+003;1.123053e-001
1.465697e+003;1.117540e-001
1.467625e+003;1.117494e-001
1.469554e+003;1.123013e-001
1.471482e+003;1.130099e-001
1.473411e+003;1.137826e-001
1.475339e+003;1.153258e-001
1.477268e+003;1.175192e-001
1.479196e+003;1.198211e-001
1.481125e+003;1.224364e-001
1.483053e+003;1.255868e-001
1.484982e+003;1.292799e-001
1.486911e+003;1.333851e-001
1.488839e+003;1.377566e-001
1.490768e+003;1.421164e-001
1.492696e+003;1.466371e-001
1.494625e+003;1.511339e-001
1.496553e+003;1.556007e-001
1.498482e+003;1.600419e-001
1.500410e+003;1.638970e-001
1.502339e+003;1.674833e-001
1.504267e+003;1.709848e-001
1.506196e+003;1.741967e-001
1.508125e+003;1.769115e-001
1.510053e+003;1.792740e-001
1.511982e+003;1.813547e-001
1.513910e+003;1.823538e-001
1.515839e+003;1.816619e-001
1.517767e+003;1.791586e-001
1.519696e+003;1.754532e-001
1.521624e+003;1.717674e-001
1.523553e+003;1.686095e-001
1.525481e+003;1.658719e-001
1.527410e+003;1.632599e-001
1.529339e+003;1.605008e-001
1.531267e+003;1.581870e-001
1.533196e+003;1.560370e-001
1.535124e+003;1.537546e-001
1.537053e+003;1.514125e-001
1.538981e+003;1.486506e-001
1.540910e+003;1.459686e-001
1.542838e+003;1.433290e-001
1.544767e+003;1.409228e-001
1.546695e+003;1.389896e-001
1.548624e+003;1.364615e-001
1.550553e+003;1.337619e-001
1.552481e+003;1.311765e-001
1.554410e+003;1.286431e-001
1.556338e+003;1.259154e-001
1.558267e+003;1.231547e-001
1.560195e+003;1.202074e-001
1.562124e+003;1.173923e-001
1.564052e+003;1.147205e-001
1.565981e+003;1.117583e-001
1.567910e+003;1.093034e-001
1.569838e+003;1.073556e-001
1.571767e+003;1.057401e-001
1.573695e+003;1.044873e-001
1.575624e+003;1.036289e-001
1.577552e+003;1.033903e-001
1.579481e+003;1.034502e-001
1.581409e+003;1.035500e-001
1.583338e+003;1.041254e-001
1.585266e+003;1.057150e-001
1.587195e+003;1.080870e-001
1.589124e+003;1.109506e-001
1.591052e+003;1.143179e-001
1.592981e+003;1.179957e-001
1.594909e+003;1.217985e-001
1.596838e+003;1.262345e-001
1.598766e+003;1.314765e-001
1.600695e+003;1.371450e-001
1.602623e+003;1.437390e-001
1.604552e+003;1.514811e-001
1.606480e+003;1.597452e-001
1.608409e+003;1.682042e-001
1.610338e+003;1.767254e-001
1.612266e+003;1.851059e-001
1.614195e+003;1.926250e-001
1.616123e+003;1.985990e-001
1.618052e+003;2.033855e-001
1.619980e+003;2.066436e-001
1.621909e+003;2.079367e-001
1.623837e+003;2.073643e-001
1.625766e+003;2.051276e-001
1.627694e+003;2.013405e-001
1.629623e+003;1.968720e-001
1.631552e+003;1.921393e-001
1.633480e+003;1.871212e-001
1.635409e+003;1.818225e-001
1.637337e+003;1.765099e-001
1.639266e+003;1.718391e-001
1.641194e+003;1.675027e-001
1.643123e+003;1.633725e-001
1.645051e+003;1.595050e-001
1.646980e+003;1.557453e-001
1.648909e+003;1.520990e-001
1.650837e+003;1.486157e-001
1.652766e+003;1.449436e-001
1.654694e+003;1.411915e-001
1.656623e+003;1.371283e-001
1.658551e+003;1.331415e-001
1.660480e+003;1.296892e-001
1.662408e+003;1.261647e-001
1.664337e+003;1.227293e-001
1.666266e+003;1.194876e-001
1.668194e+003;1.165578e-001
1.670123e+003;1.134909e-001
1.672051e+003;1.105282e-001
1.673980e+003;1.079025e-001
1.675908e+003;1.053541e-001
1.677837e+003;1.028750e-001
1.679765e+003;1.002832e-001
1.681694e+003;9.792701e-002
1.683622e+003;9.577946e-002
1.685551e+003;9.359365e-002
1.687479e+003;9.192809e-002
1.689408e+003;9.072907e-002
1.691337e+003;8.953278e-002
1.693265e+003;8.851939e-002
1.695194e+003;8.760291e-002
1.697122e+003;8.667491e-002
1.699051e+003;8.519580e-002
1.700979e+003;8.162404e-002
1.702908e+003;7.637177e-002
1.704836e+003;7.055020e-002
1.706765e+003;6.478991e-002
1.708693e+003;5.945070e-002
1.710622e+003;5.510602e-002
1.712551e+003;5.174895e-002
1.714479e+003;4.915906e-002
1.716408e+003;4.710412e-002
1.718336e+003;4.538313e-002
1.720265e+003;4.375328e-002
1.722193e+003;4.229918e-002
1.724122e+003;4.127532e-002
1.726050e+003;4.037020e-002
1.727979e+003;3.942379e-002
1.729908e+003;3.853980e-002
1.731836e+003;3.777741e-002
1.733765e+003;3.686194e-002
1.735693e+003;3.602288e-002
1.737622e+003;3.554971e-002
1.739550e+003;3.481806e-002
1.741479e+003;3.407636e-002
1.743407e+003;3.375949e-002
1.745336e+003;3.322331e-002
1.747265e+003;3.249261e-002
1.749193e+003;3.206125e-002
1.751122e+003;3.163895e-002
1.753050e+003;3.126335e-002
1.754979e+003;3.087537e-002
1.756907e+003;3.047664e-002
1.758836e+003;3.021602e-002
1.760764e+003;2.988874e-002
1.762693e+003;2.952706e-002
1.764621e+003;2.935831e-002
1.766550e+003;2.919009e-002
1.768479e+003;2.897185e-002
1.770407e+003;2.882786e-002
1.772336e+003;2.845191e-002
1.774264e+003;2.814640e-002
1.776193e+003;2.809273e-002
1.778121e+003;2.806873e-002
1.780050e+003;2.801784e-002
1.781978e+003;2.758232e-002
1.783907e+003;2.710859e-002
1.785835e+003;2.689273e-002
1.787764e+003;2.666983e-002
1.789693e+003;2.647976e-002
1.791621e+003;2.633824e-002
1.793550e+003;2.611326e-002
1.795478e+003;2.595263e-002
1.797407e+003;2.573140e-002
1.799335e+003;2.545274e-002
1.801264e+003;2.527250e-002
1.803192e+003;2.520034e-002
1.805121e+003;2.511916e-002
1.807049e+003;2.505675e-002
1.808978e+003;2.478325e-002
1.810907e+003;2.442646e-002
1.812835e+003;2.418972e-002
1.814764e+003;2.406043e-002
1.816692e+003;2.389457e-002
1.818621e+003;2.365861e-002
1.820549e+003;2.342124e-002
1.822478e+003;2.335515e-002
1.824406e+003;2.339931e-002
1.826335e+003;2.338658e-002
1.828264e+003;2.310096e-002
1.830192e+003;2.263282e-002
1.832121e+003;2.233743e-002
1.834049e+003;2.217142e-002
1.835978e+003;2.199607e-002
1.837906e+003;2.192619e-002
1.839835e+003;2.182614e-002
1.841763e+003;2.153284e-002
1.843692e+003;2.127171e-002
1.845620e+003;2.122279e-002
1.847549e+003;2.112924e-002
1.849478e+003;2.109348e-002
1.851406e+003;2.093059e-002
1.853335e+003;2.058751e-002
1.855263e+003;2.049840e-002
1.857192e+003;2.053821e-002
1.859120e+003;2.058838e-002
1.861049e+003;2.054203e-002
1.862977e+003;2.047902e-002
1.864906e+003;2.052032e-002
1.866834e+003;2.052689e-002
1.868763e+003;2.040362e-002
1.870692e+003;2.028154e-002
1.872620e+003;2.013182e-002
1.874549e+003;1.999413e-002
1.876477e+003;1.995732e-002
1.878406e+003;2.012058e-002
1.880334e+003;2.029626e-002
1.882263e+003;2.020298e-002
1.884191e+003;1.996582e-002
1.886120e+003;1.980439e-002
1.888048e+003;1.975175e-002
1.889977e+003;1.979034e-002
1.891906e+003;1.965668e-002
1.893834e+003;1.942017e-002
1.895763e+003;1.934239e-002
1.897691e+003;1.926278e-002
1.899620e+003;1.903161e-002
1.901548e+003;1.893299e-002
1.903477e+003;1.892683e-002
1.905405e+003;1.902631e-002
1.907334e+003;1.904428e-002
1.909262e+003;1.883222e-002
1.911191e+003;1.859201e-002
1.913120e+003;1.859439e-002
1.915048e+003;1.874714e-002
1.916977e+003;1.894480e-002
1.918905e+003;1.899796e-002
1.920834e+003;1.900063e-002
1.922762e+003;1.898197e-002
1.924691e+003;1.908423e-002
1.926619e+003;1.914815e-002
1.928548e+003;1.906235e-002
1.930477e+003;1.889600e-002
1.932405e+003;1.880634e-002
1.934334e+003;1.881402e-002
1.936262e+003;1.887336e-002
1.938191e+003;1.892763e-002
1.940119e+003;1.882720e-002
1.942048e+003;1.874444e-002
1.943976e+003;1.880073e-002
1.945905e+003;1.874392e-002
1.947833e+003;1.871822e-002
1.949762e+003;1.873431e-002
1.951691e+003;1.884035e-002
1.953619e+003;1.906467e-002
1.955548e+003;1.906845e-002
1.957476e+003;1.883900e-002
1.959405e+003;1.865461e-002
1.961333e+003;1.859844e-002
1.963262e+003;1.858395e-002
1.965190e+003;1.864288e-002
1.967119e+003;1.869134e-002
1.969047e+003;1.879769e-002
1.970976e+003;1.872853e-002
1.972905e+003;1.862905e-002
1.974833e+003;1.864306e-002
1.976762e+003;1.871127e-002
1.978690e+003;1.865509e-002
1.980619e+003;1.840229e-002
1.982547e+003;1.823021e-002
1.984476e+003;1.836406e-002
1.986404e+003;1.851766e-002
1.988333e+003;1.865198e-002
1.990261e+003;1.866561e-002
1.992190e+003;1.859674e-002
1.994119e+003;1.858187e-002
1.996047e+003;1.856275e-002
1.997976e+003;1.842106e-002
1.999904e+003;1.826121e-002
2.001833e+003;1.821210e-002
2.003761e+003;1.822382e-002
2.005690e+003;1.830143e-002
2.007618e+003;1.832441e-002
2.009547e+003;1.822288e-002
2.011476e+003;1.806324e-002
2.013404e+003;1.793846e-002
2.015333e+003;1.800124e-002
2.017261e+003;1.818125e-002
2.019190e+003;1.809502e-002
2.021118e+003;1.795030e-002
2.023047e+003;1.797620e-002
2.024975e+003;1.796325e-002
2.026904e+003;1.798163e-002
2.028833e+003;1.800107e-002
2.030761e+003;1.805671e-002
2.032690e+003;1.794644e-002
2.034618e+003;1.791622e-002
2.036547e+003;1.792465e-002
2.038475e+003;1.789989e-002
2.040404e+003;1.784644e-002
2.042332e+003;1.784731e-002
2.044261e+003;1.774996e-002
2.046189e+003;1.788104e-002
2.048118e+003;1.807909e-002
2.050047e+003;1.809923e-002
2.051975e+003;1.804835e-002
2.053904e+003;1.813485e-002
2.055832e+003;1.794440e-002
2.057761e+003;1.752835e-002
2.059689e+003;1.742080e-002
2.061618e+003;1.758035e-002
2.063546e+003;1.759373e-002
2.065475e+003;1.758607e-002
2.067404e+003;1.779207e-002
2.069332e+003;1.778965e-002
2.071260e+003;1.768721e-002
2.073189e+003;1.778907e-002
2.075118e+003;1.811574e-002
2.077046e+003;1.826394e-002
2.078975e+003;1.808725e-002
2.080903e+003;1.788194e-002
2.082832e+003;1.783698e-002
2.084760e+003;1.802096e-002
2.086689e+003;1.804852e-002
2.088617e+003;1.785653e-002
2.090546e+003;1.766054e-002
2.092475e+003;1.752984e-002
2.094403e+003;1.750420e-002
2.096332e+003;1.769670e-002
2.098260e+003;1.764887e-002
2.100189e+003;1.743877e-002
2.102117e+003;1.745564e-002
2.104046e+003;1.753380e-002
2.105974e+003;1.741670e-002
2.107903e+003;1.737893e-002
2.109832e+003;1.754988e-002
2.111760e+003;1.741959e-002
2.113688e+003;1.716565e-002
2.115617e+003;1.708551e-002
2.117546e+003;1.705629e-002
2.119474e+003;1.706142e-002
2.121403e+003;1.707593e-002
2.123331e+003;1.710354e-002
2.125260e+003;1.723263e-002
2.127188e+003;1.744591e-002
2.129117e+003;1.747788e-002
2.131045e+003;1.729462e-002
2.132974e+003;1.717488e-002
2.134903e+003;1.697214e-002
2.136831e+003;1.690096e-002
2.138760e+003;1.693011e-002
2.140688e+003;1.681048e-002
2.142617e+003;1.670572e-002
2.144545e+003;1.670458e-002
2.146474e+003;1.682987e-002
2.148402e+003;1.681905e-002
2.150331e+003;1.663634e-002
2.152260e+003;1.659696e-002
2.154188e+003;1.663858e-002
2.156117e+003;1.675609e-002
2.158045e+003;1.679336e-002
2.159974e+003;1.669711e-002
2.161902e+003;1.651982e-002
2.163831e+003;1.637012e-002
2.165759e+003;1.642521e-002
2.167688e+003;1.651899e-002
2.169616e+003;1.652401e-002
2.171545e+003;1.666805e-002
2.173474e+003;1.683045e-002
2.175402e+003;1.669928e-002
2.177331e+003;1.654195e-002
2.179259e+003;1.636940e-002
2.181188e+003;1.629767e-002
2.183116e+003;1.634848e-002
2.185045e+003;1.629189e-002
2.186973e+003;1.629822e-002
2.188902e+003;1.636981e-002
2.190831e+003;1.618973e-002
2.192759e+003;1.605937e-002
2.194688e+003;1.608553e-002
2.196616e+003;1.611586e-002
2.198545e+003;1.611631e-002
2.200473e+003;1.609595e-002
2.202402e+003;1.620342e-002
2.204330e+003;1.617078e-002
2.206259e+003;1.624019e-002
2.208188e+003;1.650099e-002
2.210116e+003;1.631129e-002
2.212044e+003;1.605149e-002
2.213973e+003;1.597675e-002
2.215902e+003;1.584120e-002
2.217830e+003;1.575282e-002
2.219759e+003;1.582865e-002
2.221687e+003;1.605916e-002
2.223616e+003;1.595506e-002
2.225544e+003;1.569902e-002
2.227473e+003;1.577825e-002
2.229401e+003;1.584951e-002
2.231330e+003;1.579371e-002
2.233259e+003;1.560428e-002
2.235187e+003;1.547591e-002
2.237116e+003;1.561252e-002
2.239044e+003;1.564612e-002
2.240973e+003;1.556722e-002
2.242901e+003;1.547873e-002
2.244830e+003;1.544937e-002
2.246758e+003;1.567446e-002
2.248687e+003;1.595823e-002
2.250615e+003;1.590117e-002
2.252544e+003;1.554737e-002
2.254473e+003;1.539994e-002
2.256401e+003;1.557207e-002
2.258330e+003;1.564169e-002
2.260258e+003;1.556307e-002
2.262187e+003;1.552910e-002
2.264115e+003;1.556688e-002
2.266044e+003;1.558230e-002
2.267972e+003;1.548838e-002
2.269901e+003;1.537216e-002
2.271830e+003;1.534412e-002
2.273758e+003;1.565879e-002
2.275687e+003;1.564856e-002
2.277615e+003;1.533094e-002
2.279544e+003;1.544824e-002
2.281472e+003;1.569259e-002
2.283401e+003;1.567580e-002
2.285329e+003;1.562365e-002
2.287258e+003;1.569249e-002
2.289187e+003;1.571455e-002
2.291115e+003;1.584546e-002
2.293043e+003;1.602732e-002
2.294972e+003;1.602124e-002
2.296901e+003;1.593905e-002
2.298829e+003;1.591093e-002
2.300758e+003;1.591760e-002
2.302686e+003;1.596283e-002
2.304615e+003;1.598249e-002
2.306543e+003;1.590732e-002
2.308472e+003;1.570455e-002
2.310400e+003;1.557979e-002
2.312329e+003;1.558828e-002
2.314258e+003;1.574131e-002
2.316186e+003;1.582951e-002
2.318115e+003;1.581646e-002
2.320043e+003;1.593117e-002
2.321972e+003;1.600814e-002
2.323900e+003;1.599277e-002
2.325829e+003;1.586773e-002
2.327757e+003;1.583240e-002
2.329686e+003;1.595169e-002
2.331615e+003;1.586271e-002
2.333543e+003;1.578567e-002
2.335472e+003;1.590928e-002
2.337400e+003;1.586869e-002
2.339329e+003;1.574107e-002
2.341257e+003;1.557543e-002
2.343186e+003;1.540666e-002
2.345114e+003;1.557354e-002
2.347043e+003;1.567442e-002
2.348971e+003;1.559247e-002
2.350900e+003;1.574011e-002
2.352829e+003;1.590564e-002
2.354757e+003;1.587020e-002
2.356686e+003;1.586814e-002
2.358614e+003;1.608271e-002
2.360543e+003;1.622251e-002
2.362471e+003;1.604352e-002
2.364400e+003;1.577801e-002
2.366328e+003;1.571833e-002
2.368257e+003;1.570462e-002
2.370186e+003;1.586711e-002
2.372114e+003;1.593152e-002
2.374042e+003;1.582659e-002
2.375971e+003;1.590395e-002
2.377900e+003;1.584972e-002
2.379828e+003;1.586244e-002
2.381757e+003;1.602571e-002
2.383685e+003;1.596307e-002
2.385614e+003;1.596252e-002
2.387542e+003;1.624153e-002
2.389471e+003;1.633303e-002
2.391399e+003;1.660690e-002
2.393328e+003;1.658074e-002
2.395257e+003;1.644706e-002
2.397185e+003;1.653789e-002
2.399114e+003;1.685787e-002
2.401042e+003;1.710709e-002
2.402971e+003;1.725666e-002
2.404899e+003;1.726448e-002
2.406828e+003;1.719264e-002
2.408756e+003;1.723976e-002
2.410685e+003;1.731165e-002
2.412614e+003;1.763107e-002
2.414542e+003;1.778789e-002
2.416471e+003;1.766775e-002
2.418399e+003;1.764532e-002
2.420328e+003;1.785856e-002
2.422256e+003;1.812103e-002
2.424185e+003;1.835393e-002
2.426113e+003;1.842905e-002
2.428042e+003;1.841833e-002
2.429970e+003;1.866671e-002
2.431899e+003;1.875901e-002
2.433828e+003;1.855172e-002
2.435756e+003;1.855566e-002
2.437685e+003;1.887215e-002
2.439613e+003;1.900187e-002
2.441542e+003;1.895771e-002
2.443470e+003;1.901437e-002
2.445399e+003;1.907748e-002
2.447327e+003;1.902971e-002
2.449256e+003;1.879859e-002
2.451185e+003;1.879610e-002
2.453113e+003;1.873264e-002
2.455042e+003;1.878537e-002
2.456970e+003;1.881540e-002
2.458899e+003;1.865156e-002
2.460827e+003;1.890001e-002
2.462756e+003;1.909517e-002
2.464684e+003;1.913378e-002
2.466613e+003;1.916879e-002
2.468542e+003;1.921156e-002
2.470470e+003;1.937312e-002
2.472398e+003;1.947239e-002
2.474327e+003;1.944252e-002
2.476256e+003;1.942737e-002
2.478184e+003;1.940284e-002
2.480113e+003;1.933047e-002
2.482041e+003;1.948278e-002
2.483970e+003;1.954225e-002
2.485898e+003;1.932229e-002
2.487827e+003;1.921450e-002
2.489755e+003;1.912893e-002
2.491684e+003;1.891929e-002
2.493613e+003;1.893929e-002
2.495541e+003;1.922146e-002
2.497470e+003;1.937710e-002
2.499398e+003;1.947499e-002
2.501327e+003;1.956707e-002
2.503255e+003;1.961626e-002
2.505184e+003;1.994227e-002
2.507112e+003;2.008397e-002
2.509041e+003;1.976267e-002
2.510969e+003;1.964624e-002
2.512898e+003;1.992041e-002
2.514827e+003;1.986879e-002
2.516755e+003;1.967457e-002
2.518684e+003;1.955795e-002
2.520612e+003;1.965425e-002
2.522541e+003;1.969641e-002
2.524469e+003;1.967689e-002
2.526398e+003;1.999951e-002
2.528326e+003;2.025418e-002
2.530255e+003;2.022672e-002
2.532184e+003;1.987230e-002
2.534112e+003;1.961997e-002
2.536041e+003;1.984622e-002
2.537969e+003;2.017552e-002
2.539898e+003;2.015671e-002
2.541826e+003;2.003611e-002
2.543755e+003;2.009892e-002
2.545683e+003;2.023818e-002
2.547612e+003;2.049663e-002
2.549541e+003;2.077102e-002
2.551469e+003;2.077669e-002
2.553397e+003;2.071229e-002
2.555326e+003;2.075677e-002
2.557255e+003;2.086300e-002
2.559183e+003;2.077586e-002
2.561112e+003;2.090750e-002
2.563040e+003;2.117631e-002
2.564969e+003;2.136293e-002
2.566897e+003;2.162425e-002
2.568826e+003;2.164939e-002
2.570754e+003;2.157093e-002
2.572683e+003;2.180897e-002
2.574612e+003;2.194473e-002
2.576540e+003;2.201398e-002
2.578469e+003;2.222994e-002
2.580397e+003;2.254588e-002
2.582326e+003;2.265345e-002
2.584254e+003;2.267293e-002
2.586183e+003;2.279485e-002
2.588111e+003;2.278525e-002
2.590040e+003;2.266668e-002
2.591969e+003;2.275805e-002
2.593897e+003;2.328243e-002
2.595826e+003;2.379358e-002
2.597754e+003;2.396736e-002
2.599683e+003;2.401978e-002
2.601611e+003;2.389908e-002
2.603540e+003;2.384496e-002
2.605468e+003;2.410172e-002
2.607397e+003;2.434592e-002
2.609325e+003;2.437977e-002
2.611254e+003;2.421371e-002
2.613183e+003;2.418439e-002
2.615111e+003;2.426665e-002
2.617040e+003;2.437147e-002
2.618968e+003;2.444283e-002
2.620897e+003;2.450691e-002
2.622825e+003;2.462808e-002
2.624754e+003;2.471583e-002
2.626682e+003;2.459274e-002
2.628611e+003;2.445797e-002
2.630540e+003;2.446246e-002
2.632468e+003;2.451241e-002
2.634396e+003;2.440315e-002
2.636325e+003;2.442078e-002
2.638254e+003;2.449881e-002
2.640182e+003;2.451413e-002
2.642111e+003;2.462002e-002
2.644039e+003;2.452854e-002
2.645968e+003;2.445012e-002
2.647896e+003;2.461651e-002
2.649825e+003;2.484917e-002
2.651753e+003;2.490738e-002
2.653682e+003;2.474477e-002
2.655611e+003;2.469194e-002
2.657539e+003;2.485348e-002
2.659468e+003;2.487282e-002
2.661396e+003;2.487878e-002
2.663325e+003;2.469380e-002
2.665253e+003;2.468686e-002
2.667182e+003;2.516073e-002
2.669110e+003;2.545112e-002
2.671039e+003;2.537636e-002
2.672968e+003;2.536505e-002
2.674896e+003;2.553229e-002
2.676825e+003;2.571446e-002
2.678753e+003;2.581642e-002
2.680682e+003;2.608110e-002
2.682610e+003;2.634321e-002
2.684539e+003;2.628135e-002
2.686467e+003;2.627576e-002
2.688396e+003;2.636845e-002
2.690324e+003;2.664224e-002
2.692253e+003;2.695305e-002
2.694182e+003;2.707928e-002
2.696110e+003;2.721335e-002
2.698039e+003;2.738550e-002
2.699967e+003;2.755443e-002
2.701896e+003;2.770517e-002
2.703824e+003;2.776091e-002
2.705753e+003;2.765400e-002
2.707681e+003;2.753424e-002
2.709610e+003;2.766520e-002
2.711539e+003;2.794864e-002
2.713467e+003;2.828447e-002
2.715396e+003;2.840663e-002
2.717324e+003;2.835630e-002
2.719253e+003;2.849161e-002
2.721181e+003;2.879670e-002
2.723110e+003;2.902725e-002
2.725038e+003;2.916592e-002
2.726967e+003;2.922440e-002
2.728896e+003;2.949109e-002
2.730824e+003;2.988842e-002
2.732752e+003;3.022330e-002
2.734681e+003;3.028902e-002
2.736610e+003;3.036704e-002
2.738538e+003;3.050860e-002
2.740467e+003;3.043410e-002
2.742395e+003;3.040951e-002
2.744324e+003;3.051478e-002
2.746252e+003;3.069859e-002
2.748181e+003;3.084417e-002
2.750109e+003;3.107752e-002
2.752038e+003;3.131986e-002
2.753967e+003;3.126196e-002
2.755895e+003;3.120396e-002
2.757824e+003;3.143568e-002
2.759752e+003;3.186424e-002
2.761681e+003;3.205808e-002
2.763609e+003;3.193513e-002
2.765538e+003;3.190874e-002
2.767466e+003;3.216604e-002
2.769395e+003;3.243294e-002
2.771323e+003;3.255428e-002
2.773252e+003;3.252932e-002
2.775181e+003;3.245769e-002
2.777109e+003;3.251607e-002
2.779038e+003;3.269709e-002
2.780966e+003;3.310458e-002
2.782895e+003;3.334090e-002
2.784823e+003;3.347376e-002
2.786752e+003;3.357398e-002
2.788680e+003;3.353475e-002
2.790609e+003;3.363849e-002
2.792538e+003;3.388646e-002
2.794466e+003;3.418561e-002
2.796395e+003;3.417568e-002
2.798323e+003;3.406214e-002
2.800252e+003;3.428593e-002
2.802180e+003;3.473884e-002
2.804109e+003;3.479222e-002
2.806037e+003;3.468303e-002
2.807966e+003;3.481835e-002
2.809895e+003;3.496198e-002
2.811823e+003;3.502346e-002
2.813751e+003;3.504156e-002
2.815680e+003;3.516129e-002
2.817609e+003;3.546528e-002
2.819537e+003;3.583846e-002
2.821466e+003;3.594272e-002
2.823394e+003;3.595226e-002
2.825323e+003;3.582622e-002
2.827251e+003;3.599376e-002
2.829180e+003;3.616028e-002
2.831108e+003;3.638811e-002
2.833037e+003;3.699004e-002
2.834966e+003;3.723632e-002
2.836894e+003;3.714149e-002
2.838823e+003;3.746988e-002
2.840751e+003;3.804326e-002
2.842680e+003;3.859252e-002
2.844608e+003;3.930248e-002
2.846537e+003;3.985141e-002
2.848465e+003;4.025321e-002
2.850394e+003;4.064428e-002
2.852323e+003;4.095121e-002
2.854251e+003;4.139762e-002
2.856180e+003;4.187050e-002
2.858108e+003;4.218064e-002
2.860037e+003;4.261698e-002
2.861965e+003;4.295440e-002
2.863894e+003;4.321067e-002
2.865822e+003;4.355873e-002
2.867751e+003;4.407090e-002
2.869679e+003;4.491200e-002
2.871608e+003;4.545872e-002
2.873536e+003;4.554990e-002
2.875465e+003;4.565806e-002
2.877394e+003;4.569159e-002
2.879322e+003;4.539593e-002
2.881251e+003;4.528176e-002
2.883179e+003;4.532233e-002
2.885108e+003;4.502294e-002
2.887036e+003;4.464297e-002
2.888965e+003;4.464954e-002
2.890893e+003;4.499982e-002
2.892822e+003;4.545398e-002
2.894750e+003;4.542385e-002
2.896679e+003;4.535127e-002
2.898608e+003;4.557566e-002
2.900536e+003;4.571214e-002
2.902465e+003;4.600514e-002
2.904393e+003;4.642529e-002
2.906322e+003;4.677062e-002
2.908250e+003;4.699648e-002
2.910179e+003;4.723291e-002
2.912107e+003;4.726202e-002
2.914036e+003;4.764441e-002
2.915965e+003;4.814246e-002
2.917893e+003;4.852388e-002
2.919822e+003;4.892332e-002
2.921750e+003;4.901883e-002
2.923679e+003;4.933320e-002
2.925607e+003;5.003024e-002
2.927536e+003;5.060847e-002
2.929464e+003;5.100983e-002
2.931393e+003;5.168319e-002
2.933322e+003;5.172017e-002
2.935250e+003;5.162706e-002
2.937178e+003;5.181782e-002
2.939107e+003;5.136070e-002
2.941036e+003;5.078903e-002
2.942964e+003;5.055791e-002
2.944893e+003;5.036617e-002
2.946821e+003;4.989559e-002
2.948750e+003;4.918359e-002
2.950678e+003;4.881472e-002
2.952607e+003;4.883166e-002
2.954535e+003;4.871277e-002
2.956464e+003;4.848035e-002
2.958393e+003;4.855404e-002
2.960321e+003;4.878576e-002
2.962250e+003;4.908901e-002
2.964178e+003;4.924085e-002
2.966107e+003;4.900767e-002
2.968035e+003;4.892177e-002
2.969964e+003;4.909759e-002
2.971892e+003;4.920218e-002
2.973821e+003;4.878969e-002
2.975750e+003;4.837155e-002
2.977678e+003;4.813165e-002
2.979607e+003;4.797436e-002
2.981535e+003;4.795893e-002
2.983464e+003;4.795582e-002
2.985392e+003;4.763490e-002
2.987321e+003;4.729498e-002
2.989249e+003;4.702104e-002
2.991178e+003;4.685229e-002
2.993106e+003;4.671125e-002
2.995035e+003;4.646813e-002
2.996964e+003;4.624845e-002
2.998892e+003;4.591833e-002
3.000821e+003;4.548643e-002
3.002749e+003;4.531287e-002
3.004678e+003;4.521760e-002
3.006606e+003;4.512274e-002
3.008535e+003;4.498505e-002
3.010463e+003;4.480630e-002
3.012392e+003;4.487860e-002
3.014321e+003;4.496627e-002
3.016249e+003;4.487397e-002
3.018177e+003;4.498670e-002
3.020106e+003;4.509046e-002
3.022035e+003;4.518660e-002
3.023963e+003;4.549533e-002
3.025892e+003;4.585771e-002
3.027820e+003;4.604740e-002
3.029749e+003;4.617422e-002
3.031677e+003;4.657276e-002
3.033606e+003;4.702491e-002
3.035534e+003;4.727163e-002
3.037463e+003;4.761697e-002
3.039392e+003;4.829130e-002
3.041320e+003;4.841052e-002
3.043249e+003;4.832396e-002
3.045177e+003;4.869620e-002
3.047106e+003;4.914879e-002
3.049034e+003;4.948995e-002
3.050963e+003;4.963884e-002
3.052891e+003;4.988366e-002
3.054820e+003;5.011059e-002
3.056749e+003;5.048719e-002
3.058677e+003;5.080843e-002
3.060606e+003;5.085451e-002
3.062534e+003;5.087537e-002
3.064463e+003;5.107538e-002
3.066391e+003;5.124227e-002
3.068320e+003;5.104620e-002
3.070248e+003;5.130047e-002
3.072177e+003;5.162631e-002
3.074105e+003;5.139188e-002
3.076034e+003;5.134258e-002
3.077963e+003;5.140034e-002
3.079891e+003;5.151016e-002
3.081820e+003;5.173589e-002
3.083748e+003;5.166415e-002
3.085677e+003;5.133888e-002
3.087605e+003;5.102101e-002
3.089534e+003;5.081741e-002
3.091462e+003;5.072523e-002
3.093391e+003;5.069265e-002
3.095320e+003;5.047026e-002
3.097248e+003;5.012826e-002
3.099177e+003;4.983639e-002
3.101105e+003;4.994087e-002
3.103034e+003;4.962714e-002
3.104962e+003;4.886714e-002
3.106891e+003;4.867696e-002
3.108819e+003;4.878661e-002
3.110748e+003;4.891046e-002
3.112677e+003;4.895711e-002
3.114605e+003;4.893338e-002
3.116533e+003;4.876730e-002
3.118462e+003;4.874532e-002
3.120391e+003;4.867548e-002
3.122319e+003;4.850250e-002
3.124248e+003;4.845938e-002
3.126176e+003;4.853614e-002
3.128105e+003;4.885966e-002
3.130033e+003;4.899483e-002
3.131962e+003;4.873805e-002
3.133890e+003;4.849291e-002
3.135819e+003;4.853885e-002
3.137748e+003;4.891324e-002
3.139676e+003;4.930959e-002
3.141605e+003;4.935116e-002
3.143533e+003;4.948935e-002
3.145462e+003;4.997440e-002
3.147390e+003;5.006634e-002
3.149319e+003;5.006991e-002
3.151247e+003;5.016422e-002
3.153176e+003;5.046092e-002
3.155104e+003;5.088807e-002
3.157033e+003;5.139113e-002
3.158962e+003;5.172749e-002
3.160890e+003;5.208514e-002
3.162819e+003;5.266704e-002
3.164747e+003;5.311727e-002
3.166676e+003;5.332593e-002
3.168604e+003;5.362934e-002
3.170533e+003;5.393914e-002
3.172461e+003;5.461578e-002
3.174390e+003;5.558560e-002
3.176319e+003;5.629649e-002
3.178247e+003;5.648724e-002
3.180176e+003;5.640178e-002
3.182104e+003;5.659114e-002
3.184033e+003;5.686930e-002
3.185961e+003;5.737102e-002
3.187890e+003;5.823410e-002
3.189818e+003;5.911139e-002
3.191747e+003;5.934030e-002
3.193676e+003;5.963817e-002
3.195604e+003;6.025645e-002
3.197532e+003;6.080943e-002
3.199461e+003;6.149610e-002
3.201390e+003;6.232309e-002
3.203318e+003;6.283690e-002
3.205247e+003;6.322731e-002
3.207175e+003;6.361838e-002
3.209104e+003;6.411894e-002
3.211032e+003;6.478202e-002
3.212961e+003;6.541853e-002
3.214889e+003;6.623767e-002
3.216818e+003;6.707379e-002
3.218747e+003;6.744616e-002
3.220675e+003;6.794457e-002
3.222604e+003;6.857941e-002
3.224532e+003;6.922513e-002
3.226461e+003;7.009911e-002
3.228389e+003;7.113695e-002
3.230318e+003;7.171449e-002
3.232246e+003;7.200138e-002
3.234175e+003;7.292337e-002
3.236104e+003;7.413460e-002
3.238032e+003;7.528837e-002
3.239961e+003;7.591617e-002
3.241889e+003;7.653128e-002
3.243818e+003;7.729863e-002
3.245746e+003;7.815134e-002
3.247675e+003;7.940113e-002
3.249603e+003;8.107084e-002
3.251532e+003;8.213675e-002
3.253460e+003;8.320962e-002
3.255389e+003;8.453880e-002
3.257318e+003;8.556573e-002
3.259246e+003;8.700938e-002
3.261175e+003;8.851609e-002
3.263103e+003;8.982798e-002
3.265032e+003;9.120323e-002
3.266960e+003;9.260634e-002
3.268889e+003;9.379275e-002
3.270817e+003;9.518401e-002
3.272746e+003;9.632877e-002
3.274675e+003;9.701332e-002
3.276603e+003;9.768438e-002
3.278531e+003;9.826341e-002
3.280460e+003;9.828883e-002
3.282389e+003;9.826698e-002
3.284317e+003;9.848487e-002
3.286246e+003;9.880036e-002
3.288174e+003;9.870598e-002
3.290103e+003;9.780414e-002
3.292031e+003;9.702695e-002
3.293960e+003;9.671883e-002
3.295888e+003;9.574167e-002
3.297817e+003;9.432181e-002
3.299746e+003;9.319091e-002
3.301674e+003;9.227733e-002
3.303603e+003;9.081131e-002
3.305531e+003;8.905889e-002
3.307460e+003;8.768258e-002
3.309388e+003;8.627412e-002
3.311317e+003;8.491977e-002
3.313245e+003;8.369596e-002
3.315174e+003;8.223048e-002
3.317103e+003;8.056170e-002
3.319031e+003;7.889028e-002
3.320960e+003;7.763289e-002
3.322888e+003;7.642977e-002
3.324817e+003;7.519062e-002
3.326745e+003;7.403219e-002
3.328674e+003;7.288343e-002
3.330602e+003;7.144431e-002
3.332531e+003;7.023685e-002
3.334459e+003;6.940656e-002
3.336388e+003;6.862186e-002
3.338317e+003;6.755388e-002
3.340245e+003;6.633594e-002
3.342174e+003;6.492367e-002
3.344102e+003;6.396416e-002
3.346031e+003;6.315745e-002
3.347959e+003;6.216562e-002
3.349888e+003;6.141377e-002
3.351816e+003;6.108646e-002
3.353745e+003;6.027506e-002
3.355674e+003;5.913979e-002
3.357602e+003;5.896217e-002
3.359531e+003;5.880227e-002
3.361459e+003;5.767443e-002
3.363388e+003;5.661179e-002
3.365316e+003;5.594730e-002
3.367245e+003;5.564442e-002
3.369173e+003;5.600527e-002
3.371102e+003;5.601892e-002
3.373031e+003;5.562457e-002
3.374959e+003;5.493272e-002
3.376887e+003;5.415119e-002
3.378816e+003;5.385466e-002
3.380745e+003;5.349736e-002
3.382673e+003;5.308807e-002
3.384602e+003;5.274377e-002
3.386530e+003;5.220951e-002
3.388459e+003;5.176713e-002
3.390387e+003;5.114795e-002
3.392316e+003;5.073242e-002
3.394244e+003;5.030121e-002
3.396173e+003;4.985951e-002
3.398102e+003;4.985281e-002
3.400030e+003;4.966057e-002
3.401959e+003;4.903137e-002
3.403887e+003;4.862215e-002
3.405816e+003;4.836607e-002
3.407744e+003;4.789618e-002
3.409673e+003;4.744308e-002
3.411601e+003;4.718260e-002
3.413530e+003;4.712284e-002
3.415458e+003;4.684487e-002
3.417387e+003;4.648853e-002
3.419316e+003;4.616066e-002
3.421244e+003;4.578761e-002
3.423173e+003;4.531538e-002
3.425101e+003;4.488069e-002
3.427030e+003;4.476123e-002
3.428958e+003;4.456905e-002
3.430887e+003;4.424718e-002
3.432815e+003;4.392225e-002
3.434744e+003;4.321868e-002
3.436673e+003;4.285499e-002
3.438601e+003;4.304860e-002
3.440530e+003;4.252576e-002
3.442458e+003;4.235477e-002
3.444387e+003;4.239547e-002
3.446315e+003;4.202089e-002
3.448244e+003;4.188553e-002
3.450172e+003;4.178410e-002
3.452101e+003;4.117982e-002
3.454030e+003;4.044879e-002
3.455958e+003;4.051331e-002
3.457886e+003;4.069693e-002
3.459815e+003;4.079923e-002
3.461744e+003;4.067233e-002
3.463672e+003;4.043679e-002
3.465601e+003;4.032392e-002
3.467529e+003;4.006291e-002
3.469458e+003;3.964104e-002
3.471386e+003;3.940566e-002
3.473315e+003;3.947543e-002
3.475243e+003;3.919698e-002
3.477172e+003;3.869683e-002
3.479101e+003;3.856518e-002
3.481029e+003;3.867593e-002
3.482958e+003;3.867723e-002
3.484886e+003;3.870516e-002
3.486815e+003;3.885493e-002
3.488743e+003;3.858665e-002
3.490672e+003;3.814179e-002
3.492600e+003;3.811332e-002
3.494529e+003;3.801205e-002
3.496458e+003;3.765240e-002
3.498386e+003;3.752952e-002
3.500315e+003;3.743196e-002
3.502243e+003;3.694920e-002
3.504172e+003;3.673543e-002
3.506100e+003;3.660600e-002
3.508029e+003;3.676114e-002
3.509957e+003;3.684827e-002
3.511886e+003;3.679746e-002
3.513814e+003;3.650825e-002
3.515743e+003;3.603195e-002
3.517672e+003;3.557823e-002
3.519600e+003;3.530917e-002
3.521529e+003;3.521365e-002
3.523457e+003;3.517301e-002
3.525386e+003;3.497440e-002
3.527314e+003;3.459809e-002
3.529243e+003;3.467305e-002
3.531171e+003;3.491648e-002
3.533100e+003;3.454972e-002
3.535029e+003;3.401616e-002
3.536957e+003;3.339238e-002
3.538885e+003;3.298037e-002
3.540814e+003;3.316047e-002
3.542743e+003;3.342580e-002
3.544671e+003;3.328863e-002
3.546600e+003;3.319724e-002
3.548528e+003;3.298988e-002
3.550457e+003;3.245958e-002
3.552385e+003;3.193292e-002
3.554314e+003;3.187875e-002
3.556242e+003;3.195375e-002
3.558171e+003;3.146767e-002
3.560100e+003;3.097150e-002
3.562028e+003;3.090991e-002
3.563957e+003;3.078199e-002
3.565885e+003;3.037191e-002
3.567814e+003;3.007747e-002
3.569742e+003;2.993872e-002
3.571671e+003;2.958203e-002
3.573599e+003;2.933264e-002
3.575528e+003;2.916135e-002
3.577457e+003;2.876391e-002
3.579385e+003;2.830339e-002
3.581314e+003;2.795483e-002
3.583242e+003;2.762240e-002
3.585171e+003;2.743780e-002
3.587099e+003;2.773403e-002
3.589028e+003;2.770101e-002
3.590956e+003;2.712876e-002
3.592885e+003;2.701933e-002
3.594813e+003;2.684338e-002
3.596742e+003;2.644655e-002
3.598671e+003;2.606256e-002
3.600599e+003;2.591088e-002
3.602528e+003;2.571952e-002
3.604456e+003;2.521818e-002
3.606385e+003;2.481910e-002
3.608313e+003;2.426445e-002
3.610242e+003;2.386891e-002
3.612170e+003;2.376593e-002
3.614099e+003;2.336417e-002
3.616028e+003;2.271786e-002
3.617956e+003;2.204528e-002
3.619885e+003;2.174591e-002
3.621813e+003;2.167450e-002
3.623742e+003;2.116142e-002
3.625670e+003;2.089700e-002
3.627599e+003;2.104357e-002
3.629527e+003;2.038032e-002
3.631456e+003;1.961601e-002
3.633385e+003;1.952378e-002
3.635313e+003;1.893559e-002
3.637241e+003;1.808303e-002
3.639170e+003;1.750541e-002
3.641099e+003;1.713194e-002
3.643027e+003;1.667469e-002
3.644956e+003;1.617976e-002
3.646884e+003;1.590502e-002
3.648813e+003;1.594475e-002
3.650741e+003;1.576124e-002
3.652670e+003;1.511975e-002
3.654598e+003;1.474743e-002
3.656527e+003;1.419676e-002
3.658456e+003;1.374068e-002
3.660384e+003;1.337975e-002
3.662313e+003;1.250726e-002
3.664241e+003;1.179508e-002
3.666170e+003;1.148591e-002
3.668098e+003;1.102617e-002
3.670027e+003;1.047612e-002
3.671955e+003;9.908284e-003
3.673884e+003;9.673634e-003
3.675813e+003;9.475647e-003
3.677741e+003;9.152222e-003
3.679669e+003;8.545799e-003
3.681598e+003;7.856472e-003
3.683527e+003;7.502021e-003
3.685455e+003;7.329319e-003
3.687384e+003;7.240702e-003
3.689312e+003;6.991695e-003
3.691241e+003;6.568008e-003
3.693169e+003;6.003711e-003
3.695098e+003;5.892794e-003
3.697026e+003;5.869116e-003
3.698955e+003;6.285365e-003
3.700884e+003;6.027027e-003
3.702812e+003;5.533397e-003
3.704741e+003;5.523363e-003
3.706669e+003;5.432631e-003
3.708598e+003;5.343127e-003
3.710526e+003;5.437932e-003
3.712455e+003;5.419211e-003
3.714383e+003;5.307135e-003
3.716312e+003;5.016294e-003
3.718240e+003;4.788559e-003
3.720169e+003;4.820386e-003
3.722098e+003;4.428066e-003
3.724026e+003;3.922741e-003
3.725955e+003;3.850127e-003
3.727883e+003;3.797747e-003
3.729812e+003;3.751623e-003
3.731740e+003;4.017104e-003
3.733669e+003;4.230148e-003
3.735597e+003;4.554883e-003
3.737526e+003;4.401589e-003
3.739455e+003;3.953603e-003
3.741383e+003;3.348513e-003
3.743312e+003;2.907848e-003
3.745240e+003;3.172881e-003
3.747169e+003;3.859454e-003
3.749097e+003;4.081953e-003
3.751026e+003;3.975437e-003
3.752954e+003;3.831106e-003
3.754883e+003;3.719406e-003
3.756812e+003;3.777258e-003
3.758740e+003;3.981055e-003
3.760668e+003;3.810850e-003
3.762597e+003;3.307444e-003
3.764526e+003;2.853847e-003
3.766454e+003;2.855948e-003
3.768383e+003;3.055643e-003
3.770311e+003;3.076999e-003
3.772240e+003;3.027281e-003
3.774168e+003;2.915187e-003
3.776097e+003;3.199083e-003
3.778025e+003;3.200017e-003
3.779954e+003;2.925728e-003
3.781883e+003;2.725359e-003
3.783811e+003;2.992149e-003
3.785740e+003;3.132563e-003
3.787668e+003;3.355157e-003
3.789597e+003;3.381904e-003
3.791525e+003;3.191672e-003
3.793454e+003;3.084207e-003
3.795382e+003;2.892438e-003
3.797311e+003;2.744065e-003
3.799240e+003;3.120282e-003
3.801168e+003;3.294624e-003
3.803097e+003;3.366611e-003
3.805025e+003;3.531564e-003
3.806954e+003;3.493518e-003
3.808882e+003;3.189670e-003
3.810811e+003;2.600576e-003
3.812739e+003;2.800053e-003
3.814668e+003;3.271321e-003
3.816596e+003;3.222983e-003
3.818525e+003;3.406549e-003
3.820454e+003;3.451601e-003
3.822382e+003;3.476885e-003
3.824311e+003;3.493619e-003
3.826239e+003;3.526855e-003
3.828168e+003;3.444621e-003
3.830096e+003;3.366611e-003
3.832025e+003;3.132129e-003
3.833953e+003;3.353822e-003
3.835882e+003;3.512892e-003
3.837811e+003;2.879162e-003
3.839739e+003;2.640344e-003
3.841667e+003;2.732794e-003
3.843596e+003;3.000423e-003
3.845525e+003;3.221113e-003
3.847453e+003;3.305308e-003
3.849382e+003;3.360433e-003
3.851310e+003;3.731437e-003
3.853239e+003;4.022555e-003
3.855167e+003;3.816098e-003
3.857096e+003;3.598980e-003
3.859024e+003;3.732272e-003
3.860953e+003;3.525452e-003
3.862882e+003;3.420475e-003
3.864810e+003;3.691000e-003
3.866739e+003;4.044728e-003
3.868667e+003;4.167853e-003
3.870596e+003;4.002524e-003
3.872524e+003;4.111855e-003
3.874453e+003;4.026067e-003
3.876381e+003;3.980487e-003
3.878310e+003;4.210208e-003
3.880239e+003;4.013091e-003
3.882167e+003;4.080481e-003
3.884096e+003;4.357576e-003
3.886024e+003;4.096369e-003
3.887953e+003;4.013158e-003
3.889881e+003;4.366445e-003
3.891810e+003;4.619912e-003
3.893738e+003;4.923389e-003
3.895667e+003;5.517088e-003
3.897595e+003;5.532223e-003
3.899524e+003;5.331486e-003
3.901453e+003;5.720763e-003
3.903381e+003;5.730869e-003
3.905310e+003;5.216784e-003
3.907238e+003;5.157600e-003
3.909167e+003;5.319042e-003
3.911095e+003;5.187777e-003
3.913024e+003;5.260884e-003
3.914952e+003;5.635798e-003
3.916881e+003;5.670171e-003
3.918810e+003;5.659530e-003
3.920738e+003;5.736677e-003
3.922667e+003;5.625459e-003
3.924595e+003;5.804336e-003
3.926524e+003;6.017620e-003
3.928452e+003;5.953590e-003
3.930381e+003;6.094798e-003
3.932309e+003;6.070941e-003
3.934238e+003;5.549069e-003
3.936167e+003;5.604917e-003
3.938095e+003;6.294643e-003
3.940023e+003;6.556806e-003
3.941952e+003;6.682160e-003
3.943881e+003;6.829932e-003
3.945809e+003;6.597611e-003
3.947738e+003;6.698446e-003
3.949666e+003;6.904764e-003
3.951595e+003;6.611909e-003
3.953523e+003;6.516846e-003
3.955452e+003;6.468146e-003
3.957380e+003;6.317806e-003
3.959309e+003;6.089993e-003
3.961238e+003;5.896891e-003
3.963166e+003;6.374190e-003
3.965095e+003;6.754408e-003
3.967023e+003;6.949473e-003
3.968952e+003;7.130647e-003
3.970880e+003;6.828384e-003
3.972809e+003;6.492462e-003
3.974737e+003;6.567604e-003
3.976666e+003;6.602018e-003
3.978594e+003;6.822225e-003
3.980523e+003;6.961627e-003
3.982452e+003;6.531982e-003
3.984380e+003;6.701441e-003
3.986309e+003;6.888806e-003
3.988237e+003;6.696898e-003
3.990166e+003;6.421569e-003
3.992094e+003;6.040701e-003
3.994023e+003;6.196053e-003
3.995951e+003;6.375232e-003
3.997880e+003;6.473493e-003
3.999809e+003;6.794861e-003
4.001737e+003;0.000000e+000
