3.992094e+002;0.000000e+000
4.011380e+002;0.000000e+000
4.030665e+002;0.000000e+000
4.049951e+002;0.000000e+000
4.069236e+002;0.000000e+000
4.088522e+002;0.000000e+000
4.107807e+002;0.000000e+000
4.127093e+002;0.000000e+000
4.146378e+002;0.000000e+000
4.165664e+002;0.000000e+000
4.184949e+002;0.000000e+000
4.204235e+002;0.000000e+000
4.223520e+002;0.000000e+000
4.242806e+002;0.000000e+000
4.262091e+002;0.000000e+000
4.281377e+002;0.000000e+000
4.300662e+002;0.000000e+000
4.319948e+002;0.000000e+000
4.339233e+002;0.000000e+000
4.358519e+002;0.000000e+000
4.377804e+002;0.000000e+000
4.397090e+002;0.000000e+000
4.416375e+002;0.000000e+000
4.435660e+002;0.000000e+000
4.454946e+002;0.000000e+000
4.474232e+002;0.000000e+000
4.493517e+002;0.000000e+000
4.512802e+002;0.000000e+000
4.532088e+002;0.000000e+000
4.551373e+002;0.000000e+000
4.570659e+002;0.000000e+000
4.589944e+002;0.000000e+000
4.609230e+002;0.000000e+000
4.628515e+002;0.000000e+000
4.647801e+002;0.000000e+000
4.667086e+002;0.000000e+000
4.686372e+002;0.000000e+000
4.705657e+002;0.000000e+000
4.724943e+002;0.000000e+000
4.744228e+002;0.000000e+000
4.763513e+002;0.000000e+000
4.782799e+002;0.000000e+000
4.802085e+002;0.000000e+000
4.821370e+002;0.000000e+000
4.840656e+002;0.000000e+000
4.859941e+002;0.000000e+000
4.879226e+002;0.000000e+000
4.898512e+002;0.000000e+000
4.917798e+002;0.000000e+000
4.937083e+002;0.000000e+000
4.956368e+002;0.000000e+000
4.975654e+002;0.000000e+000
4.994939e+002;0.000000e+000
5.014225e+002;0.000000e+000
5.033510e+002;0.000000e+000
5.052796e+002;0.000000e+000
5.072081e+002;0.000000e+000
5.091367e+002;0.000000e+000
5.110652e+002;0.000000e+000
5.129938e+002;0.000000e+000
5.149223e+002;0.000000e+000
5.168509e+002;0.000000e+000
5.187794e+002;0.000000e+000
5.207079e+002;0.000000e+000
5.226365e+002;0.000000e+000
5.245651e+002;0.000000e+000
5.264936e+002;0.000000e+000
5.284222e+002;0.000000e+000
5.303507e+002;0.000000e+000
5.322792e+002;0.000000e+000
5.342078e+002;0.000000e+000
5.361364e+002;0.000000e+000
5.380649e+002;0.000000e+000
5.399935e+002;0.000000e+000
5.419220e+002;0.000000e+000
5.438505e+002;0.000000e+000
5.457791e+002;0.000000e+000
5.477076e+002;0.000000e+000
5.496362e+002;0.000000e+000
5.515648e+002;0.000000e+000
5.534933e+002;0.000000e+000
5.554218e+002;0.000000e+000
5.573504e+002;0.000000e+000
5.592789e+002;0.000000e+000
5.612075e+002;0.000000e+000
5.631360e+002;0.000000e+000
5.650646e+002;0.000000e+000
5.669931e+002;0.000000e+000
5.689217e+002;0.000000e+000
5.708502e+002;0.000000e+000
5.727787e+002;0.000000e+000
5.747073e+002;0.000000e+000
5.766359e+002;0.000000e+000
5.785644e+002;0.000000e+000
5.804930e+002;0.000000e+000
5.824215e+002;0.000000e+000
5.843500e+002;0.000000e+000
5.862786e+002;0.000000e+000
5.882072e+002;0.000000e+000
5.901357e+002;0.000000e+000
5.920643e+002;0.000000e+000
5.939928e+002;0.000000e+000
5.959213e+002;0.000000e+000
5.978499e+002;0.000000e+000
5.997784e+002;1.973176e-001
6.017070e+002;1.994797e-001
6.036355e+002;1.928833e-001
6.055641e+002;1.892267e-001
6.074926e+002;2.007736e-001
6.094211e+002;2.062528e-001
6.113497e+002;1.976320e-001
6.132783e+002;1.974823e-001
6.152068e+002;1.994481e-001
6.171354e+002;1.988421e-001
6.190639e+002;1.988244e-001
6.209924e+002;1.973281e-001
6.229210e+002;1.935467e-001
6.248495e+002;1.901624e-001
6.267781e+002;1.951225e-001
6.287067e+002;1.991691e-001
6.306352e+002;1.999779e-001
6.325637e+002;1.999238e-001
6.344923e+002;1.942269e-001
6.364208e+002;1.936076e-001
6.383494e+002;1.966684e-001
6.402780e+002;1.955226e-001
6.422065e+002;1.919121e-001
6.441350e+002;1.862087e-001
6.460636e+002;1.855257e-001
6.479921e+002;1.870698e-001
6.499207e+002;1.859840e-001
6.518492e+002;1.845393e-001
6.537778e+002;1.867545e-001
6.557063e+002;1.885841e-001
6.576349e+002;1.861251e-001
6.595634e+002;1.864197e-001
6.614919e+002;1.873045e-001
6.634205e+002;1.856900e-001
6.653491e+002;1.854334e-001
6.672776e+002;1.870024e-001
6.692062e+002;1.884833e-001
6.711347e+002;1.859250e-001
6.730632e+002;1.833757e-001
6.749918e+002;1.845742e-001
6.769203e+002;1.844977e-001
6.788489e+002;1.831392e-001
6.807775e+002;1.838365e-001
6.827060e+002;1.849123e-001
6.846345e+002;1.853338e-001
6.865631e+002;1.856719e-001
6.884916e+002;1.864468e-001
6.904202e+002;1.864709e-001
6.923488e+002;1.857011e-001
6.942773e+002;1.842298e-001
6.962058e+002;1.829174e-001
6.981344e+002;1.821825e-001
7.000629e+002;1.810487e-001
7.019915e+002;1.792726e-001
7.039200e+002;1.778265e-001
7.058486e+002;1.758206e-001
7.077771e+002;1.741298e-001
7.097057e+002;1.720828e-001
7.116342e+002;1.699774e-001
7.135627e+002;1.684041e-001
7.154913e+002;1.658402e-001
7.174199e+002;1.640706e-001
7.193484e+002;1.625559e-001
7.212770e+002;1.599391e-001
7.232055e+002;1.578802e-001
7.251340e+002;1.569173e-001
7.270626e+002;1.554535e-001
7.289911e+002;1.528985e-001
7.309197e+002;1.504809e-001
7.328483e+002;1.481129e-001
7.347768e+002;1.460833e-001
7.367053e+002;1.441969e-001
7.386339e+002;1.411924e-001
7.405624e+002;1.385973e-001
7.424910e+002;1.370649e-001
7.444196e+002;1.350301e-001
7.463481e+002;1.331503e-001
7.482766e+002;1.309617e-001
7.502052e+002;1.289425e-001
7.521337e+002;1.276154e-001
7.540623e+002;1.267350e-001
7.559908e+002;1.252170e-001
7.579194e+002;1.238961e-001
7.598479e+002;1.228059e-001
7.617765e+002;1.223763e-001
7.637050e+002;1.221711e-001
7.656335e+002;1.218388e-001
7.675621e+002;1.208114e-001
7.694907e+002;1.199125e-001
7.714192e+002;1.188584e-001
7.733478e+002;1.169457e-001
7.752763e+002;1.153032e-001
7.772048e+002;1.139771e-001
7.791334e+002;1.130076e-001
7.810620e+002;1.121134e-001
7.829905e+002;1.106931e-001
7.849191e+002;1.096722e-001
7.868476e+002;1.090479e-001
7.887761e+002;1.080233e-001
7.907047e+002;1.069500e-001
7.926332e+002;1.061926e-001
7.945618e+002;1.050754e-001
7.964903e+002;1.042444e-001
7.984189e+002;1.047328e-001
8.003474e+002;1.046472e-001
8.022759e+002;1.037157e-001
8.042045e+002;1.037807e-001
8.061331e+002;1.046083e-001
8.080616e+002;1.047920e-001
8.099902e+002;1.040031e-001
8.119187e+002;1.037334e-001
8.138472e+002;1.037879e-001
8.157758e+002;1.038080e-001
8.177043e+002;1.039207e-001
8.196329e+002;1.045073e-001
8.215615e+002;1.047725e-001
8.234900e+002;1.045324e-001
8.254185e+002;1.051237e-001
8.273471e+002;1.053641e-001
8.292756e+002;1.047368e-001
8.312042e+002;1.043373e-001
8.331328e+002;1.034411e-001
8.350613e+002;1.021059e-001
8.369898e+002;1.012013e-001
8.389184e+002;1.002837e-001
8.408469e+002;9.980291e-002
8.427755e+002;9.913003e-002
8.447040e+002;9.854735e-002
8.466326e+002;9.892605e-002
8.485611e+002;9.987742e-002
8.504897e+002;1.006286e-001
8.524182e+002;1.002088e-001
8.543467e+002;9.972699e-002
8.562753e+002;9.936479e-002
8.582039e+002;9.803870e-002
8.601324e+002;9.676769e-002
8.620610e+002;9.607914e-002
8.639895e+002;9.574497e-002
8.659180e+002;9.600912e-002
8.678466e+002;9.694978e-002
8.697751e+002;9.919335e-002
8.717037e+002;1.029625e-001
8.736323e+002;1.062345e-001
8.755608e+002;1.076038e-001
8.774893e+002;1.065254e-001
8.794179e+002;1.027250e-001
8.813464e+002;9.831160e-002
8.832750e+002;9.530684e-002
8.852036e+002;9.379234e-002
8.871321e+002;9.282198e-002
8.890606e+002;9.254315e-002
8.909892e+002;9.270309e-002
8.929177e+002;9.249210e-002
8.948463e+002;9.216490e-002
8.967748e+002;9.193546e-002
8.987034e+002;9.188583e-002
9.006319e+002;9.175975e-002
9.025605e+002;9.167729e-002
9.044890e+002;9.181235e-002
9.064175e+002;9.175963e-002
9.083461e+002;9.155217e-002
9.102747e+002;9.197644e-002
9.122032e+002;9.228667e-002
9.141318e+002;9.242237e-002
9.160603e+002;9.338350e-002
9.179888e+002;9.462173e-002
9.199174e+002;9.554522e-002
9.218459e+002;9.631980e-002
9.237745e+002;9.722821e-002
9.257031e+002;9.771090e-002
9.276316e+002;9.789276e-002
9.295601e+002;9.846064e-002
9.314887e+002;9.876171e-002
9.334172e+002;9.869945e-002
9.353458e+002;9.878909e-002
9.372744e+002;9.889563e-002
9.392029e+002;9.894644e-002
9.411314e+002;9.925002e-002
9.430600e+002;9.936463e-002
9.449885e+002;9.971619e-002
9.469171e+002;1.005765e-001
9.488456e+002;1.015006e-001
9.507742e+002;1.023339e-001
9.527027e+002;1.031568e-001
9.546313e+002;1.040766e-001
9.565598e+002;1.047873e-001
9.584883e+002;1.054775e-001
9.604169e+002;1.066287e-001
9.623455e+002;1.079195e-001
9.642740e+002;1.089808e-001
9.662026e+002;1.102928e-001
9.681311e+002;1.118405e-001
9.700596e+002;1.136337e-001
9.719882e+002;1.152999e-001
9.739167e+002;1.160802e-001
9.758453e+002;1.162756e-001
9.777739e+002;1.160158e-001
9.797024e+002;1.152110e-001
9.816309e+002;1.143709e-001
9.835595e+002;1.138021e-001
9.854880e+002;1.134917e-001
9.874166e+002;1.141095e-001
9.893452e+002;1.155476e-001
9.912737e+002;1.174008e-001
9.932022e+002;1.192954e-001
9.951307e+002;1.205891e-001
9.970593e+002;1.212341e-001
9.989879e+002;1.210392e-001
1.000916e+003;1.202711e-001
1.002845e+003;1.197802e-001
1.004773e+003;1.190891e-001
1.006702e+003;1.186710e-001
1.008631e+003;1.185094e-001
1.010559e+003;1.184551e-001
1.012488e+003;1.183563e-001
1.014416e+003;1.177598e-001
1.016345e+003;1.173601e-001
1.018273e+003;1.168076e-001
1.020202e+003;1.163221e-001
1.022130e+003;1.166132e-001
1.024059e+003;1.173213e-001
1.025988e+003;1.182480e-001
1.027916e+003;1.197827e-001
1.029845e+003;1.213643e-001
1.031773e+003;1.231668e-001
1.033702e+003;1.247177e-001
1.035630e+003;1.257453e-001
1.037559e+003;1.269991e-001
1.039487e+003;1.279844e-001
1.041416e+003;1.285156e-001
1.043344e+003;1.286599e-001
1.045273e+003;1.288611e-001
1.047202e+003;1.293458e-001
1.049130e+003;1.297317e-001
1.051059e+003;1.304174e-001
1.052987e+003;1.310373e-001
1.054916e+003;1.318996e-001
1.056844e+003;1.329783e-001
1.058773e+003;1.338337e-001
1.060701e+003;1.344099e-001
1.062630e+003;1.348125e-001
1.064558e+003;1.350762e-001
1.066487e+003;1.350613e-001
1.068416e+003;1.342206e-001
1.070344e+003;1.330220e-001
1.072273e+003;1.322105e-001
1.074201e+003;1.310266e-001
1.076130e+003;1.289091e-001
1.078058e+003;1.265886e-001
1.079987e+003;1.247193e-001
1.081915e+003;1.224544e-001
1.083844e+003;1.197702e-001
1.085773e+003;1.178908e-001
1.087701e+003;1.165107e-001
1.089630e+003;1.144159e-001
1.091558e+003;1.127476e-001
1.093487e+003;1.117761e-001
1.095415e+003;1.111502e-001
1.097344e+003;1.110454e-001
1.099272e+003;1.113860e-001
1.101201e+003;1.117136e-001
1.103129e+003;1.119687e-001
1.105058e+003;1.117865e-001
1.106987e+003;1.107424e-001
1.108915e+003;1.096973e-001
1.110844e+003;1.094226e-001
1.112772e+003;1.095413e-001
1.114701e+003;1.091820e-001
1.116629e+003;1.088417e-001
1.118558e+003;1.093060e-001
1.120486e+003;1.097390e-001
1.122415e+003;1.101413e-001
1.124344e+003;1.105068e-001
1.126272e+003;1.106295e-001
1.128201e+003;1.112813e-001
1.130129e+003;1.120788e-001
1.132058e+003;1.126200e-001
1.133986e+003;1.132949e-001
1.135915e+003;1.142352e-001
1.137843e+003;1.155116e-001
1.139772e+003;1.167478e-001
1.141700e+003;1.181051e-001
1.143629e+003;1.198668e-001
1.145557e+003;1.216743e-001
1.147486e+003;1.235815e-001
1.149415e+003;1.253608e-001
1.151343e+003;1.270089e-001
1.153272e+003;1.287603e-001
1.155200e+003;1.307784e-001
1.157129e+003;1.323713e-001
1.159057e+003;1.332478e-001
1.160986e+003;1.341826e-001
1.162914e+003;1.353121e-001
1.164843e+003;1.360112e-001
1.166771e+003;1.365475e-001
1.168700e+003;1.368574e-001
1.170629e+003;1.366846e-001
1.172557e+003;1.363941e-001
1.174486e+003;1.357914e-001
1.176414e+003;1.342527e-001
1.178343e+003;1.323518e-001
1.180271e+003;1.312189e-001
1.182200e+003;1.308371e-001
1.184128e+003;1.310260e-001
1.186057e+003;1.316479e-001
1.187986e+003;1.325084e-001
1.189914e+003;1.335926e-001
1.191843e+003;1.351192e-001
1.193771e+003;1.371963e-001
1.195700e+003;1.395301e-001
1.197628e+003;1.418117e-001
1.199557e+003;1.444616e-001
1.201485e+003;1.474927e-001
1.203414e+003;1.511089e-001
1.205343e+003;1.549246e-001
1.207271e+003;1.586456e-001
1.209200e+003;1.624600e-001
1.211128e+003;1.663920e-001
1.213057e+003;1.700150e-001
1.214985e+003;1.729501e-001
1.216914e+003;1.757131e-001
1.218842e+003;1.781215e-001
1.220771e+003;1.800783e-001
1.222699e+003;1.817209e-001
1.224628e+003;1.833218e-001
1.226557e+003;1.842849e-001
1.228485e+003;1.845298e-001
1.230414e+003;1.846768e-001
1.232342e+003;1.841229e-001
1.234271e+003;1.823747e-001
1.236199e+003;1.800956e-001
1.238128e+003;1.781819e-001
1.240056e+003;1.765968e-001
1.241985e+003;1.749684e-001
1.243913e+003;1.732157e-001
1.245842e+003;1.717763e-001
1.247771e+003;1.707497e-001
1.249699e+003;1.700075e-001
1.251628e+003;1.695581e-001
1.253556e+003;1.693270e-001
1.255485e+003;1.690139e-001
1.257413e+003;1.685275e-001
1.259342e+003;1.681621e-001
1.261270e+003;1.676066e-001
1.263199e+003;1.663780e-001
1.265127e+003;1.643883e-001
1.267056e+003;1.620359e-001
1.268985e+003;1.593571e-001
1.270913e+003;1.563224e-001
1.272842e+003;1.534974e-001
1.274770e+003;1.512037e-001
1.276699e+003;1.488506e-001
1.278627e+003;1.466324e-001
1.280556e+003;1.449767e-001
1.282484e+003;1.437544e-001
1.284413e+003;1.427506e-001
1.286342e+003;1.419740e-001
1.288270e+003;1.413240e-001
1.290199e+003;1.408627e-001
1.292127e+003;1.406835e-001
1.294056e+003;1.406935e-001
1.295984e+003;1.405837e-001
1.297913e+003;1.403104e-001
1.299841e+003;1.402694e-001
1.301770e+003;1.404655e-001
1.303698e+003;1.402772e-001
1.305627e+003;1.398242e-001
1.307556e+003;1.395348e-001
1.309484e+003;1.395559e-001
1.311413e+003;1.394406e-001
1.313341e+003;1.390633e-001
1.315270e+003;1.388445e-001
1.317198e+003;1.391305e-001
1.319127e+003;1.393352e-001
1.321055e+003;1.396178e-001
1.322984e+003;1.400774e-001
1.324912e+003;1.408317e-001
1.326841e+003;1.414432e-001
1.328770e+003;1.418560e-001
1.330698e+003;1.423151e-001
1.332627e+003;1.426621e-001
1.334555e+003;1.427011e-001
1.336484e+003;1.423959e-001
1.338412e+003;1.420301e-001
1.340341e+003;1.417944e-001
1.342269e+003;1.415621e-001
1.344198e+003;1.416133e-001
1.346126e+003;1.415882e-001
1.348055e+003;1.413217e-001
1.349984e+003;1.414550e-001
1.351912e+003;1.418250e-001
1.353841e+003;1.421585e-001
1.355769e+003;1.428724e-001
1.357698e+003;1.444340e-001
1.359626e+003;1.465116e-001
1.361555e+003;1.488013e-001
1.363483e+003;1.512140e-001
1.365412e+003;1.534154e-001
1.367341e+003;1.552762e-001
1.369269e+003;1.561340e-001
1.371198e+003;1.559071e-001
1.373126e+003;1.557012e-001
1.375055e+003;1.557918e-001
1.376983e+003;1.559872e-001
1.378912e+003;1.564093e-001
1.380840e+003;1.572212e-001
1.382769e+003;1.581069e-001
1.384698e+003;1.590019e-001
1.386626e+003;1.600560e-001
1.388555e+003;1.612151e-001
1.390483e+003;1.624241e-001
1.392412e+003;1.637162e-001
1.394340e+003;1.653134e-001
1.396269e+003;1.671521e-001
1.398197e+003;1.692987e-001
1.400126e+003;1.715795e-001
1.402054e+003;1.737467e-001
1.403983e+003;1.759125e-001
1.405911e+003;1.782673e-001
1.407840e+003;1.800454e-001
1.409769e+003;1.811776e-001
1.411697e+003;1.818563e-001
1.413626e+003;1.819834e-001
1.415554e+003;1.818036e-001
1.417483e+003;1.816281e-001
1.419411e+003;1.816175e-001
1.421340e+003;1.820955e-001
1.423268e+003;1.831283e-001
1.425197e+003;1.846679e-001
1.427125e+003;1.867619e-001
1.429054e+003;1.895381e-001
1.430983e+003;1.931088e-001
1.432911e+003;1.975235e-001
1.434840e+003;2.018153e-001
1.436768e+003;2.049403e-001
1.438697e+003;2.068840e-001
1.440625e+003;2.079223e-001
1.442554e+003;2.085055e-001
1.444482e+003;2.085442e-001
1.446411e+003;2.075177e-001
1.448340e+003;2.052931e-001
1.450268e+003;2.021388e-001
1.452197e+003;1.980655e-001
1.454125e+003;1.935378e-001
1.456054e+003;1.893112e-001
1.457982e+003;1.857090e-001
1.459911e+003;1.832554e-001
1.461839e+003;1.814739e-001
1.463768e+003;1.804613e-001
1.465697e+003;1.799406e-001
1.467625e+003;1.800090e-001
1.469554e+003;1.809071e-001
1.471482e+003;1.821447e-001
1.473411e+003;1.834216e-001
1.475339e+003;1.852897e-001
1.477268e+003;1.879628e-001
1.479196e+003;1.911731e-001
1.481125e+003;1.950638e-001
1.483053e+003;1.997450e-001
1.484982e+003;2.051705e-001
1.486911e+003;2.108940e-001
1.488839e+003;2.167529e-001
1.490768e+003;2.226155e-001
1.492696e+003;2.287945e-001
1.494625e+003;2.351342e-001
1.496553e+003;2.410192e-001
1.498482e+003;2.465913e-001
1.500410e+003;2.519477e-001
1.502339e+003;2.571814e-001
1.504267e+003;2.612652e-001
1.506196e+003;2.646139e-001
1.508125e+003;2.682236e-001
1.510053e+003;2.712226e-001
1.511982e+003;2.729114e-001
1.513910e+003;2.729916e-001
1.515839e+003;2.706278e-001
1.517767e+003;2.662131e-001
1.519696e+003;2.608295e-001
1.521624e+003;2.552816e-001
1.523553e+003;2.506353e-001
1.525481e+003;2.461764e-001
1.527410e+003;2.409495e-001
1.529339e+003;2.360641e-001
1.531267e+003;2.320516e-001
1.533196e+003;2.275766e-001
1.535124e+003;2.227142e-001
1.537053e+003;2.180602e-001
1.538981e+003;2.131507e-001
1.540910e+003;2.084399e-001
1.542838e+003;2.046371e-001
1.544767e+003;2.009194e-001
1.546695e+003;1.972661e-001
1.548624e+003;1.937749e-001
1.550553e+003;1.900805e-001
1.552481e+003;1.862988e-001
1.554410e+003;1.825173e-001
1.556338e+003;1.790987e-001
1.558267e+003;1.755307e-001
1.560195e+003;1.712720e-001
1.562124e+003;1.672283e-001
1.564052e+003;1.634298e-001
1.565981e+003;1.599382e-001
1.567910e+003;1.569645e-001
1.569838e+003;1.540695e-001
1.571767e+003;1.516400e-001
1.573695e+003;1.499476e-001
1.575624e+003;1.487575e-001
1.577552e+003;1.482080e-001
1.579481e+003;1.481117e-001
1.581409e+003;1.484237e-001
1.583338e+003;1.493846e-001
1.585266e+003;1.511034e-001
1.587195e+003;1.536282e-001
1.589124e+003;1.565343e-001
1.591052e+003;1.597780e-001
1.592981e+003;1.635651e-001
1.594909e+003;1.678881e-001
1.596838e+003;1.727626e-001
1.598766e+003;1.780243e-001
1.600695e+003;1.841414e-001
1.602623e+003;1.913534e-001
1.604552e+003;1.994432e-001
1.606480e+003;2.082079e-001
1.608409e+003;2.173523e-001
1.610338e+003;2.265061e-001
1.612266e+003;2.353482e-001
1.614195e+003;2.435969e-001
1.616123e+003;2.509716e-001
1.618052e+003;2.573160e-001
1.619980e+003;2.624058e-001
1.621909e+003;2.655036e-001
1.623837e+003;2.664413e-001
1.625766e+003;2.656707e-001
1.627694e+003;2.632311e-001
1.629623e+003;2.592036e-001
1.631552e+003;2.543849e-001
1.633480e+003;2.494374e-001
1.635409e+003;2.438405e-001
1.637337e+003;2.381430e-001
1.639266e+003;2.328659e-001
1.641194e+003;2.278651e-001
1.643123e+003;2.231145e-001
1.645051e+003;2.181329e-001
1.646980e+003;2.133235e-001
1.648909e+003;2.088844e-001
1.650837e+003;2.044056e-001
1.652766e+003;1.996483e-001
1.654694e+003;1.949640e-001
1.656623e+003;1.904832e-001
1.658551e+003;1.856214e-001
1.660480e+003;1.807586e-001
1.662408e+003;1.761257e-001
1.664337e+003;1.717345e-001
1.666266e+003;1.675073e-001
1.668194e+003;1.633003e-001
1.670123e+003;1.592858e-001
1.672051e+003;1.555179e-001
1.673980e+003;1.517555e-001
1.675908e+003;1.481553e-001
1.677837e+003;1.449690e-001
1.679765e+003;1.419079e-001
1.681694e+003;1.387973e-001
1.683622e+003;1.355252e-001
1.685551e+003;1.328267e-001
1.687479e+003;1.309041e-001
1.689408e+003;1.292471e-001
1.691337e+003;1.277338e-001
1.693265e+003;1.268574e-001
1.695194e+003;1.265670e-001
1.697122e+003;1.262518e-001
1.699051e+003;1.242554e-001
1.700979e+003;1.193535e-001
1.702908e+003;1.124213e-001
1.704836e+003;1.038548e-001
1.706765e+003;9.531444e-002
1.708693e+003;8.821155e-002
1.710622e+003;8.256514e-002
1.712551e+003;7.818855e-002
1.714479e+003;7.486670e-002
1.716408e+003;7.202844e-002
1.718336e+003;6.973235e-002
1.720265e+003;6.836788e-002
1.722193e+003;6.706803e-002
1.724122e+003;6.550220e-002
1.726050e+003;6.457698e-002
1.727979e+003;6.404164e-002
1.729908e+003;6.341550e-002
1.731836e+003;6.266634e-002
1.733765e+003;6.190476e-002
1.735693e+003;6.131897e-002
1.737622e+003;6.094224e-002
1.739550e+003;6.068821e-002
1.741479e+003;6.041879e-002
1.743407e+003;5.990517e-002
1.745336e+003;5.959241e-002
1.747265e+003;5.963969e-002
1.749193e+003;5.989958e-002
1.751122e+003;6.017637e-002
1.753050e+003;6.033909e-002
1.754979e+003;6.048090e-002
1.756907e+003;6.061067e-002
1.758836e+003;6.075440e-002
1.760764e+003;6.083062e-002
1.762693e+003;6.085235e-002
1.764621e+003;6.098681e-002
1.766550e+003;6.102449e-002
1.768479e+003;6.107547e-002
1.770407e+003;6.114172e-002
1.772336e+003;6.086657e-002
1.774264e+003;6.065750e-002
1.776193e+003;6.085552e-002
1.778121e+003;6.096001e-002
1.780050e+003;6.105663e-002
1.781978e+003;6.102372e-002
1.783907e+003;6.095193e-002
1.785835e+003;6.103398e-002
1.787764e+003;6.113833e-002
1.789693e+003;6.108623e-002
1.791621e+003;6.099844e-002
1.793550e+003;6.099612e-002
1.795478e+003;6.093458e-002
1.797407e+003;6.075322e-002
1.799335e+003;6.073089e-002
1.801264e+003;6.078302e-002
1.803192e+003;6.069671e-002
1.805121e+003;6.039502e-002
1.807049e+003;6.014420e-002
1.808978e+003;6.013682e-002
1.810907e+003;6.017728e-002
1.812835e+003;6.017511e-002
1.814764e+003;6.012963e-002
1.816692e+003;6.000947e-002
1.818621e+003;6.021701e-002
1.820549e+003;6.013024e-002
1.822478e+003;5.968432e-002
1.824406e+003;5.971720e-002
1.826335e+003;5.981389e-002
1.828264e+003;5.984698e-002
1.830192e+003;5.989501e-002
1.832121e+003;5.967812e-002
1.834049e+003;5.949634e-002
1.835978e+003;5.955706e-002
1.837906e+003;5.959077e-002
1.839835e+003;5.948125e-002
1.841763e+003;5.953475e-002
1.843692e+003;5.955752e-002
1.845620e+003;5.952803e-002
1.847549e+003;5.954961e-002
1.849478e+003;5.947506e-002
1.851406e+003;5.925036e-002
1.853335e+003;5.915554e-002
1.855263e+003;5.925693e-002
1.857192e+003;5.926977e-002
1.859120e+003;5.914187e-002
1.861049e+003;5.906481e-002
1.862977e+003;5.914298e-002
1.864906e+003;5.925659e-002
1.866834e+003;5.937080e-002
1.868763e+003;5.941700e-002
1.870692e+003;5.942133e-002
1.872620e+003;5.953213e-002
1.874549e+003;5.957017e-002
1.876477e+003;5.946400e-002
1.878406e+003;5.948361e-002
1.880334e+003;5.960339e-002
1.882263e+003;5.962601e-002
1.884191e+003;5.955524e-002
1.886120e+003;5.945940e-002
1.888048e+003;5.918843e-002
1.889977e+003;5.902765e-002
1.891906e+003;5.898809e-002
1.893834e+003;5.900438e-002
1.895763e+003;5.934927e-002
1.897691e+003;5.944705e-002
1.899620e+003;5.934813e-002
1.901548e+003;5.915585e-002
1.903477e+003;5.905270e-002
1.905405e+003;5.901686e-002
1.907334e+003;5.883771e-002
1.909262e+003;5.887171e-002
1.911191e+003;5.887584e-002
1.913120e+003;5.876741e-002
1.915048e+003;5.881020e-002
1.916977e+003;5.892137e-002
1.918905e+003;5.901170e-002
1.920834e+003;5.900085e-002
1.922762e+003;5.905388e-002
1.924691e+003;5.909882e-002
1.926619e+003;5.896270e-002
1.928548e+003;5.892054e-002
1.930477e+003;5.895599e-002
1.932405e+003;5.904169e-002
1.934334e+003;5.929279e-002
1.936262e+003;5.934167e-002
1.938191e+003;5.930304e-002
1.940119e+003;5.929719e-002
1.942048e+003;5.915254e-002
1.943976e+003;5.893500e-002
1.945905e+003;5.890217e-002
1.947833e+003;5.905383e-002
1.949762e+003;5.918117e-002
1.951691e+003;5.924915e-002
1.953619e+003;5.916724e-002
1.955548e+003;5.907817e-002
1.957476e+003;5.920225e-002
1.959405e+003;5.924862e-002
1.961333e+003;5.923833e-002
1.963262e+003;5.932887e-002
1.965190e+003;5.929879e-002
1.967119e+003;5.923145e-002
1.969047e+003;5.927383e-002
1.970976e+003;5.942308e-002
1.972905e+003;5.944557e-002
1.974833e+003;5.939770e-002
1.976762e+003;5.935705e-002
1.978690e+003;5.936549e-002
1.980619e+003;5.930452e-002
1.982547e+003;5.930536e-002
1.984476e+003;5.937362e-002
1.986404e+003;5.944223e-002
1.988333e+003;5.933757e-002
1.990261e+003;5.908751e-002
1.992190e+003;5.902643e-002
1.994119e+003;5.915589e-002
1.996047e+003;5.924888e-002
1.997976e+003;5.922120e-002
1.999904e+003;5.914674e-002
2.001833e+003;5.911739e-002
2.003761e+003;5.926893e-002
2.005690e+003;5.927246e-002
2.007618e+003;5.907073e-002
2.009547e+003;5.895378e-002
2.011476e+003;5.900051e-002
2.013404e+003;5.916807e-002
2.015333e+003;5.911427e-002
2.017261e+003;5.907202e-002
2.019190e+003;5.911568e-002
2.021118e+003;5.927626e-002
2.023047e+003;5.949394e-002
2.024975e+003;5.950804e-002
2.026904e+003;5.935124e-002
2.028833e+003;5.929286e-002
2.030761e+003;5.932587e-002
2.032690e+003;5.929332e-002
2.034618e+003;5.926081e-002
2.036547e+003;5.930972e-002
2.038475e+003;5.942338e-002
2.040404e+003;5.942126e-002
2.042332e+003;5.946464e-002
2.044261e+003;5.940788e-002
2.046189e+003;5.931865e-002
2.048118e+003;5.914309e-002
2.050047e+003;5.904476e-002
2.051975e+003;5.923574e-002
2.053904e+003;5.938410e-002
2.055832e+003;5.939550e-002
2.057761e+003;5.942726e-002
2.059689e+003;5.948486e-002
2.061618e+003;5.943995e-002
2.063546e+003;5.910782e-002
2.065475e+003;5.909073e-002
2.067404e+003;5.953677e-002
2.069332e+003;5.976332e-002
2.071260e+003;5.979720e-002
2.073189e+003;5.950633e-002
2.075118e+003;5.915748e-002
2.077046e+003;5.932708e-002
2.078975e+003;5.958222e-002
2.080903e+003;5.953612e-002
2.082832e+003;5.936032e-002
2.084760e+003;5.939527e-002
2.086689e+003;5.951864e-002
2.088617e+003;5.970298e-002
2.090546e+003;5.979439e-002
2.092475e+003;5.983062e-002
2.094403e+003;5.978762e-002
2.096332e+003;5.972595e-002
2.098260e+003;5.956508e-002
2.100189e+003;5.941696e-002
2.102117e+003;5.948440e-002
2.104046e+003;5.968576e-002
2.105974e+003;5.966653e-002
2.107903e+003;5.950538e-002
2.109832e+003;5.932750e-002
2.111760e+003;5.932625e-002
2.113688e+003;5.939253e-002
2.115617e+003;5.945222e-002
2.117546e+003;5.931048e-002
2.119474e+003;5.923312e-002
2.121403e+003;5.941628e-002
2.123331e+003;5.936526e-002
2.125260e+003;5.931736e-002
2.127188e+003;5.932195e-002
2.129117e+003;5.934402e-002
2.131045e+003;5.931508e-002
2.132974e+003;5.932321e-002
2.134903e+003;5.937335e-002
2.136831e+003;5.929229e-002
2.138760e+003;5.939417e-002
2.140688e+003;5.946844e-002
2.142617e+003;5.914624e-002
2.144545e+003;5.897105e-002
2.146474e+003;5.924752e-002
2.148402e+003;5.933339e-002
2.150331e+003;5.919283e-002
2.152260e+003;5.927246e-002
2.154188e+003;5.924440e-002
2.156117e+003;5.916101e-002
2.158045e+003;5.925610e-002
2.159974e+003;5.926194e-002
2.161902e+003;5.907449e-002
2.163831e+003;5.907084e-002
2.165759e+003;5.908994e-002
2.167688e+003;5.898206e-002
2.169616e+003;5.901079e-002
2.171545e+003;5.909647e-002
2.173474e+003;5.898096e-002
2.175402e+003;5.889310e-002
2.177331e+003;5.886749e-002
2.179259e+003;5.887907e-002
2.181188e+003;5.893485e-002
2.183116e+003;5.905300e-002
2.185045e+003;5.895333e-002
2.186973e+003;5.868066e-002
2.188902e+003;5.850282e-002
2.190831e+003;5.867361e-002
2.192759e+003;5.899717e-002
2.194688e+003;5.905213e-002
2.196616e+003;5.869416e-002
2.198545e+003;5.853000e-002
2.200473e+003;5.863336e-002
2.202402e+003;5.872796e-002
2.204330e+003;5.880041e-002
2.206259e+003;5.870330e-002
2.208188e+003;5.851017e-002
2.210116e+003;5.851464e-002
2.212044e+003;5.862586e-002
2.213973e+003;5.850850e-002
2.215902e+003;5.845978e-002
2.217830e+003;5.856033e-002
2.219759e+003;5.861998e-002
2.221687e+003;5.857136e-002
2.223616e+003;5.830894e-002
2.225544e+003;5.828855e-002
2.227473e+003;5.834574e-002
2.229401e+003;5.814401e-002
2.231330e+003;5.792860e-002
2.233259e+003;5.795912e-002
2.235187e+003;5.810053e-002
2.237116e+003;5.825308e-002
2.239044e+003;5.827404e-002
2.240973e+003;5.796885e-002
2.242901e+003;5.781601e-002
2.244830e+003;5.794253e-002
2.246758e+003;5.791168e-002
2.248687e+003;5.753066e-002
2.250615e+003;5.748047e-002
2.252544e+003;5.772067e-002
2.254473e+003;5.766054e-002
2.256401e+003;5.742631e-002
2.258330e+003;5.736236e-002
2.260258e+003;5.738917e-002
2.262187e+003;5.749624e-002
2.264115e+003;5.750793e-002
2.266044e+003;5.754144e-002
2.267972e+003;5.756149e-002
2.269901e+003;5.740967e-002
2.271830e+003;5.733367e-002
2.273758e+003;5.753392e-002
2.275687e+003;5.765294e-002
2.277615e+003;5.763689e-002
2.279544e+003;5.761351e-002
2.281472e+003;5.753490e-002
2.283401e+003;5.755393e-002
2.285329e+003;5.748319e-002
2.287258e+003;5.728599e-002
2.289187e+003;5.727896e-002
2.291115e+003;5.750978e-002
2.293043e+003;5.748826e-002
2.294972e+003;5.713661e-002
2.296901e+003;5.681696e-002
2.298829e+003;5.694202e-002
2.300758e+003;5.738671e-002
2.302686e+003;5.762206e-002
2.304615e+003;5.722845e-002
2.306543e+003;5.691323e-002
2.308472e+003;5.699823e-002
2.310400e+003;5.713294e-002
2.312329e+003;5.727866e-002
2.314258e+003;5.726191e-002
2.316186e+003;5.705498e-002
2.318115e+003;5.698436e-002
2.320043e+003;5.701342e-002
2.321972e+003;5.708691e-002
2.323900e+003;5.701697e-002
2.325829e+003;5.685570e-002
2.327757e+003;5.692411e-002
2.329686e+003;5.704520e-002
2.331615e+003;5.698278e-002
2.333543e+003;5.692653e-002
2.335472e+003;5.684626e-002
2.337400e+003;5.695206e-002
2.339329e+003;5.698833e-002
2.341257e+003;5.691550e-002
2.343186e+003;5.695909e-002
2.345114e+003;5.689412e-002
2.347043e+003;5.681367e-002
2.348971e+003;5.678637e-002
2.350900e+003;5.663421e-002
2.352829e+003;5.659258e-002
2.354757e+003;5.671674e-002
2.356686e+003;5.687384e-002
2.358614e+003;5.691482e-002
2.360543e+003;5.699940e-002
2.362471e+003;5.702895e-002
2.364400e+003;5.689676e-002
2.366328e+003;5.688581e-002
2.368257e+003;5.686394e-002
2.370186e+003;5.653483e-002
2.372114e+003;5.638997e-002
2.374042e+003;5.668831e-002
2.375971e+003;5.698232e-002
2.377900e+003;5.687055e-002
2.379828e+003;5.667079e-002
2.381757e+003;5.665044e-002
2.383685e+003;5.681073e-002
2.385614e+003;5.679796e-002
2.387542e+003;5.684030e-002
2.389471e+003;5.700567e-002
2.391399e+003;5.713192e-002
2.393328e+003;5.721439e-002
2.395257e+003;5.728402e-002
2.397185e+003;5.731877e-002
2.399114e+003;5.745131e-002
2.401042e+003;5.758711e-002
2.402971e+003;5.755525e-002
2.404899e+003;5.747518e-002
2.406828e+003;5.750487e-002
2.408756e+003;5.753271e-002
2.410685e+003;5.774175e-002
2.412614e+003;5.785137e-002
2.414542e+003;5.790903e-002
2.416471e+003;5.801762e-002
2.418399e+003;5.809992e-002
2.420328e+003;5.805190e-002
2.422256e+003;5.812253e-002
2.424185e+003;5.839474e-002
2.426113e+003;5.862119e-002
2.428042e+003;5.855222e-002
2.429970e+003;5.835949e-002
2.431899e+003;5.841616e-002
2.433828e+003;5.859757e-002
2.435756e+003;5.879153e-002
2.437685e+003;5.881054e-002
2.439613e+003;5.858767e-002
2.441542e+003;5.876980e-002
2.443470e+003;5.915991e-002
2.445399e+003;5.893690e-002
2.447327e+003;5.860515e-002
2.449256e+003;5.876259e-002
2.451185e+003;5.903543e-002
2.453113e+003;5.935702e-002
2.455042e+003;5.940146e-002
2.456970e+003;5.914491e-002
2.458899e+003;5.909157e-002
2.460827e+003;5.913929e-002
2.462756e+003;5.889705e-002
2.464684e+003;5.887489e-002
2.466613e+003;5.915983e-002
2.468542e+003;5.926548e-002
2.470470e+003;5.911230e-002
2.472398e+003;5.911689e-002
2.474327e+003;5.913257e-002
2.476256e+003;5.931075e-002
2.478184e+003;5.944895e-002
2.480113e+003;5.928314e-002
2.482041e+003;5.913143e-002
2.483970e+003;5.890882e-002
2.485898e+003;5.893986e-002
2.487827e+003;5.914970e-002
2.489755e+003;5.943551e-002
2.491684e+003;5.970607e-002
2.493613e+003;5.974177e-002
2.495541e+003;5.957527e-002
2.497470e+003;5.938779e-002
2.499398e+003;5.940975e-002
2.501327e+003;5.960833e-002
2.503255e+003;5.976195e-002
2.505184e+003;5.987604e-002
2.507112e+003;5.974120e-002
2.509041e+003;5.960692e-002
2.510969e+003;5.978492e-002
2.512898e+003;6.005977e-002
2.514827e+003;6.005486e-002
2.516755e+003;6.013743e-002
2.518684e+003;6.037126e-002
2.520612e+003;6.038436e-002
2.522541e+003;6.031381e-002
2.524469e+003;6.015056e-002
2.526398e+003;5.998684e-002
2.528326e+003;6.001651e-002
2.530255e+003;6.014987e-002
2.532184e+003;6.027407e-002
2.534112e+003;6.034930e-002
2.536041e+003;6.031987e-002
2.537969e+003;5.998798e-002
2.539898e+003;5.995138e-002
2.541826e+003;6.034617e-002
2.543755e+003;6.044662e-002
2.545683e+003;6.037561e-002
2.547612e+003;6.046665e-002
2.549541e+003;6.059757e-002
2.551469e+003;6.063742e-002
2.553397e+003;6.065753e-002
2.555326e+003;6.074316e-002
2.557255e+003;6.080882e-002
2.559183e+003;6.095413e-002
2.561112e+003;6.114474e-002
2.563040e+003;6.114416e-002
2.564969e+003;6.110049e-002
2.566897e+003;6.090667e-002
2.568826e+003;6.075893e-002
2.570754e+003;6.115885e-002
2.572683e+003;6.164424e-002
2.574612e+003;6.151920e-002
2.576540e+003;6.141896e-002
2.578469e+003;6.147866e-002
2.580397e+003;6.157093e-002
2.582326e+003;6.164745e-002
2.584254e+003;6.168747e-002
2.586183e+003;6.189066e-002
2.588111e+003;6.192864e-002
2.590040e+003;6.199873e-002
2.591969e+003;6.195233e-002
2.593897e+003;6.182823e-002
2.595826e+003;6.196976e-002
2.597754e+003;6.222722e-002
2.599683e+003;6.228500e-002
2.601611e+003;6.240369e-002
2.603540e+003;6.243050e-002
2.605468e+003;6.236176e-002
2.607397e+003;6.251621e-002
2.609325e+003;6.277319e-002
2.611254e+003;6.267626e-002
2.613183e+003;6.252206e-002
2.615111e+003;6.250182e-002
2.617040e+003;6.224787e-002
2.618968e+003;6.216967e-002
2.620897e+003;6.235239e-002
2.622825e+003;6.235144e-002
2.624754e+003;6.245755e-002
2.626682e+003;6.280264e-002
2.628611e+003;6.300887e-002
2.630540e+003;6.282993e-002
2.632468e+003;6.249501e-002
2.634396e+003;6.240640e-002
2.636325e+003;6.213794e-002
2.638254e+003;6.188233e-002
2.640182e+003;6.202991e-002
2.642111e+003;6.230386e-002
2.644039e+003;6.267124e-002
2.645968e+003;6.279915e-002
2.647896e+003;6.258903e-002
2.649825e+003;6.242343e-002
2.651753e+003;6.256760e-002
2.653682e+003;6.283683e-002
2.655611e+003;6.298432e-002
2.657539e+003;6.288611e-002
2.659468e+003;6.284812e-002
2.661396e+003;6.286164e-002
2.663325e+003;6.283196e-002
2.665253e+003;6.293640e-002
2.667182e+003;6.310020e-002
2.669110e+003;6.286462e-002
2.671039e+003;6.270255e-002
2.672968e+003;6.314614e-002
2.674896e+003;6.336792e-002
2.676825e+003;6.323076e-002
2.678753e+003;6.326844e-002
2.680682e+003;6.337517e-002
2.682610e+003;6.353964e-002
2.684539e+003;6.348437e-002
2.686467e+003;6.333150e-002
2.688396e+003;6.338532e-002
2.690324e+003;6.358071e-002
2.692253e+003;6.383234e-002
2.694182e+003;6.407036e-002
2.696110e+003;6.432423e-002
2.698039e+003;6.412132e-002
2.699967e+003;6.398155e-002
2.701896e+003;6.399065e-002
2.703824e+003;6.416234e-002
2.705753e+003;6.448564e-002
2.707681e+003;6.458286e-002
2.709610e+003;6.451324e-002
2.711539e+003;6.434632e-002
2.713467e+003;6.446819e-002
2.715396e+003;6.495249e-002
2.717324e+003;6.512926e-002
2.719253e+003;6.494837e-002
2.721181e+003;6.474571e-002
2.723110e+003;6.475771e-002
2.725038e+003;6.518165e-002
2.726967e+003;6.542493e-002
2.728896e+003;6.564566e-002
2.730824e+003;6.580070e-002
2.732752e+003;6.563958e-002
2.734681e+003;6.553607e-002
2.736610e+003;6.577314e-002
2.738538e+003;6.601940e-002
2.740467e+003;6.619591e-002
2.742395e+003;6.620225e-002
2.744324e+003;6.628422e-002
2.746252e+003;6.643485e-002
2.748181e+003;6.642863e-002
2.750109e+003;6.646729e-002
2.752038e+003;6.661246e-002
2.753967e+003;6.660778e-002
2.755895e+003;6.663923e-002
2.757824e+003;6.686790e-002
2.759752e+003;6.707665e-002
2.761681e+003;6.720470e-002
2.763609e+003;6.735356e-002
2.765538e+003;6.750561e-002
2.767466e+003;6.738804e-002
2.769395e+003;6.717902e-002
2.771323e+003;6.718431e-002
2.773252e+003;6.735863e-002
2.775181e+003;6.741218e-002
2.777109e+003;6.761501e-002
2.779038e+003;6.773327e-002
2.780966e+003;6.784969e-002
2.782895e+003;6.807160e-002
2.784823e+003;6.813450e-002
2.786752e+003;6.830129e-002
2.788680e+003;6.854713e-002
2.790609e+003;6.856098e-002
2.792538e+003;6.834406e-002
2.794466e+003;6.825475e-002
2.796395e+003;6.836423e-002
2.798323e+003;6.870965e-002
2.800252e+003;6.922182e-002
2.802180e+003;6.938285e-002
2.804109e+003;6.919167e-002
2.806037e+003;6.914170e-002
2.807966e+003;6.911147e-002
2.809895e+003;6.895459e-002
2.811823e+003;6.928622e-002
2.813751e+003;6.950769e-002
2.815680e+003;6.942511e-002
2.817609e+003;6.929232e-002
2.819537e+003;6.958869e-002
2.821466e+003;6.995494e-002
2.823394e+003;6.998048e-002
2.825323e+003;6.989554e-002
2.827251e+003;6.979328e-002
2.829180e+003;6.976643e-002
2.831108e+003;6.988776e-002
2.833037e+003;7.037429e-002
2.834966e+003;7.064922e-002
2.836894e+003;7.061472e-002
2.838823e+003;7.082173e-002
2.840751e+003;7.120132e-002
2.842680e+003;7.153388e-002
2.844608e+003;7.177030e-002
2.846537e+003;7.162023e-002
2.848465e+003;7.139354e-002
2.850394e+003;7.162645e-002
2.852323e+003;7.229064e-002
2.854251e+003;7.261668e-002
2.856180e+003;7.275390e-002
2.858108e+003;7.297389e-002
2.860037e+003;7.336745e-002
2.861965e+003;7.402771e-002
2.863894e+003;7.460938e-002
2.865822e+003;7.506744e-002
2.867751e+003;7.512778e-002
2.869679e+003;7.527816e-002
2.871608e+003;7.574450e-002
2.873536e+003;7.616588e-002
2.875465e+003;7.659981e-002
2.877394e+003;7.643700e-002
2.879322e+003;7.620984e-002
2.881251e+003;7.624573e-002
2.883179e+003;7.632666e-002
2.885108e+003;7.647805e-002
2.887036e+003;7.631154e-002
2.888965e+003;7.598287e-002
2.890893e+003;7.594569e-002
2.892822e+003;7.601891e-002
2.894750e+003;7.593373e-002
2.896679e+003;7.581827e-002
2.898608e+003;7.614765e-002
2.900536e+003;7.658894e-002
2.902465e+003;7.692914e-002
2.904393e+003;7.719852e-002
2.906322e+003;7.742462e-002
2.908250e+003;7.780594e-002
2.910179e+003;7.808256e-002
2.912107e+003;7.818811e-002
2.914036e+003;7.855596e-002
2.915965e+003;7.870167e-002
2.917893e+003;7.878758e-002
2.919822e+003;7.937714e-002
2.921750e+003;8.005673e-002
2.923679e+003;8.042984e-002
2.925607e+003;8.086127e-002
2.927536e+003;8.168754e-002
2.929464e+003;8.217390e-002
2.931393e+003;8.233351e-002
2.933322e+003;8.246322e-002
2.935250e+003;8.242336e-002
2.937178e+003;8.194600e-002
2.939107e+003;8.135250e-002
2.941036e+003;8.130392e-002
2.942964e+003;8.119916e-002
2.944893e+003;8.070303e-002
2.946821e+003;8.011498e-002
2.948750e+003;7.946935e-002
2.950678e+003;7.903168e-002
2.952607e+003;7.894865e-002
2.954535e+003;7.908168e-002
2.956464e+003;7.952940e-002
2.958393e+003;7.952120e-002
2.960321e+003;7.936497e-002
2.962250e+003;7.968510e-002
2.964178e+003;8.001765e-002
2.966107e+003;7.998208e-002
2.968035e+003;8.014423e-002
2.969964e+003;8.060697e-002
2.971892e+003;8.074936e-002
2.973821e+003;8.070695e-002
2.975750e+003;8.115163e-002
2.977678e+003;8.108421e-002
2.979607e+003;8.038016e-002
2.981535e+003;8.002985e-002
2.983464e+003;7.987358e-002
2.985392e+003;7.967085e-002
2.987321e+003;7.935554e-002
2.989249e+003;7.892791e-002
2.991178e+003;7.825730e-002
2.993106e+003;7.772814e-002
2.995035e+003;7.779044e-002
2.996964e+003;7.775160e-002
2.998892e+003;7.760127e-002
3.000821e+003;7.728861e-002
3.002749e+003;7.699999e-002
3.004678e+003;7.696601e-002
3.006606e+003;7.684521e-002
3.008535e+003;7.674825e-002
3.010463e+003;7.689327e-002
3.012392e+003;7.668681e-002
3.014321e+003;7.663341e-002
3.016249e+003;7.684494e-002
3.018177e+003;7.708055e-002
3.020106e+003;7.749527e-002
3.022035e+003;7.777499e-002
3.023963e+003;7.796934e-002
3.025892e+003;7.808645e-002
3.027820e+003;7.809224e-002
3.029749e+003;7.810013e-002
3.031677e+003;7.861902e-002
3.033606e+003;7.893804e-002
3.035534e+003;7.898073e-002
3.037463e+003;7.936119e-002
3.039392e+003;8.003896e-002
3.041320e+003;8.043611e-002
3.043249e+003;8.077710e-002
3.045177e+003;8.115343e-002
3.047106e+003;8.123939e-002
3.049034e+003;8.141816e-002
3.050963e+003;8.202104e-002
3.052891e+003;8.254723e-002
3.054820e+003;8.310104e-002
3.056749e+003;8.371247e-002
3.058677e+003;8.373373e-002
3.060606e+003;8.371818e-002
3.062534e+003;8.389781e-002
3.064463e+003;8.397540e-002
3.066391e+003;8.414947e-002
3.068320e+003;8.427392e-002
3.070248e+003;8.445262e-002
3.072177e+003;8.468885e-002
3.074105e+003;8.476078e-002
3.076034e+003;8.456013e-002
3.077963e+003;8.448434e-002
3.079891e+003;8.429806e-002
3.081820e+003;8.388857e-002
3.083748e+003;8.358682e-002
3.085677e+003;8.362924e-002
3.087605e+003;8.372835e-002
3.089534e+003;8.378388e-002
3.091462e+003;8.340815e-002
3.093391e+003;8.304957e-002
3.095320e+003;8.301675e-002
3.097248e+003;8.259384e-002
3.099177e+003;8.224861e-002
3.101105e+003;8.209932e-002
3.103034e+003;8.161376e-002
3.104962e+003;8.124079e-002
3.106891e+003;8.105362e-002
3.108819e+003;8.116961e-002
3.110748e+003;8.138751e-002
3.112677e+003;8.102819e-002
3.114605e+003;8.064239e-002
3.116533e+003;8.055846e-002
3.118462e+003;8.047838e-002
3.120391e+003;8.052679e-002
3.122319e+003;8.061088e-002
3.124248e+003;8.064870e-002
3.126176e+003;8.064092e-002
3.128105e+003;8.075994e-002
3.130033e+003;8.080823e-002
3.131962e+003;8.073344e-002
3.133890e+003;8.109144e-002
3.135819e+003;8.142456e-002
3.137748e+003;8.127327e-002
3.139676e+003;8.127003e-002
3.141605e+003;8.166391e-002
3.143533e+003;8.199934e-002
3.145462e+003;8.208639e-002
3.147390e+003;8.191931e-002
3.149319e+003;8.219320e-002
3.151247e+003;8.276235e-002
3.153176e+003;8.324317e-002
3.155104e+003;8.339956e-002
3.157033e+003;8.382941e-002
3.158962e+003;8.459854e-002
3.160890e+003;8.490507e-002
3.162819e+003;8.475715e-002
3.164747e+003;8.515432e-002
3.166676e+003;8.588502e-002
3.168604e+003;8.630896e-002
3.170533e+003;8.688705e-002
3.172461e+003;8.792041e-002
3.174390e+003;8.840346e-002
3.176319e+003;8.866724e-002
3.178247e+003;8.953575e-002
3.180176e+003;9.015588e-002
3.182104e+003;9.042518e-002
3.184033e+003;9.083720e-002
3.185961e+003;9.153274e-002
3.187890e+003;9.220140e-002
3.189818e+003;9.279473e-002
3.191747e+003;9.365399e-002
3.193676e+003;9.435916e-002
3.195604e+003;9.500225e-002
3.197532e+003;9.537221e-002
3.199461e+003;9.589650e-002
3.201390e+003;9.681969e-002
3.203318e+003;9.715001e-002
3.205247e+003;9.779672e-002
3.207175e+003;9.908665e-002
3.209104e+003;9.955186e-002
3.211032e+003;9.991299e-002
3.212961e+003;1.007910e-001
3.214889e+003;1.015420e-001
3.216818e+003;1.023456e-001
3.218747e+003;1.034370e-001
3.220675e+003;1.043437e-001
3.222604e+003;1.051437e-001
3.224532e+003;1.058368e-001
3.226461e+003;1.064367e-001
3.228389e+003;1.073403e-001
3.230318e+003;1.084311e-001
3.232246e+003;1.092789e-001
3.234175e+003;1.098215e-001
3.236104e+003;1.109019e-001
3.238032e+003;1.123404e-001
3.239961e+003;1.132986e-001
3.241889e+003;1.141328e-001
3.243818e+003;1.155134e-001
3.245746e+003;1.168374e-001
3.247675e+003;1.177319e-001
3.249603e+003;1.190914e-001
3.251532e+003;1.206376e-001
3.253460e+003;1.217085e-001
3.255389e+003;1.229694e-001
3.257318e+003;1.245367e-001
3.259246e+003;1.262822e-001
3.261175e+003;1.275074e-001
3.263103e+003;1.285214e-001
3.265032e+003;1.298618e-001
3.266960e+003;1.313007e-001
3.268889e+003;1.329298e-001
3.270817e+003;1.344269e-001
3.272746e+003;1.350996e-001
3.274675e+003;1.353408e-001
3.276603e+003;1.360673e-001
3.278531e+003;1.369747e-001
3.280460e+003;1.372292e-001
3.282389e+003;1.372732e-001
3.284317e+003;1.370391e-001
3.286246e+003;1.361900e-001
3.288174e+003;1.355043e-001
3.290103e+003;1.348730e-001
3.292031e+003;1.340538e-001
3.293960e+003;1.330370e-001
3.295888e+003;1.315746e-001
3.297817e+003;1.300044e-001
3.299746e+003;1.284272e-001
3.301674e+003;1.266045e-001
3.303603e+003;1.248817e-001
3.305531e+003;1.231524e-001
3.307460e+003;1.210918e-001
3.309388e+003;1.193854e-001
3.311317e+003;1.180399e-001
3.313245e+003;1.164882e-001
3.315174e+003;1.149288e-001
3.317103e+003;1.132968e-001
3.319031e+003;1.113527e-001
3.320960e+003;1.094028e-001
3.322888e+003;1.078730e-001
3.324817e+003;1.067776e-001
3.326745e+003;1.053731e-001
3.328674e+003;1.035588e-001
3.330602e+003;1.019649e-001
3.332531e+003;1.007098e-001
3.334459e+003;9.946915e-002
3.336388e+003;9.813704e-002
3.338317e+003;9.722432e-002
3.340245e+003;9.647349e-002
3.342174e+003;9.523377e-002
3.344102e+003;9.398524e-002
3.346031e+003;9.305734e-002
3.347959e+003;9.204312e-002
3.349888e+003;9.114383e-002
3.351816e+003;9.045774e-002
3.353745e+003;8.977623e-002
3.355674e+003;8.888549e-002
3.357602e+003;8.795376e-002
3.359531e+003;8.740290e-002
3.361459e+003;8.663312e-002
3.363388e+003;8.600367e-002
3.365316e+003;8.587738e-002
3.367245e+003;8.538569e-002
3.369173e+003;8.487195e-002
3.371102e+003;8.409285e-002
3.373031e+003;8.311363e-002
3.374959e+003;8.252524e-002
3.376887e+003;8.250785e-002
3.378816e+003;8.214235e-002
3.380745e+003;8.166898e-002
3.382673e+003;8.113250e-002
3.384602e+003;8.068532e-002
3.386530e+003;8.014654e-002
3.388459e+003;7.956020e-002
3.390387e+003;7.946593e-002
3.392316e+003;7.919086e-002
3.394244e+003;7.837714e-002
3.396173e+003;7.808530e-002
3.398102e+003;7.792296e-002
3.400030e+003;7.731454e-002
3.401959e+003;7.729214e-002
3.403887e+003;7.734962e-002
3.405816e+003;7.660349e-002
3.407744e+003;7.564238e-002
3.409673e+003;7.507528e-002
3.411601e+003;7.487461e-002
3.413530e+003;7.435604e-002
3.415458e+003;7.352103e-002
3.417387e+003;7.301995e-002
3.419316e+003;7.277521e-002
3.421244e+003;7.269552e-002
3.423173e+003;7.247344e-002
3.425101e+003;7.192160e-002
3.427030e+003;7.146911e-002
3.428958e+003;7.109945e-002
3.430887e+003;7.073383e-002
3.432815e+003;7.041836e-002
3.434744e+003;7.000543e-002
3.436673e+003;6.923449e-002
3.438601e+003;6.892407e-002
3.440530e+003;6.886078e-002
3.442458e+003;6.867576e-002
3.444387e+003;6.859574e-002
3.446315e+003;6.860975e-002
3.448244e+003;6.853572e-002
3.450172e+003;6.794968e-002
3.452101e+003;6.720714e-002
3.454030e+003;6.699777e-002
3.455958e+003;6.705032e-002
3.457886e+003;6.699290e-002
3.459815e+003;6.638370e-002
3.461744e+003;6.567376e-002
3.463672e+003;6.525793e-002
3.465601e+003;6.520325e-002
3.467529e+003;6.534462e-002
3.469458e+003;6.517749e-002
3.471386e+003;6.534750e-002
3.473315e+003;6.557799e-002
3.475243e+003;6.536433e-002
3.477172e+003;6.495179e-002
3.479101e+003;6.466983e-002
3.481029e+003;6.460439e-002
3.482958e+003;6.466122e-002
3.484886e+003;6.420444e-002
3.486815e+003;6.388162e-002
3.488743e+003;6.388024e-002
3.490672e+003;6.365475e-002
3.492600e+003;6.348399e-002
3.494529e+003;6.345599e-002
3.496458e+003;6.338529e-002
3.498386e+003;6.308472e-002
3.500315e+003;6.291104e-002
3.502243e+003;6.292368e-002
3.504172e+003;6.251900e-002
3.506100e+003;6.207922e-002
3.508029e+003;6.198867e-002
3.509957e+003;6.201623e-002
3.511886e+003;6.192940e-002
3.513814e+003;6.173258e-002
3.515743e+003;6.128894e-002
3.517672e+003;6.104935e-002
3.519600e+003;6.123484e-002
3.521529e+003;6.086756e-002
3.523457e+003;6.027506e-002
3.525386e+003;6.021111e-002
3.527314e+003;5.988193e-002
3.529243e+003;5.981865e-002
3.531171e+003;5.994876e-002
3.533100e+003;5.975116e-002
3.535029e+003;5.964904e-002
3.536957e+003;5.967132e-002
3.538885e+003;5.933935e-002
3.540814e+003;5.882492e-002
3.542743e+003;5.840577e-002
3.544671e+003;5.822512e-002
3.546600e+003;5.807261e-002
3.548528e+003;5.811958e-002
3.550457e+003;5.813606e-002
3.552385e+003;5.788570e-002
3.554314e+003;5.763565e-002
3.556242e+003;5.766898e-002
3.558171e+003;5.759066e-002
3.560100e+003;5.716182e-002
3.562028e+003;5.658971e-002
3.563957e+003;5.640155e-002
3.565885e+003;5.605737e-002
3.567814e+003;5.576790e-002
3.569742e+003;5.598662e-002
3.571671e+003;5.578444e-002
3.573599e+003;5.541278e-002
3.575528e+003;5.555069e-002
3.577457e+003;5.556398e-002
3.579385e+003;5.507664e-002
3.581314e+003;5.501131e-002
3.583242e+003;5.522585e-002
3.585171e+003;5.474877e-002
3.587099e+003;5.430034e-002
3.589028e+003;5.400345e-002
3.590956e+003;5.369532e-002
3.592885e+003;5.357310e-002
3.594813e+003;5.347731e-002
3.596742e+003;5.381922e-002
3.598671e+003;5.369468e-002
3.600599e+003;5.319123e-002
3.602528e+003;5.299264e-002
3.604456e+003;5.281045e-002
3.606385e+003;5.263039e-002
3.608313e+003;5.215145e-002
3.610242e+003;5.183989e-002
3.612170e+003;5.191210e-002
3.614099e+003;5.163169e-002
3.616028e+003;5.122494e-002
3.617956e+003;5.135332e-002
3.619885e+003;5.151263e-002
3.621813e+003;5.106290e-002
3.623742e+003;5.033693e-002
3.625670e+003;5.010531e-002
3.627599e+003;5.027945e-002
3.629527e+003;5.035285e-002
3.631456e+003;5.004738e-002
3.633385e+003;4.966536e-002
3.635313e+003;4.935517e-002
3.637241e+003;4.917172e-002
3.639170e+003;4.897948e-002
3.641099e+003;4.878550e-002
3.643027e+003;4.870639e-002
3.644956e+003;4.877379e-002
3.646884e+003;4.873323e-002
3.648813e+003;4.832100e-002
3.650741e+003;4.789821e-002
3.652670e+003;4.773364e-002
3.654598e+003;4.788885e-002
3.656527e+003;4.760958e-002
3.658456e+003;4.700243e-002
3.660384e+003;4.713788e-002
3.662313e+003;4.704038e-002
3.664241e+003;4.640047e-002
3.666170e+003;4.613111e-002
3.668098e+003;4.618738e-002
3.670027e+003;4.578606e-002
3.671955e+003;4.528055e-002
3.673884e+003;4.530567e-002
3.675813e+003;4.520825e-002
3.677741e+003;4.501063e-002
3.679669e+003;4.481791e-002
3.681598e+003;4.427914e-002
3.683527e+003;4.393666e-002
3.685455e+003;4.423907e-002
3.687384e+003;4.414689e-002
3.689312e+003;4.308460e-002
3.691241e+003;4.257389e-002
3.693169e+003;4.271235e-002
3.695098e+003;4.271436e-002
3.697026e+003;4.258851e-002
3.698955e+003;4.252484e-002
3.700884e+003;4.245936e-002
3.702812e+003;4.221040e-002
3.704741e+003;4.170568e-002
3.706669e+003;4.194417e-002
3.708598e+003;4.245012e-002
3.710526e+003;4.224699e-002
3.712455e+003;4.151369e-002
3.714383e+003;4.098257e-002
3.716312e+003;4.100857e-002
3.718240e+003;4.103613e-002
3.720169e+003;4.108985e-002
3.722098e+003;4.104069e-002
3.724026e+003;4.064897e-002
3.725955e+003;4.039849e-002
3.727883e+003;4.051848e-002
3.729812e+003;4.050098e-002
3.731740e+003;4.038882e-002
3.733669e+003;4.065519e-002
3.735597e+003;4.084276e-002
3.737526e+003;4.082868e-002
3.739455e+003;4.087199e-002
3.741383e+003;4.089511e-002
3.743312e+003;4.064013e-002
3.745240e+003;4.009627e-002
3.747169e+003;4.033108e-002
3.749097e+003;4.066975e-002
3.751026e+003;4.055569e-002
3.752954e+003;4.023547e-002
3.754883e+003;4.006527e-002
3.756812e+003;4.019995e-002
3.758740e+003;4.060123e-002
3.760668e+003;4.050564e-002
3.762597e+003;4.030559e-002
3.764526e+003;4.023463e-002
3.766454e+003;4.021762e-002
3.768383e+003;3.992326e-002
3.770311e+003;3.969705e-002
3.772240e+003;3.997066e-002
3.774168e+003;4.028215e-002
3.776097e+003;4.033802e-002
3.778025e+003;4.004409e-002
3.779954e+003;4.020017e-002
3.781883e+003;4.026033e-002
3.783811e+003;4.025328e-002
3.785740e+003;4.057868e-002
3.787668e+003;4.063285e-002
3.789597e+003;4.015165e-002
3.791525e+003;4.004994e-002
3.793454e+003;4.029839e-002
3.795382e+003;4.049473e-002
3.797311e+003;4.067149e-002
3.799240e+003;4.032995e-002
3.801168e+003;3.974807e-002
3.803097e+003;3.976281e-002
3.805025e+003;4.031919e-002
3.806954e+003;4.056005e-002
3.808882e+003;4.077841e-002
3.810811e+003;4.078296e-002
3.812739e+003;4.070759e-002
3.814668e+003;4.085267e-002
3.816596e+003;4.087174e-002
3.818525e+003;4.074238e-002
3.820454e+003;4.043355e-002
3.822382e+003;4.041086e-002
3.824311e+003;4.078314e-002
3.826239e+003;4.077830e-002
3.828168e+003;4.077069e-002
3.830096e+003;4.094077e-002
3.832025e+003;4.073383e-002
3.833953e+003;4.073448e-002
3.835882e+003;4.105005e-002
3.837811e+003;4.096640e-002
3.839739e+003;4.057078e-002
3.841667e+003;4.021042e-002
3.843596e+003;4.035813e-002
3.845525e+003;4.069332e-002
3.847453e+003;4.103315e-002
3.849382e+003;4.097911e-002
3.851310e+003;4.058006e-002
3.853239e+003;4.041584e-002
3.855167e+003;4.093756e-002
3.857096e+003;4.142583e-002
3.859024e+003;4.157114e-002
3.860953e+003;4.160841e-002
3.862882e+003;4.140896e-002
3.864810e+003;4.100868e-002
3.866739e+003;4.092376e-002
3.868667e+003;4.112263e-002
3.870596e+003;4.127000e-002
3.872524e+003;4.137925e-002
3.874453e+003;4.123054e-002
3.876381e+003;4.135833e-002
3.878310e+003;4.168689e-002
3.880239e+003;4.170790e-002
3.882167e+003;4.146053e-002
3.884096e+003;4.161822e-002
3.886024e+003;4.193552e-002
3.887953e+003;4.186678e-002
3.889881e+003;4.171100e-002
3.891810e+003;4.154756e-002
3.893738e+003;4.180639e-002
3.895667e+003;4.230382e-002
3.897595e+003;4.225101e-002
3.899524e+003;4.216604e-002
3.901453e+003;4.222278e-002
3.903381e+003;4.260309e-002
3.905310e+003;4.261402e-002
3.907238e+003;4.230765e-002
3.909167e+003;4.214245e-002
3.911095e+003;4.245407e-002
3.913024e+003;4.253036e-002
3.914952e+003;4.221015e-002
3.916881e+003;4.193797e-002
3.918810e+003;4.188152e-002
3.920738e+003;4.240508e-002
3.922667e+003;4.309301e-002
3.924595e+003;4.306813e-002
3.926524e+003;4.299175e-002
3.928452e+003;4.286351e-002
3.930381e+003;4.246583e-002
3.932309e+003;4.267469e-002
3.934238e+003;4.314501e-002
3.936167e+003;4.304058e-002
3.938095e+003;4.242897e-002
3.940023e+003;4.202961e-002
3.941952e+003;4.219295e-002
3.943881e+003;4.267371e-002
3.945809e+003;4.307714e-002
3.947738e+003;4.335838e-002
3.949666e+003;4.310542e-002
3.951595e+003;4.287389e-002
3.953523e+003;4.309389e-002
3.955452e+003;4.348354e-002
3.957380e+003;4.343157e-002
3.959309e+003;4.296709e-002
3.961238e+003;4.291924e-002
3.963166e+003;4.328670e-002
3.965095e+003;4.333535e-002
3.967023e+003;4.334710e-002
3.968952e+003;4.345219e-002
3.970880e+003;4.324189e-002
3.972809e+003;4.328303e-002
3.974737e+003;4.351280e-002
3.976666e+003;4.341451e-002
3.978594e+003;4.326850e-002
3.980523e+003;4.329878e-002
3.982452e+003;4.343135e-002
3.984380e+003;4.340213e-002
3.986309e+003;4.362998e-002
3.988237e+003;4.395822e-002
3.990166e+003;4.414641e-002
3.992094e+003;4.426872e-002
3.994023e+003;4.390561e-002
3.995951e+003;4.321675e-002
3.997880e+003;4.337313e-002
3.999809e+003;4.331939e-002
4.001737e+003;0.000000e+000
