3.992094e+002;0.000000e+000
4.011380e+002;0.000000e+000
4.030665e+002;0.000000e+000
4.049951e+002;0.000000e+000
4.069236e+002;0.000000e+000
4.088522e+002;0.000000e+000
4.107807e+002;0.000000e+000
4.127093e+002;0.000000e+000
4.146378e+002;0.000000e+000
4.165664e+002;0.000000e+000
4.184949e+002;0.000000e+000
4.204235e+002;0.000000e+000
4.223520e+002;0.000000e+000
4.242806e+002;0.000000e+000
4.262091e+002;0.000000e+000
4.281377e+002;0.000000e+000
4.300662e+002;0.000000e+000
4.319948e+002;0.000000e+000
4.339233e+002;0.000000e+000
4.358519e+002;0.000000e+000
4.377804e+002;0.000000e+000
4.397090e+002;0.000000e+000
4.416375e+002;0.000000e+000
4.435660e+002;0.000000e+000
4.454946e+002;0.000000e+000
4.474232e+002;0.000000e+000
4.493517e+002;0.000000e+000
4.512802e+002;0.000000e+000
4.532088e+002;0.000000e+000
4.551373e+002;0.000000e+000
4.570659e+002;0.000000e+000
4.589944e+002;0.000000e+000
4.609230e+002;0.000000e+000
4.628515e+002;0.000000e+000
4.647801e+002;0.000000e+000
4.667086e+002;0.000000e+000
4.686372e+002;0.000000e+000
4.705657e+002;0.000000e+000
4.724943e+002;0.000000e+000
4.744228e+002;0.000000e+000
4.763513e+002;0.000000e+000
4.782799e+002;0.000000e+000
4.802085e+002;0.000000e+000
4.821370e+002;0.000000e+000
4.840656e+002;0.000000e+000
4.859941e+002;0.000000e+000
4.879226e+002;0.000000e+000
4.898512e+002;0.000000e+000
4.917798e+002;0.000000e+000
4.937083e+002;0.000000e+000
4.956368e+002;0.000000e+000
4.975654e+002;0.000000e+000
4.994939e+002;0.000000e+000
5.014225e+002;0.000000e+000
5.033510e+002;0.000000e+000
5.052796e+002;0.000000e+000
5.072081e+002;0.000000e+000
5.091367e+002;0.000000e+000
5.110652e+002;0.000000e+000
5.129938e+002;0.000000e+000
5.149223e+002;0.000000e+000
5.168509e+002;0.000000e+000
5.187794e+002;0.000000e+000
5.207079e+002;0.000000e+000
5.226365e+002;0.000000e+000
5.245651e+002;0.000000e+000
5.264936e+002;0.000000e+000
5.284222e+002;0.000000e+000
5.303507e+002;0.000000e+000
5.322792e+002;0.000000e+000
5.342078e+002;0.000000e+000
5.361364e+002;0.000000e+000
5.380649e+002;0.000000e+000
5.399935e+002;0.000000e+000
5.419220e+002;0.000000e+000
5.438505e+002;0.000000e+000
5.457791e+002;0.000000e+000
5.477076e+002;0.000000e+000
5.496362e+002;0.000000e+000
5.515648e+002;0.000000e+000
5.534933e+002;0.000000e+000
5.554218e+002;0.000000e+000
5.573504e+002;0.000000e+000
5.592789e+002;0.000000e+000
5.612075e+002;0.000000e+000
5.631360e+002;0.000000e+000
5.650646e+002;0.000000e+000
5.669931e+002;0.000000e+000
5.689217e+002;0.000000e+000
5.708502e+002;0.000000e+000
5.727787e+002;0.000000e+000
5.747073e+002;0.000000e+000
5.766359e+002;0.000000e+000
5.785644e+002;0.000000e+000
5.804930e+002;0.000000e+000
5.824215e+002;0.000000e+000
5.843500e+002;0.000000e+000
5.862786e+002;0.000000e+000
5.882072e+002;0.000000e+000
5.901357e+002;0.000000e+000
5.920643e+002;0.000000e+000
5.939928e+002;0.000000e+000
5.959213e+002;0.000000e+000
5.978499e+002;0.000000e+000
5.997784e+002;2.738536e-001
6.017070e+002;2.733081e-001
6.036355e+002;2.791562e-001
6.055641e+002;2.847221e-001
6.074926e+002;2.842822e-001
6.094211e+002;2.793715e-001
6.113497e+002;2.790736e-001
6.132783e+002;2.824360e-001
6.152068e+002;2.804179e-001
6.171354e+002;2.791215e-001
6.190639e+002;2.795718e-001
6.209924e+002;2.779701e-001
6.229210e+002;2.744461e-001
6.248495e+002;2.733381e-001
6.267781e+002;2.767122e-001
6.287067e+002;2.755632e-001
6.306352e+002;2.710220e-001
6.325637e+002;2.717924e-001
6.344923e+002;2.696687e-001
6.364208e+002;2.641608e-001
6.383494e+002;2.614527e-001
6.402780e+002;2.604314e-001
6.422065e+002;2.575279e-001
6.441350e+002;2.546930e-001
6.460636e+002;2.559315e-001
6.479921e+002;2.564118e-001
6.499207e+002;2.542100e-001
6.518492e+002;2.541054e-001
6.537778e+002;2.565928e-001
6.557063e+002;2.562386e-001
6.576349e+002;2.534693e-001
6.595634e+002;2.520451e-001
6.614919e+002;2.517217e-001
6.634205e+002;2.534554e-001
6.653491e+002;2.534692e-001
6.672776e+002;2.513493e-001
6.692062e+002;2.514611e-001
6.711347e+002;2.535343e-001
6.730632e+002;2.535165e-001
6.749918e+002;2.509114e-001
6.769203e+002;2.486979e-001
6.788489e+002;2.491408e-001
6.807775e+002;2.505090e-001
6.827060e+002;2.490336e-001
6.846345e+002;2.472933e-001
6.865631e+002;2.476224e-001
6.884916e+002;2.464689e-001
6.904202e+002;2.452542e-001
6.923488e+002;2.437157e-001
6.942773e+002;2.414977e-001
6.962058e+002;2.395048e-001
6.981344e+002;2.389468e-001
7.000629e+002;2.376558e-001
7.019915e+002;2.339385e-001
7.039200e+002;2.296976e-001
7.058486e+002;2.270007e-001
7.077771e+002;2.242007e-001
7.097057e+002;2.217384e-001
7.116342e+002;2.194908e-001
7.135627e+002;2.161762e-001
7.154913e+002;2.136442e-001
7.174199e+002;2.117760e-001
7.193484e+002;2.084954e-001
7.212770e+002;2.049169e-001
7.232055e+002;2.024237e-001
7.251340e+002;1.991293e-001
7.270626e+002;1.954006e-001
7.289911e+002;1.922332e-001
7.309197e+002;1.894930e-001
7.328483e+002;1.873604e-001
7.347768e+002;1.846132e-001
7.367053e+002;1.809901e-001
7.386339e+002;1.777089e-001
7.405624e+002;1.759508e-001
7.424910e+002;1.740633e-001
7.444196e+002;1.700710e-001
7.463481e+002;1.663943e-001
7.482766e+002;1.648563e-001
7.502052e+002;1.627461e-001
7.521337e+002;1.595569e-001
7.540623e+002;1.578411e-001
7.559908e+002;1.563171e-001
7.579194e+002;1.552315e-001
7.598479e+002;1.539643e-001
7.617765e+002;1.522232e-001
7.637050e+002;1.509881e-001
7.656335e+002;1.494562e-001
7.675621e+002;1.476693e-001
7.694907e+002;1.460410e-001
7.714192e+002;1.436193e-001
7.733478e+002;1.418539e-001
7.752763e+002;1.410329e-001
7.772048e+002;1.400159e-001
7.791334e+002;1.379089e-001
7.810620e+002;1.359551e-001
7.829905e+002;1.344320e-001
7.849191e+002;1.334536e-001
7.868476e+002;1.316728e-001
7.887761e+002;1.297159e-001
7.907047e+002;1.286946e-001
7.926332e+002;1.281963e-001
7.945618e+002;1.273808e-001
7.964903e+002;1.262993e-001
7.984189e+002;1.252331e-001
8.003474e+002;1.249157e-001
8.022759e+002;1.248200e-001
8.042045e+002;1.242548e-001
8.061331e+002;1.240446e-001
8.080616e+002;1.243925e-001
8.099902e+002;1.246590e-001
8.119187e+002;1.253821e-001
8.138472e+002;1.252290e-001
8.157758e+002;1.249668e-001
8.177043e+002;1.252745e-001
8.196329e+002;1.259720e-001
8.215615e+002;1.268666e-001
8.234900e+002;1.271431e-001
8.254185e+002;1.270030e-001
8.273471e+002;1.267512e-001
8.292756e+002;1.269095e-001
8.312042e+002;1.262609e-001
8.331328e+002;1.243029e-001
8.350613e+002;1.228442e-001
8.369898e+002;1.215066e-001
8.389184e+002;1.202117e-001
8.408469e+002;1.190569e-001
8.427755e+002;1.178965e-001
8.447040e+002;1.171947e-001
8.466326e+002;1.175958e-001
8.485611e+002;1.182620e-001
8.504897e+002;1.188174e-001
8.524182e+002;1.188513e-001
8.543467e+002;1.176230e-001
8.562753e+002;1.158316e-001
8.582039e+002;1.136965e-001
8.601324e+002;1.115138e-001
8.620610e+002;1.096886e-001
8.639895e+002;1.085668e-001
8.659180e+002;1.076819e-001
8.678466e+002;1.070498e-001
8.697751e+002;1.070306e-001
8.717037e+002;1.070466e-001
8.736323e+002;1.072508e-001
8.755608e+002;1.072355e-001
8.774893e+002;1.071797e-001
8.794179e+002;1.072674e-001
8.813464e+002;1.072593e-001
8.832750e+002;1.076135e-001
8.852036e+002;1.076340e-001
8.871321e+002;1.070144e-001
8.890606e+002;1.067020e-001
8.909892e+002;1.070960e-001
8.929177e+002;1.073361e-001
8.948463e+002;1.070004e-001
8.967748e+002;1.067097e-001
8.987034e+002;1.064086e-001
9.006319e+002;1.061867e-001
9.025605e+002;1.057969e-001
9.044890e+002;1.054810e-001
9.064175e+002;1.055858e-001
9.083461e+002;1.057647e-001
9.102747e+002;1.064362e-001
9.122032e+002;1.074580e-001
9.141318e+002;1.082508e-001
9.160603e+002;1.091028e-001
9.179888e+002;1.103121e-001
9.199174e+002;1.116737e-001
9.218459e+002;1.132020e-001
9.237745e+002;1.143887e-001
9.257031e+002;1.152572e-001
9.276316e+002;1.164584e-001
9.295601e+002;1.176275e-001
9.314887e+002;1.177430e-001
9.334172e+002;1.174835e-001
9.353458e+002;1.179936e-001
9.372744e+002;1.186535e-001
9.392029e+002;1.193125e-001
9.411314e+002;1.201031e-001
9.430600e+002;1.208013e-001
9.449885e+002;1.214822e-001
9.469171e+002;1.221392e-001
9.488456e+002;1.232226e-001
9.507742e+002;1.246166e-001
9.527027e+002;1.258725e-001
9.546313e+002;1.271895e-001
9.565598e+002;1.284984e-001
9.584883e+002;1.299387e-001
9.604169e+002;1.316176e-001
9.623455e+002;1.335203e-001
9.642740e+002;1.353669e-001
9.662026e+002;1.373021e-001
9.681311e+002;1.394532e-001
9.700596e+002;1.413305e-001
9.719882e+002;1.424578e-001
9.739167e+002;1.432012e-001
9.758453e+002;1.438109e-001
9.777739e+002;1.435607e-001
9.797024e+002;1.428182e-001
9.816309e+002;1.418213e-001
9.835595e+002;1.415032e-001
9.854880e+002;1.423091e-001
9.874166e+002;1.437016e-001
9.893452e+002;1.455013e-001
9.912737e+002;1.474205e-001
9.932022e+002;1.489773e-001
9.951307e+002;1.497929e-001
9.970593e+002;1.500291e-001
9.989879e+002;1.498788e-001
1.000916e+003;1.490801e-001
1.002845e+003;1.480694e-001
1.004773e+003;1.475576e-001
1.006702e+003;1.470636e-001
1.008631e+003;1.465362e-001
1.010559e+003;1.461926e-001
1.012488e+003;1.455363e-001
1.014416e+003;1.443282e-001
1.016345e+003;1.431496e-001
1.018273e+003;1.426024e-001
1.020202e+003;1.429823e-001
1.022130e+003;1.445631e-001
1.024059e+003;1.474358e-001
1.025988e+003;1.508565e-001
1.027916e+003;1.539714e-001
1.029845e+003;1.564418e-001
1.031773e+003;1.586764e-001
1.033702e+003;1.607341e-001
1.035630e+003;1.626632e-001
1.037559e+003;1.645539e-001
1.039487e+003;1.657237e-001
1.041416e+003;1.663956e-001
1.043344e+003;1.671406e-001
1.045273e+003;1.676311e-001
1.047202e+003;1.683825e-001
1.049130e+003;1.694609e-001
1.051059e+003;1.705110e-001
1.052987e+003;1.722513e-001
1.054916e+003;1.742487e-001
1.056844e+003;1.768430e-001
1.058773e+003;1.790281e-001
1.060701e+003;1.803788e-001
1.062630e+003;1.813602e-001
1.064558e+003;1.819413e-001
1.066487e+003;1.818217e-001
1.068416e+003;1.814305e-001
1.070344e+003;1.808457e-001
1.072273e+003;1.792167e-001
1.074201e+003;1.774863e-001
1.076130e+003;1.752851e-001
1.078058e+003;1.720076e-001
1.079987e+003;1.687890e-001
1.081915e+003;1.655021e-001
1.083844e+003;1.622762e-001
1.085773e+003;1.590550e-001
1.087701e+003;1.561762e-001
1.089630e+003;1.545217e-001
1.091558e+003;1.527589e-001
1.093487e+003;1.516362e-001
1.095415e+003;1.509906e-001
1.097344e+003;1.506088e-001
1.099272e+003;1.505731e-001
1.101201e+003;1.506427e-001
1.103129e+003;1.511266e-001
1.105058e+003;1.508749e-001
1.106987e+003;1.499913e-001
1.108915e+003;1.490297e-001
1.110844e+003;1.480310e-001
1.112772e+003;1.472721e-001
1.114701e+003;1.471595e-001
1.116629e+003;1.473743e-001
1.118558e+003;1.471538e-001
1.120486e+003;1.467689e-001
1.122415e+003;1.468427e-001
1.124344e+003;1.475390e-001
1.126272e+003;1.481647e-001
1.128201e+003;1.482227e-001
1.130129e+003;1.488568e-001
1.132058e+003;1.499505e-001
1.133986e+003;1.513024e-001
1.135915e+003;1.527826e-001
1.137843e+003;1.545259e-001
1.139772e+003;1.567074e-001
1.141700e+003;1.585219e-001
1.143629e+003;1.601833e-001
1.145557e+003;1.623264e-001
1.147486e+003;1.644721e-001
1.149415e+003;1.662890e-001
1.151343e+003;1.681167e-001
1.153272e+003;1.699778e-001
1.155200e+003;1.713689e-001
1.157129e+003;1.728263e-001
1.159057e+003;1.742073e-001
1.160986e+003;1.753414e-001
1.162914e+003;1.761989e-001
1.164843e+003;1.767391e-001
1.166771e+003;1.773530e-001
1.168700e+003;1.785350e-001
1.170629e+003;1.791063e-001
1.172557e+003;1.786399e-001
1.174486e+003;1.774515e-001
1.176414e+003;1.759409e-001
1.178343e+003;1.745536e-001
1.180271e+003;1.732479e-001
1.182200e+003;1.729377e-001
1.184128e+003;1.733630e-001
1.186057e+003;1.740554e-001
1.187986e+003;1.751419e-001
1.189914e+003;1.765473e-001
1.191843e+003;1.785434e-001
1.193771e+003;1.813220e-001
1.195700e+003;1.844106e-001
1.197628e+003;1.883389e-001
1.199557e+003;1.926836e-001
1.201485e+003;1.968541e-001
1.203414e+003;2.015976e-001
1.205343e+003;2.066186e-001
1.207271e+003;2.116242e-001
1.209200e+003;2.165776e-001
1.211128e+003;2.211113e-001
1.213057e+003;2.253890e-001
1.214985e+003;2.295672e-001
1.216914e+003;2.334241e-001
1.218842e+003;2.368646e-001
1.220771e+003;2.401151e-001
1.222699e+003;2.429492e-001
1.224628e+003;2.449602e-001
1.226557e+003;2.462550e-001
1.228485e+003;2.466273e-001
1.230414e+003;2.465085e-001
1.232342e+003;2.454483e-001
1.234271e+003;2.436949e-001
1.236199e+003;2.416730e-001
1.238128e+003;2.392192e-001
1.240056e+003;2.366857e-001
1.241985e+003;2.342190e-001
1.243913e+003;2.317221e-001
1.245842e+003;2.298924e-001
1.247771e+003;2.286071e-001
1.249699e+003;2.270824e-001
1.251628e+003;2.253716e-001
1.253556e+003;2.239544e-001
1.255485e+003;2.228077e-001
1.257413e+003;2.216263e-001
1.259342e+003;2.199645e-001
1.261270e+003;2.178344e-001
1.263199e+003;2.149622e-001
1.265127e+003;2.114645e-001
1.267056e+003;2.079174e-001
1.268985e+003;2.044420e-001
1.270913e+003;2.007532e-001
1.272842e+003;1.972902e-001
1.274770e+003;1.940825e-001
1.276699e+003;1.912470e-001
1.278627e+003;1.888254e-001
1.280556e+003;1.866282e-001
1.282484e+003;1.849353e-001
1.284413e+003;1.838129e-001
1.286342e+003;1.829241e-001
1.288270e+003;1.820276e-001
1.290199e+003;1.812238e-001
1.292127e+003;1.807221e-001
1.294056e+003;1.807588e-001
1.295984e+003;1.809469e-001
1.297913e+003;1.808554e-001
1.299841e+003;1.805247e-001
1.301770e+003;1.802483e-001
1.303698e+003;1.798788e-001
1.305627e+003;1.793805e-001
1.307556e+003;1.789739e-001
1.309484e+003;1.785466e-001
1.311413e+003;1.779784e-001
1.313341e+003;1.775031e-001
1.315270e+003;1.773096e-001
1.317198e+003;1.776216e-001
1.319127e+003;1.776923e-001
1.321055e+003;1.778423e-001
1.322984e+003;1.786495e-001
1.324912e+003;1.796272e-001
1.326841e+003;1.807473e-001
1.328770e+003;1.817055e-001
1.330698e+003;1.823545e-001
1.332627e+003;1.828697e-001
1.334555e+003;1.832677e-001
1.336484e+003;1.832161e-001
1.338412e+003;1.829367e-001
1.340341e+003;1.828197e-001
1.342269e+003;1.828075e-001
1.344198e+003;1.828916e-001
1.346126e+003;1.830808e-001
1.348055e+003;1.831191e-001
1.349984e+003;1.832677e-001
1.351912e+003;1.835075e-001
1.353841e+003;1.840570e-001
1.355769e+003;1.854759e-001
1.357698e+003;1.874624e-001
1.359626e+003;1.898325e-001
1.361555e+003;1.927491e-001
1.363483e+003;1.960692e-001
1.365412e+003;1.992738e-001
1.367341e+003;2.016704e-001
1.369269e+003;2.028404e-001
1.371198e+003;2.030440e-001
1.373126e+003;2.027235e-001
1.375055e+003;2.021909e-001
1.376983e+003;2.017786e-001
1.378912e+003;2.016069e-001
1.380840e+003;2.019477e-001
1.382769e+003;2.024669e-001
1.384698e+003;2.026000e-001
1.386626e+003;2.027513e-001
1.388555e+003;2.033192e-001
1.390483e+003;2.037038e-001
1.392412e+003;2.034790e-001
1.394340e+003;2.033570e-001
1.396269e+003;2.038556e-001
1.398197e+003;2.045421e-001
1.400126e+003;2.054372e-001
1.402054e+003;2.064024e-001
1.403983e+003;2.073914e-001
1.405911e+003;2.085742e-001
1.407840e+003;2.097084e-001
1.409769e+003;2.108213e-001
1.411697e+003;2.115341e-001
1.413626e+003;2.122418e-001
1.415554e+003;2.130045e-001
1.417483e+003;2.134382e-001
1.419411e+003;2.143023e-001
1.421340e+003;2.164556e-001
1.423268e+003;2.190904e-001
1.425197e+003;2.225829e-001
1.427125e+003;2.271621e-001
1.429054e+003;2.325281e-001
1.430983e+003;2.386952e-001
1.432911e+003;2.452599e-001
1.434840e+003;2.513826e-001
1.436768e+003;2.566002e-001
1.438697e+003;2.610975e-001
1.440625e+003;2.645824e-001
1.442554e+003;2.668599e-001
1.444482e+003;2.677192e-001
1.446411e+003;2.669827e-001
1.448340e+003;2.647197e-001
1.450268e+003;2.609874e-001
1.452197e+003;2.562219e-001
1.454125e+003;2.510169e-001
1.456054e+003;2.455776e-001
1.457982e+003;2.416233e-001
1.459911e+003;2.393378e-001
1.461839e+003;2.377163e-001
1.463768e+003;2.367449e-001
1.465697e+003;2.371589e-001
1.467625e+003;2.385722e-001
1.469554e+003;2.400927e-001
1.471482e+003;2.420586e-001
1.473411e+003;2.449661e-001
1.475339e+003;2.487388e-001
1.477268e+003;2.532285e-001
1.479196e+003;2.584289e-001
1.481125e+003;2.642539e-001
1.483053e+003;2.713040e-001
1.484982e+003;2.792993e-001
1.486911e+003;2.877482e-001
1.488839e+003;2.972735e-001
1.490768e+003;3.072209e-001
1.492696e+003;3.169686e-001
1.494625e+003;3.264867e-001
1.496553e+003;3.357529e-001
1.498482e+003;3.449101e-001
1.500410e+003;3.536288e-001
1.502339e+003;3.612062e-001
1.504267e+003;3.675269e-001
1.506196e+003;3.728773e-001
1.508125e+003;3.783846e-001
1.510053e+003;3.832771e-001
1.511982e+003;3.862528e-001
1.513910e+003;3.869680e-001
1.515839e+003;3.836992e-001
1.517767e+003;3.762334e-001
1.519696e+003;3.665407e-001
1.521624e+003;3.566874e-001
1.523553e+003;3.480943e-001
1.525481e+003;3.404598e-001
1.527410e+003;3.336970e-001
1.529339e+003;3.271909e-001
1.531267e+003;3.205813e-001
1.533196e+003;3.141288e-001
1.535124e+003;3.081274e-001
1.537053e+003;3.016980e-001
1.538981e+003;2.948192e-001
1.540910e+003;2.891272e-001
1.542838e+003;2.843917e-001
1.544767e+003;2.794845e-001
1.546695e+003;2.739622e-001
1.548624e+003;2.680698e-001
1.550553e+003;2.622215e-001
1.552481e+003;2.566099e-001
1.554410e+003;2.506500e-001
1.556338e+003;2.443491e-001
1.558267e+003;2.374128e-001
1.560195e+003;2.315033e-001
1.562124e+003;2.267693e-001
1.564052e+003;2.214227e-001
1.565981e+003;2.158337e-001
1.567910e+003;2.105948e-001
1.569838e+003;2.057744e-001
1.571767e+003;2.019613e-001
1.573695e+003;1.987514e-001
1.575624e+003;1.959197e-001
1.577552e+003;1.947769e-001
1.579481e+003;1.947960e-001
1.581409e+003;1.950717e-001
1.583338e+003;1.961852e-001
1.585266e+003;1.984913e-001
1.587195e+003;2.018682e-001
1.589124e+003;2.061729e-001
1.591052e+003;2.118521e-001
1.592981e+003;2.186144e-001
1.594909e+003;2.257987e-001
1.596838e+003;2.334321e-001
1.598766e+003;2.419293e-001
1.600695e+003;2.518815e-001
1.602623e+003;2.634817e-001
1.604552e+003;2.769365e-001
1.606480e+003;2.919479e-001
1.608409e+003;3.081785e-001
1.610338e+003;3.247283e-001
1.612266e+003;3.407594e-001
1.614195e+003;3.553565e-001
1.616123e+003;3.684847e-001
1.618052e+003;3.803765e-001
1.619980e+003;3.896770e-001
1.621909e+003;3.953075e-001
1.623837e+003;3.977529e-001
1.625766e+003;3.975137e-001
1.627694e+003;3.941379e-001
1.629623e+003;3.882132e-001
1.631552e+003;3.810933e-001
1.633480e+003;3.729948e-001
1.635409e+003;3.634840e-001
1.637337e+003;3.544825e-001
1.639266e+003;3.458522e-001
1.641194e+003;3.372770e-001
1.643123e+003;3.294484e-001
1.645051e+003;3.212134e-001
1.646980e+003;3.128890e-001
1.648909e+003;3.055309e-001
1.650837e+003;2.975129e-001
1.652766e+003;2.885955e-001
1.654694e+003;2.810551e-001
1.656623e+003;2.738805e-001
1.658551e+003;2.658540e-001
1.660480e+003;2.578944e-001
1.662408e+003;2.501601e-001
1.664337e+003;2.428791e-001
1.666266e+003;2.358992e-001
1.668194e+003;2.288717e-001
1.670123e+003;2.223454e-001
1.672051e+003;2.163968e-001
1.673980e+003;2.105763e-001
1.675908e+003;2.051476e-001
1.677837e+003;2.001706e-001
1.679765e+003;1.951614e-001
1.681694e+003;1.899744e-001
1.683622e+003;1.847246e-001
1.685551e+003;1.807854e-001
1.687479e+003;1.781071e-001
1.689408e+003;1.752942e-001
1.691337e+003;1.727569e-001
1.693265e+003;1.705657e-001
1.695194e+003;1.682868e-001
1.697122e+003;1.663666e-001
1.699051e+003;1.625780e-001
1.700979e+003;1.554274e-001
1.702908e+003;1.455546e-001
1.704836e+003;1.334861e-001
1.706765e+003;1.218297e-001
1.708693e+003;1.116500e-001
1.710622e+003;1.030404e-001
1.712551e+003;9.624403e-002
1.714479e+003;9.064011e-002
1.716408e+003;8.570722e-002
1.718336e+003;8.220269e-002
1.720265e+003;7.983595e-002
1.722193e+003;7.760939e-002
1.724122e+003;7.550772e-002
1.726050e+003;7.384548e-002
1.727979e+003;7.246616e-002
1.729908e+003;7.113262e-002
1.731836e+003;6.964611e-002
1.733765e+003;6.805652e-002
1.735693e+003;6.727576e-002
1.737622e+003;6.661570e-002
1.739550e+003;6.562582e-002
1.741479e+003;6.512929e-002
1.743407e+003;6.451473e-002
1.745336e+003;6.383886e-002
1.747265e+003;6.328274e-002
1.749193e+003;6.275160e-002
1.751122e+003;6.261130e-002
1.753050e+003;6.286451e-002
1.754979e+003;6.277158e-002
1.756907e+003;6.257050e-002
1.758836e+003;6.255486e-002
1.760764e+003;6.239833e-002
1.762693e+003;6.211309e-002
1.764621e+003;6.219434e-002
1.766550e+003;6.201700e-002
1.768479e+003;6.168931e-002
1.770407e+003;6.141789e-002
1.772336e+003;6.093565e-002
1.774264e+003;6.094506e-002
1.776193e+003;6.125887e-002
1.778121e+003;6.131302e-002
1.780050e+003;6.110877e-002
1.781978e+003;6.081065e-002
1.783907e+003;6.042572e-002
1.785835e+003;6.032817e-002
1.787764e+003;6.052588e-002
1.789693e+003;6.009953e-002
1.791621e+003;5.941708e-002
1.793550e+003;5.922256e-002
1.795478e+003;5.940921e-002
1.797407e+003;5.930502e-002
1.799335e+003;5.902161e-002
1.801264e+003;5.885326e-002
1.803192e+003;5.872090e-002
1.805121e+003;5.854626e-002
1.807049e+003;5.827317e-002
1.808978e+003;5.786632e-002
1.810907e+003;5.751932e-002
1.812835e+003;5.742317e-002
1.814764e+003;5.755684e-002
1.816692e+003;5.766028e-002
1.818621e+003;5.759138e-002
1.820549e+003;5.713759e-002
1.822478e+003;5.663893e-002
1.824406e+003;5.634036e-002
1.826335e+003;5.628943e-002
1.828264e+003;5.601730e-002
1.830192e+003;5.559373e-002
1.832121e+003;5.540401e-002
1.834049e+003;5.541414e-002
1.835978e+003;5.532290e-002
1.837906e+003;5.524289e-002
1.839835e+003;5.523442e-002
1.841763e+003;5.490760e-002
1.843692e+003;5.427376e-002
1.845620e+003;5.404911e-002
1.847549e+003;5.405028e-002
1.849478e+003;5.408045e-002
1.851406e+003;5.406585e-002
1.853335e+003;5.395114e-002
1.855263e+003;5.380789e-002
1.857192e+003;5.376057e-002
1.859120e+003;5.378254e-002
1.861049e+003;5.375408e-002
1.862977e+003;5.361051e-002
1.864906e+003;5.343369e-002
1.866834e+003;5.339303e-002
1.868763e+003;5.334223e-002
1.870692e+003;5.344279e-002
1.872620e+003;5.362176e-002
1.874549e+003;5.373630e-002
1.876477e+003;5.374556e-002
1.878406e+003;5.376563e-002
1.880334e+003;5.372250e-002
1.882263e+003;5.340918e-002
1.884191e+003;5.341218e-002
1.886120e+003;5.343683e-002
1.888048e+003;5.340599e-002
1.889977e+003;5.357734e-002
1.891906e+003;5.358720e-002
1.893834e+003;5.335912e-002
1.895763e+003;5.322827e-002
1.897691e+003;5.318412e-002
1.899620e+003;5.330518e-002
1.901548e+003;5.331166e-002
1.903477e+003;5.325374e-002
1.905405e+003;5.322681e-002
1.907334e+003;5.310177e-002
1.909262e+003;5.313101e-002
1.911191e+003;5.333769e-002
1.913120e+003;5.331589e-002
1.915048e+003;5.306792e-002
1.916977e+003;5.281729e-002
1.918905e+003;5.287290e-002
1.920834e+003;5.291471e-002
1.922762e+003;5.290726e-002
1.924691e+003;5.276772e-002
1.926619e+003;5.259714e-002
1.928548e+003;5.248597e-002
1.930477e+003;5.257332e-002
1.932405e+003;5.286897e-002
1.934334e+003;5.300346e-002
1.936262e+003;5.267853e-002
1.938191e+003;5.249658e-002
1.940119e+003;5.265137e-002
1.942048e+003;5.287994e-002
1.943976e+003;5.315389e-002
1.945905e+003;5.306032e-002
1.947833e+003;5.301049e-002
1.949762e+003;5.332162e-002
1.951691e+003;5.324236e-002
1.953619e+003;5.298021e-002
1.955548e+003;5.308309e-002
1.957476e+003;5.347071e-002
1.959405e+003;5.369011e-002
1.961333e+003;5.362390e-002
1.963262e+003;5.350886e-002
1.965190e+003;5.331544e-002
1.967119e+003;5.309975e-002
1.969047e+003;5.313476e-002
1.970976e+003;5.331911e-002
1.972905e+003;5.329690e-002
1.974833e+003;5.312248e-002
1.976762e+003;5.327390e-002
1.978690e+003;5.343346e-002
1.980619e+003;5.326382e-002
1.982547e+003;5.315289e-002
1.984476e+003;5.336099e-002
1.986404e+003;5.360433e-002
1.988333e+003;5.356317e-002
1.990261e+003;5.330558e-002
1.992190e+003;5.303210e-002
1.994119e+003;5.294289e-002
1.996047e+003;5.295322e-002
1.997976e+003;5.304917e-002
1.999904e+003;5.319165e-002
2.001833e+003;5.305905e-002
2.003761e+003;5.292313e-002
2.005690e+003;5.305643e-002
2.007618e+003;5.319284e-002
2.009547e+003;5.323577e-002
2.011476e+003;5.325828e-002
2.013404e+003;5.299784e-002
2.015333e+003;5.303262e-002
2.017261e+003;5.314322e-002
2.019190e+003;5.306538e-002
2.021118e+003;5.317798e-002
2.023047e+003;5.347086e-002
2.024975e+003;5.364275e-002
2.026904e+003;5.346561e-002
2.028833e+003;5.330937e-002
2.030761e+003;5.337276e-002
2.032690e+003;5.322082e-002
2.034618e+003;5.299919e-002
2.036547e+003;5.326169e-002
2.038475e+003;5.340877e-002
2.040404e+003;5.311454e-002
2.042332e+003;5.315221e-002
2.044261e+003;5.351613e-002
2.046189e+003;5.360767e-002
2.048118e+003;5.362697e-002
2.050047e+003;5.371534e-002
2.051975e+003;5.356864e-002
2.053904e+003;5.344257e-002
2.055832e+003;5.356298e-002
2.057761e+003;5.366814e-002
2.059689e+003;5.368842e-002
2.061618e+003;5.365179e-002
2.063546e+003;5.383846e-002
2.065475e+003;5.409148e-002
2.067404e+003;5.412578e-002
2.069332e+003;5.413359e-002
2.071260e+003;5.430293e-002
2.073189e+003;5.433256e-002
2.075118e+003;5.415547e-002
2.077046e+003;5.412710e-002
2.078975e+003;5.415532e-002
2.080903e+003;5.426035e-002
2.082832e+003;5.430733e-002
2.084760e+003;5.422466e-002
2.086689e+003;5.428491e-002
2.088617e+003;5.442021e-002
2.090546e+003;5.457486e-002
2.092475e+003;5.469634e-002
2.094403e+003;5.447354e-002
2.096332e+003;5.434153e-002
2.098260e+003;5.450397e-002
2.100189e+003;5.463366e-002
2.102117e+003;5.461187e-002
2.104046e+003;5.457418e-002
2.105974e+003;5.457230e-002
2.107903e+003;5.463817e-002
2.109832e+003;5.472701e-002
2.111760e+003;5.459522e-002
2.113688e+003;5.446171e-002
2.115617e+003;5.451321e-002
2.117546e+003;5.441465e-002
2.119474e+003;5.411539e-002
2.121403e+003;5.389056e-002
2.123331e+003;5.400709e-002
2.125260e+003;5.429678e-002
2.127188e+003;5.441758e-002
2.129117e+003;5.432077e-002
2.131045e+003;5.414646e-002
2.132974e+003;5.422867e-002
2.134903e+003;5.454777e-002
2.136831e+003;5.458339e-002
2.138760e+003;5.443148e-002
2.140688e+003;5.429588e-002
2.142617e+003;5.389922e-002
2.144545e+003;5.397583e-002
2.146474e+003;5.435250e-002
2.148402e+003;5.437916e-002
2.150331e+003;5.418441e-002
2.152260e+003;5.406799e-002
2.154188e+003;5.417548e-002
2.156117e+003;5.432418e-002
2.158045e+003;5.423629e-002
2.159974e+003;5.406848e-002
2.161902e+003;5.410117e-002
2.163831e+003;5.421700e-002
2.165759e+003;5.421163e-002
2.167688e+003;5.412811e-002
2.169616e+003;5.403872e-002
2.171545e+003;5.401932e-002
2.173474e+003;5.411239e-002
2.175402e+003;5.411475e-002
2.177331e+003;5.399726e-002
2.179259e+003;5.393820e-002
2.181188e+003;5.403268e-002
2.183116e+003;5.430451e-002
2.185045e+003;5.431093e-002
2.186973e+003;5.402810e-002
2.188902e+003;5.392443e-002
2.190831e+003;5.399718e-002
2.192759e+003;5.397170e-002
2.194688e+003;5.407970e-002
2.196616e+003;5.422743e-002
2.198545e+003;5.416636e-002
2.200473e+003;5.404754e-002
2.202402e+003;5.399077e-002
2.204330e+003;5.392335e-002
2.206259e+003;5.378588e-002
2.208188e+003;5.378442e-002
2.210116e+003;5.391558e-002
2.212044e+003;5.401632e-002
2.213973e+003;5.401894e-002
2.215902e+003;5.398814e-002
2.217830e+003;5.388587e-002
2.219759e+003;5.385605e-002
2.221687e+003;5.399482e-002
2.223616e+003;5.408529e-002
2.225544e+003;5.402836e-002
2.227473e+003;5.402228e-002
2.229401e+003;5.407714e-002
2.231330e+003;5.396735e-002
2.233259e+003;5.387180e-002
2.235187e+003;5.406637e-002
2.237116e+003;5.419714e-002
2.239044e+003;5.403756e-002
2.240973e+003;5.402731e-002
2.242901e+003;5.412751e-002
2.244830e+003;5.420671e-002
2.246758e+003;5.422604e-002
2.248687e+003;5.408705e-002
2.250615e+003;5.409962e-002
2.252544e+003;5.415859e-002
2.254473e+003;5.408067e-002
2.256401e+003;5.410233e-002
2.258330e+003;5.411069e-002
2.260258e+003;5.407756e-002
2.262187e+003;5.385192e-002
2.264115e+003;5.386100e-002
2.266044e+003;5.423055e-002
2.267972e+003;5.424267e-002
2.269901e+003;5.413990e-002
2.271830e+003;5.427049e-002
2.273758e+003;5.435325e-002
2.275687e+003;5.414706e-002
2.277615e+003;5.411404e-002
2.279544e+003;5.429756e-002
2.281472e+003;5.448755e-002
2.283401e+003;5.460330e-002
2.285329e+003;5.462291e-002
2.287258e+003;5.472675e-002
2.289187e+003;5.476835e-002
2.291115e+003;5.479117e-002
2.293043e+003;5.467657e-002
2.294972e+003;5.461562e-002
2.296901e+003;5.476463e-002
2.298829e+003;5.469484e-002
2.300758e+003;5.475294e-002
2.302686e+003;5.494189e-002
2.304615e+003;5.491407e-002
2.306543e+003;5.480331e-002
2.308472e+003;5.504471e-002
2.310400e+003;5.500289e-002
2.312329e+003;5.475963e-002
2.314258e+003;5.469146e-002
2.316186e+003;5.460691e-002
2.318115e+003;5.457415e-002
2.320043e+003;5.466436e-002
2.321972e+003;5.462738e-002
2.323900e+003;5.454709e-002
2.325829e+003;5.441112e-002
2.327757e+003;5.429208e-002
2.329686e+003;5.433102e-002
2.331615e+003;5.431454e-002
2.333543e+003;5.445867e-002
2.335472e+003;5.447546e-002
2.337400e+003;5.440008e-002
2.339329e+003;5.438536e-002
2.341257e+003;5.450615e-002
2.343186e+003;5.470435e-002
2.345114e+003;5.476095e-002
2.347043e+003;5.514187e-002
2.348971e+003;5.519842e-002
2.350900e+003;5.476219e-002
2.352829e+003;5.457103e-002
2.354757e+003;5.453774e-002
2.356686e+003;5.432539e-002
2.358614e+003;5.425401e-002
2.360543e+003;5.437255e-002
2.362471e+003;5.442994e-002
2.364400e+003;5.458181e-002
2.366328e+003;5.482628e-002
2.368257e+003;5.505859e-002
2.370186e+003;5.531206e-002
2.372114e+003;5.540796e-002
2.374042e+003;5.545773e-002
2.375971e+003;5.568781e-002
2.377900e+003;5.608026e-002
2.379828e+003;5.639770e-002
2.381757e+003;5.642774e-002
2.383685e+003;5.641649e-002
2.385614e+003;5.658726e-002
2.387542e+003;5.664739e-002
2.389471e+003;5.658321e-002
2.391399e+003;5.677319e-002
2.393328e+003;5.707773e-002
2.395257e+003;5.709428e-002
2.397185e+003;5.716699e-002
2.399114e+003;5.752749e-002
2.401042e+003;5.767946e-002
2.402971e+003;5.782472e-002
2.404899e+003;5.809503e-002
2.406828e+003;5.828984e-002
2.408756e+003;5.855696e-002
2.410685e+003;5.890502e-002
2.412614e+003;5.900981e-002
2.414542e+003;5.905346e-002
2.416471e+003;5.908288e-002
2.418399e+003;5.949090e-002
2.420328e+003;6.001331e-002
2.422256e+003;6.029585e-002
2.424185e+003;6.052641e-002
2.426113e+003;6.065079e-002
2.428042e+003;6.082994e-002
2.429970e+003;6.097675e-002
2.431899e+003;6.096714e-002
2.433828e+003;6.108733e-002
2.435756e+003;6.136854e-002
2.437685e+003;6.160102e-002
2.439613e+003;6.175905e-002
2.441542e+003;6.184714e-002
2.443470e+003;6.184535e-002
2.445399e+003;6.181421e-002
2.447327e+003;6.203721e-002
2.449256e+003;6.224573e-002
2.451185e+003;6.216662e-002
2.453113e+003;6.207028e-002
2.455042e+003;6.209463e-002
2.456970e+003;6.223498e-002
2.458899e+003;6.241455e-002
2.460827e+003;6.242201e-002
2.462756e+003;6.246968e-002
2.464684e+003;6.261265e-002
2.466613e+003;6.254303e-002
2.468542e+003;6.253462e-002
2.470470e+003;6.271354e-002
2.472398e+003;6.292161e-002
2.474327e+003;6.313936e-002
2.476256e+003;6.308166e-002
2.478184e+003;6.298543e-002
2.480113e+003;6.306802e-002
2.482041e+003;6.326871e-002
2.483970e+003;6.342102e-002
2.485898e+003;6.371672e-002
2.487827e+003;6.388051e-002
2.489755e+003;6.409863e-002
2.491684e+003;6.418432e-002
2.493613e+003;6.377186e-002
2.495541e+003;6.361075e-002
2.497470e+003;6.359690e-002
2.499398e+003;6.372669e-002
2.501327e+003;6.389356e-002
2.503255e+003;6.385192e-002
2.505184e+003;6.396830e-002
2.507112e+003;6.426706e-002
2.509041e+003;6.436661e-002
2.510969e+003;6.449813e-002
2.512898e+003;6.443102e-002
2.514827e+003;6.422845e-002
2.516755e+003;6.420214e-002
2.518684e+003;6.428738e-002
2.520612e+003;6.431705e-002
2.522541e+003;6.451727e-002
2.524469e+003;6.474117e-002
2.526398e+003;6.472567e-002
2.528326e+003;6.464168e-002
2.530255e+003;6.480829e-002
2.532184e+003;6.482999e-002
2.534112e+003;6.470694e-002
2.536041e+003;6.489312e-002
2.537969e+003;6.492528e-002
2.539898e+003;6.496215e-002
2.541826e+003;6.526401e-002
2.543755e+003;6.564937e-002
2.545683e+003;6.605593e-002
2.547612e+003;6.641134e-002
2.549541e+003;6.645354e-002
2.551469e+003;6.642199e-002
2.553397e+003;6.652571e-002
2.555326e+003;6.662142e-002
2.557255e+003;6.680810e-002
2.559183e+003;6.697933e-002
2.561112e+003;6.724392e-002
2.563040e+003;6.746583e-002
2.564969e+003;6.771286e-002
2.566897e+003;6.791822e-002
2.568826e+003;6.793771e-002
2.570754e+003;6.797692e-002
2.572683e+003;6.831870e-002
2.574612e+003;6.876737e-002
2.576540e+003;6.900217e-002
2.578469e+003;6.910899e-002
2.580397e+003;6.913471e-002
2.582326e+003;6.941445e-002
2.584254e+003;6.977791e-002
2.586183e+003;6.998666e-002
2.588111e+003;7.039183e-002
2.590040e+003;7.059265e-002
2.591969e+003;7.049162e-002
2.593897e+003;7.035625e-002
2.595826e+003;7.045986e-002
2.597754e+003;7.082060e-002
2.599683e+003;7.132692e-002
2.601611e+003;7.166177e-002
2.603540e+003;7.159593e-002
2.605468e+003;7.155783e-002
2.607397e+003;7.182804e-002
2.609325e+003;7.218620e-002
2.611254e+003;7.217501e-002
2.613183e+003;7.216105e-002
2.615111e+003;7.235553e-002
2.617040e+003;7.246647e-002
2.618968e+003;7.249904e-002
2.620897e+003;7.247505e-002
2.622825e+003;7.256714e-002
2.624754e+003;7.245575e-002
2.626682e+003;7.235385e-002
2.628611e+003;7.246859e-002
2.630540e+003;7.249153e-002
2.632468e+003;7.233064e-002
2.634396e+003;7.238747e-002
2.636325e+003;7.244850e-002
2.638254e+003;7.246032e-002
2.640182e+003;7.224388e-002
2.642111e+003;7.190604e-002
2.644039e+003;7.195754e-002
2.645968e+003;7.196532e-002
2.647896e+003;7.200341e-002
2.649825e+003;7.246914e-002
2.651753e+003;7.281278e-002
2.653682e+003;7.295468e-002
2.655611e+003;7.297918e-002
2.657539e+003;7.282955e-002
2.659468e+003;7.279202e-002
2.661396e+003;7.277486e-002
2.663325e+003;7.270645e-002
2.665253e+003;7.295261e-002
2.667182e+003;7.340464e-002
2.669110e+003;7.360946e-002
2.671039e+003;7.366775e-002
2.672968e+003;7.386036e-002
2.674896e+003;7.396626e-002
2.676825e+003;7.413908e-002
2.678753e+003;7.417732e-002
2.680682e+003;7.425932e-002
2.682610e+003;7.471268e-002
2.684539e+003;7.505649e-002
2.686467e+003;7.530532e-002
2.688396e+003;7.542624e-002
2.690324e+003;7.554834e-002
2.692253e+003;7.595548e-002
2.694182e+003;7.616087e-002
2.696110e+003;7.608332e-002
2.698039e+003;7.634281e-002
2.699967e+003;7.637960e-002
2.701896e+003;7.635763e-002
2.703824e+003;7.671528e-002
2.705753e+003;7.701131e-002
2.707681e+003;7.703176e-002
2.709610e+003;7.721376e-002
2.711539e+003;7.756815e-002
2.713467e+003;7.760701e-002
2.715396e+003;7.751523e-002
2.717324e+003;7.776040e-002
2.719253e+003;7.789759e-002
2.721181e+003;7.816768e-002
2.723110e+003;7.853615e-002
2.725038e+003;7.869332e-002
2.726967e+003;7.898407e-002
2.728896e+003;7.935538e-002
2.730824e+003;7.945403e-002
2.732752e+003;7.959291e-002
2.734681e+003;7.981015e-002
2.736610e+003;7.999885e-002
2.738538e+003;8.007490e-002
2.740467e+003;8.037326e-002
2.742395e+003;8.059564e-002
2.744324e+003;8.074043e-002
2.746252e+003;8.101469e-002
2.748181e+003;8.135630e-002
2.750109e+003;8.161376e-002
2.752038e+003;8.158374e-002
2.753967e+003;8.167202e-002
2.755895e+003;8.210205e-002
2.757824e+003;8.210304e-002
2.759752e+003;8.211101e-002
2.761681e+003;8.239059e-002
2.763609e+003;8.243577e-002
2.765538e+003;8.239471e-002
2.767466e+003;8.247752e-002
2.769395e+003;8.268378e-002
2.771323e+003;8.288909e-002
2.773252e+003;8.307452e-002
2.775181e+003;8.333083e-002
2.777109e+003;8.350641e-002
2.779038e+003;8.382997e-002
2.780966e+003;8.405356e-002
2.782895e+003;8.401380e-002
2.784823e+003;8.425204e-002
2.786752e+003;8.444779e-002
2.788680e+003;8.429251e-002
2.790609e+003;8.424685e-002
2.792538e+003;8.459962e-002
2.794466e+003;8.473915e-002
2.796395e+003;8.492795e-002
2.798323e+003;8.527455e-002
2.800252e+003;8.548085e-002
2.802180e+003;8.554500e-002
2.804109e+003;8.585158e-002
2.806037e+003;8.644952e-002
2.807966e+003;8.679887e-002
2.809895e+003;8.671734e-002
2.811823e+003;8.665290e-002
2.813751e+003;8.661593e-002
2.815680e+003;8.661844e-002
2.817609e+003;8.687969e-002
2.819537e+003;8.725186e-002
2.821466e+003;8.744039e-002
2.823394e+003;8.762943e-002
2.825323e+003;8.785125e-002
2.827251e+003;8.815107e-002
2.829180e+003;8.830681e-002
2.831108e+003;8.843067e-002
2.833037e+003;8.859889e-002
2.834966e+003;8.901790e-002
2.836894e+003;8.926573e-002
2.838823e+003;8.926196e-002
2.840751e+003;8.908167e-002
2.842680e+003;8.907370e-002
2.844608e+003;8.884744e-002
2.846537e+003;8.823104e-002
2.848465e+003;8.797871e-002
2.850394e+003;8.840341e-002
2.852323e+003;8.913736e-002
2.854251e+003;9.025330e-002
2.856180e+003;9.121009e-002
2.858108e+003;9.242208e-002
2.860037e+003;9.374386e-002
2.861965e+003;9.479109e-002
2.863894e+003;9.579260e-002
2.865822e+003;9.652124e-002
2.867751e+003;9.707207e-002
2.869679e+003;9.763318e-002
2.871608e+003;9.797177e-002
2.873536e+003;9.834182e-002
2.875465e+003;9.891223e-002
2.877394e+003;9.937526e-002
2.879322e+003;9.938158e-002
2.881251e+003;9.894652e-002
2.883179e+003;9.859903e-002
2.885108e+003;9.846575e-002
2.887036e+003;9.875606e-002
2.888965e+003;9.883376e-002
2.890893e+003;9.836654e-002
2.892822e+003;9.820043e-002
2.894750e+003;9.839355e-002
2.896679e+003;9.862439e-002
2.898608e+003;9.895518e-002
2.900536e+003;9.913748e-002
2.902465e+003;9.917998e-002
2.904393e+003;9.931536e-002
2.906322e+003;9.957228e-002
2.908250e+003;9.961037e-002
2.910179e+003;9.960270e-002
2.912107e+003;9.948464e-002
2.914036e+003;9.906609e-002
2.915965e+003;9.887474e-002
2.917893e+003;9.935847e-002
2.919822e+003;1.003507e-001
2.921750e+003;1.013654e-001
2.923679e+003;1.021847e-001
2.925607e+003;1.033167e-001
2.927536e+003;1.047996e-001
2.929464e+003;1.060813e-001
2.931393e+003;1.070973e-001
2.933322e+003;1.076839e-001
2.935250e+003;1.078201e-001
2.937178e+003;1.078458e-001
2.939107e+003;1.079807e-001
2.941036e+003;1.079176e-001
2.942964e+003;1.074179e-001
2.944893e+003;1.067425e-001
2.946821e+003;1.061579e-001
2.948750e+003;1.052312e-001
2.950678e+003;1.042947e-001
2.952607e+003;1.039522e-001
2.954535e+003;1.037244e-001
2.956464e+003;1.033864e-001
2.958393e+003;1.029587e-001
2.960321e+003;1.027924e-001
2.962250e+003;1.029235e-001
2.964178e+003;1.031346e-001
2.966107e+003;1.035250e-001
2.968035e+003;1.041180e-001
2.969964e+003;1.045750e-001
2.971892e+003;1.045325e-001
2.973821e+003;1.044050e-001
2.975750e+003;1.040870e-001
2.977678e+003;1.038679e-001
2.979607e+003;1.039403e-001
2.981535e+003;1.039903e-001
2.983464e+003;1.037174e-001
2.985392e+003;1.029749e-001
2.987321e+003;1.025776e-001
2.989249e+003;1.023813e-001
2.991178e+003;1.016978e-001
2.993106e+003;1.010626e-001
2.995035e+003;1.008055e-001
2.996964e+003;1.002797e-001
2.998892e+003;9.963225e-002
3.000821e+003;9.944578e-002
3.002749e+003;9.962087e-002
3.004678e+003;9.940079e-002
3.006606e+003;9.901664e-002
3.008535e+003;9.903970e-002
3.010463e+003;9.897885e-002
3.012392e+003;9.891544e-002
3.014321e+003;9.915509e-002
3.016249e+003;9.911075e-002
3.018177e+003;9.899238e-002
3.020106e+003;9.943174e-002
3.022035e+003;9.984002e-002
3.023963e+003;1.003406e-001
3.025892e+003;1.008200e-001
3.027820e+003;1.011038e-001
3.029749e+003;1.013287e-001
3.031677e+003;1.016483e-001
3.033606e+003;1.022756e-001
3.035534e+003;1.029285e-001
3.037463e+003;1.032935e-001
3.039392e+003;1.036340e-001
3.041320e+003;1.041447e-001
3.043249e+003;1.045027e-001
3.045177e+003;1.051347e-001
3.047106e+003;1.060740e-001
3.049034e+003;1.067531e-001
3.050963e+003;1.071919e-001
3.052891e+003;1.072144e-001
3.054820e+003;1.076143e-001
3.056749e+003;1.084029e-001
3.058677e+003;1.088810e-001
3.060606e+003;1.092486e-001
3.062534e+003;1.094588e-001
3.064463e+003;1.094524e-001
3.066391e+003;1.096629e-001
3.068320e+003;1.100499e-001
3.070248e+003;1.103388e-001
3.072177e+003;1.105699e-001
3.074105e+003;1.106580e-001
3.076034e+003;1.105224e-001
3.077963e+003;1.104736e-001
3.079891e+003;1.104128e-001
3.081820e+003;1.099951e-001
3.083748e+003;1.097354e-001
3.085677e+003;1.097160e-001
3.087605e+003;1.096759e-001
3.089534e+003;1.095442e-001
3.091462e+003;1.091619e-001
3.093391e+003;1.085493e-001
3.095320e+003;1.083477e-001
3.097248e+003;1.081337e-001
3.099177e+003;1.077250e-001
3.101105e+003;1.071570e-001
3.103034e+003;1.067752e-001
3.104962e+003;1.068265e-001
3.106891e+003;1.068597e-001
3.108819e+003;1.066177e-001
3.110748e+003;1.062289e-001
3.112677e+003;1.060280e-001
3.114605e+003;1.061090e-001
3.116533e+003;1.061003e-001
3.118462e+003;1.060466e-001
3.120391e+003;1.059682e-001
3.122319e+003;1.057694e-001
3.124248e+003;1.057139e-001
3.126176e+003;1.058618e-001
3.128105e+003;1.057430e-001
3.130033e+003;1.056553e-001
3.131962e+003;1.058002e-001
3.133890e+003;1.060053e-001
3.135819e+003;1.062144e-001
3.137748e+003;1.064450e-001
3.139676e+003;1.069323e-001
3.141605e+003;1.073444e-001
3.143533e+003;1.076370e-001
3.145462e+003;1.081169e-001
3.147390e+003;1.086020e-001
3.149319e+003;1.089528e-001
3.151247e+003;1.095247e-001
3.153176e+003;1.101410e-001
3.155104e+003;1.104075e-001
3.157033e+003;1.109715e-001
3.158962e+003;1.117970e-001
3.160890e+003;1.124069e-001
3.162819e+003;1.132223e-001
3.164747e+003;1.141921e-001
3.166676e+003;1.148371e-001
3.168604e+003;1.155044e-001
3.170533e+003;1.162273e-001
3.172461e+003;1.168545e-001
3.174390e+003;1.179135e-001
3.176319e+003;1.190725e-001
3.178247e+003;1.199427e-001
3.180176e+003;1.208630e-001
3.182104e+003;1.217241e-001
3.184033e+003;1.224837e-001
3.185961e+003;1.230537e-001
3.187890e+003;1.237892e-001
3.189818e+003;1.248701e-001
3.191747e+003;1.260221e-001
3.193676e+003;1.273943e-001
3.195604e+003;1.287155e-001
3.197532e+003;1.298874e-001
3.199461e+003;1.305850e-001
3.201390e+003;1.311005e-001
3.203318e+003;1.321456e-001
3.205247e+003;1.335611e-001
3.207175e+003;1.349566e-001
3.209104e+003;1.362177e-001
3.211032e+003;1.374041e-001
3.212961e+003;1.383691e-001
3.214889e+003;1.392154e-001
3.216818e+003;1.403560e-001
3.218747e+003;1.415474e-001
3.220675e+003;1.428177e-001
3.222604e+003;1.439347e-001
3.224532e+003;1.448782e-001
3.226461e+003;1.459800e-001
3.228389e+003;1.473430e-001
3.230318e+003;1.488131e-001
3.232246e+003;1.500809e-001
3.234175e+003;1.516462e-001
3.236104e+003;1.533520e-001
3.238032e+003;1.548437e-001
3.239961e+003;1.563910e-001
3.241889e+003;1.579028e-001
3.243818e+003;1.591802e-001
3.245746e+003;1.608886e-001
3.247675e+003;1.629597e-001
3.249603e+003;1.647467e-001
3.251532e+003;1.665360e-001
3.253460e+003;1.685562e-001
3.255389e+003;1.706155e-001
3.257318e+003;1.727660e-001
3.259246e+003;1.751970e-001
3.261175e+003;1.777183e-001
3.263103e+003;1.797888e-001
3.265032e+003;1.817266e-001
3.266960e+003;1.838297e-001
3.268889e+003;1.859084e-001
3.270817e+003;1.876614e-001
3.272746e+003;1.893638e-001
3.274675e+003;1.910520e-001
3.276603e+003;1.924166e-001
3.278531e+003;1.934409e-001
3.280460e+003;1.941700e-001
3.282389e+003;1.944177e-001
3.284317e+003;1.943588e-001
3.286246e+003;1.942259e-001
3.288174e+003;1.936031e-001
3.290103e+003;1.928703e-001
3.292031e+003;1.920349e-001
3.293960e+003;1.906457e-001
3.295888e+003;1.888116e-001
3.297817e+003;1.872350e-001
3.299746e+003;1.856716e-001
3.301674e+003;1.835330e-001
3.303603e+003;1.807753e-001
3.305531e+003;1.780325e-001
3.307460e+003;1.758815e-001
3.309388e+003;1.739526e-001
3.311317e+003;1.714102e-001
3.313245e+003;1.685410e-001
3.315174e+003;1.661737e-001
3.317103e+003;1.640139e-001
3.319031e+003;1.616928e-001
3.320960e+003;1.596773e-001
3.322888e+003;1.574573e-001
3.324817e+003;1.549340e-001
3.326745e+003;1.525749e-001
3.328674e+003;1.502285e-001
3.330602e+003;1.483022e-001
3.332531e+003;1.462922e-001
3.334459e+003;1.442716e-001
3.336388e+003;1.427240e-001
3.338317e+003;1.409981e-001
3.340245e+003;1.392326e-001
3.342174e+003;1.373131e-001
3.344102e+003;1.351816e-001
3.346031e+003;1.332026e-001
3.347959e+003;1.316030e-001
3.349888e+003;1.304985e-001
3.351816e+003;1.292569e-001
3.353745e+003;1.281548e-001
3.355674e+003;1.270602e-001
3.357602e+003;1.257963e-001
3.359531e+003;1.247723e-001
3.361459e+003;1.234385e-001
3.363388e+003;1.221213e-001
3.365316e+003;1.209989e-001
3.367245e+003;1.201217e-001
3.369173e+003;1.195033e-001
3.371102e+003;1.187467e-001
3.373031e+003;1.175556e-001
3.374959e+003;1.163680e-001
3.376887e+003;1.155934e-001
3.378816e+003;1.152197e-001
3.380745e+003;1.149660e-001
3.382673e+003;1.138923e-001
3.384602e+003;1.129472e-001
3.386530e+003;1.122018e-001
3.388459e+003;1.113332e-001
3.390387e+003;1.106207e-001
3.392316e+003;1.096924e-001
3.394244e+003;1.089777e-001
3.396173e+003;1.084834e-001
3.398102e+003;1.075155e-001
3.400030e+003;1.065077e-001
3.401959e+003;1.055110e-001
3.403887e+003;1.048258e-001
3.405816e+003;1.045598e-001
3.407744e+003;1.037870e-001
3.409673e+003;1.028507e-001
3.411601e+003;1.023236e-001
3.413530e+003;1.014871e-001
3.415458e+003;1.003969e-001
3.417387e+003;9.939296e-002
3.419316e+003;9.877881e-002
3.421244e+003;9.813617e-002
3.423173e+003;9.760423e-002
3.425101e+003;9.692290e-002
3.427030e+003;9.611573e-002
3.428958e+003;9.541509e-002
3.430887e+003;9.441397e-002
3.432815e+003;9.365337e-002
3.434744e+003;9.338075e-002
3.436673e+003;9.295071e-002
3.438601e+003;9.217960e-002
3.440530e+003;9.137474e-002
3.442458e+003;9.091693e-002
3.444387e+003;9.066043e-002
3.446315e+003;9.024955e-002
3.448244e+003;8.951279e-002
3.450172e+003;8.879142e-002
3.452101e+003;8.818083e-002
3.454030e+003;8.790755e-002
3.455958e+003;8.796602e-002
3.457886e+003;8.803751e-002
3.459815e+003;8.782111e-002
3.461744e+003;8.723161e-002
3.463672e+003;8.648668e-002
3.465601e+003;8.627598e-002
3.467529e+003;8.624382e-002
3.469458e+003;8.576046e-002
3.471386e+003;8.545144e-002
3.473315e+003;8.566690e-002
3.475243e+003;8.546108e-002
3.477172e+003;8.517262e-002
3.479101e+003;8.495060e-002
3.481029e+003;8.414859e-002
3.482958e+003;8.346269e-002
3.484886e+003;8.355653e-002
3.486815e+003;8.382997e-002
3.488743e+003;8.354083e-002
3.490672e+003;8.304331e-002
3.492600e+003;8.260414e-002
3.494529e+003;8.206726e-002
3.496458e+003;8.143527e-002
3.498386e+003;8.080428e-002
3.500315e+003;8.058499e-002
3.502243e+003;8.064267e-002
3.504172e+003;8.047343e-002
3.506100e+003;8.038443e-002
3.508029e+003;8.017711e-002
3.509957e+003;8.000690e-002
3.511886e+003;7.979745e-002
3.513814e+003;7.959482e-002
3.515743e+003;7.908856e-002
3.517672e+003;7.818827e-002
3.519600e+003;7.789449e-002
3.521529e+003;7.774717e-002
3.523457e+003;7.736431e-002
3.525386e+003;7.699972e-002
3.527314e+003;7.692412e-002
3.529243e+003;7.690501e-002
3.531171e+003;7.667124e-002
3.533100e+003;7.634365e-002
3.535029e+003;7.610307e-002
3.536957e+003;7.553256e-002
3.538885e+003;7.475821e-002
3.540814e+003;7.490717e-002
3.542743e+003;7.533294e-002
3.544671e+003;7.523455e-002
3.546600e+003;7.456820e-002
3.548528e+003;7.387831e-002
3.550457e+003;7.348724e-002
3.552385e+003;7.331299e-002
3.554314e+003;7.288531e-002
3.556242e+003;7.223300e-002
3.558171e+003;7.196520e-002
3.560100e+003;7.178649e-002
3.562028e+003;7.133980e-002
3.563957e+003;7.070240e-002
3.565885e+003;7.031425e-002
3.567814e+003;7.032489e-002
3.569742e+003;7.036841e-002
3.571671e+003;7.032458e-002
3.573599e+003;6.966411e-002
3.575528e+003;6.884808e-002
3.577457e+003;6.887180e-002
3.579385e+003;6.894725e-002
3.581314e+003;6.858511e-002
3.583242e+003;6.795945e-002
3.585171e+003;6.718323e-002
3.587099e+003;6.686623e-002
3.589028e+003;6.681491e-002
3.590956e+003;6.643447e-002
3.592885e+003;6.620502e-002
3.594813e+003;6.615509e-002
3.596742e+003;6.567851e-002
3.598671e+003;6.505447e-002
3.600599e+003;6.484984e-002
3.602528e+003;6.478502e-002
3.604456e+003;6.446277e-002
3.606385e+003;6.386496e-002
3.608313e+003;6.348655e-002
3.610242e+003;6.306411e-002
3.612170e+003;6.272794e-002
3.614099e+003;6.254108e-002
3.616028e+003;6.214150e-002
3.617956e+003;6.171841e-002
3.619885e+003;6.140007e-002
3.621813e+003;6.120081e-002
3.623742e+003;6.074983e-002
3.625670e+003;6.015870e-002
3.627599e+003;5.903205e-002
3.629527e+003;5.824418e-002
3.631456e+003;5.856765e-002
3.633385e+003;5.877712e-002
3.635313e+003;5.865533e-002
3.637241e+003;5.811863e-002
3.639170e+003;5.737549e-002
3.641099e+003;5.679404e-002
3.643027e+003;5.614265e-002
3.644956e+003;5.501669e-002
3.646884e+003;5.399005e-002
3.648813e+003;5.317906e-002
3.650741e+003;5.252336e-002
3.652670e+003;5.240225e-002
3.654598e+003;5.186662e-002
3.656527e+003;5.113938e-002
3.658456e+003;5.061543e-002
3.660384e+003;4.956114e-002
3.662313e+003;4.871707e-002
3.664241e+003;4.842908e-002
3.666170e+003;4.810271e-002
3.668098e+003;4.724229e-002
3.670027e+003;4.595903e-002
3.671955e+003;4.536595e-002
3.673884e+003;4.464256e-002
3.675813e+003;4.374386e-002
3.677741e+003;4.354368e-002
3.679669e+003;4.315167e-002
3.681598e+003;4.238494e-002
3.683527e+003;4.163445e-002
3.685455e+003;4.114660e-002
3.687384e+003;4.052110e-002
3.689312e+003;3.994897e-002
3.691241e+003;4.002327e-002
3.693169e+003;4.000111e-002
3.695098e+003;3.927118e-002
3.697026e+003;3.878486e-002
3.698955e+003;3.874758e-002
3.700884e+003;3.819472e-002
3.702812e+003;3.791789e-002
3.704741e+003;3.817095e-002
3.706669e+003;3.795528e-002
3.708598e+003;3.730896e-002
3.710526e+003;3.712670e-002
3.712455e+003;3.690541e-002
3.714383e+003;3.683013e-002
3.716312e+003;3.664241e-002
3.718240e+003;3.645761e-002
3.720169e+003;3.606486e-002
3.722098e+003;3.587794e-002
3.724026e+003;3.569253e-002
3.725955e+003;3.552310e-002
3.727883e+003;3.574020e-002
3.729812e+003;3.578902e-002
3.731740e+003;3.568491e-002
3.733669e+003;3.526927e-002
3.735597e+003;3.469164e-002
3.737526e+003;3.504002e-002
3.739455e+003;3.562789e-002
3.741383e+003;3.560268e-002
3.743312e+003;3.463336e-002
3.745240e+003;3.444526e-002
3.747169e+003;3.476971e-002
3.749097e+003;3.420454e-002
3.751026e+003;3.398581e-002
3.752954e+003;3.432820e-002
3.754883e+003;3.472244e-002
3.756812e+003;3.507975e-002
3.758740e+003;3.503941e-002
3.760668e+003;3.467316e-002
3.762597e+003;3.462210e-002
3.764526e+003;3.440853e-002
3.766454e+003;3.435510e-002
3.768383e+003;3.436026e-002
3.770311e+003;3.434018e-002
3.772240e+003;3.424369e-002
3.774168e+003;3.430604e-002
3.776097e+003;3.421752e-002
3.778025e+003;3.376894e-002
3.779954e+003;3.389176e-002
3.781883e+003;3.448579e-002
3.783811e+003;3.462662e-002
3.785740e+003;3.442758e-002
3.787668e+003;3.418414e-002
3.789597e+003;3.412192e-002
3.791525e+003;3.428965e-002
3.793454e+003;3.429396e-002
3.795382e+003;3.445581e-002
3.797311e+003;3.449997e-002
3.799240e+003;3.419551e-002
3.801168e+003;3.388406e-002
3.803097e+003;3.422271e-002
3.805025e+003;3.434807e-002
3.806954e+003;3.381604e-002
3.808882e+003;3.394188e-002
3.810811e+003;3.453430e-002
3.812739e+003;3.450922e-002
3.814668e+003;3.391533e-002
3.816596e+003;3.395299e-002
3.818525e+003;3.414124e-002
3.820454e+003;3.382324e-002
3.822382e+003;3.384713e-002
3.824311e+003;3.463763e-002
3.826239e+003;3.506814e-002
3.828168e+003;3.479014e-002
3.830096e+003;3.452418e-002
3.832025e+003;3.477122e-002
3.833953e+003;3.545892e-002
3.835882e+003;3.524757e-002
3.837811e+003;3.457653e-002
3.839739e+003;3.481598e-002
3.841667e+003;3.512627e-002
3.843596e+003;3.530622e-002
3.845525e+003;3.546136e-002
3.847453e+003;3.552943e-002
3.849382e+003;3.515594e-002
3.851310e+003;3.457947e-002
3.853239e+003;3.407812e-002
3.855167e+003;3.483842e-002
3.857096e+003;3.546877e-002
3.859024e+003;3.558236e-002
3.860953e+003;3.597198e-002
3.862882e+003;3.599811e-002
3.864810e+003;3.588459e-002
3.866739e+003;3.602576e-002
3.868667e+003;3.586329e-002
3.870596e+003;3.586512e-002
3.872524e+003;3.604398e-002
3.874453e+003;3.624931e-002
3.876381e+003;3.691547e-002
3.878310e+003;3.716644e-002
3.880239e+003;3.713980e-002
3.882167e+003;3.733821e-002
3.884096e+003;3.743546e-002
3.886024e+003;3.720708e-002
3.887953e+003;3.724307e-002
3.889881e+003;3.723589e-002
3.891810e+003;3.753100e-002
3.893738e+003;3.828880e-002
3.895667e+003;3.835412e-002
3.897595e+003;3.774234e-002
3.899524e+003;3.756991e-002
3.901453e+003;3.798312e-002
3.903381e+003;3.838757e-002
3.905310e+003;3.841595e-002
3.907238e+003;3.807791e-002
3.909167e+003;3.806941e-002
3.911095e+003;3.861773e-002
3.913024e+003;3.906768e-002
3.914952e+003;3.918080e-002
3.916881e+003;3.927191e-002
3.918810e+003;3.947459e-002
3.920738e+003;3.953850e-002
3.922667e+003;3.968493e-002
3.924595e+003;4.001829e-002
3.926524e+003;4.033643e-002
3.928452e+003;4.034155e-002
3.930381e+003;4.009489e-002
3.932309e+003;3.984331e-002
3.934238e+003;3.987121e-002
3.936167e+003;4.020159e-002
3.938095e+003;4.054281e-002
3.940023e+003;4.046766e-002
3.941952e+003;4.052997e-002
3.943881e+003;4.071760e-002
3.945809e+003;4.066480e-002
3.947738e+003;4.088827e-002
3.949666e+003;4.095096e-002
3.951595e+003;4.065232e-002
3.953523e+003;4.070377e-002
3.955452e+003;4.132335e-002
3.957380e+003;4.164269e-002
3.959309e+003;4.112358e-002
3.961238e+003;4.120682e-002
3.963166e+003;4.162464e-002
3.965095e+003;4.169306e-002
3.967023e+003;4.164842e-002
3.968952e+003;4.139255e-002
3.970880e+003;4.160072e-002
3.972809e+003;4.186849e-002
3.974737e+003;4.200786e-002
3.976666e+003;4.199541e-002
3.978594e+003;4.165370e-002
3.980523e+003;4.203228e-002
3.982452e+003;4.231858e-002
3.984380e+003;4.210433e-002
3.986309e+003;4.202519e-002
3.988237e+003;4.192479e-002
3.990166e+003;4.204253e-002
3.992094e+003;4.210623e-002
3.994023e+003;4.202611e-002
3.995951e+003;4.255755e-002
3.997880e+003;4.268519e-002
3.999809e+003;4.230185e-002
4.001737e+003;0.000000e+000
