3.992094e+002;0.000000e+000
4.011380e+002;0.000000e+000
4.030665e+002;0.000000e+000
4.049951e+002;0.000000e+000
4.069236e+002;0.000000e+000
4.088522e+002;0.000000e+000
4.107807e+002;0.000000e+000
4.127093e+002;0.000000e+000
4.146378e+002;0.000000e+000
4.165664e+002;0.000000e+000
4.184949e+002;0.000000e+000
4.204235e+002;0.000000e+000
4.223520e+002;0.000000e+000
4.242806e+002;0.000000e+000
4.262091e+002;0.000000e+000
4.281377e+002;0.000000e+000
4.300662e+002;0.000000e+000
4.319948e+002;0.000000e+000
4.339233e+002;0.000000e+000
4.358519e+002;0.000000e+000
4.377804e+002;0.000000e+000
4.397090e+002;0.000000e+000
4.416375e+002;0.000000e+000
4.435660e+002;0.000000e+000
4.454946e+002;0.000000e+000
4.474232e+002;0.000000e+000
4.493517e+002;0.000000e+000
4.512802e+002;0.000000e+000
4.532088e+002;0.000000e+000
4.551373e+002;0.000000e+000
4.570659e+002;0.000000e+000
4.589944e+002;0.000000e+000
4.609230e+002;0.000000e+000
4.628515e+002;0.000000e+000
4.647801e+002;0.000000e+000
4.667086e+002;0.000000e+000
4.686372e+002;0.000000e+000
4.705657e+002;0.000000e+000
4.724943e+002;0.000000e+000
4.744228e+002;0.000000e+000
4.763513e+002;0.000000e+000
4.782799e+002;0.000000e+000
4.802085e+002;0.000000e+000
4.821370e+002;0.000000e+000
4.840656e+002;0.000000e+000
4.859941e+002;0.000000e+000
4.879226e+002;0.000000e+000
4.898512e+002;0.000000e+000
4.917798e+002;0.000000e+000
4.937083e+002;0.000000e+000
4.956368e+002;0.000000e+000
4.975654e+002;0.000000e+000
4.994939e+002;0.000000e+000
5.014225e+002;0.000000e+000
5.033510e+002;0.000000e+000
5.052796e+002;0.000000e+000
5.072081e+002;0.000000e+000
5.091367e+002;0.000000e+000
5.110652e+002;0.000000e+000
5.129938e+002;0.000000e+000
5.149223e+002;0.000000e+000
5.168509e+002;0.000000e+000
5.187794e+002;0.000000e+000
5.207079e+002;0.000000e+000
5.226365e+002;0.000000e+000
5.245651e+002;0.000000e+000
5.264936e+002;0.000000e+000
5.284222e+002;0.000000e+000
5.303507e+002;0.000000e+000
5.322792e+002;0.000000e+000
5.342078e+002;0.000000e+000
5.361364e+002;0.000000e+000
5.380649e+002;0.000000e+000
5.399935e+002;0.000000e+000
5.419220e+002;0.000000e+000
5.438505e+002;0.000000e+000
5.457791e+002;0.000000e+000
5.477076e+002;0.000000e+000
5.496362e+002;0.000000e+000
5.515648e+002;0.000000e+000
5.534933e+002;0.000000e+000
5.554218e+002;0.000000e+000
5.573504e+002;0.000000e+000
5.592789e+002;0.000000e+000
5.612075e+002;0.000000e+000
5.631360e+002;0.000000e+000
5.650646e+002;0.000000e+000
5.669931e+002;0.000000e+000
5.689217e+002;0.000000e+000
5.708502e+002;0.000000e+000
5.727787e+002;0.000000e+000
5.747073e+002;0.000000e+000
5.766359e+002;0.000000e+000
5.785644e+002;0.000000e+000
5.804930e+002;0.000000e+000
5.824215e+002;0.000000e+000
5.843500e+002;0.000000e+000
5.862786e+002;0.000000e+000
5.882072e+002;0.000000e+000
5.901357e+002;0.000000e+000
5.920643e+002;0.000000e+000
5.939928e+002;0.000000e+000
5.959213e+002;0.000000e+000
5.978499e+002;0.000000e+000
5.997784e+002;1.650267e-001
6.017070e+002;1.726473e-001
6.036355e+002;1.786613e-001
6.055641e+002;1.752437e-001
6.074926e+002;1.727294e-001
6.094211e+002;1.706422e-001
6.113497e+002;1.718001e-001
6.132783e+002;1.744720e-001
6.152068e+002;1.749399e-001
6.171354e+002;1.752901e-001
6.190639e+002;1.750806e-001
6.209924e+002;1.716962e-001
6.229210e+002;1.686383e-001
6.248495e+002;1.668460e-001
6.267781e+002;1.681451e-001
6.287067e+002;1.734933e-001
6.306352e+002;1.687350e-001
6.325637e+002;1.642586e-001
6.344923e+002;1.673165e-001
6.364208e+002;1.684145e-001
6.383494e+002;1.671418e-001
6.402780e+002;1.677089e-001
6.422065e+002;1.668721e-001
6.441350e+002;1.664748e-001
6.460636e+002;1.666179e-001
6.479921e+002;1.639722e-001
6.499207e+002;1.619618e-001
6.518492e+002;1.612126e-001
6.537778e+002;1.624299e-001
6.557063e+002;1.598583e-001
6.576349e+002;1.594231e-001
6.595634e+002;1.611004e-001
6.614919e+002;1.609749e-001
6.634205e+002;1.599990e-001
6.653491e+002;1.606553e-001
6.672776e+002;1.602128e-001
6.692062e+002;1.603996e-001
6.711347e+002;1.624156e-001
6.730632e+002;1.632951e-001
6.749918e+002;1.616598e-001
6.769203e+002;1.598024e-001
6.788489e+002;1.600437e-001
6.807775e+002;1.602855e-001
6.827060e+002;1.591054e-001
6.846345e+002;1.583858e-001
6.865631e+002;1.580066e-001
6.884916e+002;1.573191e-001
6.904202e+002;1.566495e-001
6.923488e+002;1.567184e-001
6.942773e+002;1.568093e-001
6.962058e+002;1.563241e-001
6.981344e+002;1.549205e-001
7.000629e+002;1.533658e-001
7.019915e+002;1.522875e-001
7.039200e+002;1.504688e-001
7.058486e+002;1.487813e-001
7.077771e+002;1.472903e-001
7.097057e+002;1.468870e-001
7.116342e+002;1.471523e-001
7.135627e+002;1.457201e-001
7.154913e+002;1.437379e-001
7.174199e+002;1.421237e-001
7.193484e+002;1.410888e-001
7.212770e+002;1.401706e-001
7.232055e+002;1.380266e-001
7.251340e+002;1.357636e-001
7.270626e+002;1.340979e-001
7.289911e+002;1.333026e-001
7.309197e+002;1.325610e-001
7.328483e+002;1.316979e-001
7.347768e+002;1.306955e-001
7.367053e+002;1.283083e-001
7.386339e+002;1.258643e-001
7.405624e+002;1.246103e-001
7.424910e+002;1.225745e-001
7.444196e+002;1.203245e-001
7.463481e+002;1.200117e-001
7.482766e+002;1.188911e-001
7.502052e+002;1.171158e-001
7.521337e+002;1.160409e-001
7.540623e+002;1.151035e-001
7.559908e+002;1.145706e-001
7.579194e+002;1.139021e-001
7.598479e+002;1.123919e-001
7.617765e+002;1.115843e-001
7.637050e+002;1.110069e-001
7.656335e+002;1.101599e-001
7.675621e+002;1.084454e-001
7.694907e+002;1.076025e-001
7.714192e+002;1.073256e-001
7.733478e+002;1.067797e-001
7.752763e+002;1.056934e-001
7.772048e+002;1.038772e-001
7.791334e+002;1.017333e-001
7.810620e+002;1.012800e-001
7.829905e+002;1.015037e-001
7.849191e+002;1.007841e-001
7.868476e+002;9.994674e-002
7.887761e+002;9.925139e-002
7.907047e+002;9.833778e-002
7.926332e+002;9.736813e-002
7.945618e+002;9.680549e-002
7.964903e+002;9.663724e-002
7.984189e+002;9.573646e-002
8.003474e+002;9.541303e-002
8.022759e+002;9.555562e-002
8.042045e+002;9.514380e-002
8.061331e+002;9.540709e-002
8.080616e+002;9.594213e-002
8.099902e+002;9.565666e-002
8.119187e+002;9.530325e-002
8.138472e+002;9.538075e-002
8.157758e+002;9.589866e-002
8.177043e+002;9.617076e-002
8.196329e+002;9.560975e-002
8.215615e+002;9.587279e-002
8.234900e+002;9.669006e-002
8.254185e+002;9.717251e-002
8.273471e+002;9.749021e-002
8.292756e+002;9.769272e-002
8.312042e+002;9.732161e-002
8.331328e+002;9.591882e-002
8.350613e+002;9.461423e-002
8.369898e+002;9.356081e-002
8.389184e+002;9.292226e-002
8.408469e+002;9.273262e-002
8.427755e+002;9.234277e-002
8.447040e+002;9.259359e-002
8.466326e+002;9.285813e-002
8.485611e+002;9.268000e-002
8.504897e+002;9.295309e-002
8.524182e+002;9.287101e-002
8.543467e+002;9.229990e-002
8.562753e+002;9.125747e-002
8.582039e+002;8.963378e-002
8.601324e+002;8.807493e-002
8.620610e+002;8.688576e-002
8.639895e+002;8.581250e-002
8.659180e+002;8.503937e-002
8.678466e+002;8.451078e-002
8.697751e+002;8.420397e-002
8.717037e+002;8.398055e-002
8.736323e+002;8.368138e-002
8.755608e+002;8.350890e-002
8.774893e+002;8.348939e-002
8.794179e+002;8.401608e-002
8.813464e+002;8.439065e-002
8.832750e+002;8.413926e-002
8.852036e+002;8.421946e-002
8.871321e+002;8.420675e-002
8.890606e+002;8.432365e-002
8.909892e+002;8.388668e-002
8.929177e+002;8.356248e-002
8.948463e+002;8.388021e-002
8.967748e+002;8.419826e-002
8.987034e+002;8.402031e-002
9.006319e+002;8.338523e-002
9.025605e+002;8.283764e-002
9.044890e+002;8.306116e-002
9.064175e+002;8.346409e-002
9.083461e+002;8.386727e-002
9.102747e+002;8.415691e-002
9.122032e+002;8.431677e-002
9.141318e+002;8.476750e-002
9.160603e+002;8.550711e-002
9.179888e+002;8.619027e-002
9.199174e+002;8.707732e-002
9.218459e+002;8.832780e-002
9.237745e+002;8.943143e-002
9.257031e+002;9.010274e-002
9.276316e+002;9.082295e-002
9.295601e+002;9.170127e-002
9.314887e+002;9.185292e-002
9.334172e+002;9.164091e-002
9.353458e+002;9.168968e-002
9.372744e+002;9.223709e-002
9.392029e+002;9.263529e-002
9.411314e+002;9.249997e-002
9.430600e+002;9.276786e-002
9.449885e+002;9.332976e-002
9.469171e+002;9.384424e-002
9.488456e+002;9.402256e-002
9.507742e+002;9.449448e-002
9.527027e+002;9.526777e-002
9.546313e+002;9.612739e-002
9.565598e+002;9.710613e-002
9.584883e+002;9.804966e-002
9.604169e+002;9.908519e-002
9.623455e+002;1.001375e-001
9.642740e+002;1.010081e-001
9.662026e+002;1.018329e-001
9.681311e+002;1.029643e-001
9.700596e+002;1.043769e-001
9.719882e+002;1.058722e-001
9.739167e+002;1.068556e-001
9.758453e+002;1.070293e-001
9.777739e+002;1.067955e-001
9.797024e+002;1.065388e-001
9.816309e+002;1.065925e-001
9.835595e+002;1.065296e-001
9.854880e+002;1.062976e-001
9.874166e+002;1.067181e-001
9.893452e+002;1.077008e-001
9.912737e+002;1.089211e-001
9.932022e+002;1.097976e-001
9.951307e+002;1.101585e-001
9.970593e+002;1.103356e-001
9.989879e+002;1.099954e-001
1.000916e+003;1.096469e-001
1.002845e+003;1.095248e-001
1.004773e+003;1.092666e-001
1.006702e+003;1.089073e-001
1.008631e+003;1.089566e-001
1.010559e+003;1.091782e-001
1.012488e+003;1.092293e-001
1.014416e+003;1.092383e-001
1.016345e+003;1.092241e-001
1.018273e+003;1.085185e-001
1.020202e+003;1.079072e-001
1.022130e+003;1.078706e-001
1.024059e+003;1.081757e-001
1.025988e+003;1.090689e-001
1.027916e+003;1.104350e-001
1.029845e+003;1.120120e-001
1.031773e+003;1.132221e-001
1.033702e+003;1.144400e-001
1.035630e+003;1.156105e-001
1.037559e+003;1.165782e-001
1.039487e+003;1.175552e-001
1.041416e+003;1.182854e-001
1.043344e+003;1.186377e-001
1.045273e+003;1.189224e-001
1.047202e+003;1.192440e-001
1.049130e+003;1.197802e-001
1.051059e+003;1.207402e-001
1.052987e+003;1.216958e-001
1.054916e+003;1.224656e-001
1.056844e+003;1.232112e-001
1.058773e+003;1.242538e-001
1.060701e+003;1.254942e-001
1.062630e+003;1.263884e-001
1.064558e+003;1.268737e-001
1.066487e+003;1.275797e-001
1.068416e+003;1.275509e-001
1.070344e+003;1.268819e-001
1.072273e+003;1.261097e-001
1.074201e+003;1.250619e-001
1.076130e+003;1.240390e-001
1.078058e+003;1.225035e-001
1.079987e+003;1.206527e-001
1.081915e+003;1.187617e-001
1.083844e+003;1.169436e-001
1.085773e+003;1.151363e-001
1.087701e+003;1.140833e-001
1.089630e+003;1.130578e-001
1.091558e+003;1.116551e-001
1.093487e+003;1.109704e-001
1.095415e+003;1.102254e-001
1.097344e+003;1.096437e-001
1.099272e+003;1.099385e-001
1.101201e+003;1.102127e-001
1.103129e+003;1.101008e-001
1.105058e+003;1.096196e-001
1.106987e+003;1.088390e-001
1.108915e+003;1.080403e-001
1.110844e+003;1.069937e-001
1.112772e+003;1.063662e-001
1.114701e+003;1.063856e-001
1.116629e+003;1.063840e-001
1.118558e+003;1.062270e-001
1.120486e+003;1.062246e-001
1.122415e+003;1.061723e-001
1.124344e+003;1.060941e-001
1.126272e+003;1.061469e-001
1.128201e+003;1.064551e-001
1.130129e+003;1.066638e-001
1.132058e+003;1.067786e-001
1.133986e+003;1.072565e-001
1.135915e+003;1.082031e-001
1.137843e+003;1.090680e-001
1.139772e+003;1.100356e-001
1.141700e+003;1.108474e-001
1.143629e+003;1.113265e-001
1.145557e+003;1.123766e-001
1.147486e+003;1.136481e-001
1.149415e+003;1.145429e-001
1.151343e+003;1.152294e-001
1.153272e+003;1.159538e-001
1.155200e+003;1.166281e-001
1.157129e+003;1.174617e-001
1.159057e+003;1.181394e-001
1.160986e+003;1.185906e-001
1.162914e+003;1.189644e-001
1.164843e+003;1.194180e-001
1.166771e+003;1.202477e-001
1.168700e+003;1.210214e-001
1.170629e+003;1.212947e-001
1.172557e+003;1.210358e-001
1.174486e+003;1.204541e-001
1.176414e+003;1.193360e-001
1.178343e+003;1.184580e-001
1.180271e+003;1.179853e-001
1.182200e+003;1.173784e-001
1.184128e+003;1.171267e-001
1.186057e+003;1.174455e-001
1.187986e+003;1.180429e-001
1.189914e+003;1.189806e-001
1.191843e+003;1.200974e-001
1.193771e+003;1.215236e-001
1.195700e+003;1.229817e-001
1.197628e+003;1.245982e-001
1.199557e+003;1.268819e-001
1.201485e+003;1.295484e-001
1.203414e+003;1.322815e-001
1.205343e+003;1.349603e-001
1.207271e+003;1.376520e-001
1.209200e+003;1.401241e-001
1.211128e+003;1.430611e-001
1.213057e+003;1.458373e-001
1.214985e+003;1.477331e-001
1.216914e+003;1.495568e-001
1.218842e+003;1.515496e-001
1.220771e+003;1.536055e-001
1.222699e+003;1.555400e-001
1.224628e+003;1.569775e-001
1.226557e+003;1.576909e-001
1.228485e+003;1.583219e-001
1.230414e+003;1.589058e-001
1.232342e+003;1.589681e-001
1.234271e+003;1.584118e-001
1.236199e+003;1.577863e-001
1.238128e+003;1.569525e-001
1.240056e+003;1.557598e-001
1.241985e+003;1.544642e-001
1.243913e+003;1.535354e-001
1.245842e+003;1.525619e-001
1.247771e+003;1.516013e-001
1.249699e+003;1.509156e-001
1.251628e+003;1.502351e-001
1.253556e+003;1.495470e-001
1.255485e+003;1.487378e-001
1.257413e+003;1.481462e-001
1.259342e+003;1.473237e-001
1.261270e+003;1.456504e-001
1.263199e+003;1.438679e-001
1.265127e+003;1.422959e-001
1.267056e+003;1.408128e-001
1.268985e+003;1.390381e-001
1.270913e+003;1.367918e-001
1.272842e+003;1.345485e-001
1.274770e+003;1.327312e-001
1.276699e+003;1.309140e-001
1.278627e+003;1.291163e-001
1.280556e+003;1.277756e-001
1.282484e+003;1.266840e-001
1.284413e+003;1.259259e-001
1.286342e+003;1.249303e-001
1.288270e+003;1.239472e-001
1.290199e+003;1.234186e-001
1.292127e+003;1.232916e-001
1.294056e+003;1.231587e-001
1.295984e+003;1.228701e-001
1.297913e+003;1.224255e-001
1.299841e+003;1.219175e-001
1.301770e+003;1.214777e-001
1.303698e+003;1.209374e-001
1.305627e+003;1.203198e-001
1.307556e+003;1.199991e-001
1.309484e+003;1.198277e-001
1.311413e+003;1.192949e-001
1.313341e+003;1.185910e-001
1.315270e+003;1.181366e-001
1.317198e+003;1.179815e-001
1.319127e+003;1.179560e-001
1.321055e+003;1.178641e-001
1.322984e+003;1.177899e-001
1.324912e+003;1.178747e-001
1.326841e+003;1.181926e-001
1.328770e+003;1.184022e-001
1.330698e+003;1.183296e-001
1.332627e+003;1.182351e-001
1.334555e+003;1.182102e-001
1.336484e+003;1.182840e-001
1.338412e+003;1.182813e-001
1.340341e+003;1.180582e-001
1.342269e+003;1.177891e-001
1.344198e+003;1.175372e-001
1.346126e+003;1.174075e-001
1.348055e+003;1.172694e-001
1.349984e+003;1.173419e-001
1.351912e+003;1.175806e-001
1.353841e+003;1.178321e-001
1.355769e+003;1.181295e-001
1.357698e+003;1.186572e-001
1.359626e+003;1.198758e-001
1.361555e+003;1.215158e-001
1.363483e+003;1.230568e-001
1.365412e+003;1.245331e-001
1.367341e+003;1.256941e-001
1.369269e+003;1.261882e-001
1.371198e+003;1.263205e-001
1.373126e+003;1.261919e-001
1.375055e+003;1.259054e-001
1.376983e+003;1.257970e-001
1.378912e+003;1.258608e-001
1.380840e+003;1.256564e-001
1.382769e+003;1.254033e-001
1.384698e+003;1.256634e-001
1.386626e+003;1.257482e-001
1.388555e+003;1.256790e-001
1.390483e+003;1.256877e-001
1.392412e+003;1.255314e-001
1.394340e+003;1.252654e-001
1.396269e+003;1.252133e-001
1.398197e+003;1.253912e-001
1.400126e+003;1.257398e-001
1.402054e+003;1.261791e-001
1.403983e+003;1.266350e-001
1.405911e+003;1.272617e-001
1.407840e+003;1.277874e-001
1.409769e+003;1.280666e-001
1.411697e+003;1.281598e-001
1.413626e+003;1.285994e-001
1.415554e+003;1.291625e-001
1.417483e+003;1.295156e-001
1.419411e+003;1.300011e-001
1.421340e+003;1.305859e-001
1.423268e+003;1.316153e-001
1.425197e+003;1.332928e-001
1.427125e+003;1.355214e-001
1.429054e+003;1.381914e-001
1.430983e+003;1.411521e-001
1.432911e+003;1.442943e-001
1.434840e+003;1.472254e-001
1.436768e+003;1.494746e-001
1.438697e+003;1.512127e-001
1.440625e+003;1.523953e-001
1.442554e+003;1.532044e-001
1.444482e+003;1.536841e-001
1.446411e+003;1.535123e-001
1.448340e+003;1.527250e-001
1.450268e+003;1.513513e-001
1.452197e+003;1.492831e-001
1.454125e+003;1.470664e-001
1.456054e+003;1.447817e-001
1.457982e+003;1.423740e-001
1.459911e+003;1.406654e-001
1.461839e+003;1.395516e-001
1.463768e+003;1.387718e-001
1.465697e+003;1.381533e-001
1.467625e+003;1.377784e-001
1.469554e+003;1.380915e-001
1.471482e+003;1.389170e-001
1.473411e+003;1.400873e-001
1.475339e+003;1.416299e-001
1.477268e+003;1.433593e-001
1.479196e+003;1.456092e-001
1.481125e+003;1.485379e-001
1.483053e+003;1.519291e-001
1.484982e+003;1.557030e-001
1.486911e+003;1.599629e-001
1.488839e+003;1.645572e-001
1.490768e+003;1.693203e-001
1.492696e+003;1.741662e-001
1.494625e+003;1.789549e-001
1.496553e+003;1.839280e-001
1.498482e+003;1.890205e-001
1.500410e+003;1.934726e-001
1.502339e+003;1.977164e-001
1.504267e+003;2.018022e-001
1.506196e+003;2.054132e-001
1.508125e+003;2.088116e-001
1.510053e+003;2.115244e-001
1.511982e+003;2.138316e-001
1.513910e+003;2.155371e-001
1.515839e+003;2.156300e-001
1.517767e+003;2.136520e-001
1.519696e+003;2.103079e-001
1.521624e+003;2.068977e-001
1.523553e+003;2.034374e-001
1.525481e+003;2.001437e-001
1.527410e+003;1.971233e-001
1.529339e+003;1.944336e-001
1.531267e+003;1.921099e-001
1.533196e+003;1.895880e-001
1.535124e+003;1.867242e-001
1.537053e+003;1.837517e-001
1.538981e+003;1.805212e-001
1.540910e+003;1.771597e-001
1.542838e+003;1.742479e-001
1.544767e+003;1.715049e-001
1.546695e+003;1.687752e-001
1.548624e+003;1.658467e-001
1.550553e+003;1.626532e-001
1.552481e+003;1.595865e-001
1.554410e+003;1.565692e-001
1.556338e+003;1.534180e-001
1.558267e+003;1.503730e-001
1.560195e+003;1.473162e-001
1.562124e+003;1.443572e-001
1.564052e+003;1.415701e-001
1.565981e+003;1.385606e-001
1.567910e+003;1.358465e-001
1.569838e+003;1.334165e-001
1.571767e+003;1.312809e-001
1.573695e+003;1.296903e-001
1.575624e+003;1.285323e-001
1.577552e+003;1.278758e-001
1.579481e+003;1.274107e-001
1.581409e+003;1.273757e-001
1.583338e+003;1.279948e-001
1.585266e+003;1.293336e-001
1.587195e+003;1.312136e-001
1.589124e+003;1.335952e-001
1.591052e+003;1.367165e-001
1.592981e+003;1.405093e-001
1.594909e+003;1.446124e-001
1.596838e+003;1.491715e-001
1.598766e+003;1.543115e-001
1.600695e+003;1.600688e-001
1.602623e+003;1.668001e-001
1.604552e+003;1.744633e-001
1.606480e+003;1.828296e-001
1.608409e+003;1.915575e-001
1.610338e+003;2.003513e-001
1.612266e+003;2.091065e-001
1.614195e+003;2.172279e-001
1.616123e+003;2.242794e-001
1.618052e+003;2.301546e-001
1.619980e+003;2.342634e-001
1.621909e+003;2.366167e-001
1.623837e+003;2.372071e-001
1.625766e+003;2.360616e-001
1.627694e+003;2.335023e-001
1.629623e+003;2.300404e-001
1.631552e+003;2.258746e-001
1.633480e+003;2.214663e-001
1.635409e+003;2.169677e-001
1.637337e+003;2.122813e-001
1.639266e+003;2.076987e-001
1.641194e+003;2.034993e-001
1.643123e+003;1.997177e-001
1.645051e+003;1.960820e-001
1.646980e+003;1.919272e-001
1.648909e+003;1.879870e-001
1.650837e+003;1.842198e-001
1.652766e+003;1.801434e-001
1.654694e+003;1.760009e-001
1.656623e+003;1.718900e-001
1.658551e+003;1.679144e-001
1.660480e+003;1.639872e-001
1.662408e+003;1.598808e-001
1.664337e+003;1.557925e-001
1.666266e+003;1.519989e-001
1.668194e+003;1.485008e-001
1.670123e+003;1.450789e-001
1.672051e+003;1.418867e-001
1.673980e+003;1.386982e-001
1.675908e+003;1.355785e-001
1.677837e+003;1.326650e-001
1.679765e+003;1.298324e-001
1.681694e+003;1.270519e-001
1.683622e+003;1.243456e-001
1.685551e+003;1.217253e-001
1.687479e+003;1.196110e-001
1.689408e+003;1.179394e-001
1.691337e+003;1.163013e-001
1.693265e+003;1.148917e-001
1.695194e+003;1.137149e-001
1.697122e+003;1.123600e-001
1.699051e+003;1.104824e-001
1.700979e+003;1.068695e-001
1.702908e+003;1.016580e-001
1.704836e+003;9.537329e-002
1.706765e+003;8.887858e-002
1.708693e+003;8.274101e-002
1.710622e+003;7.770956e-002
1.712551e+003;7.385965e-002
1.714479e+003;7.068275e-002
1.716408e+003;6.781541e-002
1.718336e+003;6.553091e-002
1.720265e+003;6.365471e-002
1.722193e+003;6.195034e-002
1.724122e+003;6.043025e-002
1.726050e+003;5.927197e-002
1.727979e+003;5.827332e-002
1.729908e+003;5.716484e-002
1.731836e+003;5.626529e-002
1.733765e+003;5.553220e-002
1.735693e+003;5.465271e-002
1.737622e+003;5.383208e-002
1.739550e+003;5.302472e-002
1.741479e+003;5.225260e-002
1.743407e+003;5.174305e-002
1.745336e+003;5.118803e-002
1.747265e+003;5.051961e-002
1.749193e+003;5.000626e-002
1.751122e+003;4.958921e-002
1.753050e+003;4.914363e-002
1.754979e+003;4.869954e-002
1.756907e+003;4.828619e-002
1.758836e+003;4.795019e-002
1.760764e+003;4.767421e-002
1.762693e+003;4.759320e-002
1.764621e+003;4.731711e-002
1.766550e+003;4.702694e-002
1.768479e+003;4.697787e-002
1.770407e+003;4.689485e-002
1.772336e+003;4.641460e-002
1.774264e+003;4.603701e-002
1.776193e+003;4.600972e-002
1.778121e+003;4.599439e-002
1.780050e+003;4.582038e-002
1.781978e+003;4.557393e-002
1.783907e+003;4.535709e-002
1.785835e+003;4.522660e-002
1.787764e+003;4.518417e-002
1.789693e+003;4.487720e-002
1.791621e+003;4.442824e-002
1.793550e+003;4.428992e-002
1.795478e+003;4.434218e-002
1.797407e+003;4.426168e-002
1.799335e+003;4.403400e-002
1.801264e+003;4.375170e-002
1.803192e+003;4.355386e-002
1.805121e+003;4.354093e-002
1.807049e+003;4.332499e-002
1.808978e+003;4.295107e-002
1.810907e+003;4.285744e-002
1.812835e+003;4.269974e-002
1.814764e+003;4.242079e-002
1.816692e+003;4.201968e-002
1.818621e+003;4.174985e-002
1.820549e+003;4.185240e-002
1.822478e+003;4.190155e-002
1.824406e+003;4.177137e-002
1.826335e+003;4.157807e-002
1.828264e+003;4.129255e-002
1.830192e+003;4.099262e-002
1.832121e+003;4.069085e-002
1.834049e+003;4.046552e-002
1.835978e+003;4.037915e-002
1.837906e+003;4.037497e-002
1.839835e+003;4.028244e-002
1.841763e+003;4.011041e-002
1.843692e+003;3.992798e-002
1.845620e+003;3.984451e-002
1.847549e+003;3.974843e-002
1.849478e+003;3.956096e-002
1.851406e+003;3.924666e-002
1.853335e+003;3.903890e-002
1.855263e+003;3.903375e-002
1.857192e+003;3.910379e-002
1.859120e+003;3.920507e-002
1.861049e+003;3.917616e-002
1.862977e+003;3.906960e-002
1.864906e+003;3.909549e-002
1.866834e+003;3.917413e-002
1.868763e+003;3.910006e-002
1.870692e+003;3.895803e-002
1.872620e+003;3.895256e-002
1.874549e+003;3.897046e-002
1.876477e+003;3.867064e-002
1.878406e+003;3.857644e-002
1.880334e+003;3.876634e-002
1.882263e+003;3.884790e-002
1.884191e+003;3.877363e-002
1.886120e+003;3.852680e-002
1.888048e+003;3.825218e-002
1.889977e+003;3.816126e-002
1.891906e+003;3.826969e-002
1.893834e+003;3.831576e-002
1.895763e+003;3.822446e-002
1.897691e+003;3.815120e-002
1.899620e+003;3.787457e-002
1.901548e+003;3.757442e-002
1.903477e+003;3.759628e-002
1.905405e+003;3.794602e-002
1.907334e+003;3.805480e-002
1.909262e+003;3.769854e-002
1.911191e+003;3.747057e-002
1.913120e+003;3.752753e-002
1.915048e+003;3.751832e-002
1.916977e+003;3.757507e-002
1.918905e+003;3.772308e-002
1.920834e+003;3.777303e-002
1.922762e+003;3.771517e-002
1.924691e+003;3.777560e-002
1.926619e+003;3.766566e-002
1.928548e+003;3.747689e-002
1.930477e+003;3.751561e-002
1.932405e+003;3.748888e-002
1.934334e+003;3.736684e-002
1.936262e+003;3.740191e-002
1.938191e+003;3.750116e-002
1.940119e+003;3.763635e-002
1.942048e+003;3.767747e-002
1.943976e+003;3.753021e-002
1.945905e+003;3.750127e-002
1.947833e+003;3.771860e-002
1.949762e+003;3.775575e-002
1.951691e+003;3.760000e-002
1.953619e+003;3.760539e-002
1.955548e+003;3.763108e-002
1.957476e+003;3.758154e-002
1.959405e+003;3.737461e-002
1.961333e+003;3.725249e-002
1.963262e+003;3.739512e-002
1.965190e+003;3.760492e-002
1.967119e+003;3.755217e-002
1.969047e+003;3.737370e-002
1.970976e+003;3.730329e-002
1.972905e+003;3.729224e-002
1.974833e+003;3.736446e-002
1.976762e+003;3.732741e-002
1.978690e+003;3.712547e-002
1.980619e+003;3.687662e-002
1.982547e+003;3.689253e-002
1.984476e+003;3.700790e-002
1.986404e+003;3.709068e-002
1.988333e+003;3.710154e-002
1.990261e+003;3.709021e-002
1.992190e+003;3.706737e-002
1.994119e+003;3.704197e-002
1.996047e+003;3.691002e-002
1.997976e+003;3.670716e-002
1.999904e+003;3.655928e-002
2.001833e+003;3.662828e-002
2.003761e+003;3.666361e-002
2.005690e+003;3.653420e-002
2.007618e+003;3.641099e-002
2.009547e+003;3.632452e-002
2.011476e+003;3.633028e-002
2.013404e+003;3.629512e-002
2.015333e+003;3.622503e-002
2.017261e+003;3.619305e-002
2.019190e+003;3.621635e-002
2.021118e+003;3.622654e-002
2.023047e+003;3.604776e-002
2.024975e+003;3.587895e-002
2.026904e+003;3.609820e-002
2.028833e+003;3.630982e-002
2.030761e+003;3.631868e-002
2.032690e+003;3.616395e-002
2.034618e+003;3.605632e-002
2.036547e+003;3.596212e-002
2.038475e+003;3.594138e-002
2.040404e+003;3.587624e-002
2.042332e+003;3.586728e-002
2.044261e+003;3.605615e-002
2.046189e+003;3.632801e-002
2.048118e+003;3.634423e-002
2.050047e+003;3.626418e-002
2.051975e+003;3.619766e-002
2.053904e+003;3.614894e-002
2.055832e+003;3.613183e-002
2.057761e+003;3.605751e-002
2.059689e+003;3.610238e-002
2.061618e+003;3.627744e-002
2.063546e+003;3.616698e-002
2.065475e+003;3.605608e-002
2.067404e+003;3.621527e-002
2.069332e+003;3.613813e-002
2.071260e+003;3.588808e-002
2.073189e+003;3.578679e-002
2.075118e+003;3.602843e-002
2.077046e+003;3.615300e-002
2.078975e+003;3.599790e-002
2.080903e+003;3.584076e-002
2.082832e+003;3.584688e-002
2.084760e+003;3.605625e-002
2.086689e+003;3.607750e-002
2.088617e+003;3.596108e-002
2.090546e+003;3.590284e-002
2.092475e+003;3.581075e-002
2.094403e+003;3.573397e-002
2.096332e+003;3.575031e-002
2.098260e+003;3.576570e-002
2.100189e+003;3.566455e-002
2.102117e+003;3.552824e-002
2.104046e+003;3.553932e-002
2.105974e+003;3.556420e-002
2.107903e+003;3.549980e-002
2.109832e+003;3.558546e-002
2.111760e+003;3.552432e-002
2.113688e+003;3.529939e-002
2.115617e+003;3.523449e-002
2.117546e+003;3.548768e-002
2.119474e+003;3.547431e-002
2.121403e+003;3.525544e-002
2.123331e+003;3.534701e-002
2.125260e+003;3.554367e-002
2.127188e+003;3.564994e-002
2.129117e+003;3.556082e-002
2.131045e+003;3.537016e-002
2.132974e+003;3.524347e-002
2.134903e+003;3.514739e-002
2.136831e+003;3.518210e-002
2.138760e+003;3.533052e-002
2.140688e+003;3.535503e-002
2.142617e+003;3.525551e-002
2.144545e+003;3.515325e-002
2.146474e+003;3.499437e-002
2.148402e+003;3.503111e-002
2.150331e+003;3.518414e-002
2.152260e+003;3.516564e-002
2.154188e+003;3.519888e-002
2.156117e+003;3.524735e-002
2.158045e+003;3.515490e-002
2.159974e+003;3.518964e-002
2.161902e+003;3.528455e-002
2.163831e+003;3.512670e-002
2.165759e+003;3.510500e-002
2.167688e+003;3.510550e-002
2.169616e+003;3.499186e-002
2.171545e+003;3.513823e-002
2.173474e+003;3.523215e-002
2.175402e+003;3.495285e-002
2.177331e+003;3.494905e-002
2.179259e+003;3.502429e-002
2.181188e+003;3.488933e-002
2.183116e+003;3.487192e-002
2.185045e+003;3.496298e-002
2.186973e+003;3.485705e-002
2.188902e+003;3.453606e-002
2.190831e+003;3.431034e-002
2.192759e+003;3.436919e-002
2.194688e+003;3.453753e-002
2.196616e+003;3.460031e-002
2.198545e+003;3.463807e-002
2.200473e+003;3.453764e-002
2.202402e+003;3.453469e-002
2.204330e+003;3.449788e-002
2.206259e+003;3.451134e-002
2.208188e+003;3.463849e-002
2.210116e+003;3.438479e-002
2.212044e+003;3.415263e-002
2.213973e+003;3.425215e-002
2.215902e+003;3.408593e-002
2.217830e+003;3.392465e-002
2.219759e+003;3.405013e-002
2.221687e+003;3.411131e-002
2.223616e+003;3.379985e-002
2.225544e+003;3.378373e-002
2.227473e+003;3.408378e-002
2.229401e+003;3.425724e-002
2.231330e+003;3.426205e-002
2.233259e+003;3.418787e-002
2.235187e+003;3.427614e-002
2.237116e+003;3.427696e-002
2.239044e+003;3.417668e-002
2.240973e+003;3.410934e-002
2.242901e+003;3.406622e-002
2.244830e+003;3.399183e-002
2.246758e+003;3.402630e-002
2.248687e+003;3.403017e-002
2.250615e+003;3.410464e-002
2.252544e+003;3.413127e-002
2.254473e+003;3.386758e-002
2.256401e+003;3.394969e-002
2.258330e+003;3.412514e-002
2.260258e+003;3.390014e-002
2.262187e+003;3.373882e-002
2.264115e+003;3.372203e-002
2.266044e+003;3.367276e-002
2.267972e+003;3.373302e-002
2.269901e+003;3.382177e-002
2.271830e+003;3.381672e-002
2.273758e+003;3.382406e-002
2.275687e+003;3.384899e-002
2.277615e+003;3.365743e-002
2.279544e+003;3.350357e-002
2.281472e+003;3.378334e-002
2.283401e+003;3.396739e-002
2.285329e+003;3.399917e-002
2.287258e+003;3.401422e-002
2.289187e+003;3.394958e-002
2.291115e+003;3.406382e-002
2.293043e+003;3.417120e-002
2.294972e+003;3.418325e-002
2.296901e+003;3.418271e-002
2.298829e+003;3.418038e-002
2.300758e+003;3.414622e-002
2.302686e+003;3.411940e-002
2.304615e+003;3.403784e-002
2.306543e+003;3.413088e-002
2.308472e+003;3.408206e-002
2.310400e+003;3.393146e-002
2.312329e+003;3.397090e-002
2.314258e+003;3.410084e-002
2.316186e+003;3.425394e-002
2.318115e+003;3.417640e-002
2.320043e+003;3.390616e-002
2.321972e+003;3.391000e-002
2.323900e+003;3.393683e-002
2.325829e+003;3.383015e-002
2.327757e+003;3.367655e-002
2.329686e+003;3.368844e-002
2.331615e+003;3.388743e-002
2.333543e+003;3.390960e-002
2.335472e+003;3.385920e-002
2.337400e+003;3.386049e-002
2.339329e+003;3.387743e-002
2.341257e+003;3.381045e-002
2.343186e+003;3.367043e-002
2.345114e+003;3.374076e-002
2.347043e+003;3.405242e-002
2.348971e+003;3.408812e-002
2.350900e+003;3.391791e-002
2.352829e+003;3.378144e-002
2.354757e+003;3.365647e-002
2.356686e+003;3.378642e-002
2.358614e+003;3.405006e-002
2.360543e+003;3.405529e-002
2.362471e+003;3.401186e-002
2.364400e+003;3.399118e-002
2.366328e+003;3.383154e-002
2.368257e+003;3.371375e-002
2.370186e+003;3.401171e-002
2.372114e+003;3.417145e-002
2.374042e+003;3.388306e-002
2.375971e+003;3.382635e-002
2.377900e+003;3.384512e-002
2.379828e+003;3.394682e-002
2.381757e+003;3.403630e-002
2.383685e+003;3.384985e-002
2.385614e+003;3.382829e-002
2.387542e+003;3.415937e-002
2.389471e+003;3.427409e-002
2.391399e+003;3.420680e-002
2.393328e+003;3.416307e-002
2.395257e+003;3.424932e-002
2.397185e+003;3.432694e-002
2.399114e+003;3.457362e-002
2.401042e+003;3.477797e-002
2.402971e+003;3.497860e-002
2.404899e+003;3.521796e-002
2.406828e+003;3.506882e-002
2.408756e+003;3.492208e-002
2.410685e+003;3.507023e-002
2.412614e+003;3.545982e-002
2.414542e+003;3.558139e-002
2.416471e+003;3.544357e-002
2.418399e+003;3.538296e-002
2.420328e+003;3.555766e-002
2.422256e+003;3.580910e-002
2.424185e+003;3.587067e-002
2.426113e+003;3.596172e-002
2.428042e+003;3.605086e-002
2.429970e+003;3.610562e-002
2.431899e+003;3.621419e-002
2.433828e+003;3.638367e-002
2.435756e+003;3.652969e-002
2.437685e+003;3.667500e-002
2.439613e+003;3.674221e-002
2.441542e+003;3.669461e-002
2.443470e+003;3.665650e-002
2.445399e+003;3.681516e-002
2.447327e+003;3.703825e-002
2.449256e+003;3.707816e-002
2.451185e+003;3.696226e-002
2.453113e+003;3.680936e-002
2.455042e+003;3.681606e-002
2.456970e+003;3.683500e-002
2.458899e+003;3.682443e-002
2.460827e+003;3.698153e-002
2.462756e+003;3.715254e-002
2.464684e+003;3.719253e-002
2.466613e+003;3.740093e-002
2.468542e+003;3.752562e-002
2.470470e+003;3.748877e-002
2.472398e+003;3.735659e-002
2.474327e+003;3.737616e-002
2.476256e+003;3.742658e-002
2.478184e+003;3.744153e-002
2.480113e+003;3.754397e-002
2.482041e+003;3.772124e-002
2.483970e+003;3.779443e-002
2.485898e+003;3.749441e-002
2.487827e+003;3.742398e-002
2.489755e+003;3.763726e-002
2.491684e+003;3.761026e-002
2.493613e+003;3.767462e-002
2.495541e+003;3.804113e-002
2.497470e+003;3.788687e-002
2.499398e+003;3.781124e-002
2.501327e+003;3.800511e-002
2.503255e+003;3.793904e-002
2.505184e+003;3.805371e-002
2.507112e+003;3.815120e-002
2.509041e+003;3.777885e-002
2.510969e+003;3.794077e-002
2.512898e+003;3.830896e-002
2.514827e+003;3.830975e-002
2.516755e+003;3.821350e-002
2.518684e+003;3.828352e-002
2.520612e+003;3.835832e-002
2.522541e+003;3.820634e-002
2.524469e+003;3.782920e-002
2.526398e+003;3.787920e-002
2.528326e+003;3.833154e-002
2.530255e+003;3.848419e-002
2.532184e+003;3.847340e-002
2.534112e+003;3.846250e-002
2.536041e+003;3.841236e-002
2.537969e+003;3.846710e-002
2.539898e+003;3.853274e-002
2.541826e+003;3.855157e-002
2.543755e+003;3.871929e-002
2.545683e+003;3.891933e-002
2.547612e+003;3.900388e-002
2.549541e+003;3.896100e-002
2.551469e+003;3.897876e-002
2.553397e+003;3.914589e-002
2.555326e+003;3.929715e-002
2.557255e+003;3.952935e-002
2.559183e+003;3.954757e-002
2.561112e+003;3.955331e-002
2.563040e+003;3.978695e-002
2.564969e+003;4.006524e-002
2.566897e+003;4.032861e-002
2.568826e+003;4.040569e-002
2.570754e+003;4.042977e-002
2.572683e+003;4.053364e-002
2.574612e+003;4.065137e-002
2.576540e+003;4.075705e-002
2.578469e+003;4.092955e-002
2.580397e+003;4.129277e-002
2.582326e+003;4.143921e-002
2.584254e+003;4.129084e-002
2.586183e+003;4.138501e-002
2.588111e+003;4.161333e-002
2.590040e+003;4.165338e-002
2.591969e+003;4.179173e-002
2.593897e+003;4.225601e-002
2.595826e+003;4.256091e-002
2.597754e+003;4.249908e-002
2.599683e+003;4.235470e-002
2.601611e+003;4.248377e-002
2.603540e+003;4.273136e-002
2.605468e+003;4.286022e-002
2.607397e+003;4.314534e-002
2.609325e+003;4.340092e-002
2.611254e+003;4.344626e-002
2.613183e+003;4.352544e-002
2.615111e+003;4.339715e-002
2.617040e+003;4.324939e-002
2.618968e+003;4.332956e-002
2.620897e+003;4.335790e-002
2.622825e+003;4.337511e-002
2.624754e+003;4.339349e-002
2.626682e+003;4.339554e-002
2.628611e+003;4.342498e-002
2.630540e+003;4.341941e-002
2.632468e+003;4.350200e-002
2.634396e+003;4.326166e-002
2.636325e+003;4.309422e-002
2.638254e+003;4.328706e-002
2.640182e+003;4.343143e-002
2.642111e+003;4.344428e-002
2.644039e+003;4.328585e-002
2.645968e+003;4.308885e-002
2.647896e+003;4.333520e-002
2.649825e+003;4.354954e-002
2.651753e+003;4.333436e-002
2.653682e+003;4.314135e-002
2.655611e+003;4.327026e-002
2.657539e+003;4.329142e-002
2.659468e+003;4.333140e-002
2.661396e+003;4.335296e-002
2.663325e+003;4.332685e-002
2.665253e+003;4.359954e-002
2.667182e+003;4.390139e-002
2.669110e+003;4.409294e-002
2.671039e+003;4.422165e-002
2.672968e+003;4.426571e-002
2.674896e+003;4.430130e-002
2.676825e+003;4.446553e-002
2.678753e+003;4.458451e-002
2.680682e+003;4.477353e-002
2.682610e+003;4.499148e-002
2.684539e+003;4.499468e-002
2.686467e+003;4.507212e-002
2.688396e+003;4.528268e-002
2.690324e+003;4.564860e-002
2.692253e+003;4.594603e-002
2.694182e+003;4.601119e-002
2.696110e+003;4.597435e-002
2.698039e+003;4.601236e-002
2.699967e+003;4.626953e-002
2.701896e+003;4.657479e-002
2.703824e+003;4.658896e-002
2.705753e+003;4.655897e-002
2.707681e+003;4.667133e-002
2.709610e+003;4.693398e-002
2.711539e+003;4.721245e-002
2.713467e+003;4.718522e-002
2.715396e+003;4.721492e-002
2.717324e+003;4.752126e-002
2.719253e+003;4.793321e-002
2.721181e+003;4.812625e-002
2.723110e+003;4.815968e-002
2.725038e+003;4.818063e-002
2.726967e+003;4.819407e-002
2.728896e+003;4.857179e-002
2.730824e+003;4.906857e-002
2.732752e+003;4.938565e-002
2.734681e+003;4.960062e-002
2.736610e+003;4.964374e-002
2.738538e+003;4.972547e-002
2.740467e+003;4.989537e-002
2.742395e+003;5.008738e-002
2.744324e+003;5.022893e-002
2.746252e+003;5.039107e-002
2.748181e+003;5.054667e-002
2.750109e+003;5.076504e-002
2.752038e+003;5.094861e-002
2.753967e+003;5.122154e-002
2.755895e+003;5.138207e-002
2.757824e+003;5.158851e-002
2.759752e+003;5.170229e-002
2.761681e+003;5.173238e-002
2.763609e+003;5.200576e-002
2.765538e+003;5.218732e-002
2.767466e+003;5.226512e-002
2.769395e+003;5.230040e-002
2.771323e+003;5.244857e-002
2.773252e+003;5.266174e-002
2.775181e+003;5.279054e-002
2.777109e+003;5.277318e-002
2.779038e+003;5.278141e-002
2.780966e+003;5.331147e-002
2.782895e+003;5.371946e-002
2.784823e+003;5.360541e-002
2.786752e+003;5.342889e-002
2.788680e+003;5.349829e-002
2.790609e+003;5.376285e-002
2.792538e+003;5.411310e-002
2.794466e+003;5.444643e-002
2.796395e+003;5.462254e-002
2.798323e+003;5.470198e-002
2.800252e+003;5.508349e-002
2.802180e+003;5.541331e-002
2.804109e+003;5.529087e-002
2.806037e+003;5.553778e-002
2.807966e+003;5.589692e-002
2.809895e+003;5.609884e-002
2.811823e+003;5.625979e-002
2.813751e+003;5.632338e-002
2.815680e+003;5.632429e-002
2.817609e+003;5.652283e-002
2.819537e+003;5.679800e-002
2.821466e+003;5.688702e-002
2.823394e+003;5.690606e-002
2.825323e+003;5.713132e-002
2.827251e+003;5.736191e-002
2.829180e+003;5.747835e-002
2.831108e+003;5.786859e-002
2.833037e+003;5.836256e-002
2.834966e+003;5.843962e-002
2.836894e+003;5.864501e-002
2.838823e+003;5.909222e-002
2.840751e+003;5.951918e-002
2.842680e+003;6.004333e-002
2.844608e+003;6.076149e-002
2.846537e+003;6.125906e-002
2.848465e+003;6.166700e-002
2.850394e+003;6.199892e-002
2.852323e+003;6.237137e-002
2.854251e+003;6.285620e-002
2.856180e+003;6.337367e-002
2.858108e+003;6.388907e-002
2.860037e+003;6.435443e-002
2.861965e+003;6.486080e-002
2.863894e+003;6.533129e-002
2.865822e+003;6.551553e-002
2.867751e+003;6.576712e-002
2.869679e+003;6.630757e-002
2.871608e+003;6.689201e-002
2.873536e+003;6.724199e-002
2.875465e+003;6.760107e-002
2.877394e+003;6.788304e-002
2.879322e+003;6.768618e-002
2.881251e+003;6.735747e-002
2.883179e+003;6.732625e-002
2.885108e+003;6.732988e-002
2.887036e+003;6.735739e-002
2.888965e+003;6.756692e-002
2.890893e+003;6.783327e-002
2.892822e+003;6.798805e-002
2.894750e+003;6.786360e-002
2.896679e+003;6.779206e-002
2.898608e+003;6.812803e-002
2.900536e+003;6.861045e-002
2.902465e+003;6.890232e-002
2.904393e+003;6.913626e-002
2.906322e+003;6.939105e-002
2.908250e+003;6.962980e-002
2.910179e+003;6.992575e-002
2.912107e+003;7.007321e-002
2.914036e+003;7.041906e-002
2.915965e+003;7.082544e-002
2.917893e+003;7.130423e-002
2.919822e+003;7.178731e-002
2.921750e+003;7.199171e-002
2.923679e+003;7.233068e-002
2.925607e+003;7.286443e-002
2.927536e+003;7.357409e-002
2.929464e+003;7.414203e-002
2.931393e+003;7.465054e-002
2.933322e+003;7.502089e-002
2.935250e+003;7.537559e-002
2.937178e+003;7.543270e-002
2.939107e+003;7.503042e-002
2.941036e+003;7.495150e-002
2.942964e+003;7.489122e-002
2.944893e+003;7.431055e-002
2.946821e+003;7.371718e-002
2.948750e+003;7.307648e-002
2.950678e+003;7.275832e-002
2.952607e+003;7.275550e-002
2.954535e+003;7.237808e-002
2.956464e+003;7.183222e-002
2.958393e+003;7.160124e-002
2.960321e+003;7.174943e-002
2.962250e+003;7.187636e-002
2.964178e+003;7.176006e-002
2.966107e+003;7.158796e-002
2.968035e+003;7.181412e-002
2.969964e+003;7.217740e-002
2.971892e+003;7.243049e-002
2.973821e+003;7.223398e-002
2.975750e+003;7.165915e-002
2.977678e+003;7.140401e-002
2.979607e+003;7.149826e-002
2.981535e+003;7.134464e-002
2.983464e+003;7.116260e-002
2.985392e+003;7.103353e-002
2.987321e+003;7.072591e-002
2.989249e+003;7.041177e-002
2.991178e+003;7.023950e-002
2.993106e+003;7.006983e-002
2.995035e+003;6.986862e-002
2.996964e+003;6.969410e-002
2.998892e+003;6.935354e-002
3.000821e+003;6.887976e-002
3.002749e+003;6.860393e-002
3.004678e+003;6.843393e-002
3.006606e+003;6.816873e-002
3.008535e+003;6.786758e-002
3.010463e+003;6.775542e-002
3.012392e+003;6.791996e-002
3.014321e+003;6.796712e-002
3.016249e+003;6.786852e-002
3.018177e+003;6.786011e-002
3.020106e+003;6.796294e-002
3.022035e+003;6.813721e-002
3.023963e+003;6.818493e-002
3.025892e+003;6.855780e-002
3.027820e+003;6.898609e-002
3.029749e+003;6.929123e-002
3.031677e+003;6.960184e-002
3.033606e+003;6.986313e-002
3.035534e+003;7.025146e-002
3.037463e+003;7.067784e-002
3.039392e+003;7.105526e-002
3.041320e+003;7.129303e-002
3.043249e+003;7.144814e-002
3.045177e+003;7.174185e-002
3.047106e+003;7.227816e-002
3.049034e+003;7.281458e-002
3.050963e+003;7.273752e-002
3.052891e+003;7.276929e-002
3.054820e+003;7.337105e-002
3.056749e+003;7.387587e-002
3.058677e+003;7.423224e-002
3.060606e+003;7.451241e-002
3.062534e+003;7.451662e-002
3.064463e+003;7.463098e-002
3.066391e+003;7.480714e-002
3.068320e+003;7.493772e-002
3.070248e+003;7.520441e-002
3.072177e+003;7.527336e-002
3.074105e+003;7.550547e-002
3.076034e+003;7.553650e-002
3.077963e+003;7.534374e-002
3.079891e+003;7.519609e-002
3.081820e+003;7.486292e-002
3.083748e+003;7.485055e-002
3.085677e+003;7.489740e-002
3.087605e+003;7.463823e-002
3.089534e+003;7.448653e-002
3.091462e+003;7.418007e-002
3.093391e+003;7.390376e-002
3.095320e+003;7.392062e-002
3.097248e+003;7.377914e-002
3.099177e+003;7.351074e-002
3.101105e+003;7.352260e-002
3.103034e+003;7.324596e-002
3.104962e+003;7.250551e-002
3.106891e+003;7.221117e-002
3.108819e+003;7.199911e-002
3.110748e+003;7.195112e-002
3.112677e+003;7.180611e-002
3.114605e+003;7.173630e-002
3.116533e+003;7.166950e-002
3.118462e+003;7.148611e-002
3.120391e+003;7.148318e-002
3.122319e+003;7.156158e-002
3.124248e+003;7.147045e-002
3.126176e+003;7.121592e-002
3.128105e+003;7.145396e-002
3.130033e+003;7.200802e-002
3.131962e+003;7.186557e-002
3.133890e+003;7.138175e-002
3.135819e+003;7.131696e-002
3.137748e+003;7.162973e-002
3.139676e+003;7.203704e-002
3.141605e+003;7.260787e-002
3.143533e+003;7.298891e-002
3.145462e+003;7.297526e-002
3.147390e+003;7.277963e-002
3.149319e+003;7.306299e-002
3.151247e+003;7.386626e-002
3.153176e+003;7.440469e-002
3.155104e+003;7.457367e-002
3.157033e+003;7.503365e-002
3.158962e+003;7.527339e-002
3.160890e+003;7.547753e-002
3.162819e+003;7.643862e-002
3.164747e+003;7.697546e-002
3.166676e+003;7.717754e-002
3.168604e+003;7.743602e-002
3.170533e+003;7.775874e-002
3.172461e+003;7.857284e-002
3.174390e+003;7.914136e-002
3.176319e+003;7.946613e-002
3.178247e+003;7.996925e-002
3.180176e+003;8.028233e-002
3.182104e+003;8.072902e-002
3.184033e+003;8.097373e-002
3.185961e+003;8.141313e-002
3.187890e+003;8.256615e-002
3.189818e+003;8.340815e-002
3.191747e+003;8.369524e-002
3.193676e+003;8.424982e-002
3.195604e+003;8.507834e-002
3.197532e+003;8.569390e-002
3.199461e+003;8.623157e-002
3.201390e+003;8.682250e-002
3.203318e+003;8.762395e-002
3.205247e+003;8.825467e-002
3.207175e+003;8.849484e-002
3.209104e+003;8.893835e-002
3.211032e+003;8.992819e-002
3.212961e+003;9.087090e-002
3.214889e+003;9.155851e-002
3.216818e+003;9.201989e-002
3.218747e+003;9.236699e-002
3.220675e+003;9.308004e-002
3.222604e+003;9.378733e-002
3.224532e+003;9.463467e-002
3.226461e+003;9.565059e-002
3.228389e+003;9.654280e-002
3.230318e+003;9.707360e-002
3.232246e+003;9.754317e-002
3.234175e+003;9.862140e-002
3.236104e+003;9.968264e-002
3.238032e+003;1.006297e-001
3.239961e+003;1.013041e-001
3.241889e+003;1.019547e-001
3.243818e+003;1.031735e-001
3.245746e+003;1.041294e-001
3.247675e+003;1.052281e-001
3.249603e+003;1.066399e-001
3.251532e+003;1.075943e-001
3.253460e+003;1.085736e-001
3.255389e+003;1.098928e-001
3.257318e+003;1.112508e-001
3.259246e+003;1.121998e-001
3.261175e+003;1.131140e-001
3.263103e+003;1.142088e-001
3.265032e+003;1.153878e-001
3.266960e+003;1.167194e-001
3.268889e+003;1.178500e-001
3.270817e+003;1.191191e-001
3.272746e+003;1.199807e-001
3.274675e+003;1.205812e-001
3.276603e+003;1.214997e-001
3.278531e+003;1.216940e-001
3.280460e+003;1.212222e-001
3.282389e+003;1.213173e-001
3.284317e+003;1.216323e-001
3.286246e+003;1.213577e-001
3.288174e+003;1.208572e-001
3.290103e+003;1.205713e-001
3.292031e+003;1.200228e-001
3.293960e+003;1.189778e-001
3.295888e+003;1.180703e-001
3.297817e+003;1.171883e-001
3.299746e+003;1.157936e-001
3.301674e+003;1.142302e-001
3.303603e+003;1.130320e-001
3.305531e+003;1.120205e-001
3.307460e+003;1.105735e-001
3.309388e+003;1.090376e-001
3.311317e+003;1.077697e-001
3.313245e+003;1.062593e-001
3.315174e+003;1.047480e-001
3.317103e+003;1.036422e-001
3.319031e+003;1.025561e-001
3.320960e+003;1.011542e-001
3.322888e+003;9.969515e-002
3.324817e+003;9.873593e-002
3.326745e+003;9.765741e-002
3.328674e+003;9.637138e-002
3.330602e+003;9.509645e-002
3.332531e+003;9.394933e-002
3.334459e+003;9.297828e-002
3.336388e+003;9.187281e-002
3.338317e+003;9.081976e-002
3.340245e+003;8.985887e-002
3.342174e+003;8.861295e-002
3.344102e+003;8.764893e-002
3.346031e+003;8.679049e-002
3.347959e+003;8.606547e-002
3.349888e+003;8.544566e-002
3.351816e+003;8.505468e-002
3.353745e+003;8.434015e-002
3.355674e+003;8.318787e-002
3.357602e+003;8.248866e-002
3.359531e+003;8.171538e-002
3.361459e+003;8.061076e-002
3.363388e+003;7.994846e-002
3.365316e+003;7.961671e-002
3.367245e+003;7.959793e-002
3.369173e+003;7.935355e-002
3.371102e+003;7.855323e-002
3.373031e+003;7.784185e-002
3.374959e+003;7.745586e-002
3.376887e+003;7.727650e-002
3.378816e+003;7.695189e-002
3.380745e+003;7.632437e-002
3.382673e+003;7.595844e-002
3.384602e+003;7.564435e-002
3.386530e+003;7.478647e-002
3.388459e+003;7.381264e-002
3.390387e+003;7.320701e-002
3.392316e+003;7.319615e-002
3.394244e+003;7.300493e-002
3.396173e+003;7.269149e-002
3.398102e+003;7.253762e-002
3.400030e+003;7.193904e-002
3.401959e+003;7.102530e-002
3.403887e+003;7.032578e-002
3.405816e+003;6.992462e-002
3.407744e+003;6.971644e-002
3.409673e+003;6.924017e-002
3.411601e+003;6.874423e-002
3.413530e+003;6.837187e-002
3.415458e+003;6.797115e-002
3.417387e+003;6.773656e-002
3.419316e+003;6.751870e-002
3.421244e+003;6.686106e-002
3.423173e+003;6.618407e-002
3.425101e+003;6.565657e-002
3.427030e+003;6.539977e-002
3.428958e+003;6.504735e-002
3.430887e+003;6.442249e-002
3.432815e+003;6.403112e-002
3.434744e+003;6.379895e-002
3.436673e+003;6.352284e-002
3.438601e+003;6.318458e-002
3.440530e+003;6.247864e-002
3.442458e+003;6.230481e-002
3.444387e+003;6.227552e-002
3.446315e+003;6.178334e-002
3.448244e+003;6.165692e-002
3.450172e+003;6.205399e-002
3.452101e+003;6.168121e-002
3.454030e+003;6.066908e-002
3.455958e+003;6.034983e-002
3.457886e+003;6.041966e-002
3.459815e+003;6.011262e-002
3.461744e+003;5.996082e-002
3.463672e+003;6.005132e-002
3.465601e+003;5.988729e-002
3.467529e+003;5.942513e-002
3.469458e+003;5.894578e-002
3.471386e+003;5.871920e-002
3.473315e+003;5.865400e-002
3.475243e+003;5.865703e-002
3.477172e+003;5.839254e-002
3.479101e+003;5.824327e-002
3.481029e+003;5.850900e-002
3.482958e+003;5.864357e-002
3.484886e+003;5.855244e-002
3.486815e+003;5.851881e-002
3.488743e+003;5.815886e-002
3.490672e+003;5.764514e-002
3.492600e+003;5.764915e-002
3.494529e+003;5.762301e-002
3.496458e+003;5.736293e-002
3.498386e+003;5.708332e-002
3.500315e+003;5.658858e-002
3.502243e+003;5.619122e-002
3.504172e+003;5.623011e-002
3.506100e+003;5.620439e-002
3.508029e+003;5.597380e-002
3.509957e+003;5.581093e-002
3.511886e+003;5.573494e-002
3.513814e+003;5.536148e-002
3.515743e+003;5.484353e-002
3.517672e+003;5.451686e-002
3.519600e+003;5.431521e-002
3.521529e+003;5.424613e-002
3.523457e+003;5.421640e-002
3.525386e+003;5.396844e-002
3.527314e+003;5.358124e-002
3.529243e+003;5.361516e-002
3.531171e+003;5.376177e-002
3.533100e+003;5.347820e-002
3.535029e+003;5.301218e-002
3.536957e+003;5.224486e-002
3.538885e+003;5.168558e-002
3.540814e+003;5.149624e-002
3.542743e+003;5.162568e-002
3.544671e+003;5.175212e-002
3.546600e+003;5.168050e-002
3.548528e+003;5.120473e-002
3.550457e+003;5.096586e-002
3.552385e+003;5.084807e-002
3.554314e+003;5.049248e-002
3.556242e+003;5.027153e-002
3.558171e+003;5.019289e-002
3.560100e+003;4.994406e-002
3.562028e+003;4.963490e-002
3.563957e+003;4.916507e-002
3.565885e+003;4.860488e-002
3.567814e+003;4.808709e-002
3.569742e+003;4.792000e-002
3.571671e+003;4.749483e-002
3.573599e+003;4.723476e-002
3.575528e+003;4.701395e-002
3.577457e+003;4.675191e-002
3.579385e+003;4.630079e-002
3.581314e+003;4.578657e-002
3.583242e+003;4.574656e-002
3.585171e+003;4.573327e-002
3.587099e+003;4.561467e-002
3.589028e+003;4.517538e-002
3.590956e+003;4.487312e-002
3.592885e+003;4.475370e-002
3.594813e+003;4.426204e-002
3.596742e+003;4.383222e-002
3.598671e+003;4.360503e-002
3.600599e+003;4.343040e-002
3.602528e+003;4.293516e-002
3.604456e+003;4.225758e-002
3.606385e+003;4.212482e-002
3.608313e+003;4.216231e-002
3.610242e+003;4.197059e-002
3.612170e+003;4.181132e-002
3.614099e+003;4.114329e-002
3.616028e+003;4.009060e-002
3.617956e+003;3.917370e-002
3.619885e+003;3.871845e-002
3.621813e+003;3.860281e-002
3.623742e+003;3.826256e-002
3.625670e+003;3.784797e-002
3.627599e+003;3.750517e-002
3.629527e+003;3.678538e-002
3.631456e+003;3.619568e-002
3.633385e+003;3.609075e-002
3.635313e+003;3.555953e-002
3.637241e+003;3.471544e-002
3.639170e+003;3.410887e-002
3.641099e+003;3.360405e-002
3.643027e+003;3.318669e-002
3.644956e+003;3.283969e-002
3.646884e+003;3.253949e-002
3.648813e+003;3.219501e-002
3.650741e+003;3.165556e-002
3.652670e+003;3.116231e-002
3.654598e+003;3.070236e-002
3.656527e+003;3.016068e-002
3.658456e+003;2.962229e-002
3.660384e+003;2.873927e-002
3.662313e+003;2.813264e-002
3.664241e+003;2.775250e-002
3.666170e+003;2.720418e-002
3.668098e+003;2.656552e-002
3.670027e+003;2.626600e-002
3.671955e+003;2.589037e-002
3.673884e+003;2.575580e-002
3.675813e+003;2.571379e-002
3.677741e+003;2.533372e-002
3.679669e+003;2.458169e-002
3.681598e+003;2.378070e-002
3.683527e+003;2.357349e-002
3.685455e+003;2.377916e-002
3.687384e+003;2.376933e-002
3.689312e+003;2.323768e-002
3.691241e+003;2.288914e-002
3.693169e+003;2.249133e-002
3.695098e+003;2.178284e-002
3.697026e+003;2.141138e-002
3.698955e+003;2.183500e-002
3.700884e+003;2.175807e-002
3.702812e+003;2.153389e-002
3.704741e+003;2.160423e-002
3.706669e+003;2.192559e-002
3.708598e+003;2.175755e-002
3.710526e+003;2.136216e-002
3.712455e+003;2.084809e-002
3.714383e+003;2.063629e-002
3.716312e+003;2.103811e-002
3.718240e+003;2.090350e-002
3.720169e+003;2.044491e-002
3.722098e+003;2.002491e-002
3.724026e+003;1.973420e-002
3.725955e+003;1.986169e-002
3.727883e+003;1.978726e-002
3.729812e+003;1.950493e-002
3.731740e+003;1.956503e-002
3.733669e+003;1.967907e-002
3.735597e+003;2.013561e-002
3.737526e+003;2.024224e-002
3.739455e+003;1.987452e-002
3.741383e+003;1.954925e-002
3.743312e+003;1.933303e-002
3.745240e+003;1.957255e-002
3.747169e+003;1.991340e-002
3.749097e+003;1.965883e-002
3.751026e+003;1.943465e-002
3.752954e+003;1.950347e-002
3.754883e+003;1.969100e-002
3.756812e+003;1.957733e-002
3.758740e+003;1.977432e-002
3.760668e+003;1.984434e-002
3.762597e+003;1.935001e-002
3.764526e+003;1.914718e-002
3.766454e+003;1.906443e-002
3.768383e+003;1.904660e-002
3.770311e+003;1.901389e-002
3.772240e+003;1.916720e-002
3.774168e+003;1.923944e-002
3.776097e+003;1.935777e-002
3.778025e+003;1.928055e-002
3.779954e+003;1.909085e-002
3.781883e+003;1.913800e-002
3.783811e+003;1.937118e-002
3.785740e+003;1.931079e-002
3.787668e+003;1.942297e-002
3.789597e+003;1.949664e-002
3.791525e+003;1.954388e-002
3.793454e+003;1.959920e-002
3.795382e+003;1.926663e-002
3.797311e+003;1.882270e-002
3.799240e+003;1.892555e-002
3.801168e+003;1.924810e-002
3.803097e+003;1.918500e-002
3.805025e+003;1.892092e-002
3.806954e+003;1.893164e-002
3.808882e+003;1.891500e-002
3.810811e+003;1.852540e-002
3.812739e+003;1.864354e-002
3.814668e+003;1.913046e-002
3.816596e+003;1.907506e-002
3.818525e+003;1.929191e-002
3.820454e+003;1.955771e-002
3.822382e+003;1.953418e-002
3.824311e+003;1.935344e-002
3.826239e+003;1.920917e-002
3.828168e+003;1.925883e-002
3.830096e+003;1.927158e-002
3.832025e+003;1.894435e-002
3.833953e+003;1.920626e-002
3.835882e+003;1.934505e-002
3.837811e+003;1.891282e-002
3.839739e+003;1.889582e-002
3.841667e+003;1.914524e-002
3.843596e+003;1.932725e-002
3.845525e+003;1.947062e-002
3.847453e+003;1.925703e-002
3.849382e+003;1.920193e-002
3.851310e+003;1.978160e-002
3.853239e+003;2.010208e-002
3.855167e+003;2.011940e-002
3.857096e+003;1.992846e-002
3.859024e+003;1.983089e-002
3.860953e+003;1.945007e-002
3.862882e+003;1.925340e-002
3.864810e+003;1.962596e-002
3.866739e+003;1.984396e-002
3.868667e+003;1.977845e-002
3.870596e+003;1.961913e-002
3.872524e+003;1.989311e-002
3.874453e+003;2.004170e-002
3.876381e+003;1.998501e-002
3.878310e+003;2.003403e-002
3.880239e+003;2.001415e-002
3.882167e+003;1.997283e-002
3.884096e+003;2.000787e-002
3.886024e+003;2.025578e-002
3.887953e+003;2.043054e-002
3.889881e+003;2.037921e-002
3.891810e+003;2.043439e-002
3.893738e+003;2.058959e-002
3.895667e+003;2.091564e-002
3.897595e+003;2.131156e-002
3.899524e+003;2.130390e-002
3.901453e+003;2.116754e-002
3.903381e+003;2.113950e-002
3.905310e+003;2.090806e-002
3.907238e+003;2.092005e-002
3.909167e+003;2.093490e-002
3.911095e+003;2.087107e-002
3.913024e+003;2.091512e-002
3.914952e+003;2.154346e-002
3.916881e+003;2.175316e-002
3.918810e+003;2.138437e-002
3.920738e+003;2.145513e-002
3.922667e+003;2.156380e-002
3.924595e+003;2.163278e-002
3.926524e+003;2.171947e-002
3.928452e+003;2.172762e-002
3.930381e+003;2.203444e-002
3.932309e+003;2.223950e-002
3.934238e+003;2.200161e-002
3.936167e+003;2.198812e-002
3.938095e+003;2.246635e-002
3.940023e+003;2.288188e-002
3.941952e+003;2.309981e-002
3.943881e+003;2.294681e-002
3.945809e+003;2.262193e-002
3.947738e+003;2.248889e-002
3.949666e+003;2.245700e-002
3.951595e+003;2.241202e-002
3.953523e+003;2.249869e-002
3.955452e+003;2.245567e-002
3.957380e+003;2.252445e-002
3.959309e+003;2.233353e-002
3.961238e+003;2.238059e-002
3.963166e+003;2.303464e-002
3.965095e+003;2.343687e-002
3.967023e+003;2.310683e-002
3.968952e+003;2.269154e-002
3.970880e+003;2.274136e-002
3.972809e+003;2.272254e-002
3.974737e+003;2.283979e-002
3.976666e+003;2.302266e-002
3.978594e+003;2.305456e-002
3.980523e+003;2.290919e-002
3.982452e+003;2.272861e-002
3.984380e+003;2.285114e-002
3.986309e+003;2.301022e-002
3.988237e+003;2.317613e-002
3.990166e+003;2.308852e-002
3.992094e+003;2.272760e-002
3.994023e+003;2.274415e-002
3.995951e+003;2.276646e-002
3.997880e+003;2.271601e-002
3.999809e+003;2.294423e-002
4.001737e+003;0.000000e+000
