3.992094e+002;0.000000e+000
4.011380e+002;0.000000e+000
4.030665e+002;0.000000e+000
4.049951e+002;0.000000e+000
4.069236e+002;0.000000e+000
4.088522e+002;0.000000e+000
4.107807e+002;0.000000e+000
4.127093e+002;0.000000e+000
4.146378e+002;0.000000e+000
4.165664e+002;0.000000e+000
4.184949e+002;0.000000e+000
4.204235e+002;0.000000e+000
4.223520e+002;0.000000e+000
4.242806e+002;0.000000e+000
4.262091e+002;0.000000e+000
4.281377e+002;0.000000e+000
4.300662e+002;0.000000e+000
4.319948e+002;0.000000e+000
4.339233e+002;0.000000e+000
4.358519e+002;0.000000e+000
4.377804e+002;0.000000e+000
4.397090e+002;0.000000e+000
4.416375e+002;0.000000e+000
4.435660e+002;0.000000e+000
4.454946e+002;0.000000e+000
4.474232e+002;0.000000e+000
4.493517e+002;0.000000e+000
4.512802e+002;0.000000e+000
4.532088e+002;0.000000e+000
4.551373e+002;0.000000e+000
4.570659e+002;0.000000e+000
4.589944e+002;0.000000e+000
4.609230e+002;0.000000e+000
4.628515e+002;0.000000e+000
4.647801e+002;0.000000e+000
4.667086e+002;0.000000e+000
4.686372e+002;0.000000e+000
4.705657e+002;0.000000e+000
4.724943e+002;0.000000e+000
4.744228e+002;0.000000e+000
4.763513e+002;0.000000e+000
4.782799e+002;0.000000e+000
4.802085e+002;0.000000e+000
4.821370e+002;0.000000e+000
4.840656e+002;0.000000e+000
4.859941e+002;0.000000e+000
4.879226e+002;0.000000e+000
4.898512e+002;0.000000e+000
4.917798e+002;0.000000e+000
4.937083e+002;0.000000e+000
4.956368e+002;0.000000e+000
4.975654e+002;0.000000e+000
4.994939e+002;0.000000e+000
5.014225e+002;0.000000e+000
5.033510e+002;0.000000e+000
5.052796e+002;0.000000e+000
5.072081e+002;0.000000e+000
5.091367e+002;0.000000e+000
5.110652e+002;0.000000e+000
5.129938e+002;0.000000e+000
5.149223e+002;0.000000e+000
5.168509e+002;0.000000e+000
5.187794e+002;0.000000e+000
5.207079e+002;0.000000e+000
5.226365e+002;0.000000e+000
5.245651e+002;0.000000e+000
5.264936e+002;0.000000e+000
5.284222e+002;0.000000e+000
5.303507e+002;0.000000e+000
5.322792e+002;0.000000e+000
5.342078e+002;0.000000e+000
5.361364e+002;0.000000e+000
5.380649e+002;0.000000e+000
5.399935e+002;0.000000e+000
5.419220e+002;0.000000e+000
5.438505e+002;0.000000e+000
5.457791e+002;0.000000e+000
5.477076e+002;0.000000e+000
5.496362e+002;0.000000e+000
5.515648e+002;0.000000e+000
5.534933e+002;0.000000e+000
5.554218e+002;0.000000e+000
5.573504e+002;0.000000e+000
5.592789e+002;0.000000e+000
5.612075e+002;0.000000e+000
5.631360e+002;0.000000e+000
5.650646e+002;0.000000e+000
5.669931e+002;0.000000e+000
5.689217e+002;0.000000e+000
5.708502e+002;0.000000e+000
5.727787e+002;0.000000e+000
5.747073e+002;0.000000e+000
5.766359e+002;0.000000e+000
5.785644e+002;0.000000e+000
5.804930e+002;0.000000e+000
5.824215e+002;0.000000e+000
5.843500e+002;0.000000e+000
5.862786e+002;0.000000e+000
5.882072e+002;0.000000e+000
5.901357e+002;0.000000e+000
5.920643e+002;0.000000e+000
5.939928e+002;0.000000e+000
5.959213e+002;0.000000e+000
5.978499e+002;0.000000e+000
5.997784e+002;2.755233e-001
6.017070e+002;2.806377e-001
6.036355e+002;2.893193e-001
6.055641e+002;2.894165e-001
6.074926e+002;2.858381e-001
6.094211e+002;2.814773e-001
6.113497e+002;2.847030e-001
6.132783e+002;2.861799e-001
6.152068e+002;2.834651e-001
6.171354e+002;2.820111e-001
6.190639e+002;2.804504e-001
6.209924e+002;2.809671e-001
6.229210e+002;2.789073e-001
6.248495e+002;2.754300e-001
6.267781e+002;2.724490e-001
6.287067e+002;2.736154e-001
6.306352e+002;2.752987e-001
6.325637e+002;2.706425e-001
6.344923e+002;2.659476e-001
6.364208e+002;2.662185e-001
6.383494e+002;2.674522e-001
6.402780e+002;2.651092e-001
6.422065e+002;2.619922e-001
6.441350e+002;2.596877e-001
6.460636e+002;2.593244e-001
6.479921e+002;2.588165e-001
6.499207e+002;2.562132e-001
6.518492e+002;2.538088e-001
6.537778e+002;2.536845e-001
6.557063e+002;2.548029e-001
6.576349e+002;2.566862e-001
6.595634e+002;2.599716e-001
6.614919e+002;2.594312e-001
6.634205e+002;2.570828e-001
6.653491e+002;2.543029e-001
6.672776e+002;2.526455e-001
6.692062e+002;2.524899e-001
6.711347e+002;2.536540e-001
6.730632e+002;2.551287e-001
6.749918e+002;2.553535e-001
6.769203e+002;2.550314e-001
6.788489e+002;2.554421e-001
6.807775e+002;2.542396e-001
6.827060e+002;2.539002e-001
6.846345e+002;2.541393e-001
6.865631e+002;2.544599e-001
6.884916e+002;2.541700e-001
6.904202e+002;2.522663e-001
6.923488e+002;2.497732e-001
6.942773e+002;2.487712e-001
6.962058e+002;2.478937e-001
6.981344e+002;2.462332e-001
7.000629e+002;2.440807e-001
7.019915e+002;2.418013e-001
7.039200e+002;2.391876e-001
7.058486e+002;2.354595e-001
7.077771e+002;2.319158e-001
7.097057e+002;2.291068e-001
7.116342e+002;2.265760e-001
7.135627e+002;2.249629e-001
7.154913e+002;2.225299e-001
7.174199e+002;2.198086e-001
7.193484e+002;2.179073e-001
7.212770e+002;2.154713e-001
7.232055e+002;2.121438e-001
7.251340e+002;2.091613e-001
7.270626e+002;2.073468e-001
7.289911e+002;2.046906e-001
7.309197e+002;2.009362e-001
7.328483e+002;1.970966e-001
7.347768e+002;1.939300e-001
7.367053e+002;1.908106e-001
7.386339e+002;1.871990e-001
7.405624e+002;1.835976e-001
7.424910e+002;1.807622e-001
7.444196e+002;1.788949e-001
7.463481e+002;1.773334e-001
7.482766e+002;1.745118e-001
7.502052e+002;1.715527e-001
7.521337e+002;1.687436e-001
7.540623e+002;1.666835e-001
7.559908e+002;1.652661e-001
7.579194e+002;1.637512e-001
7.598479e+002;1.614902e-001
7.617765e+002;1.598673e-001
7.637050e+002;1.589797e-001
7.656335e+002;1.570524e-001
7.675621e+002;1.552802e-001
7.694907e+002;1.547328e-001
7.714192e+002;1.535233e-001
7.733478e+002;1.516291e-001
7.752763e+002;1.501160e-001
7.772048e+002;1.494391e-001
7.791334e+002;1.483879e-001
7.810620e+002;1.464981e-001
7.829905e+002;1.447245e-001
7.849191e+002;1.435768e-001
7.868476e+002;1.418454e-001
7.887761e+002;1.403228e-001
7.907047e+002;1.391450e-001
7.926332e+002;1.373251e-001
7.945618e+002;1.363573e-001
7.964903e+002;1.360963e-001
7.984189e+002;1.353374e-001
8.003474e+002;1.344615e-001
8.022759e+002;1.342902e-001
8.042045e+002;1.343849e-001
8.061331e+002;1.342406e-001
8.080616e+002;1.342647e-001
8.099902e+002;1.341652e-001
8.119187e+002;1.341671e-001
8.138472e+002;1.340335e-001
8.157758e+002;1.335484e-001
8.177043e+002;1.333878e-001
8.196329e+002;1.331198e-001
8.215615e+002;1.335208e-001
8.234900e+002;1.344123e-001
8.254185e+002;1.341694e-001
8.273471e+002;1.340471e-001
8.292756e+002;1.341014e-001
8.312042e+002;1.333691e-001
8.331328e+002;1.325239e-001
8.350613e+002;1.313843e-001
8.369898e+002;1.296986e-001
8.389184e+002;1.286824e-001
8.408469e+002;1.276184e-001
8.427755e+002;1.270465e-001
8.447040e+002;1.274070e-001
8.466326e+002;1.280760e-001
8.485611e+002;1.286758e-001
8.504897e+002;1.286271e-001
8.524182e+002;1.283278e-001
8.543467e+002;1.277197e-001
8.562753e+002;1.260906e-001
8.582039e+002;1.240196e-001
8.601324e+002;1.219838e-001
8.620610e+002;1.208930e-001
8.639895e+002;1.206834e-001
8.659180e+002;1.198186e-001
8.678466e+002;1.197635e-001
8.697751e+002;1.204436e-001
8.717037e+002;1.208052e-001
8.736323e+002;1.211281e-001
8.755608e+002;1.212196e-001
8.774893e+002;1.214510e-001
8.794179e+002;1.215544e-001
8.813464e+002;1.216944e-001
8.832750e+002;1.216161e-001
8.852036e+002;1.213594e-001
8.871321e+002;1.216801e-001
8.890606e+002;1.222574e-001
8.909892e+002;1.223543e-001
8.929177e+002;1.225225e-001
8.948463e+002;1.223282e-001
8.967748e+002;1.220905e-001
8.987034e+002;1.223982e-001
9.006319e+002;1.228286e-001
9.025605e+002;1.232215e-001
9.044890e+002;1.235398e-001
9.064175e+002;1.240194e-001
9.083461e+002;1.243532e-001
9.102747e+002;1.249397e-001
9.122032e+002;1.258548e-001
9.141318e+002;1.266027e-001
9.160603e+002;1.278785e-001
9.179888e+002;1.292756e-001
9.199174e+002;1.303845e-001
9.218459e+002;1.315515e-001
9.237745e+002;1.327815e-001
9.257031e+002;1.337737e-001
9.276316e+002;1.344514e-001
9.295601e+002;1.347745e-001
9.314887e+002;1.349393e-001
9.334172e+002;1.352107e-001
9.353458e+002;1.354583e-001
9.372744e+002;1.357305e-001
9.392029e+002;1.360851e-001
9.411314e+002;1.364139e-001
9.430600e+002;1.369653e-001
9.449885e+002;1.375724e-001
9.469171e+002;1.382696e-001
9.488456e+002;1.393275e-001
9.507742e+002;1.408195e-001
9.527027e+002;1.420186e-001
9.546313e+002;1.430322e-001
9.565598e+002;1.442688e-001
9.584883e+002;1.459973e-001
9.604169e+002;1.477260e-001
9.623455e+002;1.495725e-001
9.642740e+002;1.516373e-001
9.662026e+002;1.537015e-001
9.681311e+002;1.560825e-001
9.700596e+002;1.585639e-001
9.719882e+002;1.610780e-001
9.739167e+002;1.629253e-001
9.758453e+002;1.644370e-001
9.777739e+002;1.652674e-001
9.797024e+002;1.655128e-001
9.816309e+002;1.659149e-001
9.835595e+002;1.666182e-001
9.854880e+002;1.682298e-001
9.874166e+002;1.710640e-001
9.893452e+002;1.746011e-001
9.912737e+002;1.781291e-001
9.932022e+002;1.811590e-001
9.951307e+002;1.843784e-001
9.970593e+002;1.869669e-001
9.989879e+002;1.883222e-001
1.000916e+003;1.894750e-001
1.002845e+003;1.906675e-001
1.004773e+003;1.918128e-001
1.006702e+003;1.927961e-001
1.008631e+003;1.941724e-001
1.010559e+003;1.958922e-001
1.012488e+003;1.967493e-001
1.014416e+003;1.972966e-001
1.016345e+003;1.978566e-001
1.018273e+003;1.980404e-001
1.020202e+003;1.985466e-001
1.022130e+003;1.997010e-001
1.024059e+003;2.008880e-001
1.025988e+003;2.027638e-001
1.027916e+003;2.052743e-001
1.029845e+003;2.073006e-001
1.031773e+003;2.090282e-001
1.033702e+003;2.110677e-001
1.035630e+003;2.123385e-001
1.037559e+003;2.128894e-001
1.039487e+003;2.139184e-001
1.041416e+003;2.146646e-001
1.043344e+003;2.143574e-001
1.045273e+003;2.141261e-001
1.047202e+003;2.139978e-001
1.049130e+003;2.137666e-001
1.051059e+003;2.138992e-001
1.052987e+003;2.141286e-001
1.054916e+003;2.141625e-001
1.056844e+003;2.143561e-001
1.058773e+003;2.149031e-001
1.060701e+003;2.151214e-001
1.062630e+003;2.145397e-001
1.064558e+003;2.139527e-001
1.066487e+003;2.132206e-001
1.068416e+003;2.116729e-001
1.070344e+003;2.095238e-001
1.072273e+003;2.076542e-001
1.074201e+003;2.056819e-001
1.076130e+003;2.025671e-001
1.078058e+003;1.990158e-001
1.079987e+003;1.955350e-001
1.081915e+003;1.924704e-001
1.083844e+003;1.897772e-001
1.085773e+003;1.864923e-001
1.087701e+003;1.834162e-001
1.089630e+003;1.809196e-001
1.091558e+003;1.789610e-001
1.093487e+003;1.776594e-001
1.095415e+003;1.770477e-001
1.097344e+003;1.769798e-001
1.099272e+003;1.771542e-001
1.101201e+003;1.766115e-001
1.103129e+003;1.753722e-001
1.105058e+003;1.742623e-001
1.106987e+003;1.731177e-001
1.108915e+003;1.718026e-001
1.110844e+003;1.704204e-001
1.112772e+003;1.692232e-001
1.114701e+003;1.680097e-001
1.116629e+003;1.666480e-001
1.118558e+003;1.653404e-001
1.120486e+003;1.646128e-001
1.122415e+003;1.645118e-001
1.124344e+003;1.640409e-001
1.126272e+003;1.632024e-001
1.128201e+003;1.624806e-001
1.130129e+003;1.621633e-001
1.132058e+003;1.622782e-001
1.133986e+003;1.625469e-001
1.135915e+003;1.629991e-001
1.137843e+003;1.637247e-001
1.139772e+003;1.648706e-001
1.141700e+003;1.661449e-001
1.143629e+003;1.677969e-001
1.145557e+003;1.696261e-001
1.147486e+003;1.710446e-001
1.149415e+003;1.728307e-001
1.151343e+003;1.746163e-001
1.153272e+003;1.760312e-001
1.155200e+003;1.771377e-001
1.157129e+003;1.778936e-001
1.159057e+003;1.784601e-001
1.160986e+003;1.791314e-001
1.162914e+003;1.797748e-001
1.164843e+003;1.799867e-001
1.166771e+003;1.794539e-001
1.168700e+003;1.791084e-001
1.170629e+003;1.787295e-001
1.172557e+003;1.774668e-001
1.174486e+003;1.757115e-001
1.176414e+003;1.735220e-001
1.178343e+003;1.711459e-001
1.180271e+003;1.694905e-001
1.182200e+003;1.684632e-001
1.184128e+003;1.679569e-001
1.186057e+003;1.684844e-001
1.187986e+003;1.695881e-001
1.189914e+003;1.706100e-001
1.191843e+003;1.719456e-001
1.193771e+003;1.740586e-001
1.195700e+003;1.767122e-001
1.197628e+003;1.796432e-001
1.199557e+003;1.828455e-001
1.201485e+003;1.867495e-001
1.203414e+003;1.909424e-001
1.205343e+003;1.950194e-001
1.207271e+003;1.988766e-001
1.209200e+003;2.026957e-001
1.211128e+003;2.068630e-001
1.213057e+003;2.107243e-001
1.214985e+003;2.141447e-001
1.216914e+003;2.174263e-001
1.218842e+003;2.203336e-001
1.220771e+003;2.229719e-001
1.222699e+003;2.251668e-001
1.224628e+003;2.264384e-001
1.226557e+003;2.273590e-001
1.228485e+003;2.277166e-001
1.230414e+003;2.270548e-001
1.232342e+003;2.257529e-001
1.234271e+003;2.237857e-001
1.236199e+003;2.212679e-001
1.238128e+003;2.189548e-001
1.240056e+003;2.165751e-001
1.241985e+003;2.139387e-001
1.243913e+003;2.119253e-001
1.245842e+003;2.100687e-001
1.247771e+003;2.083017e-001
1.249699e+003;2.068191e-001
1.251628e+003;2.057514e-001
1.253556e+003;2.046822e-001
1.255485e+003;2.037515e-001
1.257413e+003;2.029046e-001
1.259342e+003;2.015895e-001
1.261270e+003;1.997153e-001
1.263199e+003;1.975324e-001
1.265127e+003;1.951344e-001
1.267056e+003;1.919459e-001
1.268985e+003;1.887162e-001
1.270913e+003;1.857600e-001
1.272842e+003;1.828700e-001
1.274770e+003;1.799445e-001
1.276699e+003;1.770281e-001
1.278627e+003;1.748768e-001
1.280556e+003;1.732618e-001
1.282484e+003;1.716627e-001
1.284413e+003;1.704515e-001
1.286342e+003;1.697198e-001
1.288270e+003;1.689807e-001
1.290199e+003;1.684231e-001
1.292127e+003;1.679356e-001
1.294056e+003;1.675377e-001
1.295984e+003;1.674232e-001
1.297913e+003;1.676941e-001
1.299841e+003;1.680101e-001
1.301770e+003;1.680149e-001
1.303698e+003;1.679764e-001
1.305627e+003;1.680452e-001
1.307556e+003;1.681552e-001
1.309484e+003;1.680737e-001
1.311413e+003;1.678183e-001
1.313341e+003;1.677543e-001
1.315270e+003;1.679319e-001
1.317198e+003;1.677721e-001
1.319127e+003;1.677040e-001
1.321055e+003;1.684138e-001
1.322984e+003;1.691860e-001
1.324912e+003;1.695713e-001
1.326841e+003;1.701569e-001
1.328770e+003;1.709450e-001
1.330698e+003;1.713613e-001
1.332627e+003;1.715036e-001
1.334555e+003;1.715629e-001
1.336484e+003;1.713484e-001
1.338412e+003;1.712669e-001
1.340341e+003;1.713944e-001
1.342269e+003;1.713106e-001
1.344198e+003;1.712147e-001
1.346126e+003;1.712840e-001
1.348055e+003;1.711642e-001
1.349984e+003;1.712757e-001
1.351912e+003;1.718776e-001
1.353841e+003;1.726994e-001
1.355769e+003;1.738676e-001
1.357698e+003;1.758167e-001
1.359626e+003;1.783391e-001
1.361555e+003;1.813574e-001
1.363483e+003;1.845886e-001
1.365412e+003;1.877454e-001
1.367341e+003;1.901487e-001
1.369269e+003;1.911102e-001
1.371198e+003;1.909520e-001
1.373126e+003;1.908308e-001
1.375055e+003;1.908906e-001
1.376983e+003;1.910498e-001
1.378912e+003;1.909488e-001
1.380840e+003;1.907238e-001
1.382769e+003;1.907827e-001
1.384698e+003;1.910676e-001
1.386626e+003;1.915814e-001
1.388555e+003;1.918821e-001
1.390483e+003;1.922671e-001
1.392412e+003;1.928511e-001
1.394340e+003;1.933880e-001
1.396269e+003;1.941847e-001
1.398197e+003;1.953237e-001
1.400126e+003;1.965404e-001
1.402054e+003;1.979098e-001
1.403983e+003;1.994783e-001
1.405911e+003;2.007253e-001
1.407840e+003;2.016003e-001
1.409769e+003;2.022676e-001
1.411697e+003;2.025974e-001
1.413626e+003;2.026691e-001
1.415554e+003;2.027905e-001
1.417483e+003;2.031408e-001
1.419411e+003;2.034363e-001
1.421340e+003;2.040336e-001
1.423268e+003;2.056502e-001
1.425197e+003;2.081458e-001
1.427125e+003;2.114513e-001
1.429054e+003;2.157874e-001
1.430983e+003;2.208486e-001
1.432911e+003;2.263864e-001
1.434840e+003;2.318824e-001
1.436768e+003;2.365876e-001
1.438697e+003;2.400550e-001
1.440625e+003;2.419867e-001
1.442554e+003;2.429453e-001
1.444482e+003;2.432744e-001
1.446411e+003;2.424697e-001
1.448340e+003;2.399751e-001
1.450268e+003;2.361407e-001
1.452197e+003;2.314076e-001
1.454125e+003;2.263293e-001
1.456054e+003;2.213686e-001
1.457982e+003;2.170572e-001
1.459911e+003;2.141156e-001
1.461839e+003;2.123346e-001
1.463768e+003;2.108427e-001
1.465697e+003;2.097106e-001
1.467625e+003;2.095838e-001
1.469554e+003;2.102994e-001
1.471482e+003;2.110875e-001
1.473411e+003;2.119846e-001
1.475339e+003;2.135985e-001
1.477268e+003;2.160511e-001
1.479196e+003;2.196379e-001
1.481125e+003;2.242419e-001
1.483053e+003;2.298433e-001
1.484982e+003;2.363567e-001
1.486911e+003;2.436261e-001
1.488839e+003;2.517383e-001
1.490768e+003;2.605041e-001
1.492696e+003;2.693079e-001
1.494625e+003;2.780320e-001
1.496553e+003;2.865171e-001
1.498482e+003;2.949103e-001
1.500410e+003;3.029790e-001
1.502339e+003;3.104531e-001
1.504267e+003;3.175247e-001
1.506196e+003;3.240063e-001
1.508125e+003;3.300929e-001
1.510053e+003;3.352244e-001
1.511982e+003;3.390326e-001
1.513910e+003;3.406606e-001
1.515839e+003;3.386155e-001
1.517767e+003;3.336567e-001
1.519696e+003;3.273407e-001
1.521624e+003;3.205395e-001
1.523553e+003;3.150108e-001
1.525481e+003;3.102880e-001
1.527410e+003;3.053427e-001
1.529339e+003;3.006046e-001
1.531267e+003;2.963327e-001
1.533196e+003;2.918430e-001
1.535124e+003;2.871028e-001
1.537053e+003;2.823786e-001
1.538981e+003;2.771658e-001
1.540910e+003;2.719282e-001
1.542838e+003;2.674847e-001
1.544767e+003;2.631211e-001
1.546695e+003;2.581862e-001
1.548624e+003;2.532735e-001
1.550553e+003;2.487721e-001
1.552481e+003;2.439861e-001
1.554410e+003;2.386341e-001
1.556338e+003;2.333104e-001
1.558267e+003;2.283346e-001
1.560195e+003;2.233576e-001
1.562124e+003;2.185097e-001
1.564052e+003;2.136227e-001
1.565981e+003;2.089578e-001
1.567910e+003;2.046801e-001
1.569838e+003;2.006134e-001
1.571767e+003;1.972425e-001
1.573695e+003;1.945659e-001
1.575624e+003;1.924720e-001
1.577552e+003;1.912490e-001
1.579481e+003;1.911562e-001
1.581409e+003;1.914739e-001
1.583338e+003;1.923320e-001
1.585266e+003;1.940247e-001
1.587195e+003;1.970558e-001
1.589124e+003;2.012479e-001
1.591052e+003;2.059735e-001
1.592981e+003;2.113620e-001
1.594909e+003;2.176335e-001
1.596838e+003;2.248117e-001
1.598766e+003;2.327748e-001
1.600695e+003;2.420518e-001
1.602623e+003;2.531643e-001
1.604552e+003;2.653380e-001
1.606480e+003;2.787378e-001
1.608409e+003;2.934162e-001
1.610338e+003;3.081079e-001
1.612266e+003;3.221199e-001
1.614195e+003;3.352776e-001
1.616123e+003;3.470067e-001
1.618052e+003;3.566453e-001
1.619980e+003;3.633546e-001
1.621909e+003;3.666376e-001
1.623837e+003;3.661695e-001
1.625766e+003;3.626080e-001
1.627694e+003;3.569590e-001
1.629623e+003;3.498119e-001
1.631552e+003;3.416259e-001
1.633480e+003;3.329760e-001
1.635409e+003;3.244337e-001
1.637337e+003;3.159510e-001
1.639266e+003;3.081125e-001
1.641194e+003;3.010461e-001
1.643123e+003;2.942775e-001
1.645051e+003;2.874851e-001
1.646980e+003;2.808192e-001
1.648909e+003;2.744511e-001
1.650837e+003;2.680893e-001
1.652766e+003;2.611268e-001
1.654694e+003;2.546165e-001
1.656623e+003;2.481912e-001
1.658551e+003;2.412408e-001
1.660480e+003;2.343375e-001
1.662408e+003;2.278126e-001
1.664337e+003;2.213757e-001
1.666266e+003;2.148861e-001
1.668194e+003;2.087411e-001
1.670123e+003;2.031333e-001
1.672051e+003;1.979878e-001
1.673980e+003;1.929583e-001
1.675908e+003;1.879605e-001
1.677837e+003;1.829213e-001
1.679765e+003;1.778582e-001
1.681694e+003;1.732816e-001
1.683622e+003;1.688684e-001
1.685551e+003;1.645156e-001
1.687479e+003;1.608815e-001
1.689408e+003;1.577213e-001
1.691337e+003;1.552576e-001
1.693265e+003;1.534397e-001
1.695194e+003;1.513088e-001
1.697122e+003;1.489464e-001
1.699051e+003;1.454879e-001
1.700979e+003;1.392513e-001
1.702908e+003;1.306517e-001
1.704836e+003;1.208340e-001
1.706765e+003;1.109671e-001
1.708693e+003;1.023031e-001
1.710622e+003;9.552478e-002
1.712551e+003;9.044354e-002
1.714479e+003;8.649100e-002
1.716408e+003;8.308624e-002
1.718336e+003;8.058774e-002
1.720265e+003;7.901542e-002
1.722193e+003;7.753405e-002
1.724122e+003;7.610094e-002
1.726050e+003;7.525118e-002
1.727979e+003;7.465868e-002
1.729908e+003;7.410686e-002
1.731836e+003;7.356867e-002
1.733765e+003;7.299326e-002
1.735693e+003;7.270446e-002
1.737622e+003;7.240055e-002
1.739550e+003;7.176522e-002
1.741479e+003;7.117013e-002
1.743407e+003;7.018194e-002
1.745336e+003;6.921957e-002
1.747265e+003;6.835701e-002
1.749193e+003;6.752721e-002
1.751122e+003;6.707542e-002
1.753050e+003;6.677333e-002
1.754979e+003;6.613445e-002
1.756907e+003;6.542827e-002
1.758836e+003;6.498046e-002
1.760764e+003;6.442729e-002
1.762693e+003;6.411844e-002
1.764621e+003;6.403350e-002
1.766550e+003;6.382835e-002
1.768479e+003;6.367206e-002
1.770407e+003;6.366469e-002
1.772336e+003;6.342125e-002
1.774264e+003;6.324629e-002
1.776193e+003;6.337624e-002
1.778121e+003;6.334905e-002
1.780050e+003;6.311415e-002
1.781978e+003;6.284966e-002
1.783907e+003;6.284621e-002
1.785835e+003;6.287768e-002
1.787764e+003;6.262948e-002
1.789693e+003;6.222183e-002
1.791621e+003;6.188489e-002
1.793550e+003;6.177937e-002
1.795478e+003;6.188680e-002
1.797407e+003;6.203190e-002
1.799335e+003;6.206936e-002
1.801264e+003;6.175534e-002
1.803192e+003;6.156444e-002
1.805121e+003;6.161205e-002
1.807049e+003;6.165769e-002
1.808978e+003;6.154088e-002
1.810907e+003;6.128440e-002
1.812835e+003;6.112036e-002
1.814764e+003;6.108409e-002
1.816692e+003;6.094026e-002
1.818621e+003;6.083310e-002
1.820549e+003;6.075009e-002
1.822478e+003;6.066611e-002
1.824406e+003;6.050516e-002
1.826335e+003;6.029535e-002
1.828264e+003;5.994800e-002
1.830192e+003;6.000707e-002
1.832121e+003;6.011601e-002
1.834049e+003;6.000571e-002
1.835978e+003;5.996625e-002
1.837906e+003;5.988775e-002
1.839835e+003;5.962567e-002
1.841763e+003;5.952856e-002
1.843692e+003;5.956459e-002
1.845620e+003;5.952647e-002
1.847549e+003;5.945355e-002
1.849478e+003;5.943026e-002
1.851406e+003;5.943839e-002
1.853335e+003;5.935439e-002
1.855263e+003;5.932055e-002
1.857192e+003;5.928284e-002
1.859120e+003;5.930452e-002
1.861049e+003;5.930456e-002
1.862977e+003;5.932488e-002
1.864906e+003;5.925241e-002
1.866834e+003;5.916154e-002
1.868763e+003;5.911598e-002
1.870692e+003;5.900195e-002
1.872620e+003;5.899978e-002
1.874549e+003;5.898365e-002
1.876477e+003;5.900734e-002
1.878406e+003;5.921543e-002
1.880334e+003;5.946046e-002
1.882263e+003;5.944154e-002
1.884191e+003;5.939485e-002
1.886120e+003;5.933920e-002
1.888048e+003;5.934125e-002
1.889977e+003;5.941058e-002
1.891906e+003;5.938243e-002
1.893834e+003;5.927129e-002
1.895763e+003;5.927121e-002
1.897691e+003;5.924733e-002
1.899620e+003;5.928895e-002
1.901548e+003;5.917142e-002
1.903477e+003;5.905091e-002
1.905405e+003;5.918470e-002
1.907334e+003;5.933506e-002
1.909262e+003;5.919336e-002
1.911191e+003;5.896020e-002
1.913120e+003;5.890714e-002
1.915048e+003;5.901212e-002
1.916977e+003;5.898718e-002
1.918905e+003;5.880083e-002
1.920834e+003;5.878520e-002
1.922762e+003;5.879950e-002
1.924691e+003;5.867383e-002
1.926619e+003;5.870273e-002
1.928548e+003;5.875527e-002
1.930477e+003;5.877279e-002
1.932405e+003;5.874097e-002
1.934334e+003;5.887421e-002
1.936262e+003;5.897124e-002
1.938191e+003;5.876881e-002
1.940119e+003;5.872041e-002
1.942048e+003;5.871612e-002
1.943976e+003;5.856340e-002
1.945905e+003;5.863344e-002
1.947833e+003;5.879021e-002
1.949762e+003;5.894915e-002
1.951691e+003;5.899515e-002
1.953619e+003;5.913477e-002
1.955548e+003;5.921075e-002
1.957476e+003;5.923965e-002
1.959405e+003;5.929526e-002
1.961333e+003;5.924372e-002
1.963262e+003;5.906052e-002
1.965190e+003;5.916993e-002
1.967119e+003;5.916196e-002
1.969047e+003;5.900601e-002
1.970976e+003;5.907627e-002
1.972905e+003;5.906010e-002
1.974833e+003;5.917627e-002
1.976762e+003;5.934676e-002
1.978690e+003;5.932199e-002
1.980619e+003;5.935717e-002
1.982547e+003;5.959062e-002
1.984476e+003;5.951902e-002
1.986404e+003;5.927015e-002
1.988333e+003;5.905752e-002
1.990261e+003;5.891284e-002
1.992190e+003;5.904708e-002
1.994119e+003;5.914620e-002
1.996047e+003;5.910953e-002
1.997976e+003;5.894889e-002
1.999904e+003;5.898088e-002
2.001833e+003;5.914187e-002
2.003761e+003;5.910265e-002
2.005690e+003;5.906690e-002
2.007618e+003;5.907657e-002
2.009547e+003;5.914506e-002
2.011476e+003;5.923806e-002
2.013404e+003;5.910509e-002
2.015333e+003;5.906659e-002
2.017261e+003;5.925500e-002
2.019190e+003;5.930706e-002
2.021118e+003;5.944458e-002
2.023047e+003;5.957120e-002
2.024975e+003;5.936928e-002
2.026904e+003;5.946035e-002
2.028833e+003;5.959241e-002
2.030761e+003;5.943907e-002
2.032690e+003;5.960453e-002
2.034618e+003;5.994857e-002
2.036547e+003;5.982800e-002
2.038475e+003;5.937673e-002
2.040404e+003;5.924064e-002
2.042332e+003;5.942015e-002
2.044261e+003;5.952776e-002
2.046189e+003;5.964307e-002
2.048118e+003;5.953065e-002
2.050047e+003;5.936442e-002
2.051975e+003;5.939170e-002
2.053904e+003;5.942715e-002
2.055832e+003;5.956546e-002
2.057761e+003;5.977233e-002
2.059689e+003;5.976222e-002
2.061618e+003;5.971948e-002
2.063546e+003;5.978956e-002
2.065475e+003;5.986793e-002
2.067404e+003;5.996017e-002
2.069332e+003;6.003572e-002
2.071260e+003;6.011761e-002
2.073189e+003;6.015273e-002
2.075118e+003;6.023780e-002
2.077046e+003;6.030327e-002
2.078975e+003;6.018165e-002
2.080903e+003;6.008952e-002
2.082832e+003;6.014763e-002
2.084760e+003;6.023867e-002
2.086689e+003;6.037858e-002
2.088617e+003;6.022089e-002
2.090546e+003;6.007225e-002
2.092475e+003;6.022166e-002
2.094403e+003;6.036476e-002
2.096332e+003;6.022352e-002
2.098260e+003;6.016399e-002
2.100189e+003;6.031328e-002
2.102117e+003;6.022112e-002
2.104046e+003;6.003732e-002
2.105974e+003;6.002115e-002
2.107903e+003;5.982120e-002
2.109832e+003;5.972416e-002
2.111760e+003;5.980553e-002
2.113688e+003;5.995538e-002
2.115617e+003;6.005562e-002
2.117546e+003;6.002431e-002
2.119474e+003;5.983005e-002
2.121403e+003;5.983238e-002
2.123331e+003;5.989030e-002
2.125260e+003;5.993016e-002
2.127188e+003;6.008001e-002
2.129117e+003;5.998101e-002
2.131045e+003;5.986059e-002
2.132974e+003;5.984694e-002
2.134903e+003;5.983359e-002
2.136831e+003;6.001130e-002
2.138760e+003;6.006118e-002
2.140688e+003;5.990882e-002
2.142617e+003;6.003854e-002
2.144545e+003;6.006901e-002
2.146474e+003;5.995066e-002
2.148402e+003;5.996508e-002
2.150331e+003;6.014782e-002
2.152260e+003;6.033609e-002
2.154188e+003;6.037203e-002
2.156117e+003;6.027890e-002
2.158045e+003;6.012263e-002
2.159974e+003;6.017275e-002
2.161902e+003;6.028819e-002
2.163831e+003;6.035958e-002
2.165759e+003;6.033693e-002
2.167688e+003;6.023399e-002
2.169616e+003;6.020795e-002
2.171545e+003;6.031979e-002
2.173474e+003;6.035455e-002
2.175402e+003;6.014653e-002
2.177331e+003;6.012582e-002
2.179259e+003;6.031146e-002
2.181188e+003;6.038086e-002
2.183116e+003;6.025972e-002
2.185045e+003;6.000194e-002
2.186973e+003;6.003953e-002
2.188902e+003;6.023898e-002
2.190831e+003;6.025534e-002
2.192759e+003;6.008229e-002
2.194688e+003;6.032002e-002
2.196616e+003;6.044011e-002
2.198545e+003;6.023776e-002
2.200473e+003;6.019155e-002
2.202402e+003;6.021195e-002
2.204330e+003;6.009793e-002
2.206259e+003;6.008454e-002
2.208188e+003;6.009945e-002
2.210116e+003;6.014006e-002
2.212044e+003;6.009595e-002
2.213973e+003;6.010269e-002
2.215902e+003;6.003298e-002
2.217830e+003;6.003530e-002
2.219759e+003;6.015768e-002
2.221687e+003;6.007670e-002
2.223616e+003;5.991631e-002
2.225544e+003;6.002184e-002
2.227473e+003;6.002184e-002
2.229401e+003;6.005326e-002
2.231330e+003;6.019425e-002
2.233259e+003;6.016236e-002
2.235187e+003;6.009835e-002
2.237116e+003;6.007719e-002
2.239044e+003;5.995142e-002
2.240973e+003;5.991053e-002
2.242901e+003;5.981081e-002
2.244830e+003;5.968569e-002
2.246758e+003;5.967215e-002
2.248687e+003;5.971181e-002
2.250615e+003;5.980043e-002
2.252544e+003;5.976146e-002
2.254473e+003;5.978914e-002
2.256401e+003;5.975728e-002
2.258330e+003;5.960545e-002
2.260258e+003;5.973313e-002
2.262187e+003;5.996625e-002
2.264115e+003;5.981256e-002
2.266044e+003;5.963821e-002
2.267972e+003;5.986143e-002
2.269901e+003;5.998653e-002
2.271830e+003;5.978861e-002
2.273758e+003;5.962506e-002
2.275687e+003;5.970473e-002
2.277615e+003;5.980442e-002
2.279544e+003;5.995435e-002
2.281472e+003;5.991532e-002
2.283401e+003;5.982283e-002
2.285329e+003;5.989345e-002
2.287258e+003;6.000833e-002
2.289187e+003;5.996002e-002
2.291115e+003;5.988782e-002
2.293043e+003;5.999779e-002
2.294972e+003;6.004082e-002
2.296901e+003;5.996614e-002
2.298829e+003;5.998577e-002
2.300758e+003;6.004379e-002
2.302686e+003;6.003215e-002
2.304615e+003;6.022177e-002
2.306543e+003;6.020993e-002
2.308472e+003;6.002263e-002
2.310400e+003;6.001617e-002
2.312329e+003;6.017819e-002
2.314258e+003;6.025005e-002
2.316186e+003;6.019604e-002
2.318115e+003;6.006403e-002
2.320043e+003;6.007697e-002
2.321972e+003;6.011753e-002
2.323900e+003;6.006814e-002
2.325829e+003;6.011342e-002
2.327757e+003;6.005376e-002
2.329686e+003;6.003922e-002
2.331615e+003;6.018576e-002
2.333543e+003;6.008618e-002
2.335472e+003;6.002572e-002
2.337400e+003;6.003637e-002
2.339329e+003;6.005475e-002
2.341257e+003;6.017419e-002
2.343186e+003;6.035482e-002
2.345114e+003;6.040527e-002
2.347043e+003;6.028717e-002
2.348971e+003;6.022021e-002
2.350900e+003;6.010893e-002
2.352829e+003;6.017815e-002
2.354757e+003;6.035760e-002
2.356686e+003;6.039982e-002
2.358614e+003;6.041875e-002
2.360543e+003;6.037724e-002
2.362471e+003;6.040736e-002
2.364400e+003;6.047321e-002
2.366328e+003;6.065544e-002
2.368257e+003;6.088250e-002
2.370186e+003;6.083180e-002
2.372114e+003;6.059666e-002
2.374042e+003;6.062043e-002
2.375971e+003;6.084484e-002
2.377900e+003;6.096336e-002
2.379828e+003;6.110694e-002
2.381757e+003;6.137934e-002
2.383685e+003;6.129829e-002
2.385614e+003;6.104996e-002
2.387542e+003;6.109618e-002
2.389471e+003;6.130142e-002
2.391399e+003;6.137545e-002
2.393328e+003;6.146136e-002
2.395257e+003;6.159166e-002
2.397185e+003;6.172295e-002
2.399114e+003;6.180924e-002
2.401042e+003;6.169607e-002
2.402971e+003;6.167793e-002
2.404899e+003;6.194259e-002
2.406828e+003;6.206336e-002
2.408756e+003;6.217904e-002
2.410685e+003;6.239676e-002
2.412614e+003;6.251445e-002
2.414542e+003;6.278594e-002
2.416471e+003;6.325476e-002
2.418399e+003;6.344637e-002
2.420328e+003;6.339614e-002
2.422256e+003;6.335021e-002
2.424185e+003;6.364716e-002
2.426113e+003;6.401476e-002
2.428042e+003;6.400528e-002
2.429970e+003;6.365767e-002
2.431899e+003;6.361838e-002
2.433828e+003;6.402935e-002
2.435756e+003;6.431620e-002
2.437685e+003;6.422945e-002
2.439613e+003;6.411172e-002
2.441542e+003;6.409183e-002
2.443470e+003;6.430259e-002
2.445399e+003;6.455664e-002
2.447327e+003;6.473252e-002
2.449256e+003;6.496565e-002
2.451185e+003;6.487223e-002
2.453113e+003;6.463807e-002
2.455042e+003;6.484518e-002
2.456970e+003;6.499393e-002
2.458899e+003;6.482633e-002
2.460827e+003;6.466345e-002
2.462756e+003;6.493463e-002
2.464684e+003;6.498189e-002
2.466613e+003;6.501929e-002
2.468542e+003;6.530391e-002
2.470470e+003;6.551673e-002
2.472398e+003;6.543498e-002
2.474327e+003;6.525289e-002
2.476256e+003;6.550297e-002
2.478184e+003;6.586305e-002
2.480113e+003;6.581667e-002
2.482041e+003;6.576131e-002
2.483970e+003;6.571829e-002
2.485898e+003;6.564628e-002
2.487827e+003;6.575371e-002
2.489755e+003;6.616832e-002
2.491684e+003;6.633748e-002
2.493613e+003;6.613082e-002
2.495541e+003;6.615069e-002
2.497470e+003;6.625975e-002
2.499398e+003;6.609953e-002
2.501327e+003;6.589533e-002
2.503255e+003;6.599217e-002
2.505184e+003;6.625655e-002
2.507112e+003;6.640678e-002
2.509041e+003;6.653270e-002
2.510969e+003;6.665151e-002
2.512898e+003;6.642709e-002
2.514827e+003;6.614282e-002
2.516755e+003;6.631768e-002
2.518684e+003;6.641045e-002
2.520612e+003;6.650154e-002
2.522541e+003;6.682144e-002
2.524469e+003;6.686886e-002
2.526398e+003;6.679311e-002
2.528326e+003;6.686237e-002
2.530255e+003;6.713129e-002
2.532184e+003;6.720737e-002
2.534112e+003;6.695266e-002
2.536041e+003;6.693364e-002
2.537969e+003;6.714850e-002
2.539898e+003;6.750782e-002
2.541826e+003;6.756364e-002
2.543755e+003;6.741013e-002
2.545683e+003;6.727127e-002
2.547612e+003;6.721824e-002
2.549541e+003;6.742828e-002
2.551469e+003;6.782138e-002
2.553397e+003;6.816059e-002
2.555326e+003;6.833239e-002
2.557255e+003;6.837811e-002
2.559183e+003;6.839561e-002
2.561112e+003;6.842450e-002
2.563040e+003;6.836764e-002
2.564969e+003;6.825212e-002
2.566897e+003;6.842842e-002
2.568826e+003;6.877090e-002
2.570754e+003;6.890267e-002
2.572683e+003;6.895047e-002
2.574612e+003;6.922773e-002
2.576540e+003;6.930596e-002
2.578469e+003;6.930658e-002
2.580397e+003;6.934270e-002
2.582326e+003;6.942989e-002
2.584254e+003;6.964015e-002
2.586183e+003;6.981978e-002
2.588111e+003;6.997176e-002
2.590040e+003;7.024028e-002
2.591969e+003;7.043106e-002
2.593897e+003;7.047264e-002
2.595826e+003;7.055874e-002
2.597754e+003;7.055742e-002
2.599683e+003;7.061074e-002
2.601611e+003;7.085126e-002
2.603540e+003;7.120823e-002
2.605468e+003;7.143936e-002
2.607397e+003;7.153365e-002
2.609325e+003;7.154959e-002
2.611254e+003;7.173813e-002
2.613183e+003;7.186948e-002
2.615111e+003;7.187468e-002
2.617040e+003;7.198139e-002
2.618968e+003;7.193145e-002
2.620897e+003;7.186279e-002
2.622825e+003;7.210084e-002
2.624754e+003;7.222611e-002
2.626682e+003;7.201233e-002
2.628611e+003;7.176655e-002
2.630540e+003;7.187648e-002
2.632468e+003;7.210135e-002
2.634396e+003;7.233009e-002
2.636325e+003;7.241359e-002
2.638254e+003;7.233976e-002
2.640182e+003;7.209951e-002
2.642111e+003;7.174975e-002
2.644039e+003;7.162406e-002
2.645968e+003;7.187711e-002
2.647896e+003;7.216156e-002
2.649825e+003;7.209434e-002
2.651753e+003;7.208958e-002
2.653682e+003;7.225417e-002
2.655611e+003;7.234551e-002
2.657539e+003;7.237080e-002
2.659468e+003;7.249294e-002
2.661396e+003;7.256154e-002
2.663325e+003;7.262753e-002
2.665253e+003;7.303911e-002
2.667182e+003;7.322004e-002
2.669110e+003;7.316058e-002
2.671039e+003;7.317191e-002
2.672968e+003;7.315862e-002
2.674896e+003;7.320474e-002
2.676825e+003;7.333931e-002
2.678753e+003;7.346475e-002
2.680682e+003;7.359909e-002
2.682610e+003;7.350917e-002
2.684539e+003;7.343151e-002
2.686467e+003;7.374808e-002
2.688396e+003;7.391814e-002
2.690324e+003;7.405011e-002
2.692253e+003;7.411204e-002
2.694182e+003;7.422984e-002
2.696110e+003;7.453432e-002
2.698039e+003;7.467903e-002
2.699967e+003;7.461694e-002
2.701896e+003;7.485406e-002
2.703824e+003;7.533980e-002
2.705753e+003;7.542636e-002
2.707681e+003;7.524636e-002
2.709610e+003;7.535218e-002
2.711539e+003;7.578750e-002
2.713467e+003;7.626987e-002
2.715396e+003;7.624151e-002
2.717324e+003;7.609983e-002
2.719253e+003;7.639326e-002
2.721181e+003;7.675762e-002
2.723110e+003;7.707331e-002
2.725038e+003;7.712597e-002
2.726967e+003;7.696822e-002
2.728896e+003;7.702824e-002
2.730824e+003;7.748505e-002
2.732752e+003;7.780229e-002
2.734681e+003;7.812666e-002
2.736610e+003;7.829563e-002
2.738538e+003;7.816863e-002
2.740467e+003;7.830872e-002
2.742395e+003;7.868729e-002
2.744324e+003;7.884252e-002
2.746252e+003;7.903104e-002
2.748181e+003;7.907699e-002
2.750109e+003;7.901475e-002
2.752038e+003;7.914048e-002
2.753967e+003;7.951372e-002
2.755895e+003;7.986506e-002
2.757824e+003;8.005267e-002
2.759752e+003;8.034150e-002
2.761681e+003;8.050047e-002
2.763609e+003;8.055763e-002
2.765538e+003;8.073288e-002
2.767466e+003;8.063681e-002
2.769395e+003;8.062113e-002
2.771323e+003;8.107076e-002
2.773252e+003;8.163819e-002
2.775181e+003;8.194156e-002
2.777109e+003;8.162108e-002
2.779038e+003;8.153928e-002
2.780966e+003;8.187070e-002
2.782895e+003;8.223072e-002
2.784823e+003;8.248906e-002
2.786752e+003;8.271272e-002
2.788680e+003;8.280252e-002
2.790609e+003;8.277758e-002
2.792538e+003;8.285689e-002
2.794466e+003;8.306505e-002
2.796395e+003;8.348782e-002
2.798323e+003;8.378199e-002
2.800252e+003;8.381687e-002
2.802180e+003;8.376005e-002
2.804109e+003;8.355561e-002
2.806037e+003;8.370982e-002
2.807966e+003;8.409574e-002
2.809895e+003;8.430800e-002
2.811823e+003;8.427449e-002
2.813751e+003;8.457635e-002
2.815680e+003;8.478063e-002
2.817609e+003;8.498259e-002
2.819537e+003;8.546810e-002
2.821466e+003;8.583672e-002
2.823394e+003;8.600961e-002
2.825323e+003;8.608449e-002
2.827251e+003;8.655600e-002
2.829180e+003;8.665537e-002
2.831108e+003;8.656801e-002
2.833037e+003;8.716972e-002
2.834966e+003;8.786079e-002
2.836894e+003;8.859240e-002
2.838823e+003;8.936907e-002
2.840751e+003;9.022793e-002
2.842680e+003;9.148467e-002
2.844608e+003;9.297694e-002
2.846537e+003;9.494984e-002
2.848465e+003;9.732521e-002
2.850394e+003;9.916620e-002
2.852323e+003;9.994561e-002
2.854251e+003;9.969181e-002
2.856180e+003;9.913806e-002
2.858108e+003;9.868527e-002
2.860037e+003;9.810070e-002
2.861965e+003;9.761783e-002
2.863894e+003;9.757523e-002
2.865822e+003;9.802233e-002
2.867751e+003;9.836716e-002
2.869679e+003;9.860003e-002
2.871608e+003;9.891053e-002
2.873536e+003;9.890470e-002
2.875465e+003;9.885748e-002
2.877394e+003;9.876034e-002
2.879322e+003;9.828211e-002
2.881251e+003;9.813850e-002
2.883179e+003;9.856851e-002
2.885108e+003;9.919684e-002
2.887036e+003;9.912208e-002
2.888965e+003;9.888419e-002
2.890893e+003;9.950235e-002
2.892822e+003;1.001843e-001
2.894750e+003;1.005963e-001
2.896679e+003;1.011739e-001
2.898608e+003;1.018023e-001
2.900536e+003;1.025847e-001
2.902465e+003;1.031928e-001
2.904393e+003;1.036130e-001
2.906322e+003;1.043362e-001
2.908250e+003;1.055586e-001
2.910179e+003;1.071561e-001
2.912107e+003;1.089810e-001
2.914036e+003;1.110179e-001
2.915965e+003;1.127845e-001
2.917893e+003;1.144539e-001
2.919822e+003;1.162008e-001
2.921750e+003;1.177118e-001
2.923679e+003;1.183871e-001
2.925607e+003;1.186623e-001
2.927536e+003;1.188611e-001
2.929464e+003;1.188757e-001
2.931393e+003;1.182573e-001
2.933322e+003;1.173396e-001
2.935250e+003;1.165585e-001
2.937178e+003;1.151715e-001
2.939107e+003;1.134463e-001
2.941036e+003;1.120735e-001
2.942964e+003;1.111256e-001
2.944893e+003;1.097435e-001
2.946821e+003;1.081248e-001
2.948750e+003;1.070986e-001
2.950678e+003;1.066908e-001
2.952607e+003;1.066536e-001
2.954535e+003;1.061814e-001
2.956464e+003;1.054466e-001
2.958393e+003;1.050470e-001
2.960321e+003;1.050935e-001
2.962250e+003;1.052332e-001
2.964178e+003;1.052055e-001
2.966107e+003;1.049376e-001
2.968035e+003;1.045874e-001
2.969964e+003;1.041614e-001
2.971892e+003;1.038607e-001
2.973821e+003;1.035374e-001
2.975750e+003;1.028464e-001
2.977678e+003;1.024735e-001
2.979607e+003;1.022480e-001
2.981535e+003;1.017628e-001
2.983464e+003;1.013345e-001
2.985392e+003;1.010697e-001
2.987321e+003;1.002636e-001
2.989249e+003;9.951844e-002
2.991178e+003;9.890553e-002
2.993106e+003;9.832823e-002
2.995035e+003;9.793963e-002
2.996964e+003;9.755503e-002
2.998892e+003;9.742236e-002
3.000821e+003;9.685978e-002
3.002749e+003;9.632778e-002
3.004678e+003;9.625007e-002
3.006606e+003;9.604549e-002
3.008535e+003;9.595771e-002
3.010463e+003;9.615906e-002
3.012392e+003;9.621926e-002
3.014321e+003;9.641271e-002
3.016249e+003;9.680909e-002
3.018177e+003;9.692620e-002
3.020106e+003;9.700520e-002
3.022035e+003;9.718623e-002
3.023963e+003;9.746868e-002
3.025892e+003;9.813833e-002
3.027820e+003;9.869912e-002
3.029749e+003;9.896566e-002
3.031677e+003;9.942307e-002
3.033606e+003;9.969865e-002
3.035534e+003;9.984361e-002
3.037463e+003;1.001804e-001
3.039392e+003;1.008324e-001
3.041320e+003;1.015250e-001
3.043249e+003;1.021295e-001
3.045177e+003;1.026543e-001
3.047106e+003;1.028811e-001
3.049034e+003;1.033012e-001
3.050963e+003;1.039430e-001
3.052891e+003;1.043927e-001
3.054820e+003;1.050227e-001
3.056749e+003;1.057459e-001
3.058677e+003;1.062281e-001
3.060606e+003;1.065620e-001
3.062534e+003;1.071852e-001
3.064463e+003;1.074497e-001
3.066391e+003;1.074847e-001
3.068320e+003;1.077241e-001
3.070248e+003;1.082824e-001
3.072177e+003;1.083239e-001
3.074105e+003;1.078609e-001
3.076034e+003;1.076583e-001
3.077963e+003;1.078563e-001
3.079891e+003;1.078038e-001
3.081820e+003;1.077398e-001
3.083748e+003;1.076903e-001
3.085677e+003;1.074856e-001
3.087605e+003;1.075147e-001
3.089534e+003;1.072571e-001
3.091462e+003;1.067251e-001
3.093391e+003;1.062921e-001
3.095320e+003;1.062163e-001
3.097248e+003;1.063061e-001
3.099177e+003;1.060764e-001
3.101105e+003;1.057333e-001
3.103034e+003;1.056352e-001
3.104962e+003;1.053721e-001
3.106891e+003;1.049971e-001
3.108819e+003;1.047767e-001
3.110748e+003;1.048797e-001
3.112677e+003;1.046994e-001
3.114605e+003;1.042972e-001
3.116533e+003;1.043308e-001
3.118462e+003;1.042784e-001
3.120391e+003;1.041125e-001
3.122319e+003;1.041495e-001
3.124248e+003;1.043522e-001
3.126176e+003;1.044952e-001
3.128105e+003;1.045438e-001
3.130033e+003;1.047279e-001
3.131962e+003;1.048179e-001
3.133890e+003;1.047860e-001
3.135819e+003;1.050102e-001
3.137748e+003;1.052271e-001
3.139676e+003;1.055111e-001
3.141605e+003;1.057557e-001
3.143533e+003;1.060412e-001
3.145462e+003;1.064386e-001
3.147390e+003;1.067188e-001
3.149319e+003;1.072565e-001
3.151247e+003;1.079412e-001
3.153176e+003;1.087593e-001
3.155104e+003;1.094068e-001
3.157033e+003;1.100485e-001
3.158962e+003;1.103966e-001
3.160890e+003;1.107449e-001
3.162819e+003;1.113927e-001
3.164747e+003;1.122329e-001
3.166676e+003;1.130482e-001
3.168604e+003;1.135847e-001
3.170533e+003;1.141566e-001
3.172461e+003;1.149229e-001
3.174390e+003;1.158396e-001
3.176319e+003;1.165475e-001
3.178247e+003;1.168908e-001
3.180176e+003;1.177615e-001
3.182104e+003;1.190812e-001
3.184033e+003;1.201486e-001
3.185961e+003;1.209719e-001
3.187890e+003;1.218547e-001
3.189818e+003;1.229154e-001
3.191747e+003;1.240039e-001
3.193676e+003;1.248064e-001
3.195604e+003;1.255162e-001
3.197532e+003;1.265175e-001
3.199461e+003;1.276036e-001
3.201390e+003;1.282263e-001
3.203318e+003;1.289463e-001
3.205247e+003;1.298273e-001
3.207175e+003;1.309173e-001
3.209104e+003;1.320146e-001
3.211032e+003;1.329763e-001
3.212961e+003;1.344078e-001
3.214889e+003;1.355831e-001
3.216818e+003;1.364366e-001
3.218747e+003;1.374268e-001
3.220675e+003;1.381968e-001
3.222604e+003;1.390893e-001
3.224532e+003;1.402466e-001
3.226461e+003;1.415017e-001
3.228389e+003;1.428527e-001
3.230318e+003;1.438090e-001
3.232246e+003;1.449560e-001
3.234175e+003;1.462348e-001
3.236104e+003;1.471955e-001
3.238032e+003;1.482535e-001
3.239961e+003;1.496540e-001
3.241889e+003;1.512479e-001
3.243818e+003;1.532977e-001
3.245746e+003;1.550931e-001
3.247675e+003;1.564929e-001
3.249603e+003;1.578802e-001
3.251532e+003;1.589902e-001
3.253460e+003;1.606767e-001
3.255389e+003;1.630947e-001
3.257318e+003;1.655364e-001
3.259246e+003;1.671327e-001
3.261175e+003;1.683370e-001
3.263103e+003;1.701787e-001
3.265032e+003;1.721827e-001
3.266960e+003;1.738585e-001
3.268889e+003;1.754350e-001
3.270817e+003;1.768788e-001
3.272746e+003;1.781947e-001
3.274675e+003;1.791671e-001
3.276603e+003;1.797107e-001
3.278531e+003;1.805675e-001
3.280460e+003;1.808728e-001
3.282389e+003;1.802963e-001
3.284317e+003;1.793990e-001
3.286246e+003;1.785656e-001
3.288174e+003;1.778268e-001
3.290103e+003;1.765956e-001
3.292031e+003;1.745733e-001
3.293960e+003;1.728474e-001
3.295888e+003;1.715518e-001
3.297817e+003;1.699412e-001
3.299746e+003;1.679153e-001
3.301674e+003;1.658602e-001
3.303603e+003;1.635777e-001
3.305531e+003;1.614147e-001
3.307460e+003;1.592105e-001
3.309388e+003;1.568837e-001
3.311317e+003;1.549653e-001
3.313245e+003;1.529004e-001
3.315174e+003;1.506889e-001
3.317103e+003;1.489263e-001
3.319031e+003;1.470261e-001
3.320960e+003;1.446878e-001
3.322888e+003;1.424332e-001
3.324817e+003;1.407055e-001
3.326745e+003;1.391857e-001
3.328674e+003;1.371292e-001
3.330602e+003;1.351131e-001
3.332531e+003;1.335756e-001
3.334459e+003;1.317974e-001
3.336388e+003;1.299424e-001
3.338317e+003;1.287762e-001
3.340245e+003;1.275719e-001
3.342174e+003;1.262401e-001
3.344102e+003;1.251503e-001
3.346031e+003;1.239868e-001
3.347959e+003;1.227481e-001
3.349888e+003;1.216124e-001
3.351816e+003;1.206042e-001
3.353745e+003;1.195276e-001
3.355674e+003;1.187760e-001
3.357602e+003;1.179096e-001
3.359531e+003;1.169732e-001
3.361459e+003;1.162115e-001
3.363388e+003;1.154940e-001
3.365316e+003;1.147397e-001
3.367245e+003;1.139030e-001
3.369173e+003;1.128682e-001
3.371102e+003;1.118758e-001
3.373031e+003;1.117283e-001
3.374959e+003;1.114136e-001
3.376887e+003;1.103180e-001
3.378816e+003;1.093909e-001
3.380745e+003;1.091718e-001
3.382673e+003;1.089949e-001
3.384602e+003;1.080212e-001
3.386530e+003;1.070977e-001
3.388459e+003;1.068155e-001
3.390387e+003;1.064083e-001
3.392316e+003;1.056473e-001
3.394244e+003;1.051222e-001
3.396173e+003;1.049368e-001
3.398102e+003;1.045130e-001
3.400030e+003;1.037755e-001
3.401959e+003;1.033297e-001
3.403887e+003;1.029730e-001
3.405816e+003;1.025236e-001
3.407744e+003;1.020444e-001
3.409673e+003;1.014647e-001
3.411601e+003;1.007661e-001
3.413530e+003;1.001059e-001
3.415458e+003;9.966867e-002
3.417387e+003;9.913648e-002
3.419316e+003;9.797953e-002
3.421244e+003;9.715212e-002
3.423173e+003;9.670036e-002
3.425101e+003;9.630954e-002
3.427030e+003;9.572981e-002
3.428958e+003;9.532455e-002
3.430887e+003;9.467624e-002
3.432815e+003;9.402906e-002
3.434744e+003;9.387739e-002
3.436673e+003;9.336933e-002
3.438601e+003;9.296766e-002
3.440530e+003;9.254377e-002
3.442458e+003;9.190597e-002
3.444387e+003;9.164970e-002
3.446315e+003;9.129795e-002
3.448244e+003;9.064974e-002
3.450172e+003;9.034235e-002
3.452101e+003;9.026583e-002
3.454030e+003;8.991111e-002
3.455958e+003;8.952451e-002
3.457886e+003;8.926423e-002
3.459815e+003;8.916690e-002
3.461744e+003;8.891802e-002
3.463672e+003;8.788577e-002
3.465601e+003;8.690782e-002
3.467529e+003;8.703124e-002
3.469458e+003;8.748002e-002
3.471386e+003;8.713745e-002
3.473315e+003;8.637784e-002
3.475243e+003;8.619864e-002
3.477172e+003;8.606721e-002
3.479101e+003;8.544115e-002
3.481029e+003;8.504578e-002
3.482958e+003;8.504505e-002
3.484886e+003;8.472602e-002
3.486815e+003;8.411621e-002
3.488743e+003;8.350737e-002
3.490672e+003;8.292278e-002
3.492600e+003;8.290797e-002
3.494529e+003;8.287565e-002
3.496458e+003;8.236627e-002
3.498386e+003;8.211457e-002
3.500315e+003;8.186454e-002
3.502243e+003;8.152397e-002
3.504172e+003;8.124978e-002
3.506100e+003;8.099014e-002
3.508029e+003;8.103390e-002
3.509957e+003;8.104105e-002
3.511886e+003;8.064870e-002
3.513814e+003;8.029114e-002
3.515743e+003;7.977411e-002
3.517672e+003;7.944147e-002
3.519600e+003;7.896296e-002
3.521529e+003;7.828730e-002
3.523457e+003;7.801946e-002
3.525386e+003;7.780471e-002
3.527314e+003;7.774027e-002
3.529243e+003;7.764252e-002
3.531171e+003;7.706947e-002
3.533100e+003;7.649492e-002
3.535029e+003;7.590204e-002
3.536957e+003;7.544847e-002
3.538885e+003;7.544650e-002
3.540814e+003;7.521599e-002
3.542743e+003;7.494406e-002
3.544671e+003;7.474577e-002
3.546600e+003;7.411896e-002
3.548528e+003;7.363584e-002
3.550457e+003;7.340770e-002
3.552385e+003;7.302595e-002
3.554314e+003;7.281184e-002
3.556242e+003;7.233354e-002
3.558171e+003;7.154560e-002
3.560100e+003;7.129642e-002
3.562028e+003;7.139206e-002
3.563957e+003;7.111580e-002
3.565885e+003;7.072397e-002
3.567814e+003;7.050269e-002
3.569742e+003;7.030217e-002
3.571671e+003;6.994241e-002
3.573599e+003;6.935874e-002
3.575528e+003;6.883142e-002
3.577457e+003;6.856940e-002
3.579385e+003;6.825709e-002
3.581314e+003;6.792554e-002
3.583242e+003;6.777606e-002
3.585171e+003;6.779899e-002
3.587099e+003;6.795290e-002
3.589028e+003;6.783466e-002
3.590956e+003;6.732272e-002
3.592885e+003;6.706467e-002
3.594813e+003;6.685104e-002
3.596742e+003;6.650918e-002
3.598671e+003;6.594384e-002
3.600599e+003;6.575448e-002
3.602528e+003;6.586047e-002
3.604456e+003;6.572375e-002
3.606385e+003;6.496219e-002
3.608313e+003;6.432934e-002
3.610242e+003;6.447980e-002
3.612170e+003;6.421220e-002
3.614099e+003;6.372987e-002
3.616028e+003;6.342666e-002
3.617956e+003;6.310637e-002
3.619885e+003;6.290683e-002
3.621813e+003;6.234979e-002
3.623742e+003;6.229192e-002
3.625670e+003;6.220477e-002
3.627599e+003;6.182349e-002
3.629527e+003;6.165333e-002
3.631456e+003;6.154126e-002
3.633385e+003;6.101282e-002
3.635313e+003;6.079327e-002
3.637241e+003;6.032767e-002
3.639170e+003;5.983819e-002
3.641099e+003;5.971295e-002
3.643027e+003;5.945671e-002
3.644956e+003;5.943444e-002
3.646884e+003;5.933920e-002
3.648813e+003;5.869060e-002
3.650741e+003;5.787476e-002
3.652670e+003;5.737201e-002
3.654598e+003;5.720407e-002
3.656527e+003;5.719160e-002
3.658456e+003;5.666656e-002
3.660384e+003;5.600938e-002
3.662313e+003;5.576425e-002
3.664241e+003;5.535933e-002
3.666170e+003;5.453699e-002
3.668098e+003;5.395813e-002
3.670027e+003;5.344013e-002
3.671955e+003;5.298302e-002
3.673884e+003;5.250268e-002
3.675813e+003;5.211424e-002
3.677741e+003;5.219464e-002
3.679669e+003;5.193962e-002
3.681598e+003;5.169502e-002
3.683527e+003;5.126162e-002
3.685455e+003;5.033600e-002
3.687384e+003;5.000083e-002
3.689312e+003;5.018233e-002
3.691241e+003;4.997871e-002
3.693169e+003;4.924293e-002
3.695098e+003;4.900499e-002
3.697026e+003;4.895778e-002
3.698955e+003;4.841630e-002
3.700884e+003;4.792659e-002
3.702812e+003;4.738033e-002
3.704741e+003;4.704662e-002
3.706669e+003;4.656978e-002
3.708598e+003;4.589362e-002
3.710526e+003;4.554920e-002
3.712455e+003;4.554677e-002
3.714383e+003;4.549894e-002
3.716312e+003;4.530559e-002
3.718240e+003;4.493173e-002
3.720169e+003;4.474653e-002
3.722098e+003;4.466555e-002
3.724026e+003;4.435499e-002
3.725955e+003;4.402377e-002
3.727883e+003;4.404406e-002
3.729812e+003;4.366922e-002
3.731740e+003;4.306612e-002
3.733669e+003;4.311552e-002
3.735597e+003;4.350397e-002
3.737526e+003;4.353555e-002
3.739455e+003;4.338214e-002
3.741383e+003;4.340528e-002
3.743312e+003;4.299515e-002
3.745240e+003;4.247862e-002
3.747169e+003;4.249419e-002
3.749097e+003;4.285469e-002
3.751026e+003;4.298860e-002
3.752954e+003;4.266483e-002
3.754883e+003;4.256355e-002
3.756812e+003;4.249441e-002
3.758740e+003;4.211894e-002
3.760668e+003;4.224604e-002
3.762597e+003;4.276591e-002
3.764526e+003;4.287181e-002
3.766454e+003;4.281988e-002
3.768383e+003;4.243785e-002
3.770311e+003;4.216173e-002
3.772240e+003;4.221639e-002
3.774168e+003;4.246145e-002
3.776097e+003;4.245977e-002
3.778025e+003;4.221679e-002
3.779954e+003;4.210605e-002
3.781883e+003;4.205673e-002
3.783811e+003;4.198103e-002
3.785740e+003;4.209346e-002
3.787668e+003;4.220014e-002
3.789597e+003;4.191713e-002
3.791525e+003;4.192209e-002
3.793454e+003;4.209382e-002
3.795382e+003;4.178778e-002
3.797311e+003;4.195804e-002
3.799240e+003;4.240449e-002
3.801168e+003;4.204023e-002
3.803097e+003;4.159499e-002
3.805025e+003;4.189370e-002
3.806954e+003;4.230170e-002
3.808882e+003;4.235700e-002
3.810811e+003;4.210368e-002
3.812739e+003;4.183164e-002
3.814668e+003;4.169448e-002
3.816596e+003;4.174886e-002
3.818525e+003;4.179231e-002
3.820454e+003;4.183507e-002
3.822382e+003;4.210342e-002
3.824311e+003;4.239349e-002
3.826239e+003;4.274149e-002
3.828168e+003;4.261449e-002
3.830096e+003;4.246525e-002
3.832025e+003;4.252068e-002
3.833953e+003;4.246879e-002
3.835882e+003;4.228278e-002
3.837811e+003;4.224546e-002
3.839739e+003;4.190779e-002
3.841667e+003;4.165593e-002
3.843596e+003;4.172789e-002
3.845525e+003;4.220814e-002
3.847453e+003;4.231390e-002
3.849382e+003;4.202326e-002
3.851310e+003;4.201074e-002
3.853239e+003;4.213153e-002
3.855167e+003;4.235477e-002
3.857096e+003;4.287751e-002
3.859024e+003;4.329178e-002
3.860953e+003;4.339927e-002
3.862882e+003;4.347852e-002
3.864810e+003;4.334692e-002
3.866739e+003;4.308083e-002
3.868667e+003;4.345142e-002
3.870596e+003;4.383589e-002
3.872524e+003;4.400361e-002
3.874453e+003;4.395360e-002
3.876381e+003;4.407757e-002
3.878310e+003;4.382629e-002
3.880239e+003;4.362720e-002
3.882167e+003;4.416688e-002
3.884096e+003;4.467653e-002
3.886024e+003;4.429433e-002
3.887953e+003;4.383519e-002
3.889881e+003;4.370623e-002
3.891810e+003;4.407145e-002
3.893738e+003;4.461414e-002
3.895667e+003;4.480523e-002
3.897595e+003;4.463430e-002
3.899524e+003;4.455195e-002
3.901453e+003;4.501294e-002
3.903381e+003;4.525429e-002
3.905310e+003;4.545858e-002
3.907238e+003;4.530048e-002
3.909167e+003;4.520211e-002
3.911095e+003;4.504624e-002
3.913024e+003;4.472064e-002
3.914952e+003;4.457643e-002
3.916881e+003;4.490850e-002
3.918810e+003;4.585282e-002
3.920738e+003;4.592975e-002
3.922667e+003;4.538096e-002
3.924595e+003;4.510094e-002
3.926524e+003;4.541627e-002
3.928452e+003;4.614386e-002
3.930381e+003;4.634561e-002
3.932309e+003;4.626205e-002
3.934238e+003;4.618030e-002
3.936167e+003;4.609559e-002
3.938095e+003;4.623160e-002
3.940023e+003;4.672675e-002
3.941952e+003;4.686503e-002
3.943881e+003;4.704821e-002
3.945809e+003;4.734334e-002
3.947738e+003;4.657844e-002
3.949666e+003;4.614356e-002
3.951595e+003;4.643395e-002
3.953523e+003;4.638794e-002
3.955452e+003;4.627668e-002
3.957380e+003;4.651840e-002
3.959309e+003;4.687894e-002
3.961238e+003;4.696698e-002
3.963166e+003;4.694778e-002
3.965095e+003;4.692398e-002
3.967023e+003;4.692205e-002
3.968952e+003;4.709075e-002
3.970880e+003;4.746585e-002
3.972809e+003;4.772942e-002
3.974737e+003;4.796045e-002
3.976666e+003;4.796355e-002
3.978594e+003;4.729871e-002
3.980523e+003;4.732483e-002
3.982452e+003;4.772299e-002
3.984380e+003;4.746947e-002
3.986309e+003;4.757261e-002
3.988237e+003;4.771286e-002
3.990166e+003;4.724392e-002
3.992094e+003;4.691582e-002
3.994023e+003;4.698002e-002
3.995951e+003;4.681723e-002
3.997880e+003;4.670904e-002
3.999809e+003;4.657416e-002
4.001737e+003;0.000000e+000
