3.992094e+002;0.000000e+000
4.011380e+002;0.000000e+000
4.030665e+002;0.000000e+000
4.049951e+002;0.000000e+000
4.069236e+002;0.000000e+000
4.088522e+002;0.000000e+000
4.107807e+002;0.000000e+000
4.127093e+002;0.000000e+000
4.146378e+002;0.000000e+000
4.165664e+002;0.000000e+000
4.184949e+002;0.000000e+000
4.204235e+002;0.000000e+000
4.223520e+002;0.000000e+000
4.242806e+002;0.000000e+000
4.262091e+002;0.000000e+000
4.281377e+002;0.000000e+000
4.300662e+002;0.000000e+000
4.319948e+002;0.000000e+000
4.339233e+002;0.000000e+000
4.358519e+002;0.000000e+000
4.377804e+002;0.000000e+000
4.397090e+002;0.000000e+000
4.416375e+002;0.000000e+000
4.435660e+002;0.000000e+000
4.454946e+002;0.000000e+000
4.474232e+002;0.000000e+000
4.493517e+002;0.000000e+000
4.512802e+002;0.000000e+000
4.532088e+002;0.000000e+000
4.551373e+002;0.000000e+000
4.570659e+002;0.000000e+000
4.589944e+002;0.000000e+000
4.609230e+002;0.000000e+000
4.628515e+002;0.000000e+000
4.647801e+002;0.000000e+000
4.667086e+002;0.000000e+000
4.686372e+002;0.000000e+000
4.705657e+002;0.000000e+000
4.724943e+002;0.000000e+000
4.744228e+002;0.000000e+000
4.763513e+002;0.000000e+000
4.782799e+002;0.000000e+000
4.802085e+002;0.000000e+000
4.821370e+002;0.000000e+000
4.840656e+002;0.000000e+000
4.859941e+002;0.000000e+000
4.879226e+002;0.000000e+000
4.898512e+002;0.000000e+000
4.917798e+002;0.000000e+000
4.937083e+002;0.000000e+000
4.956368e+002;0.000000e+000
4.975654e+002;0.000000e+000
4.994939e+002;0.000000e+000
5.014225e+002;0.000000e+000
5.033510e+002;0.000000e+000
5.052796e+002;0.000000e+000
5.072081e+002;0.000000e+000
5.091367e+002;0.000000e+000
5.110652e+002;0.000000e+000
5.129938e+002;0.000000e+000
5.149223e+002;0.000000e+000
5.168509e+002;0.000000e+000
5.187794e+002;0.000000e+000
5.207079e+002;0.000000e+000
5.226365e+002;0.000000e+000
5.245651e+002;0.000000e+000
5.264936e+002;0.000000e+000
5.284222e+002;0.000000e+000
5.303507e+002;0.000000e+000
5.322792e+002;0.000000e+000
5.342078e+002;0.000000e+000
5.361364e+002;0.000000e+000
5.380649e+002;0.000000e+000
5.399935e+002;0.000000e+000
5.419220e+002;0.000000e+000
5.438505e+002;0.000000e+000
5.457791e+002;0.000000e+000
5.477076e+002;0.000000e+000
5.496362e+002;0.000000e+000
5.515648e+002;0.000000e+000
5.534933e+002;0.000000e+000
5.554218e+002;0.000000e+000
5.573504e+002;0.000000e+000
5.592789e+002;0.000000e+000
5.612075e+002;0.000000e+000
5.631360e+002;0.000000e+000
5.650646e+002;0.000000e+000
5.669931e+002;0.000000e+000
5.689217e+002;0.000000e+000
5.708502e+002;0.000000e+000
5.727787e+002;0.000000e+000
5.747073e+002;0.000000e+000
5.766359e+002;0.000000e+000
5.785644e+002;0.000000e+000
5.804930e+002;0.000000e+000
5.824215e+002;0.000000e+000
5.843500e+002;0.000000e+000
5.862786e+002;0.000000e+000
5.882072e+002;0.000000e+000
5.901357e+002;0.000000e+000
5.920643e+002;0.000000e+000
5.939928e+002;0.000000e+000
5.959213e+002;0.000000e+000
5.978499e+002;0.000000e+000
5.997784e+002;1.444148e-001
6.017070e+002;1.458725e-001
6.036355e+002;1.502694e-001
6.055641e+002;1.533955e-001
6.074926e+002;1.523854e-001
6.094211e+002;1.520560e-001
6.113497e+002;1.482567e-001
6.132783e+002;1.472380e-001
6.152068e+002;1.529755e-001
6.171354e+002;1.554546e-001
6.190639e+002;1.518030e-001
6.209924e+002;1.470201e-001
6.229210e+002;1.445733e-001
6.248495e+002;1.470956e-001
6.267781e+002;1.485348e-001
6.287067e+002;1.503425e-001
6.306352e+002;1.500579e-001
6.325637e+002;1.465351e-001
6.344923e+002;1.419218e-001
6.364208e+002;1.402367e-001
6.383494e+002;1.405413e-001
6.402780e+002;1.408368e-001
6.422065e+002;1.399930e-001
6.441350e+002;1.374620e-001
6.460636e+002;1.378740e-001
6.479921e+002;1.410657e-001
6.499207e+002;1.409109e-001
6.518492e+002;1.374668e-001
6.537778e+002;1.387288e-001
6.557063e+002;1.407768e-001
6.576349e+002;1.398456e-001
6.595634e+002;1.389399e-001
6.614919e+002;1.372760e-001
6.634205e+002;1.361594e-001
6.653491e+002;1.361097e-001
6.672776e+002;1.359362e-001
6.692062e+002;1.353951e-001
6.711347e+002;1.356240e-001
6.730632e+002;1.352397e-001
6.749918e+002;1.349336e-001
6.769203e+002;1.350442e-001
6.788489e+002;1.344312e-001
6.807775e+002;1.349308e-001
6.827060e+002;1.357427e-001
6.846345e+002;1.351327e-001
6.865631e+002;1.346062e-001
6.884916e+002;1.338655e-001
6.904202e+002;1.328879e-001
6.923488e+002;1.333800e-001
6.942773e+002;1.332918e-001
6.962058e+002;1.319955e-001
6.981344e+002;1.304733e-001
7.000629e+002;1.296462e-001
7.019915e+002;1.287015e-001
7.039200e+002;1.265970e-001
7.058486e+002;1.252264e-001
7.077771e+002;1.248272e-001
7.097057e+002;1.234756e-001
7.116342e+002;1.224648e-001
7.135627e+002;1.214460e-001
7.154913e+002;1.194049e-001
7.174199e+002;1.180225e-001
7.193484e+002;1.170134e-001
7.212770e+002;1.158225e-001
7.232055e+002;1.148867e-001
7.251340e+002;1.128234e-001
7.270626e+002;1.104173e-001
7.289911e+002;1.088459e-001
7.309197e+002;1.077434e-001
7.328483e+002;1.070536e-001
7.347768e+002;1.065086e-001
7.367053e+002;1.050042e-001
7.386339e+002;1.032821e-001
7.405624e+002;1.019418e-001
7.424910e+002;9.959140e-002
7.444196e+002;9.732484e-002
7.463481e+002;9.656630e-002
7.482766e+002;9.500246e-002
7.502052e+002;9.338424e-002
7.521337e+002;9.247140e-002
7.540623e+002;9.165167e-002
7.559908e+002;9.102614e-002
7.579194e+002;9.038307e-002
7.598479e+002;8.944984e-002
7.617765e+002;8.834323e-002
7.637050e+002;8.704108e-002
7.656335e+002;8.633395e-002
7.675621e+002;8.607480e-002
7.694907e+002;8.526345e-002
7.714192e+002;8.394609e-002
7.733478e+002;8.333320e-002
7.752763e+002;8.223736e-002
7.772048e+002;8.073065e-002
7.791334e+002;7.998403e-002
7.810620e+002;7.982086e-002
7.829905e+002;7.931103e-002
7.849191e+002;7.847113e-002
7.868476e+002;7.776341e-002
7.887761e+002;7.703018e-002
7.907047e+002;7.606402e-002
7.926332e+002;7.510159e-002
7.945618e+002;7.490131e-002
7.964903e+002;7.446848e-002
7.984189e+002;7.371604e-002
8.003474e+002;7.333481e-002
8.022759e+002;7.333688e-002
8.042045e+002;7.348841e-002
8.061331e+002;7.399388e-002
8.080616e+002;7.402917e-002
8.099902e+002;7.435219e-002
8.119187e+002;7.508847e-002
8.138472e+002;7.534776e-002
8.157758e+002;7.555772e-002
8.177043e+002;7.610686e-002
8.196329e+002;7.591175e-002
8.215615e+002;7.579365e-002
8.234900e+002;7.626374e-002
8.254185e+002;7.606572e-002
8.273471e+002;7.615700e-002
8.292756e+002;7.649129e-002
8.312042e+002;7.634985e-002
8.331328e+002;7.559408e-002
8.350613e+002;7.439505e-002
8.369898e+002;7.318243e-002
8.389184e+002;7.261805e-002
8.408469e+002;7.243879e-002
8.427755e+002;7.239499e-002
8.447040e+002;7.259980e-002
8.466326e+002;7.266995e-002
8.485611e+002;7.303006e-002
8.504897e+002;7.340899e-002
8.524182e+002;7.341500e-002
8.543467e+002;7.275354e-002
8.562753e+002;7.132641e-002
8.582039e+002;7.001544e-002
8.601324e+002;6.918810e-002
8.620610e+002;6.832688e-002
8.639895e+002;6.746544e-002
8.659180e+002;6.692908e-002
8.678466e+002;6.650969e-002
8.697751e+002;6.611542e-002
8.717037e+002;6.574430e-002
8.736323e+002;6.551708e-002
8.755608e+002;6.558423e-002
8.774893e+002;6.573980e-002
8.794179e+002;6.606230e-002
8.813464e+002;6.633320e-002
8.832750e+002;6.644404e-002
8.852036e+002;6.644662e-002
8.871321e+002;6.651536e-002
8.890606e+002;6.634999e-002
8.909892e+002;6.605598e-002
8.929177e+002;6.621695e-002
8.948463e+002;6.624929e-002
8.967748e+002;6.624284e-002
8.987034e+002;6.620575e-002
9.006319e+002;6.591835e-002
9.025605e+002;6.578806e-002
9.044890e+002;6.603040e-002
9.064175e+002;6.631355e-002
9.083461e+002;6.665193e-002
9.102747e+002;6.690206e-002
9.122032e+002;6.700609e-002
9.141318e+002;6.752771e-002
9.160603e+002;6.824064e-002
9.179888e+002;6.909831e-002
9.199174e+002;7.033540e-002
9.218459e+002;7.145040e-002
9.237745e+002;7.226986e-002
9.257031e+002;7.309742e-002
9.276316e+002;7.373187e-002
9.295601e+002;7.385671e-002
9.314887e+002;7.387953e-002
9.334172e+002;7.402296e-002
9.353458e+002;7.404791e-002
9.372744e+002;7.396352e-002
9.392029e+002;7.384465e-002
9.411314e+002;7.397601e-002
9.430600e+002;7.446753e-002
9.449885e+002;7.484544e-002
9.469171e+002;7.508627e-002
9.488456e+002;7.538753e-002
9.507742e+002;7.600189e-002
9.527027e+002;7.669461e-002
9.546313e+002;7.719713e-002
9.565598e+002;7.769846e-002
9.584883e+002;7.841314e-002
9.604169e+002;7.920660e-002
9.623455e+002;8.008192e-002
9.642740e+002;8.089352e-002
9.662026e+002;8.186425e-002
9.681311e+002;8.322407e-002
9.700596e+002;8.466312e-002
9.719882e+002;8.576930e-002
9.739167e+002;8.657682e-002
9.758453e+002;8.707298e-002
9.777739e+002;8.701116e-002
9.797024e+002;8.678884e-002
9.816309e+002;8.670060e-002
9.835595e+002;8.647649e-002
9.854880e+002;8.622987e-002
9.874166e+002;8.640266e-002
9.893452e+002;8.717450e-002
9.912737e+002;8.858475e-002
9.932022e+002;8.995252e-002
9.951307e+002;9.050409e-002
9.970593e+002;9.057773e-002
9.989879e+002;9.046912e-002
1.000916e+003;9.032559e-002
1.002845e+003;8.995786e-002
1.004773e+003;8.968803e-002
1.006702e+003;8.964339e-002
1.008631e+003;8.951682e-002
1.010559e+003;8.968282e-002
1.012488e+003;8.987007e-002
1.014416e+003;8.978336e-002
1.016345e+003;8.958832e-002
1.018273e+003;8.886056e-002
1.020202e+003;8.820875e-002
1.022130e+003;8.805723e-002
1.024059e+003;8.844379e-002
1.025988e+003;8.932272e-002
1.027916e+003;9.037275e-002
1.029845e+003;9.157766e-002
1.031773e+003;9.255078e-002
1.033702e+003;9.381381e-002
1.035630e+003;9.547330e-002
1.037559e+003;9.653593e-002
1.039487e+003;9.722184e-002
1.041416e+003;9.769928e-002
1.043344e+003;9.800261e-002
1.045273e+003;9.831049e-002
1.047202e+003;9.878222e-002
1.049130e+003;9.955107e-002
1.051059e+003;1.003613e-001
1.052987e+003;1.011453e-001
1.054916e+003;1.017102e-001
1.056844e+003;1.024536e-001
1.058773e+003;1.036272e-001
1.060701e+003;1.050268e-001
1.062630e+003;1.059065e-001
1.064558e+003;1.063847e-001
1.066487e+003;1.069029e-001
1.068416e+003;1.068669e-001
1.070344e+003;1.063615e-001
1.072273e+003;1.057318e-001
1.074201e+003;1.046770e-001
1.076130e+003;1.036017e-001
1.078058e+003;1.023920e-001
1.079987e+003;1.008837e-001
1.081915e+003;9.963508e-002
1.083844e+003;9.838923e-002
1.085773e+003;9.646533e-002
1.087701e+003;9.474872e-002
1.089630e+003;9.344562e-002
1.091558e+003;9.250801e-002
1.093487e+003;9.216678e-002
1.095415e+003;9.157205e-002
1.097344e+003;9.091722e-002
1.099272e+003;9.070330e-002
1.101201e+003;9.069885e-002
1.103129e+003;9.103006e-002
1.105058e+003;9.106619e-002
1.106987e+003;9.068934e-002
1.108915e+003;8.993337e-002
1.110844e+003;8.932280e-002
1.112772e+003;8.867509e-002
1.114701e+003;8.793786e-002
1.116629e+003;8.763219e-002
1.118558e+003;8.740330e-002
1.120486e+003;8.711133e-002
1.122415e+003;8.711141e-002
1.124344e+003;8.676832e-002
1.126272e+003;8.638233e-002
1.128201e+003;8.672993e-002
1.130129e+003;8.722999e-002
1.132058e+003;8.761435e-002
1.133986e+003;8.821984e-002
1.135915e+003;8.859483e-002
1.137843e+003;8.916385e-002
1.139772e+003;9.001354e-002
1.141700e+003;9.050393e-002
1.143629e+003;9.115164e-002
1.145557e+003;9.270461e-002
1.147486e+003;9.408164e-002
1.149415e+003;9.475223e-002
1.151343e+003;9.532908e-002
1.153272e+003;9.606877e-002
1.155200e+003;9.691382e-002
1.157129e+003;9.804746e-002
1.159057e+003;9.879595e-002
1.160986e+003;9.911854e-002
1.162914e+003;9.950686e-002
1.164843e+003;9.996384e-002
1.166771e+003;1.005801e-001
1.168700e+003;1.010630e-001
1.170629e+003;1.015787e-001
1.172557e+003;1.016335e-001
1.174486e+003;1.009898e-001
1.176414e+003;1.002460e-001
1.178343e+003;9.955031e-002
1.180271e+003;9.882241e-002
1.182200e+003;9.813256e-002
1.184128e+003;9.782838e-002
1.186057e+003;9.815224e-002
1.187986e+003;9.872994e-002
1.189914e+003;9.944998e-002
1.191843e+003;1.006084e-001
1.193771e+003;1.021595e-001
1.195700e+003;1.037134e-001
1.197628e+003;1.054226e-001
1.199557e+003;1.075772e-001
1.201485e+003;1.100798e-001
1.203414e+003;1.127331e-001
1.205343e+003;1.157132e-001
1.207271e+003;1.186306e-001
1.209200e+003;1.213096e-001
1.211128e+003;1.238430e-001
1.213057e+003;1.264497e-001
1.214985e+003;1.287450e-001
1.216914e+003;1.307755e-001
1.218842e+003;1.327729e-001
1.220771e+003;1.347800e-001
1.222699e+003;1.365835e-001
1.224628e+003;1.375703e-001
1.226557e+003;1.381460e-001
1.228485e+003;1.390764e-001
1.230414e+003;1.396716e-001
1.232342e+003;1.394660e-001
1.234271e+003;1.387507e-001
1.236199e+003;1.380191e-001
1.238128e+003;1.372396e-001
1.240056e+003;1.362415e-001
1.241985e+003;1.352178e-001
1.243913e+003;1.342975e-001
1.245842e+003;1.336883e-001
1.247771e+003;1.330078e-001
1.249699e+003;1.323175e-001
1.251628e+003;1.317943e-001
1.253556e+003;1.314656e-001
1.255485e+003;1.310756e-001
1.257413e+003;1.304620e-001
1.259342e+003;1.298296e-001
1.261270e+003;1.290627e-001
1.263199e+003;1.279036e-001
1.265127e+003;1.260330e-001
1.267056e+003;1.236395e-001
1.268985e+003;1.210434e-001
1.270913e+003;1.187343e-001
1.272842e+003;1.167530e-001
1.274770e+003;1.149622e-001
1.276699e+003;1.134447e-001
1.278627e+003;1.119658e-001
1.280556e+003;1.105143e-001
1.282484e+003;1.093195e-001
1.284413e+003;1.082392e-001
1.286342e+003;1.072849e-001
1.288270e+003;1.064697e-001
1.290199e+003;1.057477e-001
1.292127e+003;1.053623e-001
1.294056e+003;1.048404e-001
1.295984e+003;1.041026e-001
1.297913e+003;1.038099e-001
1.299841e+003;1.037678e-001
1.301770e+003;1.034526e-001
1.303698e+003;1.031042e-001
1.305627e+003;1.028354e-001
1.307556e+003;1.026084e-001
1.309484e+003;1.020239e-001
1.311413e+003;1.013385e-001
1.313341e+003;1.009211e-001
1.315270e+003;1.004023e-001
1.317198e+003;9.996492e-002
1.319127e+003;9.990340e-002
1.321055e+003;9.987943e-002
1.322984e+003;9.986400e-002
1.324912e+003;1.000976e-001
1.326841e+003;1.003614e-001
1.328770e+003;1.004193e-001
1.330698e+003;1.005795e-001
1.332627e+003;1.006056e-001
1.334555e+003;1.003141e-001
1.336484e+003;1.001783e-001
1.338412e+003;1.001463e-001
1.340341e+003;1.001799e-001
1.342269e+003;1.000310e-001
1.344198e+003;9.952357e-002
1.346126e+003;9.911603e-002
1.348055e+003;9.907824e-002
1.349984e+003;9.900869e-002
1.351912e+003;9.907150e-002
1.353841e+003;9.938812e-002
1.355769e+003;9.978373e-002
1.357698e+003;1.003372e-001
1.359626e+003;1.013729e-001
1.361555e+003;1.028197e-001
1.363483e+003;1.041983e-001
1.365412e+003;1.054958e-001
1.367341e+003;1.065405e-001
1.369269e+003;1.070700e-001
1.371198e+003;1.069149e-001
1.373126e+003;1.065120e-001
1.375055e+003;1.062452e-001
1.376983e+003;1.059996e-001
1.378912e+003;1.058958e-001
1.380840e+003;1.058867e-001
1.382769e+003;1.058673e-001
1.384698e+003;1.059941e-001
1.386626e+003;1.059678e-001
1.388555e+003;1.058619e-001
1.390483e+003;1.059131e-001
1.392412e+003;1.059024e-001
1.394340e+003;1.057822e-001
1.396269e+003;1.056269e-001
1.398197e+003;1.057726e-001
1.400126e+003;1.063011e-001
1.402054e+003;1.067171e-001
1.403983e+003;1.069429e-001
1.405911e+003;1.073377e-001
1.407840e+003;1.077605e-001
1.409769e+003;1.082867e-001
1.411697e+003;1.086064e-001
1.413626e+003;1.084449e-001
1.415554e+003;1.083823e-001
1.417483e+003;1.086580e-001
1.419411e+003;1.090772e-001
1.421340e+003;1.097052e-001
1.423268e+003;1.105698e-001
1.425197e+003;1.119326e-001
1.427125e+003;1.138339e-001
1.429054e+003;1.161310e-001
1.430983e+003;1.188866e-001
1.432911e+003;1.219955e-001
1.434840e+003;1.248783e-001
1.436768e+003;1.270668e-001
1.438697e+003;1.287552e-001
1.440625e+003;1.300243e-001
1.442554e+003;1.306314e-001
1.444482e+003;1.307749e-001
1.446411e+003;1.306249e-001
1.448340e+003;1.295756e-001
1.450268e+003;1.277855e-001
1.452197e+003;1.257601e-001
1.454125e+003;1.236897e-001
1.456054e+003;1.212353e-001
1.457982e+003;1.187497e-001
1.459911e+003;1.170365e-001
1.461839e+003;1.159687e-001
1.463768e+003;1.154006e-001
1.465697e+003;1.147921e-001
1.467625e+003;1.144627e-001
1.469554e+003;1.148657e-001
1.471482e+003;1.155902e-001
1.473411e+003;1.163539e-001
1.475339e+003;1.175352e-001
1.477268e+003;1.192050e-001
1.479196e+003;1.213585e-001
1.481125e+003;1.241640e-001
1.483053e+003;1.274038e-001
1.484982e+003;1.310782e-001
1.486911e+003;1.352648e-001
1.488839e+003;1.397201e-001
1.490768e+003;1.443175e-001
1.492696e+003;1.489386e-001
1.494625e+003;1.534300e-001
1.496553e+003;1.581054e-001
1.498482e+003;1.629215e-001
1.500410e+003;1.673305e-001
1.502339e+003;1.714343e-001
1.504267e+003;1.752877e-001
1.506196e+003;1.788202e-001
1.508125e+003;1.821135e-001
1.510053e+003;1.846673e-001
1.511982e+003;1.868801e-001
1.513910e+003;1.883869e-001
1.515839e+003;1.884554e-001
1.517767e+003;1.868360e-001
1.519696e+003;1.839271e-001
1.521624e+003;1.807995e-001
1.523553e+003;1.779462e-001
1.525481e+003;1.751913e-001
1.527410e+003;1.723585e-001
1.529339e+003;1.698453e-001
1.531267e+003;1.678311e-001
1.533196e+003;1.653860e-001
1.535124e+003;1.623386e-001
1.537053e+003;1.595802e-001
1.538981e+003;1.568806e-001
1.540910e+003;1.537637e-001
1.542838e+003;1.506870e-001
1.544767e+003;1.479329e-001
1.546695e+003;1.453350e-001
1.548624e+003;1.427307e-001
1.550553e+003;1.403018e-001
1.552481e+003;1.378803e-001
1.554410e+003;1.351973e-001
1.556338e+003;1.322305e-001
1.558267e+003;1.292962e-001
1.560195e+003;1.263592e-001
1.562124e+003;1.236183e-001
1.564052e+003;1.207781e-001
1.565981e+003;1.177775e-001
1.567910e+003;1.152817e-001
1.569838e+003;1.129992e-001
1.571767e+003;1.110515e-001
1.573695e+003;1.094817e-001
1.575624e+003;1.082143e-001
1.577552e+003;1.073434e-001
1.579481e+003;1.069967e-001
1.581409e+003;1.069560e-001
1.583338e+003;1.073638e-001
1.585266e+003;1.085160e-001
1.587195e+003;1.102098e-001
1.589124e+003;1.123441e-001
1.591052e+003;1.150060e-001
1.592981e+003;1.182833e-001
1.594909e+003;1.222302e-001
1.596838e+003;1.266158e-001
1.598766e+003;1.313101e-001
1.600695e+003;1.367551e-001
1.602623e+003;1.429712e-001
1.604552e+003;1.500451e-001
1.606480e+003;1.580665e-001
1.608409e+003;1.662154e-001
1.610338e+003;1.743731e-001
1.612266e+003;1.825734e-001
1.614195e+003;1.899200e-001
1.616123e+003;1.961353e-001
1.618052e+003;2.010661e-001
1.619980e+003;2.043738e-001
1.621909e+003;2.060617e-001
1.623837e+003;2.063335e-001
1.625766e+003;2.049955e-001
1.627694e+003;2.022521e-001
1.629623e+003;1.989743e-001
1.631552e+003;1.949711e-001
1.633480e+003;1.905448e-001
1.635409e+003;1.860734e-001
1.637337e+003;1.817889e-001
1.639266e+003;1.776201e-001
1.641194e+003;1.735965e-001
1.643123e+003;1.699459e-001
1.645051e+003;1.666933e-001
1.646980e+003;1.633999e-001
1.648909e+003;1.598864e-001
1.650837e+003;1.565122e-001
1.652766e+003;1.527723e-001
1.654694e+003;1.487018e-001
1.656623e+003;1.450950e-001
1.658551e+003;1.416765e-001
1.660480e+003;1.382453e-001
1.662408e+003;1.347287e-001
1.664337e+003;1.313982e-001
1.666266e+003;1.282338e-001
1.668194e+003;1.251662e-001
1.670123e+003;1.221267e-001
1.672051e+003;1.194527e-001
1.673980e+003;1.165933e-001
1.675908e+003;1.135080e-001
1.677837e+003;1.109351e-001
1.679765e+003;1.084784e-001
1.681694e+003;1.060555e-001
1.683622e+003;1.038085e-001
1.685551e+003;1.015747e-001
1.687479e+003;9.991191e-002
1.689408e+003;9.844509e-002
1.691337e+003;9.690028e-002
1.693265e+003;9.556619e-002
1.695194e+003;9.456191e-002
1.697122e+003;9.359241e-002
1.699051e+003;9.210344e-002
1.700979e+003;8.892554e-002
1.702908e+003;8.420775e-002
1.704836e+003;7.866723e-002
1.706765e+003;7.280914e-002
1.708693e+003;6.721344e-002
1.710622e+003;6.255650e-002
1.712551e+003;5.886184e-002
1.714479e+003;5.586394e-002
1.716408e+003;5.315603e-002
1.718336e+003;5.084375e-002
1.720265e+003;4.892177e-002
1.722193e+003;4.723949e-002
1.724122e+003;4.579699e-002
1.726050e+003;4.471785e-002
1.727979e+003;4.371942e-002
1.729908e+003;4.261146e-002
1.731836e+003;4.163142e-002
1.733765e+003;4.097386e-002
1.735693e+003;4.017742e-002
1.737622e+003;3.929171e-002
1.739550e+003;3.852065e-002
1.741479e+003;3.776356e-002
1.743407e+003;3.728383e-002
1.745336e+003;3.667575e-002
1.747265e+003;3.600416e-002
1.749193e+003;3.561887e-002
1.751122e+003;3.511118e-002
1.753050e+003;3.473371e-002
1.754979e+003;3.444164e-002
1.756907e+003;3.387016e-002
1.758836e+003;3.343353e-002
1.760764e+003;3.343865e-002
1.762693e+003;3.337117e-002
1.764621e+003;3.293640e-002
1.766550e+003;3.240163e-002
1.768479e+003;3.219580e-002
1.770407e+003;3.224265e-002
1.772336e+003;3.190279e-002
1.774264e+003;3.163927e-002
1.776193e+003;3.177308e-002
1.778121e+003;3.176107e-002
1.780050e+003;3.163303e-002
1.781978e+003;3.134689e-002
1.783907e+003;3.098442e-002
1.785835e+003;3.077328e-002
1.787764e+003;3.070528e-002
1.789693e+003;3.046104e-002
1.791621e+003;3.010204e-002
1.793550e+003;2.988189e-002
1.795478e+003;2.995813e-002
1.797407e+003;2.984015e-002
1.799335e+003;2.963577e-002
1.801264e+003;2.955408e-002
1.803192e+003;2.941301e-002
1.805121e+003;2.915547e-002
1.807049e+003;2.899165e-002
1.808978e+003;2.889191e-002
1.810907e+003;2.862197e-002
1.812835e+003;2.839563e-002
1.814764e+003;2.821085e-002
1.816692e+003;2.798967e-002
1.818621e+003;2.793207e-002
1.820549e+003;2.790536e-002
1.822478e+003;2.791606e-002
1.824406e+003;2.804572e-002
1.826335e+003;2.797649e-002
1.828264e+003;2.774844e-002
1.830192e+003;2.755507e-002
1.832121e+003;2.731986e-002
1.834049e+003;2.699212e-002
1.835978e+003;2.682150e-002
1.837906e+003;2.685921e-002
1.839835e+003;2.682294e-002
1.841763e+003;2.665144e-002
1.843692e+003;2.660980e-002
1.845620e+003;2.659063e-002
1.847549e+003;2.645961e-002
1.849478e+003;2.629976e-002
1.851406e+003;2.608174e-002
1.853335e+003;2.583558e-002
1.855263e+003;2.580763e-002
1.857192e+003;2.579880e-002
1.859120e+003;2.587557e-002
1.861049e+003;2.595157e-002
1.862977e+003;2.590722e-002
1.864906e+003;2.587311e-002
1.866834e+003;2.577212e-002
1.868763e+003;2.563990e-002
1.870692e+003;2.561414e-002
1.872620e+003;2.558317e-002
1.874549e+003;2.557098e-002
1.876477e+003;2.549465e-002
1.878406e+003;2.553327e-002
1.880334e+003;2.549536e-002
1.882263e+003;2.543376e-002
1.884191e+003;2.534236e-002
1.886120e+003;2.516157e-002
1.888048e+003;2.508476e-002
1.889977e+003;2.520308e-002
1.891906e+003;2.518738e-002
1.893834e+003;2.502723e-002
1.895763e+003;2.494261e-002
1.897691e+003;2.479142e-002
1.899620e+003;2.471001e-002
1.901548e+003;2.464393e-002
1.903477e+003;2.434767e-002
1.905405e+003;2.431522e-002
1.907334e+003;2.445650e-002
1.909262e+003;2.435317e-002
1.911191e+003;2.428375e-002
1.913120e+003;2.422678e-002
1.915048e+003;2.426669e-002
1.916977e+003;2.446656e-002
1.918905e+003;2.449664e-002
1.920834e+003;2.434350e-002
1.922762e+003;2.412428e-002
1.924691e+003;2.416705e-002
1.926619e+003;2.428579e-002
1.928548e+003;2.415455e-002
1.930477e+003;2.399516e-002
1.932405e+003;2.393532e-002
1.934334e+003;2.388596e-002
1.936262e+003;2.389352e-002
1.938191e+003;2.392919e-002
1.940119e+003;2.405189e-002
1.942048e+003;2.410211e-002
1.943976e+003;2.397884e-002
1.945905e+003;2.379712e-002
1.947833e+003;2.383922e-002
1.949762e+003;2.387202e-002
1.951691e+003;2.396746e-002
1.953619e+003;2.401928e-002
1.955548e+003;2.377290e-002
1.957476e+003;2.372688e-002
1.959405e+003;2.364283e-002
1.961333e+003;2.363247e-002
1.963262e+003;2.379222e-002
1.965190e+003;2.399663e-002
1.967119e+003;2.400164e-002
1.969047e+003;2.373818e-002
1.970976e+003;2.353305e-002
1.972905e+003;2.351185e-002
1.974833e+003;2.348628e-002
1.976762e+003;2.351350e-002
1.978690e+003;2.347013e-002
1.980619e+003;2.304697e-002
1.982547e+003;2.293298e-002
1.984476e+003;2.307804e-002
1.986404e+003;2.307017e-002
1.988333e+003;2.322258e-002
1.990261e+003;2.334683e-002
1.992190e+003;2.333707e-002
1.994119e+003;2.340403e-002
1.996047e+003;2.330872e-002
1.997976e+003;2.314408e-002
1.999904e+003;2.328092e-002
2.001833e+003;2.327379e-002
2.003761e+003;2.300403e-002
2.005690e+003;2.294653e-002
2.007618e+003;2.291964e-002
2.009547e+003;2.282572e-002
2.011476e+003;2.276482e-002
2.013404e+003;2.261209e-002
2.015333e+003;2.246226e-002
2.017261e+003;2.265865e-002
2.019190e+003;2.293976e-002
2.021118e+003;2.293916e-002
2.023047e+003;2.275756e-002
2.024975e+003;2.253286e-002
2.026904e+003;2.246041e-002
2.028833e+003;2.273025e-002
2.030761e+003;2.293553e-002
2.032690e+003;2.280410e-002
2.034618e+003;2.273860e-002
2.036547e+003;2.278078e-002
2.038475e+003;2.259338e-002
2.040404e+003;2.237044e-002
2.042332e+003;2.242113e-002
2.044261e+003;2.261945e-002
2.046189e+003;2.265771e-002
2.048118e+003;2.263090e-002
2.050047e+003;2.261205e-002
2.051975e+003;2.253855e-002
2.053904e+003;2.255156e-002
2.055832e+003;2.250853e-002
2.057761e+003;2.253219e-002
2.059689e+003;2.265387e-002
2.061618e+003;2.260154e-002
2.063546e+003;2.242441e-002
2.065475e+003;2.233974e-002
2.067404e+003;2.252469e-002
2.069332e+003;2.248805e-002
2.071260e+003;2.247214e-002
2.073189e+003;2.250840e-002
2.075118e+003;2.264779e-002
2.077046e+003;2.273434e-002
2.078975e+003;2.238477e-002
2.080903e+003;2.217861e-002
2.082832e+003;2.226422e-002
2.084760e+003;2.239786e-002
2.086689e+003;2.244792e-002
2.088617e+003;2.232917e-002
2.090546e+003;2.215943e-002
2.092475e+003;2.207405e-002
2.094403e+003;2.218384e-002
2.096332e+003;2.240689e-002
2.098260e+003;2.240435e-002
2.100189e+003;2.215919e-002
2.102117e+003;2.205606e-002
2.104046e+003;2.199973e-002
2.105974e+003;2.193058e-002
2.107903e+003;2.196867e-002
2.109832e+003;2.208443e-002
2.111760e+003;2.194525e-002
2.113688e+003;2.166245e-002
2.115617e+003;2.148062e-002
2.117546e+003;2.165876e-002
2.119474e+003;2.188151e-002
2.121403e+003;2.175702e-002
2.123331e+003;2.168380e-002
2.125260e+003;2.179165e-002
2.127188e+003;2.187754e-002
2.129117e+003;2.192723e-002
2.131045e+003;2.187444e-002
2.132974e+003;2.170227e-002
2.134903e+003;2.156588e-002
2.136831e+003;2.149433e-002
2.138760e+003;2.148497e-002
2.140688e+003;2.147512e-002
2.142617e+003;2.156296e-002
2.144545e+003;2.171115e-002
2.146474e+003;2.173995e-002
2.148402e+003;2.161871e-002
2.150331e+003;2.144817e-002
2.152260e+003;2.130870e-002
2.154188e+003;2.126764e-002
2.156117e+003;2.137619e-002
2.158045e+003;2.143052e-002
2.159974e+003;2.139958e-002
2.161902e+003;2.138820e-002
2.163831e+003;2.142248e-002
2.165759e+003;2.147456e-002
2.167688e+003;2.149510e-002
2.169616e+003;2.161457e-002
2.171545e+003;2.166569e-002
2.173474e+003;2.170505e-002
2.175402e+003;2.160955e-002
2.177331e+003;2.152351e-002
2.179259e+003;2.142088e-002
2.181188e+003;2.110851e-002
2.183116e+003;2.098306e-002
2.185045e+003;2.112166e-002
2.186973e+003;2.091366e-002
2.188902e+003;2.092079e-002
2.190831e+003;2.086460e-002
2.192759e+003;2.068984e-002
2.194688e+003;2.072188e-002
2.196616e+003;2.077745e-002
2.198545e+003;2.078910e-002
2.200473e+003;2.079946e-002
2.202402e+003;2.098859e-002
2.204330e+003;2.109884e-002
2.206259e+003;2.111213e-002
2.208188e+003;2.107619e-002
2.210116e+003;2.073759e-002
2.212044e+003;2.059095e-002
2.213973e+003;2.061339e-002
2.215902e+003;2.052737e-002
2.217830e+003;2.056052e-002
2.219759e+003;2.050803e-002
2.221687e+003;2.060728e-002
2.223616e+003;2.053655e-002
2.225544e+003;2.041185e-002
2.227473e+003;2.055954e-002
2.229401e+003;2.075559e-002
2.231330e+003;2.077245e-002
2.233259e+003;2.048225e-002
2.235187e+003;2.043373e-002
2.237116e+003;2.054582e-002
2.239044e+003;2.036639e-002
2.240973e+003;2.023161e-002
2.242901e+003;2.023620e-002
2.244830e+003;2.008102e-002
2.246758e+003;2.021027e-002
2.248687e+003;2.053491e-002
2.250615e+003;2.055009e-002
2.252544e+003;2.021870e-002
2.254473e+003;2.008088e-002
2.256401e+003;2.032476e-002
2.258330e+003;2.030233e-002
2.260258e+003;2.012217e-002
2.262187e+003;2.019541e-002
2.264115e+003;2.032691e-002
2.266044e+003;2.013016e-002
2.267972e+003;2.006970e-002
2.269901e+003;2.028157e-002
2.271830e+003;2.016698e-002
2.273758e+003;2.014904e-002
2.275687e+003;2.016653e-002
2.277615e+003;1.994542e-002
2.279544e+003;1.997699e-002
2.281472e+003;2.010982e-002
2.283401e+003;2.012662e-002
2.285329e+003;2.021113e-002
2.287258e+003;2.023491e-002
2.289187e+003;2.013571e-002
2.291115e+003;2.017930e-002
2.293043e+003;2.043231e-002
2.294972e+003;2.068383e-002
2.296901e+003;2.075730e-002
2.298829e+003;2.066732e-002
2.300758e+003;2.058199e-002
2.302686e+003;2.048660e-002
2.304615e+003;2.044978e-002
2.306543e+003;2.050500e-002
2.308472e+003;2.055565e-002
2.310400e+003;2.060061e-002
2.312329e+003;2.060179e-002
2.314258e+003;2.071354e-002
2.316186e+003;2.089342e-002
2.318115e+003;2.071702e-002
2.320043e+003;2.047274e-002
2.321972e+003;2.059745e-002
2.323900e+003;2.057702e-002
2.325829e+003;2.033862e-002
2.327757e+003;2.010562e-002
2.329686e+003;2.021592e-002
2.331615e+003;2.037737e-002
2.333543e+003;2.037337e-002
2.335472e+003;2.059342e-002
2.337400e+003;2.055593e-002
2.339329e+003;2.036761e-002
2.341257e+003;2.028056e-002
2.343186e+003;2.011260e-002
2.345114e+003;2.010920e-002
2.347043e+003;2.016306e-002
2.348971e+003;2.015102e-002
2.350900e+003;2.032858e-002
2.352829e+003;2.048743e-002
2.354757e+003;2.037011e-002
2.356686e+003;2.030414e-002
2.358614e+003;2.062729e-002
2.360543e+003;2.064553e-002
2.362471e+003;2.028022e-002
2.364400e+003;2.013769e-002
2.366328e+003;2.018104e-002
2.368257e+003;2.022582e-002
2.370186e+003;2.049959e-002
2.372114e+003;2.060592e-002
2.374042e+003;2.042540e-002
2.375971e+003;2.029445e-002
2.377900e+003;2.016431e-002
2.379828e+003;2.033636e-002
2.381757e+003;2.061718e-002
2.383685e+003;2.052255e-002
2.385614e+003;2.031393e-002
2.387542e+003;2.050021e-002
2.389471e+003;2.061795e-002
2.391399e+003;2.065509e-002
2.393328e+003;2.071125e-002
2.395257e+003;2.073008e-002
2.397185e+003;2.075952e-002
2.399114e+003;2.093042e-002
2.401042e+003;2.096021e-002
2.402971e+003;2.097791e-002
2.404899e+003;2.110301e-002
2.406828e+003;2.119875e-002
2.408756e+003;2.127432e-002
2.410685e+003;2.135005e-002
2.412614e+003;2.174072e-002
2.414542e+003;2.181054e-002
2.416471e+003;2.170624e-002
2.418399e+003;2.183151e-002
2.420328e+003;2.197679e-002
2.422256e+003;2.198920e-002
2.424185e+003;2.216361e-002
2.426113e+003;2.224793e-002
2.428042e+003;2.210047e-002
2.429970e+003;2.211919e-002
2.431899e+003;2.221731e-002
2.433828e+003;2.217666e-002
2.435756e+003;2.221934e-002
2.437685e+003;2.254846e-002
2.439613e+003;2.276580e-002
2.441542e+003;2.269695e-002
2.443470e+003;2.260556e-002
2.445399e+003;2.270976e-002
2.447327e+003;2.291272e-002
2.449256e+003;2.270987e-002
2.451185e+003;2.279118e-002
2.453113e+003;2.293853e-002
2.455042e+003;2.286368e-002
2.456970e+003;2.261139e-002
2.458899e+003;2.249391e-002
2.460827e+003;2.276800e-002
2.462756e+003;2.300093e-002
2.464684e+003;2.301004e-002
2.466613e+003;2.295240e-002
2.468542e+003;2.291548e-002
2.470470e+003;2.316931e-002
2.472398e+003;2.329099e-002
2.474327e+003;2.317141e-002
2.476256e+003;2.328550e-002
2.478184e+003;2.327771e-002
2.480113e+003;2.294709e-002
2.482041e+003;2.280166e-002
2.483970e+003;2.282988e-002
2.485898e+003;2.272303e-002
2.487827e+003;2.279964e-002
2.489755e+003;2.297940e-002
2.491684e+003;2.308936e-002
2.493613e+003;2.324981e-002
2.495541e+003;2.342571e-002
2.497470e+003;2.324499e-002
2.499398e+003;2.308590e-002
2.501327e+003;2.304917e-002
2.503255e+003;2.314265e-002
2.505184e+003;2.326628e-002
2.507112e+003;2.324069e-002
2.509041e+003;2.307318e-002
2.510969e+003;2.314314e-002
2.512898e+003;2.332949e-002
2.514827e+003;2.358605e-002
2.516755e+003;2.359213e-002
2.518684e+003;2.349283e-002
2.520612e+003;2.359734e-002
2.522541e+003;2.336490e-002
2.524469e+003;2.293221e-002
2.526398e+003;2.303674e-002
2.528326e+003;2.349709e-002
2.530255e+003;2.351741e-002
2.532184e+003;2.317568e-002
2.534112e+003;2.310770e-002
2.536041e+003;2.333372e-002
2.537969e+003;2.343624e-002
2.539898e+003;2.340004e-002
2.541826e+003;2.345299e-002
2.543755e+003;2.374157e-002
2.545683e+003;2.388414e-002
2.547612e+003;2.371886e-002
2.549541e+003;2.380587e-002
2.551469e+003;2.400748e-002
2.553397e+003;2.407812e-002
2.555326e+003;2.410996e-002
2.557255e+003;2.411959e-002
2.559183e+003;2.410456e-002
2.561112e+003;2.427145e-002
2.563040e+003;2.444342e-002
2.564969e+003;2.451437e-002
2.566897e+003;2.481763e-002
2.568826e+003;2.495802e-002
2.570754e+003;2.490292e-002
2.572683e+003;2.496391e-002
2.574612e+003;2.496289e-002
2.576540e+003;2.510530e-002
2.578469e+003;2.548225e-002
2.580397e+003;2.586126e-002
2.582326e+003;2.592379e-002
2.584254e+003;2.582472e-002
2.586183e+003;2.577778e-002
2.588111e+003;2.589780e-002
2.590040e+003;2.603913e-002
2.591969e+003;2.620328e-002
2.593897e+003;2.650515e-002
2.595826e+003;2.675630e-002
2.597754e+003;2.671715e-002
2.599683e+003;2.669988e-002
2.601611e+003;2.685022e-002
2.603540e+003;2.696592e-002
2.605468e+003;2.700745e-002
2.607397e+003;2.727900e-002
2.609325e+003;2.734545e-002
2.611254e+003;2.714615e-002
2.613183e+003;2.733497e-002
2.615111e+003;2.747522e-002
2.617040e+003;2.730674e-002
2.618968e+003;2.746134e-002
2.620897e+003;2.772640e-002
2.622825e+003;2.767410e-002
2.624754e+003;2.758420e-002
2.626682e+003;2.757540e-002
2.628611e+003;2.764447e-002
2.630540e+003;2.769257e-002
2.632468e+003;2.771651e-002
2.634396e+003;2.752665e-002
2.636325e+003;2.731965e-002
2.638254e+003;2.731090e-002
2.640182e+003;2.766763e-002
2.642111e+003;2.777722e-002
2.644039e+003;2.761255e-002
2.645968e+003;2.754063e-002
2.647896e+003;2.767759e-002
2.649825e+003;2.776355e-002
2.651753e+003;2.761301e-002
2.653682e+003;2.741613e-002
2.655611e+003;2.738493e-002
2.657539e+003;2.745665e-002
2.659468e+003;2.746907e-002
2.661396e+003;2.769645e-002
2.663325e+003;2.774607e-002
2.665253e+003;2.775345e-002
2.667182e+003;2.809348e-002
2.669110e+003;2.849798e-002
2.671039e+003;2.851287e-002
2.672968e+003;2.834498e-002
2.674896e+003;2.840865e-002
2.676825e+003;2.867793e-002
2.678753e+003;2.877018e-002
2.680682e+003;2.892141e-002
2.682610e+003;2.911259e-002
2.684539e+003;2.904850e-002
2.686467e+003;2.911266e-002
2.688396e+003;2.921057e-002
2.690324e+003;2.947212e-002
2.692253e+003;2.985392e-002
2.694182e+003;2.988877e-002
2.696110e+003;2.980484e-002
2.698039e+003;2.977804e-002
2.699967e+003;2.997219e-002
2.701896e+003;3.028703e-002
2.703824e+003;3.030685e-002
2.705753e+003;3.020784e-002
2.707681e+003;3.027264e-002
2.709610e+003;3.039597e-002
2.711539e+003;3.051795e-002
2.713467e+003;3.071840e-002
2.715396e+003;3.092969e-002
2.717324e+003;3.112080e-002
2.719253e+003;3.129077e-002
2.721181e+003;3.142713e-002
2.723110e+003;3.158350e-002
2.725038e+003;3.173462e-002
2.726967e+003;3.176969e-002
2.728896e+003;3.194669e-002
2.730824e+003;3.238603e-002
2.732752e+003;3.276901e-002
2.734681e+003;3.290220e-002
2.736610e+003;3.284948e-002
2.738538e+003;3.303067e-002
2.740467e+003;3.314212e-002
2.742395e+003;3.319205e-002
2.744324e+003;3.334254e-002
2.746252e+003;3.365253e-002
2.748181e+003;3.389595e-002
2.750109e+003;3.398025e-002
2.752038e+003;3.415636e-002
2.753967e+003;3.429543e-002
2.755895e+003;3.434581e-002
2.757824e+003;3.460085e-002
2.759752e+003;3.472951e-002
2.761681e+003;3.475140e-002
2.763609e+003;3.486854e-002
2.765538e+003;3.511513e-002
2.767466e+003;3.529464e-002
2.769395e+003;3.520154e-002
2.771323e+003;3.531829e-002
2.773252e+003;3.552680e-002
2.775181e+003;3.549858e-002
2.777109e+003;3.561811e-002
2.779038e+003;3.591691e-002
2.780966e+003;3.622193e-002
2.782895e+003;3.651538e-002
2.784823e+003;3.673730e-002
2.786752e+003;3.680412e-002
2.788680e+003;3.672140e-002
2.790609e+003;3.684935e-002
2.792538e+003;3.689264e-002
2.794466e+003;3.716272e-002
2.796395e+003;3.758212e-002
2.798323e+003;3.770328e-002
2.800252e+003;3.798652e-002
2.802180e+003;3.836549e-002
2.804109e+003;3.835242e-002
2.806037e+003;3.829825e-002
2.807966e+003;3.843890e-002
2.809895e+003;3.864985e-002
2.811823e+003;3.879381e-002
2.813751e+003;3.889048e-002
2.815680e+003;3.884957e-002
2.817609e+003;3.877808e-002
2.819537e+003;3.913555e-002
2.821466e+003;3.922207e-002
2.823394e+003;3.903259e-002
2.825323e+003;3.948733e-002
2.827251e+003;3.988886e-002
2.829180e+003;3.984586e-002
2.831108e+003;4.002320e-002
2.833037e+003;4.060487e-002
2.834966e+003;4.097489e-002
2.836894e+003;4.092857e-002
2.838823e+003;4.126246e-002
2.840751e+003;4.189826e-002
2.842680e+003;4.214566e-002
2.844608e+003;4.243182e-002
2.846537e+003;4.298015e-002
2.848465e+003;4.349108e-002
2.850394e+003;4.391646e-002
2.852323e+003;4.416893e-002
2.854251e+003;4.458631e-002
2.856180e+003;4.518388e-002
2.858108e+003;4.551509e-002
2.860037e+003;4.611755e-002
2.861965e+003;4.685251e-002
2.863894e+003;4.718936e-002
2.865822e+003;4.745901e-002
2.867751e+003;4.789459e-002
2.869679e+003;4.839597e-002
2.871608e+003;4.878331e-002
2.873536e+003;4.895934e-002
2.875465e+003;4.926483e-002
2.877394e+003;4.953202e-002
2.879322e+003;4.914407e-002
2.881251e+003;4.890486e-002
2.883179e+003;4.918426e-002
2.885108e+003;4.893389e-002
2.887036e+003;4.855923e-002
2.888965e+003;4.870410e-002
2.890893e+003;4.908048e-002
2.892822e+003;4.954171e-002
2.894750e+003;4.957874e-002
2.896679e+003;4.942679e-002
2.898608e+003;4.969675e-002
2.900536e+003;5.005463e-002
2.902465e+003;5.024426e-002
2.904393e+003;5.051507e-002
2.906322e+003;5.081298e-002
2.908250e+003;5.085879e-002
2.910179e+003;5.085641e-002
2.912107e+003;5.103443e-002
2.914036e+003;5.163109e-002
2.915965e+003;5.217069e-002
2.917893e+003;5.247052e-002
2.919822e+003;5.280925e-002
2.921750e+003;5.335103e-002
2.923679e+003;5.403928e-002
2.925607e+003;5.438505e-002
2.927536e+003;5.472701e-002
2.929464e+003;5.515515e-002
2.931393e+003;5.579484e-002
2.933322e+003;5.600682e-002
2.935250e+003;5.590931e-002
2.937178e+003;5.610774e-002
2.939107e+003;5.617614e-002
2.941036e+003;5.599272e-002
2.942964e+003;5.579770e-002
2.944893e+003;5.534424e-002
2.946821e+003;5.472641e-002
2.948750e+003;5.430800e-002
2.950678e+003;5.412267e-002
2.952607e+003;5.394994e-002
2.954535e+003;5.365479e-002
2.956464e+003;5.317505e-002
2.958393e+003;5.316326e-002
2.960321e+003;5.320490e-002
2.962250e+003;5.330911e-002
2.964178e+003;5.356111e-002
2.966107e+003;5.341270e-002
2.968035e+003;5.346074e-002
2.969964e+003;5.380711e-002
2.971892e+003;5.394158e-002
2.973821e+003;5.348585e-002
2.975750e+003;5.298440e-002
2.977678e+003;5.288424e-002
2.979607e+003;5.277666e-002
2.981535e+003;5.250986e-002
2.983464e+003;5.251879e-002
2.985392e+003;5.245814e-002
2.987321e+003;5.241100e-002
2.989249e+003;5.234271e-002
2.991178e+003;5.228885e-002
2.993106e+003;5.195228e-002
2.995035e+003;5.165475e-002
2.996964e+003;5.132054e-002
2.998892e+003;5.078918e-002
3.000821e+003;5.041942e-002
3.002749e+003;5.011256e-002
3.004678e+003;4.987857e-002
3.006606e+003;4.981339e-002
3.008535e+003;4.980317e-002
3.010463e+003;4.975531e-002
3.012392e+003;4.969400e-002
3.014321e+003;4.979068e-002
3.016249e+003;4.972573e-002
3.018177e+003;4.973803e-002
3.020106e+003;4.988110e-002
3.022035e+003;4.989463e-002
3.023963e+003;4.985460e-002
3.025892e+003;5.027271e-002
3.027820e+003;5.081808e-002
3.029749e+003;5.087079e-002
3.031677e+003;5.106201e-002
3.033606e+003;5.163702e-002
3.035534e+003;5.206160e-002
3.037463e+003;5.256490e-002
3.039392e+003;5.307272e-002
3.041320e+003;5.330390e-002
3.043249e+003;5.357055e-002
3.045177e+003;5.395325e-002
3.047106e+003;5.426719e-002
3.049034e+003;5.447527e-002
3.050963e+003;5.464711e-002
3.052891e+003;5.486621e-002
3.054820e+003;5.507021e-002
3.056749e+003;5.516072e-002
3.058677e+003;5.537311e-002
3.060606e+003;5.582875e-002
3.062534e+003;5.606747e-002
3.064463e+003;5.617037e-002
3.066391e+003;5.630822e-002
3.068320e+003;5.647060e-002
3.070248e+003;5.653181e-002
3.072177e+003;5.641415e-002
3.074105e+003;5.653211e-002
3.076034e+003;5.672006e-002
3.077963e+003;5.671474e-002
3.079891e+003;5.659144e-002
3.081820e+003;5.656132e-002
3.083748e+003;5.668027e-002
3.085677e+003;5.667808e-002
3.087605e+003;5.643415e-002
3.089534e+003;5.635213e-002
3.091462e+003;5.626650e-002
3.093391e+003;5.598296e-002
3.095320e+003;5.593178e-002
3.097248e+003;5.583704e-002
3.099177e+003;5.517520e-002
3.101105e+003;5.503429e-002
3.103034e+003;5.495001e-002
3.104962e+003;5.446040e-002
3.106891e+003;5.434052e-002
3.108819e+003;5.410758e-002
3.110748e+003;5.381959e-002
3.112677e+003;5.361794e-002
3.114605e+003;5.365265e-002
3.116533e+003;5.353967e-002
3.118462e+003;5.337328e-002
3.120391e+003;5.332338e-002
3.122319e+003;5.356655e-002
3.124248e+003;5.381374e-002
3.126176e+003;5.348345e-002
3.128105e+003;5.328307e-002
3.130033e+003;5.357651e-002
3.131962e+003;5.350013e-002
3.133890e+003;5.319498e-002
3.135819e+003;5.314989e-002
3.137748e+003;5.336815e-002
3.139676e+003;5.384619e-002
3.141605e+003;5.424068e-002
3.143533e+003;5.440226e-002
3.145462e+003;5.459902e-002
3.147390e+003;5.456772e-002
3.149319e+003;5.467710e-002
3.151247e+003;5.536667e-002
3.153176e+003;5.582724e-002
3.155104e+003;5.577340e-002
3.157033e+003;5.620295e-002
3.158962e+003;5.664237e-002
3.160890e+003;5.687935e-002
3.162819e+003;5.757106e-002
3.164747e+003;5.794302e-002
3.166676e+003;5.800346e-002
3.168604e+003;5.848121e-002
3.170533e+003;5.906355e-002
3.172461e+003;5.974667e-002
3.174390e+003;6.064984e-002
3.176319e+003;6.117819e-002
3.178247e+003;6.135999e-002
3.180176e+003;6.162412e-002
3.182104e+003;6.192715e-002
3.184033e+003;6.213183e-002
3.185961e+003;6.247465e-002
3.187890e+003;6.332678e-002
3.189818e+003;6.407973e-002
3.191747e+003;6.423701e-002
3.193676e+003;6.483049e-002
3.195604e+003;6.564756e-002
3.197532e+003;6.626735e-002
3.199461e+003;6.672542e-002
3.201390e+003;6.726040e-002
3.203318e+003;6.824588e-002
3.205247e+003;6.893560e-002
3.207175e+003;6.917267e-002
3.209104e+003;6.974048e-002
3.211032e+003;7.047089e-002
3.212961e+003;7.109312e-002
3.214889e+003;7.176413e-002
3.216818e+003;7.221746e-002
3.218747e+003;7.264327e-002
3.220675e+003;7.357900e-002
3.222604e+003;7.449939e-002
3.224532e+003;7.495768e-002
3.226461e+003;7.523928e-002
3.228389e+003;7.584266e-002
3.230318e+003;7.675272e-002
3.232246e+003;7.742006e-002
3.234175e+003;7.853032e-002
3.236104e+003;7.955045e-002
3.238032e+003;8.018297e-002
3.239961e+003;8.086590e-002
3.241889e+003;8.155407e-002
3.243818e+003;8.271661e-002
3.245746e+003;8.358116e-002
3.247675e+003;8.442916e-002
3.249603e+003;8.536847e-002
3.251532e+003;8.602495e-002
3.253460e+003;8.713518e-002
3.255389e+003;8.852161e-002
3.257318e+003;8.947577e-002
3.259246e+003;9.042293e-002
3.261175e+003;9.162638e-002
3.263103e+003;9.244098e-002
3.265032e+003;9.320852e-002
3.266960e+003;9.433305e-002
3.268889e+003;9.564126e-002
3.270817e+003;9.705661e-002
3.272746e+003;9.789226e-002
3.274675e+003;9.812109e-002
3.276603e+003;9.856976e-002
3.278531e+003;9.899962e-002
3.280460e+003;9.895771e-002
3.282389e+003;9.894768e-002
3.284317e+003;9.908178e-002
3.286246e+003;9.906001e-002
3.288174e+003;9.893387e-002
3.290103e+003;9.844625e-002
3.292031e+003;9.766513e-002
3.293960e+003;9.688802e-002
3.295888e+003;9.588903e-002
3.297817e+003;9.484822e-002
3.299746e+003;9.410276e-002
3.301674e+003;9.331597e-002
3.303603e+003;9.207928e-002
3.305531e+003;9.092641e-002
3.307460e+003;8.976918e-002
3.309388e+003;8.838908e-002
3.311317e+003;8.734448e-002
3.313245e+003;8.631591e-002
3.315174e+003;8.502377e-002
3.317103e+003;8.361746e-002
3.319031e+003;8.249214e-002
3.320960e+003;8.157830e-002
3.322888e+003;8.047551e-002
3.324817e+003;7.925237e-002
3.326745e+003;7.800420e-002
3.328674e+003;7.683351e-002
3.330602e+003;7.571519e-002
3.332531e+003;7.483024e-002
3.334459e+003;7.430775e-002
3.336388e+003;7.349101e-002
3.338317e+003;7.223445e-002
3.340245e+003;7.130767e-002
3.342174e+003;7.029684e-002
3.344102e+003;6.955692e-002
3.346031e+003;6.895474e-002
3.347959e+003;6.812760e-002
3.349888e+003;6.706834e-002
3.351816e+003;6.674833e-002
3.353745e+003;6.650640e-002
3.355674e+003;6.521411e-002
3.357602e+003;6.451247e-002
3.359531e+003;6.409778e-002
3.361459e+003;6.305258e-002
3.363388e+003;6.247848e-002
3.365316e+003;6.225246e-002
3.367245e+003;6.174056e-002
3.369173e+003;6.151187e-002
3.371102e+003;6.132641e-002
3.373031e+003;6.085079e-002
3.374959e+003;6.034580e-002
3.376887e+003;5.977051e-002
3.378816e+003;5.934668e-002
3.380745e+003;5.854217e-002
3.382673e+003;5.819644e-002
3.384602e+003;5.816844e-002
3.386530e+003;5.770913e-002
3.388459e+003;5.703008e-002
3.390387e+003;5.653796e-002
3.392316e+003;5.636039e-002
3.394244e+003;5.603826e-002
3.396173e+003;5.551850e-002
3.398102e+003;5.510170e-002
3.400030e+003;5.506197e-002
3.401959e+003;5.474915e-002
3.403887e+003;5.418332e-002
3.405816e+003;5.390909e-002
3.407744e+003;5.331113e-002
3.409673e+003;5.252855e-002
3.411601e+003;5.219886e-002
3.413530e+003;5.209025e-002
3.415458e+003;5.182294e-002
3.417387e+003;5.158317e-002
3.419316e+003;5.130085e-002
3.421244e+003;5.075164e-002
3.423173e+003;5.029578e-002
3.425101e+003;5.016161e-002
3.427030e+003;4.975330e-002
3.428958e+003;4.917409e-002
3.430887e+003;4.884987e-002
3.432815e+003;4.852422e-002
3.434744e+003;4.776216e-002
3.436673e+003;4.736393e-002
3.438601e+003;4.738813e-002
3.440530e+003;4.673822e-002
3.442458e+003;4.655609e-002
3.444387e+003;4.677583e-002
3.446315e+003;4.644361e-002
3.448244e+003;4.636630e-002
3.450172e+003;4.614961e-002
3.452101e+003;4.550251e-002
3.454030e+003;4.507587e-002
3.455958e+003;4.495639e-002
3.457886e+003;4.497590e-002
3.459815e+003;4.507999e-002
3.461744e+003;4.492490e-002
3.463672e+003;4.453954e-002
3.465601e+003;4.420925e-002
3.467529e+003;4.386418e-002
3.469458e+003;4.363713e-002
3.471386e+003;4.350159e-002
3.473315e+003;4.345479e-002
3.475243e+003;4.310769e-002
3.477172e+003;4.270229e-002
3.479101e+003;4.288944e-002
3.481029e+003;4.324171e-002
3.482958e+003;4.312185e-002
3.484886e+003;4.263829e-002
3.486815e+003;4.269776e-002
3.488743e+003;4.290568e-002
3.490672e+003;4.269985e-002
3.492600e+003;4.261208e-002
3.494529e+003;4.241041e-002
3.496458e+003;4.203779e-002
3.498386e+003;4.163813e-002
3.500315e+003;4.118963e-002
3.502243e+003;4.059909e-002
3.504172e+003;4.046450e-002
3.506100e+003;4.061983e-002
3.508029e+003;4.081284e-002
3.509957e+003;4.064671e-002
3.511886e+003;4.036890e-002
3.513814e+003;4.007265e-002
3.515743e+003;3.942956e-002
3.517672e+003;3.927869e-002
3.519600e+003;3.938878e-002
3.521529e+003;3.918287e-002
3.523457e+003;3.906424e-002
3.525386e+003;3.879486e-002
3.527314e+003;3.861190e-002
3.529243e+003;3.884982e-002
3.531171e+003;3.898699e-002
3.533100e+003;3.855103e-002
3.535029e+003;3.798753e-002
3.536957e+003;3.715604e-002
3.538885e+003;3.664342e-002
3.540814e+003;3.657114e-002
3.542743e+003;3.666288e-002
3.544671e+003;3.689733e-002
3.546600e+003;3.672043e-002
3.548528e+003;3.612783e-002
3.550457e+003;3.553835e-002
3.552385e+003;3.536135e-002
3.554314e+003;3.538260e-002
3.556242e+003;3.514718e-002
3.558171e+003;3.474936e-002
3.560100e+003;3.443934e-002
3.562028e+003;3.429890e-002
3.563957e+003;3.403891e-002
3.565885e+003;3.336047e-002
3.567814e+003;3.283736e-002
3.569742e+003;3.287786e-002
3.571671e+003;3.291649e-002
3.573599e+003;3.283250e-002
3.575528e+003;3.254071e-002
3.577457e+003;3.212447e-002
3.579385e+003;3.143985e-002
3.581314e+003;3.084214e-002
3.583242e+003;3.057628e-002
3.585171e+003;3.053159e-002
3.587099e+003;3.059455e-002
3.589028e+003;3.058574e-002
3.590956e+003;3.011678e-002
3.592885e+003;2.966408e-002
3.594813e+003;2.936331e-002
3.596742e+003;2.909807e-002
3.598671e+003;2.872055e-002
3.600599e+003;2.846557e-002
3.602528e+003;2.801621e-002
3.604456e+003;2.733408e-002
3.606385e+003;2.720841e-002
3.608313e+003;2.729199e-002
3.610242e+003;2.693941e-002
3.612170e+003;2.649944e-002
3.614099e+003;2.625619e-002
3.616028e+003;2.548689e-002
3.617956e+003;2.452685e-002
3.619885e+003;2.417024e-002
3.621813e+003;2.399975e-002
3.623742e+003;2.367946e-002
3.625670e+003;2.328596e-002
3.627599e+003;2.317672e-002
3.629527e+003;2.305204e-002
3.631456e+003;2.269010e-002
3.633385e+003;2.238547e-002
3.635313e+003;2.165570e-002
3.637241e+003;2.053366e-002
3.639170e+003;2.011499e-002
3.641099e+003;2.017097e-002
3.643027e+003;1.977450e-002
3.644956e+003;1.929236e-002
3.646884e+003;1.899135e-002
3.648813e+003;1.870729e-002
3.650741e+003;1.832552e-002
3.652670e+003;1.786609e-002
3.654598e+003;1.758907e-002
3.656527e+003;1.715010e-002
3.658456e+003;1.658133e-002
3.660384e+003;1.631841e-002
3.662313e+003;1.602523e-002
3.664241e+003;1.540948e-002
3.666170e+003;1.473598e-002
3.668098e+003;1.415338e-002
3.670027e+003;1.389936e-002
3.671955e+003;1.370227e-002
3.673884e+003;1.348809e-002
3.675813e+003;1.310873e-002
3.677741e+003;1.290419e-002
3.679669e+003;1.263881e-002
3.681598e+003;1.196551e-002
3.683527e+003;1.148295e-002
3.685455e+003;1.161603e-002
3.687384e+003;1.185810e-002
3.689312e+003;1.170411e-002
3.691241e+003;1.161484e-002
3.693169e+003;1.132553e-002
3.695098e+003;1.099365e-002
3.697026e+003;1.090405e-002
3.698955e+003;1.086097e-002
3.700884e+003;1.032014e-002
3.702812e+003;1.000450e-002
3.704741e+003;9.970188e-003
3.706669e+003;9.925472e-003
3.708598e+003;9.922861e-003
3.710526e+003;1.008002e-002
3.712455e+003;1.009480e-002
3.714383e+003;1.002562e-002
3.716312e+003;9.913911e-003
3.718240e+003;9.450859e-003
3.720169e+003;9.142985e-003
3.722098e+003;8.970474e-003
3.724026e+003;8.668212e-003
3.725955e+003;8.483388e-003
3.727883e+003;8.539649e-003
3.729812e+003;8.593719e-003
3.731740e+003;8.828396e-003
3.733669e+003;9.134491e-003
3.735597e+003;9.551546e-003
3.737526e+003;9.463795e-003
3.739455e+003;8.892546e-003
3.741383e+003;8.280507e-003
3.743312e+003;8.194938e-003
3.745240e+003;8.567494e-003
3.747169e+003;8.841753e-003
3.749097e+003;8.687277e-003
3.751026e+003;8.695796e-003
3.752954e+003;9.090875e-003
3.754883e+003;9.139364e-003
3.756812e+003;9.039348e-003
3.758740e+003;8.989857e-003
3.760668e+003;8.692314e-003
3.762597e+003;8.400279e-003
3.764526e+003;8.431426e-003
3.766454e+003;8.751813e-003
3.768383e+003;8.576280e-003
3.770311e+003;8.403657e-003
3.772240e+003;8.322454e-003
3.774168e+003;7.955474e-003
3.776097e+003;8.062835e-003
3.778025e+003;8.272639e-003
3.779954e+003;8.175017e-003
3.781883e+003;8.189299e-003
3.783811e+003;8.446224e-003
3.785740e+003;8.576855e-003
3.787668e+003;8.505926e-003
3.789597e+003;8.247918e-003
3.791525e+003;8.330527e-003
3.793454e+003;8.438994e-003
3.795382e+003;8.277907e-003
3.797311e+003;8.151316e-003
3.799240e+003;8.540122e-003
3.801168e+003;8.738053e-003
3.803097e+003;8.320495e-003
3.805025e+003;8.318097e-003
3.806954e+003;8.634513e-003
3.808882e+003;8.567393e-003
3.810811e+003;8.294354e-003
3.812739e+003;8.280710e-003
3.814668e+003;8.629072e-003
3.816596e+003;8.830188e-003
3.818525e+003;8.775615e-003
3.820454e+003;8.554349e-003
3.822382e+003;8.325460e-003
3.824311e+003;8.159689e-003
3.826239e+003;8.129979e-003
3.828168e+003;8.321914e-003
3.830096e+003;8.354710e-003
3.832025e+003;8.138115e-003
3.833953e+003;8.389334e-003
3.835882e+003;8.537689e-003
3.837811e+003;8.291787e-003
3.839739e+003;8.058953e-003
3.841667e+003;8.151923e-003
3.843596e+003;8.519002e-003
3.845525e+003;8.456630e-003
3.847453e+003;8.490889e-003
3.849382e+003;8.476057e-003
3.851310e+003;8.587366e-003
3.853239e+003;8.926131e-003
3.855167e+003;9.116591e-003
3.857096e+003;8.933572e-003
3.859024e+003;8.972368e-003
3.860953e+003;8.926232e-003
3.862882e+003;8.881183e-003
3.864810e+003;8.977002e-003
3.866739e+003;9.029774e-003
3.868667e+003;8.907292e-003
3.870596e+003;8.632384e-003
3.872524e+003;8.794177e-003
3.874453e+003;8.841922e-003
3.876381e+003;8.870802e-003
3.878310e+003;9.072606e-003
3.880239e+003;8.874826e-003
3.882167e+003;8.661655e-003
3.884096e+003;8.574286e-003
3.886024e+003;8.667469e-003
3.887953e+003;8.837323e-003
3.889881e+003;8.937123e-003
3.891810e+003;9.248203e-003
3.893738e+003;9.731946e-003
3.895667e+003;1.011369e-002
3.897595e+003;1.018807e-002
3.899524e+003;9.893538e-003
3.901453e+003;9.862761e-003
3.903381e+003;1.002495e-002
3.905310e+003;9.721915e-003
3.907238e+003;9.761698e-003
3.909167e+003;1.023268e-002
3.911095e+003;1.015639e-002
3.913024e+003;9.826494e-003
3.914952e+003;1.014981e-002
3.916881e+003;1.016080e-002
3.918810e+003;1.014408e-002
3.920738e+003;1.043793e-002
3.922667e+003;1.015816e-002
3.924595e+003;9.922353e-003
3.926524e+003;1.002915e-002
3.928452e+003;1.021538e-002
3.930381e+003;1.035618e-002
3.932309e+003;1.053237e-002
3.934238e+003;1.046553e-002
3.936167e+003;1.048742e-002
3.938095e+003;1.103776e-002
3.940023e+003;1.096273e-002
3.941952e+003;1.104004e-002
3.943881e+003;1.124694e-002
3.945809e+003;1.111968e-002
3.947738e+003;1.113980e-002
3.949666e+003;1.124758e-002
3.951595e+003;1.087734e-002
3.953523e+003;1.086430e-002
3.955452e+003;1.085434e-002
3.957380e+003;1.060695e-002
3.959309e+003;1.043515e-002
3.961238e+003;1.060064e-002
3.963166e+003;1.109140e-002
3.965095e+003;1.131121e-002
3.967023e+003;1.132206e-002
3.968952e+003;1.138545e-002
3.970880e+003;1.102971e-002
3.972809e+003;1.084741e-002
3.974737e+003;1.121756e-002
3.976666e+003;1.132168e-002
3.978594e+003;1.116013e-002
3.980523e+003;1.113250e-002
3.982452e+003;1.129828e-002
3.984380e+003;1.121936e-002
3.986309e+003;1.120250e-002
3.988237e+003;1.140739e-002
3.990166e+003;1.146329e-002
3.992094e+003;1.132321e-002
3.994023e+003;1.121446e-002
3.995951e+003;1.088570e-002
3.997880e+003;1.072594e-002
3.999809e+003;1.096548e-002
4.001737e+003;0.000000e+000
