3.992094e+002;0.000000e+000
4.011380e+002;0.000000e+000
4.030665e+002;0.000000e+000
4.049951e+002;0.000000e+000
4.069236e+002;0.000000e+000
4.088522e+002;0.000000e+000
4.107807e+002;0.000000e+000
4.127093e+002;0.000000e+000
4.146378e+002;0.000000e+000
4.165664e+002;0.000000e+000
4.184949e+002;0.000000e+000
4.204235e+002;0.000000e+000
4.223520e+002;0.000000e+000
4.242806e+002;0.000000e+000
4.262091e+002;0.000000e+000
4.281377e+002;0.000000e+000
4.300662e+002;0.000000e+000
4.319948e+002;0.000000e+000
4.339233e+002;0.000000e+000
4.358519e+002;0.000000e+000
4.377804e+002;0.000000e+000
4.397090e+002;0.000000e+000
4.416375e+002;0.000000e+000
4.435660e+002;0.000000e+000
4.454946e+002;0.000000e+000
4.474232e+002;0.000000e+000
4.493517e+002;0.000000e+000
4.512802e+002;0.000000e+000
4.532088e+002;0.000000e+000
4.551373e+002;0.000000e+000
4.570659e+002;0.000000e+000
4.589944e+002;0.000000e+000
4.609230e+002;0.000000e+000
4.628515e+002;0.000000e+000
4.647801e+002;0.000000e+000
4.667086e+002;0.000000e+000
4.686372e+002;0.000000e+000
4.705657e+002;0.000000e+000
4.724943e+002;0.000000e+000
4.744228e+002;0.000000e+000
4.763513e+002;0.000000e+000
4.782799e+002;0.000000e+000
4.802085e+002;0.000000e+000
4.821370e+002;0.000000e+000
4.840656e+002;0.000000e+000
4.859941e+002;0.000000e+000
4.879226e+002;0.000000e+000
4.898512e+002;0.000000e+000
4.917798e+002;0.000000e+000
4.937083e+002;0.000000e+000
4.956368e+002;0.000000e+000
4.975654e+002;0.000000e+000
4.994939e+002;0.000000e+000
5.014225e+002;0.000000e+000
5.033510e+002;0.000000e+000
5.052796e+002;0.000000e+000
5.072081e+002;0.000000e+000
5.091367e+002;0.000000e+000
5.110652e+002;0.000000e+000
5.129938e+002;0.000000e+000
5.149223e+002;0.000000e+000
5.168509e+002;0.000000e+000
5.187794e+002;0.000000e+000
5.207079e+002;0.000000e+000
5.226365e+002;0.000000e+000
5.245651e+002;0.000000e+000
5.264936e+002;0.000000e+000
5.284222e+002;0.000000e+000
5.303507e+002;0.000000e+000
5.322792e+002;0.000000e+000
5.342078e+002;0.000000e+000
5.361364e+002;0.000000e+000
5.380649e+002;0.000000e+000
5.399935e+002;0.000000e+000
5.419220e+002;0.000000e+000
5.438505e+002;0.000000e+000
5.457791e+002;0.000000e+000
5.477076e+002;0.000000e+000
5.496362e+002;0.000000e+000
5.515648e+002;0.000000e+000
5.534933e+002;0.000000e+000
5.554218e+002;0.000000e+000
5.573504e+002;0.000000e+000
5.592789e+002;0.000000e+000
5.612075e+002;0.000000e+000
5.631360e+002;0.000000e+000
5.650646e+002;0.000000e+000
5.669931e+002;0.000000e+000
5.689217e+002;0.000000e+000
5.708502e+002;0.000000e+000
5.727787e+002;0.000000e+000
5.747073e+002;0.000000e+000
5.766359e+002;0.000000e+000
5.785644e+002;0.000000e+000
5.804930e+002;0.000000e+000
5.824215e+002;0.000000e+000
5.843500e+002;0.000000e+000
5.862786e+002;0.000000e+000
5.882072e+002;0.000000e+000
5.901357e+002;0.000000e+000
5.920643e+002;0.000000e+000
5.939928e+002;0.000000e+000
5.959213e+002;0.000000e+000
5.978499e+002;0.000000e+000
5.997784e+002;2.659379e-001
6.017070e+002;2.653970e-001
6.036355e+002;2.642974e-001
6.055641e+002;2.649584e-001
6.074926e+002;2.686204e-001
6.094211e+002;2.694810e-001
6.113497e+002;2.682657e-001
6.132783e+002;2.638302e-001
6.152068e+002;2.637118e-001
6.171354e+002;2.637636e-001
6.190639e+002;2.658672e-001
6.209924e+002;2.669959e-001
6.229210e+002;2.650297e-001
6.248495e+002;2.645039e-001
6.267781e+002;2.598522e-001
6.287067e+002;2.591951e-001
6.306352e+002;2.613836e-001
6.325637e+002;2.558717e-001
6.344923e+002;2.509158e-001
6.364208e+002;2.486185e-001
6.383494e+002;2.490538e-001
6.402780e+002;2.486847e-001
6.422065e+002;2.494431e-001
6.441350e+002;2.524435e-001
6.460636e+002;2.517094e-001
6.479921e+002;2.466902e-001
6.499207e+002;2.423594e-001
6.518492e+002;2.410842e-001
6.537778e+002;2.397965e-001
6.557063e+002;2.405979e-001
6.576349e+002;2.411995e-001
6.595634e+002;2.396703e-001
6.614919e+002;2.405045e-001
6.634205e+002;2.416697e-001
6.653491e+002;2.411126e-001
6.672776e+002;2.395332e-001
6.692062e+002;2.400413e-001
6.711347e+002;2.427925e-001
6.730632e+002;2.417989e-001
6.749918e+002;2.397404e-001
6.769203e+002;2.395242e-001
6.788489e+002;2.404950e-001
6.807775e+002;2.387267e-001
6.827060e+002;2.382401e-001
6.846345e+002;2.390622e-001
6.865631e+002;2.384652e-001
6.884916e+002;2.370125e-001
6.904202e+002;2.344650e-001
6.923488e+002;2.325501e-001
6.942773e+002;2.321116e-001
6.962058e+002;2.320655e-001
6.981344e+002;2.306484e-001
7.000629e+002;2.278543e-001
7.019915e+002;2.239575e-001
7.039200e+002;2.217109e-001
7.058486e+002;2.204408e-001
7.077771e+002;2.182258e-001
7.097057e+002;2.154789e-001
7.116342e+002;2.134092e-001
7.135627e+002;2.120824e-001
7.154913e+002;2.093540e-001
7.174199e+002;2.067785e-001
7.193484e+002;2.052036e-001
7.212770e+002;2.020464e-001
7.232055e+002;1.989288e-001
7.251340e+002;1.961816e-001
7.270626e+002;1.931906e-001
7.289911e+002;1.900911e-001
7.309197e+002;1.863268e-001
7.328483e+002;1.835373e-001
7.347768e+002;1.820680e-001
7.367053e+002;1.803731e-001
7.386339e+002;1.778981e-001
7.405624e+002;1.748803e-001
7.424910e+002;1.715057e-001
7.444196e+002;1.682803e-001
7.463481e+002;1.662052e-001
7.482766e+002;1.643703e-001
7.502052e+002;1.623262e-001
7.521337e+002;1.601797e-001
7.540623e+002;1.587383e-001
7.559908e+002;1.578606e-001
7.579194e+002;1.560443e-001
7.598479e+002;1.535155e-001
7.617765e+002;1.515159e-001
7.637050e+002;1.507546e-001
7.656335e+002;1.502420e-001
7.675621e+002;1.486629e-001
7.694907e+002;1.460381e-001
7.714192e+002;1.440254e-001
7.733478e+002;1.429906e-001
7.752763e+002;1.414921e-001
7.772048e+002;1.395096e-001
7.791334e+002;1.383429e-001
7.810620e+002;1.373697e-001
7.829905e+002;1.362694e-001
7.849191e+002;1.349954e-001
7.868476e+002;1.328154e-001
7.887761e+002;1.305695e-001
7.907047e+002;1.297865e-001
7.926332e+002;1.293577e-001
7.945618e+002;1.280796e-001
7.964903e+002;1.277507e-001
7.984189e+002;1.276051e-001
8.003474e+002;1.268427e-001
8.022759e+002;1.265607e-001
8.042045e+002;1.261989e-001
8.061331e+002;1.255342e-001
8.080616e+002;1.254132e-001
8.099902e+002;1.262314e-001
8.119187e+002;1.262439e-001
8.138472e+002;1.256189e-001
8.157758e+002;1.260592e-001
8.177043e+002;1.270901e-001
8.196329e+002;1.275391e-001
8.215615e+002;1.282757e-001
8.234900e+002;1.298944e-001
8.254185e+002;1.311374e-001
8.273471e+002;1.319034e-001
8.292756e+002;1.314633e-001
8.312042e+002;1.296864e-001
8.331328e+002;1.282234e-001
8.350613e+002;1.260466e-001
8.369898e+002;1.242732e-001
8.389184e+002;1.229261e-001
8.408469e+002;1.214030e-001
8.427755e+002;1.205438e-001
8.447040e+002;1.210101e-001
8.466326e+002;1.217543e-001
8.485611e+002;1.215999e-001
8.504897e+002;1.217473e-001
8.524182e+002;1.220091e-001
8.543467e+002;1.212005e-001
8.562753e+002;1.194907e-001
8.582039e+002;1.173873e-001
8.601324e+002;1.160570e-001
8.620610e+002;1.152392e-001
8.639895e+002;1.142620e-001
8.659180e+002;1.134117e-001
8.678466e+002;1.134058e-001
8.697751e+002;1.142467e-001
8.717037e+002;1.153091e-001
8.736323e+002;1.163475e-001
8.755608e+002;1.166638e-001
8.774893e+002;1.163732e-001
8.794179e+002;1.162146e-001
8.813464e+002;1.162239e-001
8.832750e+002;1.161048e-001
8.852036e+002;1.158119e-001
8.871321e+002;1.155482e-001
8.890606e+002;1.151619e-001
8.909892e+002;1.150276e-001
8.929177e+002;1.151313e-001
8.948463e+002;1.149646e-001
8.967748e+002;1.146499e-001
8.987034e+002;1.147522e-001
9.006319e+002;1.146700e-001
9.025605e+002;1.140547e-001
9.044890e+002;1.141036e-001
9.064175e+002;1.142655e-001
9.083461e+002;1.143201e-001
9.102747e+002;1.146944e-001
9.122032e+002;1.152517e-001
9.141318e+002;1.155483e-001
9.160603e+002;1.163758e-001
9.179888e+002;1.178281e-001
9.199174e+002;1.188461e-001
9.218459e+002;1.196475e-001
9.237745e+002;1.206744e-001
9.257031e+002;1.216103e-001
9.276316e+002;1.225838e-001
9.295601e+002;1.231567e-001
9.314887e+002;1.230791e-001
9.334172e+002;1.229315e-001
9.353458e+002;1.232359e-001
9.372744e+002;1.234968e-001
9.392029e+002;1.233619e-001
9.411314e+002;1.237865e-001
9.430600e+002;1.244191e-001
9.449885e+002;1.249535e-001
9.469171e+002;1.258156e-001
9.488456e+002;1.267456e-001
9.507742e+002;1.277485e-001
9.527027e+002;1.290250e-001
9.546313e+002;1.303783e-001
9.565598e+002;1.315548e-001
9.584883e+002;1.327613e-001
9.604169e+002;1.345454e-001
9.623455e+002;1.366658e-001
9.642740e+002;1.386796e-001
9.662026e+002;1.403631e-001
9.681311e+002;1.421550e-001
9.700596e+002;1.438602e-001
9.719882e+002;1.454332e-001
9.739167e+002;1.466317e-001
9.758453e+002;1.472196e-001
9.777739e+002;1.469210e-001
9.797024e+002;1.460632e-001
9.816309e+002;1.455308e-001
9.835595e+002;1.452767e-001
9.854880e+002;1.461572e-001
9.874166e+002;1.482597e-001
9.893452e+002;1.506097e-001
9.912737e+002;1.525093e-001
9.932022e+002;1.532866e-001
9.951307e+002;1.534408e-001
9.970593e+002;1.529616e-001
9.989879e+002;1.520187e-001
1.000916e+003;1.511908e-001
1.002845e+003;1.505828e-001
1.004773e+003;1.500140e-001
1.006702e+003;1.500614e-001
1.008631e+003;1.503452e-001
1.010559e+003;1.505440e-001
1.012488e+003;1.515179e-001
1.014416e+003;1.521811e-001
1.016345e+003;1.515377e-001
1.018273e+003;1.509969e-001
1.020202e+003;1.506755e-001
1.022130e+003;1.507034e-001
1.024059e+003;1.517980e-001
1.025988e+003;1.538896e-001
1.027916e+003;1.565858e-001
1.029845e+003;1.604264e-001
1.031773e+003;1.645409e-001
1.033702e+003;1.680690e-001
1.035630e+003;1.705625e-001
1.037559e+003;1.727020e-001
1.039487e+003;1.746505e-001
1.041416e+003;1.762479e-001
1.043344e+003;1.777952e-001
1.045273e+003;1.785512e-001
1.047202e+003;1.785046e-001
1.049130e+003;1.776844e-001
1.051059e+003;1.759241e-001
1.052987e+003;1.745576e-001
1.054916e+003;1.740032e-001
1.056844e+003;1.740053e-001
1.058773e+003;1.742130e-001
1.060701e+003;1.747116e-001
1.062630e+003;1.750574e-001
1.064558e+003;1.754031e-001
1.066487e+003;1.753644e-001
1.068416e+003;1.742798e-001
1.070344e+003;1.731701e-001
1.072273e+003;1.719698e-001
1.074201e+003;1.697380e-001
1.076130e+003;1.672119e-001
1.078058e+003;1.643681e-001
1.079987e+003;1.607571e-001
1.081915e+003;1.572789e-001
1.083844e+003;1.543800e-001
1.085773e+003;1.517115e-001
1.087701e+003;1.494810e-001
1.089630e+003;1.477253e-001
1.091558e+003;1.460660e-001
1.093487e+003;1.445965e-001
1.095415e+003;1.437471e-001
1.097344e+003;1.435993e-001
1.099272e+003;1.438053e-001
1.101201e+003;1.438927e-001
1.103129e+003;1.431736e-001
1.105058e+003;1.423007e-001
1.106987e+003;1.413263e-001
1.108915e+003;1.403253e-001
1.110844e+003;1.394954e-001
1.112772e+003;1.389546e-001
1.114701e+003;1.392147e-001
1.116629e+003;1.397991e-001
1.118558e+003;1.401584e-001
1.120486e+003;1.405271e-001
1.122415e+003;1.408730e-001
1.124344e+003;1.414566e-001
1.126272e+003;1.422469e-001
1.128201e+003;1.432733e-001
1.130129e+003;1.445103e-001
1.132058e+003;1.456584e-001
1.133986e+003;1.469811e-001
1.135915e+003;1.490607e-001
1.137843e+003;1.516826e-001
1.139772e+003;1.539625e-001
1.141700e+003;1.564931e-001
1.143629e+003;1.591552e-001
1.145557e+003;1.611491e-001
1.147486e+003;1.639193e-001
1.149415e+003;1.669534e-001
1.151343e+003;1.689107e-001
1.153272e+003;1.704825e-001
1.155200e+003;1.722454e-001
1.157129e+003;1.737387e-001
1.159057e+003;1.749613e-001
1.160986e+003;1.761700e-001
1.162914e+003;1.770280e-001
1.164843e+003;1.778623e-001
1.166771e+003;1.790077e-001
1.168700e+003;1.798732e-001
1.170629e+003;1.798560e-001
1.172557e+003;1.795374e-001
1.174486e+003;1.785857e-001
1.176414e+003;1.771282e-001
1.178343e+003;1.762783e-001
1.180271e+003;1.757475e-001
1.182200e+003;1.751608e-001
1.184128e+003;1.752786e-001
1.186057e+003;1.761278e-001
1.187986e+003;1.776856e-001
1.189914e+003;1.793945e-001
1.191843e+003;1.809828e-001
1.193771e+003;1.833572e-001
1.195700e+003;1.857669e-001
1.197628e+003;1.880263e-001
1.199557e+003;1.910461e-001
1.201485e+003;1.944668e-001
1.203414e+003;1.982001e-001
1.205343e+003;2.024851e-001
1.207271e+003;2.069146e-001
1.209200e+003;2.109167e-001
1.211128e+003;2.148132e-001
1.213057e+003;2.188240e-001
1.214985e+003;2.224384e-001
1.216914e+003;2.253956e-001
1.218842e+003;2.278934e-001
1.220771e+003;2.302019e-001
1.222699e+003;2.322853e-001
1.224628e+003;2.338264e-001
1.226557e+003;2.346637e-001
1.228485e+003;2.350498e-001
1.230414e+003;2.344749e-001
1.232342e+003;2.328160e-001
1.234271e+003;2.309137e-001
1.236199e+003;2.288930e-001
1.238128e+003;2.265139e-001
1.240056e+003;2.245184e-001
1.241985e+003;2.228029e-001
1.243913e+003;2.210602e-001
1.245842e+003;2.192239e-001
1.247771e+003;2.179088e-001
1.249699e+003;2.170495e-001
1.251628e+003;2.161660e-001
1.253556e+003;2.153902e-001
1.255485e+003;2.145409e-001
1.257413e+003;2.129272e-001
1.259342e+003;2.105861e-001
1.261270e+003;2.079748e-001
1.263199e+003;2.050915e-001
1.265127e+003;2.020888e-001
1.267056e+003;1.989592e-001
1.268985e+003;1.964013e-001
1.270913e+003;1.941443e-001
1.272842e+003;1.917474e-001
1.274770e+003;1.895652e-001
1.276699e+003;1.879743e-001
1.278627e+003;1.864385e-001
1.280556e+003;1.850805e-001
1.282484e+003;1.842549e-001
1.284413e+003;1.836146e-001
1.286342e+003;1.830484e-001
1.288270e+003;1.828480e-001
1.290199e+003;1.827786e-001
1.292127e+003;1.829978e-001
1.294056e+003;1.829574e-001
1.295984e+003;1.827273e-001
1.297913e+003;1.824085e-001
1.299841e+003;1.821955e-001
1.301770e+003;1.818498e-001
1.303698e+003;1.813066e-001
1.305627e+003;1.807716e-001
1.307556e+003;1.805470e-001
1.309484e+003;1.806082e-001
1.311413e+003;1.808068e-001
1.313341e+003;1.812665e-001
1.315270e+003;1.818268e-001
1.317198e+003;1.827590e-001
1.319127e+003;1.838619e-001
1.321055e+003;1.845812e-001
1.322984e+003;1.852356e-001
1.324912e+003;1.859668e-001
1.326841e+003;1.867578e-001
1.328770e+003;1.873341e-001
1.330698e+003;1.874664e-001
1.332627e+003;1.873024e-001
1.334555e+003;1.868924e-001
1.336484e+003;1.861037e-001
1.338412e+003;1.850691e-001
1.340341e+003;1.842491e-001
1.342269e+003;1.834065e-001
1.344198e+003;1.824692e-001
1.346126e+003;1.817925e-001
1.348055e+003;1.812550e-001
1.349984e+003;1.806988e-001
1.351912e+003;1.805543e-001
1.353841e+003;1.808807e-001
1.355769e+003;1.816985e-001
1.357698e+003;1.831610e-001
1.359626e+003;1.853640e-001
1.361555e+003;1.882087e-001
1.363483e+003;1.912017e-001
1.365412e+003;1.939101e-001
1.367341e+003;1.959959e-001
1.369269e+003;1.970934e-001
1.371198e+003;1.970549e-001
1.373126e+003;1.964337e-001
1.375055e+003;1.959913e-001
1.376983e+003;1.960693e-001
1.378912e+003;1.962860e-001
1.380840e+003;1.969709e-001
1.382769e+003;1.977070e-001
1.384698e+003;1.981665e-001
1.386626e+003;1.985162e-001
1.388555e+003;1.992892e-001
1.390483e+003;1.998900e-001
1.392412e+003;2.004225e-001
1.394340e+003;2.010977e-001
1.396269e+003;2.020793e-001
1.398197e+003;2.034405e-001
1.400126e+003;2.046458e-001
1.402054e+003;2.055975e-001
1.403983e+003;2.066669e-001
1.405911e+003;2.078871e-001
1.407840e+003;2.089222e-001
1.409769e+003;2.095525e-001
1.411697e+003;2.101016e-001
1.413626e+003;2.107157e-001
1.415554e+003;2.111513e-001
1.417483e+003;2.115756e-001
1.419411e+003;2.123139e-001
1.421340e+003;2.134321e-001
1.423268e+003;2.150912e-001
1.425197e+003;2.177403e-001
1.427125e+003;2.214486e-001
1.429054e+003;2.260610e-001
1.430983e+003;2.313832e-001
1.432911e+003;2.372247e-001
1.434840e+003;2.430381e-001
1.436768e+003;2.478332e-001
1.438697e+003;2.510942e-001
1.440625e+003;2.528556e-001
1.442554e+003;2.536667e-001
1.444482e+003;2.536912e-001
1.446411e+003;2.525003e-001
1.448340e+003;2.502731e-001
1.450268e+003;2.468148e-001
1.452197e+003;2.422841e-001
1.454125e+003;2.374596e-001
1.456054e+003;2.326039e-001
1.457982e+003;2.289040e-001
1.459911e+003;2.266138e-001
1.461839e+003;2.244610e-001
1.463768e+003;2.224439e-001
1.465697e+003;2.216977e-001
1.467625e+003;2.221674e-001
1.469554e+003;2.229899e-001
1.471482e+003;2.240854e-001
1.473411e+003;2.259239e-001
1.475339e+003;2.288548e-001
1.477268e+003;2.328057e-001
1.479196e+003;2.378315e-001
1.481125e+003;2.439700e-001
1.483053e+003;2.506230e-001
1.484982e+003;2.575652e-001
1.486911e+003;2.653261e-001
1.488839e+003;2.737088e-001
1.490768e+003;2.825443e-001
1.492696e+003;2.916624e-001
1.494625e+003;3.006014e-001
1.496553e+003;3.091912e-001
1.498482e+003;3.175525e-001
1.500410e+003;3.252099e-001
1.502339e+003;3.320190e-001
1.504267e+003;3.378121e-001
1.506196e+003;3.427603e-001
1.508125e+003;3.478904e-001
1.510053e+003;3.524315e-001
1.511982e+003;3.554762e-001
1.513910e+003;3.561668e-001
1.515839e+003;3.529924e-001
1.517767e+003;3.463501e-001
1.519696e+003;3.380776e-001
1.521624e+003;3.299613e-001
1.523553e+003;3.234516e-001
1.525481e+003;3.179196e-001
1.527410e+003;3.125974e-001
1.529339e+003;3.073801e-001
1.531267e+003;3.023012e-001
1.533196e+003;2.970685e-001
1.535124e+003;2.919066e-001
1.537053e+003;2.866095e-001
1.538981e+003;2.810990e-001
1.540910e+003;2.764798e-001
1.542838e+003;2.725194e-001
1.544767e+003;2.681675e-001
1.546695e+003;2.634569e-001
1.548624e+003;2.585543e-001
1.550553e+003;2.536176e-001
1.552481e+003;2.486771e-001
1.554410e+003;2.434470e-001
1.556338e+003;2.382550e-001
1.558267e+003;2.328400e-001
1.560195e+003;2.273755e-001
1.562124e+003;2.225451e-001
1.564052e+003;2.176545e-001
1.565981e+003;2.128334e-001
1.567910e+003;2.086164e-001
1.569838e+003;2.049866e-001
1.571767e+003;2.019835e-001
1.573695e+003;1.997280e-001
1.575624e+003;1.981719e-001
1.577552e+003;1.978549e-001
1.579481e+003;1.983255e-001
1.581409e+003;1.992010e-001
1.583338e+003;2.008004e-001
1.585266e+003;2.030629e-001
1.587195e+003;2.064654e-001
1.589124e+003;2.108086e-001
1.591052e+003;2.156918e-001
1.592981e+003;2.211099e-001
1.594909e+003;2.271698e-001
1.596838e+003;2.337655e-001
1.598766e+003;2.414417e-001
1.600695e+003;2.504163e-001
1.602623e+003;2.610181e-001
1.604552e+003;2.733167e-001
1.606480e+003;2.867017e-001
1.608409e+003;3.010225e-001
1.610338e+003;3.154444e-001
1.612266e+003;3.287688e-001
1.614195e+003;3.407141e-001
1.616123e+003;3.510982e-001
1.618052e+003;3.594686e-001
1.619980e+003;3.649138e-001
1.621909e+003;3.668867e-001
1.623837e+003;3.662022e-001
1.625766e+003;3.633475e-001
1.627694e+003;3.585429e-001
1.629623e+003;3.519093e-001
1.631552e+003;3.443423e-001
1.633480e+003;3.362679e-001
1.635409e+003;3.279189e-001
1.637337e+003;3.201335e-001
1.639266e+003;3.130710e-001
1.641194e+003;3.061436e-001
1.643123e+003;2.997047e-001
1.645051e+003;2.931970e-001
1.646980e+003;2.865847e-001
1.648909e+003;2.805469e-001
1.650837e+003;2.742444e-001
1.652766e+003;2.671508e-001
1.654694e+003;2.609255e-001
1.656623e+003;2.548013e-001
1.658551e+003;2.479805e-001
1.660480e+003;2.413453e-001
1.662408e+003;2.347220e-001
1.664337e+003;2.285123e-001
1.666266e+003;2.226754e-001
1.668194e+003;2.168471e-001
1.670123e+003;2.111523e-001
1.672051e+003;2.060445e-001
1.673980e+003;2.009465e-001
1.675908e+003;1.958345e-001
1.677837e+003;1.913622e-001
1.679765e+003;1.869380e-001
1.681694e+003;1.824690e-001
1.683622e+003;1.778533e-001
1.685551e+003;1.738819e-001
1.687479e+003;1.712278e-001
1.689408e+003;1.687986e-001
1.691337e+003;1.665546e-001
1.693265e+003;1.648245e-001
1.695194e+003;1.631009e-001
1.697122e+003;1.612359e-001
1.699051e+003;1.576786e-001
1.700979e+003;1.510535e-001
1.702908e+003;1.420559e-001
1.704836e+003;1.310455e-001
1.706765e+003;1.202617e-001
1.708693e+003;1.112762e-001
1.710622e+003;1.042142e-001
1.712551e+003;9.862652e-002
1.714479e+003;9.404609e-002
1.716408e+003;9.008741e-002
1.718336e+003;8.726297e-002
1.720265e+003;8.538730e-002
1.722193e+003;8.373582e-002
1.724122e+003;8.243705e-002
1.726050e+003;8.139347e-002
1.727979e+003;8.046773e-002
1.729908e+003;7.979935e-002
1.731836e+003;7.908308e-002
1.733765e+003;7.836579e-002
1.735693e+003;7.815883e-002
1.737622e+003;7.819418e-002
1.739550e+003;7.780384e-002
1.741479e+003;7.738902e-002
1.743407e+003;7.693408e-002
1.745336e+003;7.644265e-002
1.747265e+003;7.590958e-002
1.749193e+003;7.556690e-002
1.751122e+003;7.527064e-002
1.753050e+003;7.528195e-002
1.754979e+003;7.515039e-002
1.756907e+003;7.504097e-002
1.758836e+003;7.509166e-002
1.760764e+003;7.471905e-002
1.762693e+003;7.440720e-002
1.764621e+003;7.457858e-002
1.766550e+003;7.447143e-002
1.768479e+003;7.408822e-002
1.770407e+003;7.394843e-002
1.772336e+003;7.396477e-002
1.774264e+003;7.400512e-002
1.776193e+003;7.405003e-002
1.778121e+003;7.399176e-002
1.780050e+003;7.392820e-002
1.781978e+003;7.384583e-002
1.783907e+003;7.379089e-002
1.785835e+003;7.374663e-002
1.787764e+003;7.374545e-002
1.789693e+003;7.364090e-002
1.791621e+003;7.337569e-002
1.793550e+003;7.329303e-002
1.795478e+003;7.328228e-002
1.797407e+003;7.320540e-002
1.799335e+003;7.338883e-002
1.801264e+003;7.352530e-002
1.803192e+003;7.341437e-002
1.805121e+003;7.317215e-002
1.807049e+003;7.307911e-002
1.808978e+003;7.290895e-002
1.810907e+003;7.260963e-002
1.812835e+003;7.242380e-002
1.814764e+003;7.236986e-002
1.816692e+003;7.240579e-002
1.818621e+003;7.250402e-002
1.820549e+003;7.241037e-002
1.822478e+003;7.231349e-002
1.824406e+003;7.222295e-002
1.826335e+003;7.203333e-002
1.828264e+003;7.182065e-002
1.830192e+003;7.182562e-002
1.832121e+003;7.185138e-002
1.834049e+003;7.172880e-002
1.835978e+003;7.151087e-002
1.837906e+003;7.130037e-002
1.839835e+003;7.131063e-002
1.841763e+003;7.128893e-002
1.843692e+003;7.093341e-002
1.845620e+003;7.083648e-002
1.847549e+003;7.078121e-002
1.849478e+003;7.073762e-002
1.851406e+003;7.092760e-002
1.853335e+003;7.097578e-002
1.855263e+003;7.077766e-002
1.857192e+003;7.066716e-002
1.859120e+003;7.059082e-002
1.861049e+003;7.064848e-002
1.862977e+003;7.075895e-002
1.864906e+003;7.076374e-002
1.866834e+003;7.076237e-002
1.868763e+003;7.078339e-002
1.870692e+003;7.071812e-002
1.872620e+003;7.076658e-002
1.874549e+003;7.093743e-002
1.876477e+003;7.087158e-002
1.878406e+003;7.088102e-002
1.880334e+003;7.110116e-002
1.882263e+003;7.114363e-002
1.884191e+003;7.101597e-002
1.886120e+003;7.095160e-002
1.888048e+003;7.073383e-002
1.889977e+003;7.066263e-002
1.891906e+003;7.086483e-002
1.893834e+003;7.097633e-002
1.895763e+003;7.087532e-002
1.897691e+003;7.079396e-002
1.899620e+003;7.061285e-002
1.901548e+003;7.047514e-002
1.903477e+003;7.062220e-002
1.905405e+003;7.068992e-002
1.907334e+003;7.059078e-002
1.909262e+003;7.047241e-002
1.911191e+003;7.031932e-002
1.913120e+003;7.011893e-002
1.915048e+003;7.013621e-002
1.916977e+003;7.030463e-002
1.918905e+003;7.047525e-002
1.920834e+003;7.052413e-002
1.922762e+003;7.038746e-002
1.924691e+003;7.051625e-002
1.926619e+003;7.067698e-002
1.928548e+003;7.070576e-002
1.930477e+003;7.072159e-002
1.932405e+003;7.077103e-002
1.934334e+003;7.055394e-002
1.936262e+003;7.032902e-002
1.938191e+003;7.043570e-002
1.940119e+003;7.050433e-002
1.942048e+003;7.043843e-002
1.943976e+003;7.045405e-002
1.945905e+003;7.046890e-002
1.947833e+003;7.069359e-002
1.949762e+003;7.090977e-002
1.951691e+003;7.083706e-002
1.953619e+003;7.099178e-002
1.955548e+003;7.100271e-002
1.957476e+003;7.089654e-002
1.959405e+003;7.083901e-002
1.961333e+003;7.073929e-002
1.963262e+003;7.081182e-002
1.965190e+003;7.098523e-002
1.967119e+003;7.107864e-002
1.969047e+003;7.103661e-002
1.970976e+003;7.098998e-002
1.972905e+003;7.102568e-002
1.974833e+003;7.099845e-002
1.976762e+003;7.090345e-002
1.978690e+003;7.082763e-002
1.980619e+003;7.079712e-002
1.982547e+003;7.083008e-002
1.984476e+003;7.096923e-002
1.986404e+003;7.079373e-002
1.988333e+003;7.079225e-002
1.990261e+003;7.102608e-002
1.992190e+003;7.109117e-002
1.994119e+003;7.088551e-002
1.996047e+003;7.075013e-002
1.997976e+003;7.098433e-002
1.999904e+003;7.115514e-002
2.001833e+003;7.090338e-002
2.003761e+003;7.074261e-002
2.005690e+003;7.092109e-002
2.007618e+003;7.109851e-002
2.009547e+003;7.091032e-002
2.011476e+003;7.094961e-002
2.013404e+003;7.123560e-002
2.015333e+003;7.128092e-002
2.017261e+003;7.144623e-002
2.019190e+003;7.152376e-002
2.021118e+003;7.130076e-002
2.023047e+003;7.127491e-002
2.024975e+003;7.145970e-002
2.026904e+003;7.164723e-002
2.028833e+003;7.157025e-002
2.030761e+003;7.132009e-002
2.032690e+003;7.125968e-002
2.034618e+003;7.146247e-002
2.036547e+003;7.149966e-002
2.038475e+003;7.149743e-002
2.040404e+003;7.166149e-002
2.042332e+003;7.159186e-002
2.044261e+003;7.127971e-002
2.046189e+003;7.125296e-002
2.048118e+003;7.133044e-002
2.050047e+003;7.146420e-002
2.051975e+003;7.153041e-002
2.053904e+003;7.150377e-002
2.055832e+003;7.161910e-002
2.057761e+003;7.186463e-002
2.059689e+003;7.184211e-002
2.061618e+003;7.156900e-002
2.063546e+003;7.144638e-002
2.065475e+003;7.145435e-002
2.067404e+003;7.156900e-002
2.069332e+003;7.175127e-002
2.071260e+003;7.177007e-002
2.073189e+003;7.173040e-002
2.075118e+003;7.167443e-002
2.077046e+003;7.160374e-002
2.078975e+003;7.178066e-002
2.080903e+003;7.211187e-002
2.082832e+003;7.217216e-002
2.084760e+003;7.209568e-002
2.086689e+003;7.206223e-002
2.088617e+003;7.196536e-002
2.090546e+003;7.179860e-002
2.092475e+003;7.181017e-002
2.094403e+003;7.198202e-002
2.096332e+003;7.206000e-002
2.098260e+003;7.204682e-002
2.100189e+003;7.220726e-002
2.102117e+003;7.233714e-002
2.104046e+003;7.245798e-002
2.105974e+003;7.232849e-002
2.107903e+003;7.222369e-002
2.109832e+003;7.227503e-002
2.111760e+003;7.235753e-002
2.113688e+003;7.242592e-002
2.115617e+003;7.229690e-002
2.117546e+003;7.219289e-002
2.119474e+003;7.202320e-002
2.121403e+003;7.188579e-002
2.123331e+003;7.194197e-002
2.125260e+003;7.201096e-002
2.127188e+003;7.219571e-002
2.129117e+003;7.227487e-002
2.131045e+003;7.199144e-002
2.132974e+003;7.184262e-002
2.134903e+003;7.219282e-002
2.136831e+003;7.217360e-002
2.138760e+003;7.183551e-002
2.140688e+003;7.178657e-002
2.142617e+003;7.176217e-002
2.144545e+003;7.169753e-002
2.146474e+003;7.186729e-002
2.148402e+003;7.184778e-002
2.150331e+003;7.176924e-002
2.152260e+003;7.172836e-002
2.154188e+003;7.190976e-002
2.156117e+003;7.214188e-002
2.158045e+003;7.191792e-002
2.159974e+003;7.165942e-002
2.161902e+003;7.180646e-002
2.163831e+003;7.198390e-002
2.165759e+003;7.194635e-002
2.167688e+003;7.188223e-002
2.169616e+003;7.191499e-002
2.171545e+003;7.190862e-002
2.173474e+003;7.198855e-002
2.175402e+003;7.203177e-002
2.177331e+003;7.199504e-002
2.179259e+003;7.196211e-002
2.181188e+003;7.194933e-002
2.183116e+003;7.190576e-002
2.185045e+003;7.201729e-002
2.186973e+003;7.222028e-002
2.188902e+003;7.226779e-002
2.190831e+003;7.221645e-002
2.192759e+003;7.215964e-002
2.194688e+003;7.210033e-002
2.196616e+003;7.212345e-002
2.198545e+003;7.218108e-002
2.200473e+003;7.226646e-002
2.202402e+003;7.224388e-002
2.204330e+003;7.218804e-002
2.206259e+003;7.206270e-002
2.208188e+003;7.181295e-002
2.210116e+003;7.181483e-002
2.212044e+003;7.190025e-002
2.213973e+003;7.200869e-002
2.215902e+003;7.189783e-002
2.217830e+003;7.172821e-002
2.219759e+003;7.171679e-002
2.221687e+003;7.182925e-002
2.223616e+003;7.187773e-002
2.225544e+003;7.174876e-002
2.227473e+003;7.160690e-002
2.229401e+003;7.167732e-002
2.231330e+003;7.169768e-002
2.233259e+003;7.147118e-002
2.235187e+003;7.156022e-002
2.237116e+003;7.170010e-002
2.239044e+003;7.171973e-002
2.240973e+003;7.172012e-002
2.242901e+003;7.157991e-002
2.244830e+003;7.135765e-002
2.246758e+003;7.129240e-002
2.248687e+003;7.131052e-002
2.250615e+003;7.131040e-002
2.252544e+003;7.135890e-002
2.254473e+003;7.141241e-002
2.256401e+003;7.134211e-002
2.258330e+003;7.135195e-002
2.260258e+003;7.151478e-002
2.262187e+003;7.147275e-002
2.264115e+003;7.139046e-002
2.266044e+003;7.145611e-002
2.267972e+003;7.145439e-002
2.269901e+003;7.136250e-002
2.271830e+003;7.132000e-002
2.273758e+003;7.130482e-002
2.275687e+003;7.139963e-002
2.277615e+003;7.152072e-002
2.279544e+003;7.161406e-002
2.281472e+003;7.158436e-002
2.283401e+003;7.167967e-002
2.285329e+003;7.175322e-002
2.287258e+003;7.167260e-002
2.289187e+003;7.165993e-002
2.291115e+003;7.171328e-002
2.293043e+003;7.166892e-002
2.294972e+003;7.156827e-002
2.296901e+003;7.173407e-002
2.298829e+003;7.203407e-002
2.300758e+003;7.184430e-002
2.302686e+003;7.157553e-002
2.304615e+003;7.161073e-002
2.306543e+003;7.174009e-002
2.308472e+003;7.191839e-002
2.310400e+003;7.183277e-002
2.312329e+003;7.145962e-002
2.314258e+003;7.137851e-002
2.316186e+003;7.151681e-002
2.318115e+003;7.144713e-002
2.320043e+003;7.141983e-002
2.321972e+003;7.162320e-002
2.323900e+003;7.168412e-002
2.325829e+003;7.137112e-002
2.327757e+003;7.111666e-002
2.329686e+003;7.135195e-002
2.331615e+003;7.133114e-002
2.333543e+003;7.107978e-002
2.335472e+003;7.116283e-002
2.337400e+003;7.129381e-002
2.339329e+003;7.123333e-002
2.341257e+003;7.128229e-002
2.343186e+003;7.141580e-002
2.345114e+003;7.133368e-002
2.347043e+003;7.122517e-002
2.348971e+003;7.138792e-002
2.350900e+003;7.139623e-002
2.352829e+003;7.124231e-002
2.354757e+003;7.121198e-002
2.356686e+003;7.110475e-002
2.358614e+003;7.110534e-002
2.360543e+003;7.120448e-002
2.362471e+003;7.108520e-002
2.364400e+003;7.115459e-002
2.366328e+003;7.150443e-002
2.368257e+003;7.170046e-002
2.370186e+003;7.159284e-002
2.372114e+003;7.162984e-002
2.374042e+003;7.180028e-002
2.375971e+003;7.184508e-002
2.377900e+003;7.199688e-002
2.379828e+003;7.234544e-002
2.381757e+003;7.234509e-002
2.383685e+003;7.211281e-002
2.385614e+003;7.207311e-002
2.387542e+003;7.219160e-002
2.389471e+003;7.213335e-002
2.391399e+003;7.206814e-002
2.393328e+003;7.240039e-002
2.395257e+003;7.265984e-002
2.397185e+003;7.272361e-002
2.399114e+003;7.268131e-002
2.401042e+003;7.259330e-002
2.402971e+003;7.270171e-002
2.404899e+003;7.276984e-002
2.406828e+003;7.301030e-002
2.408756e+003;7.333041e-002
2.410685e+003;7.339311e-002
2.412614e+003;7.352609e-002
2.414542e+003;7.369936e-002
2.416471e+003;7.381567e-002
2.418399e+003;7.393111e-002
2.420328e+003;7.415728e-002
2.422256e+003;7.438699e-002
2.424185e+003;7.470623e-002
2.426113e+003;7.508757e-002
2.428042e+003;7.519274e-002
2.429970e+003;7.518924e-002
2.431899e+003;7.526575e-002
2.433828e+003;7.538631e-002
2.435756e+003;7.535557e-002
2.437685e+003;7.528742e-002
2.439613e+003;7.543688e-002
2.441542e+003;7.563335e-002
2.443470e+003;7.574540e-002
2.445399e+003;7.573089e-002
2.447327e+003;7.570612e-002
2.449256e+003;7.573590e-002
2.451185e+003;7.574841e-002
2.453113e+003;7.584790e-002
2.455042e+003;7.600580e-002
2.456970e+003;7.587608e-002
2.458899e+003;7.578675e-002
2.460827e+003;7.584956e-002
2.462756e+003;7.592422e-002
2.464684e+003;7.593669e-002
2.466613e+003;7.607713e-002
2.468542e+003;7.624905e-002
2.470470e+003;7.626947e-002
2.472398e+003;7.638030e-002
2.474327e+003;7.657827e-002
2.476256e+003;7.638884e-002
2.478184e+003;7.623068e-002
2.480113e+003;7.645442e-002
2.482041e+003;7.662392e-002
2.483970e+003;7.655444e-002
2.485898e+003;7.642554e-002
2.487827e+003;7.624356e-002
2.489755e+003;7.644419e-002
2.491684e+003;7.669698e-002
2.493613e+003;7.670508e-002
2.495541e+003;7.685909e-002
2.497470e+003;7.695957e-002
2.499398e+003;7.687009e-002
2.501327e+003;7.689121e-002
2.503255e+003;7.720901e-002
2.505184e+003;7.749654e-002
2.507112e+003;7.747574e-002
2.509041e+003;7.734665e-002
2.510969e+003;7.707185e-002
2.512898e+003;7.718700e-002
2.514827e+003;7.762544e-002
2.516755e+003;7.774585e-002
2.518684e+003;7.745713e-002
2.520612e+003;7.743274e-002
2.522541e+003;7.773773e-002
2.524469e+003;7.769010e-002
2.526398e+003;7.779242e-002
2.528326e+003;7.801847e-002
2.530255e+003;7.790980e-002
2.532184e+003;7.785620e-002
2.534112e+003;7.800134e-002
2.536041e+003;7.822937e-002
2.537969e+003;7.830047e-002
2.539898e+003;7.821771e-002
2.541826e+003;7.819299e-002
2.543755e+003;7.820933e-002
2.545683e+003;7.853620e-002
2.547612e+003;7.890586e-002
2.549541e+003;7.905406e-002
2.551469e+003;7.914127e-002
2.553397e+003;7.892938e-002
2.555326e+003;7.881686e-002
2.557255e+003;7.908089e-002
2.559183e+003;7.925145e-002
2.561112e+003;7.937666e-002
2.563040e+003;7.970886e-002
2.564969e+003;8.003100e-002
2.566897e+003;7.996427e-002
2.568826e+003;7.994081e-002
2.570754e+003;8.009586e-002
2.572683e+003;8.010060e-002
2.574612e+003;8.014057e-002
2.576540e+003;8.044352e-002
2.578469e+003;8.064734e-002
2.580397e+003;8.078405e-002
2.582326e+003;8.102727e-002
2.584254e+003;8.114728e-002
2.586183e+003;8.125701e-002
2.588111e+003;8.142719e-002
2.590040e+003;8.157310e-002
2.591969e+003;8.186786e-002
2.593897e+003;8.193155e-002
2.595826e+003;8.186673e-002
2.597754e+003;8.200106e-002
2.599683e+003;8.198930e-002
2.601611e+003;8.209044e-002
2.603540e+003;8.248056e-002
2.605468e+003;8.255821e-002
2.607397e+003;8.238210e-002
2.609325e+003;8.226839e-002
2.611254e+003;8.235422e-002
2.613183e+003;8.253449e-002
2.615111e+003;8.279021e-002
2.617040e+003;8.301659e-002
2.618968e+003;8.298458e-002
2.620897e+003;8.281001e-002
2.622825e+003;8.274435e-002
2.624754e+003;8.277918e-002
2.626682e+003;8.273961e-002
2.628611e+003;8.280107e-002
2.630540e+003;8.294078e-002
2.632468e+003;8.291784e-002
2.634396e+003;8.282100e-002
2.636325e+003;8.265604e-002
2.638254e+003;8.258042e-002
2.640182e+003;8.254615e-002
2.642111e+003;8.252600e-002
2.644039e+003;8.260827e-002
2.645968e+003;8.280107e-002
2.647896e+003;8.293621e-002
2.649825e+003;8.286266e-002
2.651753e+003;8.280015e-002
2.653682e+003;8.284919e-002
2.655611e+003;8.323851e-002
2.657539e+003;8.346429e-002
2.659468e+003;8.330771e-002
2.661396e+003;8.345637e-002
2.663325e+003;8.375844e-002
2.665253e+003;8.367126e-002
2.667182e+003;8.375254e-002
2.669110e+003;8.400362e-002
2.671039e+003;8.394143e-002
2.672968e+003;8.368210e-002
2.674896e+003;8.376644e-002
2.676825e+003;8.420743e-002
2.678753e+003;8.418265e-002
2.680682e+003;8.397380e-002
2.682610e+003;8.414593e-002
2.684539e+003;8.432984e-002
2.686467e+003;8.445323e-002
2.688396e+003;8.449557e-002
2.690324e+003;8.468374e-002
2.692253e+003;8.504235e-002
2.694182e+003;8.513316e-002
2.696110e+003;8.506867e-002
2.698039e+003;8.508108e-002
2.699967e+003;8.529688e-002
2.701896e+003;8.543373e-002
2.703824e+003;8.562816e-002
2.705753e+003;8.617269e-002
2.707681e+003;8.622223e-002
2.709610e+003;8.601203e-002
2.711539e+003;8.620122e-002
2.713467e+003;8.648304e-002
2.715396e+003;8.644500e-002
2.717324e+003;8.665743e-002
2.719253e+003;8.696068e-002
2.721181e+003;8.690057e-002
2.723110e+003;8.673474e-002
2.725038e+003;8.689328e-002
2.726967e+003;8.722096e-002
2.728896e+003;8.750174e-002
2.730824e+003;8.780059e-002
2.732752e+003;8.776287e-002
2.734681e+003;8.752362e-002
2.736610e+003;8.757564e-002
2.738538e+003;8.780343e-002
2.740467e+003;8.800801e-002
2.742395e+003;8.826092e-002
2.744324e+003;8.850094e-002
2.746252e+003;8.852556e-002
2.748181e+003;8.857756e-002
2.750109e+003;8.889118e-002
2.752038e+003;8.907630e-002
2.753967e+003;8.899959e-002
2.755895e+003;8.924543e-002
2.757824e+003;8.943848e-002
2.759752e+003;8.951820e-002
2.761681e+003;8.958320e-002
2.763609e+003;8.953550e-002
2.765538e+003;8.971084e-002
2.767466e+003;8.994412e-002
2.769395e+003;9.008611e-002
2.771323e+003;9.046357e-002
2.773252e+003;9.073155e-002
2.775181e+003;9.064655e-002
2.777109e+003;9.055177e-002
2.779038e+003;9.067472e-002
2.780966e+003;9.068166e-002
2.782895e+003;9.087061e-002
2.784823e+003;9.110497e-002
2.786752e+003;9.126879e-002
2.788680e+003;9.159484e-002
2.790609e+003;9.168121e-002
2.792538e+003;9.165327e-002
2.794466e+003;9.191629e-002
2.796395e+003;9.205098e-002
2.798323e+003;9.200081e-002
2.800252e+003;9.193263e-002
2.802180e+003;9.192264e-002
2.804109e+003;9.197272e-002
2.806037e+003;9.203824e-002
2.807966e+003;9.228257e-002
2.809895e+003;9.259145e-002
2.811823e+003;9.272335e-002
2.813751e+003;9.273873e-002
2.815680e+003;9.268582e-002
2.817609e+003;9.275621e-002
2.819537e+003;9.303382e-002
2.821466e+003;9.318729e-002
2.823394e+003;9.312439e-002
2.825323e+003;9.324384e-002
2.827251e+003;9.347944e-002
2.829180e+003;9.356899e-002
2.831108e+003;9.405609e-002
2.833037e+003;9.457431e-002
2.834966e+003;9.473281e-002
2.836894e+003;9.510403e-002
2.838823e+003;9.555802e-002
2.840751e+003;9.606989e-002
2.842680e+003;9.691465e-002
2.844608e+003;9.770118e-002
2.846537e+003;9.824239e-002
2.848465e+003;9.900025e-002
2.850394e+003;9.984102e-002
2.852323e+003;1.002446e-001
2.854251e+003;1.002801e-001
2.856180e+003;1.002958e-001
2.858108e+003;1.004466e-001
2.860037e+003;1.005840e-001
2.861965e+003;1.006945e-001
2.863894e+003;1.010582e-001
2.865822e+003;1.014023e-001
2.867751e+003;1.020948e-001
2.869679e+003;1.029110e-001
2.871608e+003;1.032106e-001
2.873536e+003;1.032205e-001
2.875465e+003;1.031457e-001
2.877394e+003;1.033002e-001
2.879322e+003;1.034172e-001
2.881251e+003;1.033507e-001
2.883179e+003;1.031545e-001
2.885108e+003;1.029005e-001
2.887036e+003;1.029835e-001
2.888965e+003;1.031581e-001
2.890893e+003;1.033191e-001
2.892822e+003;1.036071e-001
2.894750e+003;1.038856e-001
2.896679e+003;1.041041e-001
2.898608e+003;1.044675e-001
2.900536e+003;1.051932e-001
2.902465e+003;1.054377e-001
2.904393e+003;1.055776e-001
2.906322e+003;1.061081e-001
2.908250e+003;1.070058e-001
2.910179e+003;1.078899e-001
2.912107e+003;1.087529e-001
2.914036e+003;1.098598e-001
2.915965e+003;1.108053e-001
2.917893e+003;1.115995e-001
2.919822e+003;1.125314e-001
2.921750e+003;1.131501e-001
2.923679e+003;1.139948e-001
2.925607e+003;1.152139e-001
2.927536e+003;1.156286e-001
2.929464e+003;1.152149e-001
2.931393e+003;1.151031e-001
2.933322e+003;1.152882e-001
2.935250e+003;1.152215e-001
2.937178e+003;1.147588e-001
2.939107e+003;1.143259e-001
2.941036e+003;1.138243e-001
2.942964e+003;1.128786e-001
2.944893e+003;1.121095e-001
2.946821e+003;1.114823e-001
2.948750e+003;1.107928e-001
2.950678e+003;1.102686e-001
2.952607e+003;1.098734e-001
2.954535e+003;1.094086e-001
2.956464e+003;1.090405e-001
2.958393e+003;1.090770e-001
2.960321e+003;1.089808e-001
2.962250e+003;1.089291e-001
2.964178e+003;1.091357e-001
2.966107e+003;1.093710e-001
2.968035e+003;1.093574e-001
2.969964e+003;1.093222e-001
2.971892e+003;1.095179e-001
2.973821e+003;1.095119e-001
2.975750e+003;1.095237e-001
2.977678e+003;1.094641e-001
2.979607e+003;1.090970e-001
2.981535e+003;1.086564e-001
2.983464e+003;1.082671e-001
2.985392e+003;1.080035e-001
2.987321e+003;1.077759e-001
2.989249e+003;1.075694e-001
2.991178e+003;1.067531e-001
2.993106e+003;1.060907e-001
2.995035e+003;1.057902e-001
2.996964e+003;1.055538e-001
2.998892e+003;1.052726e-001
3.000821e+003;1.049431e-001
3.002749e+003;1.045018e-001
3.004678e+003;1.041758e-001
3.006606e+003;1.041593e-001
3.008535e+003;1.041949e-001
3.010463e+003;1.041295e-001
3.012392e+003;1.041845e-001
3.014321e+003;1.041831e-001
3.016249e+003;1.042214e-001
3.018177e+003;1.044836e-001
3.020106e+003;1.047588e-001
3.022035e+003;1.049161e-001
3.023963e+003;1.052325e-001
3.025892e+003;1.057356e-001
3.027820e+003;1.059992e-001
3.029749e+003;1.063581e-001
3.031677e+003;1.067487e-001
3.033606e+003;1.072683e-001
3.035534e+003;1.080411e-001
3.037463e+003;1.085125e-001
3.039392e+003;1.088168e-001
3.041320e+003;1.089627e-001
3.043249e+003;1.093471e-001
3.045177e+003;1.101242e-001
3.047106e+003;1.105790e-001
3.049034e+003;1.110471e-001
3.050963e+003;1.117319e-001
3.052891e+003;1.119982e-001
3.054820e+003;1.121148e-001
3.056749e+003;1.128109e-001
3.058677e+003;1.132153e-001
3.060606e+003;1.131177e-001
3.062534e+003;1.135281e-001
3.064463e+003;1.143198e-001
3.066391e+003;1.145895e-001
3.068320e+003;1.142934e-001
3.070248e+003;1.140121e-001
3.072177e+003;1.142078e-001
3.074105e+003;1.144660e-001
3.076034e+003;1.143708e-001
3.077963e+003;1.140167e-001
3.079891e+003;1.138403e-001
3.081820e+003;1.140597e-001
3.083748e+003;1.142215e-001
3.085677e+003;1.140099e-001
3.087605e+003;1.138590e-001
3.089534e+003;1.134271e-001
3.091462e+003;1.126266e-001
3.093391e+003;1.121373e-001
3.095320e+003;1.121361e-001
3.097248e+003;1.122391e-001
3.099177e+003;1.121384e-001
3.101105e+003;1.119008e-001
3.103034e+003;1.116650e-001
3.104962e+003;1.115222e-001
3.106891e+003;1.111159e-001
3.108819e+003;1.107604e-001
3.110748e+003;1.107771e-001
3.112677e+003;1.108609e-001
3.114605e+003;1.103343e-001
3.116533e+003;1.099636e-001
3.118462e+003;1.102837e-001
3.120391e+003;1.103024e-001
3.122319e+003;1.098335e-001
3.124248e+003;1.097328e-001
3.126176e+003;1.097641e-001
3.128105e+003;1.095748e-001
3.130033e+003;1.097095e-001
3.131962e+003;1.099317e-001
3.133890e+003;1.099157e-001
3.135819e+003;1.102140e-001
3.137748e+003;1.107988e-001
3.139676e+003;1.113232e-001
3.141605e+003;1.113939e-001
3.143533e+003;1.116410e-001
3.145462e+003;1.120626e-001
3.147390e+003;1.127985e-001
3.149319e+003;1.134994e-001
3.151247e+003;1.138845e-001
3.153176e+003;1.143107e-001
3.155104e+003;1.146329e-001
3.157033e+003;1.148245e-001
3.158962e+003;1.150918e-001
3.160890e+003;1.157933e-001
3.162819e+003;1.168773e-001
3.164747e+003;1.177730e-001
3.166676e+003;1.180938e-001
3.168604e+003;1.181744e-001
3.170533e+003;1.187566e-001
3.172461e+003;1.197959e-001
3.174390e+003;1.208587e-001
3.176319e+003;1.216056e-001
3.178247e+003;1.222952e-001
3.180176e+003;1.228896e-001
3.182104e+003;1.237883e-001
3.184033e+003;1.248673e-001
3.185961e+003;1.254083e-001
3.187890e+003;1.260353e-001
3.189818e+003;1.270476e-001
3.191747e+003;1.283180e-001
3.193676e+003;1.295119e-001
3.195604e+003;1.302794e-001
3.197532e+003;1.308750e-001
3.199461e+003;1.315558e-001
3.201390e+003;1.325292e-001
3.203318e+003;1.336695e-001
3.205247e+003;1.347623e-001
3.207175e+003;1.356996e-001
3.209104e+003;1.368899e-001
3.211032e+003;1.377373e-001
3.212961e+003;1.383179e-001
3.214889e+003;1.392590e-001
3.216818e+003;1.403582e-001
3.218747e+003;1.411446e-001
3.220675e+003;1.422748e-001
3.222604e+003;1.437270e-001
3.224532e+003;1.446349e-001
3.226461e+003;1.454430e-001
3.228389e+003;1.469498e-001
3.230318e+003;1.484227e-001
3.232246e+003;1.496127e-001
3.234175e+003;1.508559e-001
3.236104e+003;1.520231e-001
3.238032e+003;1.533956e-001
3.239961e+003;1.550186e-001
3.241889e+003;1.566522e-001
3.243818e+003;1.584514e-001
3.245746e+003;1.600711e-001
3.247675e+003;1.612528e-001
3.249603e+003;1.626135e-001
3.251532e+003;1.645198e-001
3.253460e+003;1.663375e-001
3.255389e+003;1.680369e-001
3.257318e+003;1.701569e-001
3.259246e+003;1.723015e-001
3.261175e+003;1.747165e-001
3.263103e+003;1.771305e-001
3.265032e+003;1.789184e-001
3.266960e+003;1.804883e-001
3.268889e+003;1.823498e-001
3.270817e+003;1.838800e-001
3.272746e+003;1.852380e-001
3.274675e+003;1.867074e-001
3.276603e+003;1.882592e-001
3.278531e+003;1.893492e-001
3.280460e+003;1.896612e-001
3.282389e+003;1.892334e-001
3.284317e+003;1.890030e-001
3.286246e+003;1.887286e-001
3.288174e+003;1.882409e-001
3.290103e+003;1.876851e-001
3.292031e+003;1.862814e-001
3.293960e+003;1.846338e-001
3.295888e+003;1.832024e-001
3.297817e+003;1.815028e-001
3.299746e+003;1.793564e-001
3.301674e+003;1.769478e-001
3.303603e+003;1.749643e-001
3.305531e+003;1.732367e-001
3.307460e+003;1.713175e-001
3.309388e+003;1.688998e-001
3.311317e+003;1.662511e-001
3.313245e+003;1.640152e-001
3.315174e+003;1.622445e-001
3.317103e+003;1.599375e-001
3.319031e+003;1.572914e-001
3.320960e+003;1.552088e-001
3.322888e+003;1.529074e-001
3.324817e+003;1.505188e-001
3.326745e+003;1.485471e-001
3.328674e+003;1.470376e-001
3.330602e+003;1.455551e-001
3.332531e+003;1.435206e-001
3.334459e+003;1.414781e-001
3.336388e+003;1.397886e-001
3.338317e+003;1.379069e-001
3.340245e+003;1.360580e-001
3.342174e+003;1.344565e-001
3.344102e+003;1.332029e-001
3.346031e+003;1.320765e-001
3.347959e+003;1.306337e-001
3.349888e+003;1.296118e-001
3.351816e+003;1.285952e-001
3.353745e+003;1.270820e-001
3.355674e+003;1.259962e-001
3.357602e+003;1.250419e-001
3.359531e+003;1.240498e-001
3.361459e+003;1.234220e-001
3.363388e+003;1.226532e-001
3.365316e+003;1.220089e-001
3.367245e+003;1.210316e-001
3.369173e+003;1.201550e-001
3.371102e+003;1.192511e-001
3.373031e+003;1.183355e-001
3.374959e+003;1.178389e-001
3.376887e+003;1.170144e-001
3.378816e+003;1.162148e-001
3.380745e+003;1.153778e-001
3.382673e+003;1.147244e-001
3.384602e+003;1.144232e-001
3.386530e+003;1.140247e-001
3.388459e+003;1.134514e-001
3.390387e+003;1.127332e-001
3.392316e+003;1.122614e-001
3.394244e+003;1.120447e-001
3.396173e+003;1.114024e-001
3.398102e+003;1.102313e-001
3.400030e+003;1.093813e-001
3.401959e+003;1.090674e-001
3.403887e+003;1.085027e-001
3.405816e+003;1.077109e-001
3.407744e+003;1.067795e-001
3.409673e+003;1.061233e-001
3.411601e+003;1.060950e-001
3.413530e+003;1.055943e-001
3.415458e+003;1.046759e-001
3.417387e+003;1.040048e-001
3.419316e+003;1.034482e-001
3.421244e+003;1.030025e-001
3.423173e+003;1.024878e-001
3.425101e+003;1.015924e-001
3.427030e+003;1.005199e-001
3.428958e+003;9.990591e-002
3.430887e+003;9.974967e-002
3.432815e+003;9.959553e-002
3.434744e+003;9.872541e-002
3.436673e+003;9.762145e-002
3.438601e+003;9.736361e-002
3.440530e+003;9.763634e-002
3.442458e+003;9.740146e-002
3.444387e+003;9.664229e-002
3.446315e+003;9.638946e-002
3.448244e+003;9.616212e-002
3.450172e+003;9.553985e-002
3.452101e+003;9.494283e-002
3.454030e+003;9.462366e-002
3.455958e+003;9.442908e-002
3.457886e+003;9.377417e-002
3.459815e+003;9.369921e-002
3.461744e+003;9.358194e-002
3.463672e+003;9.300455e-002
3.465601e+003;9.306388e-002
3.467529e+003;9.315530e-002
3.469458e+003;9.281877e-002
3.471386e+003;9.234478e-002
3.473315e+003;9.210480e-002
3.475243e+003;9.218235e-002
3.477172e+003;9.175672e-002
3.479101e+003;9.112229e-002
3.481029e+003;9.106823e-002
3.482958e+003;9.105524e-002
3.484886e+003;9.055515e-002
3.486815e+003;8.988959e-002
3.488743e+003;9.012276e-002
3.490672e+003;9.032004e-002
3.492600e+003;8.998146e-002
3.494529e+003;8.969528e-002
3.496458e+003;8.949487e-002
3.498386e+003;8.950085e-002
3.500315e+003;8.938520e-002
3.502243e+003;8.898682e-002
3.504172e+003;8.834372e-002
3.506100e+003;8.745907e-002
3.508029e+003;8.682566e-002
3.509957e+003;8.682428e-002
3.511886e+003;8.712485e-002
3.513814e+003;8.704120e-002
3.515743e+003;8.654349e-002
3.517672e+003;8.618280e-002
3.519600e+003;8.579518e-002
3.521529e+003;8.542776e-002
3.523457e+003;8.552478e-002
3.525386e+003;8.528849e-002
3.527314e+003;8.485325e-002
3.529243e+003;8.463864e-002
3.531171e+003;8.431794e-002
3.533100e+003;8.436047e-002
3.535029e+003;8.399695e-002
3.536957e+003;8.330980e-002
3.538885e+003;8.311721e-002
3.540814e+003;8.297820e-002
3.542743e+003;8.248337e-002
3.544671e+003;8.213103e-002
3.546600e+003;8.157038e-002
3.548528e+003;8.126748e-002
3.550457e+003;8.129852e-002
3.552385e+003;8.087420e-002
3.554314e+003;8.017069e-002
3.556242e+003;7.974190e-002
3.558171e+003;7.936739e-002
3.560100e+003;7.902504e-002
3.562028e+003;7.893717e-002
3.563957e+003;7.894710e-002
3.565885e+003;7.852873e-002
3.567814e+003;7.823461e-002
3.569742e+003;7.844418e-002
3.571671e+003;7.799813e-002
3.573599e+003;7.739476e-002
3.575528e+003;7.729871e-002
3.577457e+003;7.713456e-002
3.579385e+003;7.680215e-002
3.581314e+003;7.634325e-002
3.583242e+003;7.602305e-002
3.585171e+003;7.572486e-002
3.587099e+003;7.513574e-002
3.589028e+003;7.465054e-002
3.590956e+003;7.471610e-002
3.592885e+003;7.472051e-002
3.594813e+003;7.421804e-002
3.596742e+003;7.368503e-002
3.598671e+003;7.350600e-002
3.600599e+003;7.391504e-002
3.602528e+003;7.406332e-002
3.604456e+003;7.367266e-002
3.606385e+003;7.324765e-002
3.608313e+003;7.275844e-002
3.610242e+003;7.258273e-002
3.612170e+003;7.257086e-002
3.614099e+003;7.238697e-002
3.616028e+003;7.209063e-002
3.617956e+003;7.151025e-002
3.619885e+003;7.120116e-002
3.621813e+003;7.129537e-002
3.623742e+003;7.084619e-002
3.625670e+003;7.035415e-002
3.627599e+003;7.010927e-002
3.629527e+003;6.961048e-002
3.631456e+003;6.946698e-002
3.633385e+003;6.922742e-002
3.635313e+003;6.904400e-002
3.637241e+003;6.885988e-002
3.639170e+003;6.833468e-002
3.641099e+003;6.812620e-002
3.643027e+003;6.840748e-002
3.644956e+003;6.810036e-002
3.646884e+003;6.725375e-002
3.648813e+003;6.652506e-002
3.650741e+003;6.592190e-002
3.652670e+003;6.587408e-002
3.654598e+003;6.601936e-002
3.656527e+003;6.567060e-002
3.658456e+003;6.523652e-002
3.660384e+003;6.502310e-002
3.662313e+003;6.480010e-002
3.664241e+003;6.424597e-002
3.666170e+003;6.364647e-002
3.668098e+003;6.328186e-002
3.670027e+003;6.287201e-002
3.671955e+003;6.233637e-002
3.673884e+003;6.164669e-002
3.675813e+003;6.099612e-002
3.677741e+003;6.076857e-002
3.679669e+003;6.044297e-002
3.681598e+003;6.023014e-002
3.683527e+003;5.988269e-002
3.685455e+003;5.903490e-002
3.687384e+003;5.836290e-002
3.689312e+003;5.821489e-002
3.691241e+003;5.850301e-002
3.693169e+003;5.849269e-002
3.695098e+003;5.813568e-002
3.697026e+003;5.780961e-002
3.698955e+003;5.774444e-002
3.700884e+003;5.750456e-002
3.702812e+003;5.736845e-002
3.704741e+003;5.728489e-002
3.706669e+003;5.729945e-002
3.708598e+003;5.677908e-002
3.710526e+003;5.588738e-002
3.712455e+003;5.576123e-002
3.714383e+003;5.611332e-002
3.716312e+003;5.625685e-002
3.718240e+003;5.610767e-002
3.720169e+003;5.600569e-002
3.722098e+003;5.579491e-002
3.724026e+003;5.545457e-002
3.725955e+003;5.506163e-002
3.727883e+003;5.498202e-002
3.729812e+003;5.516644e-002
3.731740e+003;5.505167e-002
3.733669e+003;5.482113e-002
3.735597e+003;5.449454e-002
3.737526e+003;5.475941e-002
3.739455e+003;5.489298e-002
3.741383e+003;5.465008e-002
3.743312e+003;5.394165e-002
3.745240e+003;5.345722e-002
3.747169e+003;5.373476e-002
3.749097e+003;5.366664e-002
3.751026e+003;5.381056e-002
3.752954e+003;5.405981e-002
3.754883e+003;5.423843e-002
3.756812e+003;5.403418e-002
3.758740e+003;5.422030e-002
3.760668e+003;5.432629e-002
3.762597e+003;5.416336e-002
3.764526e+003;5.403103e-002
3.766454e+003;5.441995e-002
3.768383e+003;5.473626e-002
3.770311e+003;5.436771e-002
3.772240e+003;5.393314e-002
3.774168e+003;5.372119e-002
3.776097e+003;5.372055e-002
3.778025e+003;5.339490e-002
3.779954e+003;5.302304e-002
3.781883e+003;5.310949e-002
3.783811e+003;5.309024e-002
3.785740e+003;5.292058e-002
3.787668e+003;5.336343e-002
3.789597e+003;5.395054e-002
3.791525e+003;5.409144e-002
3.793454e+003;5.423442e-002
3.795382e+003;5.387672e-002
3.797311e+003;5.336777e-002
3.799240e+003;5.326547e-002
3.801168e+003;5.339824e-002
3.803097e+003;5.362540e-002
3.805025e+003;5.341637e-002
3.806954e+003;5.315071e-002
3.808882e+003;5.345778e-002
3.810811e+003;5.377140e-002
3.812739e+003;5.379548e-002
3.814668e+003;5.379154e-002
3.816596e+003;5.390001e-002
3.818525e+003;5.441416e-002
3.820454e+003;5.414692e-002
3.822382e+003;5.367196e-002
3.824311e+003;5.403429e-002
3.826239e+003;5.447474e-002
3.828168e+003;5.469120e-002
3.830096e+003;5.439467e-002
3.832025e+003;5.428093e-002
3.833953e+003;5.416711e-002
3.835882e+003;5.373364e-002
3.837811e+003;5.376015e-002
3.839739e+003;5.410600e-002
3.841667e+003;5.437323e-002
3.843596e+003;5.454060e-002
3.845525e+003;5.437034e-002
3.847453e+003;5.478046e-002
3.849382e+003;5.561445e-002
3.851310e+003;5.569493e-002
3.853239e+003;5.500048e-002
3.855167e+003;5.472739e-002
3.857096e+003;5.494058e-002
3.859024e+003;5.498138e-002
3.860953e+003;5.501071e-002
3.862882e+003;5.518894e-002
3.864810e+003;5.522156e-002
3.866739e+003;5.547143e-002
3.868667e+003;5.533686e-002
3.870596e+003;5.510019e-002
3.872524e+003;5.500424e-002
3.874453e+003;5.517505e-002
3.876381e+003;5.600554e-002
3.878310e+003;5.636473e-002
3.880239e+003;5.626718e-002
3.882167e+003;5.640223e-002
3.884096e+003;5.658299e-002
3.886024e+003;5.666989e-002
3.887953e+003;5.645128e-002
3.889881e+003;5.621506e-002
3.891810e+003;5.594067e-002
3.893738e+003;5.594041e-002
3.895667e+003;5.667442e-002
3.897595e+003;5.726391e-002
3.899524e+003;5.718321e-002
3.901453e+003;5.691013e-002
3.903381e+003;5.683252e-002
3.905310e+003;5.705713e-002
3.907238e+003;5.744514e-002
3.909167e+003;5.740786e-002
3.911095e+003;5.712602e-002
3.913024e+003;5.721363e-002
3.914952e+003;5.766266e-002
3.916881e+003;5.792966e-002
3.918810e+003;5.806966e-002
3.920738e+003;5.849417e-002
3.922667e+003;5.883649e-002
3.924595e+003;5.860386e-002
3.926524e+003;5.810738e-002
3.928452e+003;5.799895e-002
3.930381e+003;5.813110e-002
3.932309e+003;5.818750e-002
3.934238e+003;5.832997e-002
3.936167e+003;5.843556e-002
3.938095e+003;5.854073e-002
3.940023e+003;5.881551e-002
3.941952e+003;5.865574e-002
3.943881e+003;5.846240e-002
3.945809e+003;5.874063e-002
3.947738e+003;5.880868e-002
3.949666e+003;5.930445e-002
3.951595e+003;5.941248e-002
3.953523e+003;5.926335e-002
3.955452e+003;5.908421e-002
3.957380e+003;5.897659e-002
3.959309e+003;5.934874e-002
3.961238e+003;5.956919e-002
3.963166e+003;5.927953e-002
3.965095e+003;5.891367e-002
3.967023e+003;5.922651e-002
3.968952e+003;5.959541e-002
3.970880e+003;5.924167e-002
3.972809e+003;5.936028e-002
3.974737e+003;5.967538e-002
3.976666e+003;5.965972e-002
3.978594e+003;5.955360e-002
3.980523e+003;5.972013e-002
3.982452e+003;5.987090e-002
3.984380e+003;5.995648e-002
3.986309e+003;5.993252e-002
3.988237e+003;5.972986e-002
3.990166e+003;5.943660e-002
3.992094e+003;5.936131e-002
3.994023e+003;5.960267e-002
3.995951e+003;5.968321e-002
3.997880e+003;5.952567e-002
3.999809e+003;5.930031e-002
4.001737e+003;0.000000e+000
