3.992094e+002;0.000000e+000
4.011380e+002;0.000000e+000
4.030665e+002;0.000000e+000
4.049951e+002;0.000000e+000
4.069236e+002;0.000000e+000
4.088522e+002;0.000000e+000
4.107807e+002;0.000000e+000
4.127093e+002;0.000000e+000
4.146378e+002;0.000000e+000
4.165664e+002;0.000000e+000
4.184949e+002;0.000000e+000
4.204235e+002;0.000000e+000
4.223520e+002;0.000000e+000
4.242806e+002;0.000000e+000
4.262091e+002;0.000000e+000
4.281377e+002;0.000000e+000
4.300662e+002;0.000000e+000
4.319948e+002;0.000000e+000
4.339233e+002;0.000000e+000
4.358519e+002;0.000000e+000
4.377804e+002;0.000000e+000
4.397090e+002;0.000000e+000
4.416375e+002;0.000000e+000
4.435660e+002;0.000000e+000
4.454946e+002;0.000000e+000
4.474232e+002;0.000000e+000
4.493517e+002;0.000000e+000
4.512802e+002;0.000000e+000
4.532088e+002;0.000000e+000
4.551373e+002;0.000000e+000
4.570659e+002;0.000000e+000
4.589944e+002;0.000000e+000
4.609230e+002;0.000000e+000
4.628515e+002;0.000000e+000
4.647801e+002;0.000000e+000
4.667086e+002;0.000000e+000
4.686372e+002;0.000000e+000
4.705657e+002;0.000000e+000
4.724943e+002;0.000000e+000
4.744228e+002;0.000000e+000
4.763513e+002;0.000000e+000
4.782799e+002;0.000000e+000
4.802085e+002;0.000000e+000
4.821370e+002;0.000000e+000
4.840656e+002;0.000000e+000
4.859941e+002;0.000000e+000
4.879226e+002;0.000000e+000
4.898512e+002;0.000000e+000
4.917798e+002;0.000000e+000
4.937083e+002;0.000000e+000
4.956368e+002;0.000000e+000
4.975654e+002;0.000000e+000
4.994939e+002;0.000000e+000
5.014225e+002;0.000000e+000
5.033510e+002;0.000000e+000
5.052796e+002;0.000000e+000
5.072081e+002;0.000000e+000
5.091367e+002;0.000000e+000
5.110652e+002;0.000000e+000
5.129938e+002;0.000000e+000
5.149223e+002;0.000000e+000
5.168509e+002;0.000000e+000
5.187794e+002;0.000000e+000
5.207079e+002;0.000000e+000
5.226365e+002;0.000000e+000
5.245651e+002;0.000000e+000
5.264936e+002;0.000000e+000
5.284222e+002;0.000000e+000
5.303507e+002;0.000000e+000
5.322792e+002;0.000000e+000
5.342078e+002;0.000000e+000
5.361364e+002;0.000000e+000
5.380649e+002;0.000000e+000
5.399935e+002;0.000000e+000
5.419220e+002;0.000000e+000
5.438505e+002;0.000000e+000
5.457791e+002;0.000000e+000
5.477076e+002;0.000000e+000
5.496362e+002;0.000000e+000
5.515648e+002;0.000000e+000
5.534933e+002;0.000000e+000
5.554218e+002;0.000000e+000
5.573504e+002;0.000000e+000
5.592789e+002;0.000000e+000
5.612075e+002;0.000000e+000
5.631360e+002;0.000000e+000
5.650646e+002;0.000000e+000
5.669931e+002;0.000000e+000
5.689217e+002;0.000000e+000
5.708502e+002;0.000000e+000
5.727787e+002;0.000000e+000
5.747073e+002;0.000000e+000
5.766359e+002;0.000000e+000
5.785644e+002;0.000000e+000
5.804930e+002;0.000000e+000
5.824215e+002;0.000000e+000
5.843500e+002;0.000000e+000
5.862786e+002;0.000000e+000
5.882072e+002;0.000000e+000
5.901357e+002;0.000000e+000
5.920643e+002;0.000000e+000
5.939928e+002;0.000000e+000
5.959213e+002;0.000000e+000
5.978499e+002;0.000000e+000
5.997784e+002;2.379880e-001
6.017070e+002;2.411855e-001
6.036355e+002;2.462864e-001
6.055641e+002;2.493905e-001
6.074926e+002;2.576925e-001
6.094211e+002;2.593696e-001
6.113497e+002;2.515438e-001
6.132783e+002;2.462147e-001
6.152068e+002;2.467404e-001
6.171354e+002;2.471739e-001
6.190639e+002;2.468271e-001
6.209924e+002;2.492169e-001
6.229210e+002;2.492172e-001
6.248495e+002;2.494506e-001
6.267781e+002;2.460623e-001
6.287067e+002;2.398289e-001
6.306352e+002;2.390703e-001
6.325637e+002;2.375907e-001
6.344923e+002;2.358640e-001
6.364208e+002;2.351238e-001
6.383494e+002;2.309740e-001
6.402780e+002;2.267896e-001
6.422065e+002;2.268819e-001
6.441350e+002;2.314577e-001
6.460636e+002;2.341213e-001
6.479921e+002;2.306609e-001
6.499207e+002;2.285388e-001
6.518492e+002;2.269192e-001
6.537778e+002;2.242021e-001
6.557063e+002;2.223945e-001
6.576349e+002;2.216605e-001
6.595634e+002;2.209192e-001
6.614919e+002;2.225544e-001
6.634205e+002;2.246957e-001
6.653491e+002;2.253133e-001
6.672776e+002;2.245906e-001
6.692062e+002;2.243664e-001
6.711347e+002;2.253609e-001
6.730632e+002;2.246266e-001
6.749918e+002;2.242855e-001
6.769203e+002;2.244870e-001
6.788489e+002;2.248836e-001
6.807775e+002;2.234798e-001
6.827060e+002;2.226118e-001
6.846345e+002;2.227582e-001
6.865631e+002;2.225510e-001
6.884916e+002;2.218449e-001
6.904202e+002;2.200237e-001
6.923488e+002;2.186462e-001
6.942773e+002;2.178367e-001
6.962058e+002;2.163945e-001
6.981344e+002;2.150928e-001
7.000629e+002;2.132965e-001
7.019915e+002;2.106832e-001
7.039200e+002;2.076668e-001
7.058486e+002;2.048729e-001
7.077771e+002;2.033198e-001
7.097057e+002;2.011460e-001
7.116342e+002;1.980516e-001
7.135627e+002;1.959963e-001
7.154913e+002;1.944852e-001
7.174199e+002;1.919073e-001
7.193484e+002;1.886661e-001
7.212770e+002;1.862998e-001
7.232055e+002;1.849438e-001
7.251340e+002;1.825693e-001
7.270626e+002;1.788411e-001
7.289911e+002;1.761587e-001
7.309197e+002;1.743942e-001
7.328483e+002;1.713509e-001
7.347768e+002;1.680289e-001
7.367053e+002;1.657116e-001
7.386339e+002;1.629117e-001
7.405624e+002;1.596921e-001
7.424910e+002;1.566707e-001
7.444196e+002;1.537615e-001
7.463481e+002;1.505080e-001
7.482766e+002;1.477042e-001
7.502052e+002;1.464457e-001
7.521337e+002;1.452769e-001
7.540623e+002;1.435440e-001
7.559908e+002;1.425386e-001
7.579194e+002;1.418302e-001
7.598479e+002;1.405255e-001
7.617765e+002;1.382986e-001
7.637050e+002;1.365326e-001
7.656335e+002;1.368033e-001
7.675621e+002;1.365556e-001
7.694907e+002;1.343322e-001
7.714192e+002;1.319120e-001
7.733478e+002;1.300257e-001
7.752763e+002;1.280258e-001
7.772048e+002;1.261060e-001
7.791334e+002;1.245857e-001
7.810620e+002;1.237237e-001
7.829905e+002;1.224977e-001
7.849191e+002;1.211050e-001
7.868476e+002;1.196049e-001
7.887761e+002;1.172879e-001
7.907047e+002;1.161694e-001
7.926332e+002;1.153895e-001
7.945618e+002;1.135497e-001
7.964903e+002;1.127485e-001
7.984189e+002;1.123581e-001
8.003474e+002;1.114359e-001
8.022759e+002;1.109523e-001
8.042045e+002;1.109240e-001
8.061331e+002;1.111286e-001
8.080616e+002;1.109610e-001
8.099902e+002;1.106768e-001
8.119187e+002;1.107007e-001
8.138472e+002;1.106758e-001
8.157758e+002;1.105430e-001
8.177043e+002;1.104971e-001
8.196329e+002;1.099619e-001
8.215615e+002;1.105710e-001
8.234900e+002;1.122292e-001
8.254185e+002;1.128262e-001
8.273471e+002;1.131728e-001
8.292756e+002;1.134815e-001
8.312042e+002;1.124274e-001
8.331328e+002;1.108651e-001
8.350613e+002;1.090157e-001
8.369898e+002;1.072225e-001
8.389184e+002;1.064930e-001
8.408469e+002;1.064709e-001
8.427755e+002;1.064220e-001
8.447040e+002;1.066799e-001
8.466326e+002;1.069220e-001
8.485611e+002;1.072811e-001
8.504897e+002;1.072310e-001
8.524182e+002;1.066684e-001
8.543467e+002;1.060687e-001
8.562753e+002;1.043544e-001
8.582039e+002;1.022548e-001
8.601324e+002;1.006803e-001
8.620610e+002;9.922570e-002
8.639895e+002;9.838196e-002
8.659180e+002;9.764194e-002
8.678466e+002;9.667706e-002
8.697751e+002;9.651871e-002
8.717037e+002;9.727986e-002
8.736323e+002;9.803168e-002
8.755608e+002;9.821015e-002
8.774893e+002;9.768845e-002
8.794179e+002;9.750700e-002
8.813464e+002;9.759378e-002
8.832750e+002;9.720447e-002
8.852036e+002;9.693656e-002
8.871321e+002;9.713020e-002
8.890606e+002;9.736589e-002
8.909892e+002;9.736995e-002
8.929177e+002;9.740266e-002
8.948463e+002;9.730548e-002
8.967748e+002;9.705935e-002
8.987034e+002;9.697943e-002
9.006319e+002;9.654243e-002
9.025605e+002;9.595296e-002
9.044890e+002;9.602036e-002
9.064175e+002;9.619854e-002
9.083461e+002;9.656370e-002
9.102747e+002;9.683609e-002
9.122032e+002;9.731958e-002
9.141318e+002;9.817068e-002
9.160603e+002;9.919131e-002
9.179888e+002;1.003411e-001
9.199174e+002;1.016678e-001
9.218459e+002;1.029065e-001
9.237745e+002;1.038895e-001
9.257031e+002;1.047166e-001
9.276316e+002;1.052773e-001
9.295601e+002;1.056021e-001
9.314887e+002;1.056978e-001
9.334172e+002;1.055685e-001
9.353458e+002;1.059580e-001
9.372744e+002;1.066352e-001
9.392029e+002;1.067903e-001
9.411314e+002;1.070339e-001
9.430600e+002;1.074449e-001
9.449885e+002;1.076912e-001
9.469171e+002;1.082734e-001
9.488456e+002;1.090764e-001
9.507742e+002;1.097811e-001
9.527027e+002;1.107648e-001
9.546313e+002;1.120393e-001
9.565598e+002;1.131413e-001
9.584883e+002;1.141204e-001
9.604169e+002;1.152482e-001
9.623455e+002;1.165684e-001
9.642740e+002;1.182496e-001
9.662026e+002;1.202195e-001
9.681311e+002;1.218020e-001
9.700596e+002;1.232925e-001
9.719882e+002;1.247333e-001
9.739167e+002;1.256113e-001
9.758453e+002;1.260467e-001
9.777739e+002;1.258104e-001
9.797024e+002;1.251223e-001
9.816309e+002;1.243144e-001
9.835595e+002;1.237757e-001
9.854880e+002;1.242343e-001
9.874166e+002;1.254898e-001
9.893452e+002;1.274640e-001
9.912737e+002;1.297734e-001
9.932022e+002;1.315366e-001
9.951307e+002;1.328074e-001
9.970593e+002;1.335369e-001
9.989879e+002;1.336548e-001
1.000916e+003;1.334491e-001
1.002845e+003;1.329000e-001
1.004773e+003;1.324605e-001
1.006702e+003;1.323660e-001
1.008631e+003;1.324719e-001
1.010559e+003;1.325683e-001
1.012488e+003;1.328516e-001
1.014416e+003;1.329039e-001
1.016345e+003;1.321885e-001
1.018273e+003;1.315344e-001
1.020202e+003;1.309883e-001
1.022130e+003;1.307928e-001
1.024059e+003;1.316219e-001
1.025988e+003;1.330248e-001
1.027916e+003;1.346379e-001
1.029845e+003;1.367340e-001
1.031773e+003;1.391545e-001
1.033702e+003;1.414209e-001
1.035630e+003;1.432053e-001
1.037559e+003;1.446669e-001
1.039487e+003;1.461746e-001
1.041416e+003;1.473796e-001
1.043344e+003;1.480735e-001
1.045273e+003;1.485902e-001
1.047202e+003;1.496867e-001
1.049130e+003;1.506096e-001
1.051059e+003;1.510961e-001
1.052987e+003;1.516800e-001
1.054916e+003;1.530091e-001
1.056844e+003;1.545663e-001
1.058773e+003;1.559719e-001
1.060701e+003;1.570162e-001
1.062630e+003;1.575133e-001
1.064558e+003;1.578911e-001
1.066487e+003;1.578677e-001
1.068416e+003;1.571589e-001
1.070344e+003;1.561854e-001
1.072273e+003;1.546625e-001
1.074201e+003;1.526225e-001
1.076130e+003;1.500266e-001
1.078058e+003;1.471804e-001
1.079987e+003;1.431896e-001
1.081915e+003;1.395171e-001
1.083844e+003;1.370872e-001
1.085773e+003;1.345966e-001
1.087701e+003;1.314673e-001
1.089630e+003;1.288257e-001
1.091558e+003;1.269734e-001
1.093487e+003;1.255164e-001
1.095415e+003;1.247412e-001
1.097344e+003;1.253096e-001
1.099272e+003;1.262349e-001
1.101201e+003;1.260588e-001
1.103129e+003;1.254864e-001
1.105058e+003;1.245797e-001
1.106987e+003;1.233544e-001
1.108915e+003;1.225011e-001
1.110844e+003;1.222078e-001
1.112772e+003;1.221970e-001
1.114701e+003;1.224869e-001
1.116629e+003;1.228005e-001
1.118558e+003;1.230503e-001
1.120486e+003;1.235921e-001
1.122415e+003;1.238769e-001
1.124344e+003;1.239843e-001
1.126272e+003;1.246863e-001
1.128201e+003;1.257480e-001
1.130129e+003;1.271249e-001
1.132058e+003;1.282885e-001
1.133986e+003;1.294536e-001
1.135915e+003;1.311340e-001
1.137843e+003;1.331316e-001
1.139772e+003;1.347390e-001
1.141700e+003;1.366849e-001
1.143629e+003;1.391873e-001
1.145557e+003;1.410319e-001
1.147486e+003;1.430618e-001
1.149415e+003;1.457936e-001
1.151343e+003;1.482906e-001
1.153272e+003;1.503018e-001
1.155200e+003;1.520577e-001
1.157129e+003;1.538183e-001
1.159057e+003;1.555642e-001
1.160986e+003;1.568801e-001
1.162914e+003;1.579284e-001
1.164843e+003;1.589115e-001
1.166771e+003;1.599092e-001
1.168700e+003;1.606974e-001
1.170629e+003;1.608230e-001
1.172557e+003;1.599521e-001
1.174486e+003;1.585906e-001
1.176414e+003;1.571452e-001
1.178343e+003;1.556167e-001
1.180271e+003;1.541595e-001
1.182200e+003;1.532619e-001
1.184128e+003;1.532446e-001
1.186057e+003;1.539232e-001
1.187986e+003;1.551392e-001
1.189914e+003;1.566511e-001
1.191843e+003;1.585220e-001
1.193771e+003;1.614574e-001
1.195700e+003;1.644710e-001
1.197628e+003;1.673868e-001
1.199557e+003;1.707139e-001
1.201485e+003;1.748327e-001
1.203414e+003;1.797250e-001
1.205343e+003;1.844802e-001
1.207271e+003;1.893376e-001
1.209200e+003;1.942518e-001
1.211128e+003;1.988984e-001
1.213057e+003;2.033990e-001
1.214985e+003;2.075881e-001
1.216914e+003;2.109895e-001
1.218842e+003;2.142331e-001
1.220771e+003;2.174117e-001
1.222699e+003;2.198285e-001
1.224628e+003;2.218196e-001
1.226557e+003;2.235002e-001
1.228485e+003;2.241289e-001
1.230414e+003;2.236577e-001
1.232342e+003;2.224367e-001
1.234271e+003;2.207085e-001
1.236199e+003;2.186424e-001
1.238128e+003;2.164623e-001
1.240056e+003;2.143549e-001
1.241985e+003;2.122050e-001
1.243913e+003;2.100281e-001
1.245842e+003;2.078356e-001
1.247771e+003;2.061052e-001
1.249699e+003;2.046681e-001
1.251628e+003;2.031437e-001
1.253556e+003;2.018121e-001
1.255485e+003;2.009547e-001
1.257413e+003;1.995838e-001
1.259342e+003;1.978215e-001
1.261270e+003;1.960853e-001
1.263199e+003;1.939317e-001
1.265127e+003;1.915638e-001
1.267056e+003;1.886149e-001
1.268985e+003;1.856840e-001
1.270913e+003;1.833329e-001
1.272842e+003;1.805859e-001
1.274770e+003;1.773211e-001
1.276699e+003;1.743900e-001
1.278627e+003;1.719379e-001
1.280556e+003;1.699191e-001
1.282484e+003;1.685382e-001
1.284413e+003;1.674174e-001
1.286342e+003;1.664681e-001
1.288270e+003;1.656043e-001
1.290199e+003;1.651359e-001
1.292127e+003;1.648930e-001
1.294056e+003;1.644780e-001
1.295984e+003;1.643316e-001
1.297913e+003;1.643103e-001
1.299841e+003;1.640279e-001
1.301770e+003;1.638861e-001
1.303698e+003;1.638708e-001
1.305627e+003;1.636443e-001
1.307556e+003;1.632711e-001
1.309484e+003;1.630950e-001
1.311413e+003;1.629167e-001
1.313341e+003;1.625803e-001
1.315270e+003;1.624126e-001
1.317198e+003;1.625163e-001
1.319127e+003;1.626433e-001
1.321055e+003;1.628626e-001
1.322984e+003;1.634728e-001
1.324912e+003;1.642547e-001
1.326841e+003;1.650305e-001
1.328770e+003;1.656350e-001
1.330698e+003;1.660410e-001
1.332627e+003;1.666050e-001
1.334555e+003;1.668650e-001
1.336484e+003;1.664925e-001
1.338412e+003;1.659242e-001
1.340341e+003;1.656802e-001
1.342269e+003;1.654002e-001
1.344198e+003;1.648060e-001
1.346126e+003;1.642929e-001
1.348055e+003;1.642184e-001
1.349984e+003;1.641622e-001
1.351912e+003;1.641961e-001
1.353841e+003;1.646709e-001
1.355769e+003;1.656518e-001
1.357698e+003;1.673866e-001
1.359626e+003;1.697272e-001
1.361555e+003;1.725919e-001
1.363483e+003;1.757173e-001
1.365412e+003;1.785416e-001
1.367341e+003;1.804461e-001
1.369269e+003;1.814279e-001
1.371198e+003;1.814544e-001
1.373126e+003;1.808937e-001
1.375055e+003;1.806153e-001
1.376983e+003;1.806636e-001
1.378912e+003;1.806152e-001
1.380840e+003;1.808240e-001
1.382769e+003;1.813314e-001
1.384698e+003;1.816428e-001
1.386626e+003;1.817137e-001
1.388555e+003;1.820704e-001
1.390483e+003;1.823875e-001
1.392412e+003;1.826057e-001
1.394340e+003;1.827351e-001
1.396269e+003;1.832706e-001
1.398197e+003;1.843964e-001
1.400126e+003;1.856182e-001
1.402054e+003;1.868959e-001
1.403983e+003;1.882422e-001
1.405911e+003;1.894214e-001
1.407840e+003;1.901967e-001
1.409769e+003;1.907962e-001
1.411697e+003;1.912623e-001
1.413626e+003;1.916978e-001
1.415554e+003;1.920546e-001
1.417483e+003;1.921129e-001
1.419411e+003;1.923414e-001
1.421340e+003;1.933882e-001
1.423268e+003;1.951350e-001
1.425197e+003;1.975547e-001
1.427125e+003;2.007578e-001
1.429054e+003;2.048754e-001
1.430983e+003;2.099683e-001
1.432911e+003;2.157385e-001
1.434840e+003;2.211808e-001
1.436768e+003;2.255401e-001
1.438697e+003;2.287879e-001
1.440625e+003;2.307468e-001
1.442554e+003;2.321456e-001
1.444482e+003;2.329970e-001
1.446411e+003;2.319829e-001
1.448340e+003;2.292075e-001
1.450268e+003;2.253280e-001
1.452197e+003;2.206638e-001
1.454125e+003;2.153687e-001
1.456054e+003;2.096138e-001
1.457982e+003;2.049820e-001
1.459911e+003;2.022049e-001
1.461839e+003;2.005067e-001
1.463768e+003;1.994368e-001
1.465697e+003;1.988290e-001
1.467625e+003;1.991331e-001
1.469554e+003;2.000852e-001
1.471482e+003;2.011190e-001
1.473411e+003;2.028722e-001
1.475339e+003;2.057351e-001
1.477268e+003;2.095497e-001
1.479196e+003;2.143991e-001
1.481125e+003;2.203807e-001
1.483053e+003;2.271315e-001
1.484982e+003;2.346090e-001
1.486911e+003;2.430007e-001
1.488839e+003;2.519565e-001
1.490768e+003;2.611276e-001
1.492696e+003;2.706347e-001
1.494625e+003;2.799875e-001
1.496553e+003;2.890388e-001
1.498482e+003;2.982248e-001
1.500410e+003;3.068179e-001
1.502339e+003;3.145415e-001
1.504267e+003;3.215145e-001
1.506196e+003;3.276324e-001
1.508125e+003;3.331021e-001
1.510053e+003;3.383389e-001
1.511982e+003;3.426493e-001
1.513910e+003;3.440523e-001
1.515839e+003;3.411476e-001
1.517767e+003;3.349667e-001
1.519696e+003;3.272944e-001
1.521624e+003;3.198768e-001
1.523553e+003;3.140332e-001
1.525481e+003;3.086727e-001
1.527410e+003;3.036857e-001
1.529339e+003;2.988548e-001
1.531267e+003;2.936020e-001
1.533196e+003;2.879734e-001
1.535124e+003;2.827390e-001
1.537053e+003;2.774859e-001
1.538981e+003;2.720218e-001
1.540910e+003;2.671949e-001
1.542838e+003;2.627567e-001
1.544767e+003;2.577426e-001
1.546695e+003;2.527068e-001
1.548624e+003;2.481885e-001
1.550553e+003;2.433824e-001
1.552481e+003;2.382776e-001
1.554410e+003;2.329659e-001
1.556338e+003;2.275418e-001
1.558267e+003;2.218824e-001
1.560195e+003;2.166227e-001
1.562124e+003;2.119426e-001
1.564052e+003;2.069870e-001
1.565981e+003;2.021933e-001
1.567910e+003;1.977812e-001
1.569838e+003;1.936863e-001
1.571767e+003;1.903342e-001
1.573695e+003;1.876812e-001
1.575624e+003;1.854544e-001
1.577552e+003;1.843653e-001
1.579481e+003;1.844120e-001
1.581409e+003;1.850991e-001
1.583338e+003;1.863902e-001
1.585266e+003;1.884547e-001
1.587195e+003;1.917936e-001
1.589124e+003;1.958955e-001
1.591052e+003;2.007226e-001
1.592981e+003;2.063270e-001
1.594909e+003;2.124247e-001
1.596838e+003;2.190684e-001
1.598766e+003;2.263028e-001
1.600695e+003;2.349424e-001
1.602623e+003;2.452354e-001
1.604552e+003;2.564423e-001
1.606480e+003;2.692397e-001
1.608409e+003;2.832479e-001
1.610338e+003;2.971683e-001
1.612266e+003;3.102800e-001
1.614195e+003;3.223149e-001
1.616123e+003;3.333792e-001
1.618052e+003;3.425902e-001
1.619980e+003;3.493534e-001
1.621909e+003;3.529651e-001
1.623837e+003;3.542376e-001
1.625766e+003;3.532520e-001
1.627694e+003;3.497564e-001
1.629623e+003;3.444045e-001
1.631552e+003;3.379143e-001
1.633480e+003;3.303028e-001
1.635409e+003;3.223176e-001
1.637337e+003;3.152698e-001
1.639266e+003;3.086763e-001
1.641194e+003;3.021115e-001
1.643123e+003;2.958129e-001
1.645051e+003;2.891438e-001
1.646980e+003;2.825195e-001
1.648909e+003;2.764299e-001
1.650837e+003;2.698570e-001
1.652766e+003;2.626395e-001
1.654694e+003;2.564602e-001
1.656623e+003;2.501599e-001
1.658551e+003;2.427865e-001
1.660480e+003;2.356379e-001
1.662408e+003;2.286786e-001
1.664337e+003;2.223892e-001
1.666266e+003;2.165245e-001
1.668194e+003;2.102573e-001
1.670123e+003;2.043403e-001
1.672051e+003;1.989855e-001
1.673980e+003;1.934591e-001
1.675908e+003;1.878674e-001
1.677837e+003;1.829085e-001
1.679765e+003;1.781969e-001
1.681694e+003;1.737379e-001
1.683622e+003;1.690426e-001
1.685551e+003;1.646036e-001
1.687479e+003;1.614175e-001
1.689408e+003;1.586092e-001
1.691337e+003;1.558439e-001
1.693265e+003;1.532926e-001
1.695194e+003;1.509753e-001
1.697122e+003;1.490275e-001
1.699051e+003;1.452921e-001
1.700979e+003;1.384467e-001
1.702908e+003;1.298425e-001
1.704836e+003;1.198297e-001
1.706765e+003;1.099537e-001
1.708693e+003;1.015404e-001
1.710622e+003;9.466445e-002
1.712551e+003;8.899731e-002
1.714479e+003;8.430973e-002
1.716408e+003;8.041418e-002
1.718336e+003;7.762417e-002
1.720265e+003;7.567788e-002
1.722193e+003;7.397522e-002
1.724122e+003;7.260963e-002
1.726050e+003;7.145861e-002
1.727979e+003;7.027600e-002
1.729908e+003;6.954654e-002
1.731836e+003;6.890947e-002
1.733765e+003;6.800114e-002
1.735693e+003;6.751575e-002
1.737622e+003;6.722265e-002
1.739550e+003;6.660253e-002
1.741479e+003;6.617527e-002
1.743407e+003;6.579959e-002
1.745336e+003;6.532963e-002
1.747265e+003;6.483141e-002
1.749193e+003;6.449317e-002
1.751122e+003;6.404153e-002
1.753050e+003;6.388024e-002
1.754979e+003;6.378011e-002
1.756907e+003;6.356273e-002
1.758836e+003;6.345166e-002
1.760764e+003;6.314714e-002
1.762693e+003;6.286099e-002
1.764621e+003;6.271607e-002
1.766550e+003;6.240178e-002
1.768479e+003;6.216375e-002
1.770407e+003;6.199731e-002
1.772336e+003;6.184890e-002
1.774264e+003;6.182857e-002
1.776193e+003;6.172517e-002
1.778121e+003;6.145839e-002
1.780050e+003;6.131512e-002
1.781978e+003;6.123476e-002
1.783907e+003;6.099474e-002
1.785835e+003;6.076534e-002
1.787764e+003;6.078397e-002
1.789693e+003;6.068569e-002
1.791621e+003;6.024126e-002
1.793550e+003;5.993168e-002
1.795478e+003;5.984009e-002
1.797407e+003;5.980268e-002
1.799335e+003;5.979553e-002
1.801264e+003;5.956356e-002
1.803192e+003;5.931986e-002
1.805121e+003;5.911515e-002
1.807049e+003;5.898893e-002
1.808978e+003;5.878353e-002
1.810907e+003;5.848375e-002
1.812835e+003;5.832735e-002
1.814764e+003;5.822615e-002
1.816692e+003;5.807083e-002
1.818621e+003;5.802906e-002
1.820549e+003;5.793735e-002
1.822478e+003;5.790982e-002
1.824406e+003;5.781598e-002
1.826335e+003;5.757330e-002
1.828264e+003;5.726437e-002
1.830192e+003;5.712247e-002
1.832121e+003;5.698210e-002
1.834049e+003;5.663580e-002
1.835978e+003;5.636571e-002
1.837906e+003;5.625647e-002
1.839835e+003;5.618904e-002
1.841763e+003;5.603000e-002
1.843692e+003;5.580452e-002
1.845620e+003;5.569218e-002
1.847549e+003;5.555954e-002
1.849478e+003;5.540469e-002
1.851406e+003;5.529087e-002
1.853335e+003;5.526675e-002
1.855263e+003;5.514292e-002
1.857192e+003;5.498469e-002
1.859120e+003;5.493366e-002
1.861049e+003;5.489523e-002
1.862977e+003;5.486658e-002
1.864906e+003;5.486241e-002
1.866834e+003;5.475366e-002
1.868763e+003;5.472442e-002
1.870692e+003;5.479749e-002
1.872620e+003;5.477865e-002
1.874549e+003;5.476674e-002
1.876477e+003;5.467789e-002
1.878406e+003;5.462994e-002
1.880334e+003;5.478794e-002
1.882263e+003;5.478211e-002
1.884191e+003;5.468796e-002
1.886120e+003;5.475110e-002
1.888048e+003;5.475802e-002
1.889977e+003;5.455232e-002
1.891906e+003;5.460229e-002
1.893834e+003;5.474501e-002
1.895763e+003;5.445694e-002
1.897691e+003;5.411257e-002
1.899620e+003;5.389788e-002
1.901548e+003;5.381603e-002
1.903477e+003;5.390725e-002
1.905405e+003;5.381978e-002
1.907334e+003;5.387488e-002
1.909262e+003;5.387807e-002
1.911191e+003;5.377643e-002
1.913120e+003;5.349717e-002
1.915048e+003;5.334961e-002
1.916977e+003;5.338025e-002
1.918905e+003;5.339123e-002
1.920834e+003;5.343444e-002
1.922762e+003;5.341075e-002
1.924691e+003;5.351355e-002
1.926619e+003;5.364924e-002
1.928548e+003;5.359964e-002
1.930477e+003;5.350073e-002
1.932405e+003;5.362139e-002
1.934334e+003;5.356039e-002
1.936262e+003;5.337463e-002
1.938191e+003;5.333544e-002
1.940119e+003;5.318416e-002
1.942048e+003;5.307889e-002
1.943976e+003;5.315955e-002
1.945905e+003;5.317427e-002
1.947833e+003;5.338527e-002
1.949762e+003;5.359672e-002
1.951691e+003;5.365310e-002
1.953619e+003;5.376375e-002
1.955548e+003;5.378772e-002
1.957476e+003;5.381933e-002
1.959405e+003;5.377894e-002
1.961333e+003;5.361344e-002
1.963262e+003;5.360141e-002
1.965190e+003;5.368388e-002
1.967119e+003;5.379679e-002
1.969047e+003;5.372970e-002
1.970976e+003;5.364887e-002
1.972905e+003;5.358784e-002
1.974833e+003;5.349616e-002
1.976762e+003;5.342934e-002
1.978690e+003;5.339228e-002
1.980619e+003;5.347367e-002
1.982547e+003;5.359481e-002
1.984476e+003;5.366157e-002
1.986404e+003;5.348277e-002
1.988333e+003;5.349739e-002
1.990261e+003;5.375820e-002
1.992190e+003;5.380238e-002
1.994119e+003;5.342106e-002
1.996047e+003;5.303288e-002
1.997976e+003;5.303355e-002
1.999904e+003;5.320929e-002
2.001833e+003;5.315517e-002
2.003761e+003;5.312428e-002
2.005690e+003;5.313843e-002
2.007618e+003;5.321194e-002
2.009547e+003;5.323509e-002
2.011476e+003;5.314820e-002
2.013404e+003;5.313929e-002
2.015333e+003;5.309050e-002
2.017261e+003;5.311701e-002
2.019190e+003;5.330903e-002
2.021118e+003;5.343353e-002
2.023047e+003;5.336500e-002
2.024975e+003;5.342687e-002
2.026904e+003;5.354143e-002
2.028833e+003;5.334732e-002
2.030761e+003;5.304404e-002
2.032690e+003;5.304666e-002
2.034618e+003;5.342668e-002
2.036547e+003;5.362622e-002
2.038475e+003;5.352202e-002
2.040404e+003;5.353247e-002
2.042332e+003;5.338212e-002
2.044261e+003;5.307223e-002
2.046189e+003;5.316386e-002
2.048118e+003;5.336320e-002
2.050047e+003;5.337355e-002
2.051975e+003;5.325989e-002
2.053904e+003;5.322240e-002
2.055832e+003;5.329903e-002
2.057761e+003;5.340622e-002
2.059689e+003;5.339550e-002
2.061618e+003;5.347985e-002
2.063546e+003;5.358330e-002
2.065475e+003;5.355522e-002
2.067404e+003;5.362056e-002
2.069332e+003;5.364628e-002
2.071260e+003;5.349233e-002
2.073189e+003;5.342495e-002
2.075118e+003;5.354840e-002
2.077046e+003;5.365265e-002
2.078975e+003;5.376593e-002
2.080903e+003;5.391157e-002
2.082832e+003;5.402930e-002
2.084760e+003;5.387503e-002
2.086689e+003;5.369708e-002
2.088617e+003;5.380335e-002
2.090546e+003;5.389881e-002
2.092475e+003;5.390294e-002
2.094403e+003;5.389127e-002
2.096332e+003;5.405635e-002
2.098260e+003;5.417060e-002
2.100189e+003;5.406694e-002
2.102117e+003;5.400844e-002
2.104046e+003;5.396349e-002
2.105974e+003;5.392271e-002
2.107903e+003;5.411483e-002
2.109832e+003;5.413010e-002
2.111760e+003;5.390665e-002
2.113688e+003;5.393532e-002
2.115617e+003;5.400431e-002
2.117546e+003;5.392271e-002
2.119474e+003;5.377718e-002
2.121403e+003;5.367657e-002
2.123331e+003;5.365794e-002
2.125260e+003;5.375543e-002
2.127188e+003;5.388565e-002
2.129117e+003;5.372854e-002
2.131045e+003;5.349781e-002
2.132974e+003;5.357569e-002
2.134903e+003;5.384709e-002
2.136831e+003;5.382031e-002
2.138760e+003;5.352775e-002
2.140688e+003;5.328539e-002
2.142617e+003;5.323052e-002
2.144545e+003;5.336890e-002
2.146474e+003;5.356310e-002
2.148402e+003;5.361561e-002
2.150331e+003;5.353364e-002
2.152260e+003;5.340427e-002
2.154188e+003;5.331368e-002
2.156117e+003;5.333795e-002
2.158045e+003;5.347809e-002
2.159974e+003;5.333612e-002
2.161902e+003;5.320322e-002
2.163831e+003;5.320659e-002
2.165759e+003;5.344354e-002
2.167688e+003;5.360695e-002
2.169616e+003;5.344616e-002
2.171545e+003;5.324584e-002
2.173474e+003;5.320460e-002
2.175402e+003;5.321475e-002
2.177331e+003;5.338392e-002
2.179259e+003;5.353873e-002
2.181188e+003;5.337523e-002
2.183116e+003;5.319693e-002
2.185045e+003;5.322393e-002
2.186973e+003;5.330604e-002
2.188902e+003;5.343485e-002
2.190831e+003;5.346962e-002
2.192759e+003;5.344361e-002
2.194688e+003;5.339517e-002
2.196616e+003;5.333934e-002
2.198545e+003;5.332889e-002
2.200473e+003;5.320213e-002
2.202402e+003;5.310439e-002
2.204330e+003;5.322157e-002
2.206259e+003;5.309705e-002
2.208188e+003;5.283518e-002
2.210116e+003;5.283582e-002
2.212044e+003;5.297231e-002
2.213973e+003;5.320019e-002
2.215902e+003;5.303314e-002
2.217830e+003;5.268309e-002
2.219759e+003;5.270771e-002
2.221687e+003;5.272739e-002
2.223616e+003;5.274448e-002
2.225544e+003;5.276098e-002
2.227473e+003;5.282856e-002
2.229401e+003;5.287582e-002
2.231330e+003;5.270262e-002
2.233259e+003;5.255795e-002
2.235187e+003;5.282994e-002
2.237116e+003;5.286373e-002
2.239044e+003;5.261390e-002
2.240973e+003;5.253110e-002
2.242901e+003;5.238622e-002
2.244830e+003;5.222913e-002
2.246758e+003;5.221063e-002
2.248687e+003;5.224882e-002
2.250615e+003;5.250133e-002
2.252544e+003;5.268339e-002
2.254473e+003;5.264348e-002
2.256401e+003;5.267266e-002
2.258330e+003;5.277367e-002
2.260258e+003;5.267254e-002
2.262187e+003;5.256804e-002
2.264115e+003;5.252500e-002
2.266044e+003;5.243986e-002
2.267972e+003;5.248039e-002
2.269901e+003;5.256827e-002
2.271830e+003;5.253192e-002
2.273758e+003;5.255327e-002
2.275687e+003;5.251442e-002
2.277615e+003;5.252631e-002
2.279544e+003;5.280420e-002
2.281472e+003;5.287107e-002
2.283401e+003;5.272334e-002
2.285329e+003;5.259923e-002
2.287258e+003;5.272799e-002
2.289187e+003;5.288574e-002
2.291115e+003;5.272866e-002
2.293043e+003;5.252362e-002
2.294972e+003;5.265915e-002
2.296901e+003;5.303442e-002
2.298829e+003;5.323633e-002
2.300758e+003;5.312150e-002
2.302686e+003;5.298470e-002
2.304615e+003;5.288237e-002
2.306543e+003;5.292276e-002
2.308472e+003;5.315491e-002
2.310400e+003;5.297912e-002
2.312329e+003;5.270389e-002
2.314258e+003;5.279481e-002
2.316186e+003;5.288080e-002
2.318115e+003;5.283716e-002
2.320043e+003;5.284386e-002
2.321972e+003;5.299810e-002
2.323900e+003;5.308537e-002
2.325829e+003;5.285112e-002
2.327757e+003;5.263252e-002
2.329686e+003;5.265683e-002
2.331615e+003;5.249127e-002
2.333543e+003;5.244472e-002
2.335472e+003;5.262983e-002
2.337400e+003;5.265893e-002
2.339329e+003;5.269155e-002
2.341257e+003;5.279002e-002
2.343186e+003;5.280465e-002
2.345114e+003;5.275447e-002
2.347043e+003;5.263088e-002
2.348971e+003;5.256053e-002
2.350900e+003;5.253861e-002
2.352829e+003;5.254041e-002
2.354757e+003;5.259123e-002
2.356686e+003;5.261692e-002
2.358614e+003;5.269910e-002
2.360543e+003;5.277224e-002
2.362471e+003;5.264569e-002
2.364400e+003;5.261289e-002
2.366328e+003;5.282122e-002
2.368257e+003;5.318730e-002
2.370186e+003;5.325978e-002
2.372114e+003;5.334054e-002
2.374042e+003;5.347768e-002
2.375971e+003;5.339198e-002
2.377900e+003;5.328783e-002
2.379828e+003;5.352333e-002
2.381757e+003;5.387406e-002
2.383685e+003;5.401602e-002
2.385614e+003;5.382938e-002
2.387542e+003;5.378243e-002
2.389471e+003;5.386584e-002
2.391399e+003;5.382574e-002
2.393328e+003;5.394811e-002
2.395257e+003;5.421658e-002
2.397185e+003;5.418490e-002
2.399114e+003;5.423764e-002
2.401042e+003;5.465207e-002
2.402971e+003;5.490884e-002
2.404899e+003;5.477666e-002
2.406828e+003;5.500691e-002
2.408756e+003;5.531055e-002
2.410685e+003;5.529651e-002
2.412614e+003;5.550773e-002
2.414542e+003;5.584917e-002
2.416471e+003;5.608644e-002
2.418399e+003;5.622513e-002
2.420328e+003;5.656008e-002
2.422256e+003;5.666902e-002
2.424185e+003;5.688313e-002
2.426113e+003;5.721318e-002
2.428042e+003;5.727642e-002
2.429970e+003;5.744628e-002
2.431899e+003;5.754553e-002
2.433828e+003;5.748270e-002
2.435756e+003;5.756755e-002
2.437685e+003;5.756153e-002
2.439613e+003;5.774996e-002
2.441542e+003;5.808996e-002
2.443470e+003;5.819818e-002
2.445399e+003;5.816090e-002
2.447327e+003;5.817882e-002
2.449256e+003;5.833421e-002
2.451185e+003;5.826392e-002
2.453113e+003;5.804159e-002
2.455042e+003;5.812140e-002
2.456970e+003;5.809784e-002
2.458899e+003;5.797907e-002
2.460827e+003;5.810738e-002
2.462756e+003;5.827260e-002
2.464684e+003;5.856128e-002
2.466613e+003;5.872887e-002
2.468542e+003;5.847355e-002
2.470470e+003;5.832421e-002
2.472398e+003;5.870289e-002
2.474327e+003;5.912559e-002
2.476256e+003;5.906872e-002
2.478184e+003;5.885000e-002
2.480113e+003;5.885489e-002
2.482041e+003;5.915452e-002
2.483970e+003;5.922670e-002
2.485898e+003;5.912748e-002
2.487827e+003;5.917711e-002
2.489755e+003;5.925230e-002
2.491684e+003;5.935534e-002
2.493613e+003;5.936484e-002
2.495541e+003;5.935633e-002
2.497470e+003;5.926343e-002
2.499398e+003;5.926043e-002
2.501327e+003;5.949200e-002
2.503255e+003;5.989501e-002
2.505184e+003;6.022809e-002
2.507112e+003;6.000354e-002
2.509041e+003;5.980005e-002
2.510969e+003;5.978294e-002
2.512898e+003;5.981633e-002
2.514827e+003;5.996340e-002
2.516755e+003;6.010338e-002
2.518684e+003;6.001700e-002
2.520612e+003;5.997999e-002
2.522541e+003;6.017283e-002
2.524469e+003;6.014706e-002
2.526398e+003;6.022177e-002
2.528326e+003;6.038357e-002
2.530255e+003;6.037107e-002
2.532184e+003;6.052721e-002
2.534112e+003;6.066035e-002
2.536041e+003;6.071683e-002
2.537969e+003;6.074708e-002
2.539898e+003;6.068337e-002
2.541826e+003;6.085727e-002
2.543755e+003;6.104485e-002
2.545683e+003;6.142655e-002
2.547612e+003;6.176207e-002
2.549541e+003;6.163332e-002
2.551469e+003;6.140278e-002
2.553397e+003;6.144923e-002
2.555326e+003;6.171390e-002
2.557255e+003;6.196811e-002
2.559183e+003;6.207188e-002
2.561112e+003;6.232370e-002
2.563040e+003;6.252237e-002
2.564969e+003;6.261211e-002
2.566897e+003;6.269008e-002
2.568826e+003;6.290855e-002
2.570754e+003;6.329784e-002
2.572683e+003;6.351605e-002
2.574612e+003;6.342884e-002
2.576540e+003;6.366864e-002
2.578469e+003;6.425603e-002
2.580397e+003;6.437914e-002
2.582326e+003;6.433464e-002
2.584254e+003;6.438952e-002
2.586183e+003;6.457055e-002
2.588111e+003;6.490743e-002
2.590040e+003;6.520768e-002
2.591969e+003;6.545956e-002
2.593897e+003;6.567334e-002
2.595826e+003;6.576620e-002
2.597754e+003;6.593706e-002
2.599683e+003;6.603155e-002
2.601611e+003;6.610111e-002
2.603540e+003;6.625354e-002
2.605468e+003;6.642601e-002
2.607397e+003;6.658418e-002
2.609325e+003;6.653398e-002
2.611254e+003;6.647482e-002
2.613183e+003;6.665055e-002
2.615111e+003;6.678083e-002
2.617040e+003;6.662076e-002
2.618968e+003;6.659392e-002
2.620897e+003;6.682275e-002
2.622825e+003;6.700481e-002
2.624754e+003;6.706791e-002
2.626682e+003;6.696998e-002
2.628611e+003;6.693286e-002
2.630540e+003;6.707971e-002
2.632468e+003;6.709041e-002
2.634396e+003;6.709412e-002
2.636325e+003;6.701607e-002
2.638254e+003;6.703918e-002
2.640182e+003;6.687659e-002
2.642111e+003;6.658268e-002
2.644039e+003;6.679087e-002
2.645968e+003;6.726404e-002
2.647896e+003;6.720219e-002
2.649825e+003;6.685367e-002
2.651753e+003;6.668057e-002
2.653682e+003;6.682901e-002
2.655611e+003;6.727088e-002
2.657539e+003;6.750190e-002
2.659468e+003;6.757645e-002
2.661396e+003;6.767758e-002
2.663325e+003;6.766371e-002
2.665253e+003;6.774341e-002
2.667182e+003;6.813531e-002
2.669110e+003;6.836174e-002
2.671039e+003;6.841353e-002
2.672968e+003;6.841713e-002
2.674896e+003;6.845483e-002
2.676825e+003;6.867868e-002
2.678753e+003;6.885026e-002
2.680682e+003;6.871831e-002
2.682610e+003;6.893580e-002
2.684539e+003;6.922714e-002
2.686467e+003;6.926476e-002
2.688396e+003;6.925688e-002
2.690324e+003;6.934079e-002
2.692253e+003;6.973530e-002
2.694182e+003;7.004051e-002
2.696110e+003;7.007158e-002
2.698039e+003;7.013399e-002
2.699967e+003;7.041474e-002
2.701896e+003;7.052942e-002
2.703824e+003;7.037897e-002
2.705753e+003;7.052346e-002
2.707681e+003;7.084042e-002
2.709610e+003;7.087829e-002
2.711539e+003;7.095756e-002
2.713467e+003;7.124547e-002
2.715396e+003;7.152893e-002
2.717324e+003;7.189497e-002
2.719253e+003;7.206748e-002
2.721181e+003;7.202402e-002
2.723110e+003;7.218847e-002
2.725038e+003;7.238332e-002
2.726967e+003;7.244650e-002
2.728896e+003;7.264327e-002
2.730824e+003;7.281545e-002
2.732752e+003;7.272741e-002
2.734681e+003;7.274430e-002
2.736610e+003;7.296715e-002
2.738538e+003;7.341295e-002
2.740467e+003;7.347668e-002
2.742395e+003;7.346820e-002
2.744324e+003;7.361951e-002
2.746252e+003;7.364400e-002
2.748181e+003;7.366984e-002
2.750109e+003;7.401172e-002
2.752038e+003;7.440311e-002
2.753967e+003;7.460608e-002
2.755895e+003;7.472543e-002
2.757824e+003;7.468859e-002
2.759752e+003;7.470827e-002
2.761681e+003;7.499194e-002
2.763609e+003;7.521733e-002
2.765538e+003;7.530374e-002
2.767466e+003;7.536660e-002
2.769395e+003;7.561170e-002
2.771323e+003;7.588164e-002
2.773252e+003;7.602242e-002
2.775181e+003;7.621876e-002
2.777109e+003;7.647161e-002
2.779038e+003;7.658119e-002
2.780966e+003;7.646398e-002
2.782895e+003;7.649453e-002
2.784823e+003;7.665503e-002
2.786752e+003;7.668579e-002
2.788680e+003;7.687566e-002
2.790609e+003;7.718541e-002
2.792538e+003;7.733905e-002
2.794466e+003;7.743424e-002
2.796395e+003;7.757877e-002
2.798323e+003;7.791289e-002
2.800252e+003;7.802074e-002
2.802180e+003;7.795130e-002
2.804109e+003;7.799266e-002
2.806037e+003;7.799758e-002
2.807966e+003;7.812377e-002
2.809895e+003;7.848307e-002
2.811823e+003;7.868709e-002
2.813751e+003;7.862481e-002
2.815680e+003;7.866251e-002
2.817609e+003;7.890645e-002
2.819537e+003;7.913460e-002
2.821466e+003;7.916401e-002
2.823394e+003;7.918362e-002
2.825323e+003;7.933903e-002
2.827251e+003;7.942245e-002
2.829180e+003;7.956235e-002
2.831108e+003;7.975019e-002
2.833037e+003;7.982153e-002
2.834966e+003;8.029661e-002
2.836894e+003;8.073197e-002
2.838823e+003;8.106828e-002
2.840751e+003;8.152109e-002
2.842680e+003;8.191059e-002
2.844608e+003;8.254231e-002
2.846537e+003;8.320304e-002
2.848465e+003;8.355661e-002
2.850394e+003;8.384822e-002
2.852323e+003;8.415546e-002
2.854251e+003;8.458215e-002
2.856180e+003;8.489931e-002
2.858108e+003;8.500104e-002
2.860037e+003;8.540779e-002
2.861965e+003;8.571675e-002
2.863894e+003;8.570214e-002
2.865822e+003;8.589038e-002
2.867751e+003;8.676407e-002
2.869679e+003;8.749209e-002
2.871608e+003;8.790622e-002
2.873536e+003;8.824943e-002
2.875465e+003;8.834574e-002
2.877394e+003;8.837474e-002
2.879322e+003;8.841162e-002
2.881251e+003;8.844379e-002
2.883179e+003;8.845561e-002
2.885108e+003;8.832703e-002
2.887036e+003;8.831424e-002
2.888965e+003;8.834416e-002
2.890893e+003;8.826730e-002
2.892822e+003;8.857118e-002
2.894750e+003;8.885077e-002
2.896679e+003;8.915303e-002
2.898608e+003;8.958140e-002
2.900536e+003;9.000445e-002
2.902465e+003;9.036936e-002
2.904393e+003;9.071466e-002
2.906322e+003;9.109434e-002
2.908250e+003;9.165699e-002
2.910179e+003;9.241753e-002
2.912107e+003;9.315481e-002
2.914036e+003;9.376294e-002
2.915965e+003;9.467088e-002
2.917893e+003;9.540849e-002
2.919822e+003;9.591192e-002
2.921750e+003;9.637333e-002
2.923679e+003;9.695408e-002
2.925607e+003;9.791626e-002
2.927536e+003;9.866111e-002
2.929464e+003;9.882107e-002
2.931393e+003;9.922849e-002
2.933322e+003;9.964930e-002
2.935250e+003;9.945790e-002
2.937178e+003;9.903292e-002
2.939107e+003;9.861433e-002
2.941036e+003;9.816042e-002
2.942964e+003;9.743853e-002
2.944893e+003;9.646906e-002
2.946821e+003;9.592163e-002
2.948750e+003;9.555136e-002
2.950678e+003;9.489645e-002
2.952607e+003;9.437443e-002
2.954535e+003;9.412559e-002
2.956464e+003;9.401211e-002
2.958393e+003;9.395023e-002
2.960321e+003;9.396854e-002
2.962250e+003;9.397718e-002
2.964178e+003;9.403869e-002
2.966107e+003;9.477086e-002
2.968035e+003;9.498114e-002
2.969964e+003;9.480729e-002
2.971892e+003;9.532071e-002
2.973821e+003;9.568367e-002
2.975750e+003;9.559426e-002
2.977678e+003;9.545332e-002
2.979607e+003;9.514371e-002
2.981535e+003;9.460311e-002
2.983464e+003;9.407909e-002
2.985392e+003;9.371919e-002
2.987321e+003;9.322339e-002
2.989249e+003;9.278103e-002
2.991178e+003;9.221689e-002
2.993106e+003;9.172439e-002
2.995035e+003;9.140626e-002
2.996964e+003;9.115348e-002
2.998892e+003;9.102414e-002
3.000821e+003;9.067754e-002
3.002749e+003;9.024176e-002
3.004678e+003;9.014086e-002
3.006606e+003;9.038531e-002
3.008535e+003;9.035843e-002
3.010463e+003;9.010445e-002
3.012392e+003;9.006837e-002
3.014321e+003;9.015913e-002
3.016249e+003;9.024788e-002
3.018177e+003;9.040416e-002
3.020106e+003;9.068383e-002
3.022035e+003;9.129038e-002
3.023963e+003;9.163011e-002
3.025892e+003;9.188788e-002
3.027820e+003;9.232014e-002
3.029749e+003;9.267741e-002
3.031677e+003;9.304553e-002
3.033606e+003;9.346440e-002
3.035534e+003;9.384049e-002
3.037463e+003;9.446491e-002
3.039392e+003;9.517556e-002
3.041320e+003;9.537902e-002
3.043249e+003;9.561723e-002
3.045177e+003;9.606493e-002
3.047106e+003;9.652256e-002
3.049034e+003;9.715328e-002
3.050963e+003;9.802317e-002
3.052891e+003;9.873593e-002
3.054820e+003;9.895667e-002
3.056749e+003;9.933268e-002
3.058677e+003;9.986400e-002
3.060606e+003;1.000027e-001
3.062534e+003;1.001127e-001
3.064463e+003;1.004070e-001
3.066391e+003;1.006607e-001
3.068320e+003;1.005856e-001
3.070248e+003;1.004473e-001
3.072177e+003;1.005493e-001
3.074105e+003;1.006966e-001
3.076034e+003;1.008184e-001
3.077963e+003;1.007438e-001
3.079891e+003;1.005721e-001
3.081820e+003;1.003539e-001
3.083748e+003;1.000792e-001
3.085677e+003;1.000227e-001
3.087605e+003;9.997218e-002
3.089534e+003;9.960828e-002
3.091462e+003;9.920563e-002
3.093391e+003;9.877228e-002
3.095320e+003;9.851468e-002
3.097248e+003;9.836645e-002
3.099177e+003;9.830537e-002
3.101105e+003;9.825946e-002
3.103034e+003;9.822215e-002
3.104962e+003;9.793208e-002
3.106891e+003;9.748344e-002
3.108819e+003;9.675166e-002
3.110748e+003;9.636030e-002
3.112677e+003;9.652351e-002
3.114605e+003;9.651648e-002
3.116533e+003;9.636406e-002
3.118462e+003;9.622617e-002
3.120391e+003;9.592833e-002
3.122319e+003;9.577376e-002
3.124248e+003;9.579169e-002
3.126176e+003;9.599531e-002
3.128105e+003;9.606616e-002
3.130033e+003;9.591386e-002
3.131962e+003;9.595519e-002
3.133890e+003;9.622617e-002
3.135819e+003;9.654946e-002
3.137748e+003;9.676483e-002
3.139676e+003;9.715867e-002
3.141605e+003;9.741282e-002
3.143533e+003;9.751841e-002
3.145462e+003;9.783083e-002
3.147390e+003;9.829133e-002
3.149319e+003;9.841691e-002
3.151247e+003;9.861571e-002
3.153176e+003;9.926301e-002
3.155104e+003;1.001033e-001
3.157033e+003;1.005397e-001
3.158962e+003;1.009422e-001
3.160890e+003;1.018153e-001
3.162819e+003;1.024741e-001
3.164747e+003;1.028055e-001
3.166676e+003;1.029772e-001
3.168604e+003;1.033857e-001
3.170533e+003;1.045840e-001
3.172461e+003;1.059216e-001
3.174390e+003;1.066096e-001
3.176319e+003;1.069809e-001
3.178247e+003;1.073673e-001
3.180176e+003;1.081768e-001
3.182104e+003;1.093416e-001
3.184033e+003;1.102260e-001
3.185961e+003;1.107438e-001
3.187890e+003;1.117909e-001
3.189818e+003;1.128636e-001
3.191747e+003;1.136791e-001
3.193676e+003;1.146786e-001
3.195604e+003;1.156770e-001
3.197532e+003;1.165338e-001
3.199461e+003;1.171900e-001
3.201390e+003;1.180181e-001
3.203318e+003;1.192268e-001
3.205247e+003;1.204288e-001
3.207175e+003;1.212583e-001
3.209104e+003;1.220073e-001
3.211032e+003;1.228913e-001
3.212961e+003;1.239800e-001
3.214889e+003;1.246559e-001
3.216818e+003;1.254724e-001
3.218747e+003;1.266100e-001
3.220675e+003;1.278740e-001
3.222604e+003;1.291013e-001
3.224532e+003;1.301675e-001
3.226461e+003;1.309895e-001
3.228389e+003;1.318818e-001
3.230318e+003;1.333291e-001
3.232246e+003;1.349035e-001
3.234175e+003;1.358566e-001
3.236104e+003;1.367980e-001
3.238032e+003;1.386020e-001
3.239961e+003;1.402895e-001
3.241889e+003;1.416789e-001
3.243818e+003;1.434310e-001
3.245746e+003;1.450509e-001
3.247675e+003;1.460549e-001
3.249603e+003;1.471860e-001
3.251532e+003;1.487713e-001
3.253460e+003;1.504856e-001
3.255389e+003;1.520496e-001
3.257318e+003;1.539003e-001
3.259246e+003;1.560182e-001
3.261175e+003;1.582624e-001
3.263103e+003;1.602821e-001
3.265032e+003;1.622091e-001
3.266960e+003;1.640186e-001
3.268889e+003;1.654639e-001
3.270817e+003;1.669662e-001
3.272746e+003;1.686765e-001
3.274675e+003;1.702680e-001
3.276603e+003;1.714557e-001
3.278531e+003;1.719006e-001
3.280460e+003;1.722284e-001
3.282389e+003;1.721744e-001
3.284317e+003;1.718951e-001
3.286246e+003;1.718454e-001
3.288174e+003;1.714127e-001
3.290103e+003;1.705217e-001
3.292031e+003;1.691269e-001
3.293960e+003;1.678727e-001
3.295888e+003;1.666500e-001
3.297817e+003;1.649255e-001
3.299746e+003;1.628596e-001
3.301674e+003;1.605793e-001
3.303603e+003;1.589664e-001
3.305531e+003;1.572040e-001
3.307460e+003;1.549298e-001
3.309388e+003;1.525658e-001
3.311317e+003;1.503358e-001
3.313245e+003;1.485789e-001
3.315174e+003;1.466780e-001
3.317103e+003;1.443641e-001
3.319031e+003;1.423014e-001
3.320960e+003;1.406192e-001
3.322888e+003;1.385066e-001
3.324817e+003;1.361872e-001
3.326745e+003;1.342984e-001
3.328674e+003;1.324522e-001
3.330602e+003;1.306329e-001
3.332531e+003;1.285308e-001
3.334459e+003;1.266201e-001
3.336388e+003;1.253987e-001
3.338317e+003;1.239327e-001
3.340245e+003;1.223044e-001
3.342174e+003;1.208131e-001
3.344102e+003;1.196555e-001
3.346031e+003;1.184703e-001
3.347959e+003;1.171790e-001
3.349888e+003;1.157385e-001
3.351816e+003;1.147662e-001
3.353745e+003;1.138589e-001
3.355674e+003;1.125612e-001
3.357602e+003;1.112982e-001
3.359531e+003;1.105518e-001
3.361459e+003;1.099097e-001
3.363388e+003;1.091456e-001
3.365316e+003;1.084810e-001
3.367245e+003;1.072253e-001
3.369173e+003;1.063348e-001
3.371102e+003;1.060843e-001
3.373031e+003;1.053250e-001
3.374959e+003;1.044203e-001
3.376887e+003;1.037245e-001
3.378816e+003;1.030930e-001
3.380745e+003;1.022037e-001
3.382673e+003;1.014699e-001
3.384602e+003;1.010116e-001
3.386530e+003;1.005433e-001
3.388459e+003;9.997806e-002
3.390387e+003;9.926447e-002
3.392316e+003;9.908457e-002
3.394244e+003;9.858685e-002
3.396173e+003;9.794038e-002
3.398102e+003;9.757689e-002
3.400030e+003;9.685311e-002
3.401959e+003;9.615269e-002
3.403887e+003;9.550814e-002
3.405816e+003;9.482967e-002
3.407744e+003;9.407239e-002
3.409673e+003;9.319690e-002
3.411601e+003;9.276126e-002
3.413530e+003;9.215572e-002
3.415458e+003;9.143948e-002
3.417387e+003;9.083124e-002
3.419316e+003;9.041432e-002
3.421244e+003;8.988401e-002
3.423173e+003;8.929382e-002
3.425101e+003;8.853815e-002
3.427030e+003;8.738203e-002
3.428958e+003;8.655611e-002
3.430887e+003;8.638039e-002
3.432815e+003;8.617576e-002
3.434744e+003;8.551715e-002
3.436673e+003;8.499024e-002
3.438601e+003;8.444352e-002
3.440530e+003;8.369291e-002
3.442458e+003;8.305217e-002
3.444387e+003;8.266590e-002
3.446315e+003;8.257572e-002
3.448244e+003;8.275986e-002
3.450172e+003;8.263893e-002
3.452101e+003;8.226583e-002
3.454030e+003;8.178393e-002
3.455958e+003;8.138036e-002
3.457886e+003;8.089300e-002
3.459815e+003;8.063322e-002
3.461744e+003;8.065871e-002
3.463672e+003;8.045369e-002
3.465601e+003;8.031195e-002
3.467529e+003;8.021429e-002
3.469458e+003;7.998714e-002
3.471386e+003;7.984041e-002
3.473315e+003;7.954937e-002
3.475243e+003;7.929234e-002
3.477172e+003;7.920012e-002
3.479101e+003;7.881241e-002
3.481029e+003;7.854655e-002
3.482958e+003;7.842992e-002
3.484886e+003;7.787388e-002
3.486815e+003;7.747491e-002
3.488743e+003;7.752973e-002
3.490672e+003;7.738684e-002
3.492600e+003;7.694686e-002
3.494529e+003;7.671575e-002
3.496458e+003;7.672833e-002
3.498386e+003;7.674616e-002
3.500315e+003;7.631730e-002
3.502243e+003;7.608854e-002
3.504172e+003;7.567859e-002
3.506100e+003;7.504909e-002
3.508029e+003;7.474940e-002
3.509957e+003;7.476986e-002
3.511886e+003;7.488697e-002
3.513814e+003;7.475766e-002
3.515743e+003;7.411318e-002
3.517672e+003;7.352743e-002
3.519600e+003;7.318097e-002
3.521529e+003;7.289457e-002
3.523457e+003;7.274622e-002
3.525386e+003;7.252755e-002
3.527314e+003;7.236101e-002
3.529243e+003;7.202977e-002
3.531171e+003;7.153732e-002
3.533100e+003;7.147365e-002
3.535029e+003;7.155592e-002
3.536957e+003;7.134351e-002
3.538885e+003;7.096443e-002
3.540814e+003;7.052615e-002
3.542743e+003;7.026186e-002
3.544671e+003;7.012652e-002
3.546600e+003;6.962136e-002
3.548528e+003;6.909442e-002
3.550457e+003;6.873604e-002
3.552385e+003;6.854329e-002
3.554314e+003;6.843513e-002
3.556242e+003;6.838021e-002
3.558171e+003;6.832490e-002
3.560100e+003;6.794313e-002
3.562028e+003;6.771057e-002
3.563957e+003;6.741973e-002
3.565885e+003;6.661165e-002
3.567814e+003;6.613997e-002
3.569742e+003;6.638184e-002
3.571671e+003;6.652911e-002
3.573599e+003;6.606469e-002
3.575528e+003;6.549307e-002
3.577457e+003;6.518978e-002
3.579385e+003;6.493448e-002
3.581314e+003;6.428984e-002
3.583242e+003;6.412897e-002
3.585171e+003;6.413964e-002
3.587099e+003;6.368522e-002
3.589028e+003;6.323183e-002
3.590956e+003;6.315082e-002
3.592885e+003;6.307710e-002
3.594813e+003;6.289335e-002
3.596742e+003;6.239940e-002
3.598671e+003;6.195103e-002
3.600599e+003;6.203745e-002
3.602528e+003;6.204834e-002
3.604456e+003;6.178747e-002
3.606385e+003;6.129741e-002
3.608313e+003;6.086905e-002
3.610242e+003;6.072246e-002
3.612170e+003;6.045675e-002
3.614099e+003;6.036057e-002
3.616028e+003;6.011589e-002
3.617956e+003;5.912088e-002
3.619885e+003;5.857292e-002
3.621813e+003;5.873607e-002
3.623742e+003;5.890115e-002
3.625670e+003;5.863192e-002
3.627599e+003;5.796343e-002
3.629527e+003;5.737545e-002
3.631456e+003;5.740211e-002
3.633385e+003;5.713570e-002
3.635313e+003;5.673966e-002
3.637241e+003;5.627419e-002
3.639170e+003;5.576523e-002
3.641099e+003;5.572778e-002
3.643027e+003;5.560552e-002
3.644956e+003;5.523992e-002
3.646884e+003;5.478918e-002
3.648813e+003;5.393573e-002
3.650741e+003;5.297714e-002
3.652670e+003;5.263637e-002
3.654598e+003;5.242476e-002
3.656527e+003;5.153415e-002
3.658456e+003;5.114191e-002
3.660384e+003;5.106141e-002
3.662313e+003;5.040856e-002
3.664241e+003;4.947568e-002
3.666170e+003;4.862641e-002
3.668098e+003;4.810304e-002
3.670027e+003;4.775195e-002
3.671955e+003;4.748552e-002
3.673884e+003;4.695646e-002
3.675813e+003;4.585142e-002
3.677741e+003;4.505664e-002
3.679669e+003;4.459134e-002
3.681598e+003;4.432834e-002
3.683527e+003;4.360137e-002
3.685455e+003;4.286292e-002
3.687384e+003;4.205133e-002
3.689312e+003;4.164641e-002
3.691241e+003;4.192658e-002
3.693169e+003;4.219338e-002
3.695098e+003;4.179917e-002
3.697026e+003;4.134193e-002
3.698955e+003;4.118540e-002
3.700884e+003;4.119210e-002
3.702812e+003;4.102167e-002
3.704741e+003;4.044930e-002
3.706669e+003;3.984139e-002
3.708598e+003;3.938196e-002
3.710526e+003;3.905931e-002
3.712455e+003;3.908824e-002
3.714383e+003;3.926132e-002
3.716312e+003;3.901128e-002
3.718240e+003;3.875638e-002
3.720169e+003;3.892063e-002
3.722098e+003;3.879605e-002
3.724026e+003;3.857351e-002
3.725955e+003;3.839245e-002
3.727883e+003;3.816585e-002
3.729812e+003;3.793079e-002
3.731740e+003;3.768026e-002
3.733669e+003;3.764676e-002
3.735597e+003;3.736197e-002
3.737526e+003;3.741794e-002
3.739455e+003;3.738169e-002
3.741383e+003;3.735641e-002
3.743312e+003;3.678458e-002
3.745240e+003;3.603987e-002
3.747169e+003;3.644583e-002
3.749097e+003;3.664616e-002
3.751026e+003;3.680366e-002
3.752954e+003;3.686522e-002
3.754883e+003;3.696298e-002
3.756812e+003;3.680853e-002
3.758740e+003;3.680845e-002
3.760668e+003;3.661317e-002
3.762597e+003;3.656628e-002
3.764526e+003;3.636631e-002
3.766454e+003;3.629862e-002
3.768383e+003;3.663314e-002
3.770311e+003;3.644547e-002
3.772240e+003;3.600449e-002
3.774168e+003;3.618109e-002
3.776097e+003;3.646431e-002
3.778025e+003;3.618945e-002
3.779954e+003;3.572926e-002
3.781883e+003;3.594153e-002
3.783811e+003;3.629195e-002
3.785740e+003;3.635370e-002
3.787668e+003;3.653222e-002
3.789597e+003;3.666249e-002
3.791525e+003;3.644226e-002
3.793454e+003;3.678101e-002
3.795382e+003;3.694098e-002
3.797311e+003;3.642731e-002
3.799240e+003;3.623854e-002
3.801168e+003;3.636930e-002
3.803097e+003;3.661371e-002
3.805025e+003;3.645696e-002
3.806954e+003;3.603159e-002
3.808882e+003;3.595272e-002
3.810811e+003;3.608898e-002
3.812739e+003;3.609935e-002
3.814668e+003;3.593213e-002
3.816596e+003;3.611638e-002
3.818525e+003;3.651315e-002
3.820454e+003;3.627495e-002
3.822382e+003;3.609838e-002
3.824311e+003;3.625503e-002
3.826239e+003;3.651978e-002
3.828168e+003;3.675685e-002
3.830096e+003;3.648799e-002
3.832025e+003;3.638259e-002
3.833953e+003;3.642814e-002
3.835882e+003;3.644205e-002
3.837811e+003;3.622352e-002
3.839739e+003;3.664334e-002
3.841667e+003;3.707274e-002
3.843596e+003;3.716015e-002
3.845525e+003;3.727188e-002
3.847453e+003;3.763570e-002
3.849382e+003;3.787486e-002
3.851310e+003;3.758205e-002
3.853239e+003;3.679060e-002
3.855167e+003;3.690616e-002
3.857096e+003;3.754668e-002
3.859024e+003;3.801014e-002
3.860953e+003;3.799089e-002
3.862882e+003;3.803350e-002
3.864810e+003;3.830570e-002
3.866739e+003;3.863768e-002
3.868667e+003;3.853596e-002
3.870596e+003;3.803762e-002
3.872524e+003;3.821285e-002
3.874453e+003;3.857833e-002
3.876381e+003;3.863312e-002
3.878310e+003;3.855747e-002
3.880239e+003;3.857648e-002
3.882167e+003;3.889247e-002
3.884096e+003;3.882297e-002
3.886024e+003;3.908414e-002
3.887953e+003;3.972820e-002
3.889881e+003;3.959911e-002
3.891810e+003;3.907834e-002
3.893738e+003;3.889004e-002
3.895667e+003;3.966543e-002
3.897595e+003;4.038802e-002
3.899524e+003;4.031835e-002
3.901453e+003;4.023169e-002
3.903381e+003;4.033668e-002
3.905310e+003;4.011153e-002
3.907238e+003;3.982977e-002
3.909167e+003;3.987306e-002
3.911095e+003;3.998113e-002
3.913024e+003;4.013748e-002
3.914952e+003;4.039668e-002
3.916881e+003;4.055998e-002
3.918810e+003;4.094510e-002
3.920738e+003;4.111444e-002
3.922667e+003;4.120493e-002
3.924595e+003;4.121119e-002
3.926524e+003;4.126635e-002
3.928452e+003;4.130276e-002
3.930381e+003;4.119688e-002
3.932309e+003;4.148496e-002
3.934238e+003;4.208167e-002
3.936167e+003;4.198395e-002
3.938095e+003;4.139682e-002
3.940023e+003;4.140724e-002
3.941952e+003;4.158230e-002
3.943881e+003;4.176422e-002
3.945809e+003;4.212558e-002
3.947738e+003;4.255138e-002
3.949666e+003;4.295129e-002
3.951595e+003;4.256263e-002
3.953523e+003;4.245586e-002
3.955452e+003;4.236584e-002
3.957380e+003;4.233545e-002
3.959309e+003;4.267137e-002
3.961238e+003;4.277962e-002
3.963166e+003;4.295491e-002
3.965095e+003;4.284412e-002
3.967023e+003;4.263149e-002
3.968952e+003;4.267155e-002
3.970880e+003;4.272357e-002
3.972809e+003;4.282105e-002
3.974737e+003;4.310044e-002
3.976666e+003;4.327579e-002
3.978594e+003;4.339745e-002
3.980523e+003;4.379205e-002
3.982452e+003;4.362086e-002
3.984380e+003;4.299698e-002
3.986309e+003;4.285853e-002
3.988237e+003;4.349379e-002
3.990166e+003;4.348251e-002
3.992094e+003;4.298311e-002
3.994023e+003;4.303963e-002
3.995951e+003;4.330892e-002
3.997880e+003;4.299708e-002
3.999809e+003;4.298725e-002
4.001737e+003;0.000000e+000
