3.992094e+002;0.000000e+000
4.011380e+002;0.000000e+000
4.030665e+002;0.000000e+000
4.049951e+002;0.000000e+000
4.069236e+002;0.000000e+000
4.088522e+002;0.000000e+000
4.107807e+002;0.000000e+000
4.127093e+002;0.000000e+000
4.146378e+002;0.000000e+000
4.165664e+002;0.000000e+000
4.184949e+002;0.000000e+000
4.204235e+002;0.000000e+000
4.223520e+002;0.000000e+000
4.242806e+002;0.000000e+000
4.262091e+002;0.000000e+000
4.281377e+002;0.000000e+000
4.300662e+002;0.000000e+000
4.319948e+002;0.000000e+000
4.339233e+002;0.000000e+000
4.358519e+002;0.000000e+000
4.377804e+002;0.000000e+000
4.397090e+002;0.000000e+000
4.416375e+002;0.000000e+000
4.435660e+002;0.000000e+000
4.454946e+002;0.000000e+000
4.474232e+002;0.000000e+000
4.493517e+002;0.000000e+000
4.512802e+002;0.000000e+000
4.532088e+002;0.000000e+000
4.551373e+002;0.000000e+000
4.570659e+002;0.000000e+000
4.589944e+002;0.000000e+000
4.609230e+002;0.000000e+000
4.628515e+002;0.000000e+000
4.647801e+002;0.000000e+000
4.667086e+002;0.000000e+000
4.686372e+002;0.000000e+000
4.705657e+002;0.000000e+000
4.724943e+002;0.000000e+000
4.744228e+002;0.000000e+000
4.763513e+002;0.000000e+000
4.782799e+002;0.000000e+000
4.802085e+002;0.000000e+000
4.821370e+002;0.000000e+000
4.840656e+002;0.000000e+000
4.859941e+002;0.000000e+000
4.879226e+002;0.000000e+000
4.898512e+002;0.000000e+000
4.917798e+002;0.000000e+000
4.937083e+002;0.000000e+000
4.956368e+002;0.000000e+000
4.975654e+002;0.000000e+000
4.994939e+002;0.000000e+000
5.014225e+002;0.000000e+000
5.033510e+002;0.000000e+000
5.052796e+002;0.000000e+000
5.072081e+002;0.000000e+000
5.091367e+002;0.000000e+000
5.110652e+002;0.000000e+000
5.129938e+002;0.000000e+000
5.149223e+002;0.000000e+000
5.168509e+002;0.000000e+000
5.187794e+002;0.000000e+000
5.207079e+002;0.000000e+000
5.226365e+002;0.000000e+000
5.245651e+002;0.000000e+000
5.264936e+002;0.000000e+000
5.284222e+002;0.000000e+000
5.303507e+002;0.000000e+000
5.322792e+002;0.000000e+000
5.342078e+002;0.000000e+000
5.361364e+002;0.000000e+000
5.380649e+002;0.000000e+000
5.399935e+002;0.000000e+000
5.419220e+002;0.000000e+000
5.438505e+002;0.000000e+000
5.457791e+002;0.000000e+000
5.477076e+002;0.000000e+000
5.496362e+002;0.000000e+000
5.515648e+002;0.000000e+000
5.534933e+002;0.000000e+000
5.554218e+002;0.000000e+000
5.573504e+002;0.000000e+000
5.592789e+002;0.000000e+000
5.612075e+002;0.000000e+000
5.631360e+002;0.000000e+000
5.650646e+002;0.000000e+000
5.669931e+002;0.000000e+000
5.689217e+002;0.000000e+000
5.708502e+002;0.000000e+000
5.727787e+002;0.000000e+000
5.747073e+002;0.000000e+000
5.766359e+002;0.000000e+000
5.785644e+002;0.000000e+000
5.804930e+002;0.000000e+000
5.824215e+002;0.000000e+000
5.843500e+002;0.000000e+000
5.862786e+002;0.000000e+000
5.882072e+002;0.000000e+000
5.901357e+002;0.000000e+000
5.920643e+002;0.000000e+000
5.939928e+002;0.000000e+000
5.959213e+002;0.000000e+000
5.978499e+002;0.000000e+000
5.997784e+002;2.257588e-001
6.017070e+002;2.335204e-001
6.036355e+002;2.290556e-001
6.055641e+002;2.237114e-001
6.074926e+002;2.277242e-001
6.094211e+002;2.292511e-001
6.113497e+002;2.262076e-001
6.132783e+002;2.233765e-001
6.152068e+002;2.210604e-001
6.171354e+002;2.164062e-001
6.190639e+002;2.147103e-001
6.209924e+002;2.176957e-001
6.229210e+002;2.175694e-001
6.248495e+002;2.172026e-001
6.267781e+002;2.172233e-001
6.287067e+002;2.166092e-001
6.306352e+002;2.172563e-001
6.325637e+002;2.155290e-001
6.344923e+002;2.144510e-001
6.364208e+002;2.121621e-001
6.383494e+002;2.100037e-001
6.402780e+002;2.088114e-001
6.422065e+002;2.086286e-001
6.441350e+002;2.083528e-001
6.460636e+002;2.074855e-001
6.479921e+002;2.019920e-001
6.499207e+002;1.999900e-001
6.518492e+002;2.015019e-001
6.537778e+002;1.999624e-001
6.557063e+002;1.990627e-001
6.576349e+002;1.990549e-001
6.595634e+002;1.986822e-001
6.614919e+002;1.999252e-001
6.634205e+002;2.021539e-001
6.653491e+002;2.022069e-001
6.672776e+002;2.007988e-001
6.692062e+002;2.018008e-001
6.711347e+002;2.040206e-001
6.730632e+002;2.033867e-001
6.749918e+002;2.019287e-001
6.769203e+002;2.022634e-001
6.788489e+002;2.028029e-001
6.807775e+002;2.021281e-001
6.827060e+002;2.014607e-001
6.846345e+002;2.012135e-001
6.865631e+002;2.005013e-001
6.884916e+002;1.998411e-001
6.904202e+002;1.977921e-001
6.923488e+002;1.960453e-001
6.942773e+002;1.959945e-001
6.962058e+002;1.960427e-001
6.981344e+002;1.943445e-001
7.000629e+002;1.925468e-001
7.019915e+002;1.911039e-001
7.039200e+002;1.898431e-001
7.058486e+002;1.892432e-001
7.077771e+002;1.869274e-001
7.097057e+002;1.833874e-001
7.116342e+002;1.812762e-001
7.135627e+002;1.803648e-001
7.154913e+002;1.793188e-001
7.174199e+002;1.768249e-001
7.193484e+002;1.748364e-001
7.212770e+002;1.736893e-001
7.232055e+002;1.720907e-001
7.251340e+002;1.702294e-001
7.270626e+002;1.674506e-001
7.289911e+002;1.656843e-001
7.309197e+002;1.639048e-001
7.328483e+002;1.614431e-001
7.347768e+002;1.596060e-001
7.367053e+002;1.586793e-001
7.386339e+002;1.568052e-001
7.405624e+002;1.542288e-001
7.424910e+002;1.524693e-001
7.444196e+002;1.501314e-001
7.463481e+002;1.473007e-001
7.482766e+002;1.456455e-001
7.502052e+002;1.447111e-001
7.521337e+002;1.435788e-001
7.540623e+002;1.427041e-001
7.559908e+002;1.414449e-001
7.579194e+002;1.398056e-001
7.598479e+002;1.379745e-001
7.617765e+002;1.364069e-001
7.637050e+002;1.362975e-001
7.656335e+002;1.371680e-001
7.675621e+002;1.364429e-001
7.694907e+002;1.342417e-001
7.714192e+002;1.324664e-001
7.733478e+002;1.316548e-001
7.752763e+002;1.303561e-001
7.772048e+002;1.281548e-001
7.791334e+002;1.267298e-001
7.810620e+002;1.257759e-001
7.829905e+002;1.246206e-001
7.849191e+002;1.240136e-001
7.868476e+002;1.232683e-001
7.887761e+002;1.219408e-001
7.907047e+002;1.208959e-001
7.926332e+002;1.201352e-001
7.945618e+002;1.188420e-001
7.964903e+002;1.183061e-001
7.984189e+002;1.175246e-001
8.003474e+002;1.167679e-001
8.022759e+002;1.171190e-001
8.042045e+002;1.171964e-001
8.061331e+002;1.168441e-001
8.080616e+002;1.168505e-001
8.099902e+002;1.171569e-001
8.119187e+002;1.172062e-001
8.138472e+002;1.169858e-001
8.157758e+002;1.172013e-001
8.177043e+002;1.175305e-001
8.196329e+002;1.165733e-001
8.215615e+002;1.168619e-001
8.234900e+002;1.184412e-001
8.254185e+002;1.194555e-001
8.273471e+002;1.199826e-001
8.292756e+002;1.198633e-001
8.312042e+002;1.191422e-001
8.331328e+002;1.180256e-001
8.350613e+002;1.158333e-001
8.369898e+002;1.142725e-001
8.389184e+002;1.141799e-001
8.408469e+002;1.138392e-001
8.427755e+002;1.136355e-001
8.447040e+002;1.140947e-001
8.466326e+002;1.143002e-001
8.485611e+002;1.142757e-001
8.504897e+002;1.146802e-001
8.524182e+002;1.146185e-001
8.543467e+002;1.140972e-001
8.562753e+002;1.128294e-001
8.582039e+002;1.108139e-001
8.601324e+002;1.089045e-001
8.620610e+002;1.079474e-001
8.639895e+002;1.079614e-001
8.659180e+002;1.075762e-001
8.678466e+002;1.070713e-001
8.697751e+002;1.069799e-001
8.717037e+002;1.074130e-001
8.736323e+002;1.079724e-001
8.755608e+002;1.080087e-001
8.774893e+002;1.078137e-001
8.794179e+002;1.074551e-001
8.813464e+002;1.075335e-001
8.832750e+002;1.078463e-001
8.852036e+002;1.078841e-001
8.871321e+002;1.079270e-001
8.890606e+002;1.074077e-001
8.909892e+002;1.073022e-001
8.929177e+002;1.074486e-001
8.948463e+002;1.073126e-001
8.967748e+002;1.073689e-001
8.987034e+002;1.075940e-001
9.006319e+002;1.071487e-001
9.025605e+002;1.066344e-001
9.044890e+002;1.066455e-001
9.064175e+002;1.068023e-001
9.083461e+002;1.070894e-001
9.102747e+002;1.071914e-001
9.122032e+002;1.077180e-001
9.141318e+002;1.084930e-001
9.160603e+002;1.093641e-001
9.179888e+002;1.099920e-001
9.199174e+002;1.104295e-001
9.218459e+002;1.109187e-001
9.237745e+002;1.118108e-001
9.257031e+002;1.129063e-001
9.276316e+002;1.137065e-001
9.295601e+002;1.139747e-001
9.314887e+002;1.139513e-001
9.334172e+002;1.141786e-001
9.353458e+002;1.146045e-001
9.372744e+002;1.149045e-001
9.392029e+002;1.150915e-001
9.411314e+002;1.155741e-001
9.430600e+002;1.162160e-001
9.449885e+002;1.166681e-001
9.469171e+002;1.172959e-001
9.488456e+002;1.177647e-001
9.507742e+002;1.182150e-001
9.527027e+002;1.194727e-001
9.546313e+002;1.208614e-001
9.565598e+002;1.218555e-001
9.584883e+002;1.228960e-001
9.604169e+002;1.242227e-001
9.623455e+002;1.255090e-001
9.642740e+002;1.268035e-001
9.662026e+002;1.281909e-001
9.681311e+002;1.293679e-001
9.700596e+002;1.305533e-001
9.719882e+002;1.315031e-001
9.739167e+002;1.320330e-001
9.758453e+002;1.321389e-001
9.777739e+002;1.319611e-001
9.797024e+002;1.315663e-001
9.816309e+002;1.312633e-001
9.835595e+002;1.307778e-001
9.854880e+002;1.308630e-001
9.874166e+002;1.321350e-001
9.893452e+002;1.335465e-001
9.912737e+002;1.351589e-001
9.932022e+002;1.364613e-001
9.951307e+002;1.371780e-001
9.970593e+002;1.373996e-001
9.989879e+002;1.372062e-001
1.000916e+003;1.367816e-001
1.002845e+003;1.363595e-001
1.004773e+003;1.360053e-001
1.006702e+003;1.360094e-001
1.008631e+003;1.361779e-001
1.010559e+003;1.364911e-001
1.012488e+003;1.368519e-001
1.014416e+003;1.367709e-001
1.016345e+003;1.363518e-001
1.018273e+003;1.359605e-001
1.020202e+003;1.353967e-001
1.022130e+003;1.348766e-001
1.024059e+003;1.353162e-001
1.025988e+003;1.365802e-001
1.027916e+003;1.378126e-001
1.029845e+003;1.395510e-001
1.031773e+003;1.413395e-001
1.033702e+003;1.429336e-001
1.035630e+003;1.444320e-001
1.037559e+003;1.455429e-001
1.039487e+003;1.463618e-001
1.041416e+003;1.471323e-001
1.043344e+003;1.477956e-001
1.045273e+003;1.482164e-001
1.047202e+003;1.485977e-001
1.049130e+003;1.489863e-001
1.051059e+003;1.491033e-001
1.052987e+003;1.499938e-001
1.054916e+003;1.513024e-001
1.056844e+003;1.521580e-001
1.058773e+003;1.528565e-001
1.060701e+003;1.533629e-001
1.062630e+003;1.533242e-001
1.064558e+003;1.536508e-001
1.066487e+003;1.539698e-001
1.068416e+003;1.533174e-001
1.070344e+003;1.526162e-001
1.072273e+003;1.512897e-001
1.074201e+003;1.489920e-001
1.076130e+003;1.469776e-001
1.078058e+003;1.451556e-001
1.079987e+003;1.424912e-001
1.081915e+003;1.397241e-001
1.083844e+003;1.373142e-001
1.085773e+003;1.349123e-001
1.087701e+003;1.327321e-001
1.089630e+003;1.310948e-001
1.091558e+003;1.297094e-001
1.093487e+003;1.283914e-001
1.095415e+003;1.281008e-001
1.097344e+003;1.280870e-001
1.099272e+003;1.280007e-001
1.101201e+003;1.280488e-001
1.103129e+003;1.276133e-001
1.105058e+003;1.265534e-001
1.106987e+003;1.257063e-001
1.108915e+003;1.252553e-001
1.110844e+003;1.251880e-001
1.112772e+003;1.250311e-001
1.114701e+003;1.249254e-001
1.116629e+003;1.251741e-001
1.118558e+003;1.252077e-001
1.120486e+003;1.252747e-001
1.122415e+003;1.256200e-001
1.124344e+003;1.259801e-001
1.126272e+003;1.268489e-001
1.128201e+003;1.278454e-001
1.130129e+003;1.289474e-001
1.132058e+003;1.302123e-001
1.133986e+003;1.313224e-001
1.135915e+003;1.327982e-001
1.137843e+003;1.343574e-001
1.139772e+003;1.354900e-001
1.141700e+003;1.372207e-001
1.143629e+003;1.392399e-001
1.145557e+003;1.408439e-001
1.147486e+003;1.429388e-001
1.149415e+003;1.449774e-001
1.151343e+003;1.462665e-001
1.153272e+003;1.472851e-001
1.155200e+003;1.487346e-001
1.157129e+003;1.505260e-001
1.159057e+003;1.520451e-001
1.160986e+003;1.530588e-001
1.162914e+003;1.535001e-001
1.164843e+003;1.537825e-001
1.166771e+003;1.544520e-001
1.168700e+003;1.550676e-001
1.170629e+003;1.549352e-001
1.172557e+003;1.544366e-001
1.174486e+003;1.537928e-001
1.176414e+003;1.526782e-001
1.178343e+003;1.515469e-001
1.180271e+003;1.507888e-001
1.182200e+003;1.503444e-001
1.184128e+003;1.502936e-001
1.186057e+003;1.506996e-001
1.187986e+003;1.515759e-001
1.189914e+003;1.530215e-001
1.191843e+003;1.548375e-001
1.193771e+003;1.572224e-001
1.195700e+003;1.596746e-001
1.197628e+003;1.620291e-001
1.199557e+003;1.645261e-001
1.201485e+003;1.674560e-001
1.203414e+003;1.710757e-001
1.205343e+003;1.746896e-001
1.207271e+003;1.780079e-001
1.209200e+003;1.811748e-001
1.211128e+003;1.840640e-001
1.213057e+003;1.867008e-001
1.214985e+003;1.893382e-001
1.216914e+003;1.918443e-001
1.218842e+003;1.939774e-001
1.220771e+003;1.958641e-001
1.222699e+003;1.974455e-001
1.224628e+003;1.985428e-001
1.226557e+003;1.993960e-001
1.228485e+003;1.997251e-001
1.230414e+003;1.991845e-001
1.232342e+003;1.978310e-001
1.234271e+003;1.966311e-001
1.236199e+003;1.955724e-001
1.238128e+003;1.940215e-001
1.240056e+003;1.923779e-001
1.241985e+003;1.906456e-001
1.243913e+003;1.892408e-001
1.245842e+003;1.879166e-001
1.247771e+003;1.868538e-001
1.249699e+003;1.858211e-001
1.251628e+003;1.845454e-001
1.253556e+003;1.834902e-001
1.255485e+003;1.826564e-001
1.257413e+003;1.815981e-001
1.259342e+003;1.800140e-001
1.261270e+003;1.778828e-001
1.263199e+003;1.756764e-001
1.265127e+003;1.740502e-001
1.267056e+003;1.721618e-001
1.268985e+003;1.703308e-001
1.270913e+003;1.686737e-001
1.272842e+003;1.668332e-001
1.274770e+003;1.647032e-001
1.276699e+003;1.628951e-001
1.278627e+003;1.613389e-001
1.280556e+003;1.598129e-001
1.282484e+003;1.587826e-001
1.284413e+003;1.582339e-001
1.286342e+003;1.577064e-001
1.288270e+003;1.570369e-001
1.290199e+003;1.565353e-001
1.292127e+003;1.563951e-001
1.294056e+003;1.562758e-001
1.295984e+003;1.561465e-001
1.297913e+003;1.558793e-001
1.299841e+003;1.557824e-001
1.301770e+003;1.558413e-001
1.303698e+003;1.557742e-001
1.305627e+003;1.555289e-001
1.307556e+003;1.552534e-001
1.309484e+003;1.548676e-001
1.311413e+003;1.544394e-001
1.313341e+003;1.541086e-001
1.315270e+003;1.540480e-001
1.317198e+003;1.541522e-001
1.319127e+003;1.542536e-001
1.321055e+003;1.545003e-001
1.322984e+003;1.549535e-001
1.324912e+003;1.553599e-001
1.326841e+003;1.558892e-001
1.328770e+003;1.563041e-001
1.330698e+003;1.567343e-001
1.332627e+003;1.573395e-001
1.334555e+003;1.574775e-001
1.336484e+003;1.573590e-001
1.338412e+003;1.571027e-001
1.340341e+003;1.567692e-001
1.342269e+003;1.567387e-001
1.344198e+003;1.566857e-001
1.346126e+003;1.565393e-001
1.348055e+003;1.563987e-001
1.349984e+003;1.562199e-001
1.351912e+003;1.564903e-001
1.353841e+003;1.571713e-001
1.355769e+003;1.581615e-001
1.357698e+003;1.596178e-001
1.359626e+003;1.614788e-001
1.361555e+003;1.636541e-001
1.363483e+003;1.658849e-001
1.365412e+003;1.681030e-001
1.367341e+003;1.697832e-001
1.369269e+003;1.706185e-001
1.371198e+003;1.707761e-001
1.373126e+003;1.705535e-001
1.375055e+003;1.702472e-001
1.376983e+003;1.702360e-001
1.378912e+003;1.703269e-001
1.380840e+003;1.705702e-001
1.382769e+003;1.706709e-001
1.384698e+003;1.706982e-001
1.386626e+003;1.709213e-001
1.388555e+003;1.713021e-001
1.390483e+003;1.716703e-001
1.392412e+003;1.718561e-001
1.394340e+003;1.719646e-001
1.396269e+003;1.722323e-001
1.398197e+003;1.727944e-001
1.400126e+003;1.735270e-001
1.402054e+003;1.742837e-001
1.403983e+003;1.752475e-001
1.405911e+003;1.762247e-001
1.407840e+003;1.767821e-001
1.409769e+003;1.773129e-001
1.411697e+003;1.781051e-001
1.413626e+003;1.786440e-001
1.415554e+003;1.790971e-001
1.417483e+003;1.796208e-001
1.419411e+003;1.803265e-001
1.421340e+003;1.811736e-001
1.423268e+003;1.822945e-001
1.425197e+003;1.841065e-001
1.427125e+003;1.868548e-001
1.429054e+003;1.903497e-001
1.430983e+003;1.939725e-001
1.432911e+003;1.977381e-001
1.434840e+003;2.015891e-001
1.436768e+003;2.048133e-001
1.438697e+003;2.073902e-001
1.440625e+003;2.092803e-001
1.442554e+003;2.105152e-001
1.444482e+003;2.108735e-001
1.446411e+003;2.101012e-001
1.448340e+003;2.084852e-001
1.450268e+003;2.062175e-001
1.452197e+003;2.034964e-001
1.454125e+003;2.004095e-001
1.456054e+003;1.970842e-001
1.457982e+003;1.944115e-001
1.459911e+003;1.926091e-001
1.461839e+003;1.916551e-001
1.463768e+003;1.912666e-001
1.465697e+003;1.913023e-001
1.467625e+003;1.919273e-001
1.469554e+003;1.927093e-001
1.471482e+003;1.939299e-001
1.473411e+003;1.958138e-001
1.475339e+003;1.980081e-001
1.477268e+003;2.006601e-001
1.479196e+003;2.041030e-001
1.481125e+003;2.084136e-001
1.483053e+003;2.132337e-001
1.484982e+003;2.181239e-001
1.486911e+003;2.231739e-001
1.488839e+003;2.285962e-001
1.490768e+003;2.342506e-001
1.492696e+003;2.398676e-001
1.494625e+003;2.451159e-001
1.496553e+003;2.497461e-001
1.498482e+003;2.545712e-001
1.500410e+003;2.591151e-001
1.502339e+003;2.626982e-001
1.504267e+003;2.657330e-001
1.506196e+003;2.684702e-001
1.508125e+003;2.708620e-001
1.510053e+003;2.727160e-001
1.511982e+003;2.741710e-001
1.513910e+003;2.742823e-001
1.515839e+003;2.720373e-001
1.517767e+003;2.678818e-001
1.519696e+003;2.623914e-001
1.521624e+003;2.567126e-001
1.523553e+003;2.521653e-001
1.525481e+003;2.484705e-001
1.527410e+003;2.450159e-001
1.529339e+003;2.414056e-001
1.531267e+003;2.380784e-001
1.533196e+003;2.349465e-001
1.535124e+003;2.314850e-001
1.537053e+003;2.275667e-001
1.538981e+003;2.237894e-001
1.540910e+003;2.205931e-001
1.542838e+003;2.173942e-001
1.544767e+003;2.140505e-001
1.546695e+003;2.107753e-001
1.548624e+003;2.074475e-001
1.550553e+003;2.040420e-001
1.552481e+003;2.006487e-001
1.554410e+003;1.971014e-001
1.556338e+003;1.934233e-001
1.558267e+003;1.897549e-001
1.560195e+003;1.860133e-001
1.562124e+003;1.825312e-001
1.564052e+003;1.789132e-001
1.565981e+003;1.752787e-001
1.567910e+003;1.720288e-001
1.569838e+003;1.691765e-001
1.571767e+003;1.667753e-001
1.573695e+003;1.646206e-001
1.575624e+003;1.626561e-001
1.577552e+003;1.615235e-001
1.579481e+003;1.614665e-001
1.581409e+003;1.618516e-001
1.583338e+003;1.625295e-001
1.585266e+003;1.638088e-001
1.587195e+003;1.658448e-001
1.589124e+003;1.683612e-001
1.591052e+003;1.714252e-001
1.592981e+003;1.749179e-001
1.594909e+003;1.787177e-001
1.596838e+003;1.828309e-001
1.598766e+003;1.876553e-001
1.600695e+003;1.931823e-001
1.602623e+003;1.993401e-001
1.604552e+003;2.064854e-001
1.606480e+003;2.146241e-001
1.608409e+003;2.234290e-001
1.610338e+003;2.326369e-001
1.612266e+003;2.415496e-001
1.614195e+003;2.495883e-001
1.616123e+003;2.571666e-001
1.618052e+003;2.638205e-001
1.619980e+003;2.688854e-001
1.621909e+003;2.722310e-001
1.623837e+003;2.741156e-001
1.625766e+003;2.748404e-001
1.627694e+003;2.741725e-001
1.629623e+003;2.721312e-001
1.631552e+003;2.691512e-001
1.633480e+003;2.654511e-001
1.635409e+003;2.613780e-001
1.637337e+003;2.572472e-001
1.639266e+003;2.528768e-001
1.641194e+003;2.485884e-001
1.643123e+003;2.445476e-001
1.645051e+003;2.400253e-001
1.646980e+003;2.352673e-001
1.648909e+003;2.308963e-001
1.650837e+003;2.264588e-001
1.652766e+003;2.214590e-001
1.654694e+003;2.166883e-001
1.656623e+003;2.119909e-001
1.658551e+003;2.068720e-001
1.660480e+003;2.019615e-001
1.662408e+003;1.970421e-001
1.664337e+003;1.923347e-001
1.666266e+003;1.879061e-001
1.668194e+003;1.834118e-001
1.670123e+003;1.790401e-001
1.672051e+003;1.751787e-001
1.673980e+003;1.712756e-001
1.675908e+003;1.672665e-001
1.677837e+003;1.636621e-001
1.679765e+003;1.601436e-001
1.681694e+003;1.567693e-001
1.683622e+003;1.533968e-001
1.685551e+003;1.502261e-001
1.687479e+003;1.479584e-001
1.689408e+003;1.461016e-001
1.691337e+003;1.442907e-001
1.693265e+003;1.424329e-001
1.695194e+003;1.401996e-001
1.697122e+003;1.380409e-001
1.699051e+003;1.348520e-001
1.700979e+003;1.297406e-001
1.702908e+003;1.233282e-001
1.704836e+003;1.154153e-001
1.706765e+003;1.074036e-001
1.708693e+003;1.004180e-001
1.710622e+003;9.436414e-002
1.712551e+003;8.948172e-002
1.714479e+003;8.572974e-002
1.716408e+003;8.236007e-002
1.718336e+003;7.964871e-002
1.720265e+003;7.766676e-002
1.722193e+003;7.623677e-002
1.724122e+003;7.507071e-002
1.726050e+003;7.398512e-002
1.727979e+003;7.308996e-002
1.729908e+003;7.242826e-002
1.731836e+003;7.170534e-002
1.733765e+003;7.104477e-002
1.735693e+003;7.079627e-002
1.737622e+003;7.036883e-002
1.739550e+003;6.974826e-002
1.741479e+003;6.930141e-002
1.743407e+003;6.901798e-002
1.745336e+003;6.884101e-002
1.747265e+003;6.851842e-002
1.749193e+003;6.838323e-002
1.751122e+003;6.809450e-002
1.753050e+003;6.772095e-002
1.754979e+003;6.752071e-002
1.756907e+003;6.745611e-002
1.758836e+003;6.731708e-002
1.760764e+003;6.705229e-002
1.762693e+003;6.693549e-002
1.764621e+003;6.695301e-002
1.766550e+003;6.679195e-002
1.768479e+003;6.658762e-002
1.770407e+003;6.650838e-002
1.772336e+003;6.649467e-002
1.774264e+003;6.640821e-002
1.776193e+003;6.623015e-002
1.778121e+003;6.603947e-002
1.780050e+003;6.591916e-002
1.781978e+003;6.577468e-002
1.783907e+003;6.563287e-002
1.785835e+003;6.556940e-002
1.787764e+003;6.560116e-002
1.789693e+003;6.558651e-002
1.791621e+003;6.532852e-002
1.793550e+003;6.517846e-002
1.795478e+003;6.518424e-002
1.797407e+003;6.507510e-002
1.799335e+003;6.496365e-002
1.801264e+003;6.489531e-002
1.803192e+003;6.501048e-002
1.805121e+003;6.503396e-002
1.807049e+003;6.494226e-002
1.808978e+003;6.480940e-002
1.810907e+003;6.456845e-002
1.812835e+003;6.429088e-002
1.814764e+003;6.413526e-002
1.816692e+003;6.411891e-002
1.818621e+003;6.417114e-002
1.820549e+003;6.402140e-002
1.822478e+003;6.379911e-002
1.824406e+003;6.368495e-002
1.826335e+003;6.357120e-002
1.828264e+003;6.347083e-002
1.830192e+003;6.348974e-002
1.832121e+003;6.331613e-002
1.834049e+003;6.297389e-002
1.835978e+003;6.268808e-002
1.837906e+003;6.259225e-002
1.839835e+003;6.261211e-002
1.841763e+003;6.250239e-002
1.843692e+003;6.223877e-002
1.845620e+003;6.220718e-002
1.847549e+003;6.216818e-002
1.849478e+003;6.201004e-002
1.851406e+003;6.199582e-002
1.853335e+003;6.201084e-002
1.855263e+003;6.191221e-002
1.857192e+003;6.184829e-002
1.859120e+003;6.181058e-002
1.861049e+003;6.179007e-002
1.862977e+003;6.178281e-002
1.864906e+003;6.171272e-002
1.866834e+003;6.167147e-002
1.868763e+003;6.165238e-002
1.870692e+003;6.155673e-002
1.872620e+003;6.150927e-002
1.874549e+003;6.158758e-002
1.876477e+003;6.144323e-002
1.878406e+003;6.138545e-002
1.880334e+003;6.168683e-002
1.882263e+003;6.186770e-002
1.884191e+003;6.180909e-002
1.886120e+003;6.177578e-002
1.888048e+003;6.163519e-002
1.889977e+003;6.146278e-002
1.891906e+003;6.160155e-002
1.893834e+003;6.179759e-002
1.895763e+003;6.162549e-002
1.897691e+003;6.125949e-002
1.899620e+003;6.111529e-002
1.901548e+003;6.103295e-002
1.903477e+003;6.103215e-002
1.905405e+003;6.108100e-002
1.907334e+003;6.118372e-002
1.909262e+003;6.119959e-002
1.911191e+003;6.116880e-002
1.913120e+003;6.107574e-002
1.915048e+003;6.102739e-002
1.916977e+003;6.109290e-002
1.918905e+003;6.110274e-002
1.920834e+003;6.101148e-002
1.922762e+003;6.081888e-002
1.924691e+003;6.088185e-002
1.926619e+003;6.103589e-002
1.928548e+003;6.099089e-002
1.930477e+003;6.092657e-002
1.932405e+003;6.110461e-002
1.934334e+003;6.122122e-002
1.936262e+003;6.094601e-002
1.938191e+003;6.070558e-002
1.940119e+003;6.063357e-002
1.942048e+003;6.068645e-002
1.943976e+003;6.098506e-002
1.945905e+003;6.118509e-002
1.947833e+003;6.131924e-002
1.949762e+003;6.127219e-002
1.951691e+003;6.129131e-002
1.953619e+003;6.155531e-002
1.955548e+003;6.152206e-002
1.957476e+003;6.139572e-002
1.959405e+003;6.150347e-002
1.961333e+003;6.156012e-002
1.963262e+003;6.142125e-002
1.965190e+003;6.144896e-002
1.967119e+003;6.152871e-002
1.969047e+003;6.148007e-002
1.970976e+003;6.144923e-002
1.972905e+003;6.146911e-002
1.974833e+003;6.141010e-002
1.976762e+003;6.137617e-002
1.978690e+003;6.117861e-002
1.980619e+003;6.116091e-002
1.982547e+003;6.143312e-002
1.984476e+003;6.145281e-002
1.986404e+003;6.122752e-002
1.988333e+003;6.136923e-002
1.990261e+003;6.153848e-002
1.992190e+003;6.156635e-002
1.994119e+003;6.152103e-002
1.996047e+003;6.137358e-002
1.997976e+003;6.138564e-002
1.999904e+003;6.152698e-002
2.001833e+003;6.144632e-002
2.003761e+003;6.132153e-002
2.005690e+003;6.150454e-002
2.007618e+003;6.163019e-002
2.009547e+003;6.141510e-002
2.011476e+003;6.123236e-002
2.013404e+003;6.118021e-002
2.015333e+003;6.133896e-002
2.017261e+003;6.177192e-002
2.019190e+003;6.191095e-002
2.021118e+003;6.168908e-002
2.023047e+003;6.169633e-002
2.024975e+003;6.185421e-002
2.026904e+003;6.201302e-002
2.028833e+003;6.193277e-002
2.030761e+003;6.169633e-002
2.032690e+003;6.157929e-002
2.034618e+003;6.178938e-002
2.036547e+003;6.185505e-002
2.038475e+003;6.185455e-002
2.040404e+003;6.188569e-002
2.042332e+003;6.174316e-002
2.044261e+003;6.168568e-002
2.046189e+003;6.173861e-002
2.048118e+003;6.178640e-002
2.050047e+003;6.186617e-002
2.051975e+003;6.190235e-002
2.053904e+003;6.184898e-002
2.055832e+003;6.185776e-002
2.057761e+003;6.198451e-002
2.059689e+003;6.211393e-002
2.061618e+003;6.204444e-002
2.063546e+003;6.203706e-002
2.065475e+003;6.211726e-002
2.067404e+003;6.220512e-002
2.069332e+003;6.214065e-002
2.071260e+003;6.209685e-002
2.073189e+003;6.215155e-002
2.075118e+003;6.199823e-002
2.077046e+003;6.211451e-002
2.078975e+003;6.235289e-002
2.080903e+003;6.230715e-002
2.082832e+003;6.223162e-002
2.084760e+003;6.227368e-002
2.086689e+003;6.223013e-002
2.088617e+003;6.218772e-002
2.090546e+003;6.223254e-002
2.092475e+003;6.217289e-002
2.094403e+003;6.212261e-002
2.096332e+003;6.202812e-002
2.098260e+003;6.200289e-002
2.100189e+003;6.235583e-002
2.102117e+003;6.269796e-002
2.104046e+003;6.276752e-002
2.105974e+003;6.252627e-002
2.107903e+003;6.242664e-002
2.109832e+003;6.250565e-002
2.111760e+003;6.245690e-002
2.113688e+003;6.248839e-002
2.115617e+003;6.260346e-002
2.117546e+003;6.253940e-002
2.119474e+003;6.229307e-002
2.121403e+003;6.219885e-002
2.123331e+003;6.224538e-002
2.125260e+003;6.231238e-002
2.127188e+003;6.244780e-002
2.129117e+003;6.238475e-002
2.131045e+003;6.221846e-002
2.132974e+003;6.234233e-002
2.134903e+003;6.255336e-002
2.136831e+003;6.241493e-002
2.138760e+003;6.203343e-002
2.140688e+003;6.188768e-002
2.142617e+003;6.182965e-002
2.144545e+003;6.177116e-002
2.146474e+003;6.183052e-002
2.148402e+003;6.176699e-002
2.150331e+003;6.165677e-002
2.152260e+003;6.150118e-002
2.154188e+003;6.150282e-002
2.156117e+003;6.193984e-002
2.158045e+003;6.217155e-002
2.159974e+003;6.198478e-002
2.161902e+003;6.184557e-002
2.163831e+003;6.177146e-002
2.165759e+003;6.176883e-002
2.167688e+003;6.183274e-002
2.169616e+003;6.195543e-002
2.171545e+003;6.191336e-002
2.173474e+003;6.179924e-002
2.175402e+003;6.171463e-002
2.177331e+003;6.169962e-002
2.179259e+003;6.188156e-002
2.181188e+003;6.213706e-002
2.183116e+003;6.219640e-002
2.185045e+003;6.209661e-002
2.186973e+003;6.194366e-002
2.188902e+003;6.190059e-002
2.190831e+003;6.218936e-002
2.192759e+003;6.223353e-002
2.194688e+003;6.188038e-002
2.196616e+003;6.191248e-002
2.198545e+003;6.212708e-002
2.200473e+003;6.200729e-002
2.202402e+003;6.181719e-002
2.204330e+003;6.194247e-002
2.206259e+003;6.190308e-002
2.208188e+003;6.166975e-002
2.210116e+003;6.161362e-002
2.212044e+003;6.176619e-002
2.213973e+003;6.191305e-002
2.215902e+003;6.187683e-002
2.217830e+003;6.183675e-002
2.219759e+003;6.168671e-002
2.221687e+003;6.163210e-002
2.223616e+003;6.172868e-002
2.225544e+003;6.171509e-002
2.227473e+003;6.164825e-002
2.229401e+003;6.163393e-002
2.231330e+003;6.154970e-002
2.233259e+003;6.149198e-002
2.235187e+003;6.157276e-002
2.237116e+003;6.159296e-002
2.239044e+003;6.160694e-002
2.240973e+003;6.150305e-002
2.242901e+003;6.128417e-002
2.244830e+003;6.109317e-002
2.246758e+003;6.106723e-002
2.248687e+003;6.107616e-002
2.250615e+003;6.126212e-002
2.252544e+003;6.146396e-002
2.254473e+003;6.139468e-002
2.256401e+003;6.127288e-002
2.258330e+003;6.134492e-002
2.260258e+003;6.124823e-002
2.262187e+003;6.106906e-002
2.264115e+003;6.123820e-002
2.266044e+003;6.139281e-002
2.267972e+003;6.133240e-002
2.269901e+003;6.146029e-002
2.271830e+003;6.138354e-002
2.273758e+003;6.129493e-002
2.275687e+003;6.154222e-002
2.277615e+003;6.166609e-002
2.279544e+003;6.153714e-002
2.281472e+003;6.145152e-002
2.283401e+003;6.140621e-002
2.285329e+003;6.156730e-002
2.287258e+003;6.183304e-002
2.289187e+003;6.194878e-002
2.291115e+003;6.171314e-002
2.293043e+003;6.154959e-002
2.294972e+003;6.167479e-002
2.296901e+003;6.192073e-002
2.298829e+003;6.200561e-002
2.300758e+003;6.168071e-002
2.302686e+003;6.155852e-002
2.304615e+003;6.164359e-002
2.306543e+003;6.169706e-002
2.308472e+003;6.184913e-002
2.310400e+003;6.180512e-002
2.312329e+003;6.165937e-002
2.314258e+003;6.182621e-002
2.316186e+003;6.190293e-002
2.318115e+003;6.191305e-002
2.320043e+003;6.205713e-002
2.321972e+003;6.199777e-002
2.323900e+003;6.189494e-002
2.325829e+003;6.163909e-002
2.327757e+003;6.151401e-002
2.329686e+003;6.174446e-002
2.331615e+003;6.169141e-002
2.333543e+003;6.153802e-002
2.335472e+003;6.147514e-002
2.337400e+003;6.149809e-002
2.339329e+003;6.143201e-002
2.341257e+003;6.151049e-002
2.343186e+003;6.170791e-002
2.345114e+003;6.156673e-002
2.347043e+003;6.136400e-002
2.348971e+003;6.154859e-002
2.350900e+003;6.172334e-002
2.352829e+003;6.174373e-002
2.354757e+003;6.182770e-002
2.356686e+003;6.185971e-002
2.358614e+003;6.174159e-002
2.360543e+003;6.172135e-002
2.362471e+003;6.170703e-002
2.364400e+003;6.157177e-002
2.366328e+003;6.163195e-002
2.368257e+003;6.208415e-002
2.370186e+003;6.230156e-002
2.372114e+003;6.216279e-002
2.374042e+003;6.215916e-002
2.375971e+003;6.221873e-002
2.377900e+003;6.219846e-002
2.379828e+003;6.234516e-002
2.381757e+003;6.259477e-002
2.383685e+003;6.268280e-002
2.385614e+003;6.254988e-002
2.387542e+003;6.249497e-002
2.389471e+003;6.242706e-002
2.391399e+003;6.235756e-002
2.393328e+003;6.276025e-002
2.395257e+003;6.316075e-002
2.397185e+003;6.320148e-002
2.399114e+003;6.327542e-002
2.401042e+003;6.343827e-002
2.402971e+003;6.346362e-002
2.404899e+003;6.339020e-002
2.406828e+003;6.381879e-002
2.408756e+003;6.415516e-002
2.410685e+003;6.396780e-002
2.412614e+003;6.389901e-002
2.414542e+003;6.406802e-002
2.416471e+003;6.422172e-002
2.418399e+003;6.432573e-002
2.420328e+003;6.463773e-002
2.422256e+003;6.479833e-002
2.424185e+003;6.498039e-002
2.426113e+003;6.537300e-002
2.428042e+003;6.546661e-002
2.429970e+003;6.540512e-002
2.431899e+003;6.560227e-002
2.433828e+003;6.578058e-002
2.435756e+003;6.591708e-002
2.437685e+003;6.598230e-002
2.439613e+003;6.607676e-002
2.441542e+003;6.611034e-002
2.443470e+003;6.620298e-002
2.445399e+003;6.630205e-002
2.447327e+003;6.638381e-002
2.449256e+003;6.643188e-002
2.451185e+003;6.633015e-002
2.453113e+003;6.612433e-002
2.455042e+003;6.611925e-002
2.456970e+003;6.614135e-002
2.458899e+003;6.596980e-002
2.460827e+003;6.596024e-002
2.462756e+003;6.607082e-002
2.464684e+003;6.631560e-002
2.466613e+003;6.661852e-002
2.468542e+003;6.664116e-002
2.470470e+003;6.669574e-002
2.472398e+003;6.705790e-002
2.474327e+003;6.742913e-002
2.476256e+003;6.728524e-002
2.478184e+003;6.711548e-002
2.480113e+003;6.723820e-002
2.482041e+003;6.713802e-002
2.483970e+003;6.692243e-002
2.485898e+003;6.676649e-002
2.487827e+003;6.675486e-002
2.489755e+003;6.700972e-002
2.491684e+003;6.724048e-002
2.493613e+003;6.744307e-002
2.495541e+003;6.750554e-002
2.497470e+003;6.754781e-002
2.499398e+003;6.767212e-002
2.501327e+003;6.762000e-002
2.503255e+003;6.766163e-002
2.505184e+003;6.801513e-002
2.507112e+003;6.812644e-002
2.509041e+003;6.787258e-002
2.510969e+003;6.759968e-002
2.512898e+003;6.769485e-002
2.514827e+003;6.814089e-002
2.516755e+003;6.833018e-002
2.518684e+003;6.810400e-002
2.520612e+003;6.795049e-002
2.522541e+003;6.812996e-002
2.524469e+003;6.826779e-002
2.526398e+003;6.825817e-002
2.528326e+003;6.841387e-002
2.530255e+003;6.854445e-002
2.532184e+003;6.847935e-002
2.534112e+003;6.862143e-002
2.536041e+003;6.879477e-002
2.537969e+003;6.881198e-002
2.539898e+003;6.863990e-002
2.541826e+003;6.862015e-002
2.543755e+003;6.888419e-002
2.545683e+003;6.919625e-002
2.547612e+003;6.949898e-002
2.549541e+003;6.951030e-002
2.551469e+003;6.928152e-002
2.553397e+003;6.924681e-002
2.555326e+003;6.953946e-002
2.557255e+003;6.996424e-002
2.559183e+003;7.013018e-002
2.561112e+003;7.012496e-002
2.563040e+003;7.022198e-002
2.564969e+003;7.046122e-002
2.566897e+003;7.048519e-002
2.568826e+003;7.042323e-002
2.570754e+003;7.057511e-002
2.572683e+003;7.084276e-002
2.574612e+003;7.109246e-002
2.576540e+003;7.130228e-002
2.578469e+003;7.133375e-002
2.580397e+003;7.138335e-002
2.582326e+003;7.159717e-002
2.584254e+003;7.160737e-002
2.586183e+003;7.174408e-002
2.588111e+003;7.204408e-002
2.590040e+003;7.221203e-002
2.591969e+003;7.244169e-002
2.593897e+003;7.247876e-002
2.595826e+003;7.242345e-002
2.597754e+003;7.252293e-002
2.599683e+003;7.258464e-002
2.601611e+003;7.264112e-002
2.603540e+003;7.274520e-002
2.605468e+003;7.295468e-002
2.607397e+003;7.319403e-002
2.609325e+003;7.318211e-002
2.611254e+003;7.335105e-002
2.613183e+003;7.365904e-002
2.615111e+003;7.341335e-002
2.617040e+003;7.337231e-002
2.618968e+003;7.355588e-002
2.620897e+003;7.367038e-002
2.622825e+003;7.378865e-002
2.624754e+003;7.375409e-002
2.626682e+003;7.358272e-002
2.628611e+003;7.357853e-002
2.630540e+003;7.378586e-002
2.632468e+003;7.377274e-002
2.634396e+003;7.364950e-002
2.636325e+003;7.340319e-002
2.638254e+003;7.343705e-002
2.640182e+003;7.330017e-002
2.642111e+003;7.325184e-002
2.644039e+003;7.360714e-002
2.645968e+003;7.375017e-002
2.647896e+003;7.360911e-002
2.649825e+003;7.345188e-002
2.651753e+003;7.351161e-002
2.653682e+003;7.387886e-002
2.655611e+003;7.423106e-002
2.657539e+003;7.422099e-002
2.659468e+003;7.423939e-002
2.661396e+003;7.416981e-002
2.663325e+003;7.392168e-002
2.665253e+003;7.386103e-002
2.667182e+003;7.408100e-002
2.669110e+003;7.439399e-002
2.671039e+003;7.441947e-002
2.672968e+003;7.443654e-002
2.674896e+003;7.474986e-002
2.676825e+003;7.505015e-002
2.678753e+003;7.508580e-002
2.680682e+003;7.514539e-002
2.682610e+003;7.538375e-002
2.684539e+003;7.523549e-002
2.686467e+003;7.518167e-002
2.688396e+003;7.523581e-002
2.690324e+003;7.526015e-002
2.692253e+003;7.545091e-002
2.694182e+003;7.572900e-002
2.696110e+003;7.563449e-002
2.698039e+003;7.558268e-002
2.699967e+003;7.587284e-002
2.701896e+003;7.608432e-002
2.703824e+003;7.631055e-002
2.705753e+003;7.671501e-002
2.707681e+003;7.692159e-002
2.709610e+003;7.684367e-002
2.711539e+003;7.665417e-002
2.713467e+003;7.653163e-002
2.715396e+003;7.640836e-002
2.717324e+003;7.683714e-002
2.719253e+003;7.736855e-002
2.721181e+003;7.736744e-002
2.723110e+003;7.739004e-002
2.725038e+003;7.757243e-002
2.726967e+003;7.787495e-002
2.728896e+003;7.803969e-002
2.730824e+003;7.796934e-002
2.732752e+003;7.778735e-002
2.734681e+003;7.794143e-002
2.736610e+003;7.832531e-002
2.738538e+003;7.845271e-002
2.740467e+003;7.843798e-002
2.742395e+003;7.857673e-002
2.744324e+003;7.878511e-002
2.746252e+003;7.884566e-002
2.748181e+003;7.885166e-002
2.750109e+003;7.907362e-002
2.752038e+003;7.915587e-002
2.753967e+003;7.922199e-002
2.755895e+003;7.924943e-002
2.757824e+003;7.935753e-002
2.759752e+003;7.951356e-002
2.761681e+003;7.954408e-002
2.763609e+003;7.962865e-002
2.765538e+003;7.991261e-002
2.767466e+003;7.995380e-002
2.769395e+003;8.008192e-002
2.771323e+003;8.065197e-002
2.773252e+003;8.099964e-002
2.775181e+003;8.074965e-002
2.777109e+003;8.042885e-002
2.779038e+003;8.050203e-002
2.780966e+003;8.059029e-002
2.782895e+003;8.081941e-002
2.784823e+003;8.110147e-002
2.786752e+003;8.100012e-002
2.788680e+003;8.124986e-002
2.790609e+003;8.162760e-002
2.792538e+003;8.168014e-002
2.794466e+003;8.176929e-002
2.796395e+003;8.191530e-002
2.798323e+003;8.201695e-002
2.800252e+003;8.204097e-002
2.802180e+003;8.220465e-002
2.804109e+003;8.236704e-002
2.806037e+003;8.223940e-002
2.807966e+003;8.226359e-002
2.809895e+003;8.266129e-002
2.811823e+003;8.292558e-002
2.813751e+003;8.288708e-002
2.815680e+003;8.290196e-002
2.817609e+003;8.309149e-002
2.819537e+003;8.319638e-002
2.821466e+003;8.321693e-002
2.823394e+003;8.317567e-002
2.825323e+003;8.341578e-002
2.827251e+003;8.368829e-002
2.829180e+003;8.376182e-002
2.831108e+003;8.382258e-002
2.833037e+003;8.411665e-002
2.834966e+003;8.443069e-002
2.836894e+003;8.464166e-002
2.838823e+003;8.486772e-002
2.840751e+003;8.487243e-002
2.842680e+003;8.518975e-002
2.844608e+003;8.622676e-002
2.846537e+003;8.691644e-002
2.848465e+003;8.731198e-002
2.850394e+003;8.743577e-002
2.852323e+003;8.750656e-002
2.854251e+003;8.791932e-002
2.856180e+003;8.816166e-002
2.858108e+003;8.825260e-002
2.860037e+003;8.856855e-002
2.861965e+003;8.887817e-002
2.863894e+003;8.912634e-002
2.865822e+003;8.930318e-002
2.867751e+003;8.973887e-002
2.869679e+003;9.022593e-002
2.871608e+003;9.037511e-002
2.873536e+003;9.063018e-002
2.875465e+003;9.070089e-002
2.877394e+003;9.066492e-002
2.879322e+003;9.074564e-002
2.881251e+003;9.085040e-002
2.883179e+003;9.080208e-002
2.885108e+003;9.079677e-002
2.887036e+003;9.112319e-002
2.888965e+003;9.128417e-002
2.890893e+003;9.135772e-002
2.892822e+003;9.178333e-002
2.894750e+003;9.175950e-002
2.896679e+003;9.157201e-002
2.898608e+003;9.183769e-002
2.900536e+003;9.234174e-002
2.902465e+003;9.247119e-002
2.904393e+003;9.289145e-002
2.906322e+003;9.361116e-002
2.908250e+003;9.410201e-002
2.910179e+003;9.459462e-002
2.912107e+003;9.519495e-002
2.914036e+003;9.573700e-002
2.915965e+003;9.650642e-002
2.917893e+003;9.726366e-002
2.919822e+003;9.799743e-002
2.921750e+003;9.857229e-002
2.923679e+003;9.926451e-002
2.925607e+003;1.000691e-001
2.927536e+003;1.003404e-001
2.929464e+003;1.001509e-001
2.931393e+003;1.001429e-001
2.933322e+003;1.003822e-001
2.935250e+003;1.006750e-001
2.937178e+003;1.006455e-001
2.939107e+003;1.003410e-001
2.941036e+003;9.983831e-002
2.942964e+003;9.906513e-002
2.944893e+003;9.838836e-002
2.946821e+003;9.784635e-002
2.948750e+003;9.747332e-002
2.950678e+003;9.698009e-002
2.952607e+003;9.648569e-002
2.954535e+003;9.611160e-002
2.956464e+003;9.597436e-002
2.958393e+003;9.617295e-002
2.960321e+003;9.633055e-002
2.962250e+003;9.626877e-002
2.964178e+003;9.626517e-002
2.966107e+003;9.666766e-002
2.968035e+003;9.678760e-002
2.969964e+003;9.633974e-002
2.971892e+003;9.636563e-002
2.973821e+003;9.650782e-002
2.975750e+003;9.647493e-002
2.977678e+003;9.654619e-002
2.979607e+003;9.640481e-002
2.981535e+003;9.603211e-002
2.983464e+003;9.584986e-002
2.985392e+003;9.554798e-002
2.987321e+003;9.513823e-002
2.989249e+003;9.481203e-002
2.991178e+003;9.400816e-002
2.993106e+003;9.336156e-002
2.995035e+003;9.327715e-002
2.996964e+003;9.343567e-002
2.998892e+003;9.340803e-002
3.000821e+003;9.304084e-002
3.002749e+003;9.267040e-002
3.004678e+003;9.249116e-002
3.006606e+003;9.252068e-002
3.008535e+003;9.232728e-002
3.010463e+003;9.214105e-002
3.012392e+003;9.195781e-002
3.014321e+003;9.177297e-002
3.016249e+003;9.198824e-002
3.018177e+003;9.239072e-002
3.020106e+003;9.260207e-002
3.022035e+003;9.295087e-002
3.023963e+003;9.352957e-002
3.025892e+003;9.397245e-002
3.027820e+003;9.403972e-002
3.029749e+003;9.416938e-002
3.031677e+003;9.436344e-002
3.033606e+003;9.475470e-002
3.035534e+003;9.535422e-002
3.037463e+003;9.592709e-002
3.039392e+003;9.614599e-002
3.041320e+003;9.609667e-002
3.043249e+003;9.629999e-002
3.045177e+003;9.671767e-002
3.047106e+003;9.710132e-002
3.049034e+003;9.758034e-002
3.050963e+003;9.816682e-002
3.052891e+003;9.852806e-002
3.054820e+003;9.871796e-002
3.056749e+003;9.933431e-002
3.058677e+003;9.967563e-002
3.060606e+003;9.944524e-002
3.062534e+003;9.948648e-002
3.064463e+003;9.997448e-002
3.066391e+003;1.003452e-001
3.068320e+003;1.004480e-001
3.070248e+003;1.004178e-001
3.072177e+003;1.002997e-001
3.074105e+003;1.003667e-001
3.076034e+003;1.003046e-001
3.077963e+003;9.998945e-002
3.079891e+003;9.972307e-002
3.081820e+003;9.975868e-002
3.083748e+003;9.982484e-002
3.085677e+003;9.969989e-002
3.087605e+003;9.952632e-002
3.089534e+003;9.916367e-002
3.091462e+003;9.877515e-002
3.093391e+003;9.856768e-002
3.095320e+003;9.857562e-002
3.097248e+003;9.865920e-002
3.099177e+003;9.825468e-002
3.101105e+003;9.800129e-002
3.103034e+003;9.823358e-002
3.104962e+003;9.823973e-002
3.106891e+003;9.785810e-002
3.108819e+003;9.726349e-002
3.110748e+003;9.707385e-002
3.112677e+003;9.720095e-002
3.114605e+003;9.704100e-002
3.116533e+003;9.661431e-002
3.118462e+003;9.629850e-002
3.120391e+003;9.616625e-002
3.122319e+003;9.629250e-002
3.124248e+003;9.627005e-002
3.126176e+003;9.637035e-002
3.128105e+003;9.665040e-002
3.130033e+003;9.678984e-002
3.131962e+003;9.694182e-002
3.133890e+003;9.683207e-002
3.135819e+003;9.695558e-002
3.137748e+003;9.744392e-002
3.139676e+003;9.762082e-002
3.141605e+003;9.779302e-002
3.143533e+003;9.817214e-002
3.145462e+003;9.836621e-002
3.147390e+003;9.845266e-002
3.149319e+003;9.872757e-002
3.151247e+003;9.916428e-002
3.153176e+003;9.963162e-002
3.155104e+003;1.000653e-001
3.157033e+003;1.004444e-001
3.158962e+003;1.008107e-001
3.160890e+003;1.011063e-001
3.162819e+003;1.016048e-001
3.164747e+003;1.024508e-001
3.166676e+003;1.029344e-001
3.168604e+003;1.029175e-001
3.170533e+003;1.033285e-001
3.172461e+003;1.039792e-001
3.174390e+003;1.046004e-001
3.176319e+003;1.051368e-001
3.178247e+003;1.056837e-001
3.180176e+003;1.063497e-001
3.182104e+003;1.072673e-001
3.184033e+003;1.082806e-001
3.185961e+003;1.090925e-001
3.187890e+003;1.098503e-001
3.189818e+003;1.102815e-001
3.191747e+003;1.109002e-001
3.193676e+003;1.117289e-001
3.195604e+003;1.124006e-001
3.197532e+003;1.131035e-001
3.199461e+003;1.136796e-001
3.201390e+003;1.143005e-001
3.203318e+003;1.152159e-001
3.205247e+003;1.159681e-001
3.207175e+003;1.165736e-001
3.209104e+003;1.175482e-001
3.211032e+003;1.183987e-001
3.212961e+003;1.189410e-001
3.214889e+003;1.194635e-001
3.216818e+003;1.203105e-001
3.218747e+003;1.210224e-001
3.220675e+003;1.215829e-001
3.222604e+003;1.225140e-001
3.224532e+003;1.233417e-001
3.226461e+003;1.237865e-001
3.228389e+003;1.245764e-001
3.230318e+003;1.255391e-001
3.232246e+003;1.266692e-001
3.234175e+003;1.273806e-001
3.236104e+003;1.281190e-001
3.238032e+003;1.291931e-001
3.239961e+003;1.302947e-001
3.241889e+003;1.317462e-001
3.243818e+003;1.329749e-001
3.245746e+003;1.337128e-001
3.247675e+003;1.344726e-001
3.249603e+003;1.358849e-001
3.251532e+003;1.371508e-001
3.253460e+003;1.380534e-001
3.255389e+003;1.391855e-001
3.257318e+003;1.406461e-001
3.259246e+003;1.422369e-001
3.261175e+003;1.438811e-001
3.263103e+003;1.453569e-001
3.265032e+003;1.462050e-001
3.266960e+003;1.469340e-001
3.268889e+003;1.480292e-001
3.270817e+003;1.493424e-001
3.272746e+003;1.505803e-001
3.274675e+003;1.516672e-001
3.276603e+003;1.524409e-001
3.278531e+003;1.531058e-001
3.280460e+003;1.534370e-001
3.282389e+003;1.534365e-001
3.284317e+003;1.533661e-001
3.286246e+003;1.533397e-001
3.288174e+003;1.529385e-001
3.290103e+003;1.526657e-001
3.292031e+003;1.520894e-001
3.293960e+003;1.511078e-001
3.295888e+003;1.500999e-001
3.297817e+003;1.490756e-001
3.299746e+003;1.477852e-001
3.301674e+003;1.461302e-001
3.303603e+003;1.449054e-001
3.305531e+003;1.440876e-001
3.307460e+003;1.425884e-001
3.309388e+003;1.407931e-001
3.311317e+003;1.394879e-001
3.313245e+003;1.382903e-001
3.315174e+003;1.370218e-001
3.317103e+003;1.352282e-001
3.319031e+003;1.333957e-001
3.320960e+003;1.324591e-001
3.322888e+003;1.310052e-001
3.324817e+003;1.290549e-001
3.326745e+003;1.274873e-001
3.328674e+003;1.260918e-001
3.330602e+003;1.250376e-001
3.332531e+003;1.240133e-001
3.334459e+003;1.224920e-001
3.336388e+003;1.211429e-001
3.338317e+003;1.196175e-001
3.340245e+003;1.181360e-001
3.342174e+003;1.169448e-001
3.344102e+003;1.157917e-001
3.346031e+003;1.151088e-001
3.347959e+003;1.143890e-001
3.349888e+003;1.134870e-001
3.351816e+003;1.124760e-001
3.353745e+003;1.113489e-001
3.355674e+003;1.104327e-001
3.357602e+003;1.096658e-001
3.359531e+003;1.090431e-001
3.361459e+003;1.083538e-001
3.363388e+003;1.074414e-001
3.365316e+003;1.069482e-001
3.367245e+003;1.060444e-001
3.369173e+003;1.052777e-001
3.371102e+003;1.050891e-001
3.373031e+003;1.044422e-001
3.374959e+003;1.035051e-001
3.376887e+003;1.028557e-001
3.378816e+003;1.023232e-001
3.380745e+003;1.015437e-001
3.382673e+003;1.007768e-001
3.384602e+003;1.001374e-001
3.386530e+003;9.967901e-002
3.388459e+003;9.967414e-002
3.390387e+003;9.918465e-002
3.392316e+003;9.860440e-002
3.394244e+003;9.806877e-002
3.396173e+003;9.776957e-002
3.398102e+003;9.708893e-002
3.400030e+003;9.623436e-002
3.401959e+003;9.598874e-002
3.403887e+003;9.569590e-002
3.405816e+003;9.512086e-002
3.407744e+003;9.435952e-002
3.409673e+003;9.351219e-002
3.411601e+003;9.300444e-002
3.413530e+003;9.272869e-002
3.415458e+003;9.234482e-002
3.417387e+003;9.149207e-002
3.419316e+003;9.076080e-002
3.421244e+003;9.025053e-002
3.423173e+003;8.973581e-002
3.425101e+003;8.902513e-002
3.427030e+003;8.822073e-002
3.428958e+003;8.793405e-002
3.430887e+003;8.776214e-002
3.432815e+003;8.723113e-002
3.434744e+003;8.657092e-002
3.436673e+003;8.610405e-002
3.438601e+003;8.575179e-002
3.440530e+003;8.556448e-002
3.442458e+003;8.549722e-002
3.444387e+003;8.515307e-002
3.446315e+003;8.467955e-002
3.448244e+003;8.456746e-002
3.450172e+003;8.413752e-002
3.452101e+003;8.316889e-002
3.454030e+003;8.291937e-002
3.455958e+003;8.306400e-002
3.457886e+003;8.259316e-002
3.459815e+003;8.224809e-002
3.461744e+003;8.223264e-002
3.463672e+003;8.197501e-002
3.465601e+003;8.198430e-002
3.467529e+003;8.191803e-002
3.469458e+003;8.144638e-002
3.471386e+003;8.100998e-002
3.473315e+003;8.084635e-002
3.475243e+003;8.075539e-002
3.477172e+003;8.060330e-002
3.479101e+003;8.051962e-002
3.481029e+003;8.027966e-002
3.482958e+003;7.988995e-002
3.484886e+003;7.954070e-002
3.486815e+003;7.962014e-002
3.488743e+003;7.979473e-002
3.490672e+003;7.936835e-002
3.492600e+003;7.906924e-002
3.494529e+003;7.910844e-002
3.496458e+003;7.900469e-002
3.498386e+003;7.867517e-002
3.500315e+003;7.816479e-002
3.502243e+003;7.796787e-002
3.504172e+003;7.771217e-002
3.506100e+003;7.706622e-002
3.508029e+003;7.651105e-002
3.509957e+003;7.659139e-002
3.511886e+003;7.688235e-002
3.513814e+003;7.705673e-002
3.515743e+003;7.653345e-002
3.517672e+003;7.608759e-002
3.519600e+003;7.582774e-002
3.521529e+003;7.564925e-002
3.523457e+003;7.579046e-002
3.525386e+003;7.558832e-002
3.527314e+003;7.506208e-002
3.529243e+003;7.471181e-002
3.531171e+003;7.446069e-002
3.533100e+003;7.471830e-002
3.535029e+003;7.462639e-002
3.536957e+003;7.424560e-002
3.538885e+003;7.429691e-002
3.540814e+003;7.425582e-002
3.542743e+003;7.370155e-002
3.544671e+003;7.306566e-002
3.546600e+003;7.223570e-002
3.548528e+003;7.177152e-002
3.550457e+003;7.169495e-002
3.552385e+003;7.136382e-002
3.554314e+003;7.133918e-002
3.556242e+003;7.142673e-002
3.558171e+003;7.107498e-002
3.560100e+003;7.074545e-002
3.562028e+003;7.093915e-002
3.563957e+003;7.099943e-002
3.565885e+003;7.034896e-002
3.567814e+003;6.994284e-002
3.569742e+003;7.012010e-002
3.571671e+003;6.997491e-002
3.573599e+003;6.944688e-002
3.575528e+003;6.941255e-002
3.577457e+003;6.946554e-002
3.579385e+003;6.921386e-002
3.581314e+003;6.858926e-002
3.583242e+003;6.793725e-002
3.585171e+003;6.755175e-002
3.587099e+003;6.739701e-002
3.589028e+003;6.742105e-002
3.590956e+003;6.714015e-002
3.592885e+003;6.650691e-002
3.594813e+003;6.639554e-002
3.596742e+003;6.638563e-002
3.598671e+003;6.625272e-002
3.600599e+003;6.654900e-002
3.602528e+003;6.670262e-002
3.604456e+003;6.636852e-002
3.606385e+003;6.565226e-002
3.608313e+003;6.517095e-002
3.610242e+003;6.509985e-002
3.612170e+003;6.512240e-002
3.614099e+003;6.481583e-002
3.616028e+003;6.428374e-002
3.617956e+003;6.403668e-002
3.619885e+003;6.385675e-002
3.621813e+003;6.371299e-002
3.623742e+003;6.364229e-002
3.625670e+003;6.336129e-002
3.627599e+003;6.289224e-002
3.629527e+003;6.244722e-002
3.631456e+003;6.271232e-002
3.633385e+003;6.273950e-002
3.635313e+003;6.244179e-002
3.637241e+003;6.200832e-002
3.639170e+003;6.126158e-002
3.641099e+003;6.120604e-002
3.643027e+003;6.133316e-002
3.644956e+003;6.076286e-002
3.646884e+003;6.012606e-002
3.648813e+003;5.965091e-002
3.650741e+003;5.897413e-002
3.652670e+003;5.875257e-002
3.654598e+003;5.856484e-002
3.656527e+003;5.801474e-002
3.658456e+003;5.778043e-002
3.660384e+003;5.767931e-002
3.662313e+003;5.751478e-002
3.664241e+003;5.719787e-002
3.666170e+003;5.666173e-002
3.668098e+003;5.605602e-002
3.670027e+003;5.541451e-002
3.671955e+003;5.497476e-002
3.673884e+003;5.450044e-002
3.675813e+003;5.384457e-002
3.677741e+003;5.352479e-002
3.679669e+003;5.325475e-002
3.681598e+003;5.296726e-002
3.683527e+003;5.273345e-002
3.685455e+003;5.233523e-002
3.687384e+003;5.183963e-002
3.689312e+003;5.145365e-002
3.691241e+003;5.117513e-002
3.693169e+003;5.080966e-002
3.695098e+003;5.044745e-002
3.697026e+003;5.038876e-002
3.698955e+003;5.027938e-002
3.700884e+003;5.004266e-002
3.702812e+003;5.000752e-002
3.704741e+003;4.980313e-002
3.706669e+003;4.950907e-002
3.708598e+003;4.915127e-002
3.710526e+003;4.863449e-002
3.712455e+003;4.842015e-002
3.714383e+003;4.863064e-002
3.716312e+003;4.837359e-002
3.718240e+003;4.808553e-002
3.720169e+003;4.837063e-002
3.722098e+003;4.822125e-002
3.724026e+003;4.810093e-002
3.725955e+003;4.837652e-002
3.727883e+003;4.851858e-002
3.729812e+003;4.854233e-002
3.731740e+003;4.810126e-002
3.733669e+003;4.767783e-002
3.735597e+003;4.727444e-002
3.737526e+003;4.714489e-002
3.739455e+003;4.723827e-002
3.741383e+003;4.736145e-002
3.743312e+003;4.698352e-002
3.745240e+003;4.615606e-002
3.747169e+003;4.633017e-002
3.749097e+003;4.679797e-002
3.751026e+003;4.701934e-002
3.752954e+003;4.693885e-002
3.754883e+003;4.688451e-002
3.756812e+003;4.663791e-002
3.758740e+003;4.669926e-002
3.760668e+003;4.679708e-002
3.762597e+003;4.663640e-002
3.764526e+003;4.647307e-002
3.766454e+003;4.684410e-002
3.768383e+003;4.733876e-002
3.770311e+003;4.719180e-002
3.772240e+003;4.667436e-002
3.774168e+003;4.657966e-002
3.776097e+003;4.645014e-002
3.778025e+003;4.619475e-002
3.779954e+003;4.617883e-002
3.781883e+003;4.606656e-002
3.783811e+003;4.593715e-002
3.785740e+003;4.601528e-002
3.787668e+003;4.606796e-002
3.789597e+003;4.649727e-002
3.791525e+003;4.656613e-002
3.793454e+003;4.662880e-002
3.795382e+003;4.656199e-002
3.797311e+003;4.647886e-002
3.799240e+003;4.679180e-002
3.801168e+003;4.684388e-002
3.803097e+003;4.653197e-002
3.805025e+003;4.647429e-002
3.806954e+003;4.645412e-002
3.808882e+003;4.667192e-002
3.810811e+003;4.698064e-002
3.812739e+003;4.683679e-002
3.814668e+003;4.642658e-002
3.816596e+003;4.619121e-002
3.818525e+003;4.647532e-002
3.820454e+003;4.650545e-002
3.822382e+003;4.660906e-002
3.824311e+003;4.674918e-002
3.826239e+003;4.699127e-002
3.828168e+003;4.727407e-002
3.830096e+003;4.706642e-002
3.832025e+003;4.670856e-002
3.833953e+003;4.670896e-002
3.835882e+003;4.689341e-002
3.837811e+003;4.671247e-002
3.839739e+003;4.643834e-002
3.841667e+003;4.674830e-002
3.843596e+003;4.706453e-002
3.845525e+003;4.707328e-002
3.847453e+003;4.768353e-002
3.849382e+003;4.815797e-002
3.851310e+003;4.776308e-002
3.853239e+003;4.734334e-002
3.855167e+003;4.753516e-002
3.857096e+003;4.761801e-002
3.859024e+003;4.760876e-002
3.860953e+003;4.764980e-002
3.862882e+003;4.768630e-002
3.864810e+003;4.803979e-002
3.866739e+003;4.814009e-002
3.868667e+003;4.770346e-002
3.870596e+003;4.756651e-002
3.872524e+003;4.788056e-002
3.874453e+003;4.825242e-002
3.876381e+003;4.877479e-002
3.878310e+003;4.871518e-002
3.880239e+003;4.853348e-002
3.882167e+003;4.888101e-002
3.884096e+003;4.876359e-002
3.886024e+003;4.881101e-002
3.887953e+003;4.910467e-002
3.889881e+003;4.898990e-002
3.891810e+003;4.886010e-002
3.893738e+003;4.871618e-002
3.895667e+003;4.889629e-002
3.897595e+003;4.934894e-002
3.899524e+003;4.964511e-002
3.901453e+003;4.953406e-002
3.903381e+003;4.925109e-002
3.905310e+003;4.938476e-002
3.907238e+003;5.003570e-002
3.909167e+003;5.036026e-002
3.911095e+003;4.985088e-002
3.913024e+003;4.945675e-002
3.914952e+003;4.958598e-002
3.916881e+003;4.997982e-002
3.918810e+003;5.060076e-002
3.920738e+003;5.076341e-002
3.922667e+003;5.070516e-002
3.924595e+003;5.069276e-002
3.926524e+003;5.054317e-002
3.928452e+003;5.050677e-002
3.930381e+003;5.068595e-002
3.932309e+003;5.097470e-002
3.934238e+003;5.104285e-002
3.936167e+003;5.093423e-002
3.938095e+003;5.091024e-002
3.940023e+003;5.106718e-002
3.941952e+003;5.096497e-002
3.943881e+003;5.061964e-002
3.945809e+003;5.079827e-002
3.947738e+003;5.101445e-002
3.949666e+003;5.138423e-002
3.951595e+003;5.147599e-002
3.953523e+003;5.144637e-002
3.955452e+003;5.134175e-002
3.957380e+003;5.162105e-002
3.959309e+003;5.200109e-002
3.961238e+003;5.179584e-002
3.963166e+003;5.160676e-002
3.965095e+003;5.162310e-002
3.967023e+003;5.189462e-002
3.968952e+003;5.212944e-002
3.970880e+003;5.195874e-002
3.972809e+003;5.179416e-002
3.974737e+003;5.197017e-002
3.976666e+003;5.206358e-002
3.978594e+003;5.207539e-002
3.980523e+003;5.254486e-002
3.982452e+003;5.247848e-002
3.984380e+003;5.200655e-002
3.986309e+003;5.187226e-002
3.988237e+003;5.227158e-002
3.990166e+003;5.212063e-002
3.992094e+003;5.183866e-002
3.994023e+003;5.225096e-002
3.995951e+003;5.233803e-002
3.997880e+003;5.191001e-002
3.999809e+003;5.180939e-002
4.001737e+003;0.000000e+000
