3.992094e+002;0.000000e+000
4.011380e+002;0.000000e+000
4.030665e+002;0.000000e+000
4.049951e+002;0.000000e+000
4.069236e+002;0.000000e+000
4.088522e+002;0.000000e+000
4.107807e+002;0.000000e+000
4.127093e+002;0.000000e+000
4.146378e+002;0.000000e+000
4.165664e+002;0.000000e+000
4.184949e+002;0.000000e+000
4.204235e+002;0.000000e+000
4.223520e+002;0.000000e+000
4.242806e+002;0.000000e+000
4.262091e+002;0.000000e+000
4.281377e+002;0.000000e+000
4.300662e+002;0.000000e+000
4.319948e+002;0.000000e+000
4.339233e+002;0.000000e+000
4.358519e+002;0.000000e+000
4.377804e+002;0.000000e+000
4.397090e+002;0.000000e+000
4.416375e+002;0.000000e+000
4.435660e+002;0.000000e+000
4.454946e+002;0.000000e+000
4.474232e+002;0.000000e+000
4.493517e+002;0.000000e+000
4.512802e+002;0.000000e+000
4.532088e+002;0.000000e+000
4.551373e+002;0.000000e+000
4.570659e+002;0.000000e+000
4.589944e+002;0.000000e+000
4.609230e+002;0.000000e+000
4.628515e+002;0.000000e+000
4.647801e+002;0.000000e+000
4.667086e+002;0.000000e+000
4.686372e+002;0.000000e+000
4.705657e+002;0.000000e+000
4.724943e+002;0.000000e+000
4.744228e+002;0.000000e+000
4.763513e+002;0.000000e+000
4.782799e+002;0.000000e+000
4.802085e+002;0.000000e+000
4.821370e+002;0.000000e+000
4.840656e+002;0.000000e+000
4.859941e+002;0.000000e+000
4.879226e+002;0.000000e+000
4.898512e+002;0.000000e+000
4.917798e+002;0.000000e+000
4.937083e+002;0.000000e+000
4.956368e+002;0.000000e+000
4.975654e+002;0.000000e+000
4.994939e+002;0.000000e+000
5.014225e+002;0.000000e+000
5.033510e+002;0.000000e+000
5.052796e+002;0.000000e+000
5.072081e+002;0.000000e+000
5.091367e+002;0.000000e+000
5.110652e+002;0.000000e+000
5.129938e+002;0.000000e+000
5.149223e+002;0.000000e+000
5.168509e+002;0.000000e+000
5.187794e+002;0.000000e+000
5.207079e+002;0.000000e+000
5.226365e+002;0.000000e+000
5.245651e+002;0.000000e+000
5.264936e+002;0.000000e+000
5.284222e+002;0.000000e+000
5.303507e+002;0.000000e+000
5.322792e+002;0.000000e+000
5.342078e+002;0.000000e+000
5.361364e+002;0.000000e+000
5.380649e+002;0.000000e+000
5.399935e+002;0.000000e+000
5.419220e+002;0.000000e+000
5.438505e+002;0.000000e+000
5.457791e+002;0.000000e+000
5.477076e+002;0.000000e+000
5.496362e+002;0.000000e+000
5.515648e+002;0.000000e+000
5.534933e+002;0.000000e+000
5.554218e+002;0.000000e+000
5.573504e+002;0.000000e+000
5.592789e+002;0.000000e+000
5.612075e+002;0.000000e+000
5.631360e+002;0.000000e+000
5.650646e+002;0.000000e+000
5.669931e+002;0.000000e+000
5.689217e+002;0.000000e+000
5.708502e+002;0.000000e+000
5.727787e+002;0.000000e+000
5.747073e+002;0.000000e+000
5.766359e+002;0.000000e+000
5.785644e+002;0.000000e+000
5.804930e+002;0.000000e+000
5.824215e+002;0.000000e+000
5.843500e+002;0.000000e+000
5.862786e+002;0.000000e+000
5.882072e+002;0.000000e+000
5.901357e+002;0.000000e+000
5.920643e+002;0.000000e+000
5.939928e+002;0.000000e+000
5.959213e+002;0.000000e+000
5.978499e+002;0.000000e+000
5.997784e+002;2.302550e-001
6.017070e+002;2.361485e-001
6.036355e+002;2.359068e-001
6.055641e+002;2.334116e-001
6.074926e+002;2.380828e-001
6.094211e+002;2.403320e-001
6.113497e+002;2.376830e-001
6.132783e+002;2.343854e-001
6.152068e+002;2.342351e-001
6.171354e+002;2.361237e-001
6.190639e+002;2.376601e-001
6.209924e+002;2.397172e-001
6.229210e+002;2.391028e-001
6.248495e+002;2.339910e-001
6.267781e+002;2.290078e-001
6.287067e+002;2.287473e-001
6.306352e+002;2.312990e-001
6.325637e+002;2.304088e-001
6.344923e+002;2.287090e-001
6.364208e+002;2.303195e-001
6.383494e+002;2.322357e-001
6.402780e+002;2.301868e-001
6.422065e+002;2.283991e-001
6.441350e+002;2.252250e-001
6.460636e+002;2.238388e-001
6.479921e+002;2.245907e-001
6.499207e+002;2.247491e-001
6.518492e+002;2.253794e-001
6.537778e+002;2.252747e-001
6.557063e+002;2.241519e-001
6.576349e+002;2.199792e-001
6.595634e+002;2.206745e-001
6.614919e+002;2.233222e-001
6.634205e+002;2.225181e-001
6.653491e+002;2.187216e-001
6.672776e+002;2.174587e-001
6.692062e+002;2.197424e-001
6.711347e+002;2.215058e-001
6.730632e+002;2.204195e-001
6.749918e+002;2.170752e-001
6.769203e+002;2.164999e-001
6.788489e+002;2.175139e-001
6.807775e+002;2.178297e-001
6.827060e+002;2.161983e-001
6.846345e+002;2.131132e-001
6.865631e+002;2.120503e-001
6.884916e+002;2.112792e-001
6.904202e+002;2.097468e-001
6.923488e+002;2.079318e-001
6.942773e+002;2.061966e-001
6.962058e+002;2.055180e-001
6.981344e+002;2.033375e-001
7.000629e+002;2.014942e-001
7.019915e+002;1.996039e-001
7.039200e+002;1.971660e-001
7.058486e+002;1.950580e-001
7.077771e+002;1.933312e-001
7.097057e+002;1.911977e-001
7.116342e+002;1.888887e-001
7.135627e+002;1.869132e-001
7.154913e+002;1.849450e-001
7.174199e+002;1.826113e-001
7.193484e+002;1.808590e-001
7.212770e+002;1.789499e-001
7.232055e+002;1.769186e-001
7.251340e+002;1.744144e-001
7.270626e+002;1.724021e-001
7.289911e+002;1.701156e-001
7.309197e+002;1.675666e-001
7.328483e+002;1.649141e-001
7.347768e+002;1.623603e-001
7.367053e+002;1.597428e-001
7.386339e+002;1.573776e-001
7.405624e+002;1.558235e-001
7.424910e+002;1.540877e-001
7.444196e+002;1.514723e-001
7.463481e+002;1.494198e-001
7.482766e+002;1.478580e-001
7.502052e+002;1.456230e-001
7.521337e+002;1.429402e-001
7.540623e+002;1.404211e-001
7.559908e+002;1.385913e-001
7.579194e+002;1.373506e-001
7.598479e+002;1.353092e-001
7.617765e+002;1.326943e-001
7.637050e+002;1.312181e-001
7.656335e+002;1.295281e-001
7.675621e+002;1.276927e-001
7.694907e+002;1.264204e-001
7.714192e+002;1.245374e-001
7.733478e+002;1.223583e-001
7.752763e+002;1.201941e-001
7.772048e+002;1.186833e-001
7.791334e+002;1.172105e-001
7.810620e+002;1.157578e-001
7.829905e+002;1.137165e-001
7.849191e+002;1.117842e-001
7.868476e+002;1.102272e-001
7.887761e+002;1.083893e-001
7.907047e+002;1.066637e-001
7.926332e+002;1.046017e-001
7.945618e+002;1.027095e-001
7.964903e+002;1.016738e-001
7.984189e+002;1.008750e-001
8.003474e+002;9.986541e-002
8.022759e+002;9.930520e-002
8.042045e+002;9.852473e-002
8.061331e+002;9.764331e-002
8.080616e+002;9.743235e-002
8.099902e+002;9.716336e-002
8.119187e+002;9.681932e-002
8.138472e+002;9.647655e-002
8.157758e+002;9.599635e-002
8.177043e+002;9.603487e-002
8.196329e+002;9.595895e-002
8.215615e+002;9.575687e-002
8.234900e+002;9.611912e-002
8.254185e+002;9.636857e-002
8.273471e+002;9.696100e-002
8.292756e+002;9.757042e-002
8.312042e+002;9.734391e-002
8.331328e+002;9.612739e-002
8.350613e+002;9.483124e-002
8.369898e+002;9.295251e-002
8.389184e+002;9.119304e-002
8.408469e+002;8.990651e-002
8.427755e+002;8.897637e-002
8.447040e+002;8.869854e-002
8.466326e+002;8.836719e-002
8.485611e+002;8.811454e-002
8.504897e+002;8.787697e-002
8.524182e+002;8.745506e-002
8.543467e+002;8.716134e-002
8.562753e+002;8.606421e-002
8.582039e+002;8.384830e-002
8.601324e+002;8.102124e-002
8.620610e+002;7.909890e-002
8.639895e+002;7.764053e-002
8.659180e+002;7.539786e-002
8.678466e+002;7.396277e-002
8.697751e+002;7.398497e-002
8.717037e+002;7.363207e-002
8.736323e+002;7.243104e-002
8.755608e+002;7.154084e-002
8.774893e+002;7.129904e-002
8.794179e+002;7.082915e-002
8.813464e+002;7.024179e-002
8.832750e+002;6.993170e-002
8.852036e+002;6.969940e-002
8.871321e+002;6.949109e-002
8.890606e+002;6.923224e-002
8.909892e+002;6.885014e-002
8.929177e+002;6.899370e-002
8.948463e+002;6.877766e-002
8.967748e+002;6.826290e-002
8.987034e+002;6.800351e-002
9.006319e+002;6.790148e-002
9.025605e+002;6.777532e-002
9.044890e+002;6.770693e-002
9.064175e+002;6.767971e-002
9.083461e+002;6.756341e-002
9.102747e+002;6.797130e-002
9.122032e+002;6.870992e-002
9.141318e+002;6.940404e-002
9.160603e+002;6.984729e-002
9.179888e+002;7.073028e-002
9.199174e+002;7.226822e-002
9.218459e+002;7.346758e-002
9.237745e+002;7.434779e-002
9.257031e+002;7.530319e-002
9.276316e+002;7.647873e-002
9.295601e+002;7.704007e-002
9.314887e+002;7.759497e-002
9.334172e+002;7.872244e-002
9.353458e+002;7.971161e-002
9.372744e+002;8.030099e-002
9.392029e+002;8.090494e-002
9.411314e+002;8.135758e-002
9.430600e+002;8.210433e-002
9.449885e+002;8.288937e-002
9.469171e+002;8.383198e-002
9.488456e+002;8.505847e-002
9.507742e+002;8.669327e-002
9.527027e+002;8.846243e-002
9.546313e+002;8.984159e-002
9.565598e+002;9.104048e-002
9.584883e+002;9.240925e-002
9.604169e+002;9.325271e-002
9.623455e+002;9.417638e-002
9.642740e+002;9.501673e-002
9.662026e+002;9.592415e-002
9.681311e+002;9.710058e-002
9.700596e+002;9.836625e-002
9.719882e+002;9.944290e-002
9.739167e+002;1.003771e-001
9.758453e+002;1.012117e-001
9.777739e+002;1.016399e-001
9.797024e+002;1.017546e-001
9.816309e+002;1.017852e-001
9.835595e+002;1.018587e-001
9.854880e+002;1.029380e-001
9.874166e+002;1.042904e-001
9.893452e+002;1.062101e-001
9.912737e+002;1.092312e-001
9.932022e+002;1.120561e-001
9.951307e+002;1.144289e-001
9.970593e+002;1.168933e-001
9.989879e+002;1.193230e-001
1.000916e+003;1.215248e-001
1.002845e+003;1.236633e-001
1.004773e+003;1.262364e-001
1.006702e+003;1.286398e-001
1.008631e+003;1.306704e-001
1.010559e+003;1.326394e-001
1.012488e+003;1.336812e-001
1.014416e+003;1.346065e-001
1.016345e+003;1.348626e-001
1.018273e+003;1.343806e-001
1.020202e+003;1.339357e-001
1.022130e+003;1.336206e-001
1.024059e+003;1.336884e-001
1.025988e+003;1.347881e-001
1.027916e+003;1.365642e-001
1.029845e+003;1.383956e-001
1.031773e+003;1.406281e-001
1.033702e+003;1.427935e-001
1.035630e+003;1.446652e-001
1.037559e+003;1.463649e-001
1.039487e+003;1.481842e-001
1.041416e+003;1.500411e-001
1.043344e+003;1.514742e-001
1.045273e+003;1.524773e-001
1.047202e+003;1.533375e-001
1.049130e+003;1.540367e-001
1.051059e+003;1.544601e-001
1.052987e+003;1.552924e-001
1.054916e+003;1.563657e-001
1.056844e+003;1.573490e-001
1.058773e+003;1.579622e-001
1.060701e+003;1.583265e-001
1.062630e+003;1.588992e-001
1.064558e+003;1.590962e-001
1.066487e+003;1.587620e-001
1.068416e+003;1.580151e-001
1.070344e+003;1.566564e-001
1.072273e+003;1.551834e-001
1.074201e+003;1.535699e-001
1.076130e+003;1.512310e-001
1.078058e+003;1.486135e-001
1.079987e+003;1.461313e-001
1.081915e+003;1.433756e-001
1.083844e+003;1.404410e-001
1.085773e+003;1.372559e-001
1.087701e+003;1.343981e-001
1.089630e+003;1.314241e-001
1.091558e+003;1.284745e-001
1.093487e+003;1.259193e-001
1.095415e+003;1.243769e-001
1.097344e+003;1.233182e-001
1.099272e+003;1.224085e-001
1.101201e+003;1.215235e-001
1.103129e+003;1.206440e-001
1.105058e+003;1.198126e-001
1.106987e+003;1.187786e-001
1.108915e+003;1.179051e-001
1.110844e+003;1.165007e-001
1.112772e+003;1.146373e-001
1.114701e+003;1.130275e-001
1.116629e+003;1.116737e-001
1.118558e+003;1.104572e-001
1.120486e+003;1.098970e-001
1.122415e+003;1.098727e-001
1.124344e+003;1.092991e-001
1.126272e+003;1.085142e-001
1.128201e+003;1.083707e-001
1.130129e+003;1.087804e-001
1.132058e+003;1.093227e-001
1.133986e+003;1.096301e-001
1.135915e+003;1.103903e-001
1.137843e+003;1.114383e-001
1.139772e+003;1.124719e-001
1.141700e+003;1.136749e-001
1.143629e+003;1.152202e-001
1.145557e+003;1.170457e-001
1.147486e+003;1.189696e-001
1.149415e+003;1.210973e-001
1.151343e+003;1.235199e-001
1.153272e+003;1.259813e-001
1.155200e+003;1.283982e-001
1.157129e+003;1.305388e-001
1.159057e+003;1.323667e-001
1.160986e+003;1.337548e-001
1.162914e+003;1.350536e-001
1.164843e+003;1.362970e-001
1.166771e+003;1.373996e-001
1.168700e+003;1.384279e-001
1.170629e+003;1.391733e-001
1.172557e+003;1.393166e-001
1.174486e+003;1.391118e-001
1.176414e+003;1.379813e-001
1.178343e+003;1.360981e-001
1.180271e+003;1.342316e-001
1.182200e+003;1.325226e-001
1.184128e+003;1.313414e-001
1.186057e+003;1.309288e-001
1.187986e+003;1.310658e-001
1.189914e+003;1.315996e-001
1.191843e+003;1.330596e-001
1.193771e+003;1.351499e-001
1.195700e+003;1.379446e-001
1.197628e+003;1.416378e-001
1.199557e+003;1.458352e-001
1.201485e+003;1.508000e-001
1.203414e+003;1.561246e-001
1.205343e+003;1.615744e-001
1.207271e+003;1.673346e-001
1.209200e+003;1.735537e-001
1.211128e+003;1.796704e-001
1.213057e+003;1.852951e-001
1.214985e+003;1.906078e-001
1.216914e+003;1.955120e-001
1.218842e+003;2.002820e-001
1.220771e+003;2.048014e-001
1.222699e+003;2.085847e-001
1.224628e+003;2.115672e-001
1.226557e+003;2.140937e-001
1.228485e+003;2.160155e-001
1.230414e+003;2.173111e-001
1.232342e+003;2.177122e-001
1.234271e+003;2.171381e-001
1.236199e+003;2.165985e-001
1.238128e+003;2.154882e-001
1.240056e+003;2.137295e-001
1.241985e+003;2.116444e-001
1.243913e+003;2.093063e-001
1.245842e+003;2.067267e-001
1.247771e+003;2.042522e-001
1.249699e+003;2.017576e-001
1.251628e+003;1.994057e-001
1.253556e+003;1.971977e-001
1.255485e+003;1.948581e-001
1.257413e+003;1.925967e-001
1.259342e+003;1.900022e-001
1.261270e+003;1.870161e-001
1.263199e+003;1.843976e-001
1.265127e+003;1.821692e-001
1.267056e+003;1.798792e-001
1.268985e+003;1.771909e-001
1.270913e+003;1.743049e-001
1.272842e+003;1.713047e-001
1.274770e+003;1.683643e-001
1.276699e+003;1.656975e-001
1.278627e+003;1.634231e-001
1.280556e+003;1.612186e-001
1.282484e+003;1.587889e-001
1.284413e+003;1.565714e-001
1.286342e+003;1.550544e-001
1.288270e+003;1.536221e-001
1.290199e+003;1.521770e-001
1.292127e+003;1.508485e-001
1.294056e+003;1.497289e-001
1.295984e+003;1.489279e-001
1.297913e+003;1.485468e-001
1.299841e+003;1.480856e-001
1.301770e+003;1.473546e-001
1.303698e+003;1.466493e-001
1.305627e+003;1.456163e-001
1.307556e+003;1.446055e-001
1.309484e+003;1.439802e-001
1.311413e+003;1.432549e-001
1.313341e+003;1.424147e-001
1.315270e+003;1.418426e-001
1.317198e+003;1.413742e-001
1.319127e+003;1.411532e-001
1.321055e+003;1.413630e-001
1.322984e+003;1.416607e-001
1.324912e+003;1.418011e-001
1.326841e+003;1.424433e-001
1.328770e+003;1.432756e-001
1.330698e+003;1.438275e-001
1.332627e+003;1.441461e-001
1.334555e+003;1.445208e-001
1.336484e+003;1.448428e-001
1.338412e+003;1.448998e-001
1.340341e+003;1.449721e-001
1.342269e+003;1.451519e-001
1.344198e+003;1.450399e-001
1.346126e+003;1.447921e-001
1.348055e+003;1.446967e-001
1.349984e+003;1.447960e-001
1.351912e+003;1.448609e-001
1.353841e+003;1.452362e-001
1.355769e+003;1.463244e-001
1.357698e+003;1.482404e-001
1.359626e+003;1.509316e-001
1.361555e+003;1.539846e-001
1.363483e+003;1.576213e-001
1.365412e+003;1.615498e-001
1.367341e+003;1.650267e-001
1.369269e+003;1.677116e-001
1.371198e+003;1.694529e-001
1.373126e+003;1.705066e-001
1.375055e+003;1.709914e-001
1.376983e+003;1.710415e-001
1.378912e+003;1.709228e-001
1.380840e+003;1.707304e-001
1.382769e+003;1.704904e-001
1.384698e+003;1.702050e-001
1.386626e+003;1.700245e-001
1.388555e+003;1.696024e-001
1.390483e+003;1.689832e-001
1.392412e+003;1.685472e-001
1.394340e+003;1.681698e-001
1.396269e+003;1.679316e-001
1.398197e+003;1.679238e-001
1.400126e+003;1.683571e-001
1.402054e+003;1.693383e-001
1.403983e+003;1.706123e-001
1.405911e+003;1.720766e-001
1.407840e+003;1.736783e-001
1.409769e+003;1.753071e-001
1.411697e+003;1.768146e-001
1.413626e+003;1.778942e-001
1.415554e+003;1.785587e-001
1.417483e+003;1.789627e-001
1.419411e+003;1.793755e-001
1.421340e+003;1.801701e-001
1.423268e+003;1.812542e-001
1.425197e+003;1.827217e-001
1.427125e+003;1.850797e-001
1.429054e+003;1.883198e-001
1.430983e+003;1.921452e-001
1.432911e+003;1.960360e-001
1.434840e+003;2.002310e-001
1.436768e+003;2.048447e-001
1.438697e+003;2.094470e-001
1.440625e+003;2.133959e-001
1.442554e+003;2.166898e-001
1.444482e+003;2.195487e-001
1.446411e+003;2.212940e-001
1.448340e+003;2.215865e-001
1.450268e+003;2.208625e-001
1.452197e+003;2.193659e-001
1.454125e+003;2.174190e-001
1.456054e+003;2.149238e-001
1.457982e+003;2.123970e-001
1.459911e+003;2.104843e-001
1.461839e+003;2.089358e-001
1.463768e+003;2.074645e-001
1.465697e+003;2.064569e-001
1.467625e+003;2.063761e-001
1.469554e+003;2.067364e-001
1.471482e+003;2.076191e-001
1.473411e+003;2.094406e-001
1.475339e+003;2.121474e-001
1.477268e+003;2.159441e-001
1.479196e+003;2.208381e-001
1.481125e+003;2.266018e-001
1.483053e+003;2.338139e-001
1.484982e+003;2.423793e-001
1.486911e+003;2.515576e-001
1.488839e+003;2.613924e-001
1.490768e+003;2.718775e-001
1.492696e+003;2.825420e-001
1.494625e+003;2.927133e-001
1.496553e+003;3.021848e-001
1.498482e+003;3.110835e-001
1.500410e+003;3.194012e-001
1.502339e+003;3.267580e-001
1.504267e+003;3.329560e-001
1.506196e+003;3.381988e-001
1.508125e+003;3.429158e-001
1.510053e+003;3.466983e-001
1.511982e+003;3.491627e-001
1.513910e+003;3.500117e-001
1.515839e+003;3.482925e-001
1.517767e+003;3.435982e-001
1.519696e+003;3.368053e-001
1.521624e+003;3.288935e-001
1.523553e+003;3.218556e-001
1.525481e+003;3.154597e-001
1.527410e+003;3.091792e-001
1.529339e+003;3.035810e-001
1.531267e+003;2.985465e-001
1.533196e+003;2.933034e-001
1.535124e+003;2.880619e-001
1.537053e+003;2.828875e-001
1.538981e+003;2.770473e-001
1.540910e+003;2.718334e-001
1.542838e+003;2.673656e-001
1.544767e+003;2.621228e-001
1.546695e+003;2.568630e-001
1.548624e+003;2.519611e-001
1.550553e+003;2.469385e-001
1.552481e+003;2.415795e-001
1.554410e+003;2.361436e-001
1.556338e+003;2.308493e-001
1.558267e+003;2.253546e-001
1.560195e+003;2.197467e-001
1.562124e+003;2.144174e-001
1.564052e+003;2.094684e-001
1.565981e+003;2.042180e-001
1.567910e+003;1.991078e-001
1.569838e+003;1.943593e-001
1.571767e+003;1.902539e-001
1.573695e+003;1.865430e-001
1.575624e+003;1.828146e-001
1.577552e+003;1.800871e-001
1.579481e+003;1.784994e-001
1.581409e+003;1.769932e-001
1.583338e+003;1.755576e-001
1.585266e+003;1.750845e-001
1.587195e+003;1.759576e-001
1.589124e+003;1.776832e-001
1.591052e+003;1.800997e-001
1.592981e+003;1.835269e-001
1.594909e+003;1.877300e-001
1.596838e+003;1.923140e-001
1.598766e+003;1.974011e-001
1.600695e+003;2.032164e-001
1.602623e+003;2.101433e-001
1.604552e+003;2.184126e-001
1.606480e+003;2.279084e-001
1.608409e+003;2.390496e-001
1.610338e+003;2.514296e-001
1.612266e+003;2.641266e-001
1.614195e+003;2.766631e-001
1.616123e+003;2.890047e-001
1.618052e+003;3.012033e-001
1.619980e+003;3.125860e-001
1.621909e+003;3.231204e-001
1.623837e+003;3.323344e-001
1.625766e+003;3.397185e-001
1.627694e+003;3.449046e-001
1.629623e+003;3.478045e-001
1.631552e+003;3.492833e-001
1.633480e+003;3.494174e-001
1.635409e+003;3.477067e-001
1.637337e+003;3.444434e-001
1.639266e+003;3.406607e-001
1.641194e+003;3.363358e-001
1.643123e+003;3.312350e-001
1.645051e+003;3.252764e-001
1.646980e+003;3.184834e-001
1.648909e+003;3.114475e-001
1.650837e+003;3.043177e-001
1.652766e+003;2.966273e-001
1.654694e+003;2.889801e-001
1.656623e+003;2.813703e-001
1.658551e+003;2.735536e-001
1.660480e+003;2.659728e-001
1.662408e+003;2.581031e-001
1.664337e+003;2.504005e-001
1.666266e+003;2.432069e-001
1.668194e+003;2.360244e-001
1.670123e+003;2.289916e-001
1.672051e+003;2.224666e-001
1.673980e+003;2.162802e-001
1.675908e+003;2.100953e-001
1.677837e+003;2.039578e-001
1.679765e+003;1.981774e-001
1.681694e+003;1.927936e-001
1.683622e+003;1.875974e-001
1.685551e+003;1.824260e-001
1.687479e+003;1.773900e-001
1.689408e+003;1.728696e-001
1.691337e+003;1.687884e-001
1.693265e+003;1.648977e-001
1.695194e+003;1.606013e-001
1.697122e+003;1.559303e-001
1.699051e+003;1.508360e-001
1.700979e+003;1.442158e-001
1.702908e+003;1.365207e-001
1.704836e+003;1.278916e-001
1.706765e+003;1.182789e-001
1.708693e+003;1.084764e-001
1.710622e+003;9.966188e-002
1.712551e+003;9.173630e-002
1.714479e+003;8.419085e-002
1.716408e+003;7.725595e-002
1.718336e+003;7.141518e-002
1.720265e+003;6.661223e-002
1.722193e+003;6.242155e-002
1.724122e+003;5.900369e-002
1.726050e+003;5.637522e-002
1.727979e+003;5.395790e-002
1.729908e+003;5.201066e-002
1.731836e+003;5.047911e-002
1.733765e+003;4.890530e-002
1.735693e+003;4.759205e-002
1.737622e+003;4.639266e-002
1.739550e+003;4.504080e-002
1.741479e+003;4.361093e-002
1.743407e+003;4.194264e-002
1.745336e+003;4.047567e-002
1.747265e+003;3.877370e-002
1.749193e+003;3.711818e-002
1.751122e+003;3.582453e-002
1.753050e+003;3.459443e-002
1.754979e+003;3.311101e-002
1.756907e+003;3.172264e-002
1.758836e+003;3.058517e-002
1.760764e+003;2.930460e-002
1.762693e+003;2.833671e-002
1.764621e+003;2.774586e-002
1.766550e+003;2.702590e-002
1.768479e+003;2.645060e-002
1.770407e+003;2.609954e-002
1.772336e+003;2.564971e-002
1.774264e+003;2.511621e-002
1.776193e+003;2.463899e-002
1.778121e+003;2.419294e-002
1.780050e+003;2.396809e-002
1.781978e+003;2.383429e-002
1.783907e+003;2.351598e-002
1.785835e+003;2.296103e-002
1.787764e+003;2.229464e-002
1.789693e+003;2.173421e-002
1.791621e+003;2.149311e-002
1.793550e+003;2.143400e-002
1.795478e+003;2.129788e-002
1.797407e+003;2.102583e-002
1.799335e+003;2.072581e-002
1.801264e+003;2.042276e-002
1.803192e+003;2.021849e-002
1.805121e+003;2.011506e-002
1.807049e+003;1.988003e-002
1.808978e+003;1.967651e-002
1.810907e+003;1.940478e-002
1.812835e+003;1.905096e-002
1.814764e+003;1.872517e-002
1.816692e+003;1.840118e-002
1.818621e+003;1.829846e-002
1.820549e+003;1.815831e-002
1.822478e+003;1.783367e-002
1.824406e+003;1.754467e-002
1.826335e+003;1.744470e-002
1.828264e+003;1.711491e-002
1.830192e+003;1.690310e-002
1.832121e+003;1.691498e-002
1.834049e+003;1.668341e-002
1.835978e+003;1.626616e-002
1.837906e+003;1.600708e-002
1.839835e+003;1.592134e-002
1.841763e+003;1.583642e-002
1.843692e+003;1.562503e-002
1.845620e+003;1.542428e-002
1.847549e+003;1.504051e-002
1.849478e+003;1.478610e-002
1.851406e+003;1.497960e-002
1.853335e+003;1.500192e-002
1.855263e+003;1.491296e-002
1.857192e+003;1.488227e-002
1.859120e+003;1.467779e-002
1.861049e+003;1.441807e-002
1.862977e+003;1.432663e-002
1.864906e+003;1.426208e-002
1.866834e+003;1.406771e-002
1.868763e+003;1.388762e-002
1.870692e+003;1.384247e-002
1.872620e+003;1.388252e-002
1.874549e+003;1.390856e-002
1.876477e+003;1.382375e-002
1.878406e+003;1.379451e-002
1.880334e+003;1.376475e-002
1.882263e+003;1.354592e-002
1.884191e+003;1.335857e-002
1.886120e+003;1.320681e-002
1.888048e+003;1.321621e-002
1.889977e+003;1.330899e-002
1.891906e+003;1.326106e-002
1.893834e+003;1.322728e-002
1.895763e+003;1.331148e-002
1.897691e+003;1.327035e-002
1.899620e+003;1.321631e-002
1.901548e+003;1.327630e-002
1.903477e+003;1.321057e-002
1.905405e+003;1.300117e-002
1.907334e+003;1.298338e-002
1.909262e+003;1.283026e-002
1.911191e+003;1.258345e-002
1.913120e+003;1.255941e-002
1.915048e+003;1.258144e-002
1.916977e+003;1.261575e-002
1.918905e+003;1.265635e-002
1.920834e+003;1.263953e-002
1.922762e+003;1.253529e-002
1.924691e+003;1.246375e-002
1.926619e+003;1.240664e-002
1.928548e+003;1.227713e-002
1.930477e+003;1.225058e-002
1.932405e+003;1.210354e-002
1.934334e+003;1.214719e-002
1.936262e+003;1.225559e-002
1.938191e+003;1.212122e-002
1.940119e+003;1.211271e-002
1.942048e+003;1.203210e-002
1.943976e+003;1.187461e-002
1.945905e+003;1.189188e-002
1.947833e+003;1.186978e-002
1.949762e+003;1.189212e-002
1.951691e+003;1.217411e-002
1.953619e+003;1.241778e-002
1.955548e+003;1.221043e-002
1.957476e+003;1.194194e-002
1.959405e+003;1.190407e-002
1.961333e+003;1.193619e-002
1.963262e+003;1.191095e-002
1.965190e+003;1.191671e-002
1.967119e+003;1.183787e-002
1.969047e+003;1.183896e-002
1.970976e+003;1.193935e-002
1.972905e+003;1.188558e-002
1.974833e+003;1.190955e-002
1.976762e+003;1.194164e-002
1.978690e+003;1.191868e-002
1.980619e+003;1.180600e-002
1.982547e+003;1.172130e-002
1.984476e+003;1.162780e-002
1.986404e+003;1.175660e-002
1.988333e+003;1.182674e-002
1.990261e+003;1.164486e-002
1.992190e+003;1.156355e-002
1.994119e+003;1.159571e-002
1.996047e+003;1.159044e-002
1.997976e+003;1.142821e-002
1.999904e+003;1.132420e-002
2.001833e+003;1.128084e-002
2.003761e+003;1.128353e-002
2.005690e+003;1.144556e-002
2.007618e+003;1.145107e-002
2.009547e+003;1.134386e-002
2.011476e+003;1.141484e-002
2.013404e+003;1.125829e-002
2.015333e+003;1.118016e-002
2.017261e+003;1.134046e-002
2.019190e+003;1.136974e-002
2.021118e+003;1.142083e-002
2.023047e+003;1.161896e-002
2.024975e+003;1.148203e-002
2.026904e+003;1.139671e-002
2.028833e+003;1.131012e-002
2.030761e+003;1.129281e-002
2.032690e+003;1.142563e-002
2.034618e+003;1.149050e-002
2.036547e+003;1.135746e-002
2.038475e+003;1.126445e-002
2.040404e+003;1.115935e-002
2.042332e+003;1.112189e-002
2.044261e+003;1.104392e-002
2.046189e+003;1.106183e-002
2.048118e+003;1.104470e-002
2.050047e+003;1.114688e-002
2.051975e+003;1.118233e-002
2.053904e+003;1.097747e-002
2.055832e+003;1.094241e-002
2.057761e+003;1.113953e-002
2.059689e+003;1.118247e-002
2.061618e+003;1.100898e-002
2.063546e+003;1.094920e-002
2.065475e+003;1.107094e-002
2.067404e+003;1.134896e-002
2.069332e+003;1.132787e-002
2.071260e+003;1.109575e-002
2.073189e+003;1.089280e-002
2.075118e+003;1.083532e-002
2.077046e+003;1.093680e-002
2.078975e+003;1.095766e-002
2.080903e+003;1.101469e-002
2.082832e+003;1.116340e-002
2.084760e+003;1.123844e-002
2.086689e+003;1.129876e-002
2.088617e+003;1.116935e-002
2.090546e+003;1.090524e-002
2.092475e+003;1.081718e-002
2.094403e+003;1.091930e-002
2.096332e+003;1.085074e-002
2.098260e+003;1.094322e-002
2.100189e+003;1.132539e-002
2.102117e+003;1.124476e-002
2.104046e+003;1.086199e-002
2.105974e+003;1.083535e-002
2.107903e+003;1.094275e-002
2.109832e+003;1.093126e-002
2.111760e+003;1.084626e-002
2.113688e+003;1.085091e-002
2.115617e+003;1.087775e-002
2.117546e+003;1.076205e-002
2.119474e+003;1.051583e-002
2.121403e+003;1.043732e-002
2.123331e+003;1.065147e-002
2.125260e+003;1.089705e-002
2.127188e+003;1.087058e-002
2.129117e+003;1.074079e-002
2.131045e+003;1.080342e-002
2.132974e+003;1.100721e-002
2.134903e+003;1.098301e-002
2.136831e+003;1.086596e-002
2.138760e+003;1.060390e-002
2.140688e+003;1.047296e-002
2.142617e+003;1.071521e-002
2.144545e+003;1.086181e-002
2.146474e+003;1.078579e-002
2.148402e+003;1.061093e-002
2.150331e+003;1.078222e-002
2.152260e+003;1.090208e-002
2.154188e+003;1.088516e-002
2.156117e+003;1.078487e-002
2.158045e+003;1.055854e-002
2.159974e+003;1.069983e-002
2.161902e+003;1.085536e-002
2.163831e+003;1.088607e-002
2.165759e+003;1.088206e-002
2.167688e+003;1.092824e-002
2.169616e+003;1.094492e-002
2.171545e+003;1.089480e-002
2.173474e+003;1.082465e-002
2.175402e+003;1.066380e-002
2.177331e+003;1.060488e-002
2.179259e+003;1.080410e-002
2.181188e+003;1.096735e-002
2.183116e+003;1.075159e-002
2.185045e+003;1.049516e-002
2.186973e+003;1.064947e-002
2.188902e+003;1.075838e-002
2.190831e+003;1.090401e-002
2.192759e+003;1.089820e-002
2.194688e+003;1.088634e-002
2.196616e+003;1.084106e-002
2.198545e+003;1.064295e-002
2.200473e+003;1.061568e-002
2.202402e+003;1.063100e-002
2.204330e+003;1.057395e-002
2.206259e+003;1.061208e-002
2.208188e+003;1.069317e-002
2.210116e+003;1.065748e-002
2.212044e+003;1.040023e-002
2.213973e+003;1.046852e-002
2.215902e+003;1.056146e-002
2.217830e+003;1.063490e-002
2.219759e+003;1.079021e-002
2.221687e+003;1.068251e-002
2.223616e+003;1.036432e-002
2.225544e+003;1.055260e-002
2.227473e+003;1.076409e-002
2.229401e+003;1.080950e-002
2.231330e+003;1.089487e-002
2.233259e+003;1.085444e-002
2.235187e+003;1.066268e-002
2.237116e+003;1.062444e-002
2.239044e+003;1.069663e-002
2.240973e+003;1.070200e-002
2.242901e+003;1.057894e-002
2.244830e+003;1.042864e-002
2.246758e+003;1.028808e-002
2.248687e+003;1.027336e-002
2.250615e+003;1.037471e-002
2.252544e+003;1.041279e-002
2.254473e+003;1.058669e-002
2.256401e+003;1.056034e-002
2.258330e+003;1.035506e-002
2.260258e+003;1.052653e-002
2.262187e+003;1.079907e-002
2.264115e+003;1.080770e-002
2.266044e+003;1.069983e-002
2.267972e+003;1.074557e-002
2.269901e+003;1.081714e-002
2.271830e+003;1.062332e-002
2.273758e+003;1.058594e-002
2.275687e+003;1.078219e-002
2.277615e+003;1.098132e-002
2.279544e+003;1.111655e-002
2.281472e+003;1.098410e-002
2.283401e+003;1.090952e-002
2.285329e+003;1.111839e-002
2.287258e+003;1.109480e-002
2.289187e+003;1.098974e-002
2.291115e+003;1.099674e-002
2.293043e+003;1.095790e-002
2.294972e+003;1.093813e-002
2.296901e+003;1.091132e-002
2.298829e+003;1.088961e-002
2.300758e+003;1.083977e-002
2.302686e+003;1.092596e-002
2.304615e+003;1.111387e-002
2.306543e+003;1.111162e-002
2.308472e+003;1.108300e-002
2.310400e+003;1.103657e-002
2.312329e+003;1.109541e-002
2.314258e+003;1.127604e-002
2.316186e+003;1.126503e-002
2.318115e+003;1.124051e-002
2.320043e+003;1.130549e-002
2.321972e+003;1.107002e-002
2.323900e+003;1.075515e-002
2.325829e+003;1.073878e-002
2.327757e+003;1.096847e-002
2.329686e+003;1.104782e-002
2.331615e+003;1.121650e-002
2.333543e+003;1.138586e-002
2.335472e+003;1.133926e-002
2.337400e+003;1.116608e-002
2.339329e+003;1.109687e-002
2.341257e+003;1.122970e-002
2.343186e+003;1.137362e-002
2.345114e+003;1.144536e-002
2.347043e+003;1.146584e-002
2.348971e+003;1.143087e-002
2.350900e+003;1.152500e-002
2.352829e+003;1.169553e-002
2.354757e+003;1.166739e-002
2.356686e+003;1.174704e-002
2.358614e+003;1.186202e-002
2.360543e+003;1.178016e-002
2.362471e+003;1.171535e-002
2.364400e+003;1.166970e-002
2.366328e+003;1.163883e-002
2.368257e+003;1.171218e-002
2.370186e+003;1.153402e-002
2.372114e+003;1.137338e-002
2.374042e+003;1.170193e-002
2.375971e+003;1.185548e-002
2.377900e+003;1.181744e-002
2.379828e+003;1.186624e-002
2.381757e+003;1.190560e-002
2.383685e+003;1.184693e-002
2.385614e+003;1.191412e-002
2.387542e+003;1.210678e-002
2.389471e+003;1.219162e-002
2.391399e+003;1.214092e-002
2.393328e+003;1.199869e-002
2.395257e+003;1.193428e-002
2.397185e+003;1.213352e-002
2.399114e+003;1.216566e-002
2.401042e+003;1.213332e-002
2.402971e+003;1.237271e-002
2.404899e+003;1.251722e-002
2.406828e+003;1.263444e-002
2.408756e+003;1.289180e-002
2.410685e+003;1.295488e-002
2.412614e+003;1.297181e-002
2.414542e+003;1.332881e-002
2.416471e+003;1.346755e-002
2.418399e+003;1.346358e-002
2.420328e+003;1.366418e-002
2.422256e+003;1.355966e-002
2.424185e+003;1.347623e-002
2.426113e+003;1.382964e-002
2.428042e+003;1.415489e-002
2.429970e+003;1.395903e-002
2.431899e+003;1.370114e-002
2.433828e+003;1.377043e-002
2.435756e+003;1.417416e-002
2.437685e+003;1.424732e-002
2.439613e+003;1.411806e-002
2.441542e+003;1.405583e-002
2.443470e+003;1.414260e-002
2.445399e+003;1.429430e-002
2.447327e+003;1.442157e-002
2.449256e+003;1.459794e-002
2.451185e+003;1.455247e-002
2.453113e+003;1.439050e-002
2.455042e+003;1.438564e-002
2.456970e+003;1.453657e-002
2.458899e+003;1.450464e-002
2.460827e+003;1.443941e-002
2.462756e+003;1.454044e-002
2.464684e+003;1.450861e-002
2.466613e+003;1.450464e-002
2.468542e+003;1.478206e-002
2.470470e+003;1.488563e-002
2.472398e+003;1.471871e-002
2.474327e+003;1.484411e-002
2.476256e+003;1.511581e-002
2.478184e+003;1.519836e-002
2.480113e+003;1.508120e-002
2.482041e+003;1.504699e-002
2.483970e+003;1.515839e-002
2.485898e+003;1.521967e-002
2.487827e+003;1.515973e-002
2.489755e+003;1.521233e-002
2.491684e+003;1.520234e-002
2.493613e+003;1.523151e-002
2.495541e+003;1.552646e-002
2.497470e+003;1.564406e-002
2.499398e+003;1.534964e-002
2.501327e+003;1.522616e-002
2.503255e+003;1.530962e-002
2.505184e+003;1.542345e-002
2.507112e+003;1.567401e-002
2.509041e+003;1.599662e-002
2.510969e+003;1.610382e-002
2.512898e+003;1.586085e-002
2.514827e+003;1.574567e-002
2.516755e+003;1.586099e-002
2.518684e+003;1.601887e-002
2.520612e+003;1.604554e-002
2.522541e+003;1.602901e-002
2.524469e+003;1.596111e-002
2.526398e+003;1.583329e-002
2.528326e+003;1.579876e-002
2.530255e+003;1.613044e-002
2.532184e+003;1.633221e-002
2.534112e+003;1.624359e-002
2.536041e+003;1.629061e-002
2.537969e+003;1.636561e-002
2.539898e+003;1.642015e-002
2.541826e+003;1.653000e-002
2.543755e+003;1.667338e-002
2.545683e+003;1.668692e-002
2.547612e+003;1.670892e-002
2.549541e+003;1.689049e-002
2.551469e+003;1.712863e-002
2.553397e+003;1.740473e-002
2.555326e+003;1.753725e-002
2.557255e+003;1.739069e-002
2.559183e+003;1.714169e-002
2.561112e+003;1.711257e-002
2.563040e+003;1.716603e-002
2.564969e+003;1.733155e-002
2.566897e+003;1.764069e-002
2.568826e+003;1.782400e-002
2.570754e+003;1.779311e-002
2.572683e+003;1.793297e-002
2.574612e+003;1.828121e-002
2.576540e+003;1.856714e-002
2.578469e+003;1.871573e-002
2.580397e+003;1.881682e-002
2.582326e+003;1.895805e-002
2.584254e+003;1.922340e-002
2.586183e+003;1.940267e-002
2.588111e+003;1.958925e-002
2.590040e+003;1.987330e-002
2.591969e+003;2.008744e-002
2.593897e+003;2.008514e-002
2.595826e+003;2.007977e-002
2.597754e+003;2.016480e-002
2.599683e+003;2.031667e-002
2.601611e+003;2.065182e-002
2.603540e+003;2.093330e-002
2.605468e+003;2.091025e-002
2.607397e+003;2.088108e-002
2.609325e+003;2.093977e-002
2.611254e+003;2.104089e-002
2.613183e+003;2.133317e-002
2.615111e+003;2.159479e-002
2.617040e+003;2.181607e-002
2.618968e+003;2.187534e-002
2.620897e+003;2.183562e-002
2.622825e+003;2.196526e-002
2.624754e+003;2.213223e-002
2.626682e+003;2.205152e-002
2.628611e+003;2.196170e-002
2.630540e+003;2.200903e-002
2.632468e+003;2.199328e-002
2.634396e+003;2.199394e-002
2.636325e+003;2.203009e-002
2.638254e+003;2.196888e-002
2.640182e+003;2.192800e-002
2.642111e+003;2.180817e-002
2.644039e+003;2.189462e-002
2.645968e+003;2.220776e-002
2.647896e+003;2.235767e-002
2.649825e+003;2.237672e-002
2.651753e+003;2.244381e-002
2.653682e+003;2.251796e-002
2.655611e+003;2.274209e-002
2.657539e+003;2.272016e-002
2.659468e+003;2.253841e-002
2.661396e+003;2.274321e-002
2.663325e+003;2.295300e-002
2.665253e+003;2.300218e-002
2.667182e+003;2.302409e-002
2.669110e+003;2.314342e-002
2.671039e+003;2.336501e-002
2.672968e+003;2.344348e-002
2.674896e+003;2.357412e-002
2.676825e+003;2.403879e-002
2.678753e+003;2.426280e-002
2.680682e+003;2.428386e-002
2.682610e+003;2.420997e-002
2.684539e+003;2.428067e-002
2.686467e+003;2.453769e-002
2.688396e+003;2.495033e-002
2.690324e+003;2.526860e-002
2.692253e+003;2.509283e-002
2.694182e+003;2.507830e-002
2.696110e+003;2.539020e-002
2.698039e+003;2.572574e-002
2.699967e+003;2.574902e-002
2.701896e+003;2.610936e-002
2.703824e+003;2.668843e-002
2.705753e+003;2.662551e-002
2.707681e+003;2.646828e-002
2.709610e+003;2.662681e-002
2.711539e+003;2.706437e-002
2.713467e+003;2.767989e-002
2.715396e+003;2.787762e-002
2.717324e+003;2.768105e-002
2.719253e+003;2.760358e-002
2.721181e+003;2.778259e-002
2.723110e+003;2.840083e-002
2.725038e+003;2.891231e-002
2.726967e+003;2.900121e-002
2.728896e+003;2.911883e-002
2.730824e+003;2.954897e-002
2.732752e+003;2.985999e-002
2.734681e+003;3.034444e-002
2.736610e+003;3.058570e-002
2.738538e+003;3.045276e-002
2.740467e+003;3.077893e-002
2.742395e+003;3.126869e-002
2.744324e+003;3.136890e-002
2.746252e+003;3.148745e-002
2.748181e+003;3.180730e-002
2.750109e+003;3.204852e-002
2.752038e+003;3.220960e-002
2.753967e+003;3.255732e-002
2.755895e+003;3.286478e-002
2.757824e+003;3.314645e-002
2.759752e+003;3.338394e-002
2.761681e+003;3.341056e-002
2.763609e+003;3.369170e-002
2.765538e+003;3.420583e-002
2.767466e+003;3.437199e-002
2.769395e+003;3.443088e-002
2.771323e+003;3.469272e-002
2.773252e+003;3.517168e-002
2.775181e+003;3.565073e-002
2.777109e+003;3.572124e-002
2.779038e+003;3.585573e-002
2.780966e+003;3.615459e-002
2.782895e+003;3.660185e-002
2.784823e+003;3.685794e-002
2.786752e+003;3.702136e-002
2.788680e+003;3.744214e-002
2.790609e+003;3.788090e-002
2.792538e+003;3.807860e-002
2.794466e+003;3.833284e-002
2.796395e+003;3.868524e-002
2.798323e+003;3.905633e-002
2.800252e+003;3.946360e-002
2.802180e+003;3.977526e-002
2.804109e+003;3.993063e-002
2.806037e+003;4.024743e-002
2.807966e+003;4.070759e-002
2.809895e+003;4.119126e-002
2.811823e+003;4.141125e-002
2.813751e+003;4.158515e-002
2.815680e+003;4.180289e-002
2.817609e+003;4.214059e-002
2.819537e+003;4.269996e-002
2.821466e+003;4.334443e-002
2.823394e+003;4.358716e-002
2.825323e+003;4.363185e-002
2.827251e+003;4.397695e-002
2.829180e+003;4.432824e-002
2.831108e+003;4.432365e-002
2.833037e+003;4.450767e-002
2.834966e+003;4.516476e-002
2.836894e+003;4.599719e-002
2.838823e+003;4.659272e-002
2.840751e+003;4.704736e-002
2.842680e+003;4.771241e-002
2.844608e+003;4.843512e-002
2.846537e+003;4.943603e-002
2.848465e+003;5.094332e-002
2.850394e+003;5.242341e-002
2.852323e+003;5.380441e-002
2.854251e+003;5.499142e-002
2.856180e+003;5.570894e-002
2.858108e+003;5.621940e-002
2.860037e+003;5.669700e-002
2.861965e+003;5.679925e-002
2.863894e+003;5.691833e-002
2.865822e+003;5.757398e-002
2.867751e+003;5.824744e-002
2.869679e+003;5.872386e-002
2.871608e+003;5.931337e-002
2.873536e+003;5.996500e-002
2.875465e+003;6.071652e-002
2.877394e+003;6.122553e-002
2.879322e+003;6.131767e-002
2.881251e+003;6.143709e-002
2.883179e+003;6.184470e-002
2.885108e+003;6.262895e-002
2.887036e+003;6.298259e-002
2.888965e+003;6.297600e-002
2.890893e+003;6.338368e-002
2.892822e+003;6.396596e-002
2.894750e+003;6.439382e-002
2.896679e+003;6.471798e-002
2.898608e+003;6.523729e-002
2.900536e+003;6.635296e-002
2.902465e+003;6.731773e-002
2.904393e+003;6.802323e-002
2.906322e+003;6.865842e-002
2.908250e+003;6.948137e-002
2.910179e+003;7.057371e-002
2.912107e+003;7.150939e-002
2.914036e+003;7.230062e-002
2.915965e+003;7.340570e-002
2.917893e+003;7.497568e-002
2.919822e+003;7.671536e-002
2.921750e+003;7.851249e-002
2.923679e+003;8.014583e-002
2.925607e+003;8.177013e-002
2.927536e+003;8.320171e-002
2.929464e+003;8.451182e-002
2.931393e+003;8.556993e-002
2.933322e+003;8.633156e-002
2.935250e+003;8.696145e-002
2.937178e+003;8.717191e-002
2.939107e+003;8.690498e-002
2.941036e+003;8.635925e-002
2.942964e+003;8.606918e-002
2.944893e+003;8.566847e-002
2.946821e+003;8.461883e-002
2.948750e+003;8.341301e-002
2.950678e+003;8.254684e-002
2.952607e+003;8.210949e-002
2.954535e+003;8.147320e-002
2.956464e+003;8.052113e-002
2.958393e+003;7.975349e-002
2.960321e+003;7.906169e-002
2.962250e+003;7.875632e-002
2.964178e+003;7.875516e-002
2.966107e+003;7.847545e-002
2.968035e+003;7.829416e-002
2.969964e+003;7.841370e-002
2.971892e+003;7.861942e-002
2.973821e+003;7.854072e-002
2.975750e+003;7.806523e-002
2.977678e+003;7.783139e-002
2.979607e+003;7.785235e-002
2.981535e+003;7.775211e-002
2.983464e+003;7.761022e-002
2.985392e+003;7.767580e-002
2.987321e+003;7.727301e-002
2.989249e+003;7.644676e-002
2.991178e+003;7.574872e-002
2.993106e+003;7.525693e-002
2.995035e+003;7.479481e-002
2.996964e+003;7.431759e-002
2.998892e+003;7.393727e-002
3.000821e+003;7.325349e-002
3.002749e+003;7.272248e-002
3.004678e+003;7.247834e-002
3.006606e+003;7.249118e-002
3.008535e+003;7.244106e-002
3.010463e+003;7.226763e-002
3.012392e+003;7.214313e-002
3.014321e+003;7.235444e-002
3.016249e+003;7.256577e-002
3.018177e+003;7.248503e-002
3.020106e+003;7.292831e-002
3.022035e+003;7.317286e-002
3.023963e+003;7.313039e-002
3.025892e+003;7.372625e-002
3.027820e+003;7.420944e-002
3.029749e+003;7.476664e-002
3.031677e+003;7.544713e-002
3.033606e+003;7.569370e-002
3.035534e+003;7.624391e-002
3.037463e+003;7.705139e-002
3.039392e+003;7.764386e-002
3.041320e+003;7.798944e-002
3.043249e+003;7.855029e-002
3.045177e+003;7.946470e-002
3.047106e+003;8.010813e-002
3.049034e+003;8.076449e-002
3.050963e+003;8.158334e-002
3.052891e+003;8.215689e-002
3.054820e+003;8.290388e-002
3.056749e+003;8.409313e-002
3.058677e+003;8.488423e-002
3.060606e+003;8.524031e-002
3.062534e+003;8.578359e-002
3.064463e+003;8.621176e-002
3.066391e+003;8.651049e-002
3.068320e+003;8.685642e-002
3.070248e+003;8.721375e-002
3.072177e+003;8.744747e-002
3.074105e+003;8.769957e-002
3.076034e+003;8.791652e-002
3.077963e+003;8.775184e-002
3.079891e+003;8.751694e-002
3.081820e+003;8.731988e-002
3.083748e+003;8.727095e-002
3.085677e+003;8.716009e-002
3.087605e+003;8.698145e-002
3.089534e+003;8.664101e-002
3.091462e+003;8.623035e-002
3.093391e+003;8.579849e-002
3.095320e+003;8.554555e-002
3.097248e+003;8.556206e-002
3.099177e+003;8.519153e-002
3.101105e+003;8.471684e-002
3.103034e+003;8.454508e-002
3.104962e+003;8.393705e-002
3.106891e+003;8.317672e-002
3.108819e+003;8.306417e-002
3.110748e+003;8.279631e-002
3.112677e+003;8.224317e-002
3.114605e+003;8.211961e-002
3.116533e+003;8.199046e-002
3.118462e+003;8.157694e-002
3.120391e+003;8.123516e-002
3.122319e+003;8.125014e-002
3.124248e+003;8.137740e-002
3.126176e+003;8.122629e-002
3.128105e+003;8.119030e-002
3.130033e+003;8.153416e-002
3.131962e+003;8.179065e-002
3.133890e+003;8.165634e-002
3.135819e+003;8.170450e-002
3.137748e+003;8.219036e-002
3.139676e+003;8.268602e-002
3.141605e+003;8.297303e-002
3.143533e+003;8.317724e-002
3.145462e+003;8.373895e-002
3.147390e+003;8.427638e-002
3.149319e+003;8.479267e-002
3.151247e+003;8.557162e-002
3.153176e+003;8.647685e-002
3.155104e+003;8.721165e-002
3.157033e+003;8.826040e-002
3.158962e+003;8.918834e-002
3.160890e+003;8.994938e-002
3.162819e+003;9.056589e-002
3.164747e+003;9.153126e-002
3.166676e+003;9.301075e-002
3.168604e+003;9.416971e-002
3.170533e+003;9.498543e-002
3.172461e+003;9.592234e-002
3.174390e+003;9.722627e-002
3.176319e+003;9.861724e-002
3.178247e+003;9.926526e-002
3.180176e+003;1.003186e-001
3.182104e+003;1.018786e-001
3.184033e+003;1.033136e-001
3.185961e+003;1.045434e-001
3.187890e+003;1.057584e-001
3.189818e+003;1.068944e-001
3.191747e+003;1.082004e-001
3.193676e+003;1.093322e-001
3.195604e+003;1.100328e-001
3.197532e+003;1.111088e-001
3.199461e+003;1.124832e-001
3.201390e+003;1.138135e-001
3.203318e+003;1.150930e-001
3.205247e+003;1.160902e-001
3.207175e+003;1.174627e-001
3.209104e+003;1.187246e-001
3.211032e+003;1.197332e-001
3.212961e+003;1.211420e-001
3.214889e+003;1.225039e-001
3.216818e+003;1.236455e-001
3.218747e+003;1.246036e-001
3.220675e+003;1.253268e-001
3.222604e+003;1.262473e-001
3.224532e+003;1.275124e-001
3.226461e+003;1.285474e-001
3.228389e+003;1.296028e-001
3.230318e+003;1.307490e-001
3.232246e+003;1.317084e-001
3.234175e+003;1.329594e-001
3.236104e+003;1.343607e-001
3.238032e+003;1.352935e-001
3.239961e+003;1.363524e-001
3.241889e+003;1.375304e-001
3.243818e+003;1.386643e-001
3.245746e+003;1.400104e-001
3.247675e+003;1.410938e-001
3.249603e+003;1.422862e-001
3.251532e+003;1.432814e-001
3.253460e+003;1.444113e-001
3.255389e+003;1.457813e-001
3.257318e+003;1.471341e-001
3.259246e+003;1.482401e-001
3.261175e+003;1.491030e-001
3.263103e+003;1.502934e-001
3.265032e+003;1.514602e-001
3.266960e+003;1.527553e-001
3.268889e+003;1.542605e-001
3.270817e+003;1.550542e-001
3.272746e+003;1.557525e-001
3.274675e+003;1.569661e-001
3.276603e+003;1.580099e-001
3.278531e+003;1.584534e-001
3.280460e+003;1.588404e-001
3.282389e+003;1.593004e-001
3.284317e+003;1.595191e-001
3.286246e+003;1.594006e-001
3.288174e+003;1.592780e-001
3.290103e+003;1.592300e-001
3.292031e+003;1.587346e-001
3.293960e+003;1.580933e-001
3.295888e+003;1.579141e-001
3.297817e+003;1.574522e-001
3.299746e+003;1.563864e-001
3.301674e+003;1.554406e-001
3.303603e+003;1.547781e-001
3.305531e+003;1.537417e-001
3.307460e+003;1.521301e-001
3.309388e+003;1.505641e-001
3.311317e+003;1.491822e-001
3.313245e+003;1.479054e-001
3.315174e+003;1.465879e-001
3.317103e+003;1.457054e-001
3.319031e+003;1.447299e-001
3.320960e+003;1.433252e-001
3.322888e+003;1.418258e-001
3.324817e+003;1.405372e-001
3.326745e+003;1.393632e-001
3.328674e+003;1.377092e-001
3.330602e+003;1.360380e-001
3.332531e+003;1.346022e-001
3.334459e+003;1.329813e-001
3.336388e+003;1.314633e-001
3.338317e+003;1.299292e-001
3.340245e+003;1.282848e-001
3.342174e+003;1.270175e-001
3.344102e+003;1.260868e-001
3.346031e+003;1.251589e-001
3.347959e+003;1.238393e-001
3.349888e+003;1.223182e-001
3.351816e+003;1.212306e-001
3.353745e+003;1.198390e-001
3.355674e+003;1.184455e-001
3.357602e+003;1.172802e-001
3.359531e+003;1.162429e-001
3.361459e+003;1.153295e-001
3.363388e+003;1.142720e-001
3.365316e+003;1.132350e-001
3.367245e+003;1.122393e-001
3.369173e+003;1.108479e-001
3.371102e+003;1.096385e-001
3.373031e+003;1.088079e-001
3.374959e+003;1.079328e-001
3.376887e+003;1.068600e-001
3.378816e+003;1.059243e-001
3.380745e+003;1.050146e-001
3.382673e+003;1.039218e-001
3.384602e+003;1.029896e-001
3.386530e+003;1.019923e-001
3.388459e+003;1.009814e-001
3.390387e+003;9.983285e-002
3.392316e+003;9.836347e-002
3.394244e+003;9.743953e-002
3.396173e+003;9.685990e-002
3.398102e+003;9.587052e-002
3.400030e+003;9.427974e-002
3.401959e+003;9.252302e-002
3.403887e+003;9.180392e-002
3.405816e+003;9.121557e-002
3.407744e+003;9.007396e-002
3.409673e+003;8.882336e-002
3.411601e+003;8.781361e-002
3.413530e+003;8.680304e-002
3.415458e+003;8.543929e-002
3.417387e+003;8.422291e-002
3.419316e+003;8.292201e-002
3.421244e+003;8.195828e-002
3.423173e+003;8.088455e-002
3.425101e+003;7.977555e-002
3.427030e+003;7.885790e-002
3.428958e+003;7.765662e-002
3.430887e+003;7.662333e-002
3.432815e+003;7.585303e-002
3.434744e+003;7.483198e-002
3.436673e+003;7.354124e-002
3.438601e+003;7.270348e-002
3.440530e+003;7.170499e-002
3.442458e+003;7.062969e-002
3.444387e+003;7.012554e-002
3.446315e+003;6.927304e-002
3.448244e+003;6.784613e-002
3.450172e+003;6.685244e-002
3.452101e+003;6.648308e-002
3.454030e+003;6.617700e-002
3.455958e+003;6.553503e-002
3.457886e+003;6.462499e-002
3.459815e+003;6.367183e-002
3.461744e+003;6.298477e-002
3.463672e+003;6.214517e-002
3.465601e+003;6.104641e-002
3.467529e+003;6.071069e-002
3.469458e+003;6.069461e-002
3.471386e+003;6.071427e-002
3.473315e+003;6.066737e-002
3.475243e+003;6.021538e-002
3.477172e+003;5.928033e-002
3.479101e+003;5.825176e-002
3.481029e+003;5.772987e-002
3.482958e+003;5.756342e-002
3.484886e+003;5.708366e-002
3.486815e+003;5.645226e-002
3.488743e+003;5.585882e-002
3.490672e+003;5.524011e-002
3.492600e+003;5.486290e-002
3.494529e+003;5.431311e-002
3.496458e+003;5.390526e-002
3.498386e+003;5.377234e-002
3.500315e+003;5.359173e-002
3.502243e+003;5.302524e-002
3.504172e+003;5.253787e-002
3.506100e+003;5.217319e-002
3.508029e+003;5.168654e-002
3.509957e+003;5.140284e-002
3.511886e+003;5.095286e-002
3.513814e+003;5.037387e-002
3.515743e+003;4.982765e-002
3.517672e+003;4.933327e-002
3.519600e+003;4.857031e-002
3.521529e+003;4.770834e-002
3.523457e+003;4.725098e-002
3.525386e+003;4.699305e-002
3.527314e+003;4.679601e-002
3.529243e+003;4.617164e-002
3.531171e+003;4.504139e-002
3.533100e+003;4.431693e-002
3.535029e+003;4.375584e-002
3.536957e+003;4.315815e-002
3.538885e+003;4.257403e-002
3.540814e+003;4.206272e-002
3.542743e+003;4.179716e-002
3.544671e+003;4.118733e-002
3.546600e+003;4.026487e-002
3.548528e+003;3.978797e-002
3.550457e+003;3.905793e-002
3.552385e+003;3.833045e-002
3.554314e+003;3.800246e-002
3.556242e+003;3.746349e-002
3.558171e+003;3.697345e-002
3.560100e+003;3.628331e-002
3.562028e+003;3.564095e-002
3.563957e+003;3.564045e-002
3.565885e+003;3.507806e-002
3.567814e+003;3.403569e-002
3.569742e+003;3.332186e-002
3.571671e+003;3.303231e-002
3.573599e+003;3.209211e-002
3.575528e+003;3.108876e-002
3.577457e+003;3.084178e-002
3.579385e+003;3.039799e-002
3.581314e+003;2.964081e-002
3.583242e+003;2.909166e-002
3.585171e+003;2.868377e-002
3.587099e+003;2.835658e-002
3.589028e+003;2.794059e-002
3.590956e+003;2.719927e-002
3.592885e+003;2.625640e-002
3.594813e+003;2.526787e-002
3.596742e+003;2.486422e-002
3.598671e+003;2.435948e-002
3.600599e+003;2.359325e-002
3.602528e+003;2.328299e-002
3.604456e+003;2.322982e-002
3.606385e+003;2.250651e-002
3.608313e+003;2.154572e-002
3.610242e+003;2.090615e-002
3.612170e+003;1.993255e-002
3.614099e+003;1.905723e-002
3.616028e+003;1.844602e-002
3.617956e+003;1.785325e-002
3.619885e+003;1.760194e-002
3.621813e+003;1.694678e-002
3.623742e+003;1.646905e-002
3.625670e+003;1.607178e-002
3.627599e+003;1.518769e-002
3.629527e+003;1.449998e-002
3.631456e+003;1.405340e-002
3.633385e+003;1.329881e-002
3.635313e+003;1.284497e-002
3.637241e+003;1.221919e-002
3.639170e+003;1.139460e-002
3.641099e+003;1.104126e-002
3.643027e+003;1.064719e-002
3.644956e+003;1.027322e-002
3.646884e+003;1.007049e-002
3.648813e+003;9.527972e-003
3.650741e+003;8.656416e-003
3.652670e+003;8.338228e-003
3.654598e+003;8.188017e-003
3.656527e+003;7.356211e-003
3.658456e+003;6.495320e-003
3.660384e+003;6.487147e-003
3.662313e+003;6.163083e-003
3.664241e+003;5.450246e-003
3.666170e+003;5.079515e-003
3.668098e+003;4.785041e-003
3.670027e+003;4.265180e-003
3.671955e+003;3.989783e-003
3.673884e+003;3.886232e-003
3.675813e+003;3.791731e-003
3.677741e+003;3.685286e-003
3.679669e+003;3.204490e-003
3.681598e+003;2.774775e-003
3.683527e+003;2.625576e-003
3.685455e+003;2.571710e-003
3.687384e+003;2.395626e-003
3.689312e+003;2.530448e-003
3.691241e+003;2.793984e-003
3.693169e+003;2.069338e-003
3.695098e+003;1.313928e-003
3.697026e+003;1.387881e-003
3.698955e+003;1.616300e-003
3.700884e+003;1.577557e-003
3.702812e+003;1.272786e-003
3.704741e+003;9.502628e-004
3.706669e+003;5.981830e-004
3.708598e+003;1.200281e-004
3.710526e+003;6.050697e-005
3.712455e+003;2.992703e-004
3.714383e+003;5.419138e-004
3.716312e+003;3.865480e-004
3.718240e+003;-1.988042e-007
3.720169e+003;2.290497e-004
3.722098e+003;3.632678e-004
3.724026e+003;3.850346e-005
3.725955e+003;-3.015807e-004
3.727883e+003;-3.235659e-004
3.729812e+003;-3.362466e-004
3.731740e+003;-5.916689e-004
3.733669e+003;-3.854429e-004
3.735597e+003;-3.995781e-005
3.737526e+003;-3.787557e-004
3.739455e+003;-7.378974e-004
3.741383e+003;-7.220859e-004
3.743312e+003;-9.467665e-004
3.745240e+003;-1.172851e-003
3.747169e+003;-9.026927e-004
3.749097e+003;-7.353173e-004
3.751026e+003;-1.233847e-003
3.752954e+003;-1.507828e-003
3.754883e+003;-1.014637e-003
3.756812e+003;-6.849366e-004
3.758740e+003;-9.520233e-004
3.760668e+003;-1.214948e-003
3.762597e+003;-1.418667e-003
3.764526e+003;-1.487388e-003
3.766454e+003;-1.175065e-003
3.768383e+003;-9.350294e-004
3.770311e+003;-9.932821e-004
3.772240e+003;-1.171067e-003
3.774168e+003;-1.136765e-003
3.776097e+003;-1.227636e-003
3.778025e+003;-1.459881e-003
3.779954e+003;-1.548010e-003
3.781883e+003;-1.251556e-003
3.783811e+003;-9.480559e-004
3.785740e+003;-1.131147e-003
3.787668e+003;-1.489502e-003
3.789597e+003;-1.415926e-003
3.791525e+003;-1.353634e-003
3.793454e+003;-1.414109e-003
3.795382e+003;-1.328563e-003
3.797311e+003;-1.058733e-003
3.799240e+003;-7.862214e-004
3.801168e+003;-1.181475e-003
3.803097e+003;-1.619187e-003
3.805025e+003;-1.413713e-003
3.806954e+003;-1.031264e-003
3.808882e+003;-8.297777e-004
3.810811e+003;-1.152297e-003
3.812739e+003;-1.467311e-003
3.814668e+003;-1.667413e-003
3.816596e+003;-1.811300e-003
3.818525e+003;-1.816547e-003
3.820454e+003;-1.684610e-003
3.822382e+003;-1.291069e-003
3.824311e+003;-1.138979e-003
3.826239e+003;-8.274959e-004
3.828168e+003;-7.791434e-004
3.830096e+003;-7.570160e-004
3.832025e+003;-5.952756e-004
3.833953e+003;-7.942252e-004
3.835882e+003;-1.393104e-003
3.837811e+003;-1.560556e-003
3.839739e+003;-1.439770e-003
3.841667e+003;-1.424149e-003
3.843596e+003;-1.307917e-003
3.845525e+003;-1.306529e-003
3.847453e+003;-1.440397e-003
3.849382e+003;-1.593240e-003
3.851310e+003;-1.801599e-003
3.853239e+003;-2.001349e-003
3.855167e+003;-1.787773e-003
3.857096e+003;-1.604761e-003
3.859024e+003;-1.309007e-003
3.860953e+003;-1.026835e-003
3.862882e+003;-1.078267e-003
3.864810e+003;-1.046040e-003
3.866739e+003;-1.172388e-003
3.868667e+003;-1.251061e-003
3.870596e+003;-9.547674e-004
3.872524e+003;-7.047191e-004
3.874453e+003;-1.156692e-003
3.876381e+003;-1.225719e-003
3.878310e+003;-9.409806e-004
3.880239e+003;-9.187622e-004
3.882167e+003;-7.843692e-004
3.884096e+003;-7.755713e-004
3.886024e+003;-1.067723e-003
3.887953e+003;-1.260411e-003
3.889881e+003;-1.257206e-003
3.891810e+003;-9.636608e-004
3.893738e+003;-7.631350e-004
3.895667e+003;-8.271982e-004
3.897595e+003;-8.166154e-004
3.899524e+003;-8.405918e-004
3.901453e+003;-7.932330e-004
3.903381e+003;-7.034621e-004
3.905310e+003;-4.052390e-004
3.907238e+003;-3.734919e-004
3.909167e+003;-5.242284e-004
3.911095e+003;-2.565474e-004
3.913024e+003;-9.627685e-005
3.914952e+003;-5.520597e-004
3.916881e+003;-7.641934e-004
3.918810e+003;1.033794e-005
3.920738e+003;3.706298e-004
3.922667e+003;1.974834e-005
3.924595e+003;-2.782368e-004
3.926524e+003;-5.912057e-004
3.928452e+003;-5.195291e-004
3.930381e+003;-2.766474e-004
3.932309e+003;-3.588259e-004
3.934238e+003;-6.330281e-004
3.936167e+003;-6.160217e-004
3.938095e+003;-2.107476e-004
3.940023e+003;1.181389e-004
3.941952e+003;3.230113e-004
3.943881e+003;2.763595e-004
3.945809e+003;3.846245e-004
3.947738e+003;4.833963e-004
3.949666e+003;3.046086e-004
3.951595e+003;1.136646e-004
3.953523e+003;5.715998e-005
3.955452e+003;-3.276383e-004
3.957380e+003;-7.074648e-004
3.959309e+003;-7.714370e-004
3.961238e+003;-5.056623e-004
3.963166e+003;-1.592130e-004
3.965095e+003;3.144896e-004
3.967023e+003;4.330458e-004
3.968952e+003;2.368073e-004
3.970880e+003;3.118025e-005
3.972809e+003;1.208898e-004
3.974737e+003;3.092507e-004
3.976666e+003;3.290462e-004
3.978594e+003;2.129052e-004
3.980523e+003;2.703916e-004
3.982452e+003;2.513613e-004
3.984380e+003;7.919758e-005
3.986309e+003;2.749670e-004
3.988237e+003;6.065111e-004
3.990166e+003;3.933134e-004
3.992094e+003;-1.844180e-004
3.994023e+003;-2.279024e-004
3.995951e+003;-1.872663e-004
3.997880e+003;-3.246916e-004
3.999809e+003;-4.643903e-004
4.001737e+003;0.000000e+000
