3.992094e+002;0.000000e+000
4.011380e+002;0.000000e+000
4.030665e+002;0.000000e+000
4.049951e+002;0.000000e+000
4.069236e+002;0.000000e+000
4.088522e+002;0.000000e+000
4.107807e+002;0.000000e+000
4.127093e+002;0.000000e+000
4.146378e+002;0.000000e+000
4.165664e+002;0.000000e+000
4.184949e+002;0.000000e+000
4.204235e+002;0.000000e+000
4.223520e+002;0.000000e+000
4.242806e+002;0.000000e+000
4.262091e+002;0.000000e+000
4.281377e+002;0.000000e+000
4.300662e+002;0.000000e+000
4.319948e+002;0.000000e+000
4.339233e+002;0.000000e+000
4.358519e+002;0.000000e+000
4.377804e+002;0.000000e+000
4.397090e+002;0.000000e+000
4.416375e+002;0.000000e+000
4.435660e+002;0.000000e+000
4.454946e+002;0.000000e+000
4.474232e+002;0.000000e+000
4.493517e+002;0.000000e+000
4.512802e+002;0.000000e+000
4.532088e+002;0.000000e+000
4.551373e+002;0.000000e+000
4.570659e+002;0.000000e+000
4.589944e+002;0.000000e+000
4.609230e+002;0.000000e+000
4.628515e+002;0.000000e+000
4.647801e+002;0.000000e+000
4.667086e+002;0.000000e+000
4.686372e+002;0.000000e+000
4.705657e+002;0.000000e+000
4.724943e+002;0.000000e+000
4.744228e+002;0.000000e+000
4.763513e+002;0.000000e+000
4.782799e+002;0.000000e+000
4.802085e+002;0.000000e+000
4.821370e+002;0.000000e+000
4.840656e+002;0.000000e+000
4.859941e+002;0.000000e+000
4.879226e+002;0.000000e+000
4.898512e+002;0.000000e+000
4.917798e+002;0.000000e+000
4.937083e+002;0.000000e+000
4.956368e+002;0.000000e+000
4.975654e+002;0.000000e+000
4.994939e+002;0.000000e+000
5.014225e+002;0.000000e+000
5.033510e+002;0.000000e+000
5.052796e+002;0.000000e+000
5.072081e+002;0.000000e+000
5.091367e+002;0.000000e+000
5.110652e+002;0.000000e+000
5.129938e+002;0.000000e+000
5.149223e+002;0.000000e+000
5.168509e+002;0.000000e+000
5.187794e+002;0.000000e+000
5.207079e+002;0.000000e+000
5.226365e+002;0.000000e+000
5.245651e+002;0.000000e+000
5.264936e+002;0.000000e+000
5.284222e+002;0.000000e+000
5.303507e+002;0.000000e+000
5.322792e+002;0.000000e+000
5.342078e+002;0.000000e+000
5.361364e+002;0.000000e+000
5.380649e+002;0.000000e+000
5.399935e+002;0.000000e+000
5.419220e+002;0.000000e+000
5.438505e+002;0.000000e+000
5.457791e+002;0.000000e+000
5.477076e+002;0.000000e+000
5.496362e+002;0.000000e+000
5.515648e+002;0.000000e+000
5.534933e+002;0.000000e+000
5.554218e+002;0.000000e+000
5.573504e+002;0.000000e+000
5.592789e+002;0.000000e+000
5.612075e+002;0.000000e+000
5.631360e+002;0.000000e+000
5.650646e+002;0.000000e+000
5.669931e+002;0.000000e+000
5.689217e+002;0.000000e+000
5.708502e+002;0.000000e+000
5.727787e+002;0.000000e+000
5.747073e+002;0.000000e+000
5.766359e+002;0.000000e+000
5.785644e+002;0.000000e+000
5.804930e+002;0.000000e+000
5.824215e+002;0.000000e+000
5.843500e+002;0.000000e+000
5.862786e+002;0.000000e+000
5.882072e+002;0.000000e+000
5.901357e+002;0.000000e+000
5.920643e+002;0.000000e+000
5.939928e+002;0.000000e+000
5.959213e+002;0.000000e+000
5.978499e+002;0.000000e+000
5.997784e+002;1.760900e-001
6.017070e+002;1.783638e-001
6.036355e+002;1.822101e-001
6.055641e+002;1.821181e-001
6.074926e+002;1.849930e-001
6.094211e+002;1.878262e-001
6.113497e+002;1.871429e-001
6.132783e+002;1.843450e-001
6.152068e+002;1.795966e-001
6.171354e+002;1.799642e-001
6.190639e+002;1.860723e-001
6.209924e+002;1.872009e-001
6.229210e+002;1.861380e-001
6.248495e+002;1.853609e-001
6.267781e+002;1.824531e-001
6.287067e+002;1.801976e-001
6.306352e+002;1.815073e-001
6.325637e+002;1.820555e-001
6.344923e+002;1.804364e-001
6.364208e+002;1.803669e-001
6.383494e+002;1.782005e-001
6.402780e+002;1.780693e-001
6.422065e+002;1.804028e-001
6.441350e+002;1.804862e-001
6.460636e+002;1.797727e-001
6.479921e+002;1.802887e-001
6.499207e+002;1.781874e-001
6.518492e+002;1.748259e-001
6.537778e+002;1.746845e-001
6.557063e+002;1.764358e-001
6.576349e+002;1.757011e-001
6.595634e+002;1.769832e-001
6.614919e+002;1.787981e-001
6.634205e+002;1.778952e-001
6.653491e+002;1.761529e-001
6.672776e+002;1.746494e-001
6.692062e+002;1.743992e-001
6.711347e+002;1.727738e-001
6.730632e+002;1.712017e-001
6.749918e+002;1.706542e-001
6.769203e+002;1.688344e-001
6.788489e+002;1.683782e-001
6.807775e+002;1.695285e-001
6.827060e+002;1.688114e-001
6.846345e+002;1.671558e-001
6.865631e+002;1.655739e-001
6.884916e+002;1.646899e-001
6.904202e+002;1.645076e-001
6.923488e+002;1.632434e-001
6.942773e+002;1.622105e-001
6.962058e+002;1.613513e-001
6.981344e+002;1.597871e-001
7.000629e+002;1.578862e-001
7.019915e+002;1.561128e-001
7.039200e+002;1.542477e-001
7.058486e+002;1.526794e-001
7.077771e+002;1.513938e-001
7.097057e+002;1.492250e-001
7.116342e+002;1.472995e-001
7.135627e+002;1.456685e-001
7.154913e+002;1.438995e-001
7.174199e+002;1.424674e-001
7.193484e+002;1.411585e-001
7.212770e+002;1.402899e-001
7.232055e+002;1.378652e-001
7.251340e+002;1.353070e-001
7.270626e+002;1.341212e-001
7.289911e+002;1.328226e-001
7.309197e+002;1.307774e-001
7.328483e+002;1.280725e-001
7.347768e+002;1.252839e-001
7.367053e+002;1.231698e-001
7.386339e+002;1.209842e-001
7.405624e+002;1.184771e-001
7.424910e+002;1.165537e-001
7.444196e+002;1.148543e-001
7.463481e+002;1.136605e-001
7.482766e+002;1.117200e-001
7.502052e+002;1.100959e-001
7.521337e+002;1.084993e-001
7.540623e+002;1.063903e-001
7.559908e+002;1.043522e-001
7.579194e+002;1.029774e-001
7.598479e+002;1.013343e-001
7.617765e+002;9.931948e-002
7.637050e+002;9.803492e-002
7.656335e+002;9.592692e-002
7.675621e+002;9.378498e-002
7.694907e+002;9.254622e-002
7.714192e+002;9.059708e-002
7.733478e+002;8.898459e-002
7.752763e+002;8.778826e-002
7.772048e+002;8.626083e-002
7.791334e+002;8.468474e-002
7.810620e+002;8.351132e-002
7.829905e+002;8.252824e-002
7.849191e+002;8.138535e-002
7.868476e+002;7.967371e-002
7.887761e+002;7.745685e-002
7.907047e+002;7.592028e-002
7.926332e+002;7.403294e-002
7.945618e+002;7.241793e-002
7.964903e+002;7.221285e-002
7.984189e+002;7.190306e-002
8.003474e+002;7.061924e-002
8.022759e+002;6.972663e-002
8.042045e+002;6.893016e-002
8.061331e+002;6.824530e-002
8.080616e+002;6.803958e-002
8.099902e+002;6.767119e-002
8.119187e+002;6.744276e-002
8.138472e+002;6.738169e-002
8.157758e+002;6.656931e-002
8.177043e+002;6.601686e-002
8.196329e+002;6.592283e-002
8.215615e+002;6.586213e-002
8.234900e+002;6.608016e-002
8.254185e+002;6.617851e-002
8.273471e+002;6.654289e-002
8.292756e+002;6.704641e-002
8.312042e+002;6.688958e-002
8.331328e+002;6.620290e-002
8.350613e+002;6.490409e-002
8.369898e+002;6.341428e-002
8.389184e+002;6.237179e-002
8.408469e+002;6.132660e-002
8.427755e+002;6.096558e-002
8.447040e+002;6.123423e-002
8.466326e+002;6.102338e-002
8.485611e+002;6.061327e-002
8.504897e+002;6.040763e-002
8.524182e+002;6.052740e-002
8.543467e+002;6.019741e-002
8.562753e+002;5.889432e-002
8.582039e+002;5.699604e-002
8.601324e+002;5.484147e-002
8.620610e+002;5.329131e-002
8.639895e+002;5.195923e-002
8.659180e+002;4.993756e-002
8.678466e+002;4.862753e-002
8.697751e+002;4.841037e-002
8.717037e+002;4.788467e-002
8.736323e+002;4.734146e-002
8.755608e+002;4.742235e-002
8.774893e+002;4.751468e-002
8.794179e+002;4.692069e-002
8.813464e+002;4.631247e-002
8.832750e+002;4.570890e-002
8.852036e+002;4.490615e-002
8.871321e+002;4.469636e-002
8.890606e+002;4.483154e-002
8.909892e+002;4.442479e-002
8.929177e+002;4.408326e-002
8.948463e+002;4.389380e-002
8.967748e+002;4.372950e-002
8.987034e+002;4.356617e-002
9.006319e+002;4.362093e-002
9.025605e+002;4.376435e-002
9.044890e+002;4.384597e-002
9.064175e+002;4.445866e-002
9.083461e+002;4.475278e-002
9.102747e+002;4.498854e-002
9.122032e+002;4.558464e-002
9.141318e+002;4.616803e-002
9.160603e+002;4.676726e-002
9.179888e+002;4.762910e-002
9.199174e+002;4.884594e-002
9.218459e+002;4.996440e-002
9.237745e+002;5.112298e-002
9.257031e+002;5.216695e-002
9.276316e+002;5.294967e-002
9.295601e+002;5.325771e-002
9.314887e+002;5.381573e-002
9.334172e+002;5.459087e-002
9.353458e+002;5.489651e-002
9.372744e+002;5.535805e-002
9.392029e+002;5.619047e-002
9.411314e+002;5.700696e-002
9.430600e+002;5.786446e-002
9.449885e+002;5.851047e-002
9.469171e+002;5.925435e-002
9.488456e+002;6.021538e-002
9.507742e+002;6.142174e-002
9.527027e+002;6.267186e-002
9.546313e+002;6.363384e-002
9.565598e+002;6.427820e-002
9.584883e+002;6.501987e-002
9.604169e+002;6.547874e-002
9.623455e+002;6.563075e-002
9.642740e+002;6.584046e-002
9.662026e+002;6.629641e-002
9.681311e+002;6.654853e-002
9.700596e+002;6.673848e-002
9.719882e+002;6.698015e-002
9.739167e+002;6.702403e-002
9.758453e+002;6.691636e-002
9.777739e+002;6.663915e-002
9.797024e+002;6.623281e-002
9.816309e+002;6.585839e-002
9.835595e+002;6.591827e-002
9.854880e+002;6.664838e-002
9.874166e+002;6.776281e-002
9.893452e+002;6.934503e-002
9.912737e+002;7.108384e-002
9.932022e+002;7.306641e-002
9.951307e+002;7.550146e-002
9.970593e+002;7.777558e-002
9.989879e+002;7.987995e-002
1.000916e+003;8.183661e-002
1.002845e+003;8.407170e-002
1.004773e+003;8.689786e-002
1.006702e+003;8.940221e-002
1.008631e+003;9.167720e-002
1.010559e+003;9.376319e-002
1.012488e+003;9.500320e-002
1.014416e+003;9.568008e-002
1.016345e+003;9.578372e-002
1.018273e+003;9.541213e-002
1.020202e+003;9.518707e-002
1.022130e+003;9.519734e-002
1.024059e+003;9.536643e-002
1.025988e+003;9.609948e-002
1.027916e+003;9.736817e-002
1.029845e+003;9.910301e-002
1.031773e+003;1.011273e-001
1.033702e+003;1.029770e-001
1.035630e+003;1.047147e-001
1.037559e+003;1.063383e-001
1.039487e+003;1.076889e-001
1.041416e+003;1.091736e-001
1.043344e+003;1.107482e-001
1.045273e+003;1.121575e-001
1.047202e+003;1.131561e-001
1.049130e+003;1.137845e-001
1.051059e+003;1.145891e-001
1.052987e+003;1.157094e-001
1.054916e+003;1.170812e-001
1.056844e+003;1.180681e-001
1.058773e+003;1.186905e-001
1.060701e+003;1.195259e-001
1.062630e+003;1.200480e-001
1.064558e+003;1.200044e-001
1.066487e+003;1.198185e-001
1.068416e+003;1.192634e-001
1.070344e+003;1.180007e-001
1.072273e+003;1.172839e-001
1.074201e+003;1.170448e-001
1.076130e+003;1.156107e-001
1.078058e+003;1.132169e-001
1.079987e+003;1.110387e-001
1.081915e+003;1.092374e-001
1.083844e+003;1.076457e-001
1.085773e+003;1.055207e-001
1.087701e+003;1.031629e-001
1.089630e+003;1.007243e-001
1.091558e+003;9.866573e-002
1.093487e+003;9.712134e-002
1.095415e+003;9.591667e-002
1.097344e+003;9.531151e-002
1.099272e+003;9.486978e-002
1.101201e+003;9.415646e-002
1.103129e+003;9.347882e-002
1.105058e+003;9.303629e-002
1.106987e+003;9.238692e-002
1.108915e+003;9.128474e-002
1.110844e+003;8.981086e-002
1.112772e+003;8.841361e-002
1.114701e+003;8.705906e-002
1.116629e+003;8.567841e-002
1.118558e+003;8.469501e-002
1.120486e+003;8.371457e-002
1.122415e+003;8.312776e-002
1.124344e+003;8.260406e-002
1.126272e+003;8.193287e-002
1.128201e+003;8.168406e-002
1.130129e+003;8.199558e-002
1.132058e+003;8.232938e-002
1.133986e+003;8.258979e-002
1.135915e+003;8.337110e-002
1.137843e+003;8.442879e-002
1.139772e+003;8.571102e-002
1.141700e+003;8.731332e-002
1.143629e+003;8.898109e-002
1.145557e+003;9.055242e-002
1.147486e+003;9.211598e-002
1.149415e+003;9.417391e-002
1.151343e+003;9.644229e-002
1.153272e+003;9.848965e-002
1.155200e+003;1.005490e-001
1.157129e+003;1.023796e-001
1.159057e+003;1.039448e-001
1.160986e+003;1.054086e-001
1.162914e+003;1.066459e-001
1.164843e+003;1.078044e-001
1.166771e+003;1.082616e-001
1.168700e+003;1.084673e-001
1.170629e+003;1.091633e-001
1.172557e+003;1.094008e-001
1.174486e+003;1.090772e-001
1.176414e+003;1.078923e-001
1.178343e+003;1.060453e-001
1.180271e+003;1.043620e-001
1.182200e+003;1.028818e-001
1.184128e+003;1.014459e-001
1.186057e+003;1.002694e-001
1.187986e+003;9.997827e-002
1.189914e+003;1.003528e-001
1.191843e+003;1.012229e-001
1.193771e+003;1.026908e-001
1.195700e+003;1.047877e-001
1.197628e+003;1.073270e-001
1.199557e+003;1.105562e-001
1.201485e+003;1.143732e-001
1.203414e+003;1.184294e-001
1.205343e+003;1.227123e-001
1.207271e+003;1.271565e-001
1.209200e+003;1.317696e-001
1.211128e+003;1.367916e-001
1.213057e+003;1.420339e-001
1.214985e+003;1.467216e-001
1.216914e+003;1.509166e-001
1.218842e+003;1.551748e-001
1.220771e+003;1.591992e-001
1.222699e+003;1.628818e-001
1.224628e+003;1.661666e-001
1.226557e+003;1.686808e-001
1.228485e+003;1.705678e-001
1.230414e+003;1.719643e-001
1.232342e+003;1.727555e-001
1.234271e+003;1.730475e-001
1.236199e+003;1.730231e-001
1.238128e+003;1.723289e-001
1.240056e+003;1.711678e-001
1.241985e+003;1.697537e-001
1.243913e+003;1.681180e-001
1.245842e+003;1.660701e-001
1.247771e+003;1.637433e-001
1.249699e+003;1.615801e-001
1.251628e+003;1.599953e-001
1.253556e+003;1.581080e-001
1.255485e+003;1.558808e-001
1.257413e+003;1.539878e-001
1.259342e+003;1.518246e-001
1.261270e+003;1.493771e-001
1.263199e+003;1.472580e-001
1.265127e+003;1.454628e-001
1.267056e+003;1.432572e-001
1.268985e+003;1.407502e-001
1.270913e+003;1.385849e-001
1.272842e+003;1.364762e-001
1.274770e+003;1.342068e-001
1.276699e+003;1.318287e-001
1.278627e+003;1.299357e-001
1.280556e+003;1.281221e-001
1.282484e+003;1.260428e-001
1.284413e+003;1.242760e-001
1.286342e+003;1.227572e-001
1.288270e+003;1.211227e-001
1.290199e+003;1.197604e-001
1.292127e+003;1.185142e-001
1.294056e+003;1.174752e-001
1.295984e+003;1.164971e-001
1.297913e+003;1.157337e-001
1.299841e+003;1.152816e-001
1.301770e+003;1.143203e-001
1.303698e+003;1.134970e-001
1.305627e+003;1.127460e-001
1.307556e+003;1.117660e-001
1.309484e+003;1.109033e-001
1.311413e+003;1.102204e-001
1.313341e+003;1.093287e-001
1.315270e+003;1.084771e-001
1.317198e+003;1.078544e-001
1.319127e+003;1.074581e-001
1.321055e+003;1.074573e-001
1.322984e+003;1.076663e-001
1.324912e+003;1.077604e-001
1.326841e+003;1.082012e-001
1.328770e+003;1.088197e-001
1.330698e+003;1.094154e-001
1.332627e+003;1.100129e-001
1.334555e+003;1.104897e-001
1.336484e+003;1.106688e-001
1.338412e+003;1.105907e-001
1.340341e+003;1.107277e-001
1.342269e+003;1.108470e-001
1.344198e+003;1.105629e-001
1.346126e+003;1.102770e-001
1.348055e+003;1.101478e-001
1.349984e+003;1.100976e-001
1.351912e+003;1.100977e-001
1.353841e+003;1.102479e-001
1.355769e+003;1.107298e-001
1.357698e+003;1.119512e-001
1.359626e+003;1.140175e-001
1.361555e+003;1.164872e-001
1.363483e+003;1.193365e-001
1.365412e+003;1.226579e-001
1.367341e+003;1.260193e-001
1.369269e+003;1.288232e-001
1.371198e+003;1.307082e-001
1.373126e+003;1.322099e-001
1.375055e+003;1.334595e-001
1.376983e+003;1.341163e-001
1.378912e+003;1.342441e-001
1.380840e+003;1.338882e-001
1.382769e+003;1.334939e-001
1.384698e+003;1.329840e-001
1.386626e+003;1.323970e-001
1.388555e+003;1.316572e-001
1.390483e+003;1.308445e-001
1.392412e+003;1.298898e-001
1.394340e+003;1.288715e-001
1.396269e+003;1.280963e-001
1.398197e+003;1.277070e-001
1.400126e+003;1.280491e-001
1.402054e+003;1.288734e-001
1.403983e+003;1.297749e-001
1.405911e+003;1.308536e-001
1.407840e+003;1.325086e-001
1.409769e+003;1.343719e-001
1.411697e+003;1.360769e-001
1.413626e+003;1.373893e-001
1.415554e+003;1.381586e-001
1.417483e+003;1.382981e-001
1.419411e+003;1.381748e-001
1.421340e+003;1.381975e-001
1.423268e+003;1.383685e-001
1.425197e+003;1.388247e-001
1.427125e+003;1.397393e-001
1.429054e+003;1.413471e-001
1.430983e+003;1.434217e-001
1.432911e+003;1.457840e-001
1.434840e+003;1.488989e-001
1.436768e+003;1.525880e-001
1.438697e+003;1.565329e-001
1.440625e+003;1.601809e-001
1.442554e+003;1.634389e-001
1.444482e+003;1.663326e-001
1.446411e+003;1.681923e-001
1.448340e+003;1.687446e-001
1.450268e+003;1.687238e-001
1.452197e+003;1.680571e-001
1.454125e+003;1.668396e-001
1.456054e+003;1.650629e-001
1.457982e+003;1.630337e-001
1.459911e+003;1.610895e-001
1.461839e+003;1.591705e-001
1.463768e+003;1.574018e-001
1.465697e+003;1.561144e-001
1.467625e+003;1.547771e-001
1.469554e+003;1.530830e-001
1.471482e+003;1.514112e-001
1.473411e+003;1.505047e-001
1.475339e+003;1.507845e-001
1.477268e+003;1.522254e-001
1.479196e+003;1.547206e-001
1.481125e+003;1.583359e-001
1.483053e+003;1.634228e-001
1.484982e+003;1.698245e-001
1.486911e+003;1.772098e-001
1.488839e+003;1.854122e-001
1.490768e+003;1.943513e-001
1.492696e+003;2.033504e-001
1.494625e+003;2.125837e-001
1.496553e+003;2.217371e-001
1.498482e+003;2.304386e-001
1.500410e+003;2.388928e-001
1.502339e+003;2.463925e-001
1.504267e+003;2.529274e-001
1.506196e+003;2.590657e-001
1.508125e+003;2.651366e-001
1.510053e+003;2.704110e-001
1.511982e+003;2.745210e-001
1.513910e+003;2.774041e-001
1.515839e+003;2.780764e-001
1.517767e+003;2.763335e-001
1.519696e+003;2.727432e-001
1.521624e+003;2.681000e-001
1.523553e+003;2.637251e-001
1.525481e+003;2.596826e-001
1.527410e+003;2.562252e-001
1.529339e+003;2.530494e-001
1.531267e+003;2.496228e-001
1.533196e+003;2.462886e-001
1.535124e+003;2.432029e-001
1.537053e+003;2.395327e-001
1.538981e+003;2.349574e-001
1.540910e+003;2.307868e-001
1.542838e+003;2.272354e-001
1.544767e+003;2.235095e-001
1.546695e+003;2.194365e-001
1.548624e+003;2.151144e-001
1.550553e+003;2.107763e-001
1.552481e+003;2.064143e-001
1.554410e+003;2.018375e-001
1.556338e+003;1.970904e-001
1.558267e+003;1.919905e-001
1.560195e+003;1.872723e-001
1.562124e+003;1.827319e-001
1.564052e+003;1.776637e-001
1.565981e+003;1.726462e-001
1.567910e+003;1.682980e-001
1.569838e+003;1.640441e-001
1.571767e+003;1.596384e-001
1.573695e+003;1.554606e-001
1.575624e+003;1.514793e-001
1.577552e+003;1.482539e-001
1.579481e+003;1.458497e-001
1.581409e+003;1.436012e-001
1.583338e+003;1.416433e-001
1.585266e+003;1.405481e-001
1.587195e+003;1.402518e-001
1.589124e+003;1.406039e-001
1.591052e+003;1.416355e-001
1.592981e+003;1.435958e-001
1.594909e+003;1.461102e-001
1.596838e+003;1.491459e-001
1.598766e+003;1.526160e-001
1.600695e+003;1.566534e-001
1.602623e+003;1.613116e-001
1.604552e+003;1.670658e-001
1.606480e+003;1.743035e-001
1.608409e+003;1.828803e-001
1.610338e+003;1.925464e-001
1.612266e+003;2.029520e-001
1.614195e+003;2.134271e-001
1.616123e+003;2.238914e-001
1.618052e+003;2.345220e-001
1.619980e+003;2.450409e-001
1.621909e+003;2.557871e-001
1.623837e+003;2.658108e-001
1.625766e+003;2.746630e-001
1.627694e+003;2.823739e-001
1.629623e+003;2.886115e-001
1.631552e+003;2.929767e-001
1.633480e+003;2.956959e-001
1.635409e+003;2.969613e-001
1.637337e+003;2.972146e-001
1.639266e+003;2.962879e-001
1.641194e+003;2.939523e-001
1.643123e+003;2.909914e-001
1.645051e+003;2.871843e-001
1.646980e+003;2.825156e-001
1.648909e+003;2.772200e-001
1.650837e+003;2.716019e-001
1.652766e+003;2.654708e-001
1.654694e+003;2.593086e-001
1.656623e+003;2.532338e-001
1.658551e+003;2.464961e-001
1.660480e+003;2.397240e-001
1.662408e+003;2.333252e-001
1.664337e+003;2.270797e-001
1.666266e+003;2.206399e-001
1.668194e+003;2.143399e-001
1.670123e+003;2.082248e-001
1.672051e+003;2.022741e-001
1.673980e+003;1.965077e-001
1.675908e+003;1.910731e-001
1.677837e+003;1.859027e-001
1.679765e+003;1.806112e-001
1.681694e+003;1.754637e-001
1.683622e+003;1.706105e-001
1.685551e+003;1.658236e-001
1.687479e+003;1.612100e-001
1.689408e+003;1.567957e-001
1.691337e+003;1.526573e-001
1.693265e+003;1.488581e-001
1.695194e+003;1.445221e-001
1.697122e+003;1.399444e-001
1.699051e+003;1.350676e-001
1.700979e+003;1.291032e-001
1.702908e+003;1.224856e-001
1.704836e+003;1.151846e-001
1.706765e+003;1.071570e-001
1.708693e+003;9.888951e-002
1.710622e+003;9.100318e-002
1.712551e+003;8.349244e-002
1.714479e+003;7.616975e-002
1.716408e+003;6.932271e-002
1.718336e+003;6.360753e-002
1.720265e+003;5.913850e-002
1.722193e+003;5.516685e-002
1.724122e+003;5.174302e-002
1.726050e+003;4.935914e-002
1.727979e+003;4.756444e-002
1.729908e+003;4.607488e-002
1.731836e+003;4.485938e-002
1.733765e+003;4.382918e-002
1.735693e+003;4.308394e-002
1.737622e+003;4.236825e-002
1.739550e+003;4.109830e-002
1.741479e+003;3.964568e-002
1.743407e+003;3.778651e-002
1.745336e+003;3.566577e-002
1.747265e+003;3.311956e-002
1.749193e+003;3.055584e-002
1.751122e+003;2.828192e-002
1.753050e+003;2.617252e-002
1.754979e+003;2.381360e-002
1.756907e+003;2.127255e-002
1.758836e+003;1.916591e-002
1.760764e+003;1.751610e-002
1.762693e+003;1.627720e-002
1.764621e+003;1.532394e-002
1.766550e+003;1.445370e-002
1.768479e+003;1.368138e-002
1.770407e+003;1.293358e-002
1.772336e+003;1.219312e-002
1.774264e+003;1.154664e-002
1.776193e+003;1.100157e-002
1.778121e+003;1.046631e-002
1.780050e+003;1.006035e-002
1.781978e+003;9.601136e-003
1.783907e+003;9.277414e-003
1.785835e+003;8.906041e-003
1.787764e+003;8.385450e-003
1.789693e+003;7.840514e-003
1.791621e+003;7.418931e-003
1.793550e+003;7.067834e-003
1.795478e+003;6.701138e-003
1.797407e+003;6.502148e-003
1.799335e+003;6.405865e-003
1.801264e+003;6.062641e-003
1.803192e+003;5.774619e-003
1.805121e+003;5.526619e-003
1.807049e+003;5.257865e-003
1.808978e+003;4.927847e-003
1.810907e+003;4.919904e-003
1.812835e+003;4.871482e-003
1.814764e+003;4.505932e-003
1.816692e+003;3.996471e-003
1.818621e+003;3.603390e-003
1.820549e+003;3.574491e-003
1.822478e+003;3.468201e-003
1.824406e+003;3.132330e-003
1.826335e+003;2.932399e-003
1.828264e+003;2.721425e-003
1.830192e+003;2.504554e-003
1.832121e+003;2.265907e-003
1.834049e+003;2.065577e-003
1.835978e+003;1.937920e-003
1.837906e+003;1.892559e-003
1.839835e+003;1.679727e-003
1.841763e+003;1.475710e-003
1.843692e+003;1.274979e-003
1.845620e+003;1.186027e-003
1.847549e+003;8.948777e-004
1.849478e+003;6.355118e-004
1.851406e+003;7.641464e-004
1.853335e+003;8.130748e-004
1.855263e+003;7.059309e-004
1.857192e+003;5.905849e-004
1.859120e+003;2.258341e-004
1.861049e+003;1.640166e-005
1.862977e+003;4.546228e-005
1.864906e+003;-7.885830e-006
1.866834e+003;-1.334434e-004
1.868763e+003;-3.696848e-004
1.870692e+003;-5.049011e-004
1.872620e+003;-4.613452e-004
1.874549e+003;-5.672486e-004
1.876477e+003;-6.937694e-004
1.878406e+003;-5.818414e-004
1.880334e+003;-4.930196e-004
1.882263e+003;-6.918837e-004
1.884191e+003;-7.829139e-004
1.886120e+003;-8.589121e-004
1.888048e+003;-8.850356e-004
1.889977e+003;-8.895656e-004
1.891906e+003;-9.891829e-004
1.893834e+003;-1.029975e-003
1.895763e+003;-1.070731e-003
1.897691e+003;-1.221919e-003
1.899620e+003;-1.129891e-003
1.901548e+003;-9.688513e-004
1.903477e+003;-1.042206e-003
1.905405e+003;-1.071127e-003
1.907334e+003;-1.061641e-003
1.909262e+003;-1.276896e-003
1.911191e+003;-1.440794e-003
1.913120e+003;-1.499573e-003
1.915048e+003;-1.489106e-003
1.916977e+003;-1.452880e-003
1.918905e+003;-1.454003e-003
1.920834e+003;-1.570857e-003
1.922762e+003;-1.834958e-003
1.924691e+003;-1.917832e-003
1.926619e+003;-1.850795e-003
1.928548e+003;-1.795099e-003
1.930477e+003;-1.839478e-003
1.932405e+003;-1.996336e-003
1.934334e+003;-1.884249e-003
1.936262e+003;-1.760186e-003
1.938191e+003;-1.885634e-003
1.940119e+003;-1.966486e-003
1.942048e+003;-2.097909e-003
1.943976e+003;-2.250685e-003
1.945905e+003;-2.159204e-003
1.947833e+003;-2.128772e-003
1.949762e+003;-2.220556e-003
1.951691e+003;-2.134542e-003
1.953619e+003;-1.849145e-003
1.955548e+003;-1.868413e-003
1.957476e+003;-2.000756e-003
1.959405e+003;-2.033044e-003
1.961333e+003;-2.013355e-003
1.963262e+003;-2.112055e-003
1.965190e+003;-2.153500e-003
1.967119e+003;-2.189997e-003
1.969047e+003;-2.223194e-003
1.970976e+003;-2.206612e-003
1.972905e+003;-2.222468e-003
1.974833e+003;-1.950687e-003
1.976762e+003;-1.750385e-003
1.978690e+003;-1.815557e-003
1.980619e+003;-1.991356e-003
1.982547e+003;-2.060547e-003
1.984476e+003;-2.146840e-003
1.986404e+003;-2.332228e-003
1.988333e+003;-2.624718e-003
1.990261e+003;-2.650011e-003
1.992190e+003;-2.363404e-003
1.994119e+003;-2.263409e-003
1.996047e+003;-2.313969e-003
1.997976e+003;-2.479980e-003
1.999904e+003;-2.509070e-003
2.001833e+003;-2.492400e-003
2.003761e+003;-2.596261e-003
2.005690e+003;-2.662689e-003
2.007618e+003;-2.694994e-003
2.009547e+003;-2.599555e-003
2.011476e+003;-2.455665e-003
2.013404e+003;-2.630876e-003
2.015333e+003;-2.631535e-003
2.017261e+003;-2.512726e-003
2.019190e+003;-2.576861e-003
2.021118e+003;-2.506731e-003
2.023047e+003;-2.363370e-003
2.024975e+003;-2.614113e-003
2.026904e+003;-2.761670e-003
2.028833e+003;-2.653468e-003
2.030761e+003;-2.666905e-003
2.032690e+003;-2.473490e-003
2.034618e+003;-2.368610e-003
2.036547e+003;-2.633807e-003
2.038475e+003;-2.666707e-003
2.040404e+003;-2.655840e-003
2.042332e+003;-2.863459e-003
2.044261e+003;-2.952226e-003
2.046189e+003;-2.986516e-003
2.048118e+003;-3.114637e-003
2.050047e+003;-3.148421e-003
2.051975e+003;-3.054299e-003
2.053904e+003;-3.146447e-003
2.055832e+003;-3.137763e-003
2.057761e+003;-3.014947e-003
2.059689e+003;-2.967824e-003
2.061618e+003;-3.005898e-003
2.063546e+003;-3.131249e-003
2.065475e+003;-3.100129e-003
2.067404e+003;-2.867574e-003
2.069332e+003;-2.812140e-003
2.071260e+003;-2.878996e-003
2.073189e+003;-2.920862e-003
2.075118e+003;-2.968581e-003
2.077046e+003;-3.059465e-003
2.078975e+003;-3.140493e-003
2.080903e+003;-3.095523e-003
2.082832e+003;-3.188847e-003
2.084760e+003;-3.377998e-003
2.086689e+003;-3.258538e-003
2.088617e+003;-3.217264e-003
2.090546e+003;-3.400289e-003
2.092475e+003;-3.382963e-003
2.094403e+003;-3.241470e-003
2.096332e+003;-3.534630e-003
2.098260e+003;-3.667485e-003
2.100189e+003;-3.397363e-003
2.102117e+003;-3.316020e-003
2.104046e+003;-3.495815e-003
2.105974e+003;-3.616918e-003
2.107903e+003;-3.649546e-003
2.109832e+003;-3.618955e-003
2.111760e+003;-3.652010e-003
2.113688e+003;-3.796719e-003
2.115617e+003;-3.774154e-003
2.117546e+003;-3.674648e-003
2.119474e+003;-3.754445e-003
2.121403e+003;-3.861190e-003
2.123331e+003;-3.871601e-003
2.125260e+003;-3.908544e-003
2.127188e+003;-3.911762e-003
2.129117e+003;-3.977135e-003
2.131045e+003;-3.921876e-003
2.132974e+003;-3.696528e-003
2.134903e+003;-3.782858e-003
2.136831e+003;-4.001398e-003
2.138760e+003;-4.167092e-003
2.140688e+003;-4.334234e-003
2.142617e+003;-4.233707e-003
2.144545e+003;-4.044370e-003
2.146474e+003;-3.961836e-003
2.148402e+003;-4.011608e-003
2.150331e+003;-3.937932e-003
2.152260e+003;-3.879646e-003
2.154188e+003;-4.088651e-003
2.156117e+003;-4.359558e-003
2.158045e+003;-4.427554e-003
2.159974e+003;-4.329870e-003
2.161902e+003;-4.276460e-003
2.163831e+003;-4.053660e-003
2.165759e+003;-3.914126e-003
2.167688e+003;-4.101682e-003
2.169616e+003;-4.146483e-003
2.171545e+003;-4.067151e-003
2.173474e+003;-4.163319e-003
2.175402e+003;-4.354539e-003
2.177331e+003;-4.497047e-003
2.179259e+003;-4.405743e-003
2.181188e+003;-4.182451e-003
2.183116e+003;-4.302510e-003
2.185045e+003;-4.645835e-003
2.186973e+003;-4.751313e-003
2.188902e+003;-4.730895e-003
2.190831e+003;-4.572464e-003
2.192759e+003;-4.508360e-003
2.194688e+003;-4.465172e-003
2.196616e+003;-4.414664e-003
2.198545e+003;-4.532560e-003
2.200473e+003;-4.718309e-003
2.202402e+003;-4.746462e-003
2.204330e+003;-4.650785e-003
2.206259e+003;-4.715129e-003
2.208188e+003;-4.821574e-003
2.210116e+003;-4.737351e-003
2.212044e+003;-4.632755e-003
2.213973e+003;-4.588037e-003
2.215902e+003;-4.637377e-003
2.217830e+003;-4.658259e-003
2.219759e+003;-4.618724e-003
2.221687e+003;-4.650129e-003
2.223616e+003;-4.617642e-003
2.225544e+003;-4.434179e-003
2.227473e+003;-4.586201e-003
2.229401e+003;-4.738171e-003
2.231330e+003;-4.745741e-003
2.233259e+003;-4.808433e-003
2.235187e+003;-4.773598e-003
2.237116e+003;-4.830388e-003
2.239044e+003;-5.006740e-003
2.240973e+003;-5.101095e-003
2.242901e+003;-5.215859e-003
2.244830e+003;-5.259890e-003
2.246758e+003;-5.222242e-003
2.248687e+003;-5.179713e-003
2.250615e+003;-5.027146e-003
2.252544e+003;-5.135412e-003
2.254473e+003;-5.109740e-003
2.256401e+003;-4.893658e-003
2.258330e+003;-4.873836e-003
2.260258e+003;-4.923799e-003
2.262187e+003;-4.816462e-003
2.264115e+003;-4.804436e-003
2.266044e+003;-4.885270e-003
2.267972e+003;-4.835336e-003
2.269901e+003;-4.865415e-003
2.271830e+003;-4.924257e-003
2.273758e+003;-4.941718e-003
2.275687e+003;-4.873738e-003
2.277615e+003;-4.777662e-003
2.279544e+003;-4.790344e-003
2.281472e+003;-4.816298e-003
2.283401e+003;-4.783266e-003
2.285329e+003;-4.615970e-003
2.287258e+003;-4.551250e-003
2.289187e+003;-4.731648e-003
2.291115e+003;-4.741808e-003
2.293043e+003;-4.855815e-003
2.294972e+003;-4.923307e-003
2.296901e+003;-4.813119e-003
2.298829e+003;-4.679795e-003
2.300758e+003;-4.797783e-003
2.302686e+003;-4.920948e-003
2.304615e+003;-4.616462e-003
2.306543e+003;-4.470714e-003
2.308472e+003;-4.649834e-003
2.310400e+003;-4.834648e-003
2.312329e+003;-4.639311e-003
2.314258e+003;-4.336038e-003
2.316186e+003;-4.537052e-003
2.318115e+003;-4.681205e-003
2.320043e+003;-4.536560e-003
2.321972e+003;-4.494752e-003
2.323900e+003;-4.567906e-003
2.325829e+003;-4.561414e-003
2.327757e+003;-4.498949e-003
2.329686e+003;-4.533478e-003
2.331615e+003;-4.384816e-003
2.333543e+003;-4.130434e-003
2.335472e+003;-3.936553e-003
2.337400e+003;-4.097317e-003
2.339329e+003;-4.434343e-003
2.341257e+003;-4.536036e-003
2.343186e+003;-4.302411e-003
2.345114e+003;-3.904111e-003
2.347043e+003;-3.763215e-003
2.348971e+003;-3.931365e-003
2.350900e+003;-3.976249e-003
2.352829e+003;-3.829564e-003
2.354757e+003;-3.754839e-003
2.356686e+003;-3.578766e-003
2.358614e+003;-3.334170e-003
2.360543e+003;-3.502717e-003
2.362471e+003;-3.814423e-003
2.364400e+003;-3.725438e-003
2.366328e+003;-3.593225e-003
2.368257e+003;-3.601671e-003
2.370186e+003;-3.750897e-003
2.372114e+003;-3.959701e-003
2.374042e+003;-3.822239e-003
2.375971e+003;-3.496275e-003
2.377900e+003;-3.291029e-003
2.379828e+003;-3.261071e-003
2.381757e+003;-3.384508e-003
2.383685e+003;-3.493054e-003
2.385614e+003;-3.485461e-003
2.387542e+003;-3.352781e-003
2.389471e+003;-3.193747e-003
2.391399e+003;-3.114077e-003
2.393328e+003;-3.077823e-003
2.395257e+003;-3.233051e-003
2.397185e+003;-3.272778e-003
2.399114e+003;-3.056043e-003
2.401042e+003;-3.043968e-003
2.402971e+003;-3.104307e-003
2.404899e+003;-2.752353e-003
2.406828e+003;-2.562632e-003
2.408756e+003;-2.695817e-003
2.410685e+003;-2.687749e-003
2.412614e+003;-2.490951e-003
2.414542e+003;-2.258300e-003
2.416471e+003;-2.110670e-003
2.418399e+003;-2.016554e-003
2.420328e+003;-2.019885e-003
2.422256e+003;-2.186041e-003
2.424185e+003;-2.047554e-003
2.426113e+003;-1.642822e-003
2.428042e+003;-1.384550e-003
2.429970e+003;-1.558806e-003
2.431899e+003;-1.703587e-003
2.433828e+003;-1.379694e-003
2.435756e+003;-1.192446e-003
2.437685e+003;-1.349141e-003
2.439613e+003;-1.368927e-003
2.441542e+003;-1.217723e-003
2.443470e+003;-1.043131e-003
2.445399e+003;-8.742226e-004
2.447327e+003;-7.357804e-004
2.449256e+003;-7.104088e-004
2.451185e+003;-8.564320e-004
2.453113e+003;-9.445844e-004
2.455042e+003;-8.230644e-004
2.456970e+003;-6.415973e-004
2.458899e+003;-6.966474e-004
2.460827e+003;-8.806377e-004
2.462756e+003;-8.438326e-004
2.464684e+003;-8.158878e-004
2.466613e+003;-6.497030e-004
2.468542e+003;-2.858527e-004
2.470470e+003;-2.326049e-004
2.472398e+003;-3.194603e-004
2.474327e+003;-2.048195e-004
2.476256e+003;3.644897e-005
2.478184e+003;3.301736e-004
2.480113e+003;6.958705e-005
2.482041e+003;-2.511166e-004
2.483970e+003;-1.271830e-004
2.485898e+003;1.403122e-004
2.487827e+003;1.909272e-004
2.489755e+003;2.569311e-004
2.491684e+003;2.706237e-004
2.493613e+003;3.450624e-004
2.495541e+003;5.306012e-004
2.497470e+003;6.525679e-004
2.499398e+003;4.884052e-004
2.501327e+003;3.517609e-004
2.503255e+003;4.247541e-004
2.505184e+003;4.600115e-004
2.507112e+003;5.401224e-004
2.509041e+003;8.300383e-004
2.510969e+003;1.138486e-003
2.512898e+003;1.173635e-003
2.514827e+003;9.842345e-004
2.516755e+003;9.875555e-004
2.518684e+003;1.183303e-003
2.520612e+003;1.339785e-003
2.522541e+003;1.353811e-003
2.524469e+003;1.323300e-003
2.526398e+003;1.207225e-003
2.528326e+003;1.215864e-003
2.530255e+003;1.389177e-003
2.532184e+003;1.574564e-003
2.534112e+003;1.629470e-003
2.536041e+003;1.600902e-003
2.537969e+003;1.614072e-003
2.539898e+003;1.722338e-003
2.541826e+003;1.782554e-003
2.543755e+003;2.042506e-003
2.545683e+003;2.053425e-003
2.547612e+003;1.945709e-003
2.549541e+003;2.025495e-003
2.551469e+003;2.284527e-003
2.553397e+003;2.548446e-003
2.555326e+003;2.600875e-003
2.557255e+003;2.385031e-003
2.559183e+003;2.449403e-003
2.561112e+003;2.773042e-003
2.563040e+003;2.733628e-003
2.564969e+003;2.535514e-003
2.566897e+003;2.851713e-003
2.568826e+003;3.160164e-003
2.570754e+003;3.062684e-003
2.572683e+003;3.288648e-003
2.574612e+003;3.622635e-003
2.576540e+003;3.649398e-003
2.578469e+003;3.613781e-003
2.580397e+003;3.532466e-003
2.582326e+003;3.679037e-003
2.584254e+003;4.075197e-003
2.586183e+003;4.302558e-003
2.588111e+003;4.371231e-003
2.590040e+003;4.513566e-003
2.591969e+003;4.765175e-003
2.593897e+003;4.850407e-003
2.595826e+003;4.811139e-003
2.597754e+003;4.841193e-003
2.599683e+003;4.980631e-003
2.601611e+003;5.293283e-003
2.603540e+003;5.554372e-003
2.605468e+003;5.691455e-003
2.607397e+003;5.842484e-003
2.609325e+003;5.938944e-003
2.611254e+003;6.015168e-003
2.613183e+003;5.896757e-003
2.615111e+003;6.071041e-003
2.617040e+003;6.431220e-003
2.618968e+003;6.237160e-003
2.620897e+003;5.976063e-003
2.622825e+003;6.196961e-003
2.624754e+003;6.667624e-003
2.626682e+003;6.543015e-003
2.628611e+003;6.258875e-003
2.630540e+003;6.341778e-003
2.632468e+003;6.474603e-003
2.634396e+003;6.589874e-003
2.636325e+003;6.696561e-003
2.638254e+003;6.799405e-003
2.640182e+003;6.795063e-003
2.642111e+003;6.626880e-003
2.644039e+003;6.497776e-003
2.645968e+003;6.683405e-003
2.647896e+003;6.868036e-003
2.649825e+003;6.963715e-003
2.651753e+003;6.998565e-003
2.653682e+003;7.085986e-003
2.655611e+003;7.081305e-003
2.657539e+003;6.985803e-003
2.659468e+003;7.043182e-003
2.661396e+003;7.186564e-003
2.663325e+003;7.375622e-003
2.665253e+003;7.651321e-003
2.667182e+003;7.731994e-003
2.669110e+003;7.659078e-003
2.671039e+003;7.775473e-003
2.672968e+003;7.806913e-003
2.674896e+003;7.859880e-003
2.676825e+003;8.191258e-003
2.678753e+003;8.531437e-003
2.680682e+003;8.562527e-003
2.682610e+003;8.535594e-003
2.684539e+003;8.620217e-003
2.686467e+003;8.770340e-003
2.688396e+003;9.012250e-003
2.690324e+003;9.306864e-003
2.692253e+003;9.507786e-003
2.694182e+003;9.496340e-003
2.696110e+003;9.424617e-003
2.698039e+003;9.485164e-003
2.699967e+003;9.583521e-003
2.701896e+003;9.887233e-003
2.703824e+003;1.030403e-002
2.705753e+003;1.028896e-002
2.707681e+003;1.036595e-002
2.709610e+003;1.060611e-002
2.711539e+003;1.077455e-002
2.713467e+003;1.096225e-002
2.715396e+003;1.109388e-002
2.717324e+003;1.111788e-002
2.719253e+003;1.120532e-002
2.721181e+003;1.152514e-002
2.723110e+003;1.205796e-002
2.725038e+003;1.230188e-002
2.726967e+003;1.225689e-002
2.728896e+003;1.244094e-002
2.730824e+003;1.290040e-002
2.732752e+003;1.307314e-002
2.734681e+003;1.341594e-002
2.736610e+003;1.371749e-002
2.738538e+003;1.376017e-002
2.740467e+003;1.411255e-002
2.742395e+003;1.458094e-002
2.744324e+003;1.486290e-002
2.746252e+003;1.493055e-002
2.748181e+003;1.484205e-002
2.750109e+003;1.489575e-002
2.752038e+003;1.500257e-002
2.753967e+003;1.530173e-002
2.755895e+003;1.560827e-002
2.757824e+003;1.599281e-002
2.759752e+003;1.638058e-002
2.761681e+003;1.642586e-002
2.763609e+003;1.654109e-002
2.765538e+003;1.673330e-002
2.767466e+003;1.685897e-002
2.769395e+003;1.723287e-002
2.771323e+003;1.750434e-002
2.773252e+003;1.764221e-002
2.775181e+003;1.797769e-002
2.777109e+003;1.824541e-002
2.779038e+003;1.858841e-002
2.780966e+003;1.902195e-002
2.782895e+003;1.945554e-002
2.784823e+003;1.978223e-002
2.786752e+003;2.008990e-002
2.788680e+003;2.036254e-002
2.790609e+003;2.043279e-002
2.792538e+003;2.060380e-002
2.794466e+003;2.092110e-002
2.796395e+003;2.139624e-002
2.798323e+003;2.177821e-002
2.800252e+003;2.211571e-002
2.802180e+003;2.234392e-002
2.804109e+003;2.249241e-002
2.806037e+003;2.274041e-002
2.807966e+003;2.312629e-002
2.809895e+003;2.358594e-002
2.811823e+003;2.399012e-002
2.813751e+003;2.435633e-002
2.815680e+003;2.460220e-002
2.817609e+003;2.493496e-002
2.819537e+003;2.549279e-002
2.821466e+003;2.603526e-002
2.823394e+003;2.630180e-002
2.825323e+003;2.636549e-002
2.827251e+003;2.676888e-002
2.829180e+003;2.713226e-002
2.831108e+003;2.737982e-002
2.833037e+003;2.807082e-002
2.834966e+003;2.896863e-002
2.836894e+003;2.992466e-002
2.838823e+003;3.067217e-002
2.840751e+003;3.155069e-002
2.842680e+003;3.305806e-002
2.844608e+003;3.488800e-002
2.846537e+003;3.701700e-002
2.848465e+003;3.934938e-002
2.850394e+003;4.145579e-002
2.852323e+003;4.297020e-002
2.854251e+003;4.380484e-002
2.856180e+003;4.415162e-002
2.858108e+003;4.410244e-002
2.860037e+003;4.362386e-002
2.861965e+003;4.319460e-002
2.863894e+003;4.301637e-002
2.865822e+003;4.318977e-002
2.867751e+003;4.332894e-002
2.869679e+003;4.367948e-002
2.871608e+003;4.431627e-002
2.873536e+003;4.485520e-002
2.875465e+003;4.516546e-002
2.877394e+003;4.512160e-002
2.879322e+003;4.509392e-002
2.881251e+003;4.558578e-002
2.883179e+003;4.639523e-002
2.885108e+003;4.684532e-002
2.887036e+003;4.698725e-002
2.888965e+003;4.731005e-002
2.890893e+003;4.805555e-002
2.892822e+003;4.874546e-002
2.894750e+003;4.950205e-002
2.896679e+003;5.071596e-002
2.898608e+003;5.177527e-002
2.900536e+003;5.254781e-002
2.902465e+003;5.328195e-002
2.904393e+003;5.445807e-002
2.906322e+003;5.583825e-002
2.908250e+003;5.722577e-002
2.910179e+003;5.886256e-002
2.912107e+003;6.096115e-002
2.914036e+003;6.312063e-002
2.915965e+003;6.497865e-002
2.917893e+003;6.705828e-002
2.919822e+003;6.923589e-002
2.921750e+003;7.140682e-002
2.923679e+003;7.312431e-002
2.925607e+003;7.442746e-002
2.927536e+003;7.533330e-002
2.929464e+003;7.584549e-002
2.931393e+003;7.608313e-002
2.933322e+003;7.633373e-002
2.935250e+003;7.642151e-002
2.937178e+003;7.575140e-002
2.939107e+003;7.471909e-002
2.941036e+003;7.386299e-002
2.942964e+003;7.307660e-002
2.944893e+003;7.209716e-002
2.946821e+003;7.078983e-002
2.948750e+003;6.989745e-002
2.950678e+003;6.920208e-002
2.952607e+003;6.856722e-002
2.954535e+003;6.794228e-002
2.956464e+003;6.726493e-002
2.958393e+003;6.678016e-002
2.960321e+003;6.604301e-002
2.962250e+003;6.489184e-002
2.964178e+003;6.416123e-002
2.966107e+003;6.366830e-002
2.968035e+003;6.299148e-002
2.969964e+003;6.217181e-002
2.971892e+003;6.149355e-002
2.973821e+003;6.112898e-002
2.975750e+003;6.054999e-002
2.977678e+003;6.004508e-002
2.979607e+003;5.982215e-002
2.981535e+003;5.960697e-002
2.983464e+003;5.930570e-002
2.985392e+003;5.893777e-002
2.987321e+003;5.839167e-002
2.989249e+003;5.768775e-002
2.991178e+003;5.701731e-002
2.993106e+003;5.658091e-002
2.995035e+003;5.604425e-002
2.996964e+003;5.539347e-002
2.998892e+003;5.503813e-002
3.000821e+003;5.450885e-002
3.002749e+003;5.384723e-002
3.004678e+003;5.346940e-002
3.006606e+003;5.324592e-002
3.008535e+003;5.310136e-002
3.010463e+003;5.317857e-002
3.012392e+003;5.319693e-002
3.014321e+003;5.350373e-002
3.016249e+003;5.390714e-002
3.018177e+003;5.383261e-002
3.020106e+003;5.395936e-002
3.022035e+003;5.425101e-002
3.023963e+003;5.421114e-002
3.025892e+003;5.448421e-002
3.027820e+003;5.506841e-002
3.029749e+003;5.568231e-002
3.031677e+003;5.654064e-002
3.033606e+003;5.717482e-002
3.035534e+003;5.756202e-002
3.037463e+003;5.791156e-002
3.039392e+003;5.842760e-002
3.041320e+003;5.904400e-002
3.043249e+003;5.988478e-002
3.045177e+003;6.073157e-002
3.047106e+003;6.136778e-002
3.049034e+003;6.213978e-002
3.050963e+003;6.304396e-002
3.052891e+003;6.360780e-002
3.054820e+003;6.421500e-002
3.056749e+003;6.487788e-002
3.058677e+003;6.543956e-002
3.060606e+003;6.597597e-002
3.062534e+003;6.647041e-002
3.064463e+003;6.689553e-002
3.066391e+003;6.739725e-002
3.068320e+003;6.765109e-002
3.070248e+003;6.777633e-002
3.072177e+003;6.785678e-002
3.074105e+003;6.797402e-002
3.076034e+003;6.839281e-002
3.077963e+003;6.861569e-002
3.079891e+003;6.828798e-002
3.081820e+003;6.793012e-002
3.083748e+003;6.820028e-002
3.085677e+003;6.845142e-002
3.087605e+003;6.816032e-002
3.089534e+003;6.770465e-002
3.091462e+003;6.733193e-002
3.093391e+003;6.708330e-002
3.095320e+003;6.691106e-002
3.097248e+003;6.662772e-002
3.099177e+003;6.594265e-002
3.101105e+003;6.544160e-002
3.103034e+003;6.514535e-002
3.104962e+003;6.466872e-002
3.106891e+003;6.421320e-002
3.108819e+003;6.397486e-002
3.110748e+003;6.356768e-002
3.112677e+003;6.300703e-002
3.114605e+003;6.275182e-002
3.116533e+003;6.270428e-002
3.118462e+003;6.269046e-002
3.120391e+003;6.252803e-002
3.122319e+003;6.236448e-002
3.124248e+003;6.208278e-002
3.126176e+003;6.163412e-002
3.128105e+003;6.148060e-002
3.130033e+003;6.140167e-002
3.131962e+003;6.177169e-002
3.133890e+003;6.204046e-002
3.135819e+003;6.206026e-002
3.137748e+003;6.242985e-002
3.139676e+003;6.289477e-002
3.141605e+003;6.293602e-002
3.143533e+003;6.312404e-002
3.145462e+003;6.355927e-002
3.147390e+003;6.422000e-002
3.149319e+003;6.513777e-002
3.151247e+003;6.578852e-002
3.153176e+003;6.646585e-002
3.155104e+003;6.702875e-002
3.157033e+003;6.765632e-002
3.158962e+003;6.889265e-002
3.160890e+003;7.032278e-002
3.162819e+003;7.105449e-002
3.164747e+003;7.168299e-002
3.166676e+003;7.257090e-002
3.168604e+003;7.333171e-002
3.170533e+003;7.461666e-002
3.172461e+003;7.581066e-002
3.174390e+003;7.679128e-002
3.176319e+003;7.797462e-002
3.178247e+003;7.900779e-002
3.180176e+003;8.038738e-002
3.182104e+003;8.184925e-002
3.184033e+003;8.289322e-002
3.185961e+003;8.405408e-002
3.187890e+003;8.529975e-002
3.189818e+003;8.646832e-002
3.191747e+003;8.774690e-002
3.193676e+003;8.887345e-002
3.195604e+003;9.010943e-002
3.197532e+003;9.141706e-002
3.199461e+003;9.256574e-002
3.201390e+003;9.371134e-002
3.203318e+003;9.485688e-002
3.205247e+003;9.558684e-002
3.207175e+003;9.643451e-002
3.209104e+003;9.777319e-002
3.211032e+003;9.918590e-002
3.212961e+003;1.006058e-001
3.214889e+003;1.016466e-001
3.216818e+003;1.028050e-001
3.218747e+003;1.039722e-001
3.220675e+003;1.047657e-001
3.222604e+003;1.057018e-001
3.224532e+003;1.065662e-001
3.226461e+003;1.075860e-001
3.228389e+003;1.087714e-001
3.230318e+003;1.095933e-001
3.232246e+003;1.103636e-001
3.234175e+003;1.114016e-001
3.236104e+003;1.124769e-001
3.238032e+003;1.132650e-001
3.239961e+003;1.145306e-001
3.241889e+003;1.158395e-001
3.243818e+003;1.170330e-001
3.245746e+003;1.182445e-001
3.247675e+003;1.189494e-001
3.249603e+003;1.195943e-001
3.251532e+003;1.202459e-001
3.253460e+003;1.211526e-001
3.255389e+003;1.223775e-001
3.257318e+003;1.238037e-001
3.259246e+003;1.249270e-001
3.261175e+003;1.257369e-001
3.263103e+003;1.266407e-001
3.265032e+003;1.277861e-001
3.266960e+003;1.290996e-001
3.268889e+003;1.302058e-001
3.270817e+003;1.309559e-001
3.272746e+003;1.318460e-001
3.274675e+003;1.326747e-001
3.276603e+003;1.332630e-001
3.278531e+003;1.337860e-001
3.280460e+003;1.344297e-001
3.282389e+003;1.348738e-001
3.284317e+003;1.349120e-001
3.286246e+003;1.348433e-001
3.288174e+003;1.349513e-001
3.290103e+003;1.352637e-001
3.292031e+003;1.349080e-001
3.293960e+003;1.342600e-001
3.295888e+003;1.342439e-001
3.297817e+003;1.342041e-001
3.299746e+003;1.337286e-001
3.301674e+003;1.331060e-001
3.303603e+003;1.325231e-001
3.305531e+003;1.318829e-001
3.307460e+003;1.309201e-001
3.309388e+003;1.296253e-001
3.311317e+003;1.285123e-001
3.313245e+003;1.276051e-001
3.315174e+003;1.268572e-001
3.317103e+003;1.261484e-001
3.319031e+003;1.248694e-001
3.320960e+003;1.234636e-001
3.322888e+003;1.223173e-001
3.324817e+003;1.216201e-001
3.326745e+003;1.208357e-001
3.328674e+003;1.193355e-001
3.330602e+003;1.177915e-001
3.332531e+003;1.168737e-001
3.334459e+003;1.158933e-001
3.336388e+003;1.141977e-001
3.338317e+003;1.130616e-001
3.340245e+003;1.126264e-001
3.342174e+003;1.117130e-001
3.344102e+003;1.101707e-001
3.346031e+003;1.087222e-001
3.347959e+003;1.076582e-001
3.349888e+003;1.065691e-001
3.351816e+003;1.055368e-001
3.353745e+003;1.042784e-001
3.355674e+003;1.029351e-001
3.357602e+003;1.015340e-001
3.359531e+003;1.006166e-001
3.361459e+003;9.992951e-002
3.363388e+003;9.892896e-002
3.365316e+003;9.796873e-002
3.367245e+003;9.665156e-002
3.369173e+003;9.533948e-002
3.371102e+003;9.464781e-002
3.373031e+003;9.407131e-002
3.374959e+003;9.282686e-002
3.376887e+003;9.113717e-002
3.378816e+003;8.979774e-002
3.380745e+003;8.916467e-002
3.382673e+003;8.872923e-002
3.384602e+003;8.741044e-002
3.386530e+003;8.649570e-002
3.388459e+003;8.614796e-002
3.390387e+003;8.516662e-002
3.392316e+003;8.379449e-002
3.394244e+003;8.249494e-002
3.396173e+003;8.184873e-002
3.398102e+003;8.132482e-002
3.400030e+003;7.980215e-002
3.401959e+003;7.828825e-002
3.403887e+003;7.774835e-002
3.405816e+003;7.693084e-002
3.407744e+003;7.599802e-002
3.409673e+003;7.494698e-002
3.411601e+003;7.336258e-002
3.413530e+003;7.201447e-002
3.415458e+003;7.109613e-002
3.417387e+003;7.003887e-002
3.419316e+003;6.856137e-002
3.421244e+003;6.722597e-002
3.423173e+003;6.630178e-002
3.425101e+003;6.555854e-002
3.427030e+003;6.452630e-002
3.428958e+003;6.283744e-002
3.430887e+003;6.154669e-002
3.432815e+003;6.071686e-002
3.434744e+003;5.967417e-002
3.436673e+003;5.835313e-002
3.438601e+003;5.756796e-002
3.440530e+003;5.705298e-002
3.442458e+003;5.592510e-002
3.444387e+003;5.488827e-002
3.446315e+003;5.387165e-002
3.448244e+003;5.272679e-002
3.450172e+003;5.194489e-002
3.452101e+003;5.139755e-002
3.454030e+003;5.079398e-002
3.455958e+003;5.002689e-002
3.457886e+003;4.926275e-002
3.459815e+003;4.832119e-002
3.461744e+003;4.758895e-002
3.463672e+003;4.708632e-002
3.465601e+003;4.631100e-002
3.467529e+003;4.597093e-002
3.469458e+003;4.561901e-002
3.471386e+003;4.504742e-002
3.473315e+003;4.442798e-002
3.475243e+003;4.399620e-002
3.477172e+003;4.363244e-002
3.479101e+003;4.288827e-002
3.481029e+003;4.232402e-002
3.482958e+003;4.212547e-002
3.484886e+003;4.158777e-002
3.486815e+003;4.067102e-002
3.488743e+003;4.007744e-002
3.490672e+003;3.960009e-002
3.492600e+003;3.932421e-002
3.494529e+003;3.908157e-002
3.496458e+003;3.851178e-002
3.498386e+003;3.815467e-002
3.500315e+003;3.808113e-002
3.502243e+003;3.760488e-002
3.504172e+003;3.680838e-002
3.506100e+003;3.619305e-002
3.508029e+003;3.593663e-002
3.509957e+003;3.570879e-002
3.511886e+003;3.522030e-002
3.513814e+003;3.466419e-002
3.515743e+003;3.402085e-002
3.517672e+003;3.392164e-002
3.519600e+003;3.361483e-002
3.521529e+003;3.262968e-002
3.523457e+003;3.201356e-002
3.525386e+003;3.153170e-002
3.527314e+003;3.083993e-002
3.529243e+003;3.022209e-002
3.531171e+003;2.994979e-002
3.533100e+003;2.959480e-002
3.535029e+003;2.896367e-002
3.536957e+003;2.831029e-002
3.538885e+003;2.768031e-002
3.540814e+003;2.694674e-002
3.542743e+003;2.644968e-002
3.544671e+003;2.618815e-002
3.546600e+003;2.534285e-002
3.548528e+003;2.467409e-002
3.550457e+003;2.429584e-002
3.552385e+003;2.390857e-002
3.554314e+003;2.349003e-002
3.556242e+003;2.265408e-002
3.558171e+003;2.169157e-002
3.560100e+003;2.108364e-002
3.562028e+003;2.061485e-002
3.563957e+003;2.020763e-002
3.565885e+003;1.951993e-002
3.567814e+003;1.891451e-002
3.569742e+003;1.841664e-002
3.571671e+003;1.805630e-002
3.573599e+003;1.760857e-002
3.575528e+003;1.693476e-002
3.577457e+003;1.610606e-002
3.579385e+003;1.509794e-002
3.581314e+003;1.455034e-002
3.583242e+003;1.441201e-002
3.585171e+003;1.403369e-002
3.587099e+003;1.356681e-002
3.589028e+003;1.305354e-002
3.590956e+003;1.242839e-002
3.592885e+003;1.163165e-002
3.594813e+003;1.114701e-002
3.596742e+003;1.080420e-002
3.598671e+003;1.036847e-002
3.600599e+003;1.027587e-002
3.602528e+003;9.882149e-003
3.604456e+003;8.923662e-003
3.606385e+003;7.967758e-003
3.608313e+003;7.394664e-003
3.610242e+003;6.860361e-003
3.612170e+003;5.907035e-003
3.614099e+003;5.140567e-003
3.616028e+003;4.685320e-003
3.617956e+003;4.295631e-003
3.619885e+003;3.969820e-003
3.621813e+003;3.601486e-003
3.623742e+003;3.380302e-003
3.625670e+003;2.632476e-003
3.627599e+003;1.561129e-003
3.629527e+003;9.898802e-004
3.631456e+003;9.300073e-004
3.633385e+003;4.767622e-004
3.635313e+003;7.455799e-005
3.637241e+003;-6.615471e-004
3.639170e+003;-1.626053e-003
3.641099e+003;-1.786684e-003
3.643027e+003;-1.709924e-003
3.644956e+003;-1.824136e-003
3.646884e+003;-2.390755e-003
3.648813e+003;-2.997079e-003
3.650741e+003;-3.400847e-003
3.652670e+003;-3.886280e-003
3.654598e+003;-4.269997e-003
3.656527e+003;-4.649932e-003
3.658456e+003;-5.172150e-003
3.660384e+003;-5.678076e-003
3.662313e+003;-6.083151e-003
3.664241e+003;-6.519641e-003
3.666170e+003;-6.610306e-003
3.668098e+003;-6.591901e-003
3.670027e+003;-6.965866e-003
3.671955e+003;-7.204385e-003
3.673884e+003;-7.618295e-003
3.675813e+003;-8.265584e-003
3.677741e+003;-8.281806e-003
3.679669e+003;-8.330728e-003
3.681598e+003;-8.549818e-003
3.683527e+003;-8.608033e-003
3.685455e+003;-8.576068e-003
3.687384e+003;-8.517426e-003
3.689312e+003;-8.375972e-003
3.691241e+003;-8.586723e-003
3.693169e+003;-9.303181e-003
3.695098e+003;-9.470237e-003
3.697026e+003;-9.452309e-003
3.698955e+003;-9.467028e-003
3.700884e+003;-9.453768e-003
3.702812e+003;-9.639175e-003
3.704741e+003;-9.852617e-003
3.706669e+003;-1.031116e-002
3.708598e+003;-1.057517e-002
3.710526e+003;-1.052676e-002
3.712455e+003;-1.014782e-002
3.714383e+003;-9.696077e-003
3.716312e+003;-9.885298e-003
3.718240e+003;-1.023524e-002
3.720169e+003;-1.011377e-002
3.722098e+003;-1.014514e-002
3.724026e+003;-1.020754e-002
3.725955e+003;-1.030317e-002
3.727883e+003;-1.061423e-002
3.729812e+003;-1.106370e-002
3.731740e+003;-1.126395e-002
3.733669e+003;-1.088685e-002
3.735597e+003;-1.046557e-002
3.737526e+003;-1.084465e-002
3.739455e+003;-1.095888e-002
3.741383e+003;-1.071330e-002
3.743312e+003;-1.080836e-002
3.745240e+003;-1.104558e-002
3.747169e+003;-1.101060e-002
3.749097e+003;-1.077830e-002
3.751026e+003;-1.088637e-002
3.752954e+003;-1.107065e-002
3.754883e+003;-1.083379e-002
3.756812e+003;-1.093665e-002
3.758740e+003;-1.120894e-002
3.760668e+003;-1.116114e-002
3.762597e+003;-1.105902e-002
3.764526e+003;-1.104371e-002
3.766454e+003;-1.069865e-002
3.768383e+003;-1.070204e-002
3.770311e+003;-1.106945e-002
3.772240e+003;-1.114929e-002
3.774168e+003;-1.111864e-002
3.776097e+003;-1.124051e-002
3.778025e+003;-1.134311e-002
3.779954e+003;-1.146269e-002
3.781883e+003;-1.161134e-002
3.783811e+003;-1.153872e-002
3.785740e+003;-1.134466e-002
3.787668e+003;-1.132426e-002
3.789597e+003;-1.156066e-002
3.791525e+003;-1.166634e-002
3.793454e+003;-1.142790e-002
3.795382e+003;-1.147282e-002
3.797311e+003;-1.138578e-002
3.799240e+003;-1.121100e-002
3.801168e+003;-1.137484e-002
3.803097e+003;-1.131606e-002
3.805025e+003;-1.113324e-002
3.806954e+003;-1.108192e-002
3.808882e+003;-1.116741e-002
3.810811e+003;-1.144265e-002
3.812739e+003;-1.162689e-002
3.814668e+003;-1.161569e-002
3.816596e+003;-1.141599e-002
3.818525e+003;-1.107020e-002
3.820454e+003;-1.092847e-002
3.822382e+003;-1.115943e-002
3.824311e+003;-1.114461e-002
3.826239e+003;-1.075674e-002
3.828168e+003;-1.078467e-002
3.830096e+003;-1.084336e-002
3.832025e+003;-1.077355e-002
3.833953e+003;-1.087580e-002
3.835882e+003;-1.150771e-002
3.837811e+003;-1.182227e-002
3.839739e+003;-1.155143e-002
3.841667e+003;-1.140621e-002
3.843596e+003;-1.121494e-002
3.845525e+003;-1.113344e-002
3.847453e+003;-1.112384e-002
3.849382e+003;-1.098149e-002
3.851310e+003;-1.113608e-002
3.853239e+003;-1.166508e-002
3.855167e+003;-1.180892e-002
3.857096e+003;-1.161605e-002
3.859024e+003;-1.137287e-002
3.860953e+003;-1.120403e-002
3.862882e+003;-1.099994e-002
3.864810e+003;-1.112291e-002
3.866739e+003;-1.111932e-002
3.868667e+003;-1.092091e-002
3.870596e+003;-1.104109e-002
3.872524e+003;-1.092657e-002
3.874453e+003;-1.079410e-002
3.876381e+003;-1.060402e-002
3.878310e+003;-1.052405e-002
3.880239e+003;-1.054578e-002
3.882167e+003;-1.038289e-002
3.884096e+003;-1.018064e-002
3.886024e+003;-1.037318e-002
3.887953e+003;-1.058358e-002
3.889881e+003;-1.058316e-002
3.891810e+003;-1.065575e-002
3.893738e+003;-1.052133e-002
3.895667e+003;-1.042856e-002
3.897595e+003;-1.055170e-002
3.899524e+003;-1.036610e-002
3.901453e+003;-1.005097e-002
3.903381e+003;-1.003750e-002
3.905310e+003;-1.016789e-002
3.907238e+003;-1.059939e-002
3.909167e+003;-1.050393e-002
3.911095e+003;-1.029492e-002
3.913024e+003;-1.051046e-002
3.914952e+003;-1.083088e-002
3.916881e+003;-1.091480e-002
3.918810e+003;-1.025120e-002
3.920738e+003;-9.879080e-003
3.922667e+003;-1.009334e-002
3.924595e+003;-1.031164e-002
3.926524e+003;-1.049267e-002
3.928452e+003;-1.012542e-002
3.930381e+003;-9.658521e-003
3.932309e+003;-9.881218e-003
3.934238e+003;-1.008975e-002
3.936167e+003;-1.017527e-002
3.938095e+003;-1.018971e-002
3.940023e+003;-1.030220e-002
3.941952e+003;-1.035406e-002
3.943881e+003;-1.012976e-002
3.945809e+003;-9.986954e-003
3.947738e+003;-1.021751e-002
3.949666e+003;-1.033568e-002
3.951595e+003;-1.001687e-002
3.953523e+003;-9.713606e-003
3.955452e+003;-9.887825e-003
3.957380e+003;-1.043355e-002
3.959309e+003;-1.050807e-002
3.961238e+003;-1.007250e-002
3.963166e+003;-9.788220e-003
3.965095e+003;-9.759581e-003
3.967023e+003;-9.653822e-003
3.968952e+003;-9.872635e-003
3.970880e+003;-9.928049e-003
3.972809e+003;-9.611466e-003
3.974737e+003;-9.406464e-003
3.976666e+003;-9.782097e-003
3.978594e+003;-1.035979e-002
3.980523e+003;-1.014857e-002
3.982452e+003;-9.863242e-003
3.984380e+003;-9.898513e-003
3.986309e+003;-9.804935e-003
3.988237e+003;-9.639725e-003
3.990166e+003;-9.713606e-003
3.992094e+003;-9.830591e-003
3.994023e+003;-9.869558e-003
3.995951e+003;-1.013633e-002
3.997880e+003;-1.013093e-002
3.999809e+003;-1.037946e-002
4.001737e+003;0.000000e+000
