3.992094e+002;0.000000e+000
4.011380e+002;0.000000e+000
4.030665e+002;0.000000e+000
4.049951e+002;0.000000e+000
4.069236e+002;0.000000e+000
4.088522e+002;0.000000e+000
4.107807e+002;0.000000e+000
4.127093e+002;0.000000e+000
4.146378e+002;0.000000e+000
4.165664e+002;0.000000e+000
4.184949e+002;0.000000e+000
4.204235e+002;0.000000e+000
4.223520e+002;0.000000e+000
4.242806e+002;0.000000e+000
4.262091e+002;0.000000e+000
4.281377e+002;0.000000e+000
4.300662e+002;0.000000e+000
4.319948e+002;0.000000e+000
4.339233e+002;0.000000e+000
4.358519e+002;0.000000e+000
4.377804e+002;0.000000e+000
4.397090e+002;0.000000e+000
4.416375e+002;0.000000e+000
4.435660e+002;0.000000e+000
4.454946e+002;0.000000e+000
4.474232e+002;0.000000e+000
4.493517e+002;0.000000e+000
4.512802e+002;0.000000e+000
4.532088e+002;0.000000e+000
4.551373e+002;0.000000e+000
4.570659e+002;0.000000e+000
4.589944e+002;0.000000e+000
4.609230e+002;0.000000e+000
4.628515e+002;0.000000e+000
4.647801e+002;0.000000e+000
4.667086e+002;0.000000e+000
4.686372e+002;0.000000e+000
4.705657e+002;0.000000e+000
4.724943e+002;0.000000e+000
4.744228e+002;0.000000e+000
4.763513e+002;0.000000e+000
4.782799e+002;0.000000e+000
4.802085e+002;0.000000e+000
4.821370e+002;0.000000e+000
4.840656e+002;0.000000e+000
4.859941e+002;0.000000e+000
4.879226e+002;0.000000e+000
4.898512e+002;0.000000e+000
4.917798e+002;0.000000e+000
4.937083e+002;0.000000e+000
4.956368e+002;0.000000e+000
4.975654e+002;0.000000e+000
4.994939e+002;0.000000e+000
5.014225e+002;0.000000e+000
5.033510e+002;0.000000e+000
5.052796e+002;0.000000e+000
5.072081e+002;0.000000e+000
5.091367e+002;0.000000e+000
5.110652e+002;0.000000e+000
5.129938e+002;0.000000e+000
5.149223e+002;0.000000e+000
5.168509e+002;0.000000e+000
5.187794e+002;0.000000e+000
5.207079e+002;0.000000e+000
5.226365e+002;0.000000e+000
5.245651e+002;0.000000e+000
5.264936e+002;0.000000e+000
5.284222e+002;0.000000e+000
5.303507e+002;0.000000e+000
5.322792e+002;0.000000e+000
5.342078e+002;0.000000e+000
5.361364e+002;0.000000e+000
5.380649e+002;0.000000e+000
5.399935e+002;0.000000e+000
5.419220e+002;0.000000e+000
5.438505e+002;0.000000e+000
5.457791e+002;0.000000e+000
5.477076e+002;0.000000e+000
5.496362e+002;0.000000e+000
5.515648e+002;0.000000e+000
5.534933e+002;0.000000e+000
5.554218e+002;0.000000e+000
5.573504e+002;0.000000e+000
5.592789e+002;0.000000e+000
5.612075e+002;0.000000e+000
5.631360e+002;0.000000e+000
5.650646e+002;0.000000e+000
5.669931e+002;0.000000e+000
5.689217e+002;0.000000e+000
5.708502e+002;0.000000e+000
5.727787e+002;0.000000e+000
5.747073e+002;0.000000e+000
5.766359e+002;0.000000e+000
5.785644e+002;0.000000e+000
5.804930e+002;0.000000e+000
5.824215e+002;0.000000e+000
5.843500e+002;0.000000e+000
5.862786e+002;0.000000e+000
5.882072e+002;0.000000e+000
5.901357e+002;0.000000e+000
5.920643e+002;0.000000e+000
5.939928e+002;0.000000e+000
5.959213e+002;0.000000e+000
5.978499e+002;0.000000e+000
5.997784e+002;2.614924e-001
6.017070e+002;2.540219e-001
6.036355e+002;2.421092e-001
6.055641e+002;2.406627e-001
6.074926e+002;2.500754e-001
6.094211e+002;2.552023e-001
6.113497e+002;2.548236e-001
6.132783e+002;2.557611e-001
6.152068e+002;2.560510e-001
6.171354e+002;2.535440e-001
6.190639e+002;2.528352e-001
6.209924e+002;2.529881e-001
6.229210e+002;2.520409e-001
6.248495e+002;2.526943e-001
6.267781e+002;2.543046e-001
6.287067e+002;2.491406e-001
6.306352e+002;2.472618e-001
6.325637e+002;2.484140e-001
6.344923e+002;2.439259e-001
6.364208e+002;2.383246e-001
6.383494e+002;2.363225e-001
6.402780e+002;2.362191e-001
6.422065e+002;2.364382e-001
6.441350e+002;2.359920e-001
6.460636e+002;2.348914e-001
6.479921e+002;2.339861e-001
6.499207e+002;2.358172e-001
6.518492e+002;2.355138e-001
6.537778e+002;2.330008e-001
6.557063e+002;2.329151e-001
6.576349e+002;2.337898e-001
6.595634e+002;2.338737e-001
6.614919e+002;2.323630e-001
6.634205e+002;2.320535e-001
6.653491e+002;2.321116e-001
6.672776e+002;2.318663e-001
6.692062e+002;2.321197e-001
6.711347e+002;2.339096e-001
6.730632e+002;2.346333e-001
6.749918e+002;2.336124e-001
6.769203e+002;2.321557e-001
6.788489e+002;2.309253e-001
6.807775e+002;2.310291e-001
6.827060e+002;2.309943e-001
6.846345e+002;2.313845e-001
6.865631e+002;2.316497e-001
6.884916e+002;2.302167e-001
6.904202e+002;2.302831e-001
6.923488e+002;2.299906e-001
6.942773e+002;2.289216e-001
6.962058e+002;2.282501e-001
6.981344e+002;2.255261e-001
7.000629e+002;2.216671e-001
7.019915e+002;2.187307e-001
7.039200e+002;2.168688e-001
7.058486e+002;2.153275e-001
7.077771e+002;2.122545e-001
7.097057e+002;2.098668e-001
7.116342e+002;2.077759e-001
7.135627e+002;2.050772e-001
7.154913e+002;2.026634e-001
7.174199e+002;2.013108e-001
7.193484e+002;1.996003e-001
7.212770e+002;1.955957e-001
7.232055e+002;1.912980e-001
7.251340e+002;1.889255e-001
7.270626e+002;1.865360e-001
7.289911e+002;1.827808e-001
7.309197e+002;1.798347e-001
7.328483e+002;1.771558e-001
7.347768e+002;1.741024e-001
7.367053e+002;1.713973e-001
7.386339e+002;1.682517e-001
7.405624e+002;1.649785e-001
7.424910e+002;1.622994e-001
7.444196e+002;1.597720e-001
7.463481e+002;1.572055e-001
7.482766e+002;1.547385e-001
7.502052e+002;1.521261e-001
7.521337e+002;1.493432e-001
7.540623e+002;1.474944e-001
7.559908e+002;1.468734e-001
7.579194e+002;1.458317e-001
7.598479e+002;1.439666e-001
7.617765e+002;1.424421e-001
7.637050e+002;1.412010e-001
7.656335e+002;1.397402e-001
7.675621e+002;1.385924e-001
7.694907e+002;1.374540e-001
7.714192e+002;1.357358e-001
7.733478e+002;1.342522e-001
7.752763e+002;1.326720e-001
7.772048e+002;1.312823e-001
7.791334e+002;1.294564e-001
7.810620e+002;1.276089e-001
7.829905e+002;1.263955e-001
7.849191e+002;1.253545e-001
7.868476e+002;1.236753e-001
7.887761e+002;1.219737e-001
7.907047e+002;1.210007e-001
7.926332e+002;1.199544e-001
7.945618e+002;1.192620e-001
7.964903e+002;1.190384e-001
7.984189e+002;1.182538e-001
8.003474e+002;1.172656e-001
8.022759e+002;1.171386e-001
8.042045e+002;1.171616e-001
8.061331e+002;1.174217e-001
8.080616e+002;1.180027e-001
8.099902e+002;1.184757e-001
8.119187e+002;1.184415e-001
8.138472e+002;1.179803e-001
8.157758e+002;1.177250e-001
8.177043e+002;1.175255e-001
8.196329e+002;1.180033e-001
8.215615e+002;1.186817e-001
8.234900e+002;1.184148e-001
8.254185e+002;1.181297e-001
8.273471e+002;1.179179e-001
8.292756e+002;1.181905e-001
8.312042e+002;1.177798e-001
8.331328e+002;1.167997e-001
8.350613e+002;1.151092e-001
8.369898e+002;1.131606e-001
8.389184e+002;1.115833e-001
8.408469e+002;1.107565e-001
8.427755e+002;1.102986e-001
8.447040e+002;1.098777e-001
8.466326e+002;1.103275e-001
8.485611e+002;1.111444e-001
8.504897e+002;1.117465e-001
8.524182e+002;1.118063e-001
8.543467e+002;1.106465e-001
8.562753e+002;1.084959e-001
8.582039e+002;1.065514e-001
8.601324e+002;1.051573e-001
8.620610e+002;1.039179e-001
8.639895e+002;1.025887e-001
8.659180e+002;1.015881e-001
8.678466e+002;1.013422e-001
8.697751e+002;1.015523e-001
8.717037e+002;1.015620e-001
8.736323e+002;1.017103e-001
8.755608e+002;1.017275e-001
8.774893e+002;1.017251e-001
8.794179e+002;1.016197e-001
8.813464e+002;1.013606e-001
8.832750e+002;1.014286e-001
8.852036e+002;1.011946e-001
8.871321e+002;1.005097e-001
8.890606e+002;1.001028e-001
8.909892e+002;1.004874e-001
8.929177e+002;1.010124e-001
8.948463e+002;1.009638e-001
8.967748e+002;1.006263e-001
8.987034e+002;1.001522e-001
9.006319e+002;9.991458e-002
9.025605e+002;9.980015e-002
9.044890e+002;9.968034e-002
9.064175e+002;9.990770e-002
9.083461e+002;9.986270e-002
9.102747e+002;1.002442e-001
9.122032e+002;1.014606e-001
9.141318e+002;1.027318e-001
9.160603e+002;1.037512e-001
9.179888e+002;1.047686e-001
9.199174e+002;1.060405e-001
9.218459e+002;1.074980e-001
9.237745e+002;1.089944e-001
9.257031e+002;1.097827e-001
9.276316e+002;1.101384e-001
9.295601e+002;1.105272e-001
9.314887e+002;1.102866e-001
9.334172e+002;1.101375e-001
9.353458e+002;1.105926e-001
9.372744e+002;1.108402e-001
9.392029e+002;1.108312e-001
9.411314e+002;1.112443e-001
9.430600e+002;1.118081e-001
9.449885e+002;1.123318e-001
9.469171e+002;1.124884e-001
9.488456e+002;1.129157e-001
9.507742e+002;1.136266e-001
9.527027e+002;1.144513e-001
9.546313e+002;1.151672e-001
9.565598e+002;1.160205e-001
9.584883e+002;1.170400e-001
9.604169e+002;1.182599e-001
9.623455e+002;1.198224e-001
9.642740e+002;1.214793e-001
9.662026e+002;1.232782e-001
9.681311e+002;1.252626e-001
9.700596e+002;1.272823e-001
9.719882e+002;1.292761e-001
9.739167e+002;1.306331e-001
9.758453e+002;1.309972e-001
9.777739e+002;1.306443e-001
9.797024e+002;1.299960e-001
9.816309e+002;1.291753e-001
9.835595e+002;1.288737e-001
9.854880e+002;1.295397e-001
9.874166e+002;1.311484e-001
9.893452e+002;1.332943e-001
9.912737e+002;1.359103e-001
9.932022e+002;1.381012e-001
9.951307e+002;1.391158e-001
9.970593e+002;1.395843e-001
9.989879e+002;1.398343e-001
1.000916e+003;1.395127e-001
1.002845e+003;1.387944e-001
1.004773e+003;1.381451e-001
1.006702e+003;1.378231e-001
1.008631e+003;1.374675e-001
1.010559e+003;1.368596e-001
1.012488e+003;1.360750e-001
1.014416e+003;1.353945e-001
1.016345e+003;1.346416e-001
1.018273e+003;1.342369e-001
1.020202e+003;1.345812e-001
1.022130e+003;1.354812e-001
1.024059e+003;1.370356e-001
1.025988e+003;1.397059e-001
1.027916e+003;1.426415e-001
1.029845e+003;1.449595e-001
1.031773e+003;1.469207e-001
1.033702e+003;1.491799e-001
1.035630e+003;1.509569e-001
1.037559e+003;1.526359e-001
1.039487e+003;1.542906e-001
1.041416e+003;1.553072e-001
1.043344e+003;1.557351e-001
1.045273e+003;1.562930e-001
1.047202e+003;1.565917e-001
1.049130e+003;1.566650e-001
1.051059e+003;1.572784e-001
1.052987e+003;1.585965e-001
1.054916e+003;1.604085e-001
1.056844e+003;1.624584e-001
1.058773e+003;1.643254e-001
1.060701e+003;1.657151e-001
1.062630e+003;1.666576e-001
1.064558e+003;1.676723e-001
1.066487e+003;1.680306e-001
1.068416e+003;1.677819e-001
1.070344e+003;1.673706e-001
1.072273e+003;1.658882e-001
1.074201e+003;1.640456e-001
1.076130e+003;1.620163e-001
1.078058e+003;1.590920e-001
1.079987e+003;1.561343e-001
1.081915e+003;1.536446e-001
1.083844e+003;1.511471e-001
1.085773e+003;1.483353e-001
1.087701e+003;1.455482e-001
1.089630e+003;1.439645e-001
1.091558e+003;1.426386e-001
1.093487e+003;1.418348e-001
1.095415e+003;1.415787e-001
1.097344e+003;1.416368e-001
1.099272e+003;1.419783e-001
1.101201e+003;1.422594e-001
1.103129e+003;1.421636e-001
1.105058e+003;1.417807e-001
1.106987e+003;1.413683e-001
1.108915e+003;1.406055e-001
1.110844e+003;1.392501e-001
1.112772e+003;1.380184e-001
1.114701e+003;1.374509e-001
1.116629e+003;1.370895e-001
1.118558e+003;1.368447e-001
1.120486e+003;1.368791e-001
1.122415e+003;1.370932e-001
1.124344e+003;1.373026e-001
1.126272e+003;1.370691e-001
1.128201e+003;1.368923e-001
1.130129e+003;1.372039e-001
1.132058e+003;1.379586e-001
1.133986e+003;1.389655e-001
1.135915e+003;1.400839e-001
1.137843e+003;1.414324e-001
1.139772e+003;1.428516e-001
1.141700e+003;1.440763e-001
1.143629e+003;1.455779e-001
1.145557e+003;1.475401e-001
1.147486e+003;1.490498e-001
1.149415e+003;1.503252e-001
1.151343e+003;1.518216e-001
1.153272e+003;1.534165e-001
1.155200e+003;1.549057e-001
1.157129e+003;1.563547e-001
1.159057e+003;1.576085e-001
1.160986e+003;1.584383e-001
1.162914e+003;1.592484e-001
1.164843e+003;1.599070e-001
1.166771e+003;1.606475e-001
1.168700e+003;1.615802e-001
1.170629e+003;1.621212e-001
1.172557e+003;1.612861e-001
1.174486e+003;1.598492e-001
1.176414e+003;1.580727e-001
1.178343e+003;1.560281e-001
1.180271e+003;1.546129e-001
1.182200e+003;1.542200e-001
1.184128e+003;1.544613e-001
1.186057e+003;1.550207e-001
1.187986e+003;1.559155e-001
1.189914e+003;1.571195e-001
1.191843e+003;1.588564e-001
1.193771e+003;1.609306e-001
1.195700e+003;1.632358e-001
1.197628e+003;1.662690e-001
1.199557e+003;1.698094e-001
1.201485e+003;1.738448e-001
1.203414e+003;1.784484e-001
1.205343e+003;1.826732e-001
1.207271e+003;1.871059e-001
1.209200e+003;1.918517e-001
1.211128e+003;1.961786e-001
1.213057e+003;2.002917e-001
1.214985e+003;2.044195e-001
1.216914e+003;2.085630e-001
1.218842e+003;2.122537e-001
1.220771e+003;2.151919e-001
1.222699e+003;2.174671e-001
1.224628e+003;2.199897e-001
1.226557e+003;2.222236e-001
1.228485e+003;2.231598e-001
1.230414e+003;2.232149e-001
1.232342e+003;2.221578e-001
1.234271e+003;2.202048e-001
1.236199e+003;2.181846e-001
1.238128e+003;2.157806e-001
1.240056e+003;2.132896e-001
1.241985e+003;2.112388e-001
1.243913e+003;2.095079e-001
1.245842e+003;2.077827e-001
1.247771e+003;2.065844e-001
1.249699e+003;2.055867e-001
1.251628e+003;2.049473e-001
1.253556e+003;2.048742e-001
1.255485e+003;2.048534e-001
1.257413e+003;2.047263e-001
1.259342e+003;2.041580e-001
1.261270e+003;2.029858e-001
1.263199e+003;2.006935e-001
1.265127e+003;1.973792e-001
1.267056e+003;1.939559e-001
1.268985e+003;1.904456e-001
1.270913e+003;1.862184e-001
1.272842e+003;1.822491e-001
1.274770e+003;1.788088e-001
1.276699e+003;1.757880e-001
1.278627e+003;1.733769e-001
1.280556e+003;1.713887e-001
1.282484e+003;1.697263e-001
1.284413e+003;1.683024e-001
1.286342e+003;1.672126e-001
1.288270e+003;1.665587e-001
1.290199e+003;1.658518e-001
1.292127e+003;1.652523e-001
1.294056e+003;1.653516e-001
1.295984e+003;1.655457e-001
1.297913e+003;1.655031e-001
1.299841e+003;1.655525e-001
1.301770e+003;1.658169e-001
1.303698e+003;1.657397e-001
1.305627e+003;1.651996e-001
1.307556e+003;1.648670e-001
1.309484e+003;1.647098e-001
1.311413e+003;1.642326e-001
1.313341e+003;1.637391e-001
1.315270e+003;1.634260e-001
1.317198e+003;1.634459e-001
1.319127e+003;1.636399e-001
1.321055e+003;1.641888e-001
1.322984e+003;1.650788e-001
1.324912e+003;1.658340e-001
1.326841e+003;1.666677e-001
1.328770e+003;1.674636e-001
1.330698e+003;1.679042e-001
1.332627e+003;1.682556e-001
1.334555e+003;1.682944e-001
1.336484e+003;1.680208e-001
1.338412e+003;1.679145e-001
1.340341e+003;1.678504e-001
1.342269e+003;1.676287e-001
1.344198e+003;1.675323e-001
1.346126e+003;1.675504e-001
1.348055e+003;1.676821e-001
1.349984e+003;1.678268e-001
1.351912e+003;1.678066e-001
1.353841e+003;1.681226e-001
1.355769e+003;1.692811e-001
1.357698e+003;1.709736e-001
1.359626e+003;1.727501e-001
1.361555e+003;1.750620e-001
1.363483e+003;1.780828e-001
1.365412e+003;1.809799e-001
1.367341e+003;1.827237e-001
1.369269e+003;1.830448e-001
1.371198e+003;1.825890e-001
1.373126e+003;1.820174e-001
1.375055e+003;1.814052e-001
1.376983e+003;1.811849e-001
1.378912e+003;1.811224e-001
1.380840e+003;1.812539e-001
1.382769e+003;1.815757e-001
1.384698e+003;1.818878e-001
1.386626e+003;1.821820e-001
1.388555e+003;1.826699e-001
1.390483e+003;1.833273e-001
1.392412e+003;1.834547e-001
1.394340e+003;1.836617e-001
1.396269e+003;1.845179e-001
1.398197e+003;1.855288e-001
1.400126e+003;1.864963e-001
1.402054e+003;1.874859e-001
1.403983e+003;1.886761e-001
1.405911e+003;1.897686e-001
1.407840e+003;1.904931e-001
1.409769e+003;1.909294e-001
1.411697e+003;1.910314e-001
1.413626e+003;1.909322e-001
1.415554e+003;1.911109e-001
1.417483e+003;1.910055e-001
1.419411e+003;1.911457e-001
1.421340e+003;1.926272e-001
1.423268e+003;1.945852e-001
1.425197e+003;1.973202e-001
1.427125e+003;2.010141e-001
1.429054e+003;2.055132e-001
1.430983e+003;2.111366e-001
1.432911e+003;2.176240e-001
1.434840e+003;2.237134e-001
1.436768e+003;2.283281e-001
1.438697e+003;2.320015e-001
1.440625e+003;2.343810e-001
1.442554e+003;2.355984e-001
1.444482e+003;2.357598e-001
1.446411e+003;2.342631e-001
1.448340e+003;2.313077e-001
1.450268e+003;2.272675e-001
1.452197e+003;2.219055e-001
1.454125e+003;2.157765e-001
1.456054e+003;2.096447e-001
1.457982e+003;2.054864e-001
1.459911e+003;2.031583e-001
1.461839e+003;2.011542e-001
1.463768e+003;1.995626e-001
1.465697e+003;1.990762e-001
1.467625e+003;1.994972e-001
1.469554e+003;2.000534e-001
1.471482e+003;2.007362e-001
1.473411e+003;2.023856e-001
1.475339e+003;2.050627e-001
1.477268e+003;2.082042e-001
1.479196e+003;2.120586e-001
1.481125e+003;2.165322e-001
1.483053e+003;2.220211e-001
1.484982e+003;2.285372e-001
1.486911e+003;2.355172e-001
1.488839e+003;2.432279e-001
1.490768e+003;2.518878e-001
1.492696e+003;2.611766e-001
1.494625e+003;2.703023e-001
1.496553e+003;2.792116e-001
1.498482e+003;2.882836e-001
1.500410e+003;2.970872e-001
1.502339e+003;3.054157e-001
1.504267e+003;3.128466e-001
1.506196e+003;3.198573e-001
1.508125e+003;3.273355e-001
1.510053e+003;3.339209e-001
1.511982e+003;3.384261e-001
1.513910e+003;3.403384e-001
1.515839e+003;3.390554e-001
1.517767e+003;3.344046e-001
1.519696e+003;3.278359e-001
1.521624e+003;3.209839e-001
1.523553e+003;3.150553e-001
1.525481e+003;3.097240e-001
1.527410e+003;3.048070e-001
1.529339e+003;2.999406e-001
1.531267e+003;2.948183e-001
1.533196e+003;2.889377e-001
1.535124e+003;2.830434e-001
1.537053e+003;2.769791e-001
1.538981e+003;2.705437e-001
1.540910e+003;2.654345e-001
1.542838e+003;2.611040e-001
1.544767e+003;2.562450e-001
1.546695e+003;2.511985e-001
1.548624e+003;2.462477e-001
1.550553e+003;2.414252e-001
1.552481e+003;2.366507e-001
1.554410e+003;2.315097e-001
1.556338e+003;2.260198e-001
1.558267e+003;2.198938e-001
1.560195e+003;2.147215e-001
1.562124e+003;2.105437e-001
1.564052e+003;2.058258e-001
1.565981e+003;2.008228e-001
1.567910e+003;1.962021e-001
1.569838e+003;1.922342e-001
1.571767e+003;1.891664e-001
1.573695e+003;1.863238e-001
1.575624e+003;1.837921e-001
1.577552e+003;1.831934e-001
1.579481e+003;1.838446e-001
1.581409e+003;1.844151e-001
1.583338e+003;1.855728e-001
1.585266e+003;1.880140e-001
1.587195e+003;1.917917e-001
1.589124e+003;1.964399e-001
1.591052e+003;2.020007e-001
1.592981e+003;2.082727e-001
1.594909e+003;2.152632e-001
1.596838e+003;2.224281e-001
1.598766e+003;2.302431e-001
1.600695e+003;2.399131e-001
1.602623e+003;2.510062e-001
1.604552e+003;2.631372e-001
1.606480e+003;2.761005e-001
1.608409e+003;2.895683e-001
1.610338e+003;3.028326e-001
1.612266e+003;3.156541e-001
1.614195e+003;3.268559e-001
1.616123e+003;3.362459e-001
1.618052e+003;3.439256e-001
1.619980e+003;3.488057e-001
1.621909e+003;3.502735e-001
1.623837e+003;3.488524e-001
1.625766e+003;3.449295e-001
1.627694e+003;3.380990e-001
1.629623e+003;3.297628e-001
1.631552e+003;3.206126e-001
1.633480e+003;3.106363e-001
1.635409e+003;3.004812e-001
1.637337e+003;2.915411e-001
1.639266e+003;2.833535e-001
1.641194e+003;2.753788e-001
1.643123e+003;2.683052e-001
1.645051e+003;2.610511e-001
1.646980e+003;2.540053e-001
1.648909e+003;2.483074e-001
1.650837e+003;2.425041e-001
1.652766e+003;2.355794e-001
1.654694e+003;2.297303e-001
1.656623e+003;2.243647e-001
1.658551e+003;2.180983e-001
1.660480e+003;2.116317e-001
1.662408e+003;2.055012e-001
1.664337e+003;2.001369e-001
1.666266e+003;1.948708e-001
1.668194e+003;1.892989e-001
1.670123e+003;1.842330e-001
1.672051e+003;1.798134e-001
1.673980e+003;1.752470e-001
1.675908e+003;1.707557e-001
1.677837e+003;1.666752e-001
1.679765e+003;1.625140e-001
1.681694e+003;1.581889e-001
1.683622e+003;1.538245e-001
1.685551e+003;1.506289e-001
1.687479e+003;1.483879e-001
1.689408e+003;1.462723e-001
1.691337e+003;1.447570e-001
1.693265e+003;1.435149e-001
1.695194e+003;1.425168e-001
1.697122e+003;1.424130e-001
1.699051e+003;1.405283e-001
1.700979e+003;1.350189e-001
1.702908e+003;1.263108e-001
1.704836e+003;1.151102e-001
1.706765e+003;1.043115e-001
1.708693e+003;9.563899e-002
1.710622e+003;8.899061e-002
1.712551e+003;8.375052e-002
1.714479e+003;7.944290e-002
1.716408e+003;7.586878e-002
1.718336e+003;7.376517e-002
1.720265e+003;7.244044e-002
1.722193e+003;7.109203e-002
1.724122e+003;6.974348e-002
1.726050e+003;6.865248e-002
1.727979e+003;6.757610e-002
1.729908e+003;6.638265e-002
1.731836e+003;6.521546e-002
1.733765e+003;6.390707e-002
1.735693e+003;6.324636e-002
1.737622e+003;6.278089e-002
1.739550e+003;6.187278e-002
1.741479e+003;6.127734e-002
1.743407e+003;6.073279e-002
1.745336e+003;6.027715e-002
1.747265e+003;5.973849e-002
1.749193e+003;5.928982e-002
1.751122e+003;5.904412e-002
1.753050e+003;5.916614e-002
1.754979e+003;5.911408e-002
1.756907e+003;5.895732e-002
1.758836e+003;5.899348e-002
1.760764e+003;5.879893e-002
1.762693e+003;5.854983e-002
1.764621e+003;5.863682e-002
1.766550e+003;5.857140e-002
1.768479e+003;5.828128e-002
1.770407e+003;5.784849e-002
1.772336e+003;5.727971e-002
1.774264e+003;5.735057e-002
1.776193e+003;5.770228e-002
1.778121e+003;5.775746e-002
1.780050e+003;5.757243e-002
1.781978e+003;5.742098e-002
1.783907e+003;5.729884e-002
1.785835e+003;5.726962e-002
1.787764e+003;5.730410e-002
1.789693e+003;5.678176e-002
1.791621e+003;5.620465e-002
1.793550e+003;5.600283e-002
1.795478e+003;5.601206e-002
1.797407e+003;5.604312e-002
1.799335e+003;5.597685e-002
1.801264e+003;5.569320e-002
1.803192e+003;5.551906e-002
1.805121e+003;5.546142e-002
1.807049e+003;5.539731e-002
1.808978e+003;5.515252e-002
1.810907e+003;5.478140e-002
1.812835e+003;5.455262e-002
1.814764e+003;5.463295e-002
1.816692e+003;5.464125e-002
1.818621e+003;5.451280e-002
1.820549e+003;5.421200e-002
1.822478e+003;5.395268e-002
1.824406e+003;5.363271e-002
1.826335e+003;5.342881e-002
1.828264e+003;5.322307e-002
1.830192e+003;5.297714e-002
1.832121e+003;5.286302e-002
1.834049e+003;5.281815e-002
1.835978e+003;5.255051e-002
1.837906e+003;5.241508e-002
1.839835e+003;5.257627e-002
1.841763e+003;5.243343e-002
1.843692e+003;5.175903e-002
1.845620e+003;5.158881e-002
1.847549e+003;5.180681e-002
1.849478e+003;5.184650e-002
1.851406e+003;5.165281e-002
1.853335e+003;5.159911e-002
1.855263e+003;5.160553e-002
1.857192e+003;5.144417e-002
1.859120e+003;5.134772e-002
1.861049e+003;5.120827e-002
1.862977e+003;5.112552e-002
1.864906e+003;5.117520e-002
1.866834e+003;5.122039e-002
1.868763e+003;5.117662e-002
1.870692e+003;5.113797e-002
1.872620e+003;5.120417e-002
1.874549e+003;5.134388e-002
1.876477e+003;5.135880e-002
1.878406e+003;5.145782e-002
1.880334e+003;5.155098e-002
1.882263e+003;5.134936e-002
1.884191e+003;5.116551e-002
1.886120e+003;5.117368e-002
1.888048e+003;5.116726e-002
1.889977e+003;5.104963e-002
1.891906e+003;5.107937e-002
1.893834e+003;5.108619e-002
1.895763e+003;5.098226e-002
1.897691e+003;5.081369e-002
1.899620e+003;5.087559e-002
1.901548e+003;5.094004e-002
1.903477e+003;5.087708e-002
1.905405e+003;5.072233e-002
1.907334e+003;5.059715e-002
1.909262e+003;5.065296e-002
1.911191e+003;5.077555e-002
1.913120e+003;5.056752e-002
1.915048e+003;5.038132e-002
1.916977e+003;5.037123e-002
1.918905e+003;5.048492e-002
1.920834e+003;5.053621e-002
1.922762e+003;5.054849e-002
1.924691e+003;5.049121e-002
1.926619e+003;5.040316e-002
1.928548e+003;5.037082e-002
1.930477e+003;5.037142e-002
1.932405e+003;5.042054e-002
1.934334e+003;5.026055e-002
1.936262e+003;5.008055e-002
1.938191e+003;5.021391e-002
1.940119e+003;5.041588e-002
1.942048e+003;5.052672e-002
1.943976e+003;5.040249e-002
1.945905e+003;5.016195e-002
1.947833e+003;5.027093e-002
1.949762e+003;5.061759e-002
1.951691e+003;5.060359e-002
1.953619e+003;5.053896e-002
1.955548e+003;5.066197e-002
1.957476e+003;5.094831e-002
1.959405e+003;5.111076e-002
1.961333e+003;5.110148e-002
1.963262e+003;5.101192e-002
1.965190e+003;5.099795e-002
1.967119e+003;5.084617e-002
1.969047e+003;5.070412e-002
1.970976e+003;5.084293e-002
1.972905e+003;5.096531e-002
1.974833e+003;5.092175e-002
1.976762e+003;5.089046e-002
1.978690e+003;5.092827e-002
1.980619e+003;5.089537e-002
1.982547e+003;5.097738e-002
1.984476e+003;5.098360e-002
1.986404e+003;5.096601e-002
1.988333e+003;5.091925e-002
1.990261e+003;5.073775e-002
1.992190e+003;5.065229e-002
1.994119e+003;5.062585e-002
1.996047e+003;5.053699e-002
1.997976e+003;5.058367e-002
1.999904e+003;5.080199e-002
2.001833e+003;5.068163e-002
2.003761e+003;5.037570e-002
2.005690e+003;5.035587e-002
2.007618e+003;5.048552e-002
2.009547e+003;5.063121e-002
2.011476e+003;5.082553e-002
2.013404e+003;5.064212e-002
2.015333e+003;5.057742e-002
2.017261e+003;5.074355e-002
2.019190e+003;5.079030e-002
2.021118e+003;5.071209e-002
2.023047e+003;5.069734e-002
2.024975e+003;5.077979e-002
2.026904e+003;5.085067e-002
2.028833e+003;5.091132e-002
2.030761e+003;5.088412e-002
2.032690e+003;5.074400e-002
2.034618e+003;5.083726e-002
2.036547e+003;5.102556e-002
2.038475e+003;5.104948e-002
2.040404e+003;5.095860e-002
2.042332e+003;5.098200e-002
2.044261e+003;5.110747e-002
2.046189e+003;5.104106e-002
2.048118e+003;5.091266e-002
2.050047e+003;5.102824e-002
2.051975e+003;5.127396e-002
2.053904e+003;5.142377e-002
2.055832e+003;5.141762e-002
2.057761e+003;5.137677e-002
2.059689e+003;5.147479e-002
2.061618e+003;5.145409e-002
2.063546e+003;5.146633e-002
2.065475e+003;5.155926e-002
2.067404e+003;5.149341e-002
2.069332e+003;5.155997e-002
2.071260e+003;5.181193e-002
2.073189e+003;5.189362e-002
2.075118e+003;5.164971e-002
2.077046e+003;5.162004e-002
2.078975e+003;5.184041e-002
2.080903e+003;5.187375e-002
2.082832e+003;5.161575e-002
2.084760e+003;5.155896e-002
2.086689e+003;5.172865e-002
2.088617e+003;5.178453e-002
2.090546e+003;5.182163e-002
2.092475e+003;5.200461e-002
2.094403e+003;5.193451e-002
2.096332e+003;5.180521e-002
2.098260e+003;5.172622e-002
2.100189e+003;5.173003e-002
2.102117e+003;5.194224e-002
2.104046e+003;5.223159e-002
2.105974e+003;5.208742e-002
2.107903e+003;5.186434e-002
2.109832e+003;5.174690e-002
2.111760e+003;5.179692e-002
2.113688e+003;5.190120e-002
2.115617e+003;5.177993e-002
2.117546e+003;5.147528e-002
2.119474e+003;5.117942e-002
2.121403e+003;5.113696e-002
2.123331e+003;5.139964e-002
2.125260e+003;5.152908e-002
2.127188e+003;5.133400e-002
2.129117e+003;5.132964e-002
2.131045e+003;5.153463e-002
2.132974e+003;5.167460e-002
2.134903e+003;5.165986e-002
2.136831e+003;5.154325e-002
2.138760e+003;5.138024e-002
2.140688e+003;5.130860e-002
2.142617e+003;5.122628e-002
2.144545e+003;5.121867e-002
2.146474e+003;5.124906e-002
2.148402e+003;5.137226e-002
2.150331e+003;5.151789e-002
2.152260e+003;5.139232e-002
2.154188e+003;5.122948e-002
2.156117e+003;5.128254e-002
2.158045e+003;5.105813e-002
2.159974e+003;5.087142e-002
2.161902e+003;5.103260e-002
2.163831e+003;5.131558e-002
2.165759e+003;5.139997e-002
2.167688e+003;5.117606e-002
2.169616e+003;5.105384e-002
2.171545e+003;5.103163e-002
2.173474e+003;5.091121e-002
2.175402e+003;5.077394e-002
2.177331e+003;5.097257e-002
2.179259e+003;5.115556e-002
2.181188e+003;5.103823e-002
2.183116e+003;5.097671e-002
2.185045e+003;5.096445e-002
2.186973e+003;5.075257e-002
2.188902e+003;5.061476e-002
2.190831e+003;5.064901e-002
2.192759e+003;5.062034e-002
2.194688e+003;5.074147e-002
2.196616e+003;5.086360e-002
2.198545e+003;5.089582e-002
2.200473e+003;5.090357e-002
2.202402e+003;5.076396e-002
2.204330e+003;5.064972e-002
2.206259e+003;5.053119e-002
2.208188e+003;5.053532e-002
2.210116e+003;5.062339e-002
2.212044e+003;5.065783e-002
2.213973e+003;5.073987e-002
2.215902e+003;5.084233e-002
2.217830e+003;5.083901e-002
2.219759e+003;5.086244e-002
2.221687e+003;5.077622e-002
2.223616e+003;5.057299e-002
2.225544e+003;5.049925e-002
2.227473e+003;5.060322e-002
2.229401e+003;5.055233e-002
2.231330e+003;5.049166e-002
2.233259e+003;5.059432e-002
2.235187e+003;5.061383e-002
2.237116e+003;5.059573e-002
2.239044e+003;5.062001e-002
2.240973e+003;5.073052e-002
2.242901e+003;5.085171e-002
2.244830e+003;5.081398e-002
2.246758e+003;5.083581e-002
2.248687e+003;5.063777e-002
2.250615e+003;5.058140e-002
2.252544e+003;5.073898e-002
2.254473e+003;5.074735e-002
2.256401e+003;5.062671e-002
2.258330e+003;5.067437e-002
2.260258e+003;5.073573e-002
2.262187e+003;5.053070e-002
2.264115e+003;5.026241e-002
2.266044e+003;5.034902e-002
2.267972e+003;5.053900e-002
2.269901e+003;5.058334e-002
2.271830e+003;5.061211e-002
2.273758e+003;5.073581e-002
2.275687e+003;5.061941e-002
2.277615e+003;5.040435e-002
2.279544e+003;5.041689e-002
2.281472e+003;5.069838e-002
2.283401e+003;5.088934e-002
2.285329e+003;5.088256e-002
2.287258e+003;5.086386e-002
2.289187e+003;5.084237e-002
2.291115e+003;5.087358e-002
2.293043e+003;5.071305e-002
2.294972e+003;5.076050e-002
2.296901e+003;5.090197e-002
2.298829e+003;5.083015e-002
2.300758e+003;5.084717e-002
2.302686e+003;5.101818e-002
2.304615e+003;5.095417e-002
2.306543e+003;5.069973e-002
2.308472e+003;5.075931e-002
2.310400e+003;5.081983e-002
2.312329e+003;5.077137e-002
2.314258e+003;5.079048e-002
2.316186e+003;5.078046e-002
2.318115e+003;5.067113e-002
2.320043e+003;5.044294e-002
2.321972e+003;5.039992e-002
2.323900e+003;5.058509e-002
2.325829e+003;5.062410e-002
2.327757e+003;5.045865e-002
2.329686e+003;5.021721e-002
2.331615e+003;5.014707e-002
2.333543e+003;5.030225e-002
2.335472e+003;5.036178e-002
2.337400e+003;5.033760e-002
2.339329e+003;5.015242e-002
2.341257e+003;5.014763e-002
2.343186e+003;5.039266e-002
2.345114e+003;5.070959e-002
2.347043e+003;5.109804e-002
2.348971e+003;5.102630e-002
2.350900e+003;5.072605e-002
2.352829e+003;5.043803e-002
2.354757e+003;5.028938e-002
2.356686e+003;5.011085e-002
2.358614e+003;5.011605e-002
2.360543e+003;5.026766e-002
2.362471e+003;5.022879e-002
2.364400e+003;5.035330e-002
2.366328e+003;5.061185e-002
2.368257e+003;5.082799e-002
2.370186e+003;5.107449e-002
2.372114e+003;5.124451e-002
2.374042e+003;5.123459e-002
2.375971e+003;5.133187e-002
2.377900e+003;5.161728e-002
2.379828e+003;5.180158e-002
2.381757e+003;5.177803e-002
2.383685e+003;5.203736e-002
2.385614e+003;5.232884e-002
2.387542e+003;5.233575e-002
2.389471e+003;5.218347e-002
2.391399e+003;5.217196e-002
2.393328e+003;5.236177e-002
2.395257e+003;5.234095e-002
2.397185e+003;5.223817e-002
2.399114e+003;5.253338e-002
2.401042e+003;5.303782e-002
2.402971e+003;5.326835e-002
2.404899e+003;5.329989e-002
2.406828e+003;5.348248e-002
2.408756e+003;5.386858e-002
2.410685e+003;5.397163e-002
2.412614e+003;5.397711e-002
2.414542e+003;5.434683e-002
2.416471e+003;5.455818e-002
2.418399e+003;5.479763e-002
2.420328e+003;5.502914e-002
2.422256e+003;5.503008e-002
2.424185e+003;5.515504e-002
2.426113e+003;5.529742e-002
2.428042e+003;5.556240e-002
2.429970e+003;5.579601e-002
2.431899e+003;5.570070e-002
2.433828e+003;5.564397e-002
2.435756e+003;5.597557e-002
2.437685e+003;5.617131e-002
2.439613e+003;5.598899e-002
2.441542e+003;5.619805e-002
2.443470e+003;5.668197e-002
2.445399e+003;5.651554e-002
2.447327e+003;5.652260e-002
2.449256e+003;5.673218e-002
2.451185e+003;5.654940e-002
2.453113e+003;5.657929e-002
2.455042e+003;5.674000e-002
2.456970e+003;5.680506e-002
2.458899e+003;5.687614e-002
2.460827e+003;5.690103e-002
2.462756e+003;5.698115e-002
2.464684e+003;5.701005e-002
2.466613e+003;5.703420e-002
2.468542e+003;5.706579e-002
2.470470e+003;5.708892e-002
2.472398e+003;5.720638e-002
2.474327e+003;5.738301e-002
2.476256e+003;5.761919e-002
2.478184e+003;5.763580e-002
2.480113e+003;5.769422e-002
2.482041e+003;5.788570e-002
2.483970e+003;5.789528e-002
2.485898e+003;5.774690e-002
2.487827e+003;5.771242e-002
2.489755e+003;5.788150e-002
2.491684e+003;5.813814e-002
2.493613e+003;5.811397e-002
2.495541e+003;5.815246e-002
2.497470e+003;5.822971e-002
2.499398e+003;5.816716e-002
2.501327e+003;5.813216e-002
2.503255e+003;5.816867e-002
2.505184e+003;5.823478e-002
2.507112e+003;5.835665e-002
2.509041e+003;5.856105e-002
2.510969e+003;5.885998e-002
2.512898e+003;5.886810e-002
2.514827e+003;5.857993e-002
2.516755e+003;5.852351e-002
2.518684e+003;5.855173e-002
2.520612e+003;5.840122e-002
2.522541e+003;5.848408e-002
2.524469e+003;5.877575e-002
2.526398e+003;5.899485e-002
2.528326e+003;5.899090e-002
2.530255e+003;5.908599e-002
2.532184e+003;5.915209e-002
2.534112e+003;5.901781e-002
2.536041e+003;5.890779e-002
2.537969e+003;5.878137e-002
2.539898e+003;5.880250e-002
2.541826e+003;5.916063e-002
2.543755e+003;5.958671e-002
2.545683e+003;5.998147e-002
2.547612e+003;6.008165e-002
2.549541e+003;5.992008e-002
2.551469e+003;5.986177e-002
2.553397e+003;6.005437e-002
2.555326e+003;6.038749e-002
2.557255e+003;6.053841e-002
2.559183e+003;6.061437e-002
2.561112e+003;6.068402e-002
2.563040e+003;6.066702e-002
2.564969e+003;6.094193e-002
2.566897e+003;6.119578e-002
2.568826e+003;6.149179e-002
2.570754e+003;6.171100e-002
2.572683e+003;6.174202e-002
2.574612e+003;6.184680e-002
2.576540e+003;6.212471e-002
2.578469e+003;6.250500e-002
2.580397e+003;6.267361e-002
2.582326e+003;6.272315e-002
2.584254e+003;6.283993e-002
2.586183e+003;6.307136e-002
2.588111e+003;6.347014e-002
2.590040e+003;6.357711e-002
2.591969e+003;6.343184e-002
2.593897e+003;6.347398e-002
2.595826e+003;6.353246e-002
2.597754e+003;6.374070e-002
2.599683e+003;6.420705e-002
2.601611e+003;6.448229e-002
2.603540e+003;6.457459e-002
2.605468e+003;6.463569e-002
2.607397e+003;6.475156e-002
2.609325e+003;6.502765e-002
2.611254e+003;6.518447e-002
2.613183e+003;6.500243e-002
2.615111e+003;6.510624e-002
2.617040e+003;6.516852e-002
2.618968e+003;6.515594e-002
2.620897e+003;6.531955e-002
2.622825e+003;6.546533e-002
2.624754e+003;6.544511e-002
2.626682e+003;6.530980e-002
2.628611e+003;6.531426e-002
2.630540e+003;6.523309e-002
2.632468e+003;6.519136e-002
2.634396e+003;6.537184e-002
2.636325e+003;6.538190e-002
2.638254e+003;6.521288e-002
2.640182e+003;6.514531e-002
2.642111e+003;6.501725e-002
2.644039e+003;6.497454e-002
2.645968e+003;6.507764e-002
2.647896e+003;6.515390e-002
2.649825e+003;6.528750e-002
2.651753e+003;6.529043e-002
2.653682e+003;6.555757e-002
2.655611e+003;6.578845e-002
2.657539e+003;6.562998e-002
2.659468e+003;6.540212e-002
2.661396e+003;6.569438e-002
2.663325e+003;6.622046e-002
2.665253e+003;6.627777e-002
2.667182e+003;6.619731e-002
2.669110e+003;6.637625e-002
2.671039e+003;6.670239e-002
2.672968e+003;6.698138e-002
2.674896e+003;6.698804e-002
2.676825e+003;6.700860e-002
2.678753e+003;6.684049e-002
2.680682e+003;6.677210e-002
2.682610e+003;6.706613e-002
2.684539e+003;6.724702e-002
2.686467e+003;6.741583e-002
2.688396e+003;6.793810e-002
2.690324e+003;6.832498e-002
2.692253e+003;6.846422e-002
2.694182e+003;6.865450e-002
2.696110e+003;6.881686e-002
2.698039e+003;6.880739e-002
2.699967e+003;6.872789e-002
2.701896e+003;6.879039e-002
2.703824e+003;6.919762e-002
2.705753e+003;6.967197e-002
2.707681e+003;6.977215e-002
2.709610e+003;6.973235e-002
2.711539e+003;7.004721e-002
2.713467e+003;7.019810e-002
2.715396e+003;7.018875e-002
2.717324e+003;7.024433e-002
2.719253e+003;7.019868e-002
2.721181e+003;7.050012e-002
2.723110e+003;7.078609e-002
2.725038e+003;7.082372e-002
2.726967e+003;7.109597e-002
2.728896e+003;7.145162e-002
2.730824e+003;7.161011e-002
2.732752e+003;7.173696e-002
2.734681e+003;7.191058e-002
2.736610e+003;7.201725e-002
2.738538e+003;7.204213e-002
2.740467e+003;7.215271e-002
2.742395e+003;7.244478e-002
2.744324e+003;7.282376e-002
2.746252e+003;7.306299e-002
2.748181e+003;7.319145e-002
2.750109e+003;7.342492e-002
2.752038e+003;7.350513e-002
2.753967e+003;7.352079e-002
2.755895e+003;7.372123e-002
2.757824e+003;7.371302e-002
2.759752e+003;7.387442e-002
2.761681e+003;7.433382e-002
2.763609e+003;7.456399e-002
2.765538e+003;7.465038e-002
2.767466e+003;7.453220e-002
2.769395e+003;7.463815e-002
2.771323e+003;7.514606e-002
2.773252e+003;7.535481e-002
2.775181e+003;7.532285e-002
2.777109e+003;7.540669e-002
2.779038e+003;7.553260e-002
2.780966e+003;7.567386e-002
2.782895e+003;7.580703e-002
2.784823e+003;7.593819e-002
2.786752e+003;7.579405e-002
2.788680e+003;7.557156e-002
2.790609e+003;7.580427e-002
2.792538e+003;7.627314e-002
2.794466e+003;7.654385e-002
2.796395e+003;7.674043e-002
2.798323e+003;7.713681e-002
2.800252e+003;7.716626e-002
2.802180e+003;7.709008e-002
2.804109e+003;7.730429e-002
2.806037e+003;7.769450e-002
2.807966e+003;7.783400e-002
2.809895e+003;7.792863e-002
2.811823e+003;7.813805e-002
2.813751e+003;7.810223e-002
2.815680e+003;7.796852e-002
2.817609e+003;7.795110e-002
2.819537e+003;7.827964e-002
2.821466e+003;7.859734e-002
2.823394e+003;7.883903e-002
2.825323e+003;7.898557e-002
2.827251e+003;7.899102e-002
2.829180e+003;7.900449e-002
2.831108e+003;7.951802e-002
2.833037e+003;7.981934e-002
2.834966e+003;8.008211e-002
2.836894e+003;8.067551e-002
2.838823e+003;8.105179e-002
2.840751e+003;8.108585e-002
2.842680e+003;8.150458e-002
2.844608e+003;8.235575e-002
2.846537e+003;8.288459e-002
2.848465e+003;8.357730e-002
2.850394e+003;8.436896e-002
2.852323e+003;8.504150e-002
2.854251e+003;8.586381e-002
2.856180e+003;8.641504e-002
2.858108e+003;8.695266e-002
2.860037e+003;8.737875e-002
2.861965e+003;8.758289e-002
2.863894e+003;8.795782e-002
2.865822e+003;8.860540e-002
2.867751e+003;8.939403e-002
2.869679e+003;9.003784e-002
2.871608e+003;9.040053e-002
2.873536e+003;9.059222e-002
2.875465e+003;9.110779e-002
2.877394e+003;9.124333e-002
2.879322e+003;9.075904e-002
2.881251e+003;9.043705e-002
2.883179e+003;9.039760e-002
2.885108e+003;9.043273e-002
2.887036e+003;9.040816e-002
2.888965e+003;8.999760e-002
2.890893e+003;8.978548e-002
2.892822e+003;8.987060e-002
2.894750e+003;8.997082e-002
2.896679e+003;9.012912e-002
2.898608e+003;9.086286e-002
2.900536e+003;9.150288e-002
2.902465e+003;9.170262e-002
2.904393e+003;9.180003e-002
2.906322e+003;9.200773e-002
2.908250e+003;9.254007e-002
2.910179e+003;9.306605e-002
2.912107e+003;9.326582e-002
2.914036e+003;9.343737e-002
2.915965e+003;9.445268e-002
2.917893e+003;9.583049e-002
2.919822e+003;9.719323e-002
2.921750e+003;9.852266e-002
2.923679e+003;9.931986e-002
2.925607e+003;9.997164e-002
2.927536e+003;1.006759e-001
2.929464e+003;1.011221e-001
2.931393e+003;1.011153e-001
2.933322e+003;1.008067e-001
2.935250e+003;1.006531e-001
2.937178e+003;1.000290e-001
2.939107e+003;9.914663e-002
2.941036e+003;9.866066e-002
2.942964e+003;9.822631e-002
2.944893e+003;9.720148e-002
2.946821e+003;9.634362e-002
2.948750e+003;9.548849e-002
2.950678e+003;9.471448e-002
2.952607e+003;9.436373e-002
2.954535e+003;9.419054e-002
2.956464e+003;9.409074e-002
2.958393e+003;9.423055e-002
2.960321e+003;9.422194e-002
2.962250e+003;9.416629e-002
2.964178e+003;9.425479e-002
2.966107e+003;9.424726e-002
2.968035e+003;9.425817e-002
2.969964e+003;9.414563e-002
2.971892e+003;9.414320e-002
2.973821e+003;9.431284e-002
2.975750e+003;9.400055e-002
2.977678e+003;9.351022e-002
2.979607e+003;9.330150e-002
2.981535e+003;9.328721e-002
2.983464e+003;9.301013e-002
2.985392e+003;9.215813e-002
2.987321e+003;9.142537e-002
2.989249e+003;9.118602e-002
2.991178e+003;9.076153e-002
2.993106e+003;9.012309e-002
2.995035e+003;8.963072e-002
2.996964e+003;8.933774e-002
2.998892e+003;8.909876e-002
3.000821e+003;8.907346e-002
3.002749e+003;8.891936e-002
3.004678e+003;8.838912e-002
3.006606e+003;8.814803e-002
3.008535e+003;8.840606e-002
3.010463e+003;8.851545e-002
3.012392e+003;8.851995e-002
3.014321e+003;8.857614e-002
3.016249e+003;8.875450e-002
3.018177e+003;8.890200e-002
3.020106e+003;8.914591e-002
3.022035e+003;8.965650e-002
3.023963e+003;9.001394e-002
3.025892e+003;9.019690e-002
3.027820e+003;9.050635e-002
3.029749e+003;9.109467e-002
3.031677e+003;9.175206e-002
3.033606e+003;9.205417e-002
3.035534e+003;9.217825e-002
3.037463e+003;9.252252e-002
3.039392e+003;9.269726e-002
3.041320e+003;9.310665e-002
3.043249e+003;9.390417e-002
3.045177e+003;9.452784e-002
3.047106e+003;9.532636e-002
3.049034e+003;9.620222e-002
3.050963e+003;9.665371e-002
3.052891e+003;9.686570e-002
3.054820e+003;9.723597e-002
3.056749e+003;9.774289e-002
3.058677e+003;9.840868e-002
3.060606e+003;9.915105e-002
3.062534e+003;9.929308e-002
3.064463e+003;9.936401e-002
3.066391e+003;9.962970e-002
3.068320e+003;9.968877e-002
3.070248e+003;9.973566e-002
3.072177e+003;9.966209e-002
3.074105e+003;9.968618e-002
3.076034e+003;9.994403e-002
3.077963e+003;9.974095e-002
3.079891e+003;9.946056e-002
3.081820e+003;9.916933e-002
3.083748e+003;9.898039e-002
3.085677e+003;9.905601e-002
3.087605e+003;9.881392e-002
3.089534e+003;9.855396e-002
3.091462e+003;9.818975e-002
3.093391e+003;9.787633e-002
3.095320e+003;9.760717e-002
3.097248e+003;9.704170e-002
3.099177e+003;9.652777e-002
3.101105e+003;9.631525e-002
3.103034e+003;9.602623e-002
3.104962e+003;9.600271e-002
3.106891e+003;9.613264e-002
3.108819e+003;9.590671e-002
3.110748e+003;9.545340e-002
3.112677e+003;9.518851e-002
3.114605e+003;9.515716e-002
3.116533e+003;9.511232e-002
3.118462e+003;9.487601e-002
3.120391e+003;9.471819e-002
3.122319e+003;9.461695e-002
3.124248e+003;9.467747e-002
3.126176e+003;9.492156e-002
3.128105e+003;9.511476e-002
3.130033e+003;9.518170e-002
3.131962e+003;9.534980e-002
3.133890e+003;9.561367e-002
3.135819e+003;9.593944e-002
3.137748e+003;9.642148e-002
3.139676e+003;9.669705e-002
3.141605e+003;9.655765e-002
3.143533e+003;9.675791e-002
3.145462e+003;9.723953e-002
3.147390e+003;9.737778e-002
3.149319e+003;9.757192e-002
3.151247e+003;9.804090e-002
3.153176e+003;9.869991e-002
3.155104e+003;9.947990e-002
3.157033e+003;1.000836e-001
3.158962e+003;1.004403e-001
3.160890e+003;1.011639e-001
3.162819e+003;1.019520e-001
3.164747e+003;1.025264e-001
3.166676e+003;1.029642e-001
3.168604e+003;1.037351e-001
3.170533e+003;1.046017e-001
3.172461e+003;1.055012e-001
3.174390e+003;1.065724e-001
3.176319e+003;1.074225e-001
3.178247e+003;1.080847e-001
3.180176e+003;1.087082e-001
3.182104e+003;1.093512e-001
3.184033e+003;1.102735e-001
3.185961e+003;1.108827e-001
3.187890e+003;1.114072e-001
3.189818e+003;1.123160e-001
3.191747e+003;1.135569e-001
3.193676e+003;1.147882e-001
3.195604e+003;1.154862e-001
3.197532e+003;1.162711e-001
3.199461e+003;1.173030e-001
3.201390e+003;1.180593e-001
3.203318e+003;1.189298e-001
3.205247e+003;1.199603e-001
3.207175e+003;1.208509e-001
3.209104e+003;1.219895e-001
3.211032e+003;1.233643e-001
3.212961e+003;1.245314e-001
3.214889e+003;1.254091e-001
3.216818e+003;1.262689e-001
3.218747e+003;1.272800e-001
3.220675e+003;1.284231e-001
3.222604e+003;1.295698e-001
3.224532e+003;1.305112e-001
3.226461e+003;1.315205e-001
3.228389e+003;1.327930e-001
3.230318e+003;1.341339e-001
3.232246e+003;1.357157e-001
3.234175e+003;1.373228e-001
3.236104e+003;1.387468e-001
3.238032e+003;1.402923e-001
3.239961e+003;1.421793e-001
3.241889e+003;1.439541e-001
3.243818e+003;1.454125e-001
3.245746e+003;1.468227e-001
3.247675e+003;1.485280e-001
3.249603e+003;1.503761e-001
3.251532e+003;1.521178e-001
3.253460e+003;1.543290e-001
3.255389e+003;1.566762e-001
3.257318e+003;1.584857e-001
3.259246e+003;1.602384e-001
3.261175e+003;1.625686e-001
3.263103e+003;1.651070e-001
3.265032e+003;1.672752e-001
3.266960e+003;1.692506e-001
3.268889e+003;1.709258e-001
3.270817e+003;1.722210e-001
3.272746e+003;1.734251e-001
3.274675e+003;1.751249e-001
3.276603e+003;1.766779e-001
3.278531e+003;1.769322e-001
3.280460e+003;1.764952e-001
3.282389e+003;1.760325e-001
3.284317e+003;1.752705e-001
3.286246e+003;1.741631e-001
3.288174e+003;1.727992e-001
3.290103e+003;1.715393e-001
3.292031e+003;1.697892e-001
3.293960e+003;1.674115e-001
3.295888e+003;1.647328e-001
3.297817e+003;1.625779e-001
3.299746e+003;1.608883e-001
3.301674e+003;1.582539e-001
3.303603e+003;1.553144e-001
3.305531e+003;1.528973e-001
3.307460e+003;1.502419e-001
3.309388e+003;1.472936e-001
3.311317e+003;1.444907e-001
3.313245e+003;1.423588e-001
3.315174e+003;1.402576e-001
3.317103e+003;1.377995e-001
3.319031e+003;1.355378e-001
3.320960e+003;1.333594e-001
3.322888e+003;1.309473e-001
3.324817e+003;1.287977e-001
3.326745e+003;1.272333e-001
3.328674e+003;1.253023e-001
3.330602e+003;1.229227e-001
3.332531e+003;1.206646e-001
3.334459e+003;1.192255e-001
3.336388e+003;1.184704e-001
3.338317e+003;1.168478e-001
3.340245e+003;1.149643e-001
3.342174e+003;1.134188e-001
3.344102e+003;1.118724e-001
3.346031e+003;1.104170e-001
3.347959e+003;1.089255e-001
3.349888e+003;1.079076e-001
3.351816e+003;1.072582e-001
3.353745e+003;1.063655e-001
3.355674e+003;1.049842e-001
3.357602e+003;1.039677e-001
3.359531e+003;1.030566e-001
3.361459e+003;1.020948e-001
3.363388e+003;1.016823e-001
3.365316e+003;1.011422e-001
3.367245e+003;1.002648e-001
3.369173e+003;9.936479e-002
3.371102e+003;9.878521e-002
3.373031e+003;9.831373e-002
3.374959e+003;9.730151e-002
3.376887e+003;9.641155e-002
3.378816e+003;9.602863e-002
3.380745e+003;9.605029e-002
3.382673e+003;9.569408e-002
3.384602e+003;9.507426e-002
3.386530e+003;9.454683e-002
3.388459e+003;9.420758e-002
3.390387e+003;9.373996e-002
3.392316e+003;9.290737e-002
3.394244e+003;9.208330e-002
3.396173e+003;9.166338e-002
3.398102e+003;9.106459e-002
3.400030e+003;9.053687e-002
3.401959e+003;9.004048e-002
3.403887e+003;8.935674e-002
3.405816e+003;8.876970e-002
3.407744e+003;8.803625e-002
3.409673e+003;8.749400e-002
3.411601e+003;8.746964e-002
3.413530e+003;8.693514e-002
3.415458e+003;8.612445e-002
3.417387e+003;8.554338e-002
3.419316e+003;8.510031e-002
3.421244e+003;8.454955e-002
3.423173e+003;8.417911e-002
3.425101e+003;8.379123e-002
3.427030e+003;8.328700e-002
3.428958e+003;8.268338e-002
3.430887e+003;8.230760e-002
3.432815e+003;8.221866e-002
3.434744e+003;8.162728e-002
3.436673e+003;8.097900e-002
3.438601e+003;8.040752e-002
3.440530e+003;8.005127e-002
3.442458e+003;7.960517e-002
3.444387e+003;7.948002e-002
3.446315e+003;7.951619e-002
3.448244e+003;7.922728e-002
3.450172e+003;7.883581e-002
3.452101e+003;7.831091e-002
3.454030e+003;7.776638e-002
3.455958e+003;7.773630e-002
3.457886e+003;7.789394e-002
3.459815e+003;7.785176e-002
3.461744e+003;7.738898e-002
3.463672e+003;7.674501e-002
3.465601e+003;7.706021e-002
3.467529e+003;7.731628e-002
3.469458e+003;7.665907e-002
3.471386e+003;7.609809e-002
3.473315e+003;7.602987e-002
3.475243e+003;7.582751e-002
3.477172e+003;7.527182e-002
3.479101e+003;7.472929e-002
3.481029e+003;7.449321e-002
3.482958e+003;7.442911e-002
3.484886e+003;7.483800e-002
3.486815e+003;7.499974e-002
3.488743e+003;7.460050e-002
3.490672e+003;7.411880e-002
3.492600e+003;7.363572e-002
3.494529e+003;7.320258e-002
3.496458e+003;7.262576e-002
3.498386e+003;7.208730e-002
3.500315e+003;7.215545e-002
3.502243e+003;7.225531e-002
3.504172e+003;7.198948e-002
3.506100e+003;7.177296e-002
3.508029e+003;7.175631e-002
3.509957e+003;7.163782e-002
3.511886e+003;7.154373e-002
3.513814e+003;7.138670e-002
3.515743e+003;7.096310e-002
3.517672e+003;7.057226e-002
3.519600e+003;7.034791e-002
3.521529e+003;6.998008e-002
3.523457e+003;6.964906e-002
3.525386e+003;6.955229e-002
3.527314e+003;6.960316e-002
3.529243e+003;6.920236e-002
3.531171e+003;6.872051e-002
3.533100e+003;6.853719e-002
3.535029e+003;6.820343e-002
3.536957e+003;6.754111e-002
3.538885e+003;6.717654e-002
3.540814e+003;6.705824e-002
3.542743e+003;6.712611e-002
3.544671e+003;6.719070e-002
3.546600e+003;6.646458e-002
3.548528e+003;6.594516e-002
3.550457e+003;6.589167e-002
3.552385e+003;6.557021e-002
3.554314e+003;6.536757e-002
3.556242e+003;6.528219e-002
3.558171e+003;6.500663e-002
3.560100e+003;6.479879e-002
3.562028e+003;6.449567e-002
3.563957e+003;6.377500e-002
3.565885e+003;6.338141e-002
3.567814e+003;6.345208e-002
3.569742e+003;6.359376e-002
3.571671e+003;6.318819e-002
3.573599e+003;6.235170e-002
3.575528e+003;6.197687e-002
3.577457e+003;6.200408e-002
3.579385e+003;6.192096e-002
3.581314e+003;6.176673e-002
3.583242e+003;6.141656e-002
3.585171e+003;6.093858e-002
3.587099e+003;6.068394e-002
3.589028e+003;6.056325e-002
3.590956e+003;6.025835e-002
3.592885e+003;5.990178e-002
3.594813e+003;5.978378e-002
3.596742e+003;5.952681e-002
3.598671e+003;5.923027e-002
3.600599e+003;5.906185e-002
3.602528e+003;5.872921e-002
3.604456e+003;5.803284e-002
3.606385e+003;5.749893e-002
3.608313e+003;5.731412e-002
3.610242e+003;5.714432e-002
3.612170e+003;5.721912e-002
3.614099e+003;5.735858e-002
3.616028e+003;5.713596e-002
3.617956e+003;5.660424e-002
3.619885e+003;5.586760e-002
3.621813e+003;5.554564e-002
3.623742e+003;5.548679e-002
3.625670e+003;5.506874e-002
3.627599e+003;5.414429e-002
3.629527e+003;5.360283e-002
3.631456e+003;5.379833e-002
3.633385e+003;5.396581e-002
3.635313e+003;5.377088e-002
3.637241e+003;5.325086e-002
3.639170e+003;5.301603e-002
3.641099e+003;5.281419e-002
3.643027e+003;5.230185e-002
3.644956e+003;5.168830e-002
3.646884e+003;5.129492e-002
3.648813e+003;5.023250e-002
3.650741e+003;4.940005e-002
3.652670e+003;4.932852e-002
3.654598e+003;4.901059e-002
3.656527e+003;4.847690e-002
3.658456e+003;4.826057e-002
3.660384e+003;4.781760e-002
3.662313e+003;4.708166e-002
3.664241e+003;4.657428e-002
3.666170e+003;4.598006e-002
3.668098e+003;4.534796e-002
3.670027e+003;4.471238e-002
3.671955e+003;4.410856e-002
3.673884e+003;4.334538e-002
3.675813e+003;4.291980e-002
3.677741e+003;4.296226e-002
3.679669e+003;4.238783e-002
3.681598e+003;4.172555e-002
3.683527e+003;4.116179e-002
3.685455e+003;4.081270e-002
3.687384e+003;4.048494e-002
3.689312e+003;4.009314e-002
3.691241e+003;4.004158e-002
3.693169e+003;3.983612e-002
3.695098e+003;3.924111e-002
3.697026e+003;3.862493e-002
3.698955e+003;3.827157e-002
3.700884e+003;3.793973e-002
3.702812e+003;3.785465e-002
3.704741e+003;3.759158e-002
3.706669e+003;3.693618e-002
3.708598e+003;3.651279e-002
3.710526e+003;3.646947e-002
3.712455e+003;3.639650e-002
3.714383e+003;3.631548e-002
3.716312e+003;3.598638e-002
3.718240e+003;3.578589e-002
3.720169e+003;3.552177e-002
3.722098e+003;3.522795e-002
3.724026e+003;3.514380e-002
3.725955e+003;3.517567e-002
3.727883e+003;3.532081e-002
3.729812e+003;3.546435e-002
3.731740e+003;3.515885e-002
3.733669e+003;3.448289e-002
3.735597e+003;3.403648e-002
3.737526e+003;3.434893e-002
3.739455e+003;3.490779e-002
3.741383e+003;3.478730e-002
3.743312e+003;3.365414e-002
3.745240e+003;3.362055e-002
3.747169e+003;3.412392e-002
3.749097e+003;3.368346e-002
3.751026e+003;3.360248e-002
3.752954e+003;3.365371e-002
3.754883e+003;3.395105e-002
3.756812e+003;3.402784e-002
3.758740e+003;3.340559e-002
3.760668e+003;3.324087e-002
3.762597e+003;3.380329e-002
3.764526e+003;3.381199e-002
3.766454e+003;3.364766e-002
3.768383e+003;3.339328e-002
3.770311e+003;3.337986e-002
3.772240e+003;3.379408e-002
3.774168e+003;3.420128e-002
3.776097e+003;3.376554e-002
3.778025e+003;3.351803e-002
3.779954e+003;3.402178e-002
3.781883e+003;3.443816e-002
3.783811e+003;3.457803e-002
3.785740e+003;3.426843e-002
3.787668e+003;3.355154e-002
3.789597e+003;3.374888e-002
3.791525e+003;3.471307e-002
3.793454e+003;3.470998e-002
3.795382e+003;3.416719e-002
3.797311e+003;3.392540e-002
3.799240e+003;3.374255e-002
3.801168e+003;3.323264e-002
3.803097e+003;3.373026e-002
3.805025e+003;3.441793e-002
3.806954e+003;3.429528e-002
3.808882e+003;3.408120e-002
3.810811e+003;3.407736e-002
3.812739e+003;3.427287e-002
3.814668e+003;3.347877e-002
3.816596e+003;3.328072e-002
3.818525e+003;3.379573e-002
3.820454e+003;3.362313e-002
3.822382e+003;3.372235e-002
3.824311e+003;3.415170e-002
3.826239e+003;3.411457e-002
3.828168e+003;3.398247e-002
3.830096e+003;3.397191e-002
3.832025e+003;3.412665e-002
3.833953e+003;3.429693e-002
3.835882e+003;3.436442e-002
3.837811e+003;3.436876e-002
3.839739e+003;3.417547e-002
3.841667e+003;3.407260e-002
3.843596e+003;3.418436e-002
3.845525e+003;3.458926e-002
3.847453e+003;3.506638e-002
3.849382e+003;3.496743e-002
3.851310e+003;3.447826e-002
3.853239e+003;3.387016e-002
3.855167e+003;3.416963e-002
3.857096e+003;3.476666e-002
3.859024e+003;3.486747e-002
3.860953e+003;3.520308e-002
3.862882e+003;3.524293e-002
3.864810e+003;3.536833e-002
3.866739e+003;3.594207e-002
3.868667e+003;3.578243e-002
3.870596e+003;3.553687e-002
3.872524e+003;3.564217e-002
3.874453e+003;3.603548e-002
3.876381e+003;3.655265e-002
3.878310e+003;3.670089e-002
3.880239e+003;3.657291e-002
3.882167e+003;3.627985e-002
3.884096e+003;3.580262e-002
3.886024e+003;3.568221e-002
3.887953e+003;3.608358e-002
3.889881e+003;3.644342e-002
3.891810e+003;3.689830e-002
3.893738e+003;3.738783e-002
3.895667e+003;3.750293e-002
3.897595e+003;3.709259e-002
3.899524e+003;3.680885e-002
3.901453e+003;3.707538e-002
3.903381e+003;3.753208e-002
3.905310e+003;3.776092e-002
3.907238e+003;3.775301e-002
3.909167e+003;3.769742e-002
3.911095e+003;3.768662e-002
3.913024e+003;3.751138e-002
3.914952e+003;3.748119e-002
3.916881e+003;3.797249e-002
3.918810e+003;3.864061e-002
3.920738e+003;3.891690e-002
3.922667e+003;3.890805e-002
3.924595e+003;3.843180e-002
3.926524e+003;3.828663e-002
3.928452e+003;3.857709e-002
3.930381e+003;3.854802e-002
3.932309e+003;3.838536e-002
3.934238e+003;3.866553e-002
3.936167e+003;3.911068e-002
3.938095e+003;3.960310e-002
3.940023e+003;3.947285e-002
3.941952e+003;3.920311e-002
3.943881e+003;3.923749e-002
3.945809e+003;3.919705e-002
3.947738e+003;3.942136e-002
3.949666e+003;3.947194e-002
3.951595e+003;3.953897e-002
3.953523e+003;3.989932e-002
3.955452e+003;3.994382e-002
3.957380e+003;3.992402e-002
3.959309e+003;3.981920e-002
3.961238e+003;4.008108e-002
3.963166e+003;4.021937e-002
3.965095e+003;4.016146e-002
3.967023e+003;4.023550e-002
3.968952e+003;4.038657e-002
3.970880e+003;4.049480e-002
3.972809e+003;4.034857e-002
3.974737e+003;4.045374e-002
3.976666e+003;4.070497e-002
3.978594e+003;4.089388e-002
3.980523e+003;4.114996e-002
3.982452e+003;4.127721e-002
3.984380e+003;4.098479e-002
3.986309e+003;4.099488e-002
3.988237e+003;4.075450e-002
3.990166e+003;4.082180e-002
3.992094e+003;4.133296e-002
3.994023e+003;4.121852e-002
3.995951e+003;4.145641e-002
3.997880e+003;4.185032e-002
3.999809e+003;4.144985e-002
4.001737e+003;0.000000e+000
