3.992094e+002;0.000000e+000
4.011380e+002;0.000000e+000
4.030665e+002;0.000000e+000
4.049951e+002;0.000000e+000
4.069236e+002;0.000000e+000
4.088522e+002;0.000000e+000
4.107807e+002;0.000000e+000
4.127093e+002;0.000000e+000
4.146378e+002;0.000000e+000
4.165664e+002;0.000000e+000
4.184949e+002;0.000000e+000
4.204235e+002;0.000000e+000
4.223520e+002;0.000000e+000
4.242806e+002;0.000000e+000
4.262091e+002;0.000000e+000
4.281377e+002;0.000000e+000
4.300662e+002;0.000000e+000
4.319948e+002;0.000000e+000
4.339233e+002;0.000000e+000
4.358519e+002;0.000000e+000
4.377804e+002;0.000000e+000
4.397090e+002;0.000000e+000
4.416375e+002;0.000000e+000
4.435660e+002;0.000000e+000
4.454946e+002;0.000000e+000
4.474232e+002;0.000000e+000
4.493517e+002;0.000000e+000
4.512802e+002;0.000000e+000
4.532088e+002;0.000000e+000
4.551373e+002;0.000000e+000
4.570659e+002;0.000000e+000
4.589944e+002;0.000000e+000
4.609230e+002;0.000000e+000
4.628515e+002;0.000000e+000
4.647801e+002;0.000000e+000
4.667086e+002;0.000000e+000
4.686372e+002;0.000000e+000
4.705657e+002;0.000000e+000
4.724943e+002;0.000000e+000
4.744228e+002;0.000000e+000
4.763513e+002;0.000000e+000
4.782799e+002;0.000000e+000
4.802085e+002;0.000000e+000
4.821370e+002;0.000000e+000
4.840656e+002;0.000000e+000
4.859941e+002;0.000000e+000
4.879226e+002;0.000000e+000
4.898512e+002;0.000000e+000
4.917798e+002;0.000000e+000
4.937083e+002;0.000000e+000
4.956368e+002;0.000000e+000
4.975654e+002;0.000000e+000
4.994939e+002;0.000000e+000
5.014225e+002;0.000000e+000
5.033510e+002;0.000000e+000
5.052796e+002;0.000000e+000
5.072081e+002;0.000000e+000
5.091367e+002;0.000000e+000
5.110652e+002;0.000000e+000
5.129938e+002;0.000000e+000
5.149223e+002;0.000000e+000
5.168509e+002;0.000000e+000
5.187794e+002;0.000000e+000
5.207079e+002;0.000000e+000
5.226365e+002;0.000000e+000
5.245651e+002;0.000000e+000
5.264936e+002;0.000000e+000
5.284222e+002;0.000000e+000
5.303507e+002;0.000000e+000
5.322792e+002;0.000000e+000
5.342078e+002;0.000000e+000
5.361364e+002;0.000000e+000
5.380649e+002;0.000000e+000
5.399935e+002;0.000000e+000
5.419220e+002;0.000000e+000
5.438505e+002;0.000000e+000
5.457791e+002;0.000000e+000
5.477076e+002;0.000000e+000
5.496362e+002;0.000000e+000
5.515648e+002;0.000000e+000
5.534933e+002;0.000000e+000
5.554218e+002;0.000000e+000
5.573504e+002;0.000000e+000
5.592789e+002;0.000000e+000
5.612075e+002;0.000000e+000
5.631360e+002;0.000000e+000
5.650646e+002;0.000000e+000
5.669931e+002;0.000000e+000
5.689217e+002;0.000000e+000
5.708502e+002;0.000000e+000
5.727787e+002;0.000000e+000
5.747073e+002;0.000000e+000
5.766359e+002;0.000000e+000
5.785644e+002;0.000000e+000
5.804930e+002;0.000000e+000
5.824215e+002;0.000000e+000
5.843500e+002;0.000000e+000
5.862786e+002;0.000000e+000
5.882072e+002;0.000000e+000
5.901357e+002;0.000000e+000
5.920643e+002;0.000000e+000
5.939928e+002;0.000000e+000
5.959213e+002;0.000000e+000
5.978499e+002;0.000000e+000
5.997784e+002;2.505737e-001
6.017070e+002;2.553096e-001
6.036355e+002;2.673328e-001
6.055641e+002;2.674058e-001
6.074926e+002;2.703913e-001
6.094211e+002;2.728052e-001
6.113497e+002;2.701790e-001
6.132783e+002;2.684583e-001
6.152068e+002;2.671036e-001
6.171354e+002;2.717945e-001
6.190639e+002;2.775276e-001
6.209924e+002;2.737693e-001
6.229210e+002;2.695293e-001
6.248495e+002;2.707846e-001
6.267781e+002;2.687459e-001
6.287067e+002;2.618771e-001
6.306352e+002;2.574899e-001
6.325637e+002;2.556687e-001
6.344923e+002;2.557453e-001
6.364208e+002;2.545273e-001
6.383494e+002;2.549075e-001
6.402780e+002;2.534896e-001
6.422065e+002;2.492841e-001
6.441350e+002;2.451985e-001
6.460636e+002;2.397415e-001
6.479921e+002;2.403865e-001
6.499207e+002;2.431653e-001
6.518492e+002;2.429954e-001
6.537778e+002;2.430676e-001
6.557063e+002;2.436091e-001
6.576349e+002;2.413854e-001
6.595634e+002;2.411962e-001
6.614919e+002;2.427614e-001
6.634205e+002;2.435919e-001
6.653491e+002;2.417032e-001
6.672776e+002;2.386482e-001
6.692062e+002;2.405476e-001
6.711347e+002;2.402061e-001
6.730632e+002;2.388451e-001
6.749918e+002;2.367699e-001
6.769203e+002;2.367543e-001
6.788489e+002;2.387009e-001
6.807775e+002;2.381839e-001
6.827060e+002;2.355359e-001
6.846345e+002;2.346461e-001
6.865631e+002;2.354175e-001
6.884916e+002;2.344453e-001
6.904202e+002;2.325346e-001
6.923488e+002;2.305660e-001
6.942773e+002;2.294208e-001
6.962058e+002;2.283120e-001
6.981344e+002;2.259617e-001
7.000629e+002;2.237757e-001
7.019915e+002;2.218105e-001
7.039200e+002;2.185153e-001
7.058486e+002;2.156407e-001
7.077771e+002;2.130583e-001
7.097057e+002;2.105685e-001
7.116342e+002;2.087097e-001
7.135627e+002;2.056276e-001
7.154913e+002;2.024177e-001
7.174199e+002;1.995070e-001
7.193484e+002;1.977029e-001
7.212770e+002;1.963322e-001
7.232055e+002;1.930590e-001
7.251340e+002;1.902593e-001
7.270626e+002;1.877899e-001
7.289911e+002;1.840260e-001
7.309197e+002;1.800913e-001
7.328483e+002;1.768312e-001
7.347768e+002;1.742443e-001
7.367053e+002;1.704986e-001
7.386339e+002;1.671992e-001
7.405624e+002;1.645228e-001
7.424910e+002;1.617153e-001
7.444196e+002;1.601650e-001
7.463481e+002;1.583049e-001
7.482766e+002;1.551938e-001
7.502052e+002;1.528969e-001
7.521337e+002;1.509158e-001
7.540623e+002;1.487285e-001
7.559908e+002;1.474979e-001
7.579194e+002;1.465735e-001
7.598479e+002;1.454048e-001
7.617765e+002;1.439533e-001
7.637050e+002;1.423199e-001
7.656335e+002;1.405878e-001
7.675621e+002;1.385165e-001
7.694907e+002;1.374953e-001
7.714192e+002;1.365695e-001
7.733478e+002;1.349152e-001
7.752763e+002;1.333190e-001
7.772048e+002;1.321359e-001
7.791334e+002;1.306374e-001
7.810620e+002;1.293973e-001
7.829905e+002;1.281565e-001
7.849191e+002;1.263940e-001
7.868476e+002;1.246990e-001
7.887761e+002;1.236772e-001
7.907047e+002;1.231308e-001
7.926332e+002;1.218885e-001
7.945618e+002;1.209071e-001
7.964903e+002;1.207106e-001
7.984189e+002;1.203643e-001
8.003474e+002;1.192039e-001
8.022759e+002;1.186846e-001
8.042045e+002;1.188366e-001
8.061331e+002;1.190643e-001
8.080616e+002;1.190835e-001
8.099902e+002;1.184919e-001
8.119187e+002;1.184011e-001
8.138472e+002;1.183877e-001
8.157758e+002;1.181916e-001
8.177043e+002;1.185705e-001
8.196329e+002;1.198664e-001
8.215615e+002;1.204311e-001
8.234900e+002;1.200962e-001
8.254185e+002;1.198673e-001
8.273471e+002;1.198407e-001
8.292756e+002;1.201463e-001
8.312042e+002;1.196969e-001
8.331328e+002;1.184273e-001
8.350613e+002;1.169062e-001
8.369898e+002;1.148608e-001
8.389184e+002;1.137432e-001
8.408469e+002;1.131522e-001
8.427755e+002;1.130762e-001
8.447040e+002;1.137158e-001
8.466326e+002;1.144422e-001
8.485611e+002;1.148601e-001
8.504897e+002;1.151059e-001
8.524182e+002;1.151970e-001
8.543467e+002;1.142987e-001
8.562753e+002;1.128253e-001
8.582039e+002;1.107823e-001
8.601324e+002;1.083671e-001
8.620610e+002;1.071666e-001
8.639895e+002;1.069110e-001
8.659180e+002;1.060706e-001
8.678466e+002;1.056759e-001
8.697751e+002;1.059970e-001
8.717037e+002;1.066400e-001
8.736323e+002;1.074051e-001
8.755608e+002;1.074133e-001
8.774893e+002;1.074611e-001
8.794179e+002;1.081344e-001
8.813464e+002;1.082621e-001
8.832750e+002;1.078476e-001
8.852036e+002;1.075178e-001
8.871321e+002;1.074918e-001
8.890606e+002;1.076529e-001
8.909892e+002;1.080238e-001
8.929177e+002;1.087851e-001
8.948463e+002;1.088197e-001
8.967748e+002;1.084864e-001
8.987034e+002;1.085863e-001
9.006319e+002;1.092541e-001
9.025605e+002;1.095346e-001
9.044890e+002;1.097461e-001
9.064175e+002;1.102058e-001
9.083461e+002;1.101550e-001
9.102747e+002;1.105416e-001
9.122032e+002;1.117631e-001
9.141318e+002;1.129662e-001
9.160603e+002;1.139518e-001
9.179888e+002;1.151405e-001
9.199174e+002;1.166589e-001
9.218459e+002;1.180346e-001
9.237745e+002;1.194704e-001
9.257031e+002;1.206729e-001
9.276316e+002;1.216950e-001
9.295601e+002;1.222510e-001
9.314887e+002;1.224873e-001
9.334172e+002;1.231264e-001
9.353458e+002;1.235202e-001
9.372744e+002;1.238834e-001
9.392029e+002;1.242853e-001
9.411314e+002;1.245675e-001
9.430600e+002;1.253292e-001
9.449885e+002;1.261933e-001
9.469171e+002;1.275159e-001
9.488456e+002;1.289046e-001
9.507742e+002;1.302411e-001
9.527027e+002;1.319075e-001
9.546313e+002;1.335653e-001
9.565598e+002;1.349081e-001
9.584883e+002;1.364439e-001
9.604169e+002;1.381712e-001
9.623455e+002;1.399817e-001
9.642740e+002;1.422412e-001
9.662026e+002;1.451325e-001
9.681311e+002;1.480780e-001
9.700596e+002;1.505442e-001
9.719882e+002;1.526188e-001
9.739167e+002;1.541822e-001
9.758453e+002;1.553227e-001
9.777739e+002;1.556303e-001
9.797024e+002;1.553982e-001
9.816309e+002;1.552635e-001
9.835595e+002;1.556899e-001
9.854880e+002;1.572489e-001
9.874166e+002;1.598498e-001
9.893452e+002;1.632767e-001
9.912737e+002;1.666595e-001
9.932022e+002;1.694467e-001
9.951307e+002;1.717831e-001
9.970593e+002;1.734796e-001
9.989879e+002;1.740958e-001
1.000916e+003;1.742261e-001
1.002845e+003;1.747888e-001
1.004773e+003;1.759691e-001
1.006702e+003;1.768131e-001
1.008631e+003;1.778190e-001
1.010559e+003;1.791730e-001
1.012488e+003;1.801182e-001
1.014416e+003;1.809466e-001
1.016345e+003;1.817709e-001
1.018273e+003;1.821426e-001
1.020202e+003;1.828689e-001
1.022130e+003;1.841214e-001
1.024059e+003;1.855785e-001
1.025988e+003;1.870027e-001
1.027916e+003;1.884471e-001
1.029845e+003;1.900842e-001
1.031773e+003;1.919705e-001
1.033702e+003;1.936125e-001
1.035630e+003;1.950324e-001
1.037559e+003;1.961795e-001
1.039487e+003;1.970340e-001
1.041416e+003;1.974258e-001
1.043344e+003;1.970172e-001
1.045273e+003;1.967943e-001
1.047202e+003;1.967029e-001
1.049130e+003;1.962513e-001
1.051059e+003;1.961549e-001
1.052987e+003;1.964283e-001
1.054916e+003;1.967581e-001
1.056844e+003;1.971456e-001
1.058773e+003;1.976168e-001
1.060701e+003;1.978675e-001
1.062630e+003;1.976739e-001
1.064558e+003;1.974680e-001
1.066487e+003;1.967953e-001
1.068416e+003;1.953912e-001
1.070344e+003;1.933554e-001
1.072273e+003;1.913725e-001
1.074201e+003;1.895515e-001
1.076130e+003;1.866757e-001
1.078058e+003;1.829392e-001
1.079987e+003;1.791751e-001
1.081915e+003;1.763204e-001
1.083844e+003;1.740090e-001
1.085773e+003;1.710895e-001
1.087701e+003;1.682574e-001
1.089630e+003;1.656809e-001
1.091558e+003;1.633938e-001
1.093487e+003;1.622053e-001
1.095415e+003;1.619489e-001
1.097344e+003;1.616095e-001
1.099272e+003;1.614508e-001
1.101201e+003;1.613673e-001
1.103129e+003;1.613552e-001
1.105058e+003;1.608644e-001
1.106987e+003;1.598744e-001
1.108915e+003;1.588548e-001
1.110844e+003;1.574704e-001
1.112772e+003;1.562364e-001
1.114701e+003;1.554094e-001
1.116629e+003;1.546857e-001
1.118558e+003;1.545273e-001
1.120486e+003;1.543334e-001
1.122415e+003;1.537712e-001
1.124344e+003;1.537141e-001
1.126272e+003;1.537931e-001
1.128201e+003;1.537219e-001
1.130129e+003;1.537353e-001
1.132058e+003;1.541845e-001
1.133986e+003;1.548319e-001
1.135915e+003;1.556173e-001
1.137843e+003;1.565211e-001
1.139772e+003;1.579246e-001
1.141700e+003;1.597995e-001
1.143629e+003;1.615820e-001
1.145557e+003;1.637983e-001
1.147486e+003;1.663417e-001
1.149415e+003;1.686776e-001
1.151343e+003;1.707003e-001
1.153272e+003;1.726583e-001
1.155200e+003;1.742801e-001
1.157129e+003;1.755346e-001
1.159057e+003;1.762004e-001
1.160986e+003;1.768670e-001
1.162914e+003;1.774281e-001
1.164843e+003;1.771011e-001
1.166771e+003;1.766344e-001
1.168700e+003;1.765356e-001
1.170629e+003;1.761234e-001
1.172557e+003;1.746944e-001
1.174486e+003;1.726746e-001
1.176414e+003;1.702915e-001
1.178343e+003;1.682158e-001
1.180271e+003;1.668627e-001
1.182200e+003;1.659200e-001
1.184128e+003;1.654962e-001
1.186057e+003;1.657847e-001
1.187986e+003;1.671375e-001
1.189914e+003;1.689580e-001
1.191843e+003;1.709530e-001
1.193771e+003;1.733463e-001
1.195700e+003;1.763935e-001
1.197628e+003;1.800491e-001
1.199557e+003;1.843117e-001
1.201485e+003;1.885871e-001
1.203414e+003;1.926917e-001
1.205343e+003;1.972721e-001
1.207271e+003;2.022134e-001
1.209200e+003;2.067981e-001
1.211128e+003;2.109364e-001
1.213057e+003;2.151088e-001
1.214985e+003;2.190172e-001
1.216914e+003;2.222266e-001
1.218842e+003;2.249772e-001
1.220771e+003;2.276355e-001
1.222699e+003;2.304104e-001
1.224628e+003;2.327384e-001
1.226557e+003;2.337354e-001
1.228485e+003;2.336675e-001
1.230414e+003;2.329663e-001
1.232342e+003;2.312852e-001
1.234271e+003;2.288270e-001
1.236199e+003;2.261541e-001
1.238128e+003;2.236142e-001
1.240056e+003;2.210520e-001
1.241985e+003;2.183879e-001
1.243913e+003;2.157346e-001
1.245842e+003;2.135193e-001
1.247771e+003;2.120484e-001
1.249699e+003;2.103717e-001
1.251628e+003;2.086196e-001
1.253556e+003;2.072962e-001
1.255485e+003;2.057856e-001
1.257413e+003;2.041717e-001
1.259342e+003;2.019879e-001
1.261270e+003;1.994469e-001
1.263199e+003;1.966366e-001
1.265127e+003;1.934446e-001
1.267056e+003;1.896957e-001
1.268985e+003;1.857515e-001
1.270913e+003;1.821474e-001
1.272842e+003;1.784105e-001
1.274770e+003;1.748837e-001
1.276699e+003;1.721606e-001
1.278627e+003;1.698517e-001
1.280556e+003;1.676140e-001
1.282484e+003;1.659566e-001
1.284413e+003;1.648476e-001
1.286342e+003;1.639001e-001
1.288270e+003;1.630477e-001
1.290199e+003;1.623408e-001
1.292127e+003;1.616743e-001
1.294056e+003;1.611866e-001
1.295984e+003;1.609621e-001
1.297913e+003;1.610891e-001
1.299841e+003;1.614437e-001
1.301770e+003;1.613817e-001
1.303698e+003;1.611875e-001
1.305627e+003;1.608513e-001
1.307556e+003;1.606458e-001
1.309484e+003;1.607760e-001
1.311413e+003;1.606593e-001
1.313341e+003;1.602316e-001
1.315270e+003;1.599973e-001
1.317198e+003;1.600302e-001
1.319127e+003;1.600875e-001
1.321055e+003;1.605527e-001
1.322984e+003;1.612994e-001
1.324912e+003;1.619590e-001
1.326841e+003;1.629134e-001
1.328770e+003;1.638512e-001
1.330698e+003;1.642793e-001
1.332627e+003;1.644636e-001
1.334555e+003;1.647249e-001
1.336484e+003;1.649271e-001
1.338412e+003;1.648968e-001
1.340341e+003;1.649184e-001
1.342269e+003;1.649842e-001
1.344198e+003;1.648306e-001
1.346126e+003;1.649430e-001
1.348055e+003;1.651629e-001
1.349984e+003;1.654199e-001
1.351912e+003;1.660794e-001
1.353841e+003;1.672103e-001
1.355769e+003;1.686452e-001
1.357698e+003;1.708315e-001
1.359626e+003;1.737384e-001
1.361555e+003;1.770470e-001
1.363483e+003;1.806874e-001
1.365412e+003;1.841585e-001
1.367341e+003;1.866003e-001
1.369269e+003;1.876269e-001
1.371198e+003;1.876284e-001
1.373126e+003;1.874421e-001
1.375055e+003;1.871902e-001
1.376983e+003;1.870734e-001
1.378912e+003;1.870933e-001
1.380840e+003;1.867903e-001
1.382769e+003;1.866293e-001
1.384698e+003;1.866648e-001
1.386626e+003;1.872377e-001
1.388555e+003;1.878991e-001
1.390483e+003;1.882886e-001
1.392412e+003;1.887807e-001
1.394340e+003;1.892600e-001
1.396269e+003;1.900442e-001
1.398197e+003;1.913363e-001
1.400126e+003;1.926452e-001
1.402054e+003;1.936811e-001
1.403983e+003;1.946091e-001
1.405911e+003;1.955354e-001
1.407840e+003;1.966506e-001
1.409769e+003;1.975785e-001
1.411697e+003;1.984094e-001
1.413626e+003;1.989324e-001
1.415554e+003;1.991220e-001
1.417483e+003;1.995386e-001
1.419411e+003;2.004426e-001
1.421340e+003;2.017801e-001
1.423268e+003;2.035792e-001
1.425197e+003;2.064263e-001
1.427125e+003;2.106269e-001
1.429054e+003;2.157335e-001
1.430983e+003;2.215601e-001
1.432911e+003;2.277040e-001
1.434840e+003;2.337372e-001
1.436768e+003;2.392552e-001
1.438697e+003;2.433134e-001
1.440625e+003;2.459150e-001
1.442554e+003;2.476428e-001
1.444482e+003;2.484289e-001
1.446411e+003;2.480622e-001
1.448340e+003;2.459939e-001
1.450268e+003;2.422575e-001
1.452197e+003;2.377551e-001
1.454125e+003;2.329795e-001
1.456054e+003;2.281860e-001
1.457982e+003;2.241220e-001
1.459911e+003;2.215109e-001
1.461839e+003;2.202459e-001
1.463768e+003;2.197684e-001
1.465697e+003;2.202253e-001
1.467625e+003;2.216615e-001
1.469554e+003;2.233393e-001
1.471482e+003;2.253929e-001
1.473411e+003;2.279363e-001
1.475339e+003;2.311093e-001
1.477268e+003;2.353837e-001
1.479196e+003;2.410496e-001
1.481125e+003;2.473168e-001
1.483053e+003;2.542501e-001
1.484982e+003;2.623168e-001
1.486911e+003;2.709490e-001
1.488839e+003;2.801418e-001
1.490768e+003;2.896842e-001
1.492696e+003;2.988876e-001
1.494625e+003;3.079036e-001
1.496553e+003;3.166254e-001
1.498482e+003;3.244154e-001
1.500410e+003;3.317739e-001
1.502339e+003;3.385269e-001
1.504267e+003;3.441687e-001
1.506196e+003;3.487875e-001
1.508125e+003;3.527184e-001
1.510053e+003;3.556998e-001
1.511982e+003;3.575575e-001
1.513910e+003;3.570332e-001
1.515839e+003;3.521074e-001
1.517767e+003;3.434933e-001
1.519696e+003;3.334643e-001
1.521624e+003;3.235641e-001
1.523553e+003;3.153080e-001
1.525481e+003;3.080346e-001
1.527410e+003;3.015390e-001
1.529339e+003;2.957172e-001
1.531267e+003;2.899170e-001
1.533196e+003;2.837647e-001
1.535124e+003;2.778670e-001
1.537053e+003;2.727790e-001
1.538981e+003;2.676042e-001
1.540910e+003;2.622562e-001
1.542838e+003;2.575105e-001
1.544767e+003;2.527430e-001
1.546695e+003;2.475301e-001
1.548624e+003;2.423242e-001
1.550553e+003;2.371695e-001
1.552481e+003;2.320917e-001
1.554410e+003;2.267852e-001
1.556338e+003;2.214274e-001
1.558267e+003;2.159690e-001
1.560195e+003;2.105119e-001
1.562124e+003;2.053645e-001
1.564052e+003;2.003993e-001
1.565981e+003;1.954209e-001
1.567910e+003;1.906470e-001
1.569838e+003;1.863808e-001
1.571767e+003;1.829591e-001
1.573695e+003;1.802148e-001
1.575624e+003;1.780705e-001
1.577552e+003;1.769065e-001
1.579481e+003;1.767392e-001
1.581409e+003;1.769056e-001
1.583338e+003;1.774267e-001
1.585266e+003;1.788506e-001
1.587195e+003;1.816958e-001
1.589124e+003;1.855493e-001
1.591052e+003;1.901286e-001
1.592981e+003;1.956022e-001
1.594909e+003;2.017059e-001
1.596838e+003;2.082817e-001
1.598766e+003;2.154801e-001
1.600695e+003;2.240102e-001
1.602623e+003;2.344843e-001
1.604552e+003;2.468122e-001
1.606480e+003;2.607850e-001
1.608409e+003;2.757730e-001
1.610338e+003;2.909319e-001
1.612266e+003;3.059536e-001
1.614195e+003;3.202016e-001
1.616123e+003;3.329693e-001
1.618052e+003;3.439021e-001
1.619980e+003;3.525994e-001
1.621909e+003;3.585893e-001
1.623837e+003;3.616913e-001
1.625766e+003;3.617404e-001
1.627694e+003;3.589761e-001
1.629623e+003;3.543053e-001
1.631552e+003;3.485646e-001
1.633480e+003;3.420107e-001
1.635409e+003;3.342571e-001
1.637337e+003;3.265896e-001
1.639266e+003;3.195914e-001
1.641194e+003;3.123901e-001
1.643123e+003;3.051838e-001
1.645051e+003;2.980402e-001
1.646980e+003;2.906419e-001
1.648909e+003;2.834059e-001
1.650837e+003;2.762971e-001
1.652766e+003;2.685778e-001
1.654694e+003;2.612104e-001
1.656623e+003;2.540508e-001
1.658551e+003;2.466554e-001
1.660480e+003;2.392112e-001
1.662408e+003;2.318498e-001
1.664337e+003;2.248693e-001
1.666266e+003;2.180798e-001
1.668194e+003;2.116006e-001
1.670123e+003;2.056417e-001
1.672051e+003;1.997787e-001
1.673980e+003;1.941367e-001
1.675908e+003;1.890018e-001
1.677837e+003;1.839363e-001
1.679765e+003;1.787885e-001
1.681694e+003;1.739720e-001
1.683622e+003;1.696688e-001
1.685551e+003;1.659745e-001
1.687479e+003;1.628477e-001
1.689408e+003;1.600705e-001
1.691337e+003;1.580367e-001
1.693265e+003;1.569828e-001
1.695194e+003;1.556375e-001
1.697122e+003;1.533456e-001
1.699051e+003;1.491870e-001
1.700979e+003;1.417701e-001
1.702908e+003;1.316534e-001
1.704836e+003;1.202725e-001
1.706765e+003;1.091179e-001
1.708693e+003;9.939533e-002
1.710622e+003;9.191887e-002
1.712551e+003;8.618809e-002
1.714479e+003;8.145101e-002
1.716408e+003;7.750850e-002
1.718336e+003;7.477714e-002
1.720265e+003;7.294481e-002
1.722193e+003;7.150161e-002
1.724122e+003;7.046267e-002
1.726050e+003;6.988387e-002
1.727979e+003;6.949004e-002
1.729908e+003;6.919322e-002
1.731836e+003;6.878235e-002
1.733765e+003;6.815869e-002
1.735693e+003;6.766713e-002
1.737622e+003;6.745452e-002
1.739550e+003;6.701134e-002
1.741479e+003;6.632502e-002
1.743407e+003;6.537065e-002
1.745336e+003;6.464392e-002
1.747265e+003;6.371852e-002
1.749193e+003;6.267228e-002
1.751122e+003;6.179343e-002
1.753050e+003;6.120096e-002
1.754979e+003;6.032668e-002
1.756907e+003;5.922123e-002
1.758836e+003;5.846559e-002
1.760764e+003;5.789763e-002
1.762693e+003;5.748781e-002
1.764621e+003;5.724312e-002
1.766550e+003;5.700722e-002
1.768479e+003;5.664052e-002
1.770407e+003;5.635514e-002
1.772336e+003;5.619843e-002
1.774264e+003;5.605473e-002
1.776193e+003;5.584205e-002
1.778121e+003;5.551432e-002
1.780050e+003;5.527002e-002
1.781978e+003;5.517129e-002
1.783907e+003;5.508691e-002
1.785835e+003;5.508420e-002
1.787764e+003;5.489422e-002
1.789693e+003;5.446494e-002
1.791621e+003;5.406270e-002
1.793550e+003;5.385767e-002
1.795478e+003;5.378217e-002
1.797407e+003;5.367507e-002
1.799335e+003;5.362896e-002
1.801264e+003;5.342334e-002
1.803192e+003;5.324243e-002
1.805121e+003;5.322333e-002
1.807049e+003;5.328052e-002
1.808978e+003;5.331765e-002
1.810907e+003;5.303426e-002
1.812835e+003;5.254972e-002
1.814764e+003;5.226093e-002
1.816692e+003;5.209474e-002
1.818621e+003;5.197350e-002
1.820549e+003;5.187708e-002
1.822478e+003;5.187790e-002
1.824406e+003;5.167356e-002
1.826335e+003;5.142869e-002
1.828264e+003;5.116462e-002
1.830192e+003;5.095622e-002
1.832121e+003;5.093688e-002
1.834049e+003;5.097697e-002
1.835978e+003;5.094831e-002
1.837906e+003;5.080273e-002
1.839835e+003;5.063687e-002
1.841763e+003;5.062477e-002
1.843692e+003;5.054660e-002
1.845620e+003;5.030125e-002
1.847549e+003;5.018653e-002
1.849478e+003;5.020810e-002
1.851406e+003;5.025590e-002
1.853335e+003;5.020609e-002
1.855263e+003;5.013707e-002
1.857192e+003;5.007716e-002
1.859120e+003;5.000328e-002
1.861049e+003;5.005946e-002
1.862977e+003;5.019758e-002
1.864906e+003;5.015202e-002
1.866834e+003;5.015005e-002
1.868763e+003;5.001206e-002
1.870692e+003;4.986062e-002
1.872620e+003;4.992737e-002
1.874549e+003;5.003068e-002
1.876477e+003;4.997889e-002
1.878406e+003;4.987902e-002
1.880334e+003;4.983579e-002
1.882263e+003;4.982472e-002
1.884191e+003;4.987497e-002
1.886120e+003;4.981067e-002
1.888048e+003;4.985924e-002
1.889977e+003;4.998863e-002
1.891906e+003;4.992782e-002
1.893834e+003;4.974375e-002
1.895763e+003;4.959081e-002
1.897691e+003;4.945181e-002
1.899620e+003;4.940636e-002
1.901548e+003;4.947361e-002
1.903477e+003;4.951297e-002
1.905405e+003;4.952756e-002
1.907334e+003;4.955326e-002
1.909262e+003;4.950669e-002
1.911191e+003;4.926828e-002
1.913120e+003;4.900622e-002
1.915048e+003;4.910163e-002
1.916977e+003;4.924471e-002
1.918905e+003;4.902740e-002
1.920834e+003;4.888242e-002
1.922762e+003;4.901252e-002
1.924691e+003;4.900770e-002
1.926619e+003;4.883299e-002
1.928548e+003;4.874161e-002
1.930477e+003;4.889818e-002
1.932405e+003;4.888350e-002
1.934334e+003;4.899427e-002
1.936262e+003;4.925388e-002
1.938191e+003;4.917777e-002
1.940119e+003;4.900195e-002
1.942048e+003;4.884304e-002
1.943976e+003;4.870224e-002
1.945905e+003;4.893608e-002
1.947833e+003;4.914444e-002
1.949762e+003;4.904613e-002
1.951691e+003;4.911803e-002
1.953619e+003;4.946800e-002
1.955548e+003;4.970125e-002
1.957476e+003;4.986947e-002
1.959405e+003;4.980788e-002
1.961333e+003;4.961180e-002
1.963262e+003;4.951401e-002
1.965190e+003;4.961436e-002
1.967119e+003;4.964478e-002
1.969047e+003;4.956158e-002
1.970976e+003;4.960288e-002
1.972905e+003;4.958123e-002
1.974833e+003;4.958843e-002
1.976762e+003;4.974936e-002
1.978690e+003;4.981691e-002
1.980619e+003;4.978202e-002
1.982547e+003;4.967717e-002
1.984476e+003;4.956786e-002
1.986404e+003;4.959133e-002
1.988333e+003;4.949385e-002
1.990261e+003;4.943488e-002
1.992190e+003;4.949845e-002
1.994119e+003;4.946083e-002
1.996047e+003;4.941784e-002
1.997976e+003;4.952938e-002
1.999904e+003;4.967231e-002
2.001833e+003;4.964107e-002
2.003761e+003;4.953321e-002
2.005690e+003;4.953105e-002
2.007618e+003;4.944048e-002
2.009547e+003;4.935402e-002
2.011476e+003;4.934414e-002
2.013404e+003;4.922359e-002
2.015333e+003;4.936405e-002
2.017261e+003;4.972640e-002
2.019190e+003;4.980097e-002
2.021118e+003;4.975460e-002
2.023047e+003;4.981394e-002
2.024975e+003;4.980161e-002
2.026904e+003;4.981829e-002
2.028833e+003;4.984204e-002
2.030761e+003;4.987508e-002
2.032690e+003;5.001384e-002
2.034618e+003;5.012576e-002
2.036547e+003;5.007987e-002
2.038475e+003;5.002797e-002
2.040404e+003;5.005705e-002
2.042332e+003;4.999979e-002
2.044261e+003;4.975891e-002
2.046189e+003;4.976110e-002
2.048118e+003;4.998221e-002
2.050047e+003;5.012788e-002
2.051975e+003;5.016823e-002
2.053904e+003;5.010140e-002
2.055832e+003;5.016939e-002
2.057761e+003;5.029522e-002
2.059689e+003;5.037097e-002
2.061618e+003;5.035267e-002
2.063546e+003;5.023429e-002
2.065475e+003;5.012892e-002
2.067404e+003;5.028745e-002
2.069332e+003;5.054451e-002
2.071260e+003;5.064253e-002
2.073189e+003;5.049389e-002
2.075118e+003;5.042192e-002
2.077046e+003;5.040576e-002
2.078975e+003;5.047748e-002
2.080903e+003;5.068937e-002
2.082832e+003;5.077421e-002
2.084760e+003;5.076739e-002
2.086689e+003;5.098289e-002
2.088617e+003;5.099608e-002
2.090546e+003;5.066808e-002
2.092475e+003;5.053413e-002
2.094403e+003;5.063665e-002
2.096332e+003;5.053107e-002
2.098260e+003;5.065512e-002
2.100189e+003;5.101367e-002
2.102117e+003;5.108694e-002
2.104046e+003;5.091348e-002
2.105974e+003;5.066037e-002
2.107903e+003;5.051034e-002
2.109832e+003;5.061290e-002
2.111760e+003;5.068237e-002
2.113688e+003;5.063855e-002
2.115617e+003;5.060813e-002
2.117546e+003;5.061867e-002
2.119474e+003;5.052825e-002
2.121403e+003;5.047379e-002
2.123331e+003;5.049311e-002
2.125260e+003;5.034865e-002
2.127188e+003;5.031818e-002
2.129117e+003;5.029586e-002
2.131045e+003;5.037306e-002
2.132974e+003;5.058669e-002
2.134903e+003;5.052236e-002
2.136831e+003;5.049940e-002
2.138760e+003;5.055084e-002
2.140688e+003;5.043129e-002
2.142617e+003;5.049236e-002
2.144545e+003;5.053644e-002
2.146474e+003;5.050841e-002
2.148402e+003;5.037626e-002
2.150331e+003;5.052765e-002
2.152260e+003;5.078099e-002
2.154188e+003;5.080337e-002
2.156117e+003;5.072777e-002
2.158045e+003;5.058322e-002
2.159974e+003;5.062455e-002
2.161902e+003;5.064469e-002
2.163831e+003;5.075156e-002
2.165759e+003;5.075625e-002
2.167688e+003;5.046650e-002
2.169616e+003;5.050666e-002
2.171545e+003;5.059972e-002
2.173474e+003;5.066193e-002
2.175402e+003;5.061037e-002
2.177331e+003;5.040134e-002
2.179259e+003;5.040096e-002
2.181188e+003;5.051570e-002
2.183116e+003;5.050364e-002
2.185045e+003;5.053565e-002
2.186973e+003;5.067046e-002
2.188902e+003;5.051790e-002
2.190831e+003;5.039635e-002
2.192759e+003;5.046747e-002
2.194688e+003;5.060582e-002
2.196616e+003;5.059201e-002
2.198545e+003;5.041321e-002
2.200473e+003;5.023779e-002
2.202402e+003;5.016742e-002
2.204330e+003;5.018962e-002
2.206259e+003;5.020119e-002
2.208188e+003;5.024950e-002
2.210116e+003;5.027785e-002
2.212044e+003;5.001317e-002
2.213973e+003;5.014313e-002
2.215902e+003;5.035449e-002
2.217830e+003;5.040342e-002
2.219759e+003;5.061971e-002
2.221687e+003;5.055051e-002
2.223616e+003;5.030344e-002
2.225544e+003;5.038493e-002
2.227473e+003;5.044793e-002
2.229401e+003;5.036941e-002
2.231330e+003;5.037923e-002
2.233259e+003;5.039817e-002
2.235187e+003;5.023485e-002
2.237116e+003;5.016436e-002
2.239044e+003;5.012665e-002
2.240973e+003;5.004236e-002
2.242901e+003;5.000432e-002
2.244830e+003;4.988392e-002
2.246758e+003;4.972885e-002
2.248687e+003;4.979046e-002
2.250615e+003;5.000499e-002
2.252544e+003;5.006065e-002
2.254473e+003;5.019181e-002
2.256401e+003;5.008155e-002
2.258330e+003;4.988195e-002
2.260258e+003;4.986846e-002
2.262187e+003;5.004585e-002
2.264115e+003;5.009099e-002
2.266044e+003;4.984508e-002
2.267972e+003;4.983925e-002
2.269901e+003;4.992284e-002
2.271830e+003;4.986913e-002
2.273758e+003;4.982093e-002
2.275687e+003;4.986631e-002
2.277615e+003;4.989139e-002
2.279544e+003;5.002548e-002
2.281472e+003;5.009300e-002
2.283401e+003;5.016615e-002
2.285329e+003;5.037291e-002
2.287258e+003;5.028990e-002
2.289187e+003;5.003024e-002
2.291115e+003;5.010118e-002
2.293043e+003;5.026542e-002
2.294972e+003;5.023518e-002
2.296901e+003;5.014261e-002
2.298829e+003;5.015213e-002
2.300758e+003;5.031672e-002
2.302686e+003;5.033920e-002
2.304615e+003;5.025122e-002
2.306543e+003;5.026695e-002
2.308472e+003;5.031561e-002
2.310400e+003;5.032733e-002
2.312329e+003;5.052958e-002
2.314258e+003;5.062764e-002
2.316186e+003;5.056867e-002
2.318115e+003;5.053379e-002
2.320043e+003;5.046307e-002
2.321972e+003;5.034147e-002
2.323900e+003;5.024526e-002
2.325829e+003;5.026353e-002
2.327757e+003;5.034649e-002
2.329686e+003;5.041350e-002
2.331615e+003;5.050733e-002
2.333543e+003;5.066231e-002
2.335472e+003;5.083019e-002
2.337400e+003;5.060757e-002
2.339329e+003;5.037548e-002
2.341257e+003;5.041377e-002
2.343186e+003;5.047573e-002
2.345114e+003;5.059160e-002
2.347043e+003;5.046002e-002
2.348971e+003;5.038329e-002
2.350900e+003;5.038437e-002
2.352829e+003;5.042091e-002
2.354757e+003;5.073395e-002
2.356686e+003;5.091754e-002
2.358614e+003;5.086956e-002
2.360543e+003;5.067578e-002
2.362471e+003;5.055047e-002
2.364400e+003;5.066022e-002
2.366328e+003;5.082750e-002
2.368257e+003;5.087220e-002
2.370186e+003;5.086408e-002
2.372114e+003;5.070836e-002
2.374042e+003;5.081678e-002
2.375971e+003;5.105489e-002
2.377900e+003;5.106130e-002
2.379828e+003;5.111709e-002
2.381757e+003;5.126311e-002
2.383685e+003;5.120163e-002
2.385614e+003;5.112552e-002
2.387542e+003;5.126132e-002
2.389471e+003;5.140497e-002
2.391399e+003;5.142235e-002
2.393328e+003;5.143597e-002
2.395257e+003;5.143265e-002
2.397185e+003;5.173440e-002
2.399114e+003;5.189649e-002
2.401042e+003;5.193637e-002
2.402971e+003;5.209582e-002
2.404899e+003;5.230656e-002
2.406828e+003;5.244076e-002
2.408756e+003;5.265639e-002
2.410685e+003;5.277266e-002
2.412614e+003;5.284656e-002
2.414542e+003;5.319071e-002
2.416471e+003;5.367957e-002
2.418399e+003;5.400063e-002
2.420328e+003;5.421384e-002
2.422256e+003;5.408375e-002
2.424185e+003;5.420427e-002
2.426113e+003;5.455363e-002
2.428042e+003;5.467413e-002
2.429970e+003;5.465850e-002
2.431899e+003;5.483026e-002
2.433828e+003;5.504076e-002
2.435756e+003;5.525369e-002
2.437685e+003;5.540216e-002
2.439613e+003;5.531804e-002
2.441542e+003;5.521542e-002
2.443470e+003;5.528654e-002
2.445399e+003;5.543458e-002
2.447327e+003;5.565983e-002
2.449256e+003;5.580219e-002
2.451185e+003;5.564830e-002
2.453113e+003;5.562646e-002
2.455042e+003;5.572846e-002
2.456970e+003;5.581575e-002
2.458899e+003;5.575939e-002
2.460827e+003;5.569260e-002
2.462756e+003;5.581940e-002
2.464684e+003;5.598560e-002
2.466613e+003;5.617369e-002
2.468542e+003;5.638657e-002
2.470470e+003;5.637129e-002
2.472398e+003;5.632561e-002
2.474327e+003;5.656419e-002
2.476256e+003;5.674494e-002
2.478184e+003;5.689404e-002
2.480113e+003;5.700590e-002
2.482041e+003;5.714666e-002
2.483970e+003;5.719277e-002
2.485898e+003;5.720604e-002
2.487827e+003;5.719300e-002
2.489755e+003;5.733144e-002
2.491684e+003;5.737171e-002
2.493613e+003;5.729862e-002
2.495541e+003;5.733851e-002
2.497470e+003;5.745853e-002
2.499398e+003;5.724614e-002
2.501327e+003;5.695716e-002
2.503255e+003;5.697651e-002
2.505184e+003;5.703099e-002
2.507112e+003;5.702339e-002
2.509041e+003;5.727835e-002
2.510969e+003;5.751137e-002
2.512898e+003;5.750211e-002
2.514827e+003;5.750275e-002
2.516755e+003;5.762377e-002
2.518684e+003;5.774966e-002
2.520612e+003;5.791679e-002
2.522541e+003;5.816727e-002
2.524469e+003;5.811272e-002
2.526398e+003;5.763175e-002
2.528326e+003;5.744624e-002
2.530255e+003;5.775731e-002
2.532184e+003;5.803546e-002
2.534112e+003;5.805587e-002
2.536041e+003;5.815488e-002
2.537969e+003;5.836048e-002
2.539898e+003;5.834380e-002
2.541826e+003;5.829533e-002
2.543755e+003;5.860894e-002
2.545683e+003;5.883562e-002
2.547612e+003;5.878402e-002
2.549541e+003;5.873384e-002
2.551469e+003;5.896043e-002
2.553397e+003;5.948368e-002
2.555326e+003;5.977431e-002
2.557255e+003;5.968052e-002
2.559183e+003;5.975766e-002
2.561112e+003;5.991198e-002
2.563040e+003;5.975785e-002
2.564969e+003;5.965744e-002
2.566897e+003;5.998801e-002
2.568826e+003;6.042389e-002
2.570754e+003;6.035760e-002
2.572683e+003;6.054649e-002
2.574612e+003;6.098376e-002
2.576540e+003;6.120821e-002
2.578469e+003;6.131966e-002
2.580397e+003;6.135030e-002
2.582326e+003;6.141838e-002
2.584254e+003;6.167693e-002
2.586183e+003;6.198329e-002
2.588111e+003;6.228213e-002
2.590040e+003;6.262956e-002
2.591969e+003;6.288742e-002
2.593897e+003;6.289159e-002
2.595826e+003;6.285708e-002
2.597754e+003;6.299040e-002
2.599683e+003;6.327281e-002
2.601611e+003;6.350600e-002
2.603540e+003;6.365007e-002
2.605468e+003;6.368372e-002
2.607397e+003;6.363856e-002
2.609325e+003;6.372646e-002
2.611254e+003;6.410945e-002
2.613183e+003;6.430886e-002
2.615111e+003;6.429718e-002
2.617040e+003;6.427574e-002
2.618968e+003;6.421120e-002
2.620897e+003;6.431896e-002
2.622825e+003;6.456464e-002
2.624754e+003;6.465141e-002
2.626682e+003;6.445785e-002
2.628611e+003;6.421789e-002
2.630540e+003;6.404444e-002
2.632468e+003;6.405497e-002
2.634396e+003;6.414552e-002
2.636325e+003;6.404548e-002
2.638254e+003;6.410784e-002
2.640182e+003;6.429245e-002
2.642111e+003;6.429841e-002
2.644039e+003;6.399376e-002
2.645968e+003;6.393878e-002
2.647896e+003;6.422795e-002
2.649825e+003;6.445931e-002
2.651753e+003;6.476963e-002
2.653682e+003;6.476218e-002
2.655611e+003;6.459566e-002
2.657539e+003;6.475398e-002
2.659468e+003;6.476360e-002
2.661396e+003;6.473213e-002
2.663325e+003;6.508791e-002
2.665253e+003;6.562767e-002
2.667182e+003;6.564786e-002
2.669110e+003;6.550302e-002
2.671039e+003;6.576585e-002
2.672968e+003;6.592572e-002
2.674896e+003;6.601157e-002
2.676825e+003;6.609073e-002
2.678753e+003;6.602160e-002
2.680682e+003;6.609791e-002
2.682610e+003;6.626291e-002
2.684539e+003;6.641994e-002
2.686467e+003;6.660949e-002
2.688396e+003;6.672356e-002
2.690324e+003;6.684988e-002
2.692253e+003;6.694157e-002
2.694182e+003;6.704641e-002
2.696110e+003;6.726415e-002
2.698039e+003;6.729534e-002
2.699967e+003;6.724988e-002
2.701896e+003;6.755752e-002
2.703824e+003;6.819998e-002
2.705753e+003;6.834875e-002
2.707681e+003;6.827961e-002
2.709610e+003;6.841926e-002
2.711539e+003;6.861934e-002
2.713467e+003;6.900205e-002
2.715396e+003;6.921902e-002
2.717324e+003;6.922614e-002
2.719253e+003;6.931824e-002
2.721181e+003;6.959981e-002
2.723110e+003;6.987651e-002
2.725038e+003;7.011709e-002
2.726967e+003;7.028761e-002
2.728896e+003;7.035193e-002
2.730824e+003;7.076129e-002
2.732752e+003;7.115151e-002
2.734681e+003;7.144255e-002
2.736610e+003;7.162672e-002
2.738538e+003;7.139041e-002
2.740467e+003;7.149064e-002
2.742395e+003;7.199551e-002
2.744324e+003;7.229992e-002
2.746252e+003;7.233964e-002
2.748181e+003;7.251729e-002
2.750109e+003;7.261883e-002
2.752038e+003;7.278065e-002
2.753967e+003;7.315470e-002
2.755895e+003;7.325459e-002
2.757824e+003;7.326440e-002
2.759752e+003;7.355505e-002
2.761681e+003;7.371518e-002
2.763609e+003;7.382191e-002
2.765538e+003;7.402913e-002
2.767466e+003;7.384497e-002
2.769395e+003;7.400921e-002
2.771323e+003;7.450608e-002
2.773252e+003;7.478993e-002
2.775181e+003;7.521237e-002
2.777109e+003;7.536747e-002
2.779038e+003;7.527296e-002
2.780966e+003;7.535091e-002
2.782895e+003;7.571464e-002
2.784823e+003;7.593590e-002
2.786752e+003;7.596408e-002
2.788680e+003;7.617943e-002
2.790609e+003;7.632465e-002
2.792538e+003;7.627124e-002
2.794466e+003;7.659392e-002
2.796395e+003;7.695782e-002
2.798323e+003;7.711042e-002
2.800252e+003;7.744339e-002
2.802180e+003;7.757655e-002
2.804109e+003;7.754526e-002
2.806037e+003;7.766038e-002
2.807966e+003;7.807558e-002
2.809895e+003;7.835840e-002
2.811823e+003;7.822734e-002
2.813751e+003;7.834721e-002
2.815680e+003;7.845569e-002
2.817609e+003;7.849292e-002
2.819537e+003;7.875822e-002
2.821466e+003;7.920310e-002
2.823394e+003;7.951030e-002
2.825323e+003;7.957087e-002
2.827251e+003;7.976583e-002
2.829180e+003;7.986116e-002
2.831108e+003;7.980672e-002
2.833037e+003;8.011705e-002
2.834966e+003;8.077905e-002
2.836894e+003;8.166406e-002
2.838823e+003;8.220285e-002
2.840751e+003;8.277702e-002
2.842680e+003;8.385087e-002
2.844608e+003;8.487815e-002
2.846537e+003;8.618045e-002
2.848465e+003;8.751362e-002
2.850394e+003;8.853839e-002
2.852323e+003;8.938862e-002
2.854251e+003;8.988544e-002
2.856180e+003;8.986261e-002
2.858108e+003;8.979717e-002
2.860037e+003;8.960246e-002
2.861965e+003;8.933680e-002
2.863894e+003;8.943270e-002
2.865822e+003;9.002911e-002
2.867751e+003;9.044856e-002
2.869679e+003;9.055830e-002
2.871608e+003;9.087899e-002
2.873536e+003;9.115565e-002
2.875465e+003;9.136730e-002
2.877394e+003;9.137511e-002
2.879322e+003;9.093883e-002
2.881251e+003;9.082671e-002
2.883179e+003;9.111293e-002
2.885108e+003;9.134227e-002
2.887036e+003;9.128691e-002
2.888965e+003;9.121990e-002
2.890893e+003;9.149608e-002
2.892822e+003;9.194835e-002
2.894750e+003;9.244807e-002
2.896679e+003;9.299943e-002
2.898608e+003;9.340700e-002
2.900536e+003;9.391293e-002
2.902465e+003;9.460714e-002
2.904393e+003;9.533069e-002
2.906322e+003;9.592704e-002
2.908250e+003;9.645213e-002
2.910179e+003;9.740358e-002
2.912107e+003;9.890154e-002
2.914036e+003;1.002803e-001
2.915965e+003;1.012991e-001
2.917893e+003;1.025923e-001
2.919822e+003;1.039787e-001
2.921750e+003;1.052453e-001
2.923679e+003;1.061353e-001
2.925607e+003;1.069510e-001
2.927536e+003;1.074503e-001
2.929464e+003;1.075877e-001
2.931393e+003;1.075824e-001
2.933322e+003;1.071131e-001
2.935250e+003;1.065519e-001
2.937178e+003;1.058707e-001
2.939107e+003;1.046518e-001
2.941036e+003;1.032832e-001
2.942964e+003;1.023545e-001
2.944893e+003;1.015990e-001
2.946821e+003;1.006757e-001
2.948750e+003;9.968260e-002
2.950678e+003;9.881616e-002
2.952607e+003;9.861387e-002
2.954535e+003;9.851355e-002
2.956464e+003;9.812130e-002
2.958393e+003;9.778389e-002
2.960321e+003;9.763688e-002
2.962250e+003;9.761858e-002
2.964178e+003;9.757727e-002
2.966107e+003;9.759311e-002
2.968035e+003;9.757975e-002
2.969964e+003;9.751903e-002
2.971892e+003;9.774750e-002
2.973821e+003;9.766766e-002
2.975750e+003;9.706801e-002
2.977678e+003;9.665114e-002
2.979607e+003;9.626773e-002
2.981535e+003;9.570127e-002
2.983464e+003;9.531856e-002
2.985392e+003;9.540503e-002
2.987321e+003;9.525077e-002
2.989249e+003;9.473430e-002
2.991178e+003;9.387303e-002
2.993106e+003;9.312078e-002
2.995035e+003;9.282132e-002
2.996964e+003;9.212004e-002
2.998892e+003;9.141653e-002
3.000821e+003;9.127170e-002
3.002749e+003;9.105307e-002
3.004678e+003;9.047917e-002
3.006606e+003;9.006723e-002
3.008535e+003;9.014625e-002
3.010463e+003;9.058663e-002
3.012392e+003;9.088977e-002
3.014321e+003;9.095149e-002
3.016249e+003;9.099186e-002
3.018177e+003;9.110010e-002
3.020106e+003;9.163182e-002
3.022035e+003;9.196097e-002
3.023963e+003;9.190409e-002
3.025892e+003;9.232359e-002
3.027820e+003;9.277455e-002
3.029749e+003;9.290573e-002
3.031677e+003;9.327202e-002
3.033606e+003;9.369099e-002
3.035534e+003;9.400441e-002
3.037463e+003;9.461180e-002
3.039392e+003;9.533358e-002
3.041320e+003;9.558993e-002
3.043249e+003;9.605773e-002
3.045177e+003;9.674682e-002
3.047106e+003;9.713708e-002
3.049034e+003;9.731349e-002
3.050963e+003;9.748369e-002
3.052891e+003;9.793760e-002
3.054820e+003;9.864967e-002
3.056749e+003;9.917728e-002
3.058677e+003;9.957995e-002
3.060606e+003;1.000104e-001
3.062534e+003;1.005081e-001
3.064463e+003;1.005493e-001
3.066391e+003;1.004868e-001
3.068320e+003;1.005487e-001
3.070248e+003;1.005807e-001
3.072177e+003;1.008661e-001
3.074105e+003;1.011059e-001
3.076034e+003;1.010099e-001
3.077963e+003;1.009107e-001
3.079891e+003;1.007967e-001
3.081820e+003;1.005169e-001
3.083748e+003;1.002982e-001
3.085677e+003;1.002797e-001
3.087605e+003;1.003868e-001
3.089534e+003;1.003705e-001
3.091462e+003;1.000708e-001
3.093391e+003;9.956961e-002
3.095320e+003;9.941795e-002
3.097248e+003;9.939558e-002
3.099177e+003;9.884953e-002
3.101105e+003;9.836210e-002
3.103034e+003;9.844239e-002
3.104962e+003;9.826461e-002
3.106891e+003;9.770716e-002
3.108819e+003;9.762456e-002
3.110748e+003;9.754180e-002
3.112677e+003;9.739379e-002
3.114605e+003;9.748801e-002
3.116533e+003;9.771853e-002
3.118462e+003;9.773056e-002
3.120391e+003;9.752749e-002
3.122319e+003;9.725823e-002
3.124248e+003;9.704199e-002
3.126176e+003;9.721076e-002
3.128105e+003;9.756412e-002
3.130033e+003;9.776667e-002
3.131962e+003;9.796633e-002
3.133890e+003;9.777763e-002
3.135819e+003;9.776219e-002
3.137748e+003;9.830628e-002
3.139676e+003;9.885053e-002
3.141605e+003;9.920434e-002
3.143533e+003;9.905173e-002
3.145462e+003;9.896895e-002
3.147390e+003;9.955115e-002
3.149319e+003;1.003430e-001
3.151247e+003;1.009572e-001
3.153176e+003;1.017040e-001
3.155104e+003;1.023583e-001
3.157033e+003;1.029153e-001
3.158962e+003;1.034704e-001
3.160890e+003;1.039489e-001
3.162819e+003;1.044299e-001
3.164747e+003;1.049126e-001
3.166676e+003;1.057895e-001
3.168604e+003;1.066450e-001
3.170533e+003;1.072610e-001
3.172461e+003;1.081674e-001
3.174390e+003;1.088289e-001
3.176319e+003;1.092314e-001
3.178247e+003;1.097830e-001
3.180176e+003;1.109652e-001
3.182104e+003;1.120352e-001
3.184033e+003;1.131187e-001
3.185961e+003;1.140724e-001
3.187890e+003;1.148401e-001
3.189818e+003;1.154989e-001
3.191747e+003;1.162191e-001
3.193676e+003;1.169602e-001
3.195604e+003;1.178030e-001
3.197532e+003;1.186967e-001
3.199461e+003;1.195505e-001
3.201390e+003;1.204585e-001
3.203318e+003;1.213650e-001
3.205247e+003;1.218990e-001
3.207175e+003;1.225750e-001
3.209104e+003;1.235704e-001
3.211032e+003;1.246333e-001
3.212961e+003;1.258835e-001
3.214889e+003;1.269854e-001
3.216818e+003;1.280648e-001
3.218747e+003;1.291820e-001
3.220675e+003;1.303164e-001
3.222604e+003;1.311950e-001
3.224532e+003;1.319685e-001
3.226461e+003;1.330802e-001
3.228389e+003;1.345349e-001
3.230318e+003;1.354703e-001
3.232246e+003;1.363205e-001
3.234175e+003;1.377597e-001
3.236104e+003;1.390495e-001
3.238032e+003;1.401243e-001
3.239961e+003;1.417265e-001
3.241889e+003;1.433434e-001
3.243818e+003;1.449686e-001
3.245746e+003;1.463313e-001
3.247675e+003;1.474983e-001
3.249603e+003;1.489179e-001
3.251532e+003;1.502502e-001
3.253460e+003;1.522996e-001
3.255389e+003;1.544925e-001
3.257318e+003;1.561903e-001
3.259246e+003;1.581886e-001
3.261175e+003;1.600584e-001
3.263103e+003;1.619377e-001
3.265032e+003;1.643139e-001
3.266960e+003;1.665602e-001
3.268889e+003;1.687963e-001
3.270817e+003;1.702734e-001
3.272746e+003;1.712938e-001
3.274675e+003;1.726541e-001
3.276603e+003;1.739577e-001
3.278531e+003;1.748365e-001
3.280460e+003;1.753959e-001
3.282389e+003;1.759789e-001
3.284317e+003;1.762951e-001
3.286246e+003;1.759115e-001
3.288174e+003;1.754913e-001
3.290103e+003;1.749457e-001
3.292031e+003;1.736892e-001
3.293960e+003;1.724451e-001
3.295888e+003;1.715991e-001
3.297817e+003;1.704677e-001
3.299746e+003;1.686170e-001
3.301674e+003;1.669805e-001
3.303603e+003;1.651679e-001
3.305531e+003;1.627484e-001
3.307460e+003;1.605131e-001
3.309388e+003;1.583403e-001
3.311317e+003;1.561582e-001
3.313245e+003;1.540899e-001
3.315174e+003;1.523628e-001
3.317103e+003;1.504156e-001
3.319031e+003;1.475369e-001
3.320960e+003;1.450980e-001
3.322888e+003;1.430620e-001
3.324817e+003;1.411944e-001
3.326745e+003;1.395244e-001
3.328674e+003;1.376478e-001
3.330602e+003;1.358179e-001
3.332531e+003;1.338546e-001
3.334459e+003;1.318181e-001
3.336388e+003;1.300980e-001
3.338317e+003;1.282354e-001
3.340245e+003;1.261630e-001
3.342174e+003;1.250689e-001
3.344102e+003;1.240636e-001
3.346031e+003;1.226562e-001
3.347959e+003;1.212370e-001
3.349888e+003;1.199973e-001
3.351816e+003;1.191352e-001
3.353745e+003;1.181895e-001
3.355674e+003;1.170834e-001
3.357602e+003;1.156194e-001
3.359531e+003;1.145588e-001
3.361459e+003;1.139797e-001
3.363388e+003;1.130121e-001
3.365316e+003;1.119911e-001
3.367245e+003;1.111816e-001
3.369173e+003;1.103285e-001
3.371102e+003;1.097811e-001
3.373031e+003;1.095961e-001
3.374959e+003;1.087478e-001
3.376887e+003;1.073745e-001
3.378816e+003;1.066977e-001
3.380745e+003;1.065231e-001
3.382673e+003;1.061830e-001
3.384602e+003;1.053796e-001
3.386530e+003;1.044209e-001
3.388459e+003;1.038360e-001
3.390387e+003;1.036801e-001
3.392316e+003;1.028503e-001
3.394244e+003;1.019001e-001
3.396173e+003;1.015355e-001
3.398102e+003;1.012496e-001
3.400030e+003;1.003780e-001
3.401959e+003;9.962066e-002
3.403887e+003;9.936193e-002
3.405816e+003;9.848707e-002
3.407744e+003;9.730531e-002
3.409673e+003;9.662362e-002
3.411601e+003;9.631558e-002
3.413530e+003;9.553791e-002
3.415458e+003;9.469074e-002
3.417387e+003;9.423182e-002
3.419316e+003;9.344193e-002
3.421244e+003;9.274235e-002
3.423173e+003;9.243295e-002
3.425101e+003;9.199688e-002
3.427030e+003;9.140337e-002
3.428958e+003;9.086951e-002
3.430887e+003;9.003127e-002
3.432815e+003;8.937591e-002
3.434744e+003;8.900557e-002
3.436673e+003;8.843103e-002
3.438601e+003;8.796176e-002
3.440530e+003;8.735310e-002
3.442458e+003;8.662956e-002
3.444387e+003;8.621217e-002
3.446315e+003;8.587226e-002
3.448244e+003;8.535036e-002
3.450172e+003;8.477729e-002
3.452101e+003;8.478337e-002
3.454030e+003;8.500080e-002
3.455958e+003;8.473053e-002
3.457886e+003;8.438493e-002
3.459815e+003;8.393311e-002
3.461744e+003;8.319730e-002
3.463672e+003;8.255665e-002
3.465601e+003;8.233444e-002
3.467529e+003;8.238454e-002
3.469458e+003;8.239640e-002
3.471386e+003;8.189670e-002
3.473315e+003;8.150998e-002
3.475243e+003;8.152984e-002
3.477172e+003;8.145821e-002
3.479101e+003;8.098874e-002
3.481029e+003;8.068301e-002
3.482958e+003;8.032893e-002
3.484886e+003;7.963888e-002
3.486815e+003;7.951085e-002
3.488743e+003;7.957922e-002
3.490672e+003;7.891949e-002
3.492600e+003;7.850451e-002
3.494529e+003;7.814285e-002
3.496458e+003;7.758617e-002
3.498386e+003;7.758193e-002
3.500315e+003;7.787792e-002
3.502243e+003;7.759624e-002
3.504172e+003;7.691142e-002
3.506100e+003;7.673011e-002
3.508029e+003;7.683505e-002
3.509957e+003;7.679313e-002
3.511886e+003;7.653788e-002
3.513814e+003;7.610137e-002
3.515743e+003;7.543968e-002
3.517672e+003;7.505164e-002
3.519600e+003;7.495040e-002
3.521529e+003;7.485575e-002
3.523457e+003;7.466695e-002
3.525386e+003;7.424092e-002
3.527314e+003;7.403121e-002
3.529243e+003;7.332343e-002
3.531171e+003;7.240979e-002
3.533100e+003;7.244118e-002
3.535029e+003;7.224842e-002
3.536957e+003;7.180658e-002
3.538885e+003;7.133660e-002
3.540814e+003;7.093630e-002
3.542743e+003;7.030112e-002
3.544671e+003;6.976304e-002
3.546600e+003;6.966100e-002
3.548528e+003;6.957582e-002
3.550457e+003;6.939000e-002
3.552385e+003;6.893506e-002
3.554314e+003;6.888590e-002
3.556242e+003;6.869762e-002
3.558171e+003;6.785891e-002
3.560100e+003;6.745897e-002
3.562028e+003;6.729073e-002
3.563957e+003;6.709892e-002
3.565885e+003;6.679068e-002
3.567814e+003;6.647960e-002
3.569742e+003;6.609903e-002
3.571671e+003;6.552497e-002
3.573599e+003;6.511717e-002
3.575528e+003;6.490743e-002
3.577457e+003;6.457790e-002
3.579385e+003;6.426687e-002
3.581314e+003;6.411967e-002
3.583242e+003;6.386992e-002
3.585171e+003;6.350727e-002
3.587099e+003;6.334829e-002
3.589028e+003;6.342850e-002
3.590956e+003;6.355835e-002
3.592885e+003;6.301913e-002
3.594813e+003;6.230554e-002
3.596742e+003;6.205369e-002
3.598671e+003;6.166857e-002
3.600599e+003;6.127101e-002
3.602528e+003;6.106704e-002
3.604456e+003;6.089379e-002
3.606385e+003;6.022973e-002
3.608313e+003;5.957390e-002
3.610242e+003;5.946100e-002
3.612170e+003;5.929396e-002
3.614099e+003;5.903588e-002
3.616028e+003;5.840327e-002
3.617956e+003;5.761431e-002
3.619885e+003;5.749314e-002
3.621813e+003;5.727257e-002
3.623742e+003;5.704905e-002
3.625670e+003;5.694050e-002
3.627599e+003;5.633508e-002
3.629527e+003;5.568891e-002
3.631456e+003;5.562457e-002
3.633385e+003;5.505870e-002
3.635313e+003;5.440962e-002
3.637241e+003;5.390249e-002
3.639170e+003;5.318962e-002
3.641099e+003;5.269461e-002
3.643027e+003;5.229472e-002
3.644956e+003;5.225951e-002
3.646884e+003;5.218280e-002
3.648813e+003;5.161500e-002
3.650741e+003;5.048347e-002
3.652670e+003;4.977351e-002
3.654598e+003;4.976185e-002
3.656527e+003;4.943094e-002
3.658456e+003;4.855360e-002
3.660384e+003;4.764859e-002
3.662313e+003;4.693158e-002
3.664241e+003;4.644734e-002
3.666170e+003;4.604685e-002
3.668098e+003;4.562774e-002
3.670027e+003;4.476578e-002
3.671955e+003;4.406851e-002
3.673884e+003;4.339942e-002
3.675813e+003;4.304977e-002
3.677741e+003;4.317027e-002
3.679669e+003;4.263905e-002
3.681598e+003;4.195683e-002
3.683527e+003;4.133093e-002
3.685455e+003;4.103264e-002
3.687384e+003;4.039580e-002
3.689312e+003;3.957944e-002
3.691241e+003;3.920953e-002
3.693169e+003;3.856609e-002
3.695098e+003;3.811321e-002
3.697026e+003;3.775084e-002
3.698955e+003;3.745298e-002
3.700884e+003;3.717488e-002
3.702812e+003;3.672169e-002
3.704741e+003;3.649152e-002
3.706669e+003;3.599502e-002
3.708598e+003;3.547172e-002
3.710526e+003;3.529953e-002
3.712455e+003;3.529375e-002
3.714383e+003;3.522759e-002
3.716312e+003;3.492028e-002
3.718240e+003;3.461646e-002
3.720169e+003;3.450294e-002
3.722098e+003;3.445333e-002
3.724026e+003;3.438716e-002
3.725955e+003;3.417343e-002
3.727883e+003;3.406454e-002
3.729812e+003;3.332122e-002
3.731740e+003;3.241684e-002
3.733669e+003;3.296921e-002
3.735597e+003;3.366094e-002
3.737526e+003;3.338501e-002
3.739455e+003;3.272138e-002
3.741383e+003;3.246108e-002
3.743312e+003;3.243152e-002
3.745240e+003;3.242120e-002
3.747169e+003;3.280735e-002
3.749097e+003;3.298087e-002
3.751026e+003;3.260725e-002
3.752954e+003;3.241891e-002
3.754883e+003;3.263961e-002
3.756812e+003;3.273992e-002
3.758740e+003;3.248636e-002
3.760668e+003;3.220382e-002
3.762597e+003;3.198688e-002
3.764526e+003;3.176609e-002
3.766454e+003;3.224993e-002
3.768383e+003;3.253942e-002
3.770311e+003;3.232917e-002
3.772240e+003;3.209172e-002
3.774168e+003;3.199612e-002
3.776097e+003;3.200932e-002
3.778025e+003;3.174634e-002
3.779954e+003;3.156469e-002
3.781883e+003;3.161044e-002
3.783811e+003;3.177030e-002
3.785740e+003;3.181190e-002
3.787668e+003;3.185850e-002
3.789597e+003;3.201528e-002
3.791525e+003;3.193535e-002
3.793454e+003;3.155076e-002
3.795382e+003;3.141403e-002
3.797311e+003;3.185137e-002
3.799240e+003;3.207545e-002
3.801168e+003;3.181101e-002
3.803097e+003;3.194751e-002
3.805025e+003;3.217135e-002
3.806954e+003;3.173611e-002
3.808882e+003;3.132118e-002
3.810811e+003;3.133389e-002
3.812739e+003;3.157794e-002
3.814668e+003;3.181126e-002
3.816596e+003;3.198977e-002
3.818525e+003;3.179982e-002
3.820454e+003;3.169298e-002
3.822382e+003;3.204570e-002
3.824311e+003;3.240010e-002
3.826239e+003;3.276893e-002
3.828168e+003;3.289619e-002
3.830096e+003;3.284780e-002
3.832025e+003;3.262700e-002
3.833953e+003;3.224051e-002
3.835882e+003;3.192957e-002
3.837811e+003;3.188888e-002
3.839739e+003;3.187009e-002
3.841667e+003;3.193706e-002
3.843596e+003;3.227848e-002
3.845525e+003;3.262321e-002
3.847453e+003;3.273185e-002
3.849382e+003;3.252614e-002
3.851310e+003;3.201046e-002
3.853239e+003;3.158097e-002
3.855167e+003;3.191213e-002
3.857096e+003;3.264525e-002
3.859024e+003;3.295513e-002
3.860953e+003;3.274753e-002
3.862882e+003;3.296965e-002
3.864810e+003;3.316698e-002
3.866739e+003;3.333066e-002
3.868667e+003;3.351281e-002
3.870596e+003;3.374870e-002
3.872524e+003;3.415726e-002
3.874453e+003;3.396012e-002
3.876381e+003;3.384340e-002
3.878310e+003;3.414181e-002
3.880239e+003;3.440466e-002
3.882167e+003;3.430267e-002
3.884096e+003;3.390240e-002
3.886024e+003;3.389635e-002
3.887953e+003;3.435506e-002
3.889881e+003;3.415737e-002
3.891810e+003;3.387897e-002
3.893738e+003;3.427606e-002
3.895667e+003;3.442593e-002
3.897595e+003;3.462529e-002
3.899524e+003;3.497153e-002
3.901453e+003;3.491712e-002
3.903381e+003;3.450047e-002
3.905310e+003;3.488844e-002
3.907238e+003;3.527567e-002
3.909167e+003;3.538123e-002
3.911095e+003;3.563350e-002
3.913024e+003;3.560272e-002
3.914952e+003;3.520642e-002
3.916881e+003;3.526076e-002
3.918810e+003;3.595309e-002
3.920738e+003;3.606525e-002
3.922667e+003;3.591724e-002
3.924595e+003;3.598368e-002
3.926524e+003;3.604988e-002
3.928452e+003;3.620742e-002
3.930381e+003;3.634300e-002
3.932309e+003;3.639502e-002
3.934238e+003;3.634725e-002
3.936167e+003;3.629786e-002
3.938095e+003;3.629966e-002
3.940023e+003;3.625727e-002
3.941952e+003;3.661357e-002
3.943881e+003;3.704857e-002
3.945809e+003;3.747548e-002
3.947738e+003;3.747194e-002
3.949666e+003;3.726751e-002
3.951595e+003;3.724621e-002
3.953523e+003;3.721112e-002
3.955452e+003;3.702288e-002
3.957380e+003;3.706675e-002
3.959309e+003;3.708891e-002
3.961238e+003;3.718156e-002
3.963166e+003;3.746295e-002
3.965095e+003;3.761464e-002
3.967023e+003;3.784442e-002
3.968952e+003;3.760127e-002
3.970880e+003;3.765818e-002
3.972809e+003;3.813336e-002
3.974737e+003;3.846409e-002
3.976666e+003;3.862990e-002
3.978594e+003;3.819118e-002
3.980523e+003;3.782432e-002
3.982452e+003;3.805198e-002
3.984380e+003;3.836599e-002
3.986309e+003;3.846822e-002
3.988237e+003;3.852032e-002
3.990166e+003;3.845620e-002
3.992094e+003;3.846232e-002
3.994023e+003;3.844878e-002
3.995951e+003;3.805505e-002
3.997880e+003;3.775716e-002
3.999809e+003;3.771910e-002
4.001737e+003;0.000000e+000
