3.992094e+002;0.000000e+000
4.011380e+002;0.000000e+000
4.030665e+002;0.000000e+000
4.049951e+002;0.000000e+000
4.069236e+002;0.000000e+000
4.088522e+002;0.000000e+000
4.107807e+002;0.000000e+000
4.127093e+002;0.000000e+000
4.146378e+002;0.000000e+000
4.165664e+002;0.000000e+000
4.184949e+002;0.000000e+000
4.204235e+002;0.000000e+000
4.223520e+002;0.000000e+000
4.242806e+002;0.000000e+000
4.262091e+002;0.000000e+000
4.281377e+002;0.000000e+000
4.300662e+002;0.000000e+000
4.319948e+002;0.000000e+000
4.339233e+002;0.000000e+000
4.358519e+002;0.000000e+000
4.377804e+002;0.000000e+000
4.397090e+002;0.000000e+000
4.416375e+002;0.000000e+000
4.435660e+002;0.000000e+000
4.454946e+002;0.000000e+000
4.474232e+002;0.000000e+000
4.493517e+002;0.000000e+000
4.512802e+002;0.000000e+000
4.532088e+002;0.000000e+000
4.551373e+002;0.000000e+000
4.570659e+002;0.000000e+000
4.589944e+002;0.000000e+000
4.609230e+002;0.000000e+000
4.628515e+002;0.000000e+000
4.647801e+002;0.000000e+000
4.667086e+002;0.000000e+000
4.686372e+002;0.000000e+000
4.705657e+002;0.000000e+000
4.724943e+002;0.000000e+000
4.744228e+002;0.000000e+000
4.763513e+002;0.000000e+000
4.782799e+002;0.000000e+000
4.802085e+002;0.000000e+000
4.821370e+002;0.000000e+000
4.840656e+002;0.000000e+000
4.859941e+002;0.000000e+000
4.879226e+002;0.000000e+000
4.898512e+002;0.000000e+000
4.917798e+002;0.000000e+000
4.937083e+002;0.000000e+000
4.956368e+002;0.000000e+000
4.975654e+002;0.000000e+000
4.994939e+002;0.000000e+000
5.014225e+002;0.000000e+000
5.033510e+002;0.000000e+000
5.052796e+002;0.000000e+000
5.072081e+002;0.000000e+000
5.091367e+002;0.000000e+000
5.110652e+002;0.000000e+000
5.129938e+002;0.000000e+000
5.149223e+002;0.000000e+000
5.168509e+002;0.000000e+000
5.187794e+002;0.000000e+000
5.207079e+002;0.000000e+000
5.226365e+002;0.000000e+000
5.245651e+002;0.000000e+000
5.264936e+002;0.000000e+000
5.284222e+002;0.000000e+000
5.303507e+002;0.000000e+000
5.322792e+002;0.000000e+000
5.342078e+002;0.000000e+000
5.361364e+002;0.000000e+000
5.380649e+002;0.000000e+000
5.399935e+002;0.000000e+000
5.419220e+002;0.000000e+000
5.438505e+002;0.000000e+000
5.457791e+002;0.000000e+000
5.477076e+002;0.000000e+000
5.496362e+002;0.000000e+000
5.515648e+002;0.000000e+000
5.534933e+002;0.000000e+000
5.554218e+002;0.000000e+000
5.573504e+002;0.000000e+000
5.592789e+002;0.000000e+000
5.612075e+002;0.000000e+000
5.631360e+002;0.000000e+000
5.650646e+002;0.000000e+000
5.669931e+002;0.000000e+000
5.689217e+002;0.000000e+000
5.708502e+002;0.000000e+000
5.727787e+002;0.000000e+000
5.747073e+002;0.000000e+000
5.766359e+002;0.000000e+000
5.785644e+002;0.000000e+000
5.804930e+002;0.000000e+000
5.824215e+002;0.000000e+000
5.843500e+002;0.000000e+000
5.862786e+002;0.000000e+000
5.882072e+002;0.000000e+000
5.901357e+002;0.000000e+000
5.920643e+002;0.000000e+000
5.939928e+002;0.000000e+000
5.959213e+002;0.000000e+000
5.978499e+002;0.000000e+000
5.997784e+002;1.920687e-001
6.017070e+002;1.972393e-001
6.036355e+002;2.032548e-001
6.055641e+002;2.036122e-001
6.074926e+002;2.006394e-001
6.094211e+002;1.966223e-001
6.113497e+002;1.950140e-001
6.132783e+002;1.989395e-001
6.152068e+002;2.003190e-001
6.171354e+002;2.037919e-001
6.190639e+002;2.050839e-001
6.209924e+002;1.973925e-001
6.229210e+002;1.942057e-001
6.248495e+002;1.959834e-001
6.267781e+002;1.936589e-001
6.287067e+002;1.948019e-001
6.306352e+002;1.949544e-001
6.325637e+002;1.919120e-001
6.344923e+002;1.910287e-001
6.364208e+002;1.890511e-001
6.383494e+002;1.857132e-001
6.402780e+002;1.866051e-001
6.422065e+002;1.860223e-001
6.441350e+002;1.854082e-001
6.460636e+002;1.834359e-001
6.479921e+002;1.829691e-001
6.499207e+002;1.843825e-001
6.518492e+002;1.849087e-001
6.537778e+002;1.866128e-001
6.557063e+002;1.851978e-001
6.576349e+002;1.811457e-001
6.595634e+002;1.794833e-001
6.614919e+002;1.803843e-001
6.634205e+002;1.818177e-001
6.653491e+002;1.818649e-001
6.672776e+002;1.822308e-001
6.692062e+002;1.825299e-001
6.711347e+002;1.831887e-001
6.730632e+002;1.823724e-001
6.749918e+002;1.808907e-001
6.769203e+002;1.805587e-001
6.788489e+002;1.801061e-001
6.807775e+002;1.796713e-001
6.827060e+002;1.785613e-001
6.846345e+002;1.782782e-001
6.865631e+002;1.792530e-001
6.884916e+002;1.789671e-001
6.904202e+002;1.782462e-001
6.923488e+002;1.779794e-001
6.942773e+002;1.772503e-001
6.962058e+002;1.754602e-001
6.981344e+002;1.736704e-001
7.000629e+002;1.732431e-001
7.019915e+002;1.723571e-001
7.039200e+002;1.692369e-001
7.058486e+002;1.670794e-001
7.077771e+002;1.653207e-001
7.097057e+002;1.623870e-001
7.116342e+002;1.610606e-001
7.135627e+002;1.602586e-001
7.154913e+002;1.582319e-001
7.174199e+002;1.561957e-001
7.193484e+002;1.543656e-001
7.212770e+002;1.522866e-001
7.232055e+002;1.497939e-001
7.251340e+002;1.464614e-001
7.270626e+002;1.439926e-001
7.289911e+002;1.428942e-001
7.309197e+002;1.417915e-001
7.328483e+002;1.399856e-001
7.347768e+002;1.378119e-001
7.367053e+002;1.350636e-001
7.386339e+002;1.314815e-001
7.405624e+002;1.287790e-001
7.424910e+002;1.269302e-001
7.444196e+002;1.252427e-001
7.463481e+002;1.243526e-001
7.482766e+002;1.218589e-001
7.502052e+002;1.190592e-001
7.521337e+002;1.177421e-001
7.540623e+002;1.165917e-001
7.559908e+002;1.160769e-001
7.579194e+002;1.157863e-001
7.598479e+002;1.147715e-001
7.617765e+002;1.135000e-001
7.637050e+002;1.117438e-001
7.656335e+002;1.107734e-001
7.675621e+002;1.098430e-001
7.694907e+002;1.081980e-001
7.714192e+002;1.067993e-001
7.733478e+002;1.056344e-001
7.752763e+002;1.046326e-001
7.772048e+002;1.032210e-001
7.791334e+002;1.013783e-001
7.810620e+002;1.008910e-001
7.829905e+002;1.010808e-001
7.849191e+002;1.002764e-001
7.868476e+002;9.907924e-002
7.887761e+002;9.788463e-002
7.907047e+002;9.632277e-002
7.926332e+002;9.513909e-002
7.945618e+002;9.430226e-002
7.964903e+002;9.400170e-002
7.984189e+002;9.357794e-002
8.003474e+002;9.346908e-002
8.022759e+002;9.391136e-002
8.042045e+002;9.354392e-002
8.061331e+002;9.371188e-002
8.080616e+002;9.427007e-002
8.099902e+002;9.406132e-002
8.119187e+002;9.426311e-002
8.138472e+002;9.483210e-002
8.157758e+002;9.484344e-002
8.177043e+002;9.508428e-002
8.196329e+002;9.501936e-002
8.215615e+002;9.472280e-002
8.234900e+002;9.513361e-002
8.254185e+002;9.581024e-002
8.273471e+002;9.648755e-002
8.292756e+002;9.649181e-002
8.312042e+002;9.551673e-002
8.331328e+002;9.411444e-002
8.350613e+002;9.312197e-002
8.369898e+002;9.232511e-002
8.389184e+002;9.173397e-002
8.408469e+002;9.175103e-002
8.427755e+002;9.116030e-002
8.447040e+002;9.088221e-002
8.466326e+002;9.136975e-002
8.485611e+002;9.153290e-002
8.504897e+002;9.155724e-002
8.524182e+002;9.126373e-002
8.543467e+002;9.050336e-002
8.562753e+002;8.918216e-002
8.582039e+002;8.733447e-002
8.601324e+002;8.520185e-002
8.620610e+002;8.351710e-002
8.639895e+002;8.261801e-002
8.659180e+002;8.200150e-002
8.678466e+002;8.189674e-002
8.697751e+002;8.197861e-002
8.717037e+002;8.143159e-002
8.736323e+002;8.091975e-002
8.755608e+002;8.102356e-002
8.774893e+002;8.127103e-002
8.794179e+002;8.161300e-002
8.813464e+002;8.177945e-002
8.832750e+002;8.155895e-002
8.852036e+002;8.149306e-002
8.871321e+002;8.182865e-002
8.890606e+002;8.206442e-002
8.909892e+002;8.190019e-002
8.929177e+002;8.173541e-002
8.948463e+002;8.160645e-002
8.967748e+002;8.140434e-002
8.987034e+002;8.133033e-002
9.006319e+002;8.124007e-002
9.025605e+002;8.101569e-002
9.044890e+002;8.072463e-002
9.064175e+002;8.084718e-002
9.083461e+002;8.139247e-002
9.102747e+002;8.185633e-002
9.122032e+002;8.257332e-002
9.141318e+002;8.343389e-002
9.160603e+002;8.418651e-002
9.179888e+002;8.523063e-002
9.199174e+002;8.658919e-002
9.218459e+002;8.821679e-002
9.237745e+002;8.984733e-002
9.257031e+002;9.071772e-002
9.276316e+002;9.123090e-002
9.295601e+002;9.168044e-002
9.314887e+002;9.172783e-002
9.334172e+002;9.188051e-002
9.353458e+002;9.207420e-002
9.372744e+002;9.201310e-002
9.392029e+002;9.213188e-002
9.411314e+002;9.261467e-002
9.430600e+002;9.302176e-002
9.449885e+002;9.328344e-002
9.469171e+002;9.347591e-002
9.488456e+002;9.409218e-002
9.507742e+002;9.518476e-002
9.527027e+002;9.587118e-002
9.546313e+002;9.663538e-002
9.565598e+002;9.750750e-002
9.584883e+002;9.862734e-002
9.604169e+002;1.000740e-001
9.623455e+002;1.015078e-001
9.642740e+002;1.027597e-001
9.662026e+002;1.040843e-001
9.681311e+002;1.057226e-001
9.700596e+002;1.076108e-001
9.719882e+002;1.091293e-001
9.739167e+002;1.101123e-001
9.758453e+002;1.104194e-001
9.777739e+002;1.100588e-001
9.797024e+002;1.094098e-001
9.816309e+002;1.089461e-001
9.835595e+002;1.084328e-001
9.854880e+002;1.083057e-001
9.874166e+002;1.094455e-001
9.893452e+002;1.114286e-001
9.912737e+002;1.135715e-001
9.932022e+002;1.152643e-001
9.951307e+002;1.162038e-001
9.970593e+002;1.167367e-001
9.989879e+002;1.167378e-001
1.000916e+003;1.163442e-001
1.002845e+003;1.156252e-001
1.004773e+003;1.148407e-001
1.006702e+003;1.146683e-001
1.008631e+003;1.148755e-001
1.010559e+003;1.148766e-001
1.012488e+003;1.148071e-001
1.014416e+003;1.148733e-001
1.016345e+003;1.147755e-001
1.018273e+003;1.140057e-001
1.020202e+003;1.138442e-001
1.022130e+003;1.142274e-001
1.024059e+003;1.148383e-001
1.025988e+003;1.165494e-001
1.027916e+003;1.188051e-001
1.029845e+003;1.205805e-001
1.031773e+003;1.218941e-001
1.033702e+003;1.239003e-001
1.035630e+003;1.261550e-001
1.037559e+003;1.273326e-001
1.039487e+003;1.281800e-001
1.041416e+003;1.289843e-001
1.043344e+003;1.296574e-001
1.045273e+003;1.300692e-001
1.047202e+003;1.307958e-001
1.049130e+003;1.315622e-001
1.051059e+003;1.325061e-001
1.052987e+003;1.338124e-001
1.054916e+003;1.351927e-001
1.056844e+003;1.366939e-001
1.058773e+003;1.376545e-001
1.060701e+003;1.383798e-001
1.062630e+003;1.395135e-001
1.064558e+003;1.399865e-001
1.066487e+003;1.400118e-001
1.068416e+003;1.400546e-001
1.070344e+003;1.398971e-001
1.072273e+003;1.387699e-001
1.074201e+003;1.367587e-001
1.076130e+003;1.347566e-001
1.078058e+003;1.324376e-001
1.079987e+003;1.301902e-001
1.081915e+003;1.276292e-001
1.083844e+003;1.250578e-001
1.085773e+003;1.223687e-001
1.087701e+003;1.206334e-001
1.089630e+003;1.195560e-001
1.091558e+003;1.182536e-001
1.093487e+003;1.174013e-001
1.095415e+003;1.165330e-001
1.097344e+003;1.157968e-001
1.099272e+003;1.159664e-001
1.101201e+003;1.163225e-001
1.103129e+003;1.163551e-001
1.105058e+003;1.157039e-001
1.106987e+003;1.146552e-001
1.108915e+003;1.136351e-001
1.110844e+003;1.125881e-001
1.112772e+003;1.119193e-001
1.114701e+003;1.114010e-001
1.116629e+003;1.111424e-001
1.118558e+003;1.113195e-001
1.120486e+003;1.110339e-001
1.122415e+003;1.101572e-001
1.124344e+003;1.094974e-001
1.126272e+003;1.095930e-001
1.128201e+003;1.100695e-001
1.130129e+003;1.107624e-001
1.132058e+003;1.112150e-001
1.133986e+003;1.117640e-001
1.135915e+003;1.126806e-001
1.137843e+003;1.139538e-001
1.139772e+003;1.153048e-001
1.141700e+003;1.161855e-001
1.143629e+003;1.171242e-001
1.145557e+003;1.186910e-001
1.147486e+003;1.201670e-001
1.149415e+003;1.213795e-001
1.151343e+003;1.225522e-001
1.153272e+003;1.235438e-001
1.155200e+003;1.245712e-001
1.157129e+003;1.259482e-001
1.159057e+003;1.269552e-001
1.160986e+003;1.274349e-001
1.162914e+003;1.280084e-001
1.164843e+003;1.284576e-001
1.166771e+003;1.290400e-001
1.168700e+003;1.299712e-001
1.170629e+003;1.301604e-001
1.172557e+003;1.293217e-001
1.174486e+003;1.277917e-001
1.176414e+003;1.259392e-001
1.178343e+003;1.242070e-001
1.180271e+003;1.229988e-001
1.182200e+003;1.226326e-001
1.184128e+003;1.227369e-001
1.186057e+003;1.229882e-001
1.187986e+003;1.237203e-001
1.189914e+003;1.250543e-001
1.191843e+003;1.267354e-001
1.193771e+003;1.287037e-001
1.195700e+003;1.307259e-001
1.197628e+003;1.331351e-001
1.199557e+003;1.362532e-001
1.201485e+003;1.395918e-001
1.203414e+003;1.431383e-001
1.205343e+003;1.469826e-001
1.207271e+003;1.507359e-001
1.209200e+003;1.541682e-001
1.211128e+003;1.576267e-001
1.213057e+003;1.612145e-001
1.214985e+003;1.643067e-001
1.216914e+003;1.666840e-001
1.218842e+003;1.689662e-001
1.220771e+003;1.711192e-001
1.222699e+003;1.728788e-001
1.224628e+003;1.743192e-001
1.226557e+003;1.750888e-001
1.228485e+003;1.755394e-001
1.230414e+003;1.754077e-001
1.232342e+003;1.742923e-001
1.234271e+003;1.726724e-001
1.236199e+003;1.712634e-001
1.238128e+003;1.697031e-001
1.240056e+003;1.678334e-001
1.241985e+003;1.658910e-001
1.243913e+003;1.643833e-001
1.245842e+003;1.635355e-001
1.247771e+003;1.627718e-001
1.249699e+003;1.620147e-001
1.251628e+003;1.612767e-001
1.253556e+003;1.608562e-001
1.255485e+003;1.604754e-001
1.257413e+003;1.599998e-001
1.259342e+003;1.596058e-001
1.261270e+003;1.587204e-001
1.263199e+003;1.570125e-001
1.265127e+003;1.544025e-001
1.267056e+003;1.514273e-001
1.268985e+003;1.484787e-001
1.270913e+003;1.455316e-001
1.272842e+003;1.426744e-001
1.274770e+003;1.399935e-001
1.276699e+003;1.376150e-001
1.278627e+003;1.357725e-001
1.280556e+003;1.342699e-001
1.282484e+003;1.330260e-001
1.284413e+003;1.321312e-001
1.286342e+003;1.310901e-001
1.288270e+003;1.301847e-001
1.290199e+003;1.297995e-001
1.292127e+003;1.297689e-001
1.294056e+003;1.297442e-001
1.295984e+003;1.294824e-001
1.297913e+003;1.292239e-001
1.299841e+003;1.291288e-001
1.301770e+003;1.292348e-001
1.303698e+003;1.290211e-001
1.305627e+003;1.287989e-001
1.307556e+003;1.287040e-001
1.309484e+003;1.283326e-001
1.311413e+003;1.278616e-001
1.313341e+003;1.276581e-001
1.315270e+003;1.272244e-001
1.317198e+003;1.268998e-001
1.319127e+003;1.273735e-001
1.321055e+003;1.278916e-001
1.322984e+003;1.282709e-001
1.324912e+003;1.287720e-001
1.326841e+003;1.292105e-001
1.328770e+003;1.297682e-001
1.330698e+003;1.302687e-001
1.332627e+003;1.304516e-001
1.334555e+003;1.305829e-001
1.336484e+003;1.305228e-001
1.338412e+003;1.302911e-001
1.340341e+003;1.301418e-001
1.342269e+003;1.301917e-001
1.344198e+003;1.301016e-001
1.346126e+003;1.300105e-001
1.348055e+003;1.300020e-001
1.349984e+003;1.300342e-001
1.351912e+003;1.301332e-001
1.353841e+003;1.305616e-001
1.355769e+003;1.314396e-001
1.357698e+003;1.324832e-001
1.359626e+003;1.341729e-001
1.361555e+003;1.366713e-001
1.363483e+003;1.389260e-001
1.365412e+003;1.409416e-001
1.367341e+003;1.422757e-001
1.369269e+003;1.425710e-001
1.371198e+003;1.421910e-001
1.373126e+003;1.415256e-001
1.375055e+003;1.408736e-001
1.376983e+003;1.405258e-001
1.378912e+003;1.405082e-001
1.380840e+003;1.406398e-001
1.382769e+003;1.407800e-001
1.384698e+003;1.409995e-001
1.386626e+003;1.409871e-001
1.388555e+003;1.409080e-001
1.390483e+003;1.410888e-001
1.392412e+003;1.413077e-001
1.394340e+003;1.411361e-001
1.396269e+003;1.409980e-001
1.398197e+003;1.416539e-001
1.400126e+003;1.424065e-001
1.402054e+003;1.430407e-001
1.403983e+003;1.437118e-001
1.405911e+003;1.443327e-001
1.407840e+003;1.447992e-001
1.409769e+003;1.451648e-001
1.411697e+003;1.454377e-001
1.413626e+003;1.454505e-001
1.415554e+003;1.454741e-001
1.417483e+003;1.457414e-001
1.419411e+003;1.462059e-001
1.421340e+003;1.468160e-001
1.423268e+003;1.480274e-001
1.425197e+003;1.501008e-001
1.427125e+003;1.529184e-001
1.429054e+003;1.564184e-001
1.430983e+003;1.605173e-001
1.432911e+003;1.651132e-001
1.434840e+003;1.698859e-001
1.436768e+003;1.738347e-001
1.438697e+003;1.765445e-001
1.440625e+003;1.783621e-001
1.442554e+003;1.795302e-001
1.444482e+003;1.800283e-001
1.446411e+003;1.792268e-001
1.448340e+003;1.769940e-001
1.450268e+003;1.738259e-001
1.452197e+003;1.698898e-001
1.454125e+003;1.657495e-001
1.456054e+003;1.618856e-001
1.457982e+003;1.584591e-001
1.459911e+003;1.559025e-001
1.461839e+003;1.545349e-001
1.463768e+003;1.537584e-001
1.465697e+003;1.531575e-001
1.467625e+003;1.534926e-001
1.469554e+003;1.547843e-001
1.471482e+003;1.563843e-001
1.473411e+003;1.580305e-001
1.475339e+003;1.600622e-001
1.477268e+003;1.630433e-001
1.479196e+003;1.671151e-001
1.481125e+003;1.719299e-001
1.483053e+003;1.771685e-001
1.484982e+003;1.830393e-001
1.486911e+003;1.897533e-001
1.488839e+003;1.964284e-001
1.490768e+003;2.030486e-001
1.492696e+003;2.101746e-001
1.494625e+003;2.171965e-001
1.496553e+003;2.239282e-001
1.498482e+003;2.304441e-001
1.500410e+003;2.364995e-001
1.502339e+003;2.421273e-001
1.504267e+003;2.471850e-001
1.506196e+003;2.515140e-001
1.508125e+003;2.553656e-001
1.510053e+003;2.585590e-001
1.511982e+003;2.612104e-001
1.513910e+003;2.621648e-001
1.515839e+003;2.603824e-001
1.517767e+003;2.561635e-001
1.519696e+003;2.507281e-001
1.521624e+003;2.452600e-001
1.523553e+003;2.404282e-001
1.525481e+003;2.361471e-001
1.527410e+003;2.320618e-001
1.529339e+003;2.280426e-001
1.531267e+003;2.242159e-001
1.533196e+003;2.201127e-001
1.535124e+003;2.159335e-001
1.537053e+003;2.119843e-001
1.538981e+003;2.077034e-001
1.540910e+003;2.032312e-001
1.542838e+003;1.992899e-001
1.544767e+003;1.956411e-001
1.546695e+003;1.918342e-001
1.548624e+003;1.878806e-001
1.550553e+003;1.840551e-001
1.552481e+003;1.801526e-001
1.554410e+003;1.760229e-001
1.556338e+003;1.716377e-001
1.558267e+003;1.672122e-001
1.560195e+003;1.630279e-001
1.562124e+003;1.590613e-001
1.564052e+003;1.550342e-001
1.565981e+003;1.508905e-001
1.567910e+003;1.473792e-001
1.569838e+003;1.443273e-001
1.571767e+003;1.417359e-001
1.573695e+003;1.399601e-001
1.575624e+003;1.388019e-001
1.577552e+003;1.380151e-001
1.579481e+003;1.376860e-001
1.581409e+003;1.381454e-001
1.583338e+003;1.393432e-001
1.585266e+003;1.414458e-001
1.587195e+003;1.443837e-001
1.589124e+003;1.479577e-001
1.591052e+003;1.522673e-001
1.592981e+003;1.573894e-001
1.594909e+003;1.625070e-001
1.596838e+003;1.680396e-001
1.598766e+003;1.746967e-001
1.600695e+003;1.822916e-001
1.602623e+003;1.909119e-001
1.604552e+003;2.008113e-001
1.606480e+003;2.115105e-001
1.608409e+003;2.223882e-001
1.610338e+003;2.333338e-001
1.612266e+003;2.441370e-001
1.614195e+003;2.536500e-001
1.616123e+003;2.615736e-001
1.618052e+003;2.685580e-001
1.619980e+003;2.738018e-001
1.621909e+003;2.765307e-001
1.623837e+003;2.770489e-001
1.625766e+003;2.755308e-001
1.627694e+003;2.723293e-001
1.629623e+003;2.675461e-001
1.631552e+003;2.616551e-001
1.633480e+003;2.556065e-001
1.635409e+003;2.494555e-001
1.637337e+003;2.430365e-001
1.639266e+003;2.368883e-001
1.641194e+003;2.312760e-001
1.643123e+003;2.260639e-001
1.645051e+003;2.208857e-001
1.646980e+003;2.156049e-001
1.648909e+003;2.102761e-001
1.650837e+003;2.053994e-001
1.652766e+003;2.001939e-001
1.654694e+003;1.947252e-001
1.656623e+003;1.894992e-001
1.658551e+003;1.841263e-001
1.660480e+003;1.790631e-001
1.662408e+003;1.740638e-001
1.664337e+003;1.691222e-001
1.666266e+003;1.645852e-001
1.668194e+003;1.602831e-001
1.670123e+003;1.560016e-001
1.672051e+003;1.519806e-001
1.673980e+003;1.480274e-001
1.675908e+003;1.440717e-001
1.677837e+003;1.404410e-001
1.679765e+003;1.368945e-001
1.681694e+003;1.335770e-001
1.683622e+003;1.304581e-001
1.685551e+003;1.273710e-001
1.687479e+003;1.252770e-001
1.689408e+003;1.234644e-001
1.691337e+003;1.215275e-001
1.693265e+003;1.203208e-001
1.695194e+003;1.197325e-001
1.697122e+003;1.187871e-001
1.699051e+003;1.167301e-001
1.700979e+003;1.117765e-001
1.702908e+003;1.041225e-001
1.704836e+003;9.527358e-002
1.706765e+003;8.664190e-002
1.708693e+003;7.909238e-002
1.710622e+003;7.314455e-002
1.712551e+003;6.862640e-002
1.714479e+003;6.498139e-002
1.716408e+003;6.187159e-002
1.718336e+003;5.945481e-002
1.720265e+003;5.752064e-002
1.722193e+003;5.575453e-002
1.724122e+003;5.411317e-002
1.726050e+003;5.282366e-002
1.727979e+003;5.167848e-002
1.729908e+003;5.072579e-002
1.731836e+003;4.995392e-002
1.733765e+003;4.912081e-002
1.735693e+003;4.822887e-002
1.737622e+003;4.735421e-002
1.739550e+003;4.647455e-002
1.741479e+003;4.562766e-002
1.743407e+003;4.502915e-002
1.745336e+003;4.438093e-002
1.747265e+003;4.368102e-002
1.749193e+003;4.320913e-002
1.751122e+003;4.260251e-002
1.753050e+003;4.202757e-002
1.754979e+003;4.153651e-002
1.756907e+003;4.107878e-002
1.758836e+003;4.068124e-002
1.760764e+003;4.040006e-002
1.762693e+003;4.017975e-002
1.764621e+003;3.989416e-002
1.766550e+003;3.965095e-002
1.768479e+003;3.939858e-002
1.770407e+003;3.915292e-002
1.772336e+003;3.879805e-002
1.774264e+003;3.848878e-002
1.776193e+003;3.851786e-002
1.778121e+003;3.849718e-002
1.780050e+003;3.829198e-002
1.781978e+003;3.794548e-002
1.783907e+003;3.772634e-002
1.785835e+003;3.746027e-002
1.787764e+003;3.714348e-002
1.789693e+003;3.673359e-002
1.791621e+003;3.633922e-002
1.793550e+003;3.607905e-002
1.795478e+003;3.595704e-002
1.797407e+003;3.585566e-002
1.799335e+003;3.559570e-002
1.801264e+003;3.515889e-002
1.803192e+003;3.485687e-002
1.805121e+003;3.469821e-002
1.807049e+003;3.462382e-002
1.808978e+003;3.431196e-002
1.810907e+003;3.395890e-002
1.812835e+003;3.370749e-002
1.814764e+003;3.346005e-002
1.816692e+003;3.332505e-002
1.818621e+003;3.314760e-002
1.820549e+003;3.295638e-002
1.822478e+003;3.277815e-002
1.824406e+003;3.268590e-002
1.826335e+003;3.248329e-002
1.828264e+003;3.195635e-002
1.830192e+003;3.166454e-002
1.832121e+003;3.162163e-002
1.834049e+003;3.140345e-002
1.835978e+003;3.107342e-002
1.837906e+003;3.095332e-002
1.839835e+003;3.087551e-002
1.841763e+003;3.070019e-002
1.843692e+003;3.038023e-002
1.845620e+003;3.023168e-002
1.847549e+003;3.013677e-002
1.849478e+003;2.993747e-002
1.851406e+003;2.971857e-002
1.853335e+003;2.961122e-002
1.855263e+003;2.966876e-002
1.857192e+003;2.964375e-002
1.859120e+003;2.963446e-002
1.861049e+003;2.945021e-002
1.862977e+003;2.927199e-002
1.864906e+003;2.942674e-002
1.866834e+003;2.945468e-002
1.868763e+003;2.920855e-002
1.870692e+003;2.918059e-002
1.872620e+003;2.920338e-002
1.874549e+003;2.911621e-002
1.876477e+003;2.897536e-002
1.878406e+003;2.913109e-002
1.880334e+003;2.939671e-002
1.882263e+003;2.931627e-002
1.884191e+003;2.906654e-002
1.886120e+003;2.885445e-002
1.888048e+003;2.876940e-002
1.889977e+003;2.865124e-002
1.891906e+003;2.845145e-002
1.893834e+003;2.843030e-002
1.895763e+003;2.853853e-002
1.897691e+003;2.858743e-002
1.899620e+003;2.839372e-002
1.901548e+003;2.807379e-002
1.903477e+003;2.799395e-002
1.905405e+003;2.830618e-002
1.907334e+003;2.843861e-002
1.909262e+003;2.816489e-002
1.911191e+003;2.785929e-002
1.913120e+003;2.784657e-002
1.915048e+003;2.791034e-002
1.916977e+003;2.803099e-002
1.918905e+003;2.818458e-002
1.920834e+003;2.818316e-002
1.922762e+003;2.793893e-002
1.924691e+003;2.789013e-002
1.926619e+003;2.798275e-002
1.928548e+003;2.789635e-002
1.930477e+003;2.776564e-002
1.932405e+003;2.776719e-002
1.934334e+003;2.785261e-002
1.936262e+003;2.798448e-002
1.938191e+003;2.805445e-002
1.940119e+003;2.810111e-002
1.942048e+003;2.806531e-002
1.943976e+003;2.788183e-002
1.945905e+003;2.779397e-002
1.947833e+003;2.789716e-002
1.949762e+003;2.793030e-002
1.951691e+003;2.805212e-002
1.953619e+003;2.812904e-002
1.955548e+003;2.799451e-002
1.957476e+003;2.816390e-002
1.959405e+003;2.818808e-002
1.961333e+003;2.797911e-002
1.963262e+003;2.808821e-002
1.965190e+003;2.831142e-002
1.967119e+003;2.824133e-002
1.969047e+003;2.802911e-002
1.970976e+003;2.788250e-002
1.972905e+003;2.797737e-002
1.974833e+003;2.824020e-002
1.976762e+003;2.830137e-002
1.978690e+003;2.810097e-002
1.980619e+003;2.775716e-002
1.982547e+003;2.763402e-002
1.984476e+003;2.783131e-002
1.986404e+003;2.789614e-002
1.988333e+003;2.785614e-002
1.990261e+003;2.784413e-002
1.992190e+003;2.793045e-002
1.994119e+003;2.801317e-002
1.996047e+003;2.793161e-002
1.997976e+003;2.780121e-002
1.999904e+003;2.770210e-002
2.001833e+003;2.764143e-002
2.003761e+003;2.765817e-002
2.005690e+003;2.768335e-002
2.007618e+003;2.772930e-002
2.009547e+003;2.767826e-002
2.011476e+003;2.748874e-002
2.013404e+003;2.735455e-002
2.015333e+003;2.740477e-002
2.017261e+003;2.742824e-002
2.019190e+003;2.732604e-002
2.021118e+003;2.728557e-002
2.023047e+003;2.741310e-002
2.024975e+003;2.739870e-002
2.026904e+003;2.739909e-002
2.028833e+003;2.752965e-002
2.030761e+003;2.770111e-002
2.032690e+003;2.758695e-002
2.034618e+003;2.745217e-002
2.036547e+003;2.744973e-002
2.038475e+003;2.745503e-002
2.040404e+003;2.737576e-002
2.042332e+003;2.732918e-002
2.044261e+003;2.736799e-002
2.046189e+003;2.759214e-002
2.048118e+003;2.768822e-002
2.050047e+003;2.769278e-002
2.051975e+003;2.763151e-002
2.053904e+003;2.763652e-002
2.055832e+003;2.762960e-002
2.057761e+003;2.746127e-002
2.059689e+003;2.742753e-002
2.061618e+003;2.759832e-002
2.063546e+003;2.757276e-002
2.065475e+003;2.753053e-002
2.067404e+003;2.769945e-002
2.069332e+003;2.776762e-002
2.071260e+003;2.767639e-002
2.073189e+003;2.754479e-002
2.075118e+003;2.763719e-002
2.077046e+003;2.772287e-002
2.078975e+003;2.773477e-002
2.080903e+003;2.787423e-002
2.082832e+003;2.780969e-002
2.084760e+003;2.765241e-002
2.086689e+003;2.777578e-002
2.088617e+003;2.786208e-002
2.090546e+003;2.772146e-002
2.092475e+003;2.754261e-002
2.094403e+003;2.748704e-002
2.096332e+003;2.755450e-002
2.098260e+003;2.749400e-002
2.100189e+003;2.752686e-002
2.102117e+003;2.766905e-002
2.104046e+003;2.769832e-002
2.105974e+003;2.763924e-002
2.107903e+003;2.754886e-002
2.109832e+003;2.748245e-002
2.111760e+003;2.736598e-002
2.113688e+003;2.734788e-002
2.115617e+003;2.730247e-002
2.117546e+003;2.733387e-002
2.119474e+003;2.739510e-002
2.121403e+003;2.733077e-002
2.123331e+003;2.733461e-002
2.125260e+003;2.740343e-002
2.127188e+003;2.744052e-002
2.129117e+003;2.741634e-002
2.131045e+003;2.735614e-002
2.132974e+003;2.731002e-002
2.134903e+003;2.725036e-002
2.136831e+003;2.736672e-002
2.138760e+003;2.755821e-002
2.140688e+003;2.750677e-002
2.142617e+003;2.734580e-002
2.144545e+003;2.722510e-002
2.146474e+003;2.713846e-002
2.148402e+003;2.716760e-002
2.150331e+003;2.717240e-002
2.152260e+003;2.711561e-002
2.154188e+003;2.705453e-002
2.156117e+003;2.698302e-002
2.158045e+003;2.710757e-002
2.159974e+003;2.721779e-002
2.161902e+003;2.702170e-002
2.163831e+003;2.698566e-002
2.165759e+003;2.724065e-002
2.167688e+003;2.733094e-002
2.169616e+003;2.726461e-002
2.171545e+003;2.737922e-002
2.173474e+003;2.734746e-002
2.175402e+003;2.702822e-002
2.177331e+003;2.717504e-002
2.179259e+003;2.725709e-002
2.181188e+003;2.706133e-002
2.183116e+003;2.704106e-002
2.185045e+003;2.708676e-002
2.186973e+003;2.707339e-002
2.188902e+003;2.709431e-002
2.190831e+003;2.688727e-002
2.192759e+003;2.658250e-002
2.194688e+003;2.666289e-002
2.196616e+003;2.681247e-002
2.198545e+003;2.686615e-002
2.200473e+003;2.698697e-002
2.202402e+003;2.712552e-002
2.204330e+003;2.697554e-002
2.206259e+003;2.683637e-002
2.208188e+003;2.709216e-002
2.210116e+003;2.699194e-002
2.212044e+003;2.684049e-002
2.213973e+003;2.713275e-002
2.215902e+003;2.711244e-002
2.217830e+003;2.677434e-002
2.219759e+003;2.670904e-002
2.221687e+003;2.704681e-002
2.223616e+003;2.706468e-002
2.225544e+003;2.701387e-002
2.227473e+003;2.715582e-002
2.229401e+003;2.718848e-002
2.231330e+003;2.708013e-002
2.233259e+003;2.693352e-002
2.235187e+003;2.688166e-002
2.237116e+003;2.683581e-002
2.239044e+003;2.677198e-002
2.240973e+003;2.682382e-002
2.242901e+003;2.682816e-002
2.244830e+003;2.677381e-002
2.246758e+003;2.704748e-002
2.248687e+003;2.723286e-002
2.250615e+003;2.708196e-002
2.252544e+003;2.675743e-002
2.254473e+003;2.652301e-002
2.256401e+003;2.660043e-002
2.258330e+003;2.672043e-002
2.260258e+003;2.673515e-002
2.262187e+003;2.669791e-002
2.264115e+003;2.667194e-002
2.266044e+003;2.658267e-002
2.267972e+003;2.672916e-002
2.269901e+003;2.687765e-002
2.271830e+003;2.665405e-002
2.273758e+003;2.671532e-002
2.275687e+003;2.665500e-002
2.277615e+003;2.639933e-002
2.279544e+003;2.642993e-002
2.281472e+003;2.656147e-002
2.283401e+003;2.667814e-002
2.285329e+003;2.687120e-002
2.287258e+003;2.692065e-002
2.289187e+003;2.676599e-002
2.291115e+003;2.697650e-002
2.293043e+003;2.720859e-002
2.294972e+003;2.712002e-002
2.296901e+003;2.704102e-002
2.298829e+003;2.702244e-002
2.300758e+003;2.711342e-002
2.302686e+003;2.723568e-002
2.304615e+003;2.722309e-002
2.306543e+003;2.728574e-002
2.308472e+003;2.720820e-002
2.310400e+003;2.709882e-002
2.312329e+003;2.710083e-002
2.314258e+003;2.707318e-002
2.316186e+003;2.705728e-002
2.318115e+003;2.712873e-002
2.320043e+003;2.729361e-002
2.321972e+003;2.739937e-002
2.323900e+003;2.723148e-002
2.325829e+003;2.693197e-002
2.327757e+003;2.688938e-002
2.329686e+003;2.698961e-002
2.331615e+003;2.716330e-002
2.333543e+003;2.726390e-002
2.335472e+003;2.728599e-002
2.337400e+003;2.718612e-002
2.339329e+003;2.698344e-002
2.341257e+003;2.684553e-002
2.343186e+003;2.678587e-002
2.345114e+003;2.692428e-002
2.347043e+003;2.705280e-002
2.348971e+003;2.706412e-002
2.350900e+003;2.710111e-002
2.352829e+003;2.699666e-002
2.354757e+003;2.695298e-002
2.356686e+003;2.709307e-002
2.358614e+003;2.734597e-002
2.360543e+003;2.736154e-002
2.362471e+003;2.720090e-002
2.364400e+003;2.716361e-002
2.366328e+003;2.712347e-002
2.368257e+003;2.707424e-002
2.370186e+003;2.727879e-002
2.372114e+003;2.754712e-002
2.374042e+003;2.751373e-002
2.375971e+003;2.743244e-002
2.377900e+003;2.745933e-002
2.379828e+003;2.762649e-002
2.381757e+003;2.786077e-002
2.383685e+003;2.782378e-002
2.385614e+003;2.784448e-002
2.387542e+003;2.811698e-002
2.389471e+003;2.812130e-002
2.391399e+003;2.812515e-002
2.393328e+003;2.812939e-002
2.395257e+003;2.806619e-002
2.397185e+003;2.819391e-002
2.399114e+003;2.843950e-002
2.401042e+003;2.856595e-002
2.402971e+003;2.871605e-002
2.404899e+003;2.873343e-002
2.406828e+003;2.873942e-002
2.408756e+003;2.889769e-002
2.410685e+003;2.921252e-002
2.412614e+003;2.973763e-002
2.414542e+003;2.992516e-002
2.416471e+003;2.973731e-002
2.418399e+003;2.982301e-002
2.420328e+003;3.020664e-002
2.422256e+003;3.030387e-002
2.424185e+003;3.042745e-002
2.426113e+003;3.065006e-002
2.428042e+003;3.058488e-002
2.429970e+003;3.069184e-002
2.431899e+003;3.102331e-002
2.433828e+003;3.119264e-002
2.435756e+003;3.125060e-002
2.437685e+003;3.145830e-002
2.439613e+003;3.163453e-002
2.441542e+003;3.148403e-002
2.443470e+003;3.148267e-002
2.445399e+003;3.171882e-002
2.447327e+003;3.200832e-002
2.449256e+003;3.190507e-002
2.451185e+003;3.177611e-002
2.453113e+003;3.182652e-002
2.455042e+003;3.183429e-002
2.456970e+003;3.155988e-002
2.458899e+003;3.141367e-002
2.460827e+003;3.167684e-002
2.462756e+003;3.190639e-002
2.464684e+003;3.197896e-002
2.466613e+003;3.216729e-002
2.468542e+003;3.222934e-002
2.470470e+003;3.234798e-002
2.472398e+003;3.241609e-002
2.474327e+003;3.236065e-002
2.476256e+003;3.229797e-002
2.478184e+003;3.226110e-002
2.480113e+003;3.247118e-002
2.482041e+003;3.273674e-002
2.483970e+003;3.262160e-002
2.485898e+003;3.242977e-002
2.487827e+003;3.252328e-002
2.489755e+003;3.270909e-002
2.491684e+003;3.255903e-002
2.493613e+003;3.240174e-002
2.495541e+003;3.268944e-002
2.497470e+003;3.272767e-002
2.499398e+003;3.273910e-002
2.501327e+003;3.277401e-002
2.503255e+003;3.258324e-002
2.505184e+003;3.268572e-002
2.507112e+003;3.282510e-002
2.509041e+003;3.256160e-002
2.510969e+003;3.250696e-002
2.512898e+003;3.277172e-002
2.514827e+003;3.307275e-002
2.516755e+003;3.329804e-002
2.518684e+003;3.323136e-002
2.520612e+003;3.317238e-002
2.522541e+003;3.321137e-002
2.524469e+003;3.296829e-002
2.526398e+003;3.319384e-002
2.528326e+003;3.350855e-002
2.530255e+003;3.334054e-002
2.532184e+003;3.311584e-002
2.534112e+003;3.300121e-002
2.536041e+003;3.311563e-002
2.537969e+003;3.363105e-002
2.539898e+003;3.386006e-002
2.541826e+003;3.374065e-002
2.543755e+003;3.388685e-002
2.545683e+003;3.413847e-002
2.547612e+003;3.432917e-002
2.549541e+003;3.444999e-002
2.551469e+003;3.437554e-002
2.553397e+003;3.425265e-002
2.555326e+003;3.437127e-002
2.557255e+003;3.474566e-002
2.559183e+003;3.484183e-002
2.561112e+003;3.485946e-002
2.563040e+003;3.508883e-002
2.564969e+003;3.536869e-002
2.566897e+003;3.567980e-002
2.568826e+003;3.577733e-002
2.570754e+003;3.582835e-002
2.572683e+003;3.607145e-002
2.574612e+003;3.608556e-002
2.576540e+003;3.635914e-002
2.578469e+003;3.686998e-002
2.580397e+003;3.713846e-002
2.582326e+003;3.722607e-002
2.584254e+003;3.730315e-002
2.586183e+003;3.749148e-002
2.588111e+003;3.748906e-002
2.590040e+003;3.752020e-002
2.591969e+003;3.780162e-002
2.593897e+003;3.824983e-002
2.595826e+003;3.870306e-002
2.597754e+003;3.890197e-002
2.599683e+003;3.889236e-002
2.601611e+003;3.898728e-002
2.603540e+003;3.920931e-002
2.605468e+003;3.921555e-002
2.607397e+003;3.927357e-002
2.609325e+003;3.945986e-002
2.611254e+003;3.969970e-002
2.613183e+003;3.984862e-002
2.615111e+003;3.979567e-002
2.617040e+003;3.964866e-002
2.618968e+003;3.966481e-002
2.620897e+003;3.966394e-002
2.622825e+003;3.971528e-002
2.624754e+003;3.978626e-002
2.626682e+003;3.985951e-002
2.628611e+003;3.987971e-002
2.630540e+003;3.989917e-002
2.632468e+003;4.008853e-002
2.634396e+003;3.996143e-002
2.636325e+003;3.968652e-002
2.638254e+003;3.957251e-002
2.640182e+003;3.982991e-002
2.642111e+003;3.968834e-002
2.644039e+003;3.945558e-002
2.645968e+003;3.968703e-002
2.647896e+003;3.996114e-002
2.649825e+003;4.007011e-002
2.651753e+003;4.006087e-002
2.653682e+003;4.000947e-002
2.655611e+003;3.999947e-002
2.657539e+003;4.003457e-002
2.659468e+003;4.013566e-002
2.661396e+003;4.024281e-002
2.663325e+003;4.005190e-002
2.665253e+003;4.006149e-002
2.667182e+003;4.041708e-002
2.669110e+003;4.064733e-002
2.671039e+003;4.070883e-002
2.672968e+003;4.102729e-002
2.674896e+003;4.129051e-002
2.676825e+003;4.130250e-002
2.678753e+003;4.118267e-002
2.680682e+003;4.162956e-002
2.682610e+003;4.205312e-002
2.684539e+003;4.216374e-002
2.686467e+003;4.237614e-002
2.688396e+003;4.215037e-002
2.690324e+003;4.223958e-002
2.692253e+003;4.277633e-002
2.694182e+003;4.314472e-002
2.696110e+003;4.324431e-002
2.698039e+003;4.330002e-002
2.699967e+003;4.329178e-002
2.701896e+003;4.367373e-002
2.703824e+003;4.413214e-002
2.705753e+003;4.425716e-002
2.707681e+003;4.413809e-002
2.709610e+003;4.415477e-002
2.711539e+003;4.449758e-002
2.713467e+003;4.468531e-002
2.715396e+003;4.480626e-002
2.717324e+003;4.499332e-002
2.719253e+003;4.521333e-002
2.721181e+003;4.560230e-002
2.723110e+003;4.599767e-002
2.725038e+003;4.618288e-002
2.726967e+003;4.611902e-002
2.728896e+003;4.630348e-002
2.730824e+003;4.682690e-002
2.732752e+003;4.720410e-002
2.734681e+003;4.727122e-002
2.736610e+003;4.741322e-002
2.738538e+003;4.775602e-002
2.740467e+003;4.800692e-002
2.742395e+003;4.812418e-002
2.744324e+003;4.837137e-002
2.746252e+003;4.865351e-002
2.748181e+003;4.886210e-002
2.750109e+003;4.902395e-002
2.752038e+003;4.912200e-002
2.753967e+003;4.938918e-002
2.755895e+003;4.972544e-002
2.757824e+003;5.003377e-002
2.759752e+003;5.038154e-002
2.761681e+003;5.055010e-002
2.763609e+003;5.067924e-002
2.765538e+003;5.091814e-002
2.767466e+003;5.108459e-002
2.769395e+003;5.113368e-002
2.771323e+003;5.135954e-002
2.773252e+003;5.146110e-002
2.775181e+003;5.134168e-002
2.777109e+003;5.124164e-002
2.779038e+003;5.149278e-002
2.780966e+003;5.209343e-002
2.782895e+003;5.238917e-002
2.784823e+003;5.251588e-002
2.786752e+003;5.268313e-002
2.788680e+003;5.274647e-002
2.790609e+003;5.282886e-002
2.792538e+003;5.317693e-002
2.794466e+003;5.361374e-002
2.796395e+003;5.385927e-002
2.798323e+003;5.389450e-002
2.800252e+003;5.424658e-002
2.802180e+003;5.461093e-002
2.804109e+003;5.450378e-002
2.806037e+003;5.444042e-002
2.807966e+003;5.450566e-002
2.809895e+003;5.480752e-002
2.811823e+003;5.542396e-002
2.813751e+003;5.569614e-002
2.815680e+003;5.566092e-002
2.817609e+003;5.572646e-002
2.819537e+003;5.593675e-002
2.821466e+003;5.607347e-002
2.823394e+003;5.621615e-002
2.825323e+003;5.665271e-002
2.827251e+003;5.700246e-002
2.829180e+003;5.690281e-002
2.831108e+003;5.714330e-002
2.833037e+003;5.780375e-002
2.834966e+003;5.815360e-002
2.836894e+003;5.824013e-002
2.838823e+003;5.856625e-002
2.840751e+003;5.925237e-002
2.842680e+003;6.000163e-002
2.844608e+003;6.086478e-002
2.846537e+003;6.162859e-002
2.848465e+003;6.201348e-002
2.850394e+003;6.230290e-002
2.852323e+003;6.290828e-002
2.854251e+003;6.371126e-002
2.856180e+003;6.414010e-002
2.858108e+003;6.447307e-002
2.860037e+003;6.523152e-002
2.861965e+003;6.590617e-002
2.863894e+003;6.619001e-002
2.865822e+003;6.674524e-002
2.867751e+003;6.777846e-002
2.869679e+003;6.839044e-002
2.871608e+003;6.842023e-002
2.873536e+003;6.857522e-002
2.875465e+003;6.902559e-002
2.877394e+003;6.910157e-002
2.879322e+003;6.885181e-002
2.881251e+003;6.869692e-002
2.883179e+003;6.868570e-002
2.885108e+003;6.851140e-002
2.887036e+003;6.813993e-002
2.888965e+003;6.818353e-002
2.890893e+003;6.852940e-002
2.892822e+003;6.879621e-002
2.894750e+003;6.867798e-002
2.896679e+003;6.868578e-002
2.898608e+003;6.908941e-002
2.900536e+003;6.957446e-002
2.902465e+003;6.985208e-002
2.904393e+003;7.015132e-002
2.906322e+003;7.045234e-002
2.908250e+003;7.079369e-002
2.910179e+003;7.124372e-002
2.912107e+003;7.163864e-002
2.914036e+003;7.231099e-002
2.915965e+003;7.293367e-002
2.917893e+003;7.359172e-002
2.919822e+003;7.409275e-002
2.921750e+003;7.409648e-002
2.923679e+003;7.477053e-002
2.925607e+003;7.581973e-002
2.927536e+003;7.651935e-002
2.929464e+003;7.693721e-002
2.931393e+003;7.715162e-002
2.933322e+003;7.701791e-002
2.935250e+003;7.696673e-002
2.937178e+003;7.691360e-002
2.939107e+003;7.654646e-002
2.941036e+003;7.600165e-002
2.942964e+003;7.541930e-002
2.944893e+003;7.470831e-002
2.946821e+003;7.387976e-002
2.948750e+003;7.316588e-002
2.950678e+003;7.277999e-002
2.952607e+003;7.253437e-002
2.954535e+003;7.229181e-002
2.956464e+003;7.217579e-002
2.958393e+003;7.252371e-002
2.960321e+003;7.282273e-002
2.962250e+003;7.289981e-002
2.964178e+003;7.290146e-002
2.966107e+003;7.273482e-002
2.968035e+003;7.300509e-002
2.969964e+003;7.311102e-002
2.971892e+003;7.276804e-002
2.973821e+003;7.216414e-002
2.975750e+003;7.176006e-002
2.977678e+003;7.170969e-002
2.979607e+003;7.167079e-002
2.981535e+003;7.164024e-002
2.983464e+003;7.146400e-002
2.985392e+003;7.094765e-002
2.987321e+003;7.051508e-002
2.989249e+003;7.023393e-002
2.991178e+003;7.002991e-002
2.993106e+003;6.964155e-002
2.995035e+003;6.926162e-002
2.996964e+003;6.880397e-002
2.998892e+003;6.831292e-002
3.000821e+003;6.817012e-002
3.002749e+003;6.794310e-002
3.004678e+003;6.765222e-002
3.006606e+003;6.739280e-002
3.008535e+003;6.714730e-002
3.010463e+003;6.725162e-002
3.012392e+003;6.741463e-002
3.014321e+003;6.716393e-002
3.016249e+003;6.714359e-002
3.018177e+003;6.741040e-002
3.020106e+003;6.748436e-002
3.022035e+003;6.770116e-002
3.023963e+003;6.788037e-002
3.025892e+003;6.818617e-002
3.027820e+003;6.883834e-002
3.029749e+003;6.942479e-002
3.031677e+003;6.970298e-002
3.033606e+003;6.980600e-002
3.035534e+003;7.023031e-002
3.037463e+003;7.105203e-002
3.039392e+003;7.151888e-002
3.041320e+003;7.157170e-002
3.043249e+003;7.183801e-002
3.045177e+003;7.236736e-002
3.047106e+003;7.272432e-002
3.049034e+003;7.296468e-002
3.050963e+003;7.315325e-002
3.052891e+003;7.374977e-002
3.054820e+003;7.437039e-002
3.056749e+003;7.481257e-002
3.058677e+003;7.539529e-002
3.060606e+003;7.577989e-002
3.062534e+003;7.576683e-002
3.064463e+003;7.589900e-002
3.066391e+003;7.605838e-002
3.068320e+003;7.597335e-002
3.070248e+003;7.609545e-002
3.072177e+003;7.624333e-002
3.074105e+003;7.635032e-002
3.076034e+003;7.651614e-002
3.077963e+003;7.643431e-002
3.079891e+003;7.619641e-002
3.081820e+003;7.601780e-002
3.083748e+003;7.589774e-002
3.085677e+003;7.564889e-002
3.087605e+003;7.521883e-002
3.089534e+003;7.504645e-002
3.091462e+003;7.493012e-002
3.093391e+003;7.477943e-002
3.095320e+003;7.446057e-002
3.097248e+003;7.423813e-002
3.099177e+003;7.410351e-002
3.101105e+003;7.377663e-002
3.103034e+003;7.332786e-002
3.104962e+003;7.303587e-002
3.106891e+003;7.312118e-002
3.108819e+003;7.292337e-002
3.110748e+003;7.239123e-002
3.112677e+003;7.198714e-002
3.114605e+003;7.192703e-002
3.116533e+003;7.200442e-002
3.118462e+003;7.215295e-002
3.120391e+003;7.224005e-002
3.122319e+003;7.222455e-002
3.124248e+003;7.211739e-002
3.126176e+003;7.194658e-002
3.128105e+003;7.208641e-002
3.130033e+003;7.239354e-002
3.131962e+003;7.223046e-002
3.133890e+003;7.188805e-002
3.135819e+003;7.186753e-002
3.137748e+003;7.234132e-002
3.139676e+003;7.285216e-002
3.141605e+003;7.321023e-002
3.143533e+003;7.362335e-002
3.145462e+003;7.365911e-002
3.147390e+003;7.368809e-002
3.149319e+003;7.417929e-002
3.151247e+003;7.445385e-002
3.153176e+003;7.503518e-002
3.155104e+003;7.552917e-002
3.157033e+003;7.566416e-002
3.158962e+003;7.605518e-002
3.160890e+003;7.671461e-002
3.162819e+003;7.772972e-002
3.164747e+003;7.831471e-002
3.166676e+003;7.854370e-002
3.168604e+003;7.904420e-002
3.170533e+003;7.958861e-002
3.172461e+003;8.028959e-002
3.174390e+003;8.113530e-002
3.176319e+003;8.198558e-002
3.178247e+003;8.224257e-002
3.180176e+003;8.228369e-002
3.182104e+003;8.280785e-002
3.184033e+003;8.359835e-002
3.185961e+003;8.465990e-002
3.187890e+003;8.568417e-002
3.189818e+003;8.656351e-002
3.191747e+003;8.710185e-002
3.193676e+003;8.790403e-002
3.195604e+003;8.862880e-002
3.197532e+003;8.903929e-002
3.199461e+003;8.966534e-002
3.201390e+003;9.057373e-002
3.203318e+003;9.156047e-002
3.205247e+003;9.229752e-002
3.207175e+003;9.293388e-002
3.209104e+003;9.380834e-002
3.211032e+003;9.440243e-002
3.212961e+003;9.541051e-002
3.214889e+003;9.667867e-002
3.216818e+003;9.736422e-002
3.218747e+003;9.801710e-002
3.220675e+003;9.884071e-002
3.222604e+003;9.996780e-002
3.224532e+003;1.010332e-001
3.226461e+003;1.017314e-001
3.228389e+003;1.025681e-001
3.230318e+003;1.034582e-001
3.232246e+003;1.043355e-001
3.234175e+003;1.057831e-001
3.236104e+003;1.070713e-001
3.238032e+003;1.078794e-001
3.239961e+003;1.087790e-001
3.241889e+003;1.098813e-001
3.243818e+003;1.111327e-001
3.245746e+003;1.124616e-001
3.247675e+003;1.137756e-001
3.249603e+003;1.153058e-001
3.251532e+003;1.168342e-001
3.253460e+003;1.186322e-001
3.255389e+003;1.204131e-001
3.257318e+003;1.217394e-001
3.259246e+003;1.230852e-001
3.261175e+003;1.246820e-001
3.263103e+003;1.262788e-001
3.265032e+003;1.279841e-001
3.266960e+003;1.298940e-001
3.268889e+003;1.317505e-001
3.270817e+003;1.336647e-001
3.272746e+003;1.349088e-001
3.274675e+003;1.357065e-001
3.276603e+003;1.371624e-001
3.278531e+003;1.380363e-001
3.280460e+003;1.380301e-001
3.282389e+003;1.380789e-001
3.284317e+003;1.385856e-001
3.286246e+003;1.388090e-001
3.288174e+003;1.379699e-001
3.290103e+003;1.367875e-001
3.292031e+003;1.359916e-001
3.293960e+003;1.352723e-001
3.295888e+003;1.339077e-001
3.297817e+003;1.320948e-001
3.299746e+003;1.305317e-001
3.301674e+003;1.289940e-001
3.303603e+003;1.271111e-001
3.305531e+003;1.250363e-001
3.307460e+003;1.231478e-001
3.309388e+003;1.210987e-001
3.311317e+003;1.192876e-001
3.313245e+003;1.176966e-001
3.315174e+003;1.159554e-001
3.317103e+003;1.141418e-001
3.319031e+003;1.120608e-001
3.320960e+003;1.101774e-001
3.322888e+003;1.085045e-001
3.324817e+003;1.071863e-001
3.326745e+003;1.057712e-001
3.328674e+003;1.041327e-001
3.330602e+003;1.022624e-001
3.332531e+003;1.005550e-001
3.334459e+003;9.936626e-002
3.336388e+003;9.791812e-002
3.338317e+003;9.618507e-002
3.340245e+003;9.497124e-002
3.342174e+003;9.358428e-002
3.344102e+003;9.242610e-002
3.346031e+003;9.158780e-002
3.347959e+003;9.024490e-002
3.349888e+003;8.879064e-002
3.351816e+003;8.816353e-002
3.353745e+003;8.752703e-002
3.355674e+003;8.631960e-002
3.357602e+003;8.587766e-002
3.359531e+003;8.534471e-002
3.361459e+003;8.376624e-002
3.363388e+003;8.268405e-002
3.365316e+003;8.255589e-002
3.367245e+003;8.213454e-002
3.369173e+003;8.140969e-002
3.371102e+003;8.063135e-002
3.373031e+003;7.975576e-002
3.374959e+003;7.922847e-002
3.376887e+003;7.902492e-002
3.378816e+003;7.862244e-002
3.380745e+003;7.787709e-002
3.382673e+003;7.742058e-002
3.384602e+003;7.673644e-002
3.386530e+003;7.598662e-002
3.388459e+003;7.528786e-002
3.390387e+003;7.453688e-002
3.392316e+003;7.421581e-002
3.394244e+003;7.374090e-002
3.396173e+003;7.299090e-002
3.398102e+003;7.284660e-002
3.400030e+003;7.274450e-002
3.401959e+003;7.234395e-002
3.403887e+003;7.190190e-002
3.405816e+003;7.127666e-002
3.407744e+003;7.035041e-002
3.409673e+003;6.938063e-002
3.411601e+003;6.886097e-002
3.413530e+003;6.843994e-002
3.415458e+003;6.775843e-002
3.417387e+003;6.727452e-002
3.419316e+003;6.683639e-002
3.421244e+003;6.620761e-002
3.423173e+003;6.568892e-002
3.425101e+003;6.548560e-002
3.427030e+003;6.532316e-002
3.428958e+003;6.499501e-002
3.430887e+003;6.436169e-002
3.432815e+003;6.367712e-002
3.434744e+003;6.307560e-002
3.436673e+003;6.286865e-002
3.438601e+003;6.281213e-002
3.440530e+003;6.187389e-002
3.442458e+003;6.121676e-002
3.444387e+003;6.128238e-002
3.446315e+003;6.095738e-002
3.448244e+003;6.064447e-002
3.450172e+003;6.068577e-002
3.452101e+003;6.013100e-002
3.454030e+003;5.954262e-002
3.455958e+003;5.956896e-002
3.457886e+003;5.958150e-002
3.459815e+003;5.962297e-002
3.461744e+003;5.937981e-002
3.463672e+003;5.902203e-002
3.465601e+003;5.876642e-002
3.467529e+003;5.835517e-002
3.469458e+003;5.776950e-002
3.471386e+003;5.742624e-002
3.473315e+003;5.757103e-002
3.475243e+003;5.744261e-002
3.477172e+003;5.709938e-002
3.479101e+003;5.722645e-002
3.481029e+003;5.749280e-002
3.482958e+003;5.745482e-002
3.484886e+003;5.687029e-002
3.486815e+003;5.642362e-002
3.488743e+003;5.646253e-002
3.490672e+003;5.615566e-002
3.492600e+003;5.588561e-002
3.494529e+003;5.574790e-002
3.496458e+003;5.537698e-002
3.498386e+003;5.520071e-002
3.500315e+003;5.519345e-002
3.502243e+003;5.491301e-002
3.504172e+003;5.486985e-002
3.506100e+003;5.456502e-002
3.508029e+003;5.412042e-002
3.509957e+003;5.391577e-002
3.511886e+003;5.401576e-002
3.513814e+003;5.374995e-002
3.515743e+003;5.303172e-002
3.517672e+003;5.247191e-002
3.519600e+003;5.243874e-002
3.521529e+003;5.251550e-002
3.523457e+003;5.234618e-002
3.525386e+003;5.209182e-002
3.527314e+003;5.147472e-002
3.529243e+003;5.103268e-002
3.531171e+003;5.106510e-002
3.533100e+003;5.089172e-002
3.535029e+003;5.053249e-002
3.536957e+003;5.011896e-002
3.538885e+003;4.970637e-002
3.540814e+003;4.945775e-002
3.542743e+003;4.924319e-002
3.544671e+003;4.934712e-002
3.546600e+003;4.943495e-002
3.548528e+003;4.897517e-002
3.550457e+003;4.842460e-002
3.552385e+003;4.777321e-002
3.554314e+003;4.765535e-002
3.556242e+003;4.765794e-002
3.558171e+003;4.723627e-002
3.560100e+003;4.688318e-002
3.562028e+003;4.659486e-002
3.563957e+003;4.602552e-002
3.565885e+003;4.534274e-002
3.567814e+003;4.479733e-002
3.569742e+003;4.454163e-002
3.571671e+003;4.432680e-002
3.573599e+003;4.420646e-002
3.575528e+003;4.425636e-002
3.577457e+003;4.407391e-002
3.579385e+003;4.298029e-002
3.581314e+003;4.212745e-002
3.583242e+003;4.217461e-002
3.585171e+003;4.212818e-002
3.587099e+003;4.192778e-002
3.589028e+003;4.171071e-002
3.590956e+003;4.106396e-002
3.592885e+003;4.026317e-002
3.594813e+003;3.991567e-002
3.596742e+003;4.011389e-002
3.598671e+003;4.018978e-002
3.600599e+003;4.021973e-002
3.602528e+003;3.976698e-002
3.604456e+003;3.869527e-002
3.606385e+003;3.815261e-002
3.608313e+003;3.795173e-002
3.610242e+003;3.751030e-002
3.612170e+003;3.703633e-002
3.614099e+003;3.661988e-002
3.616028e+003;3.614523e-002
3.617956e+003;3.527082e-002
3.619885e+003;3.447704e-002
3.621813e+003;3.435007e-002
3.623742e+003;3.385458e-002
3.625670e+003;3.322471e-002
3.627599e+003;3.263547e-002
3.629527e+003;3.199894e-002
3.631456e+003;3.137816e-002
3.633385e+003;3.109368e-002
3.635313e+003;3.068846e-002
3.637241e+003;2.971832e-002
3.639170e+003;2.884308e-002
3.641099e+003;2.829002e-002
3.643027e+003;2.791836e-002
3.644956e+003;2.742647e-002
3.646884e+003;2.687490e-002
3.648813e+003;2.630909e-002
3.650741e+003;2.583889e-002
3.652670e+003;2.545063e-002
3.654598e+003;2.472411e-002
3.656527e+003;2.391960e-002
3.658456e+003;2.346495e-002
3.660384e+003;2.275829e-002
3.662313e+003;2.173741e-002
3.664241e+003;2.090010e-002
3.666170e+003;2.045245e-002
3.668098e+003;2.004350e-002
3.670027e+003;1.948781e-002
3.671955e+003;1.899834e-002
3.673884e+003;1.865845e-002
3.675813e+003;1.834612e-002
3.677741e+003;1.809733e-002
3.679669e+003;1.767306e-002
3.681598e+003;1.718657e-002
3.683527e+003;1.671026e-002
3.685455e+003;1.607295e-002
3.687384e+003;1.555668e-002
3.689312e+003;1.526394e-002
3.691241e+003;1.524297e-002
3.693169e+003;1.507993e-002
3.695098e+003;1.479224e-002
3.697026e+003;1.443869e-002
3.698955e+003;1.447956e-002
3.700884e+003;1.424342e-002
3.702812e+003;1.407948e-002
3.704741e+003;1.398459e-002
3.706669e+003;1.360089e-002
3.708598e+003;1.326099e-002
3.710526e+003;1.331152e-002
3.712455e+003;1.311142e-002
3.714383e+003;1.281057e-002
3.716312e+003;1.278753e-002
3.718240e+003;1.260856e-002
3.720169e+003;1.239235e-002
3.722098e+003;1.211233e-002
3.724026e+003;1.155940e-002
3.725955e+003;1.160208e-002
3.727883e+003;1.170588e-002
3.729812e+003;1.137423e-002
3.731740e+003;1.133209e-002
3.733669e+003;1.166943e-002
3.735597e+003;1.199967e-002
3.737526e+003;1.191194e-002
3.739455e+003;1.180369e-002
3.741383e+003;1.134158e-002
3.743312e+003;1.084778e-002
3.745240e+003;1.105099e-002
3.747169e+003;1.158710e-002
3.749097e+003;1.169690e-002
3.751026e+003;1.136317e-002
3.752954e+003;1.109252e-002
3.754883e+003;1.114042e-002
3.756812e+003;1.139317e-002
3.758740e+003;1.165673e-002
3.760668e+003;1.159500e-002
3.762597e+003;1.107138e-002
3.764526e+003;1.060672e-002
3.766454e+003;1.047042e-002
3.768383e+003;1.048956e-002
3.770311e+003;1.078790e-002
3.772240e+003;1.098471e-002
3.774168e+003;1.076266e-002
3.776097e+003;1.075821e-002
3.778025e+003;1.078389e-002
3.779954e+003;1.069925e-002
3.781883e+003;1.106961e-002
3.783811e+003;1.151459e-002
3.785740e+003;1.099318e-002
3.787668e+003;1.052948e-002
3.789597e+003;1.057063e-002
3.791525e+003;1.074466e-002
3.793454e+003;1.078735e-002
3.795382e+003;1.073769e-002
3.797311e+003;1.073406e-002
3.799240e+003;1.106475e-002
3.801168e+003;1.124388e-002
3.803097e+003;1.112539e-002
3.805025e+003;1.106417e-002
3.806954e+003;1.082625e-002
3.808882e+003;1.053844e-002
3.810811e+003;1.040552e-002
3.812739e+003;1.070580e-002
3.814668e+003;1.081595e-002
3.816596e+003;1.080162e-002
3.818525e+003;1.092508e-002
3.820454e+003;1.095583e-002
3.822382e+003;1.111190e-002
3.824311e+003;1.097149e-002
3.826239e+003;1.068614e-002
3.828168e+003;1.091754e-002
3.830096e+003;1.123504e-002
3.832025e+003;1.107899e-002
3.833953e+003;1.127104e-002
3.835882e+003;1.135590e-002
3.837811e+003;1.097472e-002
3.839739e+003;1.066468e-002
3.841667e+003;1.051254e-002
3.843596e+003;1.064719e-002
3.845525e+003;1.102536e-002
3.847453e+003;1.108715e-002
3.849382e+003;1.105085e-002
3.851310e+003;1.140209e-002
3.853239e+003;1.133780e-002
3.855167e+003;1.120358e-002
3.857096e+003;1.133304e-002
3.859024e+003;1.156362e-002
3.860953e+003;1.158183e-002
3.862882e+003;1.164322e-002
3.864810e+003;1.164948e-002
3.866739e+003;1.179736e-002
3.868667e+003;1.176835e-002
3.870596e+003;1.161501e-002
3.872524e+003;1.208249e-002
3.874453e+003;1.203868e-002
3.876381e+003;1.183866e-002
3.878310e+003;1.183559e-002
3.880239e+003;1.186995e-002
3.882167e+003;1.205353e-002
3.884096e+003;1.222441e-002
3.886024e+003;1.224608e-002
3.887953e+003;1.209939e-002
3.889881e+003;1.234404e-002
3.891810e+003;1.259266e-002
3.893738e+003;1.263451e-002
3.895667e+003;1.306328e-002
3.897595e+003;1.331784e-002
3.899524e+003;1.303432e-002
3.901453e+003;1.308373e-002
3.903381e+003;1.326683e-002
3.905310e+003;1.309616e-002
3.907238e+003;1.331784e-002
3.909167e+003;1.368312e-002
3.911095e+003;1.350675e-002
3.913024e+003;1.356671e-002
3.914952e+003;1.419624e-002
3.916881e+003;1.449563e-002
3.918810e+003;1.429742e-002
3.920738e+003;1.412952e-002
3.922667e+003;1.394784e-002
3.924595e+003;1.390815e-002
3.926524e+003;1.433899e-002
3.928452e+003;1.442647e-002
3.930381e+003;1.460976e-002
3.932309e+003;1.496862e-002
3.934238e+003;1.466589e-002
3.936167e+003;1.436129e-002
3.938095e+003;1.454870e-002
3.940023e+003;1.482357e-002
3.941952e+003;1.515533e-002
3.943881e+003;1.532826e-002
3.945809e+003;1.523559e-002
3.947738e+003;1.557426e-002
3.949666e+003;1.570211e-002
3.951595e+003;1.538710e-002
3.953523e+003;1.539616e-002
3.955452e+003;1.530104e-002
3.957380e+003;1.537845e-002
3.959309e+003;1.564141e-002
3.961238e+003;1.575849e-002
3.963166e+003;1.576213e-002
3.965095e+003;1.571135e-002
3.967023e+003;1.575210e-002
3.968952e+003;1.572558e-002
3.970880e+003;1.556485e-002
3.972809e+003;1.558233e-002
3.974737e+003;1.580024e-002
3.976666e+003;1.575787e-002
3.978594e+003;1.563406e-002
3.980523e+003;1.580048e-002
3.982452e+003;1.588690e-002
3.984380e+003;1.556475e-002
3.986309e+003;1.538232e-002
3.988237e+003;1.568088e-002
3.990166e+003;1.601519e-002
3.992094e+003;1.569874e-002
3.994023e+003;1.549868e-002
3.995951e+003;1.544103e-002
3.997880e+003;1.556159e-002
3.999809e+003;1.581103e-002
4.001737e+003;0.000000e+000
