3.992094e+002;0.000000e+000
4.011380e+002;0.000000e+000
4.030665e+002;0.000000e+000
4.049951e+002;0.000000e+000
4.069236e+002;0.000000e+000
4.088522e+002;0.000000e+000
4.107807e+002;0.000000e+000
4.127093e+002;0.000000e+000
4.146378e+002;0.000000e+000
4.165664e+002;0.000000e+000
4.184949e+002;0.000000e+000
4.204235e+002;0.000000e+000
4.223520e+002;0.000000e+000
4.242806e+002;0.000000e+000
4.262091e+002;0.000000e+000
4.281377e+002;0.000000e+000
4.300662e+002;0.000000e+000
4.319948e+002;0.000000e+000
4.339233e+002;0.000000e+000
4.358519e+002;0.000000e+000
4.377804e+002;0.000000e+000
4.397090e+002;0.000000e+000
4.416375e+002;0.000000e+000
4.435660e+002;0.000000e+000
4.454946e+002;0.000000e+000
4.474232e+002;0.000000e+000
4.493517e+002;0.000000e+000
4.512802e+002;0.000000e+000
4.532088e+002;0.000000e+000
4.551373e+002;0.000000e+000
4.570659e+002;0.000000e+000
4.589944e+002;0.000000e+000
4.609230e+002;0.000000e+000
4.628515e+002;0.000000e+000
4.647801e+002;0.000000e+000
4.667086e+002;0.000000e+000
4.686372e+002;0.000000e+000
4.705657e+002;0.000000e+000
4.724943e+002;0.000000e+000
4.744228e+002;0.000000e+000
4.763513e+002;0.000000e+000
4.782799e+002;0.000000e+000
4.802085e+002;0.000000e+000
4.821370e+002;0.000000e+000
4.840656e+002;0.000000e+000
4.859941e+002;0.000000e+000
4.879226e+002;0.000000e+000
4.898512e+002;0.000000e+000
4.917798e+002;0.000000e+000
4.937083e+002;0.000000e+000
4.956368e+002;0.000000e+000
4.975654e+002;0.000000e+000
4.994939e+002;0.000000e+000
5.014225e+002;0.000000e+000
5.033510e+002;0.000000e+000
5.052796e+002;0.000000e+000
5.072081e+002;0.000000e+000
5.091367e+002;0.000000e+000
5.110652e+002;0.000000e+000
5.129938e+002;0.000000e+000
5.149223e+002;0.000000e+000
5.168509e+002;0.000000e+000
5.187794e+002;0.000000e+000
5.207079e+002;0.000000e+000
5.226365e+002;0.000000e+000
5.245651e+002;0.000000e+000
5.264936e+002;0.000000e+000
5.284222e+002;0.000000e+000
5.303507e+002;0.000000e+000
5.322792e+002;0.000000e+000
5.342078e+002;0.000000e+000
5.361364e+002;0.000000e+000
5.380649e+002;0.000000e+000
5.399935e+002;0.000000e+000
5.419220e+002;0.000000e+000
5.438505e+002;0.000000e+000
5.457791e+002;0.000000e+000
5.477076e+002;0.000000e+000
5.496362e+002;0.000000e+000
5.515648e+002;0.000000e+000
5.534933e+002;0.000000e+000
5.554218e+002;0.000000e+000
5.573504e+002;0.000000e+000
5.592789e+002;0.000000e+000
5.612075e+002;0.000000e+000
5.631360e+002;0.000000e+000
5.650646e+002;0.000000e+000
5.669931e+002;0.000000e+000
5.689217e+002;0.000000e+000
5.708502e+002;0.000000e+000
5.727787e+002;0.000000e+000
5.747073e+002;0.000000e+000
5.766359e+002;0.000000e+000
5.785644e+002;0.000000e+000
5.804930e+002;0.000000e+000
5.824215e+002;0.000000e+000
5.843500e+002;0.000000e+000
5.862786e+002;0.000000e+000
5.882072e+002;0.000000e+000
5.901357e+002;0.000000e+000
5.920643e+002;0.000000e+000
5.939928e+002;0.000000e+000
5.959213e+002;0.000000e+000
5.978499e+002;0.000000e+000
5.997784e+002;2.130525e-001
6.017070e+002;2.146628e-001
6.036355e+002;2.149634e-001
6.055641e+002;2.109955e-001
6.074926e+002;2.089420e-001
6.094211e+002;2.125019e-001
6.113497e+002;2.139996e-001
6.132783e+002;2.148314e-001
6.152068e+002;2.164993e-001
6.171354e+002;2.166107e-001
6.190639e+002;2.138294e-001
6.209924e+002;2.110051e-001
6.229210e+002;2.076629e-001
6.248495e+002;2.038512e-001
6.267781e+002;2.002880e-001
6.287067e+002;2.051039e-001
6.306352e+002;2.104704e-001
6.325637e+002;2.074332e-001
6.344923e+002;2.036819e-001
6.364208e+002;2.001580e-001
6.383494e+002;1.985065e-001
6.402780e+002;2.001456e-001
6.422065e+002;1.992040e-001
6.441350e+002;1.992825e-001
6.460636e+002;1.978945e-001
6.479921e+002;1.972254e-001
6.499207e+002;1.960568e-001
6.518492e+002;1.928952e-001
6.537778e+002;1.947336e-001
6.557063e+002;1.954659e-001
6.576349e+002;1.914505e-001
6.595634e+002;1.896288e-001
6.614919e+002;1.917569e-001
6.634205e+002;1.935912e-001
6.653491e+002;1.924062e-001
6.672776e+002;1.918855e-001
6.692062e+002;1.928893e-001
6.711347e+002;1.923953e-001
6.730632e+002;1.891330e-001
6.749918e+002;1.895953e-001
6.769203e+002;1.912460e-001
6.788489e+002;1.908074e-001
6.807775e+002;1.902119e-001
6.827060e+002;1.895186e-001
6.846345e+002;1.892061e-001
6.865631e+002;1.887844e-001
6.884916e+002;1.878254e-001
6.904202e+002;1.868444e-001
6.923488e+002;1.853339e-001
6.942773e+002;1.837642e-001
6.962058e+002;1.832811e-001
6.981344e+002;1.819756e-001
7.000629e+002;1.809483e-001
7.019915e+002;1.795819e-001
7.039200e+002;1.773473e-001
7.058486e+002;1.750451e-001
7.077771e+002;1.726136e-001
7.097057e+002;1.705724e-001
7.116342e+002;1.694754e-001
7.135627e+002;1.688074e-001
7.154913e+002;1.667002e-001
7.174199e+002;1.635271e-001
7.193484e+002;1.610792e-001
7.212770e+002;1.593678e-001
7.232055e+002;1.579329e-001
7.251340e+002;1.562041e-001
7.270626e+002;1.542043e-001
7.289911e+002;1.523663e-001
7.309197e+002;1.496335e-001
7.328483e+002;1.472512e-001
7.347768e+002;1.454520e-001
7.367053e+002;1.427844e-001
7.386339e+002;1.407959e-001
7.405624e+002;1.386661e-001
7.424910e+002;1.359794e-001
7.444196e+002;1.338064e-001
7.463481e+002;1.327692e-001
7.482766e+002;1.305838e-001
7.502052e+002;1.278018e-001
7.521337e+002;1.258615e-001
7.540623e+002;1.243869e-001
7.559908e+002;1.233245e-001
7.579194e+002;1.226757e-001
7.598479e+002;1.214964e-001
7.617765e+002;1.207116e-001
7.637050e+002;1.191723e-001
7.656335e+002;1.178236e-001
7.675621e+002;1.174741e-001
7.694907e+002;1.165434e-001
7.714192e+002;1.148684e-001
7.733478e+002;1.132412e-001
7.752763e+002;1.121418e-001
7.772048e+002;1.104437e-001
7.791334e+002;1.083517e-001
7.810620e+002;1.073813e-001
7.829905e+002;1.065920e-001
7.849191e+002;1.055064e-001
7.868476e+002;1.047344e-001
7.887761e+002;1.040451e-001
7.907047e+002;1.026960e-001
7.926332e+002;1.015104e-001
7.945618e+002;1.006081e-001
7.964903e+002;9.932427e-002
7.984189e+002;9.852532e-002
8.003474e+002;9.836566e-002
8.022759e+002;9.873942e-002
8.042045e+002;9.895393e-002
8.061331e+002;9.925418e-002
8.080616e+002;9.914697e-002
8.099902e+002;9.900786e-002
8.119187e+002;9.921500e-002
8.138472e+002;9.951960e-002
8.157758e+002;9.962808e-002
8.177043e+002;9.950648e-002
8.196329e+002;9.891968e-002
8.215615e+002;9.889285e-002
8.234900e+002;9.979190e-002
8.254185e+002;1.003451e-001
8.273471e+002;1.007395e-001
8.292756e+002;1.007774e-001
8.312042e+002;1.004416e-001
8.331328e+002;9.896374e-002
8.350613e+002;9.703226e-002
8.369898e+002;9.563626e-002
8.389184e+002;9.485947e-002
8.408469e+002;9.475449e-002
8.427755e+002;9.462449e-002
8.447040e+002;9.473162e-002
8.466326e+002;9.503441e-002
8.485611e+002;9.503194e-002
8.504897e+002;9.477428e-002
8.524182e+002;9.453002e-002
8.543467e+002;9.390236e-002
8.562753e+002;9.218923e-002
8.582039e+002;9.004534e-002
8.601324e+002;8.818249e-002
8.620610e+002;8.658616e-002
8.639895e+002;8.459692e-002
8.659180e+002;8.359220e-002
8.678466e+002;8.338435e-002
8.697751e+002;8.267327e-002
8.717037e+002;8.192323e-002
8.736323e+002;8.161204e-002
8.755608e+002;8.200707e-002
8.774893e+002;8.228714e-002
8.794179e+002;8.214211e-002
8.813464e+002;8.211421e-002
8.832750e+002;8.244399e-002
8.852036e+002;8.280376e-002
8.871321e+002;8.271905e-002
8.890606e+002;8.274490e-002
8.909892e+002;8.251707e-002
8.929177e+002;8.231277e-002
8.948463e+002;8.206986e-002
8.967748e+002;8.200843e-002
8.987034e+002;8.227913e-002
9.006319e+002;8.249607e-002
9.025605e+002;8.216469e-002
9.044890e+002;8.209660e-002
9.064175e+002;8.267801e-002
9.083461e+002;8.304102e-002
9.102747e+002;8.298695e-002
9.122032e+002;8.337306e-002
9.141318e+002;8.445850e-002
9.160603e+002;8.573087e-002
9.179888e+002;8.708055e-002
9.199174e+002;8.859975e-002
9.218459e+002;9.036512e-002
9.237745e+002;9.186020e-002
9.257031e+002;9.313038e-002
9.276316e+002;9.407675e-002
9.295601e+002;9.463083e-002
9.314887e+002;9.465457e-002
9.334172e+002;9.472515e-002
9.353458e+002;9.525362e-002
9.372744e+002;9.575711e-002
9.392029e+002;9.591833e-002
9.411314e+002;9.613500e-002
9.430600e+002;9.694224e-002
9.449885e+002;9.783930e-002
9.469171e+002;9.830525e-002
9.488456e+002;9.893508e-002
9.507742e+002;1.001846e-001
9.527027e+002;1.012164e-001
9.546313e+002;1.022042e-001
9.565598e+002;1.034138e-001
9.584883e+002;1.046995e-001
9.604169e+002;1.062612e-001
9.623455e+002;1.080873e-001
9.642740e+002;1.096025e-001
9.662026e+002;1.109986e-001
9.681311e+002;1.128637e-001
9.700596e+002;1.145951e-001
9.719882e+002;1.160612e-001
9.739167e+002;1.171667e-001
9.758453e+002;1.176969e-001
9.777739e+002;1.173743e-001
9.797024e+002;1.165530e-001
9.816309e+002;1.159364e-001
9.835595e+002;1.154612e-001
9.854880e+002;1.153796e-001
9.874166e+002;1.164875e-001
9.893452e+002;1.182614e-001
9.912737e+002;1.200321e-001
9.932022e+002;1.210378e-001
9.951307e+002;1.213595e-001
9.970593e+002;1.215416e-001
9.989879e+002;1.211144e-001
1.000916e+003;1.205908e-001
1.002845e+003;1.201979e-001
1.004773e+003;1.195217e-001
1.006702e+003;1.194410e-001
1.008631e+003;1.197980e-001
1.010559e+003;1.201377e-001
1.012488e+003;1.202226e-001
1.014416e+003;1.202505e-001
1.016345e+003;1.200774e-001
1.018273e+003;1.193118e-001
1.020202e+003;1.192538e-001
1.022130e+003;1.198139e-001
1.024059e+003;1.203642e-001
1.025988e+003;1.220105e-001
1.027916e+003;1.242152e-001
1.029845e+003;1.263977e-001
1.031773e+003;1.283349e-001
1.033702e+003;1.302103e-001
1.035630e+003;1.321148e-001
1.037559e+003;1.337734e-001
1.039487e+003;1.349141e-001
1.041416e+003;1.358455e-001
1.043344e+003;1.366129e-001
1.045273e+003;1.375661e-001
1.047202e+003;1.382924e-001
1.049130e+003;1.389449e-001
1.051059e+003;1.403179e-001
1.052987e+003;1.418252e-001
1.054916e+003;1.431924e-001
1.056844e+003;1.444408e-001
1.058773e+003;1.458534e-001
1.060701e+003;1.473834e-001
1.062630e+003;1.482709e-001
1.064558e+003;1.485856e-001
1.066487e+003;1.488628e-001
1.068416e+003;1.491156e-001
1.070344e+003;1.486145e-001
1.072273e+003;1.472178e-001
1.074201e+003;1.452658e-001
1.076130e+003;1.433805e-001
1.078058e+003;1.414238e-001
1.079987e+003;1.388747e-001
1.081915e+003;1.362187e-001
1.083844e+003;1.339399e-001
1.085773e+003;1.311665e-001
1.087701e+003;1.290635e-001
1.089630e+003;1.273284e-001
1.091558e+003;1.255195e-001
1.093487e+003;1.247568e-001
1.095415e+003;1.239915e-001
1.097344e+003;1.230339e-001
1.099272e+003;1.228459e-001
1.101201e+003;1.229890e-001
1.103129e+003;1.227948e-001
1.105058e+003;1.220334e-001
1.106987e+003;1.211496e-001
1.108915e+003;1.200918e-001
1.110844e+003;1.187734e-001
1.112772e+003;1.181415e-001
1.114701e+003;1.179530e-001
1.116629e+003;1.177595e-001
1.118558e+003;1.173397e-001
1.120486e+003;1.171024e-001
1.122415e+003;1.173447e-001
1.124344e+003;1.172023e-001
1.126272e+003;1.168009e-001
1.128201e+003;1.171135e-001
1.130129e+003;1.177720e-001
1.132058e+003;1.186292e-001
1.133986e+003;1.193204e-001
1.135915e+003;1.197063e-001
1.137843e+003;1.205751e-001
1.139772e+003;1.220682e-001
1.141700e+003;1.232025e-001
1.143629e+003;1.244821e-001
1.145557e+003;1.261298e-001
1.147486e+003;1.274943e-001
1.149415e+003;1.284418e-001
1.151343e+003;1.292606e-001
1.153272e+003;1.303310e-001
1.155200e+003;1.313073e-001
1.157129e+003;1.325302e-001
1.159057e+003;1.334927e-001
1.160986e+003;1.338839e-001
1.162914e+003;1.339877e-001
1.164843e+003;1.342818e-001
1.166771e+003;1.349791e-001
1.168700e+003;1.354002e-001
1.170629e+003;1.355791e-001
1.172557e+003;1.350244e-001
1.174486e+003;1.338516e-001
1.176414e+003;1.326666e-001
1.178343e+003;1.312307e-001
1.180271e+003;1.296938e-001
1.182200e+003;1.287304e-001
1.184128e+003;1.288351e-001
1.186057e+003;1.295760e-001
1.187986e+003;1.302796e-001
1.189914e+003;1.316631e-001
1.191843e+003;1.336664e-001
1.193771e+003;1.356520e-001
1.195700e+003;1.378950e-001
1.197628e+003;1.405670e-001
1.199557e+003;1.435275e-001
1.201485e+003;1.468550e-001
1.203414e+003;1.503274e-001
1.205343e+003;1.541229e-001
1.207271e+003;1.579720e-001
1.209200e+003;1.611995e-001
1.211128e+003;1.641275e-001
1.213057e+003;1.673518e-001
1.214985e+003;1.699404e-001
1.216914e+003;1.720406e-001
1.218842e+003;1.742738e-001
1.220771e+003;1.765651e-001
1.222699e+003;1.785963e-001
1.224628e+003;1.798812e-001
1.226557e+003;1.802413e-001
1.228485e+003;1.804823e-001
1.230414e+003;1.804206e-001
1.232342e+003;1.797410e-001
1.234271e+003;1.783451e-001
1.236199e+003;1.770775e-001
1.238128e+003;1.758838e-001
1.240056e+003;1.742658e-001
1.241985e+003;1.724076e-001
1.243913e+003;1.708818e-001
1.245842e+003;1.697342e-001
1.247771e+003;1.688129e-001
1.249699e+003;1.679505e-001
1.251628e+003;1.672060e-001
1.253556e+003;1.665822e-001
1.255485e+003;1.657055e-001
1.257413e+003;1.649437e-001
1.259342e+003;1.641192e-001
1.261270e+003;1.626158e-001
1.263199e+003;1.604913e-001
1.265127e+003;1.578263e-001
1.267056e+003;1.552834e-001
1.268985e+003;1.528208e-001
1.270913e+003;1.500835e-001
1.272842e+003;1.474698e-001
1.274770e+003;1.452374e-001
1.276699e+003;1.431954e-001
1.278627e+003;1.415225e-001
1.280556e+003;1.402190e-001
1.282484e+003;1.390044e-001
1.284413e+003;1.379509e-001
1.286342e+003;1.371535e-001
1.288270e+003;1.365978e-001
1.290199e+003;1.362935e-001
1.292127e+003;1.361809e-001
1.294056e+003;1.361366e-001
1.295984e+003;1.359265e-001
1.297913e+003;1.356474e-001
1.299841e+003;1.355611e-001
1.301770e+003;1.356710e-001
1.303698e+003;1.355244e-001
1.305627e+003;1.353219e-001
1.307556e+003;1.350427e-001
1.309484e+003;1.346776e-001
1.311413e+003;1.343663e-001
1.313341e+003;1.342667e-001
1.315270e+003;1.340719e-001
1.317198e+003;1.340527e-001
1.319127e+003;1.344713e-001
1.321055e+003;1.348106e-001
1.322984e+003;1.353294e-001
1.324912e+003;1.360494e-001
1.326841e+003;1.366453e-001
1.328770e+003;1.372020e-001
1.330698e+003;1.377170e-001
1.332627e+003;1.379977e-001
1.334555e+003;1.382573e-001
1.336484e+003;1.384881e-001
1.338412e+003;1.384480e-001
1.340341e+003;1.384505e-001
1.342269e+003;1.386454e-001
1.344198e+003;1.384559e-001
1.346126e+003;1.384258e-001
1.348055e+003;1.386383e-001
1.349984e+003;1.387297e-001
1.351912e+003;1.389956e-001
1.353841e+003;1.396811e-001
1.355769e+003;1.408305e-001
1.357698e+003;1.421822e-001
1.359626e+003;1.438973e-001
1.361555e+003;1.463403e-001
1.363483e+003;1.488573e-001
1.365412e+003;1.509340e-001
1.367341e+003;1.525401e-001
1.369269e+003;1.532745e-001
1.371198e+003;1.530939e-001
1.373126e+003;1.524319e-001
1.375055e+003;1.519539e-001
1.376983e+003;1.518147e-001
1.378912e+003;1.518276e-001
1.380840e+003;1.519646e-001
1.382769e+003;1.520870e-001
1.384698e+003;1.523777e-001
1.386626e+003;1.526466e-001
1.388555e+003;1.528210e-001
1.390483e+003;1.529367e-001
1.392412e+003;1.528671e-001
1.394340e+003;1.526356e-001
1.396269e+003;1.526243e-001
1.398197e+003;1.529892e-001
1.400126e+003;1.535165e-001
1.402054e+003;1.543214e-001
1.403983e+003;1.551309e-001
1.405911e+003;1.558291e-001
1.407840e+003;1.564729e-001
1.409769e+003;1.569293e-001
1.411697e+003;1.573831e-001
1.413626e+003;1.577976e-001
1.415554e+003;1.580928e-001
1.417483e+003;1.585946e-001
1.419411e+003;1.593070e-001
1.421340e+003;1.604832e-001
1.423268e+003;1.624709e-001
1.425197e+003;1.649978e-001
1.427125e+003;1.680134e-001
1.429054e+003;1.716208e-001
1.430983e+003;1.757574e-001
1.432911e+003;1.802689e-001
1.434840e+003;1.847032e-001
1.436768e+003;1.883574e-001
1.438697e+003;1.908473e-001
1.440625e+003;1.926058e-001
1.442554e+003;1.938581e-001
1.444482e+003;1.943667e-001
1.446411e+003;1.939948e-001
1.448340e+003;1.925247e-001
1.450268e+003;1.900527e-001
1.452197e+003;1.867768e-001
1.454125e+003;1.834358e-001
1.456054e+003;1.802172e-001
1.457982e+003;1.773228e-001
1.459911e+003;1.752897e-001
1.461839e+003;1.743037e-001
1.463768e+003;1.739542e-001
1.465697e+003;1.735957e-001
1.467625e+003;1.738021e-001
1.469554e+003;1.749813e-001
1.471482e+003;1.766666e-001
1.473411e+003;1.786186e-001
1.475339e+003;1.808997e-001
1.477268e+003;1.836687e-001
1.479196e+003;1.868102e-001
1.481125e+003;1.906115e-001
1.483053e+003;1.951923e-001
1.484982e+003;2.005320e-001
1.486911e+003;2.065173e-001
1.488839e+003;2.125408e-001
1.490768e+003;2.184129e-001
1.492696e+003;2.242652e-001
1.494625e+003;2.299360e-001
1.496553e+003;2.357469e-001
1.498482e+003;2.413834e-001
1.500410e+003;2.460432e-001
1.502339e+003;2.503640e-001
1.504267e+003;2.545093e-001
1.506196e+003;2.581554e-001
1.508125e+003;2.612168e-001
1.510053e+003;2.637436e-001
1.511982e+003;2.654722e-001
1.513910e+003;2.656795e-001
1.515839e+003;2.636471e-001
1.517767e+003;2.592764e-001
1.519696e+003;2.539344e-001
1.521624e+003;2.484837e-001
1.523553e+003;2.434359e-001
1.525481e+003;2.386377e-001
1.527410e+003;2.342309e-001
1.529339e+003;2.302624e-001
1.531267e+003;2.267309e-001
1.533196e+003;2.229760e-001
1.535124e+003;2.188390e-001
1.537053e+003;2.149772e-001
1.538981e+003;2.109997e-001
1.540910e+003;2.067916e-001
1.542838e+003;2.028279e-001
1.544767e+003;1.991573e-001
1.546695e+003;1.959845e-001
1.548624e+003;1.925076e-001
1.550553e+003;1.882787e-001
1.552481e+003;1.841643e-001
1.554410e+003;1.804629e-001
1.556338e+003;1.766542e-001
1.558267e+003;1.725298e-001
1.560195e+003;1.682277e-001
1.562124e+003;1.642123e-001
1.564052e+003;1.603908e-001
1.565981e+003;1.565238e-001
1.567910e+003;1.530274e-001
1.569838e+003;1.498135e-001
1.571767e+003;1.473123e-001
1.573695e+003;1.454911e-001
1.575624e+003;1.442575e-001
1.577552e+003;1.435060e-001
1.579481e+003;1.431262e-001
1.581409e+003;1.433305e-001
1.583338e+003;1.441097e-001
1.585266e+003;1.457876e-001
1.587195e+003;1.484183e-001
1.589124e+003;1.516487e-001
1.591052e+003;1.557428e-001
1.592981e+003;1.603251e-001
1.594909e+003;1.650611e-001
1.596838e+003;1.706309e-001
1.598766e+003;1.769738e-001
1.600695e+003;1.837206e-001
1.602623e+003;1.913485e-001
1.604552e+003;2.001938e-001
1.606480e+003;2.097048e-001
1.608409e+003;2.194703e-001
1.610338e+003;2.289831e-001
1.612266e+003;2.383904e-001
1.614195e+003;2.471631e-001
1.616123e+003;2.542713e-001
1.618052e+003;2.599732e-001
1.619980e+003;2.643957e-001
1.621909e+003;2.675624e-001
1.623837e+003;2.688922e-001
1.625766e+003;2.682168e-001
1.627694e+003;2.661426e-001
1.629623e+003;2.631107e-001
1.631552e+003;2.589516e-001
1.633480e+003;2.543614e-001
1.635409e+003;2.493668e-001
1.637337e+003;2.440281e-001
1.639266e+003;2.391664e-001
1.641194e+003;2.346458e-001
1.643123e+003;2.303205e-001
1.645051e+003;2.258409e-001
1.646980e+003;2.211529e-001
1.648909e+003;2.165500e-001
1.650837e+003;2.120935e-001
1.652766e+003;2.070853e-001
1.654694e+003;2.019046e-001
1.656623e+003;1.967344e-001
1.658551e+003;1.914746e-001
1.660480e+003;1.865153e-001
1.662408e+003;1.813947e-001
1.664337e+003;1.762966e-001
1.666266e+003;1.716932e-001
1.668194e+003;1.674629e-001
1.670123e+003;1.632194e-001
1.672051e+003;1.592431e-001
1.673980e+003;1.553864e-001
1.675908e+003;1.512727e-001
1.677837e+003;1.474047e-001
1.679765e+003;1.438390e-001
1.681694e+003;1.406990e-001
1.683622e+003;1.377515e-001
1.685551e+003;1.346425e-001
1.687479e+003;1.320171e-001
1.689408e+003;1.300425e-001
1.691337e+003;1.285159e-001
1.693265e+003;1.272537e-001
1.695194e+003;1.260225e-001
1.697122e+003;1.244191e-001
1.699051e+003;1.215716e-001
1.700979e+003;1.161856e-001
1.702908e+003;1.086377e-001
1.704836e+003;9.974146e-002
1.706765e+003;9.090280e-002
1.708693e+003;8.303256e-002
1.710622e+003;7.658803e-002
1.712551e+003;7.146033e-002
1.714479e+003;6.728806e-002
1.716408e+003;6.382263e-002
1.718336e+003;6.097530e-002
1.720265e+003;5.847719e-002
1.722193e+003;5.622415e-002
1.724122e+003;5.430027e-002
1.726050e+003;5.281467e-002
1.727979e+003;5.156486e-002
1.729908e+003;5.022641e-002
1.731836e+003;4.890731e-002
1.733765e+003;4.801295e-002
1.735693e+003;4.703699e-002
1.737622e+003;4.591594e-002
1.739550e+003;4.477023e-002
1.741479e+003;4.374657e-002
1.743407e+003;4.286665e-002
1.745336e+003;4.194048e-002
1.747265e+003;4.118587e-002
1.749193e+003;4.060276e-002
1.751122e+003;3.992086e-002
1.753050e+003;3.932022e-002
1.754979e+003;3.874157e-002
1.756907e+003;3.811600e-002
1.758836e+003;3.763559e-002
1.760764e+003;3.730268e-002
1.762693e+003;3.700653e-002
1.764621e+003;3.657572e-002
1.766550e+003;3.613035e-002
1.768479e+003;3.586397e-002
1.770407e+003;3.568886e-002
1.772336e+003;3.515282e-002
1.774264e+003;3.472039e-002
1.776193e+003;3.476429e-002
1.778121e+003;3.453878e-002
1.780050e+003;3.411937e-002
1.781978e+003;3.361690e-002
1.783907e+003;3.317274e-002
1.785835e+003;3.305627e-002
1.787764e+003;3.282597e-002
1.789693e+003;3.234445e-002
1.791621e+003;3.193652e-002
1.793550e+003;3.171237e-002
1.795478e+003;3.177279e-002
1.797407e+003;3.161632e-002
1.799335e+003;3.122112e-002
1.801264e+003;3.077203e-002
1.803192e+003;3.038122e-002
1.805121e+003;3.005226e-002
1.807049e+003;2.985924e-002
1.808978e+003;2.957923e-002
1.810907e+003;2.929769e-002
1.812835e+003;2.903572e-002
1.814764e+003;2.857052e-002
1.816692e+003;2.819692e-002
1.818621e+003;2.799769e-002
1.820549e+003;2.780570e-002
1.822478e+003;2.774706e-002
1.824406e+003;2.776370e-002
1.826335e+003;2.745877e-002
1.828264e+003;2.704264e-002
1.830192e+003;2.682615e-002
1.832121e+003;2.661903e-002
1.834049e+003;2.623858e-002
1.835978e+003;2.593371e-002
1.837906e+003;2.577159e-002
1.839835e+003;2.557769e-002
1.841763e+003;2.539509e-002
1.843692e+003;2.523345e-002
1.845620e+003;2.502982e-002
1.847549e+003;2.476413e-002
1.849478e+003;2.455217e-002
1.851406e+003;2.440637e-002
1.853335e+003;2.422633e-002
1.855263e+003;2.416404e-002
1.857192e+003;2.416751e-002
1.859120e+003;2.410558e-002
1.861049e+003;2.395461e-002
1.862977e+003;2.391148e-002
1.864906e+003;2.394960e-002
1.866834e+003;2.388057e-002
1.868763e+003;2.365224e-002
1.870692e+003;2.361694e-002
1.872620e+003;2.370963e-002
1.874549e+003;2.363646e-002
1.876477e+003;2.348982e-002
1.878406e+003;2.345831e-002
1.880334e+003;2.363219e-002
1.882263e+003;2.370609e-002
1.884191e+003;2.346457e-002
1.886120e+003;2.315135e-002
1.888048e+003;2.306937e-002
1.889977e+003;2.309481e-002
1.891906e+003;2.301312e-002
1.893834e+003;2.283864e-002
1.895763e+003;2.284025e-002
1.897691e+003;2.280756e-002
1.899620e+003;2.257683e-002
1.901548e+003;2.237985e-002
1.903477e+003;2.226673e-002
1.905405e+003;2.236719e-002
1.907334e+003;2.260423e-002
1.909262e+003;2.238094e-002
1.911191e+003;2.206223e-002
1.913120e+003;2.203654e-002
1.915048e+003;2.212303e-002
1.916977e+003;2.229826e-002
1.918905e+003;2.249377e-002
1.920834e+003;2.244175e-002
1.922762e+003;2.214133e-002
1.924691e+003;2.203999e-002
1.926619e+003;2.208761e-002
1.928548e+003;2.194072e-002
1.930477e+003;2.173483e-002
1.932405e+003;2.166193e-002
1.934334e+003;2.178232e-002
1.936262e+003;2.194312e-002
1.938191e+003;2.202570e-002
1.940119e+003;2.199649e-002
1.942048e+003;2.196139e-002
1.943976e+003;2.201576e-002
1.945905e+003;2.194257e-002
1.947833e+003;2.186116e-002
1.949762e+003;2.177618e-002
1.951691e+003;2.192127e-002
1.953619e+003;2.205717e-002
1.955548e+003;2.200816e-002
1.957476e+003;2.204581e-002
1.959405e+003;2.203800e-002
1.961333e+003;2.194926e-002
1.963262e+003;2.201858e-002
1.965190e+003;2.208893e-002
1.967119e+003;2.202448e-002
1.969047e+003;2.186472e-002
1.970976e+003;2.173469e-002
1.972905e+003;2.184381e-002
1.974833e+003;2.181036e-002
1.976762e+003;2.171947e-002
1.978690e+003;2.157361e-002
1.980619e+003;2.132872e-002
1.982547e+003;2.128925e-002
1.984476e+003;2.137295e-002
1.986404e+003;2.141562e-002
1.988333e+003;2.147080e-002
1.990261e+003;2.145677e-002
1.992190e+003;2.132882e-002
1.994119e+003;2.134152e-002
1.996047e+003;2.142718e-002
1.997976e+003;2.117370e-002
1.999904e+003;2.106503e-002
2.001833e+003;2.117589e-002
2.003761e+003;2.118066e-002
2.005690e+003;2.116963e-002
2.007618e+003;2.114062e-002
2.009547e+003;2.114823e-002
2.011476e+003;2.101314e-002
2.013404e+003;2.076254e-002
2.015333e+003;2.073676e-002
2.017261e+003;2.077697e-002
2.019190e+003;2.080943e-002
2.021118e+003;2.081263e-002
2.023047e+003;2.087552e-002
2.024975e+003;2.087826e-002
2.026904e+003;2.077857e-002
2.028833e+003;2.079925e-002
2.030761e+003;2.085480e-002
2.032690e+003;2.075420e-002
2.034618e+003;2.086794e-002
2.036547e+003;2.086338e-002
2.038475e+003;2.076161e-002
2.040404e+003;2.074687e-002
2.042332e+003;2.077683e-002
2.044261e+003;2.070061e-002
2.046189e+003;2.070395e-002
2.048118e+003;2.075111e-002
2.050047e+003;2.071417e-002
2.051975e+003;2.063994e-002
2.053904e+003;2.084875e-002
2.055832e+003;2.087378e-002
2.057761e+003;2.062677e-002
2.059689e+003;2.063928e-002
2.061618e+003;2.077095e-002
2.063546e+003;2.063647e-002
2.065475e+003;2.060523e-002
2.067404e+003;2.086606e-002
2.069332e+003;2.079518e-002
2.071260e+003;2.065638e-002
2.073189e+003;2.077367e-002
2.075118e+003;2.094272e-002
2.077046e+003;2.094832e-002
2.078975e+003;2.080439e-002
2.080903e+003;2.075187e-002
2.082832e+003;2.078242e-002
2.084760e+003;2.089874e-002
2.086689e+003;2.090618e-002
2.088617e+003;2.084374e-002
2.090546e+003;2.083408e-002
2.092475e+003;2.079529e-002
2.094403e+003;2.073203e-002
2.096332e+003;2.080380e-002
2.098260e+003;2.087938e-002
2.100189e+003;2.072101e-002
2.102117e+003;2.071851e-002
2.104046e+003;2.088212e-002
2.105974e+003;2.080811e-002
2.107903e+003;2.079525e-002
2.109832e+003;2.103985e-002
2.111760e+003;2.098636e-002
2.113688e+003;2.066117e-002
2.115617e+003;2.050073e-002
2.117546e+003;2.069460e-002
2.119474e+003;2.075771e-002
2.121403e+003;2.058067e-002
2.123331e+003;2.044495e-002
2.125260e+003;2.055642e-002
2.127188e+003;2.078281e-002
2.129117e+003;2.069231e-002
2.131045e+003;2.043655e-002
2.132974e+003;2.040387e-002
2.134903e+003;2.047690e-002
2.136831e+003;2.050167e-002
2.138760e+003;2.049375e-002
2.140688e+003;2.051636e-002
2.142617e+003;2.059786e-002
2.144545e+003;2.063150e-002
2.146474e+003;2.046183e-002
2.148402e+003;2.029869e-002
2.150331e+003;2.037129e-002
2.152260e+003;2.031327e-002
2.154188e+003;2.013502e-002
2.156117e+003;2.010746e-002
2.158045e+003;2.026300e-002
2.159974e+003;2.040404e-002
2.161902e+003;2.030587e-002
2.163831e+003;2.028654e-002
2.165759e+003;2.045923e-002
2.167688e+003;2.049007e-002
2.169616e+003;2.045915e-002
2.171545e+003;2.045280e-002
2.173474e+003;2.043474e-002
2.175402e+003;2.030876e-002
2.177331e+003;2.027077e-002
2.179259e+003;2.020221e-002
2.181188e+003;2.005759e-002
2.183116e+003;2.011575e-002
2.185045e+003;2.030077e-002
2.186973e+003;2.024373e-002
2.188902e+003;2.018958e-002
2.190831e+003;2.005263e-002
2.192759e+003;1.993560e-002
2.194688e+003;2.004631e-002
2.196616e+003;2.022911e-002
2.198545e+003;2.020582e-002
2.200473e+003;2.003990e-002
2.202402e+003;2.003004e-002
2.204330e+003;2.006488e-002
2.206259e+003;2.022002e-002
2.208188e+003;2.033379e-002
2.210116e+003;2.007081e-002
2.212044e+003;1.989051e-002
2.213973e+003;1.999642e-002
2.215902e+003;1.996093e-002
2.217830e+003;1.984403e-002
2.219759e+003;1.989686e-002
2.221687e+003;2.009361e-002
2.223616e+003;1.992180e-002
2.225544e+003;1.990542e-002
2.227473e+003;2.017000e-002
2.229401e+003;2.030955e-002
2.231330e+003;2.021006e-002
2.233259e+003;1.995212e-002
2.235187e+003;2.002758e-002
2.237116e+003;2.013984e-002
2.239044e+003;1.994285e-002
2.240973e+003;1.991899e-002
2.242901e+003;2.012217e-002
2.244830e+003;2.014206e-002
2.246758e+003;2.016729e-002
2.248687e+003;2.024654e-002
2.250615e+003;2.017729e-002
2.252544e+003;2.000922e-002
2.254473e+003;1.980841e-002
2.256401e+003;1.985485e-002
2.258330e+003;2.003986e-002
2.260258e+003;2.007414e-002
2.262187e+003;1.999451e-002
2.264115e+003;1.998164e-002
2.266044e+003;1.985520e-002
2.267972e+003;1.972990e-002
2.269901e+003;1.988954e-002
2.271830e+003;2.003681e-002
2.273758e+003;2.018073e-002
2.275687e+003;2.028025e-002
2.277615e+003;2.004184e-002
2.279544e+003;1.987608e-002
2.281472e+003;1.988156e-002
2.283401e+003;1.988395e-002
2.285329e+003;2.009209e-002
2.287258e+003;2.024554e-002
2.289187e+003;2.027681e-002
2.291115e+003;2.034681e-002
2.293043e+003;2.032580e-002
2.294972e+003;2.026588e-002
2.296901e+003;2.015081e-002
2.298829e+003;2.017576e-002
2.300758e+003;2.035032e-002
2.302686e+003;2.042595e-002
2.304615e+003;2.046961e-002
2.306543e+003;2.068362e-002
2.308472e+003;2.075914e-002
2.310400e+003;2.042540e-002
2.312329e+003;2.022998e-002
2.314258e+003;2.035921e-002
2.316186e+003;2.044002e-002
2.318115e+003;2.023842e-002
2.320043e+003;2.035355e-002
2.321972e+003;2.053002e-002
2.323900e+003;2.030178e-002
2.325829e+003;2.011280e-002
2.327757e+003;2.019600e-002
2.329686e+003;2.029872e-002
2.331615e+003;2.039807e-002
2.333543e+003;2.044703e-002
2.335472e+003;2.043505e-002
2.337400e+003;2.057851e-002
2.339329e+003;2.084430e-002
2.341257e+003;2.077978e-002
2.343186e+003;2.044228e-002
2.345114e+003;2.036855e-002
2.347043e+003;2.040942e-002
2.348971e+003;2.026668e-002
2.350900e+003;2.037539e-002
2.352829e+003;2.043592e-002
2.354757e+003;2.036414e-002
2.356686e+003;2.045756e-002
2.358614e+003;2.068192e-002
2.360543e+003;2.084319e-002
2.362471e+003;2.077523e-002
2.364400e+003;2.054985e-002
2.366328e+003;2.052296e-002
2.368257e+003;2.067938e-002
2.370186e+003;2.074183e-002
2.372114e+003;2.072970e-002
2.374042e+003;2.067462e-002
2.375971e+003;2.069585e-002
2.377900e+003;2.076574e-002
2.379828e+003;2.088925e-002
2.381757e+003;2.102417e-002
2.383685e+003;2.100653e-002
2.385614e+003;2.090469e-002
2.387542e+003;2.109220e-002
2.389471e+003;2.135322e-002
2.391399e+003;2.150774e-002
2.393328e+003;2.138489e-002
2.395257e+003;2.124673e-002
2.397185e+003;2.141326e-002
2.399114e+003;2.179109e-002
2.401042e+003;2.200956e-002
2.402971e+003;2.224483e-002
2.404899e+003;2.251796e-002
2.406828e+003;2.260008e-002
2.408756e+003;2.256399e-002
2.410685e+003;2.280892e-002
2.412614e+003;2.316285e-002
2.414542e+003;2.337539e-002
2.416471e+003;2.347985e-002
2.418399e+003;2.365714e-002
2.420328e+003;2.402804e-002
2.422256e+003;2.418558e-002
2.424185e+003;2.431680e-002
2.426113e+003;2.448973e-002
2.428042e+003;2.468833e-002
2.429970e+003;2.483513e-002
2.431899e+003;2.487418e-002
2.433828e+003;2.478826e-002
2.435756e+003;2.484559e-002
2.437685e+003;2.521449e-002
2.439613e+003;2.540025e-002
2.441542e+003;2.540836e-002
2.443470e+003;2.560408e-002
2.445399e+003;2.570736e-002
2.447327e+003;2.572666e-002
2.449256e+003;2.561477e-002
2.451185e+003;2.548626e-002
2.453113e+003;2.554420e-002
2.455042e+003;2.573822e-002
2.456970e+003;2.571671e-002
2.458899e+003;2.569073e-002
2.460827e+003;2.584452e-002
2.462756e+003;2.590240e-002
2.464684e+003;2.609201e-002
2.466613e+003;2.657313e-002
2.468542e+003;2.678777e-002
2.470470e+003;2.675538e-002
2.472398e+003;2.670436e-002
2.474327e+003;2.666454e-002
2.476256e+003;2.659860e-002
2.478184e+003;2.651349e-002
2.480113e+003;2.652233e-002
2.482041e+003;2.666215e-002
2.483970e+003;2.689552e-002
2.485898e+003;2.684539e-002
2.487827e+003;2.671010e-002
2.489755e+003;2.674907e-002
2.491684e+003;2.681963e-002
2.493613e+003;2.693359e-002
2.495541e+003;2.724962e-002
2.497470e+003;2.718982e-002
2.499398e+003;2.700435e-002
2.501327e+003;2.703073e-002
2.503255e+003;2.700241e-002
2.505184e+003;2.725452e-002
2.507112e+003;2.749908e-002
2.509041e+003;2.727230e-002
2.510969e+003;2.721275e-002
2.512898e+003;2.746318e-002
2.514827e+003;2.774028e-002
2.516755e+003;2.775667e-002
2.518684e+003;2.774748e-002
2.520612e+003;2.776903e-002
2.522541e+003;2.768419e-002
2.524469e+003;2.742453e-002
2.526398e+003;2.776469e-002
2.528326e+003;2.828189e-002
2.530255e+003;2.827425e-002
2.532184e+003;2.823641e-002
2.534112e+003;2.803915e-002
2.536041e+003;2.791031e-002
2.537969e+003;2.811617e-002
2.539898e+003;2.827301e-002
2.541826e+003;2.842828e-002
2.543755e+003;2.867152e-002
2.545683e+003;2.887442e-002
2.547612e+003;2.905417e-002
2.549541e+003;2.914565e-002
2.551469e+003;2.906409e-002
2.553397e+003;2.909761e-002
2.555326e+003;2.920012e-002
2.557255e+003;2.950957e-002
2.559183e+003;2.973802e-002
2.561112e+003;2.980182e-002
2.563040e+003;2.997841e-002
2.564969e+003;3.025338e-002
2.566897e+003;3.064895e-002
2.568826e+003;3.076513e-002
2.570754e+003;3.063206e-002
2.572683e+003;3.080091e-002
2.574612e+003;3.112418e-002
2.576540e+003;3.136897e-002
2.578469e+003;3.158240e-002
2.580397e+003;3.164890e-002
2.582326e+003;3.183661e-002
2.584254e+003;3.200340e-002
2.586183e+003;3.223698e-002
2.588111e+003;3.250007e-002
2.590040e+003;3.257560e-002
2.591969e+003;3.280849e-002
2.593897e+003;3.312192e-002
2.595826e+003;3.327689e-002
2.597754e+003;3.358297e-002
2.599683e+003;3.373807e-002
2.601611e+003;3.386987e-002
2.603540e+003;3.407984e-002
2.605468e+003;3.439089e-002
2.607397e+003;3.479613e-002
2.609325e+003;3.481085e-002
2.611254e+003;3.464732e-002
2.613183e+003;3.469757e-002
2.615111e+003;3.491824e-002
2.617040e+003;3.493192e-002
2.618968e+003;3.497300e-002
2.620897e+003;3.493436e-002
2.622825e+003;3.493677e-002
2.624754e+003;3.495824e-002
2.626682e+003;3.500141e-002
2.628611e+003;3.491831e-002
2.630540e+003;3.476067e-002
2.632468e+003;3.489030e-002
2.634396e+003;3.491845e-002
2.636325e+003;3.476397e-002
2.638254e+003;3.466817e-002
2.640182e+003;3.490757e-002
2.642111e+003;3.493766e-002
2.644039e+003;3.465568e-002
2.645968e+003;3.467492e-002
2.647896e+003;3.486104e-002
2.649825e+003;3.502878e-002
2.651753e+003;3.500884e-002
2.653682e+003;3.487041e-002
2.655611e+003;3.489221e-002
2.657539e+003;3.506509e-002
2.659468e+003;3.522008e-002
2.661396e+003;3.541891e-002
2.663325e+003;3.531851e-002
2.665253e+003;3.528519e-002
2.667182e+003;3.593815e-002
2.669110e+003;3.640392e-002
2.671039e+003;3.629671e-002
2.672968e+003;3.634534e-002
2.674896e+003;3.650702e-002
2.676825e+003;3.666660e-002
2.678753e+003;3.672674e-002
2.680682e+003;3.710410e-002
2.682610e+003;3.750806e-002
2.684539e+003;3.736182e-002
2.686467e+003;3.743225e-002
2.688396e+003;3.771943e-002
2.690324e+003;3.803530e-002
2.692253e+003;3.848752e-002
2.694182e+003;3.873729e-002
2.696110e+003;3.884308e-002
2.698039e+003;3.902534e-002
2.699967e+003;3.932740e-002
2.701896e+003;3.962314e-002
2.703824e+003;3.986427e-002
2.705753e+003;4.000365e-002
2.707681e+003;4.006854e-002
2.709610e+003;4.021420e-002
2.711539e+003;4.066611e-002
2.713467e+003;4.104557e-002
2.715396e+003;4.130855e-002
2.717324e+003;4.148740e-002
2.719253e+003;4.166082e-002
2.721181e+003;4.196380e-002
2.723110e+003;4.229253e-002
2.725038e+003;4.250943e-002
2.726967e+003;4.270789e-002
2.728896e+003;4.288995e-002
2.730824e+003;4.344347e-002
2.732752e+003;4.395693e-002
2.734681e+003;4.408010e-002
2.736610e+003;4.409096e-002
2.738538e+003;4.429972e-002
2.740467e+003;4.466706e-002
2.742395e+003;4.488297e-002
2.744324e+003;4.515785e-002
2.746252e+003;4.545207e-002
2.748181e+003;4.563620e-002
2.750109e+003;4.586957e-002
2.752038e+003;4.602718e-002
2.753967e+003;4.605536e-002
2.755895e+003;4.630967e-002
2.757824e+003;4.682000e-002
2.759752e+003;4.712853e-002
2.761681e+003;4.708425e-002
2.763609e+003;4.719619e-002
2.765538e+003;4.753597e-002
2.767466e+003;4.784057e-002
2.769395e+003;4.800481e-002
2.771323e+003;4.802768e-002
2.773252e+003;4.814875e-002
2.775181e+003;4.858910e-002
2.777109e+003;4.894855e-002
2.779038e+003;4.910738e-002
2.780966e+003;4.928561e-002
2.782895e+003;4.949095e-002
2.784823e+003;4.965867e-002
2.786752e+003;4.982301e-002
2.788680e+003;5.003462e-002
2.790609e+003;5.021789e-002
2.792538e+003;5.043036e-002
2.794466e+003;5.090350e-002
2.796395e+003;5.132915e-002
2.798323e+003;5.134011e-002
2.800252e+003;5.161120e-002
2.802180e+003;5.204203e-002
2.804109e+003;5.217226e-002
2.806037e+003;5.229367e-002
2.807966e+003;5.237482e-002
2.809895e+003;5.244712e-002
2.811823e+003;5.283578e-002
2.813751e+003;5.331720e-002
2.815680e+003;5.349154e-002
2.817609e+003;5.359327e-002
2.819537e+003;5.397170e-002
2.821466e+003;5.426674e-002
2.823394e+003;5.433357e-002
2.825323e+003;5.462337e-002
2.827251e+003;5.510775e-002
2.829180e+003;5.531089e-002
2.831108e+003;5.550664e-002
2.833037e+003;5.590185e-002
2.834966e+003;5.619017e-002
2.836894e+003;5.651615e-002
2.838823e+003;5.710981e-002
2.840751e+003;5.764060e-002
2.842680e+003;5.832997e-002
2.844608e+003;5.931892e-002
2.846537e+003;6.011814e-002
2.848465e+003;6.066874e-002
2.850394e+003;6.123102e-002
2.852323e+003;6.197045e-002
2.854251e+003;6.289764e-002
2.856180e+003;6.349139e-002
2.858108e+003;6.414183e-002
2.860037e+003;6.509392e-002
2.861965e+003;6.588526e-002
2.863894e+003;6.644613e-002
2.865822e+003;6.695185e-002
2.867751e+003;6.775747e-002
2.869679e+003;6.867471e-002
2.871608e+003;6.925536e-002
2.873536e+003;6.957687e-002
2.875465e+003;7.003829e-002
2.877394e+003;7.025193e-002
2.879322e+003;6.976099e-002
2.881251e+003;6.936131e-002
2.883179e+003;6.945166e-002
2.885108e+003;6.921098e-002
2.887036e+003;6.868360e-002
2.888965e+003;6.886069e-002
2.890893e+003;6.949113e-002
2.892822e+003;6.988110e-002
2.894750e+003;6.978413e-002
2.896679e+003;6.968757e-002
2.898608e+003;7.024655e-002
2.900536e+003;7.082723e-002
2.902465e+003;7.113500e-002
2.904393e+003;7.155357e-002
2.906322e+003;7.194819e-002
2.908250e+003;7.226125e-002
2.910179e+003;7.263262e-002
2.912107e+003;7.292745e-002
2.914036e+003;7.357177e-002
2.915965e+003;7.447823e-002
2.917893e+003;7.520469e-002
2.919822e+003;7.555661e-002
2.921750e+003;7.570261e-002
2.923679e+003;7.625154e-002
2.925607e+003;7.732674e-002
2.927536e+003;7.856736e-002
2.929464e+003;7.943796e-002
2.931393e+003;7.991003e-002
2.933322e+003;7.991062e-002
2.935250e+003;8.016045e-002
2.937178e+003;8.050877e-002
2.939107e+003;8.006646e-002
2.941036e+003;7.930841e-002
2.942964e+003;7.849459e-002
2.944893e+003;7.762611e-002
2.946821e+003;7.691839e-002
2.948750e+003;7.615136e-002
2.950678e+003;7.565796e-002
2.952607e+003;7.540511e-002
2.954535e+003;7.484772e-002
2.956464e+003;7.434637e-002
2.958393e+003;7.432486e-002
2.960321e+003;7.444090e-002
2.962250e+003;7.452460e-002
2.964178e+003;7.448134e-002
2.966107e+003;7.439725e-002
2.968035e+003;7.461989e-002
2.969964e+003;7.508299e-002
2.971892e+003;7.567575e-002
2.973821e+003;7.550173e-002
2.975750e+003;7.478478e-002
2.977678e+003;7.437311e-002
2.979607e+003;7.407345e-002
2.981535e+003;7.378786e-002
2.983464e+003;7.356993e-002
2.985392e+003;7.331849e-002
2.987321e+003;7.313745e-002
2.989249e+003;7.277474e-002
2.991178e+003;7.253170e-002
2.993106e+003;7.210190e-002
2.995035e+003;7.162438e-002
2.996964e+003;7.131845e-002
2.998892e+003;7.075469e-002
3.000821e+003;7.016893e-002
3.002749e+003;6.965186e-002
3.004678e+003;6.910763e-002
3.006606e+003;6.884878e-002
3.008535e+003;6.874862e-002
3.010463e+003;6.865112e-002
3.012392e+003;6.878876e-002
3.014321e+003;6.899914e-002
3.016249e+003;6.896989e-002
3.018177e+003;6.885530e-002
3.020106e+003;6.913549e-002
3.022035e+003;6.963447e-002
3.023963e+003;6.996872e-002
3.025892e+003;7.034706e-002
3.027820e+003;7.075945e-002
3.029749e+003;7.099307e-002
3.031677e+003;7.156201e-002
3.033606e+003;7.220311e-002
3.035534e+003;7.270418e-002
3.037463e+003;7.317070e-002
3.039392e+003;7.360160e-002
3.041320e+003;7.389999e-002
3.043249e+003;7.437759e-002
3.045177e+003;7.500210e-002
3.047106e+003;7.523100e-002
3.049034e+003;7.563012e-002
3.050963e+003;7.601413e-002
3.052891e+003;7.655345e-002
3.054820e+003;7.710896e-002
3.056749e+003;7.753821e-002
3.058677e+003;7.801966e-002
3.060606e+003;7.833805e-002
3.062534e+003;7.823604e-002
3.064463e+003;7.859249e-002
3.066391e+003;7.906932e-002
3.068320e+003;7.937153e-002
3.070248e+003;7.937782e-002
3.072177e+003;7.913766e-002
3.074105e+003;7.908829e-002
3.076034e+003;7.916469e-002
3.077963e+003;7.901005e-002
3.079891e+003;7.879143e-002
3.081820e+003;7.873066e-002
3.083748e+003;7.871759e-002
3.085677e+003;7.876136e-002
3.087605e+003;7.844203e-002
3.089534e+003;7.812151e-002
3.091462e+003;7.797997e-002
3.093391e+003;7.776583e-002
3.095320e+003;7.730041e-002
3.097248e+003;7.707620e-002
3.099177e+003;7.699081e-002
3.101105e+003;7.698622e-002
3.103034e+003;7.662788e-002
3.104962e+003;7.588255e-002
3.106891e+003;7.552408e-002
3.108819e+003;7.529539e-002
3.110748e+003;7.502533e-002
3.112677e+003;7.494260e-002
3.114605e+003;7.476671e-002
3.116533e+003;7.448220e-002
3.118462e+003;7.450274e-002
3.120391e+003;7.451438e-002
3.122319e+003;7.457288e-002
3.124248e+003;7.460789e-002
3.126176e+003;7.462544e-002
3.128105e+003;7.473212e-002
3.130033e+003;7.492618e-002
3.131962e+003;7.473456e-002
3.133890e+003;7.450034e-002
3.135819e+003;7.479159e-002
3.137748e+003;7.533815e-002
3.139676e+003;7.579357e-002
3.141605e+003;7.607646e-002
3.143533e+003;7.644080e-002
3.145462e+003;7.688322e-002
3.147390e+003;7.689224e-002
3.149319e+003;7.708379e-002
3.151247e+003;7.763491e-002
3.153176e+003;7.812432e-002
3.155104e+003;7.857347e-002
3.157033e+003;7.923909e-002
3.158962e+003;7.970615e-002
3.160890e+003;8.032483e-002
3.162819e+003;8.129353e-002
3.164747e+003;8.189974e-002
3.166676e+003;8.230957e-002
3.168604e+003;8.304945e-002
3.170533e+003;8.379879e-002
3.172461e+003;8.435193e-002
3.174390e+003;8.526019e-002
3.176319e+003;8.618639e-002
3.178247e+003;8.660205e-002
3.180176e+003;8.711311e-002
3.182104e+003;8.789466e-002
3.184033e+003;8.847990e-002
3.185961e+003;8.933012e-002
3.187890e+003;9.049773e-002
3.189818e+003;9.136456e-002
3.191747e+003;9.168383e-002
3.193676e+003;9.231814e-002
3.195604e+003;9.330274e-002
3.197532e+003;9.436430e-002
3.199461e+003;9.510989e-002
3.201390e+003;9.592461e-002
3.203318e+003;9.725603e-002
3.205247e+003;9.818780e-002
3.207175e+003;9.862464e-002
3.209104e+003;9.942628e-002
3.211032e+003;1.003471e-001
3.212961e+003;1.011868e-001
3.214889e+003;1.021896e-001
3.216818e+003;1.033600e-001
3.218747e+003;1.042170e-001
3.220675e+003;1.047152e-001
3.222604e+003;1.052909e-001
3.224532e+003;1.064414e-001
3.226461e+003;1.077588e-001
3.228389e+003;1.087871e-001
3.230318e+003;1.097136e-001
3.232246e+003;1.105274e-001
3.234175e+003;1.117652e-001
3.236104e+003;1.131079e-001
3.238032e+003;1.142447e-001
3.239961e+003;1.153552e-001
3.241889e+003;1.165578e-001
3.243818e+003;1.177023e-001
3.245746e+003;1.187201e-001
3.247675e+003;1.202784e-001
3.249603e+003;1.218884e-001
3.251532e+003;1.233387e-001
3.253460e+003;1.251448e-001
3.255389e+003;1.270629e-001
3.257318e+003;1.285511e-001
3.259246e+003;1.297841e-001
3.261175e+003;1.310619e-001
3.263103e+003;1.326924e-001
3.265032e+003;1.343566e-001
3.266960e+003;1.359080e-001
3.268889e+003;1.373390e-001
3.270817e+003;1.387785e-001
3.272746e+003;1.402101e-001
3.274675e+003;1.410717e-001
3.276603e+003;1.420691e-001
3.278531e+003;1.425988e-001
3.280460e+003;1.422916e-001
3.282389e+003;1.424230e-001
3.284317e+003;1.429111e-001
3.286246e+003;1.426216e-001
3.288174e+003;1.424105e-001
3.290103e+003;1.421813e-001
3.292031e+003;1.412393e-001
3.293960e+003;1.399095e-001
3.295888e+003;1.382174e-001
3.297817e+003;1.368050e-001
3.299746e+003;1.356332e-001
3.301674e+003;1.340204e-001
3.303603e+003;1.321024e-001
3.305531e+003;1.302828e-001
3.307460e+003;1.286864e-001
3.309388e+003;1.268993e-001
3.311317e+003;1.252218e-001
3.313245e+003;1.238329e-001
3.315174e+003;1.221853e-001
3.317103e+003;1.201849e-001
3.319031e+003;1.185550e-001
3.320960e+003;1.169741e-001
3.322888e+003;1.151051e-001
3.324817e+003;1.135653e-001
3.326745e+003;1.120809e-001
3.328674e+003;1.103167e-001
3.330602e+003;1.085029e-001
3.332531e+003;1.066106e-001
3.334459e+003;1.047754e-001
3.336388e+003;1.035415e-001
3.338317e+003;1.024060e-001
3.340245e+003;1.010221e-001
3.342174e+003;9.969752e-002
3.344102e+003;9.845224e-002
3.346031e+003;9.719829e-002
3.347959e+003;9.599896e-002
3.349888e+003;9.492568e-002
3.351816e+003;9.413856e-002
3.353745e+003;9.323747e-002
3.355674e+003;9.180989e-002
3.357602e+003;9.087670e-002
3.359531e+003;9.021558e-002
3.361459e+003;8.897645e-002
3.363388e+003;8.807448e-002
3.365316e+003;8.756996e-002
3.367245e+003;8.706307e-002
3.369173e+003;8.652469e-002
3.371102e+003;8.596420e-002
3.373031e+003;8.550554e-002
3.374959e+003;8.491010e-002
3.376887e+003;8.403687e-002
3.378816e+003;8.330598e-002
3.380745e+003;8.255348e-002
3.382673e+003;8.197121e-002
3.384602e+003;8.145706e-002
3.386530e+003;8.073628e-002
3.388459e+003;7.974807e-002
3.390387e+003;7.881264e-002
3.392316e+003;7.840790e-002
3.394244e+003;7.819537e-002
3.396173e+003;7.769264e-002
3.398102e+003;7.719816e-002
3.400030e+003;7.668765e-002
3.401959e+003;7.594758e-002
3.403887e+003;7.528219e-002
3.405816e+003;7.464421e-002
3.407744e+003;7.390781e-002
3.409673e+003;7.319443e-002
3.411601e+003;7.297291e-002
3.413530e+003;7.254901e-002
3.415458e+003;7.146326e-002
3.417387e+003;7.068263e-002
3.419316e+003;7.041762e-002
3.421244e+003;6.982569e-002
3.423173e+003;6.892729e-002
3.425101e+003;6.862143e-002
3.427030e+003;6.840495e-002
3.428958e+003;6.767537e-002
3.430887e+003;6.708430e-002
3.432815e+003;6.681395e-002
3.434744e+003;6.599614e-002
3.436673e+003;6.540567e-002
3.438601e+003;6.514809e-002
3.440530e+003;6.429299e-002
3.442458e+003;6.390557e-002
3.444387e+003;6.392189e-002
3.446315e+003;6.364090e-002
3.448244e+003;6.331590e-002
3.450172e+003;6.325449e-002
3.452101e+003;6.271733e-002
3.454030e+003;6.189127e-002
3.455958e+003;6.175553e-002
3.457886e+003;6.170668e-002
3.459815e+003;6.157757e-002
3.461744e+003;6.126074e-002
3.463672e+003;6.124571e-002
3.465601e+003;6.134190e-002
3.467529e+003;6.074735e-002
3.469458e+003;6.007152e-002
3.471386e+003;5.973207e-002
3.473315e+003;5.956044e-002
3.475243e+003;5.920802e-002
3.477172e+003;5.856901e-002
3.479101e+003;5.850130e-002
3.481029e+003;5.873456e-002
3.482958e+003;5.879305e-002
3.484886e+003;5.860185e-002
3.486815e+003;5.851233e-002
3.488743e+003;5.813606e-002
3.490672e+003;5.753618e-002
3.492600e+003;5.746258e-002
3.494529e+003;5.746254e-002
3.496458e+003;5.699271e-002
3.498386e+003;5.659465e-002
3.500315e+003;5.621185e-002
3.502243e+003;5.577965e-002
3.504172e+003;5.576831e-002
3.506100e+003;5.552166e-002
3.508029e+003;5.522776e-002
3.509957e+003;5.503606e-002
3.511886e+003;5.484809e-002
3.513814e+003;5.447283e-002
3.515743e+003;5.394214e-002
3.517672e+003;5.354597e-002
3.519600e+003;5.310316e-002
3.521529e+003;5.265968e-002
3.523457e+003;5.241134e-002
3.525386e+003;5.253274e-002
3.527314e+003;5.221120e-002
3.529243e+003;5.207557e-002
3.531171e+003;5.220290e-002
3.533100e+003;5.176900e-002
3.535029e+003;5.108903e-002
3.536957e+003;5.039438e-002
3.538885e+003;4.980164e-002
3.540814e+003;4.943900e-002
3.542743e+003;4.935395e-002
3.544671e+003;4.933531e-002
3.546600e+003;4.921465e-002
3.548528e+003;4.839092e-002
3.550457e+003;4.804723e-002
3.552385e+003;4.794653e-002
3.554314e+003;4.746079e-002
3.556242e+003;4.697569e-002
3.558171e+003;4.644033e-002
3.560100e+003;4.604173e-002
3.562028e+003;4.571828e-002
3.563957e+003;4.527900e-002
3.565885e+003;4.480689e-002
3.567814e+003;4.426663e-002
3.569742e+003;4.409998e-002
3.571671e+003;4.371220e-002
3.573599e+003;4.332989e-002
3.575528e+003;4.287258e-002
3.577457e+003;4.226094e-002
3.579385e+003;4.129405e-002
3.581314e+003;4.047697e-002
3.583242e+003;4.047908e-002
3.585171e+003;4.052997e-002
3.587099e+003;4.017041e-002
3.589028e+003;3.974523e-002
3.590956e+003;3.942068e-002
3.592885e+003;3.898725e-002
3.594813e+003;3.848556e-002
3.596742e+003;3.820326e-002
3.598671e+003;3.814773e-002
3.600599e+003;3.792082e-002
3.602528e+003;3.719484e-002
3.604456e+003;3.614656e-002
3.606385e+003;3.565678e-002
3.608313e+003;3.545493e-002
3.610242e+003;3.496266e-002
3.612170e+003;3.428700e-002
3.614099e+003;3.334018e-002
3.616028e+003;3.247932e-002
3.617956e+003;3.147373e-002
3.619885e+003;3.090529e-002
3.621813e+003;3.066396e-002
3.623742e+003;3.006660e-002
3.625670e+003;2.945854e-002
3.627599e+003;2.892871e-002
3.629527e+003;2.801667e-002
3.631456e+003;2.725074e-002
3.633385e+003;2.692936e-002
3.635313e+003;2.614163e-002
3.637241e+003;2.513429e-002
3.639170e+003;2.432436e-002
3.641099e+003;2.374395e-002
3.643027e+003;2.313171e-002
3.644956e+003;2.241551e-002
3.646884e+003;2.198261e-002
3.648813e+003;2.180266e-002
3.650741e+003;2.092798e-002
3.652670e+003;1.978587e-002
3.654598e+003;1.902389e-002
3.656527e+003;1.843492e-002
3.658456e+003;1.789419e-002
3.660384e+003;1.714869e-002
3.662313e+003;1.633427e-002
3.664241e+003;1.557825e-002
3.666170e+003;1.486863e-002
3.668098e+003;1.408482e-002
3.670027e+003;1.355095e-002
3.671955e+003;1.279507e-002
3.673884e+003;1.256039e-002
3.675813e+003;1.275754e-002
3.677741e+003;1.220263e-002
3.679669e+003;1.098886e-002
3.681598e+003;1.017949e-002
3.683527e+003;9.806668e-003
3.685455e+003;9.510665e-003
3.687384e+003;9.243431e-003
3.689312e+003;8.839454e-003
3.691241e+003;8.492444e-003
3.693169e+003;8.089941e-003
3.695098e+003;7.638608e-003
3.697026e+003;7.629402e-003
3.698955e+003;7.934147e-003
3.700884e+003;7.634224e-003
3.702812e+003;7.226283e-003
3.704741e+003;6.888840e-003
3.706669e+003;6.547321e-003
3.708598e+003;6.472955e-003
3.710526e+003;6.456778e-003
3.712455e+003;5.975056e-003
3.714383e+003;5.848865e-003
3.716312e+003;5.990811e-003
3.718240e+003;5.569374e-003
3.720169e+003;5.479337e-003
3.722098e+003;5.563501e-003
3.724026e+003;5.190695e-003
3.725955e+003;5.060474e-003
3.727883e+003;5.057122e-003
3.729812e+003;4.828628e-003
3.731740e+003;5.013613e-003
3.733669e+003;5.129335e-003
3.735597e+003;5.175069e-003
3.737526e+003;5.139695e-003
3.739455e+003;4.920340e-003
3.741383e+003;4.586860e-003
3.743312e+003;4.333647e-003
3.745240e+003;4.317282e-003
3.747169e+003;4.680229e-003
3.749097e+003;4.765343e-003
3.751026e+003;4.578924e-003
3.752954e+003;4.509515e-003
3.754883e+003;4.620515e-003
3.756812e+003;4.624165e-003
3.758740e+003;4.470546e-003
3.760668e+003;4.205122e-003
3.762597e+003;3.801223e-003
3.764526e+003;3.613313e-003
3.766454e+003;3.778795e-003
3.768383e+003;3.868380e-003
3.770311e+003;3.945778e-003
3.772240e+003;4.219509e-003
3.774168e+003;4.127410e-003
3.776097e+003;3.952365e-003
3.778025e+003;3.933440e-003
3.779954e+003;3.685821e-003
3.781883e+003;3.746342e-003
3.783811e+003;3.992425e-003
3.785740e+003;4.053959e-003
3.787668e+003;4.123831e-003
3.789597e+003;3.878142e-003
3.791525e+003;3.919164e-003
3.793454e+003;3.999815e-003
3.795382e+003;3.597209e-003
3.797311e+003;3.356460e-003
3.799240e+003;3.777191e-003
3.801168e+003;4.080448e-003
3.803097e+003;4.039243e-003
3.805025e+003;4.025264e-003
3.806954e+003;3.799218e-003
3.808882e+003;3.573957e-003
3.810811e+003;3.262841e-003
3.812739e+003;3.396230e-003
3.814668e+003;3.576463e-003
3.816596e+003;3.404646e-003
3.818525e+003;3.817736e-003
3.820454e+003;3.986807e-003
3.822382e+003;3.937386e-003
3.824311e+003;3.987041e-003
3.826239e+003;4.089980e-003
3.828168e+003;4.369022e-003
3.830096e+003;4.321800e-003
3.832025e+003;3.861560e-003
3.833953e+003;3.949189e-003
3.835882e+003;4.040013e-003
3.837811e+003;3.574091e-003
3.839739e+003;3.468435e-003
3.841667e+003;3.765560e-003
3.843596e+003;3.996805e-003
3.845525e+003;4.100416e-003
3.847453e+003;4.175514e-003
3.849382e+003;4.244134e-003
3.851310e+003;4.703273e-003
3.853239e+003;4.743468e-003
3.855167e+003;4.538007e-003
3.857096e+003;4.438543e-003
3.859024e+003;4.714828e-003
3.860953e+003;4.728931e-003
3.862882e+003;4.540016e-003
3.864810e+003;4.541891e-003
3.866739e+003;4.667937e-003
3.868667e+003;4.632638e-003
3.870596e+003;4.325984e-003
3.872524e+003;4.496157e-003
3.874453e+003;4.596906e-003
3.876381e+003;4.405438e-003
3.878310e+003;4.709938e-003
3.880239e+003;5.042037e-003
3.882167e+003;5.214302e-003
3.884096e+003;5.450280e-003
3.886024e+003;5.554338e-003
3.887953e+003;5.631702e-003
3.889881e+003;5.621733e-003
3.891810e+003;5.793792e-003
3.893738e+003;6.112473e-003
3.895667e+003;6.628327e-003
3.897595e+003;6.837506e-003
3.899524e+003;6.616114e-003
3.901453e+003;6.271111e-003
3.903381e+003;6.227547e-003
3.905310e+003;6.238572e-003
3.907238e+003;6.231816e-003
3.909167e+003;6.366356e-003
3.911095e+003;6.581296e-003
3.913024e+003;6.909443e-003
3.914952e+003;7.351830e-003
3.916881e+003;7.695264e-003
3.918810e+003;7.772572e-003
3.920738e+003;7.731049e-003
3.922667e+003;7.339664e-003
3.924595e+003;7.233290e-003
3.926524e+003;7.405247e-003
3.928452e+003;7.330229e-003
3.930381e+003;7.802865e-003
3.932309e+003;7.974035e-003
3.934238e+003;7.406359e-003
3.936167e+003;7.659549e-003
3.938095e+003;7.957127e-003
3.940023e+003;7.818922e-003
3.941952e+003;8.375180e-003
3.943881e+003;8.776696e-003
3.945809e+003;8.609469e-003
3.947738e+003;8.797829e-003
3.949666e+003;8.843951e-003
3.951595e+003;8.426021e-003
3.953523e+003;8.299623e-003
3.955452e+003;8.501499e-003
3.957380e+003;8.857409e-003
3.959309e+003;8.704653e-003
3.961238e+003;8.267573e-003
3.963166e+003;8.679841e-003
3.965095e+003;8.965434e-003
3.967023e+003;8.750156e-003
3.968952e+003;8.696539e-003
3.970880e+003;8.715504e-003
3.972809e+003;8.731055e-003
3.974737e+003;8.603013e-003
3.976666e+003;8.474165e-003
3.978594e+003;8.624036e-003
3.980523e+003;8.841550e-003
3.982452e+003;8.923594e-003
3.984380e+003;8.809325e-003
3.986309e+003;8.808378e-003
3.988237e+003;9.054809e-003
3.990166e+003;9.001899e-003
3.992094e+003;8.732171e-003
3.994023e+003;8.744375e-003
3.995951e+003;8.512718e-003
3.997880e+003;8.412710e-003
3.999809e+003;8.831507e-003
4.001737e+003;0.000000e+000
