3.992094e+002;0.000000e+000
4.011380e+002;0.000000e+000
4.030665e+002;0.000000e+000
4.049951e+002;0.000000e+000
4.069236e+002;0.000000e+000
4.088522e+002;0.000000e+000
4.107807e+002;0.000000e+000
4.127093e+002;0.000000e+000
4.146378e+002;0.000000e+000
4.165664e+002;0.000000e+000
4.184949e+002;0.000000e+000
4.204235e+002;0.000000e+000
4.223520e+002;0.000000e+000
4.242806e+002;0.000000e+000
4.262091e+002;0.000000e+000
4.281377e+002;0.000000e+000
4.300662e+002;0.000000e+000
4.319948e+002;0.000000e+000
4.339233e+002;0.000000e+000
4.358519e+002;0.000000e+000
4.377804e+002;0.000000e+000
4.397090e+002;0.000000e+000
4.416375e+002;0.000000e+000
4.435660e+002;0.000000e+000
4.454946e+002;0.000000e+000
4.474232e+002;0.000000e+000
4.493517e+002;0.000000e+000
4.512802e+002;0.000000e+000
4.532088e+002;0.000000e+000
4.551373e+002;0.000000e+000
4.570659e+002;0.000000e+000
4.589944e+002;0.000000e+000
4.609230e+002;0.000000e+000
4.628515e+002;0.000000e+000
4.647801e+002;0.000000e+000
4.667086e+002;0.000000e+000
4.686372e+002;0.000000e+000
4.705657e+002;0.000000e+000
4.724943e+002;0.000000e+000
4.744228e+002;0.000000e+000
4.763513e+002;0.000000e+000
4.782799e+002;0.000000e+000
4.802085e+002;0.000000e+000
4.821370e+002;0.000000e+000
4.840656e+002;0.000000e+000
4.859941e+002;0.000000e+000
4.879226e+002;0.000000e+000
4.898512e+002;0.000000e+000
4.917798e+002;0.000000e+000
4.937083e+002;0.000000e+000
4.956368e+002;0.000000e+000
4.975654e+002;0.000000e+000
4.994939e+002;0.000000e+000
5.014225e+002;0.000000e+000
5.033510e+002;0.000000e+000
5.052796e+002;0.000000e+000
5.072081e+002;0.000000e+000
5.091367e+002;0.000000e+000
5.110652e+002;0.000000e+000
5.129938e+002;0.000000e+000
5.149223e+002;0.000000e+000
5.168509e+002;0.000000e+000
5.187794e+002;0.000000e+000
5.207079e+002;0.000000e+000
5.226365e+002;0.000000e+000
5.245651e+002;0.000000e+000
5.264936e+002;0.000000e+000
5.284222e+002;0.000000e+000
5.303507e+002;0.000000e+000
5.322792e+002;0.000000e+000
5.342078e+002;0.000000e+000
5.361364e+002;0.000000e+000
5.380649e+002;0.000000e+000
5.399935e+002;0.000000e+000
5.419220e+002;0.000000e+000
5.438505e+002;0.000000e+000
5.457791e+002;0.000000e+000
5.477076e+002;0.000000e+000
5.496362e+002;0.000000e+000
5.515648e+002;0.000000e+000
5.534933e+002;0.000000e+000
5.554218e+002;0.000000e+000
5.573504e+002;0.000000e+000
5.592789e+002;0.000000e+000
5.612075e+002;0.000000e+000
5.631360e+002;0.000000e+000
5.650646e+002;0.000000e+000
5.669931e+002;0.000000e+000
5.689217e+002;0.000000e+000
5.708502e+002;0.000000e+000
5.727787e+002;0.000000e+000
5.747073e+002;0.000000e+000
5.766359e+002;0.000000e+000
5.785644e+002;0.000000e+000
5.804930e+002;0.000000e+000
5.824215e+002;0.000000e+000
5.843500e+002;0.000000e+000
5.862786e+002;0.000000e+000
5.882072e+002;0.000000e+000
5.901357e+002;0.000000e+000
5.920643e+002;0.000000e+000
5.939928e+002;0.000000e+000
5.959213e+002;0.000000e+000
5.978499e+002;0.000000e+000
5.997784e+002;2.699098e-001
6.017070e+002;2.746455e-001
6.036355e+002;2.814180e-001
6.055641e+002;2.869875e-001
6.074926e+002;2.931174e-001
6.094211e+002;2.940015e-001
6.113497e+002;2.964025e-001
6.132783e+002;2.975950e-001
6.152068e+002;2.933724e-001
6.171354e+002;2.902197e-001
6.190639e+002;2.873705e-001
6.209924e+002;2.851413e-001
6.229210e+002;2.882146e-001
6.248495e+002;2.910194e-001
6.267781e+002;2.919204e-001
6.287067e+002;2.918159e-001
6.306352e+002;2.875388e-001
6.325637e+002;2.838968e-001
6.344923e+002;2.791152e-001
6.364208e+002;2.754457e-001
6.383494e+002;2.790541e-001
6.402780e+002;2.785251e-001
6.422065e+002;2.780640e-001
6.441350e+002;2.764484e-001
6.460636e+002;2.708088e-001
6.479921e+002;2.672780e-001
6.499207e+002;2.680083e-001
6.518492e+002;2.695813e-001
6.537778e+002;2.697669e-001
6.557063e+002;2.676893e-001
6.576349e+002;2.660213e-001
6.595634e+002;2.688732e-001
6.614919e+002;2.710330e-001
6.634205e+002;2.704085e-001
6.653491e+002;2.676255e-001
6.672776e+002;2.646904e-001
6.692062e+002;2.664410e-001
6.711347e+002;2.685970e-001
6.730632e+002;2.682238e-001
6.749918e+002;2.672493e-001
6.769203e+002;2.660692e-001
6.788489e+002;2.662448e-001
6.807775e+002;2.664314e-001
6.827060e+002;2.669733e-001
6.846345e+002;2.679130e-001
6.865631e+002;2.669712e-001
6.884916e+002;2.650921e-001
6.904202e+002;2.645875e-001
6.923488e+002;2.627092e-001
6.942773e+002;2.616155e-001
6.962058e+002;2.609862e-001
6.981344e+002;2.589058e-001
7.000629e+002;2.569346e-001
7.019915e+002;2.536695e-001
7.039200e+002;2.502762e-001
7.058486e+002;2.484487e-001
7.077771e+002;2.457719e-001
7.097057e+002;2.425717e-001
7.116342e+002;2.402405e-001
7.135627e+002;2.378149e-001
7.154913e+002;2.354894e-001
7.174199e+002;2.329267e-001
7.193484e+002;2.304279e-001
7.212770e+002;2.277317e-001
7.232055e+002;2.237545e-001
7.251340e+002;2.195659e-001
7.270626e+002;2.160879e-001
7.289911e+002;2.132101e-001
7.309197e+002;2.105087e-001
7.328483e+002;2.075467e-001
7.347768e+002;2.046894e-001
7.367053e+002;2.014340e-001
7.386339e+002;1.980923e-001
7.405624e+002;1.947626e-001
7.424910e+002;1.911731e-001
7.444196e+002;1.874292e-001
7.463481e+002;1.840684e-001
7.482766e+002;1.819286e-001
7.502052e+002;1.800690e-001
7.521337e+002;1.773359e-001
7.540623e+002;1.747680e-001
7.559908e+002;1.730768e-001
7.579194e+002;1.719018e-001
7.598479e+002;1.702388e-001
7.617765e+002;1.690354e-001
7.637050e+002;1.680406e-001
7.656335e+002;1.659872e-001
7.675621e+002;1.640895e-001
7.694907e+002;1.628898e-001
7.714192e+002;1.610096e-001
7.733478e+002;1.593196e-001
7.752763e+002;1.579075e-001
7.772048e+002;1.560958e-001
7.791334e+002;1.540542e-001
7.810620e+002;1.519400e-001
7.829905e+002;1.499460e-001
7.849191e+002;1.493117e-001
7.868476e+002;1.478699e-001
7.887761e+002;1.458310e-001
7.907047e+002;1.444210e-001
7.926332e+002;1.430833e-001
7.945618e+002;1.420707e-001
7.964903e+002;1.414899e-001
7.984189e+002;1.409257e-001
8.003474e+002;1.409505e-001
8.022759e+002;1.412159e-001
8.042045e+002;1.406505e-001
8.061331e+002;1.403902e-001
8.080616e+002;1.414171e-001
8.099902e+002;1.421124e-001
8.119187e+002;1.424580e-001
8.138472e+002;1.420835e-001
8.157758e+002;1.415633e-001
8.177043e+002;1.420741e-001
8.196329e+002;1.427197e-001
8.215615e+002;1.430541e-001
8.234900e+002;1.434657e-001
8.254185e+002;1.442360e-001
8.273471e+002;1.446691e-001
8.292756e+002;1.443581e-001
8.312042e+002;1.430051e-001
8.331328e+002;1.412017e-001
8.350613e+002;1.393344e-001
8.369898e+002;1.376075e-001
8.389184e+002;1.362293e-001
8.408469e+002;1.348252e-001
8.427755e+002;1.337896e-001
8.447040e+002;1.342987e-001
8.466326e+002;1.351364e-001
8.485611e+002;1.351834e-001
8.504897e+002;1.350981e-001
8.524182e+002;1.354505e-001
8.543467e+002;1.350008e-001
8.562753e+002;1.332169e-001
8.582039e+002;1.310345e-001
8.601324e+002;1.288535e-001
8.620610e+002;1.272190e-001
8.639895e+002;1.260410e-001
8.659180e+002;1.247807e-001
8.678466e+002;1.238992e-001
8.697751e+002;1.240275e-001
8.717037e+002;1.246655e-001
8.736323e+002;1.251643e-001
8.755608e+002;1.249322e-001
8.774893e+002;1.246163e-001
8.794179e+002;1.249461e-001
8.813464e+002;1.250097e-001
8.832750e+002;1.249099e-001
8.852036e+002;1.251428e-001
8.871321e+002;1.252612e-001
8.890606e+002;1.247588e-001
8.909892e+002;1.242918e-001
8.929177e+002;1.242628e-001
8.948463e+002;1.244029e-001
8.967748e+002;1.248225e-001
8.987034e+002;1.249105e-001
9.006319e+002;1.243392e-001
9.025605e+002;1.237457e-001
9.044890e+002;1.231277e-001
9.064175e+002;1.232200e-001
9.083461e+002;1.236483e-001
9.102747e+002;1.241982e-001
9.122032e+002;1.251373e-001
9.141318e+002;1.261202e-001
9.160603e+002;1.275800e-001
9.179888e+002;1.290503e-001
9.199174e+002;1.302701e-001
9.218459e+002;1.320258e-001
9.237745e+002;1.337505e-001
9.257031e+002;1.348441e-001
9.276316e+002;1.358524e-001
9.295601e+002;1.366173e-001
9.314887e+002;1.367939e-001
9.334172e+002;1.370466e-001
9.353458e+002;1.373848e-001
9.372744e+002;1.373767e-001
9.392029e+002;1.374983e-001
9.411314e+002;1.379602e-001
9.430600e+002;1.385056e-001
9.449885e+002;1.389250e-001
9.469171e+002;1.391979e-001
9.488456e+002;1.397754e-001
9.507742e+002;1.406835e-001
9.527027e+002;1.417485e-001
9.546313e+002;1.425781e-001
9.565598e+002;1.435393e-001
9.584883e+002;1.445995e-001
9.604169e+002;1.460434e-001
9.623455e+002;1.478810e-001
9.642740e+002;1.495287e-001
9.662026e+002;1.512990e-001
9.681311e+002;1.534416e-001
9.700596e+002;1.554195e-001
9.719882e+002;1.573537e-001
9.739167e+002;1.589656e-001
9.758453e+002;1.597610e-001
9.777739e+002;1.596278e-001
9.797024e+002;1.591094e-001
9.816309e+002;1.587625e-001
9.835595e+002;1.584534e-001
9.854880e+002;1.587722e-001
9.874166e+002;1.602818e-001
9.893452e+002;1.625074e-001
9.912737e+002;1.652411e-001
9.932022e+002;1.674700e-001
9.951307e+002;1.683008e-001
9.970593e+002;1.686447e-001
9.989879e+002;1.686560e-001
1.000916e+003;1.678636e-001
1.002845e+003;1.667946e-001
1.004773e+003;1.655416e-001
1.006702e+003;1.646931e-001
1.008631e+003;1.643500e-001
1.010559e+003;1.636106e-001
1.012488e+003;1.625852e-001
1.014416e+003;1.616717e-001
1.016345e+003;1.612124e-001
1.018273e+003;1.616867e-001
1.020202e+003;1.625374e-001
1.022130e+003;1.636760e-001
1.024059e+003;1.659580e-001
1.025988e+003;1.692533e-001
1.027916e+003;1.727274e-001
1.029845e+003;1.756622e-001
1.031773e+003;1.781081e-001
1.033702e+003;1.803806e-001
1.035630e+003;1.821149e-001
1.037559e+003;1.835823e-001
1.039487e+003;1.852715e-001
1.041416e+003;1.867917e-001
1.043344e+003;1.874252e-001
1.045273e+003;1.874844e-001
1.047202e+003;1.882181e-001
1.049130e+003;1.893522e-001
1.051059e+003;1.900341e-001
1.052987e+003;1.911872e-001
1.054916e+003;1.931783e-001
1.056844e+003;1.957575e-001
1.058773e+003;1.979454e-001
1.060701e+003;1.995396e-001
1.062630e+003;2.008349e-001
1.064558e+003;2.018531e-001
1.066487e+003;2.026060e-001
1.068416e+003;2.031517e-001
1.070344e+003;2.027147e-001
1.072273e+003;2.010337e-001
1.074201e+003;1.991147e-001
1.076130e+003;1.964668e-001
1.078058e+003;1.931089e-001
1.079987e+003;1.897934e-001
1.081915e+003;1.865883e-001
1.083844e+003;1.835855e-001
1.085773e+003;1.805789e-001
1.087701e+003;1.774293e-001
1.089630e+003;1.745383e-001
1.091558e+003;1.724875e-001
1.093487e+003;1.714562e-001
1.095415e+003;1.704946e-001
1.097344e+003;1.701644e-001
1.099272e+003;1.704631e-001
1.101201e+003;1.704992e-001
1.103129e+003;1.704478e-001
1.105058e+003;1.700613e-001
1.106987e+003;1.692801e-001
1.108915e+003;1.683162e-001
1.110844e+003;1.668040e-001
1.112772e+003;1.656886e-001
1.114701e+003;1.655137e-001
1.116629e+003;1.655272e-001
1.118558e+003;1.654352e-001
1.120486e+003;1.655786e-001
1.122415e+003;1.653813e-001
1.124344e+003;1.650615e-001
1.126272e+003;1.653331e-001
1.128201e+003;1.655370e-001
1.130129e+003;1.660356e-001
1.132058e+003;1.670429e-001
1.133986e+003;1.681155e-001
1.135915e+003;1.692999e-001
1.137843e+003;1.707233e-001
1.139772e+003;1.723558e-001
1.141700e+003;1.741277e-001
1.143629e+003;1.758064e-001
1.145557e+003;1.777973e-001
1.147486e+003;1.796047e-001
1.149415e+003;1.815384e-001
1.151343e+003;1.833702e-001
1.153272e+003;1.848816e-001
1.155200e+003;1.866609e-001
1.157129e+003;1.881773e-001
1.159057e+003;1.890956e-001
1.160986e+003;1.900356e-001
1.162914e+003;1.907609e-001
1.164843e+003;1.914402e-001
1.166771e+003;1.922834e-001
1.168700e+003;1.933883e-001
1.170629e+003;1.941649e-001
1.172557e+003;1.936584e-001
1.174486e+003;1.923020e-001
1.176414e+003;1.904988e-001
1.178343e+003;1.886579e-001
1.180271e+003;1.872120e-001
1.182200e+003;1.862645e-001
1.184128e+003;1.861752e-001
1.186057e+003;1.869170e-001
1.187986e+003;1.876242e-001
1.189914e+003;1.887919e-001
1.191843e+003;1.905519e-001
1.193771e+003;1.927707e-001
1.195700e+003;1.954935e-001
1.197628e+003;1.985542e-001
1.199557e+003;2.020750e-001
1.201485e+003;2.064363e-001
1.203414e+003;2.115644e-001
1.205343e+003;2.167217e-001
1.207271e+003;2.219720e-001
1.209200e+003;2.274080e-001
1.211128e+003;2.328454e-001
1.213057e+003;2.377933e-001
1.214985e+003;2.420330e-001
1.216914e+003;2.463192e-001
1.218842e+003;2.504857e-001
1.220771e+003;2.538451e-001
1.222699e+003;2.565073e-001
1.224628e+003;2.588437e-001
1.226557e+003;2.605581e-001
1.228485e+003;2.615040e-001
1.230414e+003;2.617904e-001
1.232342e+003;2.608889e-001
1.234271e+003;2.589817e-001
1.236199e+003;2.568519e-001
1.238128e+003;2.543385e-001
1.240056e+003;2.517312e-001
1.241985e+003;2.492401e-001
1.243913e+003;2.469798e-001
1.245842e+003;2.452623e-001
1.247771e+003;2.437570e-001
1.249699e+003;2.424732e-001
1.251628e+003;2.414894e-001
1.253556e+003;2.407054e-001
1.255485e+003;2.400056e-001
1.257413e+003;2.391691e-001
1.259342e+003;2.375043e-001
1.261270e+003;2.352534e-001
1.263199e+003;2.325163e-001
1.265127e+003;2.293752e-001
1.267056e+003;2.260579e-001
1.268985e+003;2.222358e-001
1.270913e+003;2.177753e-001
1.272842e+003;2.134768e-001
1.274770e+003;2.096720e-001
1.276699e+003;2.065940e-001
1.278627e+003;2.041122e-001
1.280556e+003;2.017819e-001
1.282484e+003;1.995783e-001
1.284413e+003;1.981414e-001
1.286342e+003;1.972879e-001
1.288270e+003;1.962999e-001
1.290199e+003;1.953901e-001
1.292127e+003;1.947872e-001
1.294056e+003;1.947108e-001
1.295984e+003;1.948122e-001
1.297913e+003;1.948709e-001
1.299841e+003;1.948970e-001
1.301770e+003;1.949614e-001
1.303698e+003;1.948381e-001
1.305627e+003;1.943094e-001
1.307556e+003;1.939355e-001
1.309484e+003;1.937925e-001
1.311413e+003;1.934346e-001
1.313341e+003;1.931712e-001
1.315270e+003;1.929000e-001
1.317198e+003;1.925005e-001
1.319127e+003;1.923984e-001
1.321055e+003;1.930328e-001
1.322984e+003;1.939356e-001
1.324912e+003;1.948493e-001
1.326841e+003;1.960211e-001
1.328770e+003;1.971087e-001
1.330698e+003;1.976607e-001
1.332627e+003;1.980283e-001
1.334555e+003;1.981542e-001
1.336484e+003;1.977508e-001
1.338412e+003;1.974231e-001
1.340341e+003;1.973631e-001
1.342269e+003;1.972467e-001
1.344198e+003;1.971517e-001
1.346126e+003;1.970945e-001
1.348055e+003;1.972377e-001
1.349984e+003;1.975316e-001
1.351912e+003;1.976628e-001
1.353841e+003;1.980906e-001
1.355769e+003;1.992195e-001
1.357698e+003;2.009404e-001
1.359626e+003;2.034627e-001
1.361555e+003;2.066737e-001
1.363483e+003;2.099474e-001
1.365412e+003;2.132204e-001
1.367341e+003;2.154127e-001
1.369269e+003;2.159453e-001
1.371198e+003;2.156159e-001
1.373126e+003;2.149395e-001
1.375055e+003;2.141600e-001
1.376983e+003;2.139822e-001
1.378912e+003;2.141430e-001
1.380840e+003;2.142766e-001
1.382769e+003;2.144568e-001
1.384698e+003;2.148419e-001
1.386626e+003;2.154144e-001
1.388555e+003;2.160145e-001
1.390483e+003;2.166899e-001
1.392412e+003;2.169793e-001
1.394340e+003;2.173222e-001
1.396269e+003;2.180480e-001
1.398197e+003;2.186601e-001
1.400126e+003;2.196833e-001
1.402054e+003;2.209486e-001
1.403983e+003;2.222486e-001
1.405911e+003;2.236176e-001
1.407840e+003;2.244172e-001
1.409769e+003;2.248658e-001
1.411697e+003;2.251137e-001
1.413626e+003;2.252214e-001
1.415554e+003;2.256721e-001
1.417483e+003;2.260519e-001
1.419411e+003;2.266166e-001
1.421340e+003;2.283007e-001
1.423268e+003;2.307340e-001
1.425197e+003;2.343008e-001
1.427125e+003;2.392530e-001
1.429054e+003;2.451027e-001
1.430983e+003;2.518378e-001
1.432911e+003;2.592459e-001
1.434840e+003;2.660244e-001
1.436768e+003;2.710614e-001
1.438697e+003;2.749691e-001
1.440625e+003;2.775752e-001
1.442554e+003;2.786269e-001
1.444482e+003;2.783483e-001
1.446411e+003;2.770278e-001
1.448340e+003;2.745358e-001
1.450268e+003;2.704971e-001
1.452197e+003;2.648885e-001
1.454125e+003;2.584374e-001
1.456054e+003;2.516382e-001
1.457982e+003;2.464235e-001
1.459911e+003;2.434452e-001
1.461839e+003;2.413615e-001
1.463768e+003;2.397496e-001
1.465697e+003;2.391825e-001
1.467625e+003;2.398755e-001
1.469554e+003;2.409718e-001
1.471482e+003;2.423180e-001
1.473411e+003;2.446614e-001
1.475339e+003;2.479947e-001
1.477268e+003;2.514853e-001
1.479196e+003;2.557227e-001
1.481125e+003;2.613952e-001
1.483053e+003;2.682893e-001
1.484982e+003;2.761839e-001
1.486911e+003;2.847195e-001
1.488839e+003;2.941026e-001
1.490768e+003;3.047539e-001
1.492696e+003;3.160297e-001
1.494625e+003;3.270915e-001
1.496553e+003;3.382418e-001
1.498482e+003;3.494847e-001
1.500410e+003;3.605568e-001
1.502339e+003;3.708940e-001
1.504267e+003;3.798646e-001
1.506196e+003;3.879483e-001
1.508125e+003;3.965466e-001
1.510053e+003;4.041392e-001
1.511982e+003;4.100994e-001
1.513910e+003;4.134692e-001
1.515839e+003;4.123081e-001
1.517767e+003;4.066559e-001
1.519696e+003;3.982135e-001
1.521624e+003;3.892368e-001
1.523553e+003;3.812777e-001
1.525481e+003;3.740596e-001
1.527410e+003;3.677508e-001
1.529339e+003;3.614373e-001
1.531267e+003;3.550213e-001
1.533196e+003;3.484951e-001
1.535124e+003;3.420631e-001
1.537053e+003;3.350440e-001
1.538981e+003;3.273822e-001
1.540910e+003;3.210559e-001
1.542838e+003;3.156427e-001
1.544767e+003;3.098179e-001
1.546695e+003;3.039546e-001
1.548624e+003;2.981461e-001
1.550553e+003;2.919373e-001
1.552481e+003;2.854497e-001
1.554410e+003;2.790621e-001
1.556338e+003;2.727884e-001
1.558267e+003;2.656451e-001
1.560195e+003;2.594430e-001
1.562124e+003;2.544430e-001
1.564052e+003;2.487290e-001
1.565981e+003;2.426023e-001
1.567910e+003;2.369841e-001
1.569838e+003;2.322644e-001
1.571767e+003;2.284697e-001
1.573695e+003;2.254409e-001
1.575624e+003;2.228885e-001
1.577552e+003;2.217324e-001
1.579481e+003;2.219958e-001
1.581409e+003;2.228298e-001
1.583338e+003;2.248951e-001
1.585266e+003;2.280374e-001
1.587195e+003;2.323862e-001
1.589124e+003;2.381497e-001
1.591052e+003;2.455304e-001
1.592981e+003;2.539616e-001
1.594909e+003;2.634890e-001
1.596838e+003;2.740151e-001
1.598766e+003;2.853100e-001
1.600695e+003;2.983825e-001
1.602623e+003;3.136953e-001
1.604552e+003;3.308650e-001
1.606480e+003;3.488084e-001
1.608409e+003;3.670488e-001
1.610338e+003;3.850246e-001
1.612266e+003;4.014607e-001
1.614195e+003;4.155554e-001
1.616123e+003;4.264405e-001
1.618052e+003;4.344547e-001
1.619980e+003;4.390991e-001
1.621909e+003;4.392590e-001
1.623837e+003;4.358518e-001
1.625766e+003;4.296625e-001
1.627694e+003;4.208182e-001
1.629623e+003;4.100162e-001
1.631552e+003;3.982697e-001
1.633480e+003;3.861310e-001
1.635409e+003;3.740925e-001
1.637337e+003;3.633288e-001
1.639266e+003;3.533322e-001
1.641194e+003;3.439761e-001
1.643123e+003;3.351616e-001
1.645051e+003;3.260305e-001
1.646980e+003;3.174720e-001
1.648909e+003;3.100846e-001
1.650837e+003;3.024518e-001
1.652766e+003;2.938681e-001
1.654694e+003;2.862593e-001
1.656623e+003;2.792224e-001
1.658551e+003;2.712754e-001
1.660480e+003;2.630743e-001
1.662408e+003;2.552086e-001
1.664337e+003;2.482263e-001
1.666266e+003;2.417007e-001
1.668194e+003;2.349656e-001
1.670123e+003;2.286814e-001
1.672051e+003;2.230787e-001
1.673980e+003;2.174194e-001
1.675908e+003;2.118520e-001
1.677837e+003;2.064767e-001
1.679765e+003;2.012188e-001
1.681694e+003;1.963082e-001
1.683622e+003;1.913326e-001
1.685551e+003;1.873700e-001
1.687479e+003;1.844541e-001
1.689408e+003;1.815390e-001
1.691337e+003;1.792495e-001
1.693265e+003;1.773919e-001
1.695194e+003;1.756229e-001
1.697122e+003;1.745900e-001
1.699051e+003;1.715950e-001
1.700979e+003;1.650455e-001
1.702908e+003;1.555667e-001
1.704836e+003;1.434515e-001
1.706765e+003;1.313255e-001
1.708693e+003;1.208903e-001
1.710622e+003;1.123926e-001
1.712551e+003;1.055772e-001
1.714479e+003;1.000189e-001
1.716408e+003;9.547503e-002
1.718336e+003;9.249850e-002
1.720265e+003;9.050434e-002
1.722193e+003;8.876678e-002
1.724122e+003;8.698343e-002
1.726050e+003;8.540505e-002
1.727979e+003;8.406229e-002
1.729908e+003;8.286002e-002
1.731836e+003;8.154760e-002
1.733765e+003;8.023944e-002
1.735693e+003;7.974183e-002
1.737622e+003;7.906725e-002
1.739550e+003;7.801843e-002
1.741479e+003;7.752921e-002
1.743407e+003;7.676474e-002
1.745336e+003;7.602810e-002
1.747265e+003;7.561316e-002
1.749193e+003;7.524987e-002
1.751122e+003;7.513877e-002
1.753050e+003;7.540314e-002
1.754979e+003;7.535454e-002
1.756907e+003;7.505231e-002
1.758836e+003;7.494036e-002
1.760764e+003;7.476301e-002
1.762693e+003;7.462398e-002
1.764621e+003;7.492154e-002
1.766550e+003;7.479840e-002
1.768479e+003;7.464944e-002
1.770407e+003;7.454317e-002
1.772336e+003;7.393173e-002
1.774264e+003;7.394815e-002
1.776193e+003;7.434448e-002
1.778121e+003;7.450470e-002
1.780050e+003;7.427898e-002
1.781978e+003;7.392234e-002
1.783907e+003;7.370662e-002
1.785835e+003;7.367297e-002
1.787764e+003;7.373144e-002
1.789693e+003;7.338172e-002
1.791621e+003;7.293634e-002
1.793550e+003;7.278395e-002
1.795478e+003;7.283285e-002
1.797407e+003;7.269526e-002
1.799335e+003;7.252133e-002
1.801264e+003;7.218625e-002
1.803192e+003;7.213030e-002
1.805121e+003;7.213578e-002
1.807049e+003;7.203540e-002
1.808978e+003;7.179528e-002
1.810907e+003;7.134734e-002
1.812835e+003;7.113344e-002
1.814764e+003;7.134222e-002
1.816692e+003;7.147931e-002
1.818621e+003;7.143541e-002
1.820549e+003;7.115702e-002
1.822478e+003;7.086975e-002
1.824406e+003;7.057714e-002
1.826335e+003;7.051356e-002
1.828264e+003;7.040655e-002
1.830192e+003;6.996471e-002
1.832121e+003;6.956540e-002
1.834049e+003;6.949556e-002
1.835978e+003;6.940349e-002
1.837906e+003;6.920865e-002
1.839835e+003;6.933928e-002
1.841763e+003;6.941515e-002
1.843692e+003;6.897424e-002
1.845620e+003;6.870072e-002
1.847549e+003;6.873495e-002
1.849478e+003;6.874800e-002
1.851406e+003;6.871854e-002
1.853335e+003;6.862462e-002
1.855263e+003;6.844851e-002
1.857192e+003;6.845763e-002
1.859120e+003;6.850456e-002
1.861049e+003;6.843296e-002
1.862977e+003;6.834294e-002
1.864906e+003;6.829850e-002
1.866834e+003;6.844518e-002
1.868763e+003;6.851605e-002
1.870692e+003;6.858367e-002
1.872620e+003;6.863669e-002
1.874549e+003;6.857099e-002
1.876477e+003;6.845883e-002
1.878406e+003;6.848408e-002
1.880334e+003;6.862194e-002
1.882263e+003;6.857882e-002
1.884191e+003;6.853145e-002
1.886120e+003;6.855989e-002
1.888048e+003;6.860789e-002
1.889977e+003;6.852249e-002
1.891906e+003;6.855497e-002
1.893834e+003;6.855279e-002
1.895763e+003;6.846251e-002
1.897691e+003;6.837769e-002
1.899620e+003;6.834247e-002
1.901548e+003;6.823786e-002
1.903477e+003;6.834352e-002
1.905405e+003;6.840142e-002
1.907334e+003;6.820459e-002
1.909262e+003;6.818493e-002
1.911191e+003;6.844766e-002
1.913120e+003;6.843796e-002
1.915048e+003;6.814647e-002
1.916977e+003;6.796797e-002
1.918905e+003;6.806086e-002
1.920834e+003;6.814225e-002
1.922762e+003;6.819145e-002
1.924691e+003;6.807163e-002
1.926619e+003;6.800482e-002
1.928548e+003;6.809411e-002
1.930477e+003;6.814283e-002
1.932405e+003;6.837613e-002
1.934334e+003;6.838854e-002
1.936262e+003;6.808609e-002
1.938191e+003;6.804815e-002
1.940119e+003;6.813617e-002
1.942048e+003;6.818253e-002
1.943976e+003;6.824289e-002
1.945905e+003;6.811907e-002
1.947833e+003;6.818040e-002
1.949762e+003;6.845929e-002
1.951691e+003;6.854499e-002
1.953619e+003;6.862403e-002
1.955548e+003;6.862132e-002
1.957476e+003;6.868616e-002
1.959405e+003;6.887029e-002
1.961333e+003;6.881655e-002
1.963262e+003;6.869777e-002
1.965190e+003;6.871729e-002
1.967119e+003;6.869207e-002
1.969047e+003;6.863948e-002
1.970976e+003;6.869692e-002
1.972905e+003;6.866164e-002
1.974833e+003;6.838001e-002
1.976762e+003;6.844572e-002
1.978690e+003;6.874924e-002
1.980619e+003;6.870250e-002
1.982547e+003;6.874318e-002
1.984476e+003;6.877556e-002
1.986404e+003;6.860370e-002
1.988333e+003;6.860498e-002
1.990261e+003;6.865558e-002
1.992190e+003;6.847551e-002
1.994119e+003;6.841523e-002
1.996047e+003;6.833906e-002
1.997976e+003;6.826220e-002
1.999904e+003;6.838552e-002
2.001833e+003;6.843284e-002
2.003761e+003;6.837978e-002
2.005690e+003;6.823436e-002
2.007618e+003;6.812903e-002
2.009547e+003;6.815501e-002
2.011476e+003;6.834514e-002
2.013404e+003;6.822715e-002
2.015333e+003;6.826457e-002
2.017261e+003;6.842124e-002
2.019190e+003;6.840623e-002
2.021118e+003;6.848742e-002
2.023047e+003;6.869665e-002
2.024975e+003;6.880479e-002
2.026904e+003;6.870235e-002
2.028833e+003;6.859218e-002
2.030761e+003;6.857432e-002
2.032690e+003;6.849739e-002
2.034618e+003;6.831160e-002
2.036547e+003;6.827356e-002
2.038475e+003;6.830098e-002
2.040404e+003;6.818493e-002
2.042332e+003;6.828523e-002
2.044261e+003;6.855198e-002
2.046189e+003;6.859105e-002
2.048118e+003;6.843521e-002
2.050047e+003;6.858476e-002
2.051975e+003;6.875926e-002
2.053904e+003;6.863063e-002
2.055832e+003;6.854752e-002
2.057761e+003;6.840108e-002
2.059689e+003;6.840200e-002
2.061618e+003;6.848106e-002
2.063546e+003;6.848396e-002
2.065475e+003;6.859109e-002
2.067404e+003;6.878068e-002
2.069332e+003;6.883433e-002
2.071260e+003;6.907675e-002
2.073189e+003;6.934654e-002
2.075118e+003;6.902108e-002
2.077046e+003;6.884377e-002
2.078975e+003;6.914108e-002
2.080903e+003;6.909081e-002
2.082832e+003;6.880471e-002
2.084760e+003;6.891654e-002
2.086689e+003;6.911859e-002
2.088617e+003;6.922730e-002
2.090546e+003;6.932590e-002
2.092475e+003;6.935972e-002
2.094403e+003;6.919431e-002
2.096332e+003;6.930418e-002
2.098260e+003;6.946612e-002
2.100189e+003;6.951585e-002
2.102117e+003;6.950431e-002
2.104046e+003;6.940450e-002
2.105974e+003;6.903549e-002
2.107903e+003;6.906983e-002
2.109832e+003;6.933589e-002
2.111760e+003;6.930581e-002
2.113688e+003;6.932983e-002
2.115617e+003;6.939587e-002
2.117546e+003;6.919843e-002
2.119474e+003;6.875335e-002
2.121403e+003;6.840064e-002
2.123331e+003;6.851729e-002
2.125260e+003;6.882680e-002
2.127188e+003;6.896760e-002
2.129117e+003;6.904109e-002
2.131045e+003;6.898574e-002
2.132974e+003;6.913770e-002
2.134903e+003;6.943478e-002
2.136831e+003;6.932855e-002
2.138760e+003;6.918903e-002
2.140688e+003;6.912542e-002
2.142617e+003;6.894057e-002
2.144545e+003;6.885456e-002
2.146474e+003;6.881116e-002
2.148402e+003;6.888209e-002
2.150331e+003;6.901157e-002
2.152260e+003;6.895801e-002
2.154188e+003;6.895832e-002
2.156117e+003;6.910231e-002
2.158045e+003;6.893867e-002
2.159974e+003;6.882405e-002
2.161902e+003;6.901199e-002
2.163831e+003;6.910177e-002
2.165759e+003;6.896555e-002
2.167688e+003;6.884544e-002
2.169616e+003;6.880596e-002
2.171545e+003;6.886835e-002
2.173474e+003;6.891129e-002
2.175402e+003;6.873453e-002
2.177331e+003;6.856652e-002
2.179259e+003;6.863502e-002
2.181188e+003;6.877113e-002
2.183116e+003;6.874590e-002
2.185045e+003;6.869113e-002
2.186973e+003;6.867798e-002
2.188902e+003;6.862574e-002
2.190831e+003;6.858364e-002
2.192759e+003;6.867325e-002
2.194688e+003;6.892492e-002
2.196616e+003;6.898294e-002
2.198545e+003;6.899576e-002
2.200473e+003;6.885523e-002
2.202402e+003;6.858538e-002
2.204330e+003;6.870930e-002
2.206259e+003;6.883325e-002
2.208188e+003;6.888438e-002
2.210116e+003;6.882148e-002
2.212044e+003;6.870821e-002
2.213973e+003;6.877715e-002
2.215902e+003;6.891828e-002
2.217830e+003;6.879997e-002
2.219759e+003;6.851927e-002
2.221687e+003;6.849087e-002
2.223616e+003;6.852125e-002
2.225544e+003;6.858205e-002
2.227473e+003;6.865496e-002
2.229401e+003;6.843509e-002
2.231330e+003;6.819555e-002
2.233259e+003;6.829233e-002
2.235187e+003;6.845903e-002
2.237116e+003;6.863358e-002
2.239044e+003;6.868442e-002
2.240973e+003;6.860743e-002
2.242901e+003;6.841259e-002
2.244830e+003;6.828617e-002
2.246758e+003;6.844006e-002
2.248687e+003;6.850123e-002
2.250615e+003;6.854360e-002
2.252544e+003;6.858267e-002
2.254473e+003;6.838420e-002
2.256401e+003;6.812567e-002
2.258330e+003;6.805842e-002
2.260258e+003;6.830432e-002
2.262187e+003;6.834941e-002
2.264115e+003;6.824794e-002
2.266044e+003;6.835407e-002
2.267972e+003;6.835046e-002
2.269901e+003;6.813651e-002
2.271830e+003;6.798145e-002
2.273758e+003;6.808326e-002
2.275687e+003;6.811818e-002
2.277615e+003;6.811403e-002
2.279544e+003;6.826197e-002
2.281472e+003;6.848020e-002
2.283401e+003;6.872471e-002
2.285329e+003;6.878305e-002
2.287258e+003;6.854880e-002
2.289187e+003;6.844959e-002
2.291115e+003;6.846958e-002
2.293043e+003;6.835508e-002
2.294972e+003;6.858220e-002
2.296901e+003;6.893867e-002
2.298829e+003;6.883693e-002
2.300758e+003;6.868520e-002
2.302686e+003;6.877501e-002
2.304615e+003;6.869700e-002
2.306543e+003;6.850887e-002
2.308472e+003;6.861360e-002
2.310400e+003;6.874035e-002
2.312329e+003;6.870076e-002
2.314258e+003;6.865656e-002
2.316186e+003;6.848699e-002
2.318115e+003;6.833037e-002
2.320043e+003;6.829551e-002
2.321972e+003;6.821335e-002
2.323900e+003;6.808628e-002
2.325829e+003;6.797580e-002
2.327757e+003;6.795949e-002
2.329686e+003;6.805094e-002
2.331615e+003;6.807528e-002
2.333543e+003;6.807989e-002
2.335472e+003;6.806593e-002
2.337400e+003;6.810229e-002
2.339329e+003;6.801432e-002
2.341257e+003;6.803609e-002
2.343186e+003;6.829667e-002
2.345114e+003;6.839157e-002
2.347043e+003;6.849518e-002
2.348971e+003;6.872079e-002
2.350900e+003;6.892970e-002
2.352829e+003;6.873220e-002
2.354757e+003;6.814578e-002
2.356686e+003;6.767018e-002
2.358614e+003;6.774651e-002
2.360543e+003;6.795526e-002
2.362471e+003;6.779484e-002
2.364400e+003;6.774229e-002
2.366328e+003;6.801497e-002
2.368257e+003;6.829171e-002
2.370186e+003;6.857770e-002
2.372114e+003;6.859536e-002
2.374042e+003;6.858923e-002
2.375971e+003;6.881221e-002
2.377900e+003;6.922225e-002
2.379828e+003;6.958119e-002
2.381757e+003;6.973838e-002
2.383685e+003;6.992279e-002
2.385614e+003;7.015249e-002
2.387542e+003;7.008941e-002
2.389471e+003;6.984410e-002
2.391399e+003;6.982106e-002
2.393328e+003;7.001594e-002
2.395257e+003;7.019377e-002
2.397185e+003;7.017781e-002
2.399114e+003;7.035485e-002
2.401042e+003;7.059807e-002
2.402971e+003;7.071020e-002
2.404899e+003;7.067460e-002
2.406828e+003;7.082477e-002
2.408756e+003;7.131314e-002
2.410685e+003;7.175205e-002
2.412614e+003;7.177027e-002
2.414542e+003;7.180408e-002
2.416471e+003;7.187320e-002
2.418399e+003;7.213476e-002
2.420328e+003;7.271092e-002
2.422256e+003;7.314349e-002
2.424185e+003;7.327287e-002
2.426113e+003;7.310745e-002
2.428042e+003;7.306965e-002
2.429970e+003;7.316702e-002
2.431899e+003;7.329848e-002
2.433828e+003;7.341872e-002
2.435756e+003;7.365496e-002
2.437685e+003;7.384281e-002
2.439613e+003;7.378834e-002
2.441542e+003;7.385196e-002
2.443470e+003;7.403699e-002
2.445399e+003;7.409793e-002
2.447327e+003;7.419399e-002
2.449256e+003;7.434161e-002
2.451185e+003;7.427548e-002
2.453113e+003;7.416726e-002
2.455042e+003;7.413924e-002
2.456970e+003;7.420672e-002
2.458899e+003;7.419171e-002
2.460827e+003;7.428052e-002
2.462756e+003;7.452351e-002
2.464684e+003;7.484406e-002
2.466613e+003;7.483339e-002
2.468542e+003;7.463913e-002
2.470470e+003;7.494512e-002
2.472398e+003;7.542963e-002
2.474327e+003;7.553690e-002
2.476256e+003;7.541216e-002
2.478184e+003;7.524093e-002
2.480113e+003;7.525874e-002
2.482041e+003;7.550284e-002
2.483970e+003;7.561083e-002
2.485898e+003;7.574982e-002
2.487827e+003;7.584625e-002
2.489755e+003;7.601551e-002
2.491684e+003;7.613485e-002
2.493613e+003;7.594640e-002
2.495541e+003;7.602257e-002
2.497470e+003;7.624222e-002
2.499398e+003;7.618345e-002
2.501327e+003;7.612593e-002
2.503255e+003;7.632907e-002
2.505184e+003;7.643680e-002
2.507112e+003;7.641906e-002
2.509041e+003;7.649390e-002
2.510969e+003;7.671572e-002
2.512898e+003;7.664649e-002
2.514827e+003;7.649113e-002
2.516755e+003;7.648493e-002
2.518684e+003;7.641488e-002
2.520612e+003;7.642692e-002
2.522541e+003;7.671192e-002
2.524469e+003;7.697507e-002
2.526398e+003;7.709424e-002
2.528326e+003;7.704478e-002
2.530255e+003;7.695568e-002
2.532184e+003;7.693432e-002
2.534112e+003;7.685138e-002
2.536041e+003;7.698211e-002
2.537969e+003;7.708921e-002
2.539898e+003;7.718126e-002
2.541826e+003;7.752791e-002
2.543755e+003;7.791689e-002
2.545683e+003;7.825159e-002
2.547612e+003;7.836729e-002
2.549541e+003;7.836345e-002
2.551469e+003;7.851277e-002
2.553397e+003;7.865421e-002
2.555326e+003;7.867815e-002
2.557255e+003;7.881010e-002
2.559183e+003;7.897643e-002
2.561112e+003;7.911222e-002
2.563040e+003;7.931099e-002
2.564969e+003;7.950743e-002
2.566897e+003;7.967287e-002
2.568826e+003;7.986068e-002
2.570754e+003;7.999630e-002
2.572683e+003;8.032148e-002
2.574612e+003;8.056804e-002
2.576540e+003;8.074242e-002
2.578469e+003;8.080500e-002
2.580397e+003;8.068596e-002
2.582326e+003;8.086423e-002
2.584254e+003;8.114915e-002
2.586183e+003;8.138607e-002
2.588111e+003;8.175609e-002
2.590040e+003;8.196165e-002
2.591969e+003;8.200458e-002
2.593897e+003;8.219656e-002
2.595826e+003;8.218083e-002
2.597754e+003;8.221094e-002
2.599683e+003;8.256130e-002
2.601611e+003;8.291736e-002
2.603540e+003;8.278371e-002
2.605468e+003;8.277173e-002
2.607397e+003;8.329579e-002
2.609325e+003;8.380815e-002
2.611254e+003;8.383978e-002
2.613183e+003;8.381900e-002
2.615111e+003;8.398682e-002
2.617040e+003;8.373799e-002
2.618968e+003;8.356473e-002
2.620897e+003;8.371657e-002
2.622825e+003;8.389416e-002
2.624754e+003;8.396784e-002
2.626682e+003;8.395892e-002
2.628611e+003;8.389098e-002
2.630540e+003;8.374506e-002
2.632468e+003;8.378363e-002
2.634396e+003;8.401094e-002
2.636325e+003;8.388930e-002
2.638254e+003;8.388881e-002
2.640182e+003;8.390417e-002
2.642111e+003;8.385039e-002
2.644039e+003;8.387463e-002
2.645968e+003;8.374418e-002
2.647896e+003;8.372927e-002
2.649825e+003;8.387265e-002
2.651753e+003;8.399429e-002
2.653682e+003;8.419065e-002
2.655611e+003;8.419286e-002
2.657539e+003;8.415534e-002
2.659468e+003;8.434550e-002
2.661396e+003;8.445745e-002
2.663325e+003;8.447794e-002
2.665253e+003;8.453111e-002
2.667182e+003;8.481394e-002
2.669110e+003;8.520709e-002
2.671039e+003;8.551800e-002
2.672968e+003;8.578347e-002
2.674896e+003;8.597269e-002
2.676825e+003;8.601166e-002
2.678753e+003;8.574189e-002
2.680682e+003;8.565435e-002
2.682610e+003;8.608741e-002
2.684539e+003;8.625521e-002
2.686467e+003;8.632889e-002
2.688396e+003;8.659765e-002
2.690324e+003;8.689564e-002
2.692253e+003;8.735120e-002
2.694182e+003;8.770574e-002
2.696110e+003;8.764346e-002
2.698039e+003;8.754475e-002
2.699967e+003;8.759574e-002
2.701896e+003;8.784788e-002
2.703824e+003;8.825175e-002
2.705753e+003;8.854323e-002
2.707681e+003;8.855505e-002
2.709610e+003;8.860385e-002
2.711539e+003;8.882186e-002
2.713467e+003;8.901456e-002
2.715396e+003;8.929426e-002
2.717324e+003;8.960184e-002
2.719253e+003;8.968388e-002
2.721181e+003;8.998537e-002
2.723110e+003;9.013740e-002
2.725038e+003;8.989733e-002
2.726967e+003;9.027713e-002
2.728896e+003;9.085289e-002
2.730824e+003;9.109499e-002
2.732752e+003;9.116558e-002
2.734681e+003;9.112176e-002
2.736610e+003;9.133327e-002
2.738538e+003;9.173249e-002
2.740467e+003;9.195761e-002
2.742395e+003;9.199041e-002
2.744324e+003;9.205081e-002
2.746252e+003;9.231383e-002
2.748181e+003;9.278464e-002
2.750109e+003;9.305505e-002
2.752038e+003;9.308165e-002
2.753967e+003;9.320943e-002
2.755895e+003;9.349181e-002
2.757824e+003;9.362900e-002
2.759752e+003;9.382610e-002
2.761681e+003;9.410049e-002
2.763609e+003;9.442793e-002
2.765538e+003;9.451734e-002
2.767466e+003;9.443554e-002
2.769395e+003;9.458584e-002
2.771323e+003;9.478091e-002
2.773252e+003;9.483808e-002
2.775181e+003;9.527544e-002
2.777109e+003;9.551120e-002
2.779038e+003;9.544370e-002
2.780966e+003;9.546488e-002
2.782895e+003;9.561487e-002
2.784823e+003;9.590093e-002
2.786752e+003;9.605996e-002
2.788680e+003;9.587482e-002
2.790609e+003;9.602685e-002
2.792538e+003;9.625429e-002
2.794466e+003;9.645148e-002
2.796395e+003;9.702186e-002
2.798323e+003;9.718727e-002
2.800252e+003;9.690264e-002
2.802180e+003;9.700578e-002
2.804109e+003;9.744111e-002
2.806037e+003;9.793261e-002
2.807966e+003;9.805809e-002
2.809895e+003;9.813035e-002
2.811823e+003;9.845398e-002
2.813751e+003;9.866186e-002
2.815680e+003;9.888269e-002
2.817609e+003;9.915330e-002
2.819537e+003;9.920775e-002
2.821466e+003;9.918219e-002
2.823394e+003;9.926330e-002
2.825323e+003;9.949128e-002
2.827251e+003;9.958661e-002
2.829180e+003;9.966434e-002
2.831108e+003;9.988926e-002
2.833037e+003;1.002889e-001
2.834966e+003;1.008628e-001
2.836894e+003;1.012931e-001
2.838823e+003;1.014699e-001
2.840751e+003;1.016142e-001
2.842680e+003;1.018725e-001
2.844608e+003;1.019663e-001
2.846537e+003;1.016739e-001
2.848465e+003;1.016802e-001
2.850394e+003;1.026668e-001
2.852323e+003;1.041558e-001
2.854251e+003;1.054964e-001
2.856180e+003;1.064491e-001
2.858108e+003;1.073673e-001
2.860037e+003;1.081195e-001
2.861965e+003;1.085397e-001
2.863894e+003;1.092568e-001
2.865822e+003;1.099382e-001
2.867751e+003;1.103228e-001
2.869679e+003;1.111368e-001
2.871608e+003;1.118412e-001
2.873536e+003;1.120696e-001
2.875465e+003;1.124639e-001
2.877394e+003;1.125969e-001
2.879322e+003;1.123910e-001
2.881251e+003;1.121727e-001
2.883179e+003;1.119307e-001
2.885108e+003;1.119822e-001
2.887036e+003;1.119497e-001
2.888965e+003;1.116357e-001
2.890893e+003;1.113261e-001
2.892822e+003;1.113471e-001
2.894750e+003;1.119137e-001
2.896679e+003;1.121593e-001
2.898608e+003;1.120648e-001
2.900536e+003;1.124371e-001
2.902465e+003;1.127876e-001
2.904393e+003;1.130352e-001
2.906322e+003;1.134529e-001
2.908250e+003;1.135780e-001
2.910179e+003;1.136084e-001
2.912107e+003;1.137889e-001
2.914036e+003;1.134732e-001
2.915965e+003;1.133565e-001
2.917893e+003;1.140329e-001
2.919822e+003;1.154648e-001
2.921750e+003;1.172244e-001
2.923679e+003;1.185750e-001
2.925607e+003;1.199309e-001
2.927536e+003;1.211654e-001
2.929464e+003;1.220458e-001
2.931393e+003;1.226622e-001
2.933322e+003;1.230203e-001
2.935250e+003;1.233915e-001
2.937178e+003;1.232141e-001
2.939107e+003;1.225416e-001
2.941036e+003;1.220318e-001
2.942964e+003;1.215766e-001
2.944893e+003;1.208194e-001
2.946821e+003;1.199746e-001
2.948750e+003;1.190009e-001
2.950678e+003;1.180773e-001
2.952607e+003;1.173011e-001
2.954535e+003;1.165198e-001
2.956464e+003;1.164412e-001
2.958393e+003;1.163533e-001
2.960321e+003;1.160974e-001
2.962250e+003;1.161909e-001
2.964178e+003;1.164976e-001
2.966107e+003;1.167914e-001
2.968035e+003;1.169343e-001
2.969964e+003;1.170398e-001
2.971892e+003;1.170245e-001
2.973821e+003;1.171792e-001
2.975750e+003;1.169147e-001
2.977678e+003;1.166908e-001
2.979607e+003;1.166748e-001
2.981535e+003;1.166174e-001
2.983464e+003;1.162763e-001
2.985392e+003;1.156257e-001
2.987321e+003;1.148455e-001
2.989249e+003;1.142872e-001
2.991178e+003;1.139418e-001
2.993106e+003;1.135418e-001
2.995035e+003;1.130797e-001
2.996964e+003;1.126273e-001
2.998892e+003;1.120656e-001
3.000821e+003;1.117895e-001
3.002749e+003;1.115396e-001
3.004678e+003;1.111596e-001
3.006606e+003;1.107702e-001
3.008535e+003;1.106770e-001
3.010463e+003;1.111227e-001
3.012392e+003;1.112979e-001
3.014321e+003;1.110997e-001
3.016249e+003;1.111693e-001
3.018177e+003;1.114513e-001
3.020106e+003;1.119491e-001
3.022035e+003;1.123585e-001
3.023963e+003;1.125768e-001
3.025892e+003;1.126986e-001
3.027820e+003;1.130747e-001
3.029749e+003;1.137174e-001
3.031677e+003;1.145486e-001
3.033606e+003;1.147900e-001
3.035534e+003;1.148284e-001
3.037463e+003;1.153663e-001
3.039392e+003;1.161538e-001
3.041320e+003;1.166157e-001
3.043249e+003;1.171155e-001
3.045177e+003;1.177951e-001
3.047106e+003;1.183314e-001
3.049034e+003;1.189532e-001
3.050963e+003;1.196065e-001
3.052891e+003;1.201447e-001
3.054820e+003;1.206046e-001
3.056749e+003;1.212703e-001
3.058677e+003;1.218840e-001
3.060606e+003;1.223382e-001
3.062534e+003;1.225522e-001
3.064463e+003;1.226317e-001
3.066391e+003;1.228929e-001
3.068320e+003;1.231911e-001
3.070248e+003;1.233482e-001
3.072177e+003;1.235197e-001
3.074105e+003;1.237414e-001
3.076034e+003;1.239344e-001
3.077963e+003;1.238080e-001
3.079891e+003;1.237923e-001
3.081820e+003;1.236987e-001
3.083748e+003;1.235172e-001
3.085677e+003;1.233778e-001
3.087605e+003;1.228341e-001
3.089534e+003;1.223517e-001
3.091462e+003;1.220997e-001
3.093391e+003;1.217161e-001
3.095320e+003;1.213603e-001
3.097248e+003;1.210244e-001
3.099177e+003;1.208044e-001
3.101105e+003;1.210075e-001
3.103034e+003;1.204101e-001
3.104962e+003;1.197275e-001
3.106891e+003;1.197914e-001
3.108819e+003;1.196844e-001
3.110748e+003;1.191876e-001
3.112677e+003;1.188542e-001
3.114605e+003;1.187041e-001
3.116533e+003;1.185273e-001
3.118462e+003;1.182876e-001
3.120391e+003;1.180995e-001
3.122319e+003;1.181549e-001
3.124248e+003;1.182181e-001
3.126176e+003;1.180346e-001
3.128105e+003;1.179501e-001
3.130033e+003;1.183430e-001
3.131962e+003;1.188438e-001
3.133890e+003;1.190204e-001
3.135819e+003;1.191797e-001
3.137748e+003;1.195048e-001
3.139676e+003;1.198240e-001
3.141605e+003;1.200951e-001
3.143533e+003;1.203436e-001
3.145462e+003;1.206597e-001
3.147390e+003;1.211229e-001
3.149319e+003;1.214534e-001
3.151247e+003;1.220234e-001
3.153176e+003;1.227261e-001
3.155104e+003;1.234263e-001
3.157033e+003;1.241568e-001
3.158962e+003;1.249923e-001
3.160890e+003;1.258245e-001
3.162819e+003;1.264055e-001
3.164747e+003;1.270495e-001
3.166676e+003;1.275583e-001
3.168604e+003;1.284826e-001
3.170533e+003;1.298998e-001
3.172461e+003;1.310145e-001
3.174390e+003;1.318611e-001
3.176319e+003;1.329170e-001
3.178247e+003;1.338597e-001
3.180176e+003;1.348139e-001
3.182104e+003;1.355770e-001
3.184033e+003;1.366525e-001
3.185961e+003;1.376716e-001
3.187890e+003;1.383563e-001
3.189818e+003;1.394089e-001
3.191747e+003;1.405526e-001
3.193676e+003;1.418474e-001
3.195604e+003;1.432711e-001
3.197532e+003;1.445008e-001
3.199461e+003;1.454255e-001
3.201390e+003;1.462741e-001
3.203318e+003;1.477702e-001
3.205247e+003;1.491824e-001
3.207175e+003;1.501702e-001
3.209104e+003;1.515052e-001
3.211032e+003;1.533319e-001
3.212961e+003;1.548181e-001
3.214889e+003;1.555682e-001
3.216818e+003;1.564734e-001
3.218747e+003;1.576283e-001
3.220675e+003;1.588769e-001
3.222604e+003;1.604946e-001
3.224532e+003;1.622153e-001
3.226461e+003;1.638238e-001
3.228389e+003;1.657092e-001
3.230318e+003;1.675486e-001
3.232246e+003;1.689954e-001
3.234175e+003;1.705065e-001
3.236104e+003;1.720821e-001
3.238032e+003;1.737828e-001
3.239961e+003;1.757797e-001
3.241889e+003;1.779360e-001
3.243818e+003;1.795734e-001
3.245746e+003;1.812917e-001
3.247675e+003;1.837021e-001
3.249603e+003;1.859329e-001
3.251532e+003;1.881015e-001
3.253460e+003;1.907410e-001
3.255389e+003;1.928407e-001
3.257318e+003;1.948518e-001
3.259246e+003;1.976073e-001
3.261175e+003;2.007188e-001
3.263103e+003;2.032608e-001
3.265032e+003;2.051227e-001
3.266960e+003;2.070708e-001
3.268889e+003;2.090787e-001
3.270817e+003;2.109240e-001
3.272746e+003;2.119954e-001
3.274675e+003;2.131784e-001
3.276603e+003;2.143483e-001
3.278531e+003;2.147698e-001
3.280460e+003;2.146659e-001
3.282389e+003;2.140253e-001
3.284317e+003;2.129606e-001
3.286246e+003;2.114291e-001
3.288174e+003;2.094915e-001
3.290103e+003;2.078893e-001
3.292031e+003;2.061424e-001
3.293960e+003;2.039776e-001
3.295888e+003;2.015540e-001
3.297817e+003;1.989844e-001
3.299746e+003;1.964288e-001
3.301674e+003;1.936619e-001
3.303603e+003;1.908064e-001
3.305531e+003;1.877250e-001
3.307460e+003;1.851356e-001
3.309388e+003;1.830487e-001
3.311317e+003;1.802861e-001
3.313245e+003;1.771495e-001
3.315174e+003;1.739870e-001
3.317103e+003;1.711838e-001
3.319031e+003;1.688468e-001
3.320960e+003;1.665445e-001
3.322888e+003;1.640767e-001
3.324817e+003;1.615930e-001
3.326745e+003;1.590123e-001
3.328674e+003;1.564909e-001
3.330602e+003;1.547674e-001
3.332531e+003;1.529512e-001
3.334459e+003;1.507475e-001
3.336388e+003;1.488264e-001
3.338317e+003;1.468348e-001
3.340245e+003;1.448413e-001
3.342174e+003;1.431597e-001
3.344102e+003;1.415729e-001
3.346031e+003;1.398009e-001
3.347959e+003;1.379124e-001
3.349888e+003;1.364596e-001
3.351816e+003;1.353293e-001
3.353745e+003;1.343163e-001
3.355674e+003;1.330703e-001
3.357602e+003;1.316689e-001
3.359531e+003;1.305729e-001
3.361459e+003;1.293375e-001
3.363388e+003;1.281468e-001
3.365316e+003;1.272412e-001
3.367245e+003;1.265959e-001
3.369173e+003;1.262583e-001
3.371102e+003;1.258926e-001
3.373031e+003;1.248032e-001
3.374959e+003;1.234378e-001
3.376887e+003;1.226121e-001
3.378816e+003;1.220160e-001
3.380745e+003;1.215852e-001
3.382673e+003;1.209834e-001
3.384602e+003;1.202181e-001
3.386530e+003;1.195963e-001
3.388459e+003;1.187018e-001
3.390387e+003;1.178356e-001
3.392316e+003;1.172066e-001
3.394244e+003;1.165316e-001
3.396173e+003;1.160035e-001
3.398102e+003;1.156085e-001
3.400030e+003;1.149859e-001
3.401959e+003;1.140282e-001
3.403887e+003;1.131498e-001
3.405816e+003;1.124502e-001
3.407744e+003;1.116719e-001
3.409673e+003;1.111256e-001
3.411601e+003;1.108427e-001
3.413530e+003;1.104075e-001
3.415458e+003;1.098711e-001
3.417387e+003;1.089189e-001
3.419316e+003;1.078972e-001
3.421244e+003;1.071817e-001
3.423173e+003;1.063847e-001
3.425101e+003;1.057356e-001
3.427030e+003;1.054599e-001
3.428958e+003;1.050641e-001
3.430887e+003;1.042749e-001
3.432815e+003;1.037744e-001
3.434744e+003;1.031698e-001
3.436673e+003;1.022205e-001
3.438601e+003;1.016452e-001
3.440530e+003;1.015718e-001
3.442458e+003;1.013085e-001
3.444387e+003;1.009947e-001
3.446315e+003;1.005979e-001
3.448244e+003;1.001217e-001
3.450172e+003;9.969310e-002
3.452101e+003;9.940083e-002
3.454030e+003;9.895409e-002
3.455958e+003;9.872104e-002
3.457886e+003;9.853359e-002
3.459815e+003;9.802873e-002
3.461744e+003;9.732484e-002
3.463672e+003;9.676487e-002
3.465601e+003;9.681199e-002
3.467529e+003;9.696734e-002
3.469458e+003;9.648710e-002
3.471386e+003;9.569532e-002
3.473315e+003;9.543277e-002
3.475243e+003;9.531365e-002
3.477172e+003;9.527705e-002
3.479101e+003;9.510873e-002
3.481029e+003;9.462601e-002
3.482958e+003;9.419873e-002
3.484886e+003;9.412555e-002
3.486815e+003;9.441079e-002
3.488743e+003;9.418971e-002
3.490672e+003;9.350393e-002
3.492600e+003;9.305122e-002
3.494529e+003;9.278169e-002
3.496458e+003;9.232458e-002
3.498386e+003;9.156722e-002
3.500315e+003;9.114718e-002
3.502243e+003;9.151919e-002
3.504172e+003;9.165065e-002
3.506100e+003;9.132718e-002
3.508029e+003;9.094328e-002
3.509957e+003;9.064928e-002
3.511886e+003;9.064332e-002
3.513814e+003;9.067436e-002
3.515743e+003;9.013250e-002
3.517672e+003;8.959232e-002
3.519600e+003;8.917337e-002
3.521529e+003;8.861560e-002
3.523457e+003;8.822840e-002
3.525386e+003;8.771851e-002
3.527314e+003;8.756197e-002
3.529243e+003;8.763604e-002
3.531171e+003;8.745570e-002
3.533100e+003;8.703230e-002
3.535029e+003;8.658803e-002
3.536957e+003;8.606850e-002
3.538885e+003;8.568591e-002
3.540814e+003;8.544482e-002
3.542743e+003;8.524140e-002
3.544671e+003;8.517750e-002
3.546600e+003;8.495313e-002
3.548528e+003;8.457845e-002
3.550457e+003;8.420578e-002
3.552385e+003;8.366177e-002
3.554314e+003;8.301731e-002
3.556242e+003;8.275184e-002
3.558171e+003;8.260278e-002
3.560100e+003;8.223208e-002
3.562028e+003;8.180633e-002
3.563957e+003;8.161429e-002
3.565885e+003;8.155019e-002
3.567814e+003;8.127319e-002
3.569742e+003;8.093404e-002
3.571671e+003;8.077566e-002
3.573599e+003;8.019620e-002
3.575528e+003;7.966954e-002
3.577457e+003;7.945216e-002
3.579385e+003;7.940264e-002
3.581314e+003;7.921443e-002
3.583242e+003;7.880545e-002
3.585171e+003;7.835567e-002
3.587099e+003;7.794318e-002
3.589028e+003;7.786167e-002
3.590956e+003;7.762556e-002
3.592885e+003;7.705440e-002
3.594813e+003;7.684708e-002
3.596742e+003;7.669773e-002
3.598671e+003;7.614516e-002
3.600599e+003;7.580979e-002
3.602528e+003;7.575736e-002
3.604456e+003;7.517982e-002
3.606385e+003;7.444940e-002
3.608313e+003;7.404146e-002
3.610242e+003;7.368197e-002
3.612170e+003;7.380003e-002
3.614099e+003;7.409086e-002
3.616028e+003;7.396780e-002
3.617956e+003;7.308511e-002
3.619885e+003;7.208332e-002
3.621813e+003;7.169370e-002
3.623742e+003;7.179059e-002
3.625670e+003;7.174318e-002
3.627599e+003;7.087470e-002
3.629527e+003;7.004736e-002
3.631456e+003;7.016160e-002
3.633385e+003;7.027853e-002
3.635313e+003;6.996117e-002
3.637241e+003;6.933881e-002
3.639170e+003;6.892811e-002
3.641099e+003;6.832064e-002
3.643027e+003;6.755884e-002
3.644956e+003;6.693202e-002
3.646884e+003;6.648073e-002
3.648813e+003;6.588329e-002
3.650741e+003;6.542019e-002
3.652670e+003;6.540882e-002
3.654598e+003;6.474344e-002
3.656527e+003;6.386880e-002
3.658456e+003;6.376410e-002
3.660384e+003;6.334108e-002
3.662313e+003;6.266118e-002
3.664241e+003;6.217686e-002
3.666170e+003;6.145553e-002
3.668098e+003;6.048235e-002
3.670027e+003;5.954927e-002
3.671955e+003;5.919465e-002
3.673884e+003;5.875830e-002
3.675813e+003;5.801084e-002
3.677741e+003;5.816238e-002
3.679669e+003;5.800043e-002
3.681598e+003;5.744102e-002
3.683527e+003;5.670908e-002
3.685455e+003;5.600690e-002
3.687384e+003;5.559497e-002
3.689312e+003;5.518250e-002
3.691241e+003;5.487106e-002
3.693169e+003;5.446006e-002
3.695098e+003;5.408559e-002
3.697026e+003;5.382912e-002
3.698955e+003;5.370192e-002
3.700884e+003;5.363252e-002
3.702812e+003;5.330529e-002
3.704741e+003;5.308335e-002
3.706669e+003;5.296059e-002
3.708598e+003;5.257287e-002
3.710526e+003;5.228537e-002
3.712455e+003;5.224464e-002
3.714383e+003;5.220032e-002
3.716312e+003;5.181163e-002
3.718240e+003;5.156262e-002
3.720169e+003;5.136991e-002
3.722098e+003;5.124693e-002
3.724026e+003;5.089325e-002
3.725955e+003;5.081849e-002
3.727883e+003;5.121960e-002
3.729812e+003;5.138662e-002
3.731740e+003;5.134246e-002
3.733669e+003;5.094098e-002
3.735597e+003;5.023912e-002
3.737526e+003;5.055371e-002
3.739455e+003;5.121878e-002
3.741383e+003;5.112962e-002
3.743312e+003;4.991693e-002
3.745240e+003;4.981186e-002
3.747169e+003;5.000893e-002
3.749097e+003;4.931924e-002
3.751026e+003;4.934374e-002
3.752954e+003;4.944346e-002
3.754883e+003;4.978132e-002
3.756812e+003;5.000351e-002
3.758740e+003;4.973405e-002
3.760668e+003;4.966514e-002
3.762597e+003;4.998336e-002
3.764526e+003;4.983208e-002
3.766454e+003;4.979696e-002
3.768383e+003;4.945805e-002
3.770311e+003;4.941442e-002
3.772240e+003;4.963345e-002
3.774168e+003;4.970753e-002
3.776097e+003;4.951052e-002
3.778025e+003;4.929912e-002
3.779954e+003;4.961213e-002
3.781883e+003;5.031036e-002
3.783811e+003;5.082184e-002
3.785740e+003;5.055929e-002
3.787668e+003;4.976501e-002
3.789597e+003;4.965005e-002
3.791525e+003;5.021532e-002
3.793454e+003;5.065642e-002
3.795382e+003;5.029656e-002
3.797311e+003;4.964200e-002
3.799240e+003;4.929084e-002
3.801168e+003;4.898845e-002
3.803097e+003;4.958383e-002
3.805025e+003;4.984653e-002
3.806954e+003;4.945872e-002
3.808882e+003;4.963906e-002
3.810811e+003;5.023310e-002
3.812739e+003;5.040119e-002
3.814668e+003;4.944323e-002
3.816596e+003;4.919591e-002
3.818525e+003;4.963925e-002
3.820454e+003;4.924334e-002
3.822382e+003;4.925655e-002
3.824311e+003;4.999748e-002
3.826239e+003;5.013532e-002
3.828168e+003;5.005344e-002
3.830096e+003;5.003280e-002
3.832025e+003;5.004544e-002
3.833953e+003;5.028071e-002
3.835882e+003;5.034809e-002
3.837811e+003;5.038597e-002
3.839739e+003;5.039698e-002
3.841667e+003;5.028860e-002
3.843596e+003;5.040029e-002
3.845525e+003;5.091434e-002
3.847453e+003;5.107740e-002
3.849382e+003;5.053204e-002
3.851310e+003;4.980402e-002
3.853239e+003;4.948174e-002
3.855167e+003;5.027803e-002
3.857096e+003;5.082739e-002
3.859024e+003;5.053882e-002
3.860953e+003;5.055400e-002
3.862882e+003;5.093554e-002
3.864810e+003;5.143071e-002
3.866739e+003;5.164590e-002
3.868667e+003;5.129977e-002
3.870596e+003;5.115496e-002
3.872524e+003;5.133456e-002
3.874453e+003;5.154866e-002
3.876381e+003;5.215802e-002
3.878310e+003;5.252511e-002
3.880239e+003;5.229034e-002
3.882167e+003;5.197547e-002
3.884096e+003;5.192711e-002
3.886024e+003;5.181036e-002
3.887953e+003;5.228395e-002
3.889881e+003;5.266334e-002
3.891810e+003;5.301937e-002
3.893738e+003;5.375861e-002
3.895667e+003;5.376282e-002
3.897595e+003;5.281569e-002
3.899524e+003;5.217891e-002
3.901453e+003;5.236573e-002
3.903381e+003;5.275758e-002
3.905310e+003;5.303280e-002
3.907238e+003;5.324558e-002
3.909167e+003;5.365572e-002
3.911095e+003;5.375535e-002
3.913024e+003;5.361651e-002
3.914952e+003;5.351182e-002
3.916881e+003;5.371583e-002
3.918810e+003;5.420551e-002
3.920738e+003;5.420922e-002
3.922667e+003;5.410548e-002
3.924595e+003;5.426227e-002
3.926524e+003;5.439907e-002
3.928452e+003;5.433320e-002
3.930381e+003;5.414680e-002
3.932309e+003;5.405527e-002
3.934238e+003;5.431191e-002
3.936167e+003;5.475463e-002
3.938095e+003;5.525794e-002
3.940023e+003;5.516730e-002
3.941952e+003;5.485286e-002
3.943881e+003;5.509632e-002
3.945809e+003;5.543420e-002
3.947738e+003;5.535391e-002
3.949666e+003;5.534247e-002
3.951595e+003;5.543849e-002
3.953523e+003;5.537710e-002
3.955452e+003;5.551767e-002
3.957380e+003;5.577299e-002
3.959309e+003;5.549116e-002
3.961238e+003;5.559682e-002
3.963166e+003;5.585591e-002
3.965095e+003;5.580569e-002
3.967023e+003;5.615016e-002
3.968952e+003;5.634322e-002
3.970880e+003;5.597832e-002
3.972809e+003;5.597651e-002
3.974737e+003;5.655351e-002
3.976666e+003;5.661379e-002
3.978594e+003;5.631369e-002
3.980523e+003;5.655834e-002
3.982452e+003;5.661187e-002
3.984380e+003;5.628566e-002
3.986309e+003;5.601255e-002
3.988237e+003;5.585479e-002
3.990166e+003;5.623429e-002
3.992094e+003;5.661537e-002
3.994023e+003;5.658997e-002
3.995951e+003;5.670870e-002
3.997880e+003;5.663652e-002
3.999809e+003;5.631252e-002
4.001737e+003;0.000000e+000
