3.992094e+002;0.000000e+000
4.011380e+002;0.000000e+000
4.030665e+002;0.000000e+000
4.049951e+002;0.000000e+000
4.069236e+002;0.000000e+000
4.088522e+002;0.000000e+000
4.107807e+002;0.000000e+000
4.127093e+002;0.000000e+000
4.146378e+002;0.000000e+000
4.165664e+002;0.000000e+000
4.184949e+002;0.000000e+000
4.204235e+002;0.000000e+000
4.223520e+002;0.000000e+000
4.242806e+002;0.000000e+000
4.262091e+002;0.000000e+000
4.281377e+002;0.000000e+000
4.300662e+002;0.000000e+000
4.319948e+002;0.000000e+000
4.339233e+002;0.000000e+000
4.358519e+002;0.000000e+000
4.377804e+002;0.000000e+000
4.397090e+002;0.000000e+000
4.416375e+002;0.000000e+000
4.435660e+002;0.000000e+000
4.454946e+002;0.000000e+000
4.474232e+002;0.000000e+000
4.493517e+002;0.000000e+000
4.512802e+002;0.000000e+000
4.532088e+002;0.000000e+000
4.551373e+002;0.000000e+000
4.570659e+002;0.000000e+000
4.589944e+002;0.000000e+000
4.609230e+002;0.000000e+000
4.628515e+002;0.000000e+000
4.647801e+002;0.000000e+000
4.667086e+002;0.000000e+000
4.686372e+002;0.000000e+000
4.705657e+002;0.000000e+000
4.724943e+002;0.000000e+000
4.744228e+002;0.000000e+000
4.763513e+002;0.000000e+000
4.782799e+002;0.000000e+000
4.802085e+002;0.000000e+000
4.821370e+002;0.000000e+000
4.840656e+002;0.000000e+000
4.859941e+002;0.000000e+000
4.879226e+002;0.000000e+000
4.898512e+002;0.000000e+000
4.917798e+002;0.000000e+000
4.937083e+002;0.000000e+000
4.956368e+002;0.000000e+000
4.975654e+002;0.000000e+000
4.994939e+002;0.000000e+000
5.014225e+002;0.000000e+000
5.033510e+002;0.000000e+000
5.052796e+002;0.000000e+000
5.072081e+002;0.000000e+000
5.091367e+002;0.000000e+000
5.110652e+002;0.000000e+000
5.129938e+002;0.000000e+000
5.149223e+002;0.000000e+000
5.168509e+002;0.000000e+000
5.187794e+002;0.000000e+000
5.207079e+002;0.000000e+000
5.226365e+002;0.000000e+000
5.245651e+002;0.000000e+000
5.264936e+002;0.000000e+000
5.284222e+002;0.000000e+000
5.303507e+002;0.000000e+000
5.322792e+002;0.000000e+000
5.342078e+002;0.000000e+000
5.361364e+002;0.000000e+000
5.380649e+002;0.000000e+000
5.399935e+002;0.000000e+000
5.419220e+002;0.000000e+000
5.438505e+002;0.000000e+000
5.457791e+002;0.000000e+000
5.477076e+002;0.000000e+000
5.496362e+002;0.000000e+000
5.515648e+002;0.000000e+000
5.534933e+002;0.000000e+000
5.554218e+002;0.000000e+000
5.573504e+002;0.000000e+000
5.592789e+002;0.000000e+000
5.612075e+002;0.000000e+000
5.631360e+002;0.000000e+000
5.650646e+002;0.000000e+000
5.669931e+002;0.000000e+000
5.689217e+002;0.000000e+000
5.708502e+002;0.000000e+000
5.727787e+002;0.000000e+000
5.747073e+002;0.000000e+000
5.766359e+002;0.000000e+000
5.785644e+002;0.000000e+000
5.804930e+002;0.000000e+000
5.824215e+002;0.000000e+000
5.843500e+002;0.000000e+000
5.862786e+002;0.000000e+000
5.882072e+002;0.000000e+000
5.901357e+002;0.000000e+000
5.920643e+002;0.000000e+000
5.939928e+002;0.000000e+000
5.959213e+002;0.000000e+000
5.978499e+002;0.000000e+000
5.997784e+002;2.499205e-001
6.017070e+002;2.472364e-001
6.036355e+002;2.541107e-001
6.055641e+002;2.525900e-001
6.074926e+002;2.542349e-001
6.094211e+002;2.557262e-001
6.113497e+002;2.526834e-001
6.132783e+002;2.526225e-001
6.152068e+002;2.530638e-001
6.171354e+002;2.556901e-001
6.190639e+002;2.578289e-001
6.209924e+002;2.541151e-001
6.229210e+002;2.514281e-001
6.248495e+002;2.491647e-001
6.267781e+002;2.473882e-001
6.287067e+002;2.453226e-001
6.306352e+002;2.463228e-001
6.325637e+002;2.490436e-001
6.344923e+002;2.446073e-001
6.364208e+002;2.398248e-001
6.383494e+002;2.407344e-001
6.402780e+002;2.390646e-001
6.422065e+002;2.351178e-001
6.441350e+002;2.348608e-001
6.460636e+002;2.362004e-001
6.479921e+002;2.364720e-001
6.499207e+002;2.357985e-001
6.518492e+002;2.344714e-001
6.537778e+002;2.347920e-001
6.557063e+002;2.345484e-001
6.576349e+002;2.333280e-001
6.595634e+002;2.346445e-001
6.614919e+002;2.354878e-001
6.634205e+002;2.349980e-001
6.653491e+002;2.334665e-001
6.672776e+002;2.310973e-001
6.692062e+002;2.314769e-001
6.711347e+002;2.343425e-001
6.730632e+002;2.365687e-001
6.749918e+002;2.350849e-001
6.769203e+002;2.317289e-001
6.788489e+002;2.299738e-001
6.807775e+002;2.304639e-001
6.827060e+002;2.328734e-001
6.846345e+002;2.337636e-001
6.865631e+002;2.329790e-001
6.884916e+002;2.316783e-001
6.904202e+002;2.305983e-001
6.923488e+002;2.302125e-001
6.942773e+002;2.285158e-001
6.962058e+002;2.263989e-001
6.981344e+002;2.252398e-001
7.000629e+002;2.240997e-001
7.019915e+002;2.211904e-001
7.039200e+002;2.187167e-001
7.058486e+002;2.167961e-001
7.077771e+002;2.137847e-001
7.097057e+002;2.113274e-001
7.116342e+002;2.083350e-001
7.135627e+002;2.047783e-001
7.154913e+002;2.024096e-001
7.174199e+002;2.008849e-001
7.193484e+002;2.000153e-001
7.212770e+002;1.971512e-001
7.232055e+002;1.934843e-001
7.251340e+002;1.911955e-001
7.270626e+002;1.887361e-001
7.289911e+002;1.853934e-001
7.309197e+002;1.823725e-001
7.328483e+002;1.795226e-001
7.347768e+002;1.765853e-001
7.367053e+002;1.737137e-001
7.386339e+002;1.708578e-001
7.405624e+002;1.685355e-001
7.424910e+002;1.652840e-001
7.444196e+002;1.618913e-001
7.463481e+002;1.589757e-001
7.482766e+002;1.572086e-001
7.502052e+002;1.554131e-001
7.521337e+002;1.526415e-001
7.540623e+002;1.510791e-001
7.559908e+002;1.496535e-001
7.579194e+002;1.479660e-001
7.598479e+002;1.470116e-001
7.617765e+002;1.457903e-001
7.637050e+002;1.439762e-001
7.656335e+002;1.423877e-001
7.675621e+002;1.414966e-001
7.694907e+002;1.400719e-001
7.714192e+002;1.378694e-001
7.733478e+002;1.358486e-001
7.752763e+002;1.345397e-001
7.772048e+002;1.339208e-001
7.791334e+002;1.324050e-001
7.810620e+002;1.302314e-001
7.829905e+002;1.289241e-001
7.849191e+002;1.282754e-001
7.868476e+002;1.266602e-001
7.887761e+002;1.250617e-001
7.907047e+002;1.240157e-001
7.926332e+002;1.228201e-001
7.945618e+002;1.213488e-001
7.964903e+002;1.207973e-001
7.984189e+002;1.208365e-001
8.003474e+002;1.202545e-001
8.022759e+002;1.202689e-001
8.042045e+002;1.205094e-001
8.061331e+002;1.207130e-001
8.080616e+002;1.211093e-001
8.099902e+002;1.209215e-001
8.119187e+002;1.208659e-001
8.138472e+002;1.205393e-001
8.157758e+002;1.201512e-001
8.177043e+002;1.201784e-001
8.196329e+002;1.210856e-001
8.215615e+002;1.219213e-001
8.234900e+002;1.222734e-001
8.254185e+002;1.222752e-001
8.273471e+002;1.219239e-001
8.292756e+002;1.215906e-001
8.312042e+002;1.206232e-001
8.331328e+002;1.193525e-001
8.350613e+002;1.179669e-001
8.369898e+002;1.162190e-001
8.389184e+002;1.151537e-001
8.408469e+002;1.143322e-001
8.427755e+002;1.133751e-001
8.447040e+002;1.134621e-001
8.466326e+002;1.142769e-001
8.485611e+002;1.148484e-001
8.504897e+002;1.151054e-001
8.524182e+002;1.149939e-001
8.543467e+002;1.137970e-001
8.562753e+002;1.119692e-001
8.582039e+002;1.101584e-001
8.601324e+002;1.084625e-001
8.620610e+002;1.069441e-001
8.639895e+002;1.056975e-001
8.659180e+002;1.047149e-001
8.678466e+002;1.046105e-001
8.697751e+002;1.048994e-001
8.717037e+002;1.047243e-001
8.736323e+002;1.051325e-001
8.755608e+002;1.052996e-001
8.774893e+002;1.050047e-001
8.794179e+002;1.048924e-001
8.813464e+002;1.046811e-001
8.832750e+002;1.047399e-001
8.852036e+002;1.047057e-001
8.871321e+002;1.043013e-001
8.890606e+002;1.044108e-001
8.909892e+002;1.048093e-001
8.929177e+002;1.045053e-001
8.948463e+002;1.042641e-001
8.967748e+002;1.042983e-001
8.987034e+002;1.040980e-001
9.006319e+002;1.038165e-001
9.025605e+002;1.033075e-001
9.044890e+002;1.030337e-001
9.064175e+002;1.031420e-001
9.083461e+002;1.031237e-001
9.102747e+002;1.036904e-001
9.122032e+002;1.048752e-001
9.141318e+002;1.059396e-001
9.160603e+002;1.069577e-001
9.179888e+002;1.080666e-001
9.199174e+002;1.091133e-001
9.218459e+002;1.106280e-001
9.237745e+002;1.121845e-001
9.257031e+002;1.130339e-001
9.276316e+002;1.138444e-001
9.295601e+002;1.145645e-001
9.314887e+002;1.146279e-001
9.334172e+002;1.146382e-001
9.353458e+002;1.148885e-001
9.372744e+002;1.150498e-001
9.392029e+002;1.152177e-001
9.411314e+002;1.156098e-001
9.430600e+002;1.160643e-001
9.449885e+002;1.165567e-001
9.469171e+002;1.171592e-001
9.488456e+002;1.177968e-001
9.507742e+002;1.187238e-001
9.527027e+002;1.195872e-001
9.546313e+002;1.203586e-001
9.565598e+002;1.214188e-001
9.584883e+002;1.227899e-001
9.604169e+002;1.239611e-001
9.623455e+002;1.248700e-001
9.642740e+002;1.262596e-001
9.662026e+002;1.280730e-001
9.681311e+002;1.301389e-001
9.700596e+002;1.321215e-001
9.719882e+002;1.337283e-001
9.739167e+002;1.347732e-001
9.758453e+002;1.349818e-001
9.777739e+002;1.346304e-001
9.797024e+002;1.340885e-001
9.816309e+002;1.334067e-001
9.835595e+002;1.328070e-001
9.854880e+002;1.330023e-001
9.874166e+002;1.344173e-001
9.893452e+002;1.366266e-001
9.912737e+002;1.390995e-001
9.932022e+002;1.411511e-001
9.951307e+002;1.418872e-001
9.970593e+002;1.420018e-001
9.989879e+002;1.420208e-001
1.000916e+003;1.415372e-001
1.002845e+003;1.408305e-001
1.004773e+003;1.400329e-001
1.006702e+003;1.395911e-001
1.008631e+003;1.397132e-001
1.010559e+003;1.392438e-001
1.012488e+003;1.382349e-001
1.014416e+003;1.374598e-001
1.016345e+003;1.370311e-001
1.018273e+003;1.366708e-001
1.020202e+003;1.367079e-001
1.022130e+003;1.379196e-001
1.024059e+003;1.403296e-001
1.025988e+003;1.433235e-001
1.027916e+003;1.465721e-001
1.029845e+003;1.495918e-001
1.031773e+003;1.519350e-001
1.033702e+003;1.540366e-001
1.035630e+003;1.555305e-001
1.037559e+003;1.570938e-001
1.039487e+003;1.585306e-001
1.041416e+003;1.597085e-001
1.043344e+003;1.603531e-001
1.045273e+003;1.602814e-001
1.047202e+003;1.607025e-001
1.049130e+003;1.615524e-001
1.051059e+003;1.621930e-001
1.052987e+003;1.634823e-001
1.054916e+003;1.654814e-001
1.056844e+003;1.673896e-001
1.058773e+003;1.691831e-001
1.060701e+003;1.707833e-001
1.062630e+003;1.719403e-001
1.064558e+003;1.731392e-001
1.066487e+003;1.737192e-001
1.068416e+003;1.733772e-001
1.070344e+003;1.724107e-001
1.072273e+003;1.709623e-001
1.074201e+003;1.695586e-001
1.076130e+003;1.675375e-001
1.078058e+003;1.646788e-001
1.079987e+003;1.618441e-001
1.081915e+003;1.590943e-001
1.083844e+003;1.566858e-001
1.085773e+003;1.539430e-001
1.087701e+003;1.512145e-001
1.089630e+003;1.490662e-001
1.091558e+003;1.476814e-001
1.093487e+003;1.469947e-001
1.095415e+003;1.465846e-001
1.097344e+003;1.465335e-001
1.099272e+003;1.467719e-001
1.101201e+003;1.468547e-001
1.103129e+003;1.466647e-001
1.105058e+003;1.463268e-001
1.106987e+003;1.459736e-001
1.108915e+003;1.449969e-001
1.110844e+003;1.439802e-001
1.112772e+003;1.433152e-001
1.114701e+003;1.428518e-001
1.116629e+003;1.426854e-001
1.118558e+003;1.425911e-001
1.120486e+003;1.427009e-001
1.122415e+003;1.428590e-001
1.124344e+003;1.429473e-001
1.126272e+003;1.430867e-001
1.128201e+003;1.432598e-001
1.130129e+003;1.438706e-001
1.132058e+003;1.445977e-001
1.133986e+003;1.453186e-001
1.135915e+003;1.462439e-001
1.137843e+003;1.477196e-001
1.139772e+003;1.493566e-001
1.141700e+003;1.509110e-001
1.143629e+003;1.523142e-001
1.145557e+003;1.541254e-001
1.147486e+003;1.557925e-001
1.149415e+003;1.569975e-001
1.151343e+003;1.584896e-001
1.153272e+003;1.601255e-001
1.155200e+003;1.615928e-001
1.157129e+003;1.631605e-001
1.159057e+003;1.644930e-001
1.160986e+003;1.654291e-001
1.162914e+003;1.660831e-001
1.164843e+003;1.666108e-001
1.166771e+003;1.672737e-001
1.168700e+003;1.681608e-001
1.170629e+003;1.687169e-001
1.172557e+003;1.682779e-001
1.174486e+003;1.666146e-001
1.176414e+003;1.645321e-001
1.178343e+003;1.629463e-001
1.180271e+003;1.617720e-001
1.182200e+003;1.610142e-001
1.184128e+003;1.611848e-001
1.186057e+003;1.619549e-001
1.187986e+003;1.626089e-001
1.189914e+003;1.637366e-001
1.191843e+003;1.658333e-001
1.193771e+003;1.680550e-001
1.195700e+003;1.706789e-001
1.197628e+003;1.739487e-001
1.199557e+003;1.773527e-001
1.201485e+003;1.811534e-001
1.203414e+003;1.856518e-001
1.205343e+003;1.903578e-001
1.207271e+003;1.950750e-001
1.209200e+003;1.997015e-001
1.211128e+003;2.041505e-001
1.213057e+003;2.084287e-001
1.214985e+003;2.125393e-001
1.216914e+003;2.163314e-001
1.218842e+003;2.194943e-001
1.220771e+003;2.224387e-001
1.222699e+003;2.251827e-001
1.224628e+003;2.274838e-001
1.226557e+003;2.292429e-001
1.228485e+003;2.297467e-001
1.230414e+003;2.293997e-001
1.232342e+003;2.284909e-001
1.234271e+003;2.271429e-001
1.236199e+003;2.257394e-001
1.238128e+003;2.234879e-001
1.240056e+003;2.209137e-001
1.241985e+003;2.188185e-001
1.243913e+003;2.169002e-001
1.245842e+003;2.155351e-001
1.247771e+003;2.144060e-001
1.249699e+003;2.129951e-001
1.251628e+003;2.121199e-001
1.253556e+003;2.117720e-001
1.255485e+003;2.112051e-001
1.257413e+003;2.105703e-001
1.259342e+003;2.093687e-001
1.261270e+003;2.073840e-001
1.263199e+003;2.048480e-001
1.265127e+003;2.021739e-001
1.267056e+003;1.987305e-001
1.268985e+003;1.948649e-001
1.270913e+003;1.912848e-001
1.272842e+003;1.879698e-001
1.274770e+003;1.845734e-001
1.276699e+003;1.818891e-001
1.278627e+003;1.798419e-001
1.280556e+003;1.777484e-001
1.282484e+003;1.759109e-001
1.284413e+003;1.746638e-001
1.286342e+003;1.736208e-001
1.288270e+003;1.727322e-001
1.290199e+003;1.720458e-001
1.292127e+003;1.715698e-001
1.294056e+003;1.713979e-001
1.295984e+003;1.713496e-001
1.297913e+003;1.714462e-001
1.299841e+003;1.715708e-001
1.301770e+003;1.716116e-001
1.303698e+003;1.713861e-001
1.305627e+003;1.708725e-001
1.307556e+003;1.706085e-001
1.309484e+003;1.703984e-001
1.311413e+003;1.700278e-001
1.313341e+003;1.697714e-001
1.315270e+003;1.695251e-001
1.317198e+003;1.692815e-001
1.319127e+003;1.691983e-001
1.321055e+003;1.695804e-001
1.322984e+003;1.704313e-001
1.324912e+003;1.713347e-001
1.326841e+003;1.722476e-001
1.328770e+003;1.731658e-001
1.330698e+003;1.738131e-001
1.332627e+003;1.739609e-001
1.334555e+003;1.738602e-001
1.336484e+003;1.738309e-001
1.338412e+003;1.739047e-001
1.340341e+003;1.736910e-001
1.342269e+003;1.735047e-001
1.344198e+003;1.736481e-001
1.346126e+003;1.736671e-001
1.348055e+003;1.736822e-001
1.349984e+003;1.738439e-001
1.351912e+003;1.739163e-001
1.353841e+003;1.742561e-001
1.355769e+003;1.753804e-001
1.357698e+003;1.770300e-001
1.359626e+003;1.790738e-001
1.361555e+003;1.815967e-001
1.363483e+003;1.845144e-001
1.365412e+003;1.873042e-001
1.367341e+003;1.892554e-001
1.369269e+003;1.898264e-001
1.371198e+003;1.896792e-001
1.373126e+003;1.891385e-001
1.375055e+003;1.884747e-001
1.376983e+003;1.881546e-001
1.378912e+003;1.880347e-001
1.380840e+003;1.882420e-001
1.382769e+003;1.885823e-001
1.384698e+003;1.888195e-001
1.386626e+003;1.891830e-001
1.388555e+003;1.898680e-001
1.390483e+003;1.904256e-001
1.392412e+003;1.904655e-001
1.394340e+003;1.904564e-001
1.396269e+003;1.912756e-001
1.398197e+003;1.921745e-001
1.400126e+003;1.927659e-001
1.402054e+003;1.936375e-001
1.403983e+003;1.949311e-001
1.405911e+003;1.961886e-001
1.407840e+003;1.971208e-001
1.409769e+003;1.973834e-001
1.411697e+003;1.972914e-001
1.413626e+003;1.973461e-001
1.415554e+003;1.976335e-001
1.417483e+003;1.976054e-001
1.419411e+003;1.977690e-001
1.421340e+003;1.991979e-001
1.423268e+003;2.012478e-001
1.425197e+003;2.037143e-001
1.427125e+003;2.071882e-001
1.429054e+003;2.116214e-001
1.430983e+003;2.169253e-001
1.432911e+003;2.231941e-001
1.434840e+003;2.293209e-001
1.436768e+003;2.341439e-001
1.438697e+003;2.378507e-001
1.440625e+003;2.402123e-001
1.442554e+003;2.415765e-001
1.444482e+003;2.418256e-001
1.446411e+003;2.406775e-001
1.448340e+003;2.384605e-001
1.450268e+003;2.347823e-001
1.452197e+003;2.299634e-001
1.454125e+003;2.244769e-001
1.456054e+003;2.185622e-001
1.457982e+003;2.140501e-001
1.459911e+003;2.114748e-001
1.461839e+003;2.099127e-001
1.463768e+003;2.089926e-001
1.465697e+003;2.090755e-001
1.467625e+003;2.096198e-001
1.469554e+003;2.101698e-001
1.471482e+003;2.108767e-001
1.473411e+003;2.123395e-001
1.475339e+003;2.148877e-001
1.477268e+003;2.180374e-001
1.479196e+003;2.219675e-001
1.481125e+003;2.265504e-001
1.483053e+003;2.320132e-001
1.484982e+003;2.382507e-001
1.486911e+003;2.450673e-001
1.488839e+003;2.526297e-001
1.490768e+003;2.605005e-001
1.492696e+003;2.687914e-001
1.494625e+003;2.772336e-001
1.496553e+003;2.854853e-001
1.498482e+003;2.939180e-001
1.500410e+003;3.017172e-001
1.502339e+003;3.090240e-001
1.504267e+003;3.156261e-001
1.506196e+003;3.214393e-001
1.508125e+003;3.275966e-001
1.510053e+003;3.329850e-001
1.511982e+003;3.367251e-001
1.513910e+003;3.387054e-001
1.515839e+003;3.372332e-001
1.517767e+003;3.320221e-001
1.519696e+003;3.249181e-001
1.521624e+003;3.179418e-001
1.523553e+003;3.124645e-001
1.525481e+003;3.076268e-001
1.527410e+003;3.029995e-001
1.529339e+003;2.983371e-001
1.531267e+003;2.936175e-001
1.533196e+003;2.884045e-001
1.535124e+003;2.831011e-001
1.537053e+003;2.774844e-001
1.538981e+003;2.714541e-001
1.540910e+003;2.663883e-001
1.542838e+003;2.619536e-001
1.544767e+003;2.575044e-001
1.546695e+003;2.526489e-001
1.548624e+003;2.475814e-001
1.550553e+003;2.427856e-001
1.552481e+003;2.380278e-001
1.554410e+003;2.329089e-001
1.556338e+003;2.276425e-001
1.558267e+003;2.217308e-001
1.560195e+003;2.164211e-001
1.562124e+003;2.119928e-001
1.564052e+003;2.073357e-001
1.565981e+003;2.025127e-001
1.567910e+003;1.979879e-001
1.569838e+003;1.939139e-001
1.571767e+003;1.905404e-001
1.573695e+003;1.877945e-001
1.575624e+003;1.855059e-001
1.577552e+003;1.844973e-001
1.579481e+003;1.845344e-001
1.581409e+003;1.850562e-001
1.583338e+003;1.865801e-001
1.585266e+003;1.889015e-001
1.587195e+003;1.921323e-001
1.589124e+003;1.964041e-001
1.591052e+003;2.016283e-001
1.592981e+003;2.076070e-001
1.594909e+003;2.140893e-001
1.596838e+003;2.209711e-001
1.598766e+003;2.284940e-001
1.600695e+003;2.372274e-001
1.602623e+003;2.476255e-001
1.604552e+003;2.594905e-001
1.606480e+003;2.719639e-001
1.608409e+003;2.846787e-001
1.610338e+003;2.974242e-001
1.612266e+003;3.093411e-001
1.614195e+003;3.199933e-001
1.616123e+003;3.293386e-001
1.618052e+003;3.368864e-001
1.619980e+003;3.419181e-001
1.621909e+003;3.438100e-001
1.623837e+003;3.431636e-001
1.625766e+003;3.404647e-001
1.627694e+003;3.356000e-001
1.629623e+003;3.293203e-001
1.631552e+003;3.217465e-001
1.633480e+003;3.133827e-001
1.635409e+003;3.046949e-001
1.637337e+003;2.971073e-001
1.639266e+003;2.900364e-001
1.641194e+003;2.829634e-001
1.643123e+003;2.765235e-001
1.645051e+003;2.698185e-001
1.646980e+003;2.628940e-001
1.648909e+003;2.570848e-001
1.650837e+003;2.512619e-001
1.652766e+003;2.444039e-001
1.654694e+003;2.383442e-001
1.656623e+003;2.326435e-001
1.658551e+003;2.265563e-001
1.660480e+003;2.204719e-001
1.662408e+003;2.141470e-001
1.664337e+003;2.081764e-001
1.666266e+003;2.028124e-001
1.668194e+003;1.973754e-001
1.670123e+003;1.921241e-001
1.672051e+003;1.873787e-001
1.673980e+003;1.824633e-001
1.675908e+003;1.776651e-001
1.677837e+003;1.733314e-001
1.679765e+003;1.690763e-001
1.681694e+003;1.647367e-001
1.683622e+003;1.602580e-001
1.685551e+003;1.568067e-001
1.687479e+003;1.543788e-001
1.689408e+003;1.518148e-001
1.691337e+003;1.497315e-001
1.693265e+003;1.483541e-001
1.695194e+003;1.470314e-001
1.697122e+003;1.459737e-001
1.699051e+003;1.430830e-001
1.700979e+003;1.369720e-001
1.702908e+003;1.283043e-001
1.704836e+003;1.174195e-001
1.706765e+003;1.070292e-001
1.708693e+003;9.856369e-002
1.710622e+003;9.188174e-002
1.712551e+003;8.663952e-002
1.714479e+003;8.235086e-002
1.716408e+003;7.873574e-002
1.718336e+003;7.629431e-002
1.720265e+003;7.477986e-002
1.722193e+003;7.334830e-002
1.724122e+003;7.186780e-002
1.726050e+003;7.065167e-002
1.727979e+003;6.960752e-002
1.729908e+003;6.851166e-002
1.731836e+003;6.727418e-002
1.733765e+003;6.609798e-002
1.735693e+003;6.559033e-002
1.737622e+003;6.502622e-002
1.739550e+003;6.393337e-002
1.741479e+003;6.336255e-002
1.743407e+003;6.302963e-002
1.745336e+003;6.264755e-002
1.747265e+003;6.207991e-002
1.749193e+003;6.152718e-002
1.751122e+003;6.145606e-002
1.753050e+003;6.152195e-002
1.754979e+003;6.124022e-002
1.756907e+003;6.104374e-002
1.758836e+003;6.088997e-002
1.760764e+003;6.064409e-002
1.762693e+003;6.045927e-002
1.764621e+003;6.052538e-002
1.766550e+003;6.040980e-002
1.768479e+003;6.031480e-002
1.770407e+003;6.011095e-002
1.772336e+003;5.947916e-002
1.774264e+003;5.944044e-002
1.776193e+003;5.977541e-002
1.778121e+003;5.965391e-002
1.780050e+003;5.937069e-002
1.781978e+003;5.930448e-002
1.783907e+003;5.921018e-002
1.785835e+003;5.906568e-002
1.787764e+003;5.889508e-002
1.789693e+003;5.856784e-002
1.791621e+003;5.823107e-002
1.793550e+003;5.809318e-002
1.795478e+003;5.816394e-002
1.797407e+003;5.808424e-002
1.799335e+003;5.787889e-002
1.801264e+003;5.747544e-002
1.803192e+003;5.741572e-002
1.805121e+003;5.746220e-002
1.807049e+003;5.722781e-002
1.808978e+003;5.690844e-002
1.810907e+003;5.661579e-002
1.812835e+003;5.652808e-002
1.814764e+003;5.666947e-002
1.816692e+003;5.649517e-002
1.818621e+003;5.630049e-002
1.820549e+003;5.594335e-002
1.822478e+003;5.555551e-002
1.824406e+003;5.521091e-002
1.826335e+003;5.510316e-002
1.828264e+003;5.501511e-002
1.830192e+003;5.458658e-002
1.832121e+003;5.420453e-002
1.834049e+003;5.409433e-002
1.835978e+003;5.404596e-002
1.837906e+003;5.415044e-002
1.839835e+003;5.419717e-002
1.841763e+003;5.398139e-002
1.843692e+003;5.357442e-002
1.845620e+003;5.346831e-002
1.847549e+003;5.347311e-002
1.849478e+003;5.349619e-002
1.851406e+003;5.332334e-002
1.853335e+003;5.312334e-002
1.855263e+003;5.297377e-002
1.857192e+003;5.289742e-002
1.859120e+003;5.294503e-002
1.861049e+003;5.294914e-002
1.862977e+003;5.298635e-002
1.864906e+003;5.301592e-002
1.866834e+003;5.305486e-002
1.868763e+003;5.309013e-002
1.870692e+003;5.307796e-002
1.872620e+003;5.297624e-002
1.874549e+003;5.292219e-002
1.876477e+003;5.298792e-002
1.878406e+003;5.310409e-002
1.880334e+003;5.307526e-002
1.882263e+003;5.284850e-002
1.884191e+003;5.263278e-002
1.886120e+003;5.257115e-002
1.888048e+003;5.254732e-002
1.889977e+003;5.254538e-002
1.891906e+003;5.251064e-002
1.893834e+003;5.234910e-002
1.895763e+003;5.238326e-002
1.897691e+003;5.247549e-002
1.899620e+003;5.247748e-002
1.901548e+003;5.231344e-002
1.903477e+003;5.232349e-002
1.905405e+003;5.228104e-002
1.907334e+003;5.212941e-002
1.909262e+003;5.207419e-002
1.911191e+003;5.205537e-002
1.913120e+003;5.198481e-002
1.915048e+003;5.188544e-002
1.916977e+003;5.178669e-002
1.918905e+003;5.190101e-002
1.920834e+003;5.193118e-002
1.922762e+003;5.196188e-002
1.924691e+003;5.193914e-002
1.926619e+003;5.181364e-002
1.928548e+003;5.174264e-002
1.930477e+003;5.198892e-002
1.932405e+003;5.234503e-002
1.934334e+003;5.238125e-002
1.936262e+003;5.219165e-002
1.938191e+003;5.211230e-002
1.940119e+003;5.204760e-002
1.942048e+003;5.199624e-002
1.943976e+003;5.204928e-002
1.945905e+003;5.198537e-002
1.947833e+003;5.219644e-002
1.949762e+003;5.240640e-002
1.951691e+003;5.230585e-002
1.953619e+003;5.214506e-002
1.955548e+003;5.200244e-002
1.957476e+003;5.212735e-002
1.959405e+003;5.228462e-002
1.961333e+003;5.249217e-002
1.963262e+003;5.247995e-002
1.965190e+003;5.235818e-002
1.967119e+003;5.237220e-002
1.969047e+003;5.231135e-002
1.970976e+003;5.227726e-002
1.972905e+003;5.227824e-002
1.974833e+003;5.218137e-002
1.976762e+003;5.229871e-002
1.978690e+003;5.256266e-002
1.980619e+003;5.247445e-002
1.982547e+003;5.237725e-002
1.984476e+003;5.244532e-002
1.986404e+003;5.256082e-002
1.988333e+003;5.264314e-002
1.990261e+003;5.259362e-002
1.992190e+003;5.242925e-002
1.994119e+003;5.226190e-002
1.996047e+003;5.218153e-002
1.997976e+003;5.228679e-002
1.999904e+003;5.237126e-002
2.001833e+003;5.219576e-002
2.003761e+003;5.207509e-002
2.005690e+003;5.218014e-002
2.007618e+003;5.220406e-002
2.009547e+003;5.212302e-002
2.011476e+003;5.209108e-002
2.013404e+003;5.212249e-002
2.015333e+003;5.218485e-002
2.017261e+003;5.226575e-002
2.019190e+003;5.221952e-002
2.021118e+003;5.214088e-002
2.023047e+003;5.219315e-002
2.024975e+003;5.231053e-002
2.026904e+003;5.239833e-002
2.028833e+003;5.236727e-002
2.030761e+003;5.240360e-002
2.032690e+003;5.214173e-002
2.034618e+003;5.194937e-002
2.036547e+003;5.215907e-002
2.038475e+003;5.228892e-002
2.040404e+003;5.217880e-002
2.042332e+003;5.220634e-002
2.044261e+003;5.236140e-002
2.046189e+003;5.237863e-002
2.048118e+003;5.234831e-002
2.050047e+003;5.237912e-002
2.051975e+003;5.253416e-002
2.053904e+003;5.261932e-002
2.055832e+003;5.266050e-002
2.057761e+003;5.262332e-002
2.059689e+003;5.251569e-002
2.061618e+003;5.250343e-002
2.063546e+003;5.260488e-002
2.065475e+003;5.268276e-002
2.067404e+003;5.269738e-002
2.069332e+003;5.276435e-002
2.071260e+003;5.297834e-002
2.073189e+003;5.305123e-002
2.075118e+003;5.290258e-002
2.077046e+003;5.295318e-002
2.078975e+003;5.313892e-002
2.080903e+003;5.313382e-002
2.082832e+003;5.292724e-002
2.084760e+003;5.286605e-002
2.086689e+003;5.290213e-002
2.088617e+003;5.296179e-002
2.090546e+003;5.304303e-002
2.092475e+003;5.304879e-002
2.094403e+003;5.290535e-002
2.096332e+003;5.281786e-002
2.098260e+003;5.267195e-002
2.100189e+003;5.280016e-002
2.102117e+003;5.308601e-002
2.104046e+003;5.307792e-002
2.105974e+003;5.288855e-002
2.107903e+003;5.283073e-002
2.109832e+003;5.287346e-002
2.111760e+003;5.289472e-002
2.113688e+003;5.290782e-002
2.115617e+003;5.286523e-002
2.117546e+003;5.265971e-002
2.119474e+003;5.236005e-002
2.121403e+003;5.217536e-002
2.123331e+003;5.231400e-002
2.125260e+003;5.243059e-002
2.127188e+003;5.234951e-002
2.129117e+003;5.227252e-002
2.131045e+003;5.223634e-002
2.132974e+003;5.231882e-002
2.134903e+003;5.244312e-002
2.136831e+003;5.259359e-002
2.138760e+003;5.262276e-002
2.140688e+003;5.239343e-002
2.142617e+003;5.205234e-002
2.144545e+003;5.198123e-002
2.146474e+003;5.216628e-002
2.148402e+003;5.230720e-002
2.150331e+003;5.229946e-002
2.152260e+003;5.212918e-002
2.154188e+003;5.212701e-002
2.156117e+003;5.219374e-002
2.158045e+003;5.202436e-002
2.159974e+003;5.188354e-002
2.161902e+003;5.203180e-002
2.163831e+003;5.215377e-002
2.165759e+003;5.202750e-002
2.167688e+003;5.198776e-002
2.169616e+003;5.213105e-002
2.171545e+003;5.216598e-002
2.173474e+003;5.207931e-002
2.175402e+003;5.198806e-002
2.177331e+003;5.189141e-002
2.179259e+003;5.186651e-002
2.181188e+003;5.189589e-002
2.183116e+003;5.194403e-002
2.185045e+003;5.187577e-002
2.186973e+003;5.172290e-002
2.188902e+003;5.162404e-002
2.190831e+003;5.161672e-002
2.192759e+003;5.152184e-002
2.194688e+003;5.155814e-002
2.196616e+003;5.167371e-002
2.198545e+003;5.162586e-002
2.200473e+003;5.150173e-002
2.202402e+003;5.148871e-002
2.204330e+003;5.145298e-002
2.206259e+003;5.138088e-002
2.208188e+003;5.139878e-002
2.210116e+003;5.147924e-002
2.212044e+003;5.143854e-002
2.213973e+003;5.140837e-002
2.215902e+003;5.162695e-002
2.217830e+003;5.165829e-002
2.219759e+003;5.142951e-002
2.221687e+003;5.131095e-002
2.223616e+003;5.131912e-002
2.225544e+003;5.142239e-002
2.227473e+003;5.133911e-002
2.229401e+003;5.116588e-002
2.231330e+003;5.104576e-002
2.233259e+003;5.109518e-002
2.235187e+003;5.115079e-002
2.237116e+003;5.123753e-002
2.239044e+003;5.130987e-002
2.240973e+003;5.135981e-002
2.242901e+003;5.129406e-002
2.244830e+003;5.113107e-002
2.246758e+003;5.133776e-002
2.248687e+003;5.140918e-002
2.250615e+003;5.137088e-002
2.252544e+003;5.139740e-002
2.254473e+003;5.124630e-002
2.256401e+003;5.098934e-002
2.258330e+003;5.086099e-002
2.260258e+003;5.082195e-002
2.262187e+003;5.062339e-002
2.264115e+003;5.045563e-002
2.266044e+003;5.070129e-002
2.267972e+003;5.086740e-002
2.269901e+003;5.089154e-002
2.271830e+003;5.078888e-002
2.273758e+003;5.080419e-002
2.275687e+003;5.086371e-002
2.277615e+003;5.072151e-002
2.279544e+003;5.077201e-002
2.281472e+003;5.088401e-002
2.283401e+003;5.109223e-002
2.285329e+003;5.130245e-002
2.287258e+003;5.127829e-002
2.289187e+003;5.117159e-002
2.291115e+003;5.112182e-002
2.293043e+003;5.089932e-002
2.294972e+003;5.095741e-002
2.296901e+003;5.122784e-002
2.298829e+003;5.119899e-002
2.300758e+003;5.121848e-002
2.302686e+003;5.126688e-002
2.304615e+003;5.111896e-002
2.306543e+003;5.102921e-002
2.308472e+003;5.103197e-002
2.310400e+003;5.094839e-002
2.312329e+003;5.104140e-002
2.314258e+003;5.127889e-002
2.316186e+003;5.125443e-002
2.318115e+003;5.093930e-002
2.320043e+003;5.073067e-002
2.321972e+003;5.074549e-002
2.323900e+003;5.065981e-002
2.325829e+003;5.041526e-002
2.327757e+003;5.028447e-002
2.329686e+003;5.006522e-002
2.331615e+003;4.995165e-002
2.333543e+003;5.012517e-002
2.335472e+003;5.036242e-002
2.337400e+003;5.050588e-002
2.339329e+003;5.047394e-002
2.341257e+003;5.053007e-002
2.343186e+003;5.078404e-002
2.345114e+003;5.100264e-002
2.347043e+003;5.120286e-002
2.348971e+003;5.119108e-002
2.350900e+003;5.107058e-002
2.352829e+003;5.086200e-002
2.354757e+003;5.043821e-002
2.356686e+003;5.005351e-002
2.358614e+003;4.987593e-002
2.360543e+003;4.990384e-002
2.362471e+003;4.988318e-002
2.364400e+003;5.021893e-002
2.366328e+003;5.069559e-002
2.368257e+003;5.080199e-002
2.370186e+003;5.095450e-002
2.372114e+003;5.128056e-002
2.374042e+003;5.158802e-002
2.375971e+003;5.170080e-002
2.377900e+003;5.193245e-002
2.379828e+003;5.204860e-002
2.381757e+003;5.204487e-002
2.383685e+003;5.232331e-002
2.385614e+003;5.265309e-002
2.387542e+003;5.259082e-002
2.389471e+003;5.238457e-002
2.391399e+003;5.249378e-002
2.393328e+003;5.280304e-002
2.395257e+003;5.280240e-002
2.397185e+003;5.254576e-002
2.399114e+003;5.262927e-002
2.401042e+003;5.301671e-002
2.402971e+003;5.342998e-002
2.404899e+003;5.363413e-002
2.406828e+003;5.381693e-002
2.408756e+003;5.415663e-002
2.410685e+003;5.431382e-002
2.412614e+003;5.443136e-002
2.414542e+003;5.463874e-002
2.416471e+003;5.462153e-002
2.418399e+003;5.466207e-002
2.420328e+003;5.508533e-002
2.422256e+003;5.538873e-002
2.424185e+003;5.543349e-002
2.426113e+003;5.559230e-002
2.428042e+003;5.593701e-002
2.429970e+003;5.608795e-002
2.431899e+003;5.598786e-002
2.433828e+003;5.599073e-002
2.435756e+003;5.628612e-002
2.437685e+003;5.655661e-002
2.439613e+003;5.646279e-002
2.441542e+003;5.647645e-002
2.443470e+003;5.662062e-002
2.445399e+003;5.657442e-002
2.447327e+003;5.671444e-002
2.449256e+003;5.678607e-002
2.451185e+003;5.659869e-002
2.453113e+003;5.674570e-002
2.455042e+003;5.683697e-002
2.456970e+003;5.685895e-002
2.458899e+003;5.706594e-002
2.460827e+003;5.721810e-002
2.462756e+003;5.721401e-002
2.464684e+003;5.723397e-002
2.466613e+003;5.720899e-002
2.468542e+003;5.713600e-002
2.470470e+003;5.728595e-002
2.472398e+003;5.757315e-002
2.474327e+003;5.777374e-002
2.476256e+003;5.771594e-002
2.478184e+003;5.754701e-002
2.480113e+003;5.780939e-002
2.482041e+003;5.834126e-002
2.483970e+003;5.839660e-002
2.485898e+003;5.819030e-002
2.487827e+003;5.812386e-002
2.489755e+003;5.842935e-002
2.491684e+003;5.869344e-002
2.493613e+003;5.844898e-002
2.495541e+003;5.836143e-002
2.497470e+003;5.843473e-002
2.499398e+003;5.852549e-002
2.501327e+003;5.858111e-002
2.503255e+003;5.838625e-002
2.505184e+003;5.839648e-002
2.507112e+003;5.876908e-002
2.509041e+003;5.888051e-002
2.510969e+003;5.895113e-002
2.512898e+003;5.891705e-002
2.514827e+003;5.876468e-002
2.516755e+003;5.887140e-002
2.518684e+003;5.898024e-002
2.520612e+003;5.894460e-002
2.522541e+003;5.890635e-002
2.524469e+003;5.897269e-002
2.526398e+003;5.901808e-002
2.528326e+003;5.911776e-002
2.530255e+003;5.924691e-002
2.532184e+003;5.924041e-002
2.534112e+003;5.909134e-002
2.536041e+003;5.920434e-002
2.537969e+003;5.931953e-002
2.539898e+003;5.932701e-002
2.541826e+003;5.950378e-002
2.543755e+003;5.992651e-002
2.545683e+003;6.024952e-002
2.547612e+003;6.049244e-002
2.549541e+003;6.043318e-002
2.551469e+003;6.025508e-002
2.553397e+003;6.038653e-002
2.555326e+003;6.072707e-002
2.557255e+003;6.088315e-002
2.559183e+003;6.087591e-002
2.561112e+003;6.112112e-002
2.563040e+003;6.145480e-002
2.564969e+003;6.176168e-002
2.566897e+003;6.200312e-002
2.568826e+003;6.206454e-002
2.570754e+003;6.213614e-002
2.572683e+003;6.241937e-002
2.574612e+003;6.261693e-002
2.576540e+003;6.272518e-002
2.578469e+003;6.284517e-002
2.580397e+003;6.296597e-002
2.582326e+003;6.309672e-002
2.584254e+003;6.329899e-002
2.586183e+003;6.357028e-002
2.588111e+003;6.384048e-002
2.590040e+003;6.396907e-002
2.591969e+003;6.402121e-002
2.593897e+003;6.412996e-002
2.595826e+003;6.423648e-002
2.597754e+003;6.456637e-002
2.599683e+003;6.474064e-002
2.601611e+003;6.469602e-002
2.603540e+003;6.458578e-002
2.605468e+003;6.475367e-002
2.607397e+003;6.520271e-002
2.609325e+003;6.554343e-002
2.611254e+003;6.553611e-002
2.613183e+003;6.534970e-002
2.615111e+003;6.544619e-002
2.617040e+003;6.560011e-002
2.618968e+003;6.553083e-002
2.620897e+003;6.543837e-002
2.622825e+003;6.559349e-002
2.624754e+003;6.578258e-002
2.626682e+003;6.584158e-002
2.628611e+003;6.577237e-002
2.630540e+003;6.574260e-002
2.632468e+003;6.584612e-002
2.634396e+003;6.584254e-002
2.636325e+003;6.572033e-002
2.638254e+003;6.574573e-002
2.640182e+003;6.577145e-002
2.642111e+003;6.571466e-002
2.644039e+003;6.571855e-002
2.645968e+003;6.572056e-002
2.647896e+003;6.562474e-002
2.649825e+003;6.582052e-002
2.651753e+003;6.605138e-002
2.653682e+003;6.632178e-002
2.655611e+003;6.629908e-002
2.657539e+003;6.602905e-002
2.659468e+003;6.609582e-002
2.661396e+003;6.631008e-002
2.663325e+003;6.648370e-002
2.665253e+003;6.667855e-002
2.667182e+003;6.694187e-002
2.669110e+003;6.715125e-002
2.671039e+003;6.727088e-002
2.672968e+003;6.737960e-002
2.674896e+003;6.733414e-002
2.676825e+003;6.749996e-002
2.678753e+003;6.766736e-002
2.680682e+003;6.785372e-002
2.682610e+003;6.800052e-002
2.684539e+003;6.791268e-002
2.686467e+003;6.813714e-002
2.688396e+003;6.840864e-002
2.690324e+003;6.853902e-002
2.692253e+003;6.897852e-002
2.694182e+003;6.926714e-002
2.696110e+003;6.926127e-002
2.698039e+003;6.927413e-002
2.699967e+003;6.933752e-002
2.701896e+003;6.943696e-002
2.703824e+003;6.969539e-002
2.705753e+003;6.998437e-002
2.707681e+003;7.000080e-002
2.709610e+003;7.012010e-002
2.711539e+003;7.047432e-002
2.713467e+003;7.069203e-002
2.715396e+003;7.077061e-002
2.717324e+003;7.086764e-002
2.719253e+003;7.109734e-002
2.721181e+003;7.129435e-002
2.723110e+003;7.133980e-002
2.725038e+003;7.156745e-002
2.726967e+003;7.199176e-002
2.728896e+003;7.194244e-002
2.730824e+003;7.175913e-002
2.732752e+003;7.205828e-002
2.734681e+003;7.247829e-002
2.736610e+003;7.285208e-002
2.738538e+003;7.316690e-002
2.740467e+003;7.327577e-002
2.742395e+003;7.333649e-002
2.744324e+003;7.362524e-002
2.746252e+003;7.390927e-002
2.748181e+003;7.412623e-002
2.750109e+003;7.432321e-002
2.752038e+003;7.458000e-002
2.753967e+003;7.474093e-002
2.755895e+003;7.501396e-002
2.757824e+003;7.504866e-002
2.759752e+003;7.504267e-002
2.761681e+003;7.511388e-002
2.763609e+003;7.509875e-002
2.765538e+003;7.526418e-002
2.767466e+003;7.549534e-002
2.769395e+003;7.575310e-002
2.771323e+003;7.588550e-002
2.773252e+003;7.607855e-002
2.775181e+003;7.656156e-002
2.777109e+003;7.671338e-002
2.779038e+003;7.677953e-002
2.780966e+003;7.677969e-002
2.782895e+003;7.675011e-002
2.784823e+003;7.673553e-002
2.786752e+003;7.670884e-002
2.788680e+003;7.673873e-002
2.790609e+003;7.675166e-002
2.792538e+003;7.690921e-002
2.794466e+003;7.723422e-002
2.796395e+003;7.777388e-002
2.798323e+003;7.834928e-002
2.800252e+003;7.830670e-002
2.802180e+003;7.822961e-002
2.804109e+003;7.881308e-002
2.806037e+003;7.918938e-002
2.807966e+003;7.917034e-002
2.809895e+003;7.912366e-002
2.811823e+003;7.929055e-002
2.813751e+003;7.943609e-002
2.815680e+003;7.943737e-002
2.817609e+003;7.957266e-002
2.819537e+003;7.993539e-002
2.821466e+003;8.016870e-002
2.823394e+003;8.032435e-002
2.825323e+003;8.065058e-002
2.827251e+003;8.068716e-002
2.829180e+003;8.047746e-002
2.831108e+003;8.081980e-002
2.833037e+003;8.127882e-002
2.834966e+003;8.162328e-002
2.836894e+003;8.186550e-002
2.838823e+003;8.206394e-002
2.840751e+003;8.239031e-002
2.842680e+003;8.302895e-002
2.844608e+003;8.355368e-002
2.846537e+003;8.392455e-002
2.848465e+003;8.440835e-002
2.850394e+003;8.474745e-002
2.852323e+003;8.524346e-002
2.854251e+003;8.623383e-002
2.856180e+003;8.712198e-002
2.858108e+003;8.772524e-002
2.860037e+003;8.795567e-002
2.861965e+003;8.839557e-002
2.863894e+003;8.890139e-002
2.865822e+003;8.936899e-002
2.867751e+003;9.029446e-002
2.869679e+003;9.130477e-002
2.871608e+003;9.167446e-002
2.873536e+003;9.175308e-002
2.875465e+003;9.204865e-002
2.877394e+003;9.194053e-002
2.879322e+003;9.178824e-002
2.881251e+003;9.168960e-002
2.883179e+003;9.155028e-002
2.885108e+003;9.158416e-002
2.887036e+003;9.157590e-002
2.888965e+003;9.131823e-002
2.890893e+003;9.130408e-002
2.892822e+003;9.147048e-002
2.894750e+003;9.164091e-002
2.896679e+003;9.176843e-002
2.898608e+003;9.202063e-002
2.900536e+003;9.243713e-002
2.902465e+003;9.300292e-002
2.904393e+003;9.336440e-002
2.906322e+003;9.360363e-002
2.908250e+003;9.395147e-002
2.910179e+003;9.415852e-002
2.912107e+003;9.438547e-002
2.914036e+003;9.469280e-002
2.915965e+003;9.525679e-002
2.917893e+003;9.616993e-002
2.919822e+003;9.739831e-002
2.921750e+003;9.857529e-002
2.923679e+003;9.940703e-002
2.925607e+003;9.981313e-002
2.927536e+003;1.002286e-001
2.929464e+003;1.011677e-001
2.931393e+003;1.016901e-001
2.933322e+003;1.013222e-001
2.935250e+003;1.010213e-001
2.937178e+003;1.006454e-001
2.939107e+003;1.000509e-001
2.941036e+003;9.962012e-002
2.942964e+003;9.920055e-002
2.944893e+003;9.839426e-002
2.946821e+003;9.742957e-002
2.948750e+003;9.666005e-002
2.950678e+003;9.600759e-002
2.952607e+003;9.544283e-002
2.954535e+003;9.516409e-002
2.956464e+003;9.530070e-002
2.958393e+003;9.533594e-002
2.960321e+003;9.488194e-002
2.962250e+003;9.472462e-002
2.964178e+003;9.485803e-002
2.966107e+003;9.507434e-002
2.968035e+003;9.529327e-002
2.969964e+003;9.532092e-002
2.971892e+003;9.528498e-002
2.973821e+003;9.540997e-002
2.975750e+003;9.533383e-002
2.977678e+003;9.501845e-002
2.979607e+003;9.465980e-002
2.981535e+003;9.463190e-002
2.983464e+003;9.432642e-002
2.985392e+003;9.354950e-002
2.987321e+003;9.309281e-002
2.989249e+003;9.293150e-002
2.991178e+003;9.247279e-002
2.993106e+003;9.206859e-002
2.995035e+003;9.161980e-002
2.996964e+003;9.098054e-002
2.998892e+003;9.072294e-002
3.000821e+003;9.072956e-002
3.002749e+003;9.025306e-002
3.004678e+003;9.005614e-002
3.006606e+003;9.020212e-002
3.008535e+003;9.004130e-002
3.010463e+003;9.008097e-002
3.012392e+003;9.036520e-002
3.014321e+003;9.051198e-002
3.016249e+003;9.048598e-002
3.018177e+003;9.044770e-002
3.020106e+003;9.074026e-002
3.022035e+003;9.124929e-002
3.023963e+003;9.165773e-002
3.025892e+003;9.177457e-002
3.027820e+003;9.209628e-002
3.029749e+003;9.264567e-002
3.031677e+003;9.317198e-002
3.033606e+003;9.351239e-002
3.035534e+003;9.386884e-002
3.037463e+003;9.434709e-002
3.039392e+003;9.495438e-002
3.041320e+003;9.553105e-002
3.043249e+003;9.600722e-002
3.045177e+003;9.640977e-002
3.047106e+003;9.687009e-002
3.049034e+003;9.720919e-002
3.050963e+003;9.771168e-002
3.052891e+003;9.821318e-002
3.054820e+003;9.856839e-002
3.056749e+003;9.867541e-002
3.058677e+003;9.914231e-002
3.060606e+003;1.000287e-001
3.062534e+003;1.004954e-001
3.064463e+003;1.007837e-001
3.066391e+003;1.010235e-001
3.068320e+003;1.011165e-001
3.070248e+003;1.012179e-001
3.072177e+003;1.013751e-001
3.074105e+003;1.015253e-001
3.076034e+003;1.017700e-001
3.077963e+003;1.014746e-001
3.079891e+003;1.007694e-001
3.081820e+003;1.004787e-001
3.083748e+003;1.005376e-001
3.085677e+003;1.004192e-001
3.087605e+003;9.989602e-002
3.089534e+003;9.971181e-002
3.091462e+003;9.957752e-002
3.093391e+003;9.928799e-002
3.095320e+003;9.897561e-002
3.097248e+003;9.876700e-002
3.099177e+003;9.858344e-002
3.101105e+003;9.822311e-002
3.103034e+003;9.777588e-002
3.104962e+003;9.754856e-002
3.106891e+003;9.750468e-002
3.108819e+003;9.732223e-002
3.110748e+003;9.691408e-002
3.112677e+003;9.678946e-002
3.114605e+003;9.673949e-002
3.116533e+003;9.640559e-002
3.118462e+003;9.607526e-002
3.120391e+003;9.608059e-002
3.122319e+003;9.601239e-002
3.124248e+003;9.577351e-002
3.126176e+003;9.573480e-002
3.128105e+003;9.589056e-002
3.130033e+003;9.637944e-002
3.131962e+003;9.683894e-002
3.133890e+003;9.704414e-002
3.135819e+003;9.737426e-002
3.137748e+003;9.756710e-002
3.139676e+003;9.770214e-002
3.141605e+003;9.765592e-002
3.143533e+003;9.780888e-002
3.145462e+003;9.842094e-002
3.147390e+003;9.918140e-002
3.149319e+003;9.957486e-002
3.151247e+003;9.968201e-002
3.153176e+003;1.000450e-001
3.155104e+003;1.006201e-001
3.157033e+003;1.013062e-001
3.158962e+003;1.018264e-001
3.160890e+003;1.023826e-001
3.162819e+003;1.032958e-001
3.164747e+003;1.041862e-001
3.166676e+003;1.049807e-001
3.168604e+003;1.058014e-001
3.170533e+003;1.061773e-001
3.172461e+003;1.065459e-001
3.174390e+003;1.077830e-001
3.176319e+003;1.089537e-001
3.178247e+003;1.094461e-001
3.180176e+003;1.098774e-001
3.182104e+003;1.107202e-001
3.184033e+003;1.120123e-001
3.185961e+003;1.126204e-001
3.187890e+003;1.129351e-001
3.189818e+003;1.138919e-001
3.191747e+003;1.148837e-001
3.193676e+003;1.159712e-001
3.195604e+003;1.170632e-001
3.197532e+003;1.180373e-001
3.199461e+003;1.187568e-001
3.201390e+003;1.192069e-001
3.203318e+003;1.202767e-001
3.205247e+003;1.215688e-001
3.207175e+003;1.225501e-001
3.209104e+003;1.233840e-001
3.211032e+003;1.242628e-001
3.212961e+003;1.253822e-001
3.214889e+003;1.267228e-001
3.216818e+003;1.280707e-001
3.218747e+003;1.289392e-001
3.220675e+003;1.295707e-001
3.222604e+003;1.304529e-001
3.224532e+003;1.316377e-001
3.226461e+003;1.326862e-001
3.228389e+003;1.339495e-001
3.230318e+003;1.353449e-001
3.232246e+003;1.363695e-001
3.234175e+003;1.378070e-001
3.236104e+003;1.393823e-001
3.238032e+003;1.406054e-001
3.239961e+003;1.418756e-001
3.241889e+003;1.433272e-001
3.243818e+003;1.448069e-001
3.245746e+003;1.463835e-001
3.247675e+003;1.482528e-001
3.249603e+003;1.501523e-001
3.251532e+003;1.520835e-001
3.253460e+003;1.537778e-001
3.255389e+003;1.555312e-001
3.257318e+003;1.572780e-001
3.259246e+003;1.593386e-001
3.261175e+003;1.616486e-001
3.263103e+003;1.633632e-001
3.265032e+003;1.648169e-001
3.266960e+003;1.663407e-001
3.268889e+003;1.683317e-001
3.270817e+003;1.703475e-001
3.272746e+003;1.717087e-001
3.274675e+003;1.727721e-001
3.276603e+003;1.735218e-001
3.278531e+003;1.738701e-001
3.280460e+003;1.739691e-001
3.282389e+003;1.737025e-001
3.284317e+003;1.733446e-001
3.286246e+003;1.723386e-001
3.288174e+003;1.706359e-001
3.290103e+003;1.694995e-001
3.292031e+003;1.683593e-001
3.293960e+003;1.663391e-001
3.295888e+003;1.638416e-001
3.297817e+003;1.617129e-001
3.299746e+003;1.604643e-001
3.301674e+003;1.587315e-001
3.303603e+003;1.561533e-001
3.305531e+003;1.532797e-001
3.307460e+003;1.509946e-001
3.309388e+003;1.492320e-001
3.311317e+003;1.468887e-001
3.313245e+003;1.440970e-001
3.315174e+003;1.416896e-001
3.317103e+003;1.394715e-001
3.319031e+003;1.374902e-001
3.320960e+003;1.357998e-001
3.322888e+003;1.339154e-001
3.324817e+003;1.318193e-001
3.326745e+003;1.296366e-001
3.328674e+003;1.274552e-001
3.330602e+003;1.254002e-001
3.332531e+003;1.237094e-001
3.334459e+003;1.223089e-001
3.336388e+003;1.209400e-001
3.338317e+003;1.194988e-001
3.340245e+003;1.177030e-001
3.342174e+003;1.160800e-001
3.344102e+003;1.146889e-001
3.346031e+003;1.134009e-001
3.347959e+003;1.123053e-001
3.349888e+003;1.111748e-001
3.351816e+003;1.099900e-001
3.353745e+003;1.090736e-001
3.355674e+003;1.082200e-001
3.357602e+003;1.074969e-001
3.359531e+003;1.066059e-001
3.361459e+003;1.052113e-001
3.363388e+003;1.041710e-001
3.365316e+003;1.034952e-001
3.367245e+003;1.029569e-001
3.369173e+003;1.023160e-001
3.371102e+003;1.018368e-001
3.373031e+003;1.013350e-001
3.374959e+003;1.003530e-001
3.376887e+003;9.963825e-002
3.378816e+003;9.940437e-002
3.380745e+003;9.901248e-002
3.382673e+003;9.835004e-002
3.384602e+003;9.791069e-002
3.386530e+003;9.729251e-002
3.388459e+003;9.661704e-002
3.390387e+003;9.614562e-002
3.392316e+003;9.560562e-002
3.394244e+003;9.481022e-002
3.396173e+003;9.429835e-002
3.398102e+003;9.399676e-002
3.400030e+003;9.330089e-002
3.401959e+003;9.251547e-002
3.403887e+003;9.201789e-002
3.405816e+003;9.162360e-002
3.407744e+003;9.095199e-002
3.409673e+003;9.021607e-002
3.411601e+003;8.992745e-002
3.413530e+003;8.957607e-002
3.415458e+003;8.900715e-002
3.417387e+003;8.826239e-002
3.419316e+003;8.760510e-002
3.421244e+003;8.711749e-002
3.423173e+003;8.652348e-002
3.425101e+003;8.601041e-002
3.427030e+003;8.569354e-002
3.428958e+003;8.517605e-002
3.430887e+003;8.448711e-002
3.432815e+003;8.380180e-002
3.434744e+003;8.340374e-002
3.436673e+003;8.304583e-002
3.438601e+003;8.237741e-002
3.440530e+003;8.175521e-002
3.442458e+003;8.166230e-002
3.444387e+003;8.158606e-002
3.446315e+003;8.127886e-002
3.448244e+003;8.083361e-002
3.450172e+003;8.031092e-002
3.452101e+003;7.972279e-002
3.454030e+003;7.943681e-002
3.455958e+003;7.934834e-002
3.457886e+003;7.953704e-002
3.459815e+003;7.962137e-002
3.461744e+003;7.882802e-002
3.463672e+003;7.819279e-002
3.465601e+003;7.827619e-002
3.467529e+003;7.802954e-002
3.469458e+003;7.759354e-002
3.471386e+003;7.731514e-002
3.473315e+003;7.738154e-002
3.475243e+003;7.707940e-002
3.477172e+003;7.645051e-002
3.479101e+003;7.621228e-002
3.481029e+003;7.607291e-002
3.482958e+003;7.586069e-002
3.484886e+003;7.575195e-002
3.486815e+003;7.536069e-002
3.488743e+003;7.497395e-002
3.490672e+003;7.516591e-002
3.492600e+003;7.532325e-002
3.494529e+003;7.490713e-002
3.496458e+003;7.424344e-002
3.498386e+003;7.374490e-002
3.500315e+003;7.378021e-002
3.502243e+003;7.370105e-002
3.504172e+003;7.312435e-002
3.506100e+003;7.289621e-002
3.508029e+003;7.301783e-002
3.509957e+003;7.266501e-002
3.511886e+003;7.234845e-002
3.513814e+003;7.229984e-002
3.515743e+003;7.178137e-002
3.517672e+003;7.126620e-002
3.519600e+003;7.109312e-002
3.521529e+003;7.100313e-002
3.523457e+003;7.085875e-002
3.525386e+003;7.053165e-002
3.527314e+003;7.033443e-002
3.529243e+003;7.026813e-002
3.531171e+003;6.979005e-002
3.533100e+003;6.906094e-002
3.535029e+003;6.846891e-002
3.536957e+003;6.831839e-002
3.538885e+003;6.839130e-002
3.540814e+003;6.807876e-002
3.542743e+003;6.778055e-002
3.544671e+003;6.780341e-002
3.546600e+003;6.738343e-002
3.548528e+003;6.680621e-002
3.550457e+003;6.654807e-002
3.552385e+003;6.621868e-002
3.554314e+003;6.566405e-002
3.556242e+003;6.532381e-002
3.558171e+003;6.520861e-002
3.560100e+003;6.514481e-002
3.562028e+003;6.476810e-002
3.563957e+003;6.406030e-002
3.565885e+003;6.358666e-002
3.567814e+003;6.373882e-002
3.569742e+003;6.387011e-002
3.571671e+003;6.361397e-002
3.573599e+003;6.307583e-002
3.575528e+003;6.282335e-002
3.577457e+003;6.294516e-002
3.579385e+003;6.281059e-002
3.581314e+003;6.248330e-002
3.583242e+003;6.186804e-002
3.585171e+003;6.104557e-002
3.587099e+003;6.044944e-002
3.589028e+003;6.056987e-002
3.590956e+003;6.053765e-002
3.592885e+003;6.032836e-002
3.594813e+003;6.000563e-002
3.596742e+003;5.954448e-002
3.598671e+003;5.939234e-002
3.600599e+003;5.914222e-002
3.602528e+003;5.864698e-002
3.604456e+003;5.830007e-002
3.606385e+003;5.777366e-002
3.608313e+003;5.746152e-002
3.610242e+003;5.705933e-002
3.612170e+003;5.674377e-002
3.614099e+003;5.679003e-002
3.616028e+003;5.688770e-002
3.617956e+003;5.637065e-002
3.619885e+003;5.570134e-002
3.621813e+003;5.565440e-002
3.623742e+003;5.548525e-002
3.625670e+003;5.491001e-002
3.627599e+003;5.381798e-002
3.629527e+003;5.313918e-002
3.631456e+003;5.349882e-002
3.633385e+003;5.357846e-002
3.635313e+003;5.334485e-002
3.637241e+003;5.323708e-002
3.639170e+003;5.288683e-002
3.641099e+003;5.204098e-002
3.643027e+003;5.118631e-002
3.644956e+003;5.037346e-002
3.646884e+003;4.979811e-002
3.648813e+003;4.950576e-002
3.650741e+003;4.918055e-002
3.652670e+003;4.870851e-002
3.654598e+003;4.808057e-002
3.656527e+003;4.729136e-002
3.658456e+003;4.695122e-002
3.660384e+003;4.638429e-002
3.662313e+003;4.535227e-002
3.664241e+003;4.491156e-002
3.666170e+003;4.446942e-002
3.668098e+003;4.364163e-002
3.670027e+003;4.261654e-002
3.671955e+003;4.202961e-002
3.673884e+003;4.145426e-002
3.675813e+003;4.083428e-002
3.677741e+003;4.065912e-002
3.679669e+003;4.031443e-002
3.681598e+003;3.962503e-002
3.683527e+003;3.873957e-002
3.685455e+003;3.846912e-002
3.687384e+003;3.827060e-002
3.689312e+003;3.773718e-002
3.691241e+003;3.753830e-002
3.693169e+003;3.717452e-002
3.695098e+003;3.643466e-002
3.697026e+003;3.622528e-002
3.698955e+003;3.626703e-002
3.700884e+003;3.579913e-002
3.702812e+003;3.533763e-002
3.704741e+003;3.505176e-002
3.706669e+003;3.502820e-002
3.708598e+003;3.484747e-002
3.710526e+003;3.436837e-002
3.712455e+003;3.382155e-002
3.714383e+003;3.394851e-002
3.716312e+003;3.400433e-002
3.718240e+003;3.385612e-002
3.720169e+003;3.368722e-002
3.722098e+003;3.353285e-002
3.724026e+003;3.342981e-002
3.725955e+003;3.328856e-002
3.727883e+003;3.311298e-002
3.729812e+003;3.298187e-002
3.731740e+003;3.299545e-002
3.733669e+003;3.288654e-002
3.735597e+003;3.231153e-002
3.737526e+003;3.224058e-002
3.739455e+003;3.285970e-002
3.741383e+003;3.263336e-002
3.743312e+003;3.164840e-002
3.745240e+003;3.184128e-002
3.747169e+003;3.206849e-002
3.749097e+003;3.165909e-002
3.751026e+003;3.139611e-002
3.752954e+003;3.160435e-002
3.754883e+003;3.212740e-002
3.756812e+003;3.185526e-002
3.758740e+003;3.141317e-002
3.760668e+003;3.136139e-002
3.762597e+003;3.138343e-002
3.764526e+003;3.131431e-002
3.766454e+003;3.178014e-002
3.768383e+003;3.188785e-002
3.770311e+003;3.185679e-002
3.772240e+003;3.163721e-002
3.774168e+003;3.153091e-002
3.776097e+003;3.144908e-002
3.778025e+003;3.116515e-002
3.779954e+003;3.163685e-002
3.781883e+003;3.192190e-002
3.783811e+003;3.177015e-002
3.785740e+003;3.195821e-002
3.787668e+003;3.178056e-002
3.789597e+003;3.175561e-002
3.791525e+003;3.221571e-002
3.793454e+003;3.219740e-002
3.795382e+003;3.199979e-002
3.797311e+003;3.170100e-002
3.799240e+003;3.146123e-002
3.801168e+003;3.139266e-002
3.803097e+003;3.158204e-002
3.805025e+003;3.147911e-002
3.806954e+003;3.125149e-002
3.808882e+003;3.145189e-002
3.810811e+003;3.202301e-002
3.812739e+003;3.221703e-002
3.814668e+003;3.145919e-002
3.816596e+003;3.132730e-002
3.818525e+003;3.152564e-002
3.820454e+003;3.123529e-002
3.822382e+003;3.127866e-002
3.824311e+003;3.191473e-002
3.826239e+003;3.208597e-002
3.828168e+003;3.214588e-002
3.830096e+003;3.235023e-002
3.832025e+003;3.251739e-002
3.833953e+003;3.260407e-002
3.835882e+003;3.238182e-002
3.837811e+003;3.250575e-002
3.839739e+003;3.249421e-002
3.841667e+003;3.217606e-002
3.843596e+003;3.222106e-002
3.845525e+003;3.271302e-002
3.847453e+003;3.271920e-002
3.849382e+003;3.233124e-002
3.851310e+003;3.202515e-002
3.853239e+003;3.158671e-002
3.855167e+003;3.224772e-002
3.857096e+003;3.333192e-002
3.859024e+003;3.332812e-002
3.860953e+003;3.295913e-002
3.862882e+003;3.267075e-002
3.864810e+003;3.282561e-002
3.866739e+003;3.312238e-002
3.868667e+003;3.264657e-002
3.870596e+003;3.237022e-002
3.872524e+003;3.293394e-002
3.874453e+003;3.347437e-002
3.876381e+003;3.372883e-002
3.878310e+003;3.400182e-002
3.880239e+003;3.428567e-002
3.882167e+003;3.432235e-002
3.884096e+003;3.403411e-002
3.886024e+003;3.361257e-002
3.887953e+003;3.346778e-002
3.889881e+003;3.391472e-002
3.891810e+003;3.464212e-002
3.893738e+003;3.513614e-002
3.895667e+003;3.521120e-002
3.897595e+003;3.500953e-002
3.899524e+003;3.511039e-002
3.901453e+003;3.511172e-002
3.903381e+003;3.499846e-002
3.905310e+003;3.482320e-002
3.907238e+003;3.485231e-002
3.909167e+003;3.548862e-002
3.911095e+003;3.607019e-002
3.913024e+003;3.608945e-002
3.914952e+003;3.588837e-002
3.916881e+003;3.596658e-002
3.918810e+003;3.624110e-002
3.920738e+003;3.648100e-002
3.922667e+003;3.656195e-002
3.924595e+003;3.646601e-002
3.926524e+003;3.659583e-002
3.928452e+003;3.663548e-002
3.930381e+003;3.657428e-002
3.932309e+003;3.675721e-002
3.934238e+003;3.711370e-002
3.936167e+003;3.710198e-002
3.938095e+003;3.683143e-002
3.940023e+003;3.666689e-002
3.941952e+003;3.676319e-002
3.943881e+003;3.732658e-002
3.945809e+003;3.775330e-002
3.947738e+003;3.767928e-002
3.949666e+003;3.742889e-002
3.951595e+003;3.733525e-002
3.953523e+003;3.758555e-002
3.955452e+003;3.808395e-002
3.957380e+003;3.830498e-002
3.959309e+003;3.812761e-002
3.961238e+003;3.802854e-002
3.963166e+003;3.800673e-002
3.965095e+003;3.816849e-002
3.967023e+003;3.856442e-002
3.968952e+003;3.893723e-002
3.970880e+003;3.873124e-002
3.972809e+003;3.851004e-002
3.974737e+003;3.854918e-002
3.976666e+003;3.878935e-002
3.978594e+003;3.895346e-002
3.980523e+003;3.932943e-002
3.982452e+003;3.942829e-002
3.984380e+003;3.875265e-002
3.986309e+003;3.871161e-002
3.988237e+003;3.890921e-002
3.990166e+003;3.873526e-002
3.992094e+003;3.867010e-002
3.994023e+003;3.874841e-002
3.995951e+003;3.881525e-002
3.997880e+003;3.895006e-002
3.999809e+003;3.897296e-002
4.001737e+003;0.000000e+000
