3.992094e+002;0.000000e+000
4.011380e+002;0.000000e+000
4.030665e+002;0.000000e+000
4.049951e+002;0.000000e+000
4.069236e+002;0.000000e+000
4.088522e+002;0.000000e+000
4.107807e+002;0.000000e+000
4.127093e+002;0.000000e+000
4.146378e+002;0.000000e+000
4.165664e+002;0.000000e+000
4.184949e+002;0.000000e+000
4.204235e+002;0.000000e+000
4.223520e+002;0.000000e+000
4.242806e+002;0.000000e+000
4.262091e+002;0.000000e+000
4.281377e+002;0.000000e+000
4.300662e+002;0.000000e+000
4.319948e+002;0.000000e+000
4.339233e+002;0.000000e+000
4.358519e+002;0.000000e+000
4.377804e+002;0.000000e+000
4.397090e+002;0.000000e+000
4.416375e+002;0.000000e+000
4.435660e+002;0.000000e+000
4.454946e+002;0.000000e+000
4.474232e+002;0.000000e+000
4.493517e+002;0.000000e+000
4.512802e+002;0.000000e+000
4.532088e+002;0.000000e+000
4.551373e+002;0.000000e+000
4.570659e+002;0.000000e+000
4.589944e+002;0.000000e+000
4.609230e+002;0.000000e+000
4.628515e+002;0.000000e+000
4.647801e+002;0.000000e+000
4.667086e+002;0.000000e+000
4.686372e+002;0.000000e+000
4.705657e+002;0.000000e+000
4.724943e+002;0.000000e+000
4.744228e+002;0.000000e+000
4.763513e+002;0.000000e+000
4.782799e+002;0.000000e+000
4.802085e+002;0.000000e+000
4.821370e+002;0.000000e+000
4.840656e+002;0.000000e+000
4.859941e+002;0.000000e+000
4.879226e+002;0.000000e+000
4.898512e+002;0.000000e+000
4.917798e+002;0.000000e+000
4.937083e+002;0.000000e+000
4.956368e+002;0.000000e+000
4.975654e+002;0.000000e+000
4.994939e+002;0.000000e+000
5.014225e+002;0.000000e+000
5.033510e+002;0.000000e+000
5.052796e+002;0.000000e+000
5.072081e+002;0.000000e+000
5.091367e+002;0.000000e+000
5.110652e+002;0.000000e+000
5.129938e+002;0.000000e+000
5.149223e+002;0.000000e+000
5.168509e+002;0.000000e+000
5.187794e+002;0.000000e+000
5.207079e+002;0.000000e+000
5.226365e+002;0.000000e+000
5.245651e+002;0.000000e+000
5.264936e+002;0.000000e+000
5.284222e+002;0.000000e+000
5.303507e+002;0.000000e+000
5.322792e+002;0.000000e+000
5.342078e+002;0.000000e+000
5.361364e+002;0.000000e+000
5.380649e+002;0.000000e+000
5.399935e+002;0.000000e+000
5.419220e+002;0.000000e+000
5.438505e+002;0.000000e+000
5.457791e+002;0.000000e+000
5.477076e+002;0.000000e+000
5.496362e+002;0.000000e+000
5.515648e+002;0.000000e+000
5.534933e+002;0.000000e+000
5.554218e+002;0.000000e+000
5.573504e+002;0.000000e+000
5.592789e+002;0.000000e+000
5.612075e+002;0.000000e+000
5.631360e+002;0.000000e+000
5.650646e+002;0.000000e+000
5.669931e+002;0.000000e+000
5.689217e+002;0.000000e+000
5.708502e+002;0.000000e+000
5.727787e+002;0.000000e+000
5.747073e+002;0.000000e+000
5.766359e+002;0.000000e+000
5.785644e+002;0.000000e+000
5.804930e+002;0.000000e+000
5.824215e+002;0.000000e+000
5.843500e+002;0.000000e+000
5.862786e+002;0.000000e+000
5.882072e+002;0.000000e+000
5.901357e+002;0.000000e+000
5.920643e+002;0.000000e+000
5.939928e+002;0.000000e+000
5.959213e+002;0.000000e+000
5.978499e+002;0.000000e+000
5.997784e+002;1.667674e-001
6.017070e+002;1.687033e-001
6.036355e+002;1.759420e-001
6.055641e+002;1.752442e-001
6.074926e+002;1.710910e-001
6.094211e+002;1.736376e-001
6.113497e+002;1.731845e-001
6.132783e+002;1.721976e-001
6.152068e+002;1.747657e-001
6.171354e+002;1.773893e-001
6.190639e+002;1.797298e-001
6.209924e+002;1.771072e-001
6.229210e+002;1.726358e-001
6.248495e+002;1.709621e-001
6.267781e+002;1.697956e-001
6.287067e+002;1.729048e-001
6.306352e+002;1.741911e-001
6.325637e+002;1.696852e-001
6.344923e+002;1.675849e-001
6.364208e+002;1.660970e-001
6.383494e+002;1.640416e-001
6.402780e+002;1.655038e-001
6.422065e+002;1.665266e-001
6.441350e+002;1.658221e-001
6.460636e+002;1.657018e-001
6.479921e+002;1.632535e-001
6.499207e+002;1.588293e-001
6.518492e+002;1.580756e-001
6.537778e+002;1.600082e-001
6.557063e+002;1.592534e-001
6.576349e+002;1.548247e-001
6.595634e+002;1.521704e-001
6.614919e+002;1.551379e-001
6.634205e+002;1.575265e-001
6.653491e+002;1.564487e-001
6.672776e+002;1.562238e-001
6.692062e+002;1.567538e-001
6.711347e+002;1.570639e-001
6.730632e+002;1.561582e-001
6.749918e+002;1.561429e-001
6.769203e+002;1.556381e-001
6.788489e+002;1.532057e-001
6.807775e+002;1.512051e-001
6.827060e+002;1.508588e-001
6.846345e+002;1.500922e-001
6.865631e+002;1.497784e-001
6.884916e+002;1.498523e-001
6.904202e+002;1.491415e-001
6.923488e+002;1.484899e-001
6.942773e+002;1.476350e-001
6.962058e+002;1.473292e-001
6.981344e+002;1.463105e-001
7.000629e+002;1.441197e-001
7.019915e+002;1.423885e-001
7.039200e+002;1.408732e-001
7.058486e+002;1.393202e-001
7.077771e+002;1.374231e-001
7.097057e+002;1.352049e-001
7.116342e+002;1.335546e-001
7.135627e+002;1.322224e-001
7.154913e+002;1.309498e-001
7.174199e+002;1.297362e-001
7.193484e+002;1.279067e-001
7.212770e+002;1.253714e-001
7.232055e+002;1.227648e-001
7.251340e+002;1.218180e-001
7.270626e+002;1.206499e-001
7.289911e+002;1.183584e-001
7.309197e+002;1.164422e-001
7.328483e+002;1.146526e-001
7.347768e+002;1.122839e-001
7.367053e+002;1.097697e-001
7.386339e+002;1.075360e-001
7.405624e+002;1.059317e-001
7.424910e+002;1.040730e-001
7.444196e+002;1.014118e-001
7.463481e+002;1.002009e-001
7.482766e+002;9.814066e-002
7.502052e+002;9.596899e-002
7.521337e+002;9.474942e-002
7.540623e+002;9.351268e-002
7.559908e+002;9.289637e-002
7.579194e+002;9.203067e-002
7.598479e+002;9.047651e-002
7.617765e+002;8.910372e-002
7.637050e+002;8.842884e-002
7.656335e+002;8.829942e-002
7.675621e+002;8.766706e-002
7.694907e+002;8.686706e-002
7.714192e+002;8.559176e-002
7.733478e+002;8.431476e-002
7.752763e+002;8.351930e-002
7.772048e+002;8.228321e-002
7.791334e+002;8.080655e-002
7.810620e+002;7.978060e-002
7.829905e+002;7.908912e-002
7.849191e+002;7.820314e-002
7.868476e+002;7.777205e-002
7.887761e+002;7.711877e-002
7.907047e+002;7.582896e-002
7.926332e+002;7.499804e-002
7.945618e+002;7.425622e-002
7.964903e+002;7.372472e-002
7.984189e+002;7.320635e-002
8.003474e+002;7.317553e-002
8.022759e+002;7.380860e-002
8.042045e+002;7.335410e-002
8.061331e+002;7.323600e-002
8.080616e+002;7.384469e-002
8.099902e+002;7.390706e-002
8.119187e+002;7.383817e-002
8.138472e+002;7.422885e-002
8.157758e+002;7.469383e-002
8.177043e+002;7.477085e-002
8.196329e+002;7.424049e-002
8.215615e+002;7.431830e-002
8.234900e+002;7.504337e-002
8.254185e+002;7.504404e-002
8.273471e+002;7.480580e-002
8.292756e+002;7.490823e-002
8.312042e+002;7.446557e-002
8.331328e+002;7.335987e-002
8.350613e+002;7.242630e-002
8.369898e+002;7.166040e-002
8.389184e+002;7.078620e-002
8.408469e+002;7.039377e-002
8.427755e+002;7.043499e-002
8.447040e+002;7.077438e-002
8.466326e+002;7.111575e-002
8.485611e+002;7.097664e-002
8.504897e+002;7.065183e-002
8.524182e+002;7.041450e-002
8.543467e+002;6.963362e-002
8.562753e+002;6.833041e-002
8.582039e+002;6.723858e-002
8.601324e+002;6.635068e-002
8.620610e+002;6.518362e-002
8.639895e+002;6.407028e-002
8.659180e+002;6.332812e-002
8.678466e+002;6.293441e-002
8.697751e+002;6.281420e-002
8.717037e+002;6.249903e-002
8.736323e+002;6.222875e-002
8.755608e+002;6.212181e-002
8.774893e+002;6.196005e-002
8.794179e+002;6.205357e-002
8.813464e+002;6.233985e-002
8.832750e+002;6.242668e-002
8.852036e+002;6.260740e-002
8.871321e+002;6.306752e-002
8.890606e+002;6.316470e-002
8.909892e+002;6.258313e-002
8.929177e+002;6.211424e-002
8.948463e+002;6.194190e-002
8.967748e+002;6.207590e-002
8.987034e+002;6.220737e-002
9.006319e+002;6.207842e-002
9.025605e+002;6.160999e-002
9.044890e+002;6.147495e-002
9.064175e+002;6.201130e-002
9.083461e+002;6.255417e-002
9.102747e+002;6.284127e-002
9.122032e+002;6.326009e-002
9.141318e+002;6.372784e-002
9.160603e+002;6.420544e-002
9.179888e+002;6.508526e-002
9.199174e+002;6.634413e-002
9.218459e+002;6.753143e-002
9.237745e+002;6.861910e-002
9.257031e+002;6.956680e-002
9.276316e+002;7.028792e-002
9.295601e+002;7.068825e-002
9.314887e+002;7.068945e-002
9.334172e+002;7.062361e-002
9.353458e+002;7.091145e-002
9.372744e+002;7.119593e-002
9.392029e+002;7.139175e-002
9.411314e+002;7.145404e-002
9.430600e+002;7.151216e-002
9.449885e+002;7.172234e-002
9.469171e+002;7.213210e-002
9.488456e+002;7.295774e-002
9.507742e+002;7.364593e-002
9.527027e+002;7.414886e-002
9.546313e+002;7.472220e-002
9.565598e+002;7.545919e-002
9.584883e+002;7.639410e-002
9.604169e+002;7.764263e-002
9.623455e+002;7.897830e-002
9.642740e+002;7.991803e-002
9.662026e+002;8.086858e-002
9.681311e+002;8.222191e-002
9.700596e+002;8.380932e-002
9.719882e+002;8.508439e-002
9.739167e+002;8.597963e-002
9.758453e+002;8.648542e-002
9.777739e+002;8.642308e-002
9.797024e+002;8.618885e-002
9.816309e+002;8.598343e-002
9.835595e+002;8.579623e-002
9.854880e+002;8.566657e-002
9.874166e+002;8.624240e-002
9.893452e+002;8.734180e-002
9.912737e+002;8.892033e-002
9.932022e+002;9.033950e-002
9.951307e+002;9.114388e-002
9.970593e+002;9.157925e-002
9.989879e+002;9.164885e-002
1.000916e+003;9.179454e-002
1.002845e+003;9.180940e-002
1.004773e+003;9.164108e-002
1.006702e+003;9.165146e-002
1.008631e+003;9.158240e-002
1.010559e+003;9.165441e-002
1.012488e+003;9.184874e-002
1.014416e+003;9.191076e-002
1.016345e+003;9.168584e-002
1.018273e+003;9.078714e-002
1.020202e+003;9.039335e-002
1.022130e+003;9.037793e-002
1.024059e+003;9.060945e-002
1.025988e+003;9.163964e-002
1.027916e+003;9.320623e-002
1.029845e+003;9.468818e-002
1.031773e+003;9.557271e-002
1.033702e+003;9.671171e-002
1.035630e+003;9.823761e-002
1.037559e+003;9.962112e-002
1.039487e+003;1.011008e-001
1.041416e+003;1.020993e-001
1.043344e+003;1.021540e-001
1.045273e+003;1.024174e-001
1.047202e+003;1.032279e-001
1.049130e+003;1.038149e-001
1.051059e+003;1.043972e-001
1.052987e+003;1.053702e-001
1.054916e+003;1.064330e-001
1.056844e+003;1.074840e-001
1.058773e+003;1.086742e-001
1.060701e+003;1.095782e-001
1.062630e+003;1.100253e-001
1.064558e+003;1.103846e-001
1.066487e+003;1.109489e-001
1.068416e+003;1.114403e-001
1.070344e+003;1.111435e-001
1.072273e+003;1.103536e-001
1.074201e+003;1.092598e-001
1.076130e+003;1.080552e-001
1.078058e+003;1.062186e-001
1.079987e+003;1.040382e-001
1.081915e+003;1.023903e-001
1.083844e+003;1.005484e-001
1.085773e+003;9.823287e-002
1.087701e+003;9.720915e-002
1.089630e+003;9.632956e-002
1.091558e+003;9.479884e-002
1.093487e+003;9.419206e-002
1.095415e+003;9.348109e-002
1.097344e+003;9.310050e-002
1.099272e+003;9.365375e-002
1.101201e+003;9.376142e-002
1.103129e+003;9.375801e-002
1.105058e+003;9.377486e-002
1.106987e+003;9.340811e-002
1.108915e+003;9.237142e-002
1.110844e+003;9.126029e-002
1.112772e+003;9.083810e-002
1.114701e+003;9.068383e-002
1.116629e+003;9.043954e-002
1.118558e+003;9.028793e-002
1.120486e+003;9.023988e-002
1.122415e+003;8.982948e-002
1.124344e+003;8.946242e-002
1.126272e+003;8.959068e-002
1.128201e+003;8.994188e-002
1.130129e+003;9.008349e-002
1.132058e+003;9.022630e-002
1.133986e+003;9.093524e-002
1.135915e+003;9.160797e-002
1.137843e+003;9.232269e-002
1.139772e+003;9.346049e-002
1.141700e+003;9.455923e-002
1.143629e+003;9.548981e-002
1.145557e+003;9.699833e-002
1.147486e+003;9.815611e-002
1.149415e+003;9.868240e-002
1.151343e+003;9.950711e-002
1.153272e+003;1.005870e-001
1.155200e+003;1.015013e-001
1.157129e+003;1.025668e-001
1.159057e+003;1.034961e-001
1.160986e+003;1.041882e-001
1.162914e+003;1.047183e-001
1.164843e+003;1.052950e-001
1.166771e+003;1.061126e-001
1.168700e+003;1.068742e-001
1.170629e+003;1.071885e-001
1.172557e+003;1.067642e-001
1.174486e+003;1.060104e-001
1.176414e+003;1.047064e-001
1.178343e+003;1.031767e-001
1.180271e+003;1.022535e-001
1.182200e+003;1.017233e-001
1.184128e+003;1.019917e-001
1.186057e+003;1.026332e-001
1.187986e+003;1.031378e-001
1.189914e+003;1.041366e-001
1.191843e+003;1.057078e-001
1.193771e+003;1.072374e-001
1.195700e+003;1.085930e-001
1.197628e+003;1.106190e-001
1.199557e+003;1.133254e-001
1.201485e+003;1.161130e-001
1.203414e+003;1.190982e-001
1.205343e+003;1.224342e-001
1.207271e+003;1.259622e-001
1.209200e+003;1.291231e-001
1.211128e+003;1.323904e-001
1.213057e+003;1.356346e-001
1.214985e+003;1.379326e-001
1.216914e+003;1.401149e-001
1.218842e+003;1.428442e-001
1.220771e+003;1.453853e-001
1.222699e+003;1.472683e-001
1.224628e+003;1.486603e-001
1.226557e+003;1.497384e-001
1.228485e+003;1.503284e-001
1.230414e+003;1.503535e-001
1.232342e+003;1.500168e-001
1.234271e+003;1.493766e-001
1.236199e+003;1.483536e-001
1.238128e+003;1.468192e-001
1.240056e+003;1.452836e-001
1.241985e+003;1.439262e-001
1.243913e+003;1.428079e-001
1.245842e+003;1.416412e-001
1.247771e+003;1.405111e-001
1.249699e+003;1.397007e-001
1.251628e+003;1.391007e-001
1.253556e+003;1.388134e-001
1.255485e+003;1.386247e-001
1.257413e+003;1.383563e-001
1.259342e+003;1.378428e-001
1.261270e+003;1.369561e-001
1.263199e+003;1.358064e-001
1.265127e+003;1.339811e-001
1.267056e+003;1.315909e-001
1.268985e+003;1.288701e-001
1.270913e+003;1.258128e-001
1.272842e+003;1.231304e-001
1.274770e+003;1.208970e-001
1.276699e+003;1.187312e-001
1.278627e+003;1.168007e-001
1.280556e+003;1.152680e-001
1.282484e+003;1.139516e-001
1.284413e+003;1.126812e-001
1.286342e+003;1.113833e-001
1.288270e+003;1.104220e-001
1.290199e+003;1.098587e-001
1.292127e+003;1.093535e-001
1.294056e+003;1.088499e-001
1.295984e+003;1.082525e-001
1.297913e+003;1.079210e-001
1.299841e+003;1.078111e-001
1.301770e+003;1.076430e-001
1.303698e+003;1.072611e-001
1.305627e+003;1.068528e-001
1.307556e+003;1.064644e-001
1.309484e+003;1.060521e-001
1.311413e+003;1.056315e-001
1.313341e+003;1.050083e-001
1.315270e+003;1.043211e-001
1.317198e+003;1.040350e-001
1.319127e+003;1.042869e-001
1.321055e+003;1.043862e-001
1.322984e+003;1.043866e-001
1.324912e+003;1.045208e-001
1.326841e+003;1.047913e-001
1.328770e+003;1.053263e-001
1.330698e+003;1.056491e-001
1.332627e+003;1.053749e-001
1.334555e+003;1.050592e-001
1.336484e+003;1.049523e-001
1.338412e+003;1.047290e-001
1.340341e+003;1.044120e-001
1.342269e+003;1.042501e-001
1.344198e+003;1.039760e-001
1.346126e+003;1.037237e-001
1.348055e+003;1.036141e-001
1.349984e+003;1.035794e-001
1.351912e+003;1.037283e-001
1.353841e+003;1.040160e-001
1.355769e+003;1.044576e-001
1.357698e+003;1.051141e-001
1.359626e+003;1.062422e-001
1.361555e+003;1.079716e-001
1.363483e+003;1.097440e-001
1.365412e+003;1.114393e-001
1.367341e+003;1.127489e-001
1.369269e+003;1.132626e-001
1.371198e+003;1.128892e-001
1.373126e+003;1.120410e-001
1.375055e+003;1.115133e-001
1.376983e+003;1.112283e-001
1.378912e+003;1.110709e-001
1.380840e+003;1.110736e-001
1.382769e+003;1.110860e-001
1.384698e+003;1.111898e-001
1.386626e+003;1.111403e-001
1.388555e+003;1.111531e-001
1.390483e+003;1.113901e-001
1.392412e+003;1.114079e-001
1.394340e+003;1.111882e-001
1.396269e+003;1.110090e-001
1.398197e+003;1.113043e-001
1.400126e+003;1.117574e-001
1.402054e+003;1.122539e-001
1.403983e+003;1.127257e-001
1.405911e+003;1.131865e-001
1.407840e+003;1.138499e-001
1.409769e+003;1.143491e-001
1.411697e+003;1.144269e-001
1.413626e+003;1.143681e-001
1.415554e+003;1.143083e-001
1.417483e+003;1.143371e-001
1.419411e+003;1.145172e-001
1.421340e+003;1.150436e-001
1.423268e+003;1.160886e-001
1.425197e+003;1.175280e-001
1.427125e+003;1.195940e-001
1.429054e+003;1.223030e-001
1.430983e+003;1.255072e-001
1.432911e+003;1.292097e-001
1.434840e+003;1.329162e-001
1.436768e+003;1.359706e-001
1.438697e+003;1.381405e-001
1.440625e+003;1.392382e-001
1.442554e+003;1.395481e-001
1.444482e+003;1.395299e-001
1.446411e+003;1.391668e-001
1.448340e+003;1.380121e-001
1.450268e+003;1.358701e-001
1.452197e+003;1.329723e-001
1.454125e+003;1.298456e-001
1.456054e+003;1.266423e-001
1.457982e+003;1.234713e-001
1.459911e+003;1.213955e-001
1.461839e+003;1.200259e-001
1.463768e+003;1.189325e-001
1.465697e+003;1.179802e-001
1.467625e+003;1.177238e-001
1.469554e+003;1.180670e-001
1.471482e+003;1.188278e-001
1.473411e+003;1.198407e-001
1.475339e+003;1.211343e-001
1.477268e+003;1.228998e-001
1.479196e+003;1.250998e-001
1.481125e+003;1.279578e-001
1.483053e+003;1.314157e-001
1.484982e+003;1.354295e-001
1.486911e+003;1.400734e-001
1.488839e+003;1.452072e-001
1.490768e+003;1.502850e-001
1.492696e+003;1.552816e-001
1.494625e+003;1.605891e-001
1.496553e+003;1.661258e-001
1.498482e+003;1.715627e-001
1.500410e+003;1.764618e-001
1.502339e+003;1.810918e-001
1.504267e+003;1.859102e-001
1.506196e+003;1.904848e-001
1.508125e+003;1.945256e-001
1.510053e+003;1.977873e-001
1.511982e+003;2.007297e-001
1.513910e+003;2.029052e-001
1.515839e+003;2.030829e-001
1.517767e+003;2.011232e-001
1.519696e+003;1.981518e-001
1.521624e+003;1.952174e-001
1.523553e+003;1.925696e-001
1.525481e+003;1.900561e-001
1.527410e+003;1.874381e-001
1.529339e+003;1.849764e-001
1.531267e+003;1.826687e-001
1.533196e+003;1.801631e-001
1.535124e+003;1.770432e-001
1.537053e+003;1.737124e-001
1.538981e+003;1.704807e-001
1.540910e+003;1.672934e-001
1.542838e+003;1.639571e-001
1.544767e+003;1.609041e-001
1.546695e+003;1.580484e-001
1.548624e+003;1.547843e-001
1.550553e+003;1.514989e-001
1.552481e+003;1.485203e-001
1.554410e+003;1.456251e-001
1.556338e+003;1.424917e-001
1.558267e+003;1.387793e-001
1.560195e+003;1.349867e-001
1.562124e+003;1.317802e-001
1.564052e+003;1.288043e-001
1.565981e+003;1.254076e-001
1.567910e+003;1.222257e-001
1.569838e+003;1.196380e-001
1.571767e+003;1.175373e-001
1.573695e+003;1.158159e-001
1.575624e+003;1.146064e-001
1.577552e+003;1.137133e-001
1.579481e+003;1.131504e-001
1.581409e+003;1.131364e-001
1.583338e+003;1.138034e-001
1.585266e+003;1.153444e-001
1.587195e+003;1.175419e-001
1.589124e+003;1.203511e-001
1.591052e+003;1.236870e-001
1.592981e+003;1.277352e-001
1.594909e+003;1.325766e-001
1.596838e+003;1.375754e-001
1.598766e+003;1.429000e-001
1.600695e+003;1.492496e-001
1.602623e+003;1.569625e-001
1.604552e+003;1.660115e-001
1.606480e+003;1.756746e-001
1.608409e+003;1.854618e-001
1.610338e+003;1.953474e-001
1.612266e+003;2.050877e-001
1.614195e+003;2.137806e-001
1.616123e+003;2.211010e-001
1.618052e+003;2.267838e-001
1.619980e+003;2.302891e-001
1.621909e+003;2.314976e-001
1.623837e+003;2.307985e-001
1.625766e+003;2.279917e-001
1.627694e+003;2.234792e-001
1.629623e+003;2.183432e-001
1.631552e+003;2.127197e-001
1.633480e+003;2.069515e-001
1.635409e+003;2.010012e-001
1.637337e+003;1.953104e-001
1.639266e+003;1.903478e-001
1.641194e+003;1.859708e-001
1.643123e+003;1.816819e-001
1.645051e+003;1.771743e-001
1.646980e+003;1.728271e-001
1.648909e+003;1.688045e-001
1.650837e+003;1.650987e-001
1.652766e+003;1.612659e-001
1.654694e+003;1.569540e-001
1.656623e+003;1.527344e-001
1.658551e+003;1.487886e-001
1.660480e+003;1.449481e-001
1.662408e+003;1.409526e-001
1.664337e+003;1.371031e-001
1.666266e+003;1.335689e-001
1.668194e+003;1.301670e-001
1.670123e+003;1.267222e-001
1.672051e+003;1.235088e-001
1.673980e+003;1.203444e-001
1.675908e+003;1.173233e-001
1.677837e+003;1.143312e-001
1.679765e+003;1.113064e-001
1.681694e+003;1.086610e-001
1.683622e+003;1.060674e-001
1.685551e+003;1.032626e-001
1.687479e+003;1.011129e-001
1.689408e+003;9.937825e-002
1.691337e+003;9.789637e-002
1.693265e+003;9.680035e-002
1.695194e+003;9.576864e-002
1.697122e+003;9.474810e-002
1.699051e+003;9.317198e-002
1.700979e+003;8.966449e-002
1.702908e+003;8.446305e-002
1.704836e+003;7.806230e-002
1.706765e+003;7.173200e-002
1.708693e+003;6.579076e-002
1.710622e+003;6.077067e-002
1.712551e+003;5.708706e-002
1.714479e+003;5.417679e-002
1.716408e+003;5.162631e-002
1.718336e+003;4.960433e-002
1.720265e+003;4.795075e-002
1.722193e+003;4.637042e-002
1.724122e+003;4.480347e-002
1.726050e+003;4.367871e-002
1.727979e+003;4.281941e-002
1.729908e+003;4.194165e-002
1.731836e+003;4.110191e-002
1.733765e+003;4.033842e-002
1.735693e+003;3.956405e-002
1.737622e+003;3.878544e-002
1.739550e+003;3.784478e-002
1.741479e+003;3.690014e-002
1.743407e+003;3.632780e-002
1.745336e+003;3.562876e-002
1.747265e+003;3.482837e-002
1.749193e+003;3.437701e-002
1.751122e+003;3.388754e-002
1.753050e+003;3.343658e-002
1.754979e+003;3.299982e-002
1.756907e+003;3.247457e-002
1.758836e+003;3.209493e-002
1.760764e+003;3.188086e-002
1.762693e+003;3.160103e-002
1.764621e+003;3.118021e-002
1.766550e+003;3.089024e-002
1.768479e+003;3.088031e-002
1.770407e+003;3.079231e-002
1.772336e+003;3.032661e-002
1.774264e+003;2.999641e-002
1.776193e+003;2.996790e-002
1.778121e+003;2.980004e-002
1.780050e+003;2.957937e-002
1.781978e+003;2.936334e-002
1.783907e+003;2.910760e-002
1.785835e+003;2.894401e-002
1.787764e+003;2.875935e-002
1.789693e+003;2.846964e-002
1.791621e+003;2.811285e-002
1.793550e+003;2.779467e-002
1.795478e+003;2.777836e-002
1.797407e+003;2.782739e-002
1.799335e+003;2.765789e-002
1.801264e+003;2.725082e-002
1.803192e+003;2.700424e-002
1.805121e+003;2.682492e-002
1.807049e+003;2.670309e-002
1.808978e+003;2.652078e-002
1.810907e+003;2.635965e-002
1.812835e+003;2.623204e-002
1.814764e+003;2.590958e-002
1.816692e+003;2.554434e-002
1.818621e+003;2.530558e-002
1.820549e+003;2.514932e-002
1.822478e+003;2.513830e-002
1.824406e+003;2.515231e-002
1.826335e+003;2.486878e-002
1.828264e+003;2.448068e-002
1.830192e+003;2.421732e-002
1.832121e+003;2.416537e-002
1.834049e+003;2.397699e-002
1.835978e+003;2.358517e-002
1.837906e+003;2.351287e-002
1.839835e+003;2.345894e-002
1.841763e+003;2.325317e-002
1.843692e+003;2.309327e-002
1.845620e+003;2.311599e-002
1.847549e+003;2.294814e-002
1.849478e+003;2.268113e-002
1.851406e+003;2.254253e-002
1.853335e+003;2.228445e-002
1.855263e+003;2.209831e-002
1.857192e+003;2.205362e-002
1.859120e+003;2.202657e-002
1.861049e+003;2.184398e-002
1.862977e+003;2.170954e-002
1.864906e+003;2.185012e-002
1.866834e+003;2.177312e-002
1.868763e+003;2.161143e-002
1.870692e+003;2.161436e-002
1.872620e+003;2.155847e-002
1.874549e+003;2.157626e-002
1.876477e+003;2.150565e-002
1.878406e+003;2.144647e-002
1.880334e+003;2.146262e-002
1.882263e+003;2.134114e-002
1.884191e+003;2.107460e-002
1.886120e+003;2.107727e-002
1.888048e+003;2.117739e-002
1.889977e+003;2.111815e-002
1.891906e+003;2.089502e-002
1.893834e+003;2.069971e-002
1.895763e+003;2.073922e-002
1.897691e+003;2.066784e-002
1.899620e+003;2.043106e-002
1.901548e+003;2.034591e-002
1.903477e+003;2.018788e-002
1.905405e+003;2.025255e-002
1.907334e+003;2.037101e-002
1.909262e+003;2.017798e-002
1.911191e+003;2.010854e-002
1.913120e+003;2.012703e-002
1.915048e+003;2.013217e-002
1.916977e+003;2.014029e-002
1.918905e+003;1.999208e-002
1.920834e+003;1.989228e-002
1.922762e+003;1.990119e-002
1.924691e+003;1.996152e-002
1.926619e+003;1.992211e-002
1.928548e+003;1.963678e-002
1.930477e+003;1.946119e-002
1.932405e+003;1.959099e-002
1.934334e+003;1.961203e-002
1.936262e+003;1.970331e-002
1.938191e+003;1.987736e-002
1.940119e+003;1.988683e-002
1.942048e+003;1.981178e-002
1.943976e+003;1.974481e-002
1.945905e+003;1.966469e-002
1.947833e+003;1.975057e-002
1.949762e+003;1.981809e-002
1.951691e+003;1.984240e-002
1.953619e+003;1.979131e-002
1.955548e+003;1.966340e-002
1.957476e+003;1.972460e-002
1.959405e+003;1.988510e-002
1.961333e+003;1.993619e-002
1.963262e+003;1.991503e-002
1.965190e+003;1.995284e-002
1.967119e+003;1.993141e-002
1.969047e+003;1.979985e-002
1.970976e+003;1.966271e-002
1.972905e+003;1.967654e-002
1.974833e+003;1.988021e-002
1.976762e+003;2.004191e-002
1.978690e+003;1.985239e-002
1.980619e+003;1.946362e-002
1.982547e+003;1.948330e-002
1.984476e+003;1.964226e-002
1.986404e+003;1.964759e-002
1.988333e+003;1.958911e-002
1.990261e+003;1.955958e-002
1.992190e+003;1.964226e-002
1.994119e+003;1.969318e-002
1.996047e+003;1.956270e-002
1.997976e+003;1.935621e-002
1.999904e+003;1.930030e-002
2.001833e+003;1.937176e-002
2.003761e+003;1.941795e-002
2.005690e+003;1.923947e-002
2.007618e+003;1.918365e-002
2.009547e+003;1.924193e-002
2.011476e+003;1.909067e-002
2.013404e+003;1.881177e-002
2.015333e+003;1.887714e-002
2.017261e+003;1.909933e-002
2.019190e+003;1.916429e-002
2.021118e+003;1.903428e-002
2.023047e+003;1.895314e-002
2.024975e+003;1.887534e-002
2.026904e+003;1.886914e-002
2.028833e+003;1.900457e-002
2.030761e+003;1.912550e-002
2.032690e+003;1.899530e-002
2.034618e+003;1.889427e-002
2.036547e+003;1.887409e-002
2.038475e+003;1.894075e-002
2.040404e+003;1.880471e-002
2.042332e+003;1.874814e-002
2.044261e+003;1.889039e-002
2.046189e+003;1.909583e-002
2.048118e+003;1.913835e-002
2.050047e+003;1.890704e-002
2.051975e+003;1.868013e-002
2.053904e+003;1.872365e-002
2.055832e+003;1.879942e-002
2.057761e+003;1.882267e-002
2.059689e+003;1.874161e-002
2.061618e+003;1.859889e-002
2.063546e+003;1.851856e-002
2.065475e+003;1.851503e-002
2.067404e+003;1.864527e-002
2.069332e+003;1.876901e-002
2.071260e+003;1.869549e-002
2.073189e+003;1.859571e-002
2.075118e+003;1.880734e-002
2.077046e+003;1.899730e-002
2.078975e+003;1.880938e-002
2.080903e+003;1.855196e-002
2.082832e+003;1.855044e-002
2.084760e+003;1.879866e-002
2.086689e+003;1.889641e-002
2.088617e+003;1.865668e-002
2.090546e+003;1.846189e-002
2.092475e+003;1.842652e-002
2.094403e+003;1.841473e-002
2.096332e+003;1.860750e-002
2.098260e+003;1.872030e-002
2.100189e+003;1.869895e-002
2.102117e+003;1.854183e-002
2.104046e+003;1.842065e-002
2.105974e+003;1.829974e-002
2.107903e+003;1.827945e-002
2.109832e+003;1.854916e-002
2.111760e+003;1.852910e-002
2.113688e+003;1.823429e-002
2.115617e+003;1.798449e-002
2.117546e+003;1.788055e-002
2.119474e+003;1.787707e-002
2.121403e+003;1.786647e-002
2.123331e+003;1.791650e-002
2.125260e+003;1.792071e-002
2.127188e+003;1.801803e-002
2.129117e+003;1.808234e-002
2.131045e+003;1.792675e-002
2.132974e+003;1.787986e-002
2.134903e+003;1.803554e-002
2.136831e+003;1.801440e-002
2.138760e+003;1.783636e-002
2.140688e+003;1.772393e-002
2.142617e+003;1.782072e-002
2.144545e+003;1.796339e-002
2.146474e+003;1.796895e-002
2.148402e+003;1.794972e-002
2.150331e+003;1.786056e-002
2.152260e+003;1.771175e-002
2.154188e+003;1.764446e-002
2.156117e+003;1.789133e-002
2.158045e+003;1.794754e-002
2.159974e+003;1.767172e-002
2.161902e+003;1.750817e-002
2.163831e+003;1.760736e-002
2.165759e+003;1.791615e-002
2.167688e+003;1.778006e-002
2.169616e+003;1.752004e-002
2.171545e+003;1.761699e-002
2.173474e+003;1.771472e-002
2.175402e+003;1.760098e-002
2.177331e+003;1.767676e-002
2.179259e+003;1.773753e-002
2.181188e+003;1.751828e-002
2.183116e+003;1.733951e-002
2.185045e+003;1.738414e-002
2.186973e+003;1.741849e-002
2.188902e+003;1.733251e-002
2.190831e+003;1.711905e-002
2.192759e+003;1.697914e-002
2.194688e+003;1.705825e-002
2.196616e+003;1.724163e-002
2.198545e+003;1.739452e-002
2.200473e+003;1.731331e-002
2.202402e+003;1.743253e-002
2.204330e+003;1.763507e-002
2.206259e+003;1.762061e-002
2.208188e+003;1.758407e-002
2.210116e+003;1.732224e-002
2.212044e+003;1.701917e-002
2.213973e+003;1.705239e-002
2.215902e+003;1.710802e-002
2.217830e+003;1.720181e-002
2.219759e+003;1.713580e-002
2.221687e+003;1.716023e-002
2.223616e+003;1.712001e-002
2.225544e+003;1.705525e-002
2.227473e+003;1.705212e-002
2.229401e+003;1.702689e-002
2.231330e+003;1.709688e-002
2.233259e+003;1.707128e-002
2.235187e+003;1.711636e-002
2.237116e+003;1.711398e-002
2.239044e+003;1.697600e-002
2.240973e+003;1.708510e-002
2.242901e+003;1.716413e-002
2.244830e+003;1.694275e-002
2.246758e+003;1.686063e-002
2.248687e+003;1.705832e-002
2.250615e+003;1.713083e-002
2.252544e+003;1.706204e-002
2.254473e+003;1.682205e-002
2.256401e+003;1.680820e-002
2.258330e+003;1.706732e-002
2.260258e+003;1.718757e-002
2.262187e+003;1.701414e-002
2.264115e+003;1.674029e-002
2.266044e+003;1.660487e-002
2.267972e+003;1.666123e-002
2.269901e+003;1.661771e-002
2.271830e+003;1.653376e-002
2.273758e+003;1.667073e-002
2.275687e+003;1.685195e-002
2.277615e+003;1.653290e-002
2.279544e+003;1.632120e-002
2.281472e+003;1.663035e-002
2.283401e+003;1.697273e-002
2.285329e+003;1.707796e-002
2.287258e+003;1.691547e-002
2.289187e+003;1.683559e-002
2.291115e+003;1.700946e-002
2.293043e+003;1.716278e-002
2.294972e+003;1.713452e-002
2.296901e+003;1.708899e-002
2.298829e+003;1.709402e-002
2.300758e+003;1.713083e-002
2.302686e+003;1.719743e-002
2.304615e+003;1.719264e-002
2.306543e+003;1.717688e-002
2.308472e+003;1.716220e-002
2.310400e+003;1.715803e-002
2.312329e+003;1.723669e-002
2.314258e+003;1.731303e-002
2.316186e+003;1.739621e-002
2.318115e+003;1.752804e-002
2.320043e+003;1.755609e-002
2.321972e+003;1.740280e-002
2.323900e+003;1.728234e-002
2.325829e+003;1.718181e-002
2.327757e+003;1.711894e-002
2.329686e+003;1.731865e-002
2.331615e+003;1.744977e-002
2.333543e+003;1.739921e-002
2.335472e+003;1.745315e-002
2.337400e+003;1.734131e-002
2.339329e+003;1.724256e-002
2.341257e+003;1.725283e-002
2.343186e+003;1.716513e-002
2.345114e+003;1.715465e-002
2.347043e+003;1.727821e-002
2.348971e+003;1.736083e-002
2.350900e+003;1.743566e-002
2.352829e+003;1.745688e-002
2.354757e+003;1.731982e-002
2.356686e+003;1.727662e-002
2.358614e+003;1.750117e-002
2.360543e+003;1.772825e-002
2.362471e+003;1.779469e-002
2.364400e+003;1.761920e-002
2.366328e+003;1.749041e-002
2.368257e+003;1.749958e-002
2.370186e+003;1.758266e-002
2.372114e+003;1.775341e-002
2.374042e+003;1.786657e-002
2.375971e+003;1.794903e-002
2.377900e+003;1.785179e-002
2.379828e+003;1.793459e-002
2.381757e+003;1.818405e-002
2.383685e+003;1.818432e-002
2.385614e+003;1.820758e-002
2.387542e+003;1.845698e-002
2.389471e+003;1.847617e-002
2.391399e+003;1.843364e-002
2.393328e+003;1.858568e-002
2.395257e+003;1.878627e-002
2.397185e+003;1.880260e-002
2.399114e+003;1.879025e-002
2.401042e+003;1.887236e-002
2.402971e+003;1.904494e-002
2.404899e+003;1.902870e-002
2.406828e+003;1.899827e-002
2.408756e+003;1.924893e-002
2.410685e+003;1.957320e-002
2.412614e+003;1.984812e-002
2.414542e+003;1.998837e-002
2.416471e+003;2.003067e-002
2.418399e+003;2.015778e-002
2.420328e+003;2.025428e-002
2.422256e+003;2.045853e-002
2.424185e+003;2.065804e-002
2.426113e+003;2.072796e-002
2.428042e+003;2.078016e-002
2.429970e+003;2.099353e-002
2.431899e+003;2.115564e-002
2.433828e+003;2.118936e-002
2.435756e+003;2.118515e-002
2.437685e+003;2.126768e-002
2.439613e+003;2.139279e-002
2.441542e+003;2.129757e-002
2.443470e+003;2.142262e-002
2.445399e+003;2.173407e-002
2.447327e+003;2.190841e-002
2.449256e+003;2.193180e-002
2.451185e+003;2.189813e-002
2.453113e+003;2.189597e-002
2.455042e+003;2.188423e-002
2.456970e+003;2.180625e-002
2.458899e+003;2.176051e-002
2.460827e+003;2.181789e-002
2.462756e+003;2.189796e-002
2.464684e+003;2.208443e-002
2.466613e+003;2.222307e-002
2.468542e+003;2.224532e-002
2.470470e+003;2.228647e-002
2.472398e+003;2.221344e-002
2.474327e+003;2.229997e-002
2.476256e+003;2.242455e-002
2.478184e+003;2.224155e-002
2.480113e+003;2.229704e-002
2.482041e+003;2.252082e-002
2.483970e+003;2.249325e-002
2.485898e+003;2.240183e-002
2.487827e+003;2.257453e-002
2.489755e+003;2.277257e-002
2.491684e+003;2.275058e-002
2.493613e+003;2.264465e-002
2.495541e+003;2.275295e-002
2.497470e+003;2.270519e-002
2.499398e+003;2.261366e-002
2.501327e+003;2.266420e-002
2.503255e+003;2.267460e-002
2.505184e+003;2.280746e-002
2.507112e+003;2.305805e-002
2.509041e+003;2.294105e-002
2.510969e+003;2.286557e-002
2.512898e+003;2.304107e-002
2.514827e+003;2.325922e-002
2.516755e+003;2.334183e-002
2.518684e+003;2.322681e-002
2.520612e+003;2.314219e-002
2.522541e+003;2.303733e-002
2.524469e+003;2.288247e-002
2.526398e+003;2.313496e-002
2.528326e+003;2.343974e-002
2.530255e+003;2.313290e-002
2.532184e+003;2.291185e-002
2.534112e+003;2.324062e-002
2.536041e+003;2.352091e-002
2.537969e+003;2.364248e-002
2.539898e+003;2.367166e-002
2.541826e+003;2.371946e-002
2.543755e+003;2.388585e-002
2.545683e+003;2.412228e-002
2.547612e+003;2.424052e-002
2.549541e+003;2.420331e-002
2.551469e+003;2.407556e-002
2.553397e+003;2.411307e-002
2.555326e+003;2.437760e-002
2.557255e+003;2.460298e-002
2.559183e+003;2.452503e-002
2.561112e+003;2.459217e-002
2.563040e+003;2.474263e-002
2.564969e+003;2.496581e-002
2.566897e+003;2.536695e-002
2.568826e+003;2.550818e-002
2.570754e+003;2.552459e-002
2.572683e+003;2.564812e-002
2.574612e+003;2.572887e-002
2.576540e+003;2.601859e-002
2.578469e+003;2.636053e-002
2.580397e+003;2.637581e-002
2.582326e+003;2.649166e-002
2.584254e+003;2.675003e-002
2.586183e+003;2.689749e-002
2.588111e+003;2.687877e-002
2.590040e+003;2.691491e-002
2.591969e+003;2.707163e-002
2.593897e+003;2.744783e-002
2.595826e+003;2.793765e-002
2.597754e+003;2.815849e-002
2.599683e+003;2.817991e-002
2.601611e+003;2.813395e-002
2.603540e+003;2.827478e-002
2.605468e+003;2.849320e-002
2.607397e+003;2.883122e-002
2.609325e+003;2.910360e-002
2.611254e+003;2.905570e-002
2.613183e+003;2.899214e-002
2.615111e+003;2.902636e-002
2.617040e+003;2.903809e-002
2.618968e+003;2.906802e-002
2.620897e+003;2.903348e-002
2.622825e+003;2.915795e-002
2.624754e+003;2.939103e-002
2.626682e+003;2.944634e-002
2.628611e+003;2.931276e-002
2.630540e+003;2.933137e-002
2.632468e+003;2.950212e-002
2.634396e+003;2.947805e-002
2.636325e+003;2.928667e-002
2.638254e+003;2.934516e-002
2.640182e+003;2.961480e-002
2.642111e+003;2.958050e-002
2.644039e+003;2.931896e-002
2.645968e+003;2.920434e-002
2.647896e+003;2.948432e-002
2.649825e+003;2.964967e-002
2.651753e+003;2.930336e-002
2.653682e+003;2.924562e-002
2.655611e+003;2.964113e-002
2.657539e+003;2.972354e-002
2.659468e+003;2.950067e-002
2.661396e+003;2.943592e-002
2.663325e+003;2.942535e-002
2.665253e+003;2.961903e-002
2.667182e+003;3.012555e-002
2.669110e+003;3.060262e-002
2.671039e+003;3.060486e-002
2.672968e+003;3.042266e-002
2.674896e+003;3.053554e-002
2.676825e+003;3.073184e-002
2.678753e+003;3.080764e-002
2.680682e+003;3.116505e-002
2.682610e+003;3.137015e-002
2.684539e+003;3.133094e-002
2.686467e+003;3.151744e-002
2.688396e+003;3.165403e-002
2.690324e+003;3.181893e-002
2.692253e+003;3.226246e-002
2.694182e+003;3.235258e-002
2.696110e+003;3.220832e-002
2.698039e+003;3.228188e-002
2.699967e+003;3.253100e-002
2.701896e+003;3.293254e-002
2.703824e+003;3.307901e-002
2.705753e+003;3.292571e-002
2.707681e+003;3.282904e-002
2.709610e+003;3.307647e-002
2.711539e+003;3.351220e-002
2.713467e+003;3.368722e-002
2.715396e+003;3.378921e-002
2.717324e+003;3.388940e-002
2.719253e+003;3.420565e-002
2.721181e+003;3.448092e-002
2.723110e+003;3.455525e-002
2.725038e+003;3.469753e-002
2.726967e+003;3.477912e-002
2.728896e+003;3.487397e-002
2.730824e+003;3.524678e-002
2.732752e+003;3.571523e-002
2.734681e+003;3.577779e-002
2.736610e+003;3.576685e-002
2.738538e+003;3.602544e-002
2.740467e+003;3.612564e-002
2.742395e+003;3.621159e-002
2.744324e+003;3.645217e-002
2.746252e+003;3.677452e-002
2.748181e+003;3.692936e-002
2.750109e+003;3.713655e-002
2.752038e+003;3.745406e-002
2.753967e+003;3.754892e-002
2.755895e+003;3.742246e-002
2.757824e+003;3.751124e-002
2.759752e+003;3.792432e-002
2.761681e+003;3.806460e-002
2.763609e+003;3.804601e-002
2.765538e+003;3.821332e-002
2.767466e+003;3.846015e-002
2.769395e+003;3.853364e-002
2.771323e+003;3.875113e-002
2.773252e+003;3.902501e-002
2.775181e+003;3.902027e-002
2.777109e+003;3.908066e-002
2.779038e+003;3.936070e-002
2.780966e+003;3.959700e-002
2.782895e+003;3.984680e-002
2.784823e+003;3.998494e-002
2.786752e+003;4.001451e-002
2.788680e+003;3.993601e-002
2.790609e+003;4.022842e-002
2.792538e+003;4.060175e-002
2.794466e+003;4.079468e-002
2.796395e+003;4.097550e-002
2.798323e+003;4.100806e-002
2.800252e+003;4.127244e-002
2.802180e+003;4.166362e-002
2.804109e+003;4.169678e-002
2.806037e+003;4.178899e-002
2.807966e+003;4.193359e-002
2.809895e+003;4.204633e-002
2.811823e+003;4.215421e-002
2.813751e+003;4.216779e-002
2.815680e+003;4.227752e-002
2.817609e+003;4.244895e-002
2.819537e+003;4.242057e-002
2.821466e+003;4.236924e-002
2.823394e+003;4.260634e-002
2.825323e+003;4.304633e-002
2.827251e+003;4.324504e-002
2.829180e+003;4.338027e-002
2.831108e+003;4.369062e-002
2.833037e+003;4.412752e-002
2.834966e+003;4.430772e-002
2.836894e+003;4.447790e-002
2.838823e+003;4.488462e-002
2.840751e+003;4.519340e-002
2.842680e+003;4.551060e-002
2.844608e+003;4.626415e-002
2.846537e+003;4.686030e-002
2.848465e+003;4.707170e-002
2.850394e+003;4.744925e-002
2.852323e+003;4.791353e-002
2.854251e+003;4.833867e-002
2.856180e+003;4.875329e-002
2.858108e+003;4.898930e-002
2.860037e+003;4.951505e-002
2.861965e+003;5.038180e-002
2.863894e+003;5.103856e-002
2.865822e+003;5.141940e-002
2.867751e+003;5.190191e-002
2.869679e+003;5.248484e-002
2.871608e+003;5.287541e-002
2.873536e+003;5.303584e-002
2.875465e+003;5.337302e-002
2.877394e+003;5.363443e-002
2.879322e+003;5.324835e-002
2.881251e+003;5.290561e-002
2.883179e+003;5.281628e-002
2.885108e+003;5.256068e-002
2.887036e+003;5.224143e-002
2.888965e+003;5.240427e-002
2.890893e+003;5.278336e-002
2.892822e+003;5.331128e-002
2.894750e+003;5.335384e-002
2.896679e+003;5.314562e-002
2.898608e+003;5.345377e-002
2.900536e+003;5.376101e-002
2.902465e+003;5.375580e-002
2.904393e+003;5.399984e-002
2.906322e+003;5.467684e-002
2.908250e+003;5.508921e-002
2.910179e+003;5.514273e-002
2.912107e+003;5.511727e-002
2.914036e+003;5.573023e-002
2.915965e+003;5.645830e-002
2.917893e+003;5.666973e-002
2.919822e+003;5.660715e-002
2.921750e+003;5.688320e-002
2.923679e+003;5.762823e-002
2.925607e+003;5.803557e-002
2.927536e+003;5.857603e-002
2.929464e+003;5.948254e-002
2.931393e+003;6.021739e-002
2.933322e+003;6.022326e-002
2.935250e+003;6.022383e-002
2.937178e+003;6.014424e-002
2.939107e+003;5.966337e-002
2.941036e+003;5.940241e-002
2.942964e+003;5.930536e-002
2.944893e+003;5.887371e-002
2.946821e+003;5.825070e-002
2.948750e+003;5.766766e-002
2.950678e+003;5.744227e-002
2.952607e+003;5.709035e-002
2.954535e+003;5.659314e-002
2.956464e+003;5.654914e-002
2.958393e+003;5.679917e-002
2.960321e+003;5.711299e-002
2.962250e+003;5.751527e-002
2.964178e+003;5.759936e-002
2.966107e+003;5.729650e-002
2.968035e+003;5.736183e-002
2.969964e+003;5.778887e-002
2.971892e+003;5.786333e-002
2.973821e+003;5.728421e-002
2.975750e+003;5.680820e-002
2.977678e+003;5.673475e-002
2.979607e+003;5.647913e-002
2.981535e+003;5.632923e-002
2.983464e+003;5.639495e-002
2.985392e+003;5.594889e-002
2.987321e+003;5.567271e-002
2.989249e+003;5.561704e-002
2.991178e+003;5.526648e-002
2.993106e+003;5.499713e-002
2.995035e+003;5.500488e-002
2.996964e+003;5.467567e-002
2.998892e+003;5.397546e-002
3.000821e+003;5.379349e-002
3.002749e+003;5.392665e-002
3.004678e+003;5.362007e-002
3.006606e+003;5.330105e-002
3.008535e+003;5.309683e-002
3.010463e+003;5.298474e-002
3.012392e+003;5.306905e-002
3.014321e+003;5.320340e-002
3.016249e+003;5.331469e-002
3.018177e+003;5.354964e-002
3.020106e+003;5.366180e-002
3.022035e+003;5.361479e-002
3.023963e+003;5.372014e-002
3.025892e+003;5.412526e-002
3.027820e+003;5.463295e-002
3.029749e+003;5.513198e-002
3.031677e+003;5.521497e-002
3.033606e+003;5.516764e-002
3.035534e+003;5.534759e-002
3.037463e+003;5.581036e-002
3.039392e+003;5.631501e-002
3.041320e+003;5.663633e-002
3.043249e+003;5.681216e-002
3.045177e+003;5.718480e-002
3.047106e+003;5.779266e-002
3.049034e+003;5.825668e-002
3.050963e+003;5.837454e-002
3.052891e+003;5.843936e-002
3.054820e+003;5.879654e-002
3.056749e+003;5.945739e-002
3.058677e+003;5.981918e-002
3.060606e+003;5.986907e-002
3.062534e+003;5.989939e-002
3.064463e+003;6.015501e-002
3.066391e+003;6.027887e-002
3.068320e+003;6.030734e-002
3.070248e+003;6.061159e-002
3.072177e+003;6.058367e-002
3.074105e+003;6.054519e-002
3.076034e+003;6.084438e-002
3.077963e+003;6.094624e-002
3.079891e+003;6.068486e-002
3.081820e+003;6.038098e-002
3.083748e+003;6.063700e-002
3.085677e+003;6.058782e-002
3.087605e+003;6.004573e-002
3.089534e+003;6.001381e-002
3.091462e+003;5.988204e-002
3.093391e+003;5.948034e-002
3.095320e+003;5.940633e-002
3.097248e+003;5.927300e-002
3.099177e+003;5.897041e-002
3.101105e+003;5.887079e-002
3.103034e+003;5.849937e-002
3.104962e+003;5.788586e-002
3.106891e+003;5.783963e-002
3.108819e+003;5.779398e-002
3.110748e+003;5.752919e-002
3.112677e+003;5.752529e-002
3.114605e+003;5.753100e-002
3.116533e+003;5.730969e-002
3.118462e+003;5.729873e-002
3.120391e+003;5.742083e-002
3.122319e+003;5.723896e-002
3.124248e+003;5.701179e-002
3.126176e+003;5.706454e-002
3.128105e+003;5.714205e-002
3.130033e+003;5.734482e-002
3.131962e+003;5.737945e-002
3.133890e+003;5.750922e-002
3.135819e+003;5.754958e-002
3.137748e+003;5.729809e-002
3.139676e+003;5.757288e-002
3.141605e+003;5.816996e-002
3.143533e+003;5.861971e-002
3.145462e+003;5.885383e-002
3.147390e+003;5.895906e-002
3.149319e+003;5.920684e-002
3.151247e+003;5.959458e-002
3.153176e+003;5.965129e-002
3.155104e+003;5.965505e-002
3.157033e+003;5.991475e-002
3.158962e+003;6.008530e-002
3.160890e+003;6.056203e-002
3.162819e+003;6.155524e-002
3.164747e+003;6.222703e-002
3.166676e+003;6.260128e-002
3.168604e+003;6.303304e-002
3.170533e+003;6.361812e-002
3.172461e+003;6.424884e-002
3.174390e+003;6.488612e-002
3.176319e+003;6.554285e-002
3.178247e+003;6.580992e-002
3.180176e+003;6.584948e-002
3.182104e+003;6.616358e-002
3.184033e+003;6.626797e-002
3.185961e+003;6.691099e-002
3.187890e+003;6.809562e-002
3.189818e+003;6.893405e-002
3.191747e+003;6.899425e-002
3.193676e+003;6.946060e-002
3.195604e+003;7.032181e-002
3.197532e+003;7.105359e-002
3.199461e+003;7.157373e-002
3.201390e+003;7.211246e-002
3.203318e+003;7.303065e-002
3.205247e+003;7.368471e-002
3.207175e+003;7.415582e-002
3.209104e+003;7.469178e-002
3.211032e+003;7.532147e-002
3.212961e+003;7.608715e-002
3.214889e+003;7.722338e-002
3.216818e+003;7.809319e-002
3.218747e+003;7.866441e-002
3.220675e+003;7.943860e-002
3.222604e+003;8.024315e-002
3.224532e+003;8.077060e-002
3.226461e+003;8.129384e-002
3.228389e+003;8.218399e-002
3.230318e+003;8.307412e-002
3.232246e+003;8.370513e-002
3.234175e+003;8.478333e-002
3.236104e+003;8.615115e-002
3.238032e+003;8.712801e-002
3.239961e+003;8.785535e-002
3.241889e+003;8.882666e-002
3.243818e+003;8.978287e-002
3.245746e+003;9.039996e-002
3.247675e+003;9.135744e-002
3.249603e+003;9.298141e-002
3.251532e+003;9.436464e-002
3.253460e+003;9.556346e-002
3.255389e+003;9.678288e-002
3.257318e+003;9.784777e-002
3.259246e+003;9.922849e-002
3.261175e+003;1.006727e-001
3.263103e+003;1.017522e-001
3.265032e+003;1.027194e-001
3.266960e+003;1.039924e-001
3.268889e+003;1.054349e-001
3.270817e+003;1.069747e-001
3.272746e+003;1.080737e-001
3.274675e+003;1.086867e-001
3.276603e+003;1.093023e-001
3.278531e+003;1.097217e-001
3.280460e+003;1.096449e-001
3.282389e+003;1.094157e-001
3.284317e+003;1.093579e-001
3.286246e+003;1.090652e-001
3.288174e+003;1.084925e-001
3.290103e+003;1.077760e-001
3.292031e+003;1.071098e-001
3.293960e+003;1.061116e-001
3.295888e+003;1.047359e-001
3.297817e+003;1.034919e-001
3.299746e+003;1.023303e-001
3.301674e+003;1.010732e-001
3.303603e+003;9.957848e-002
3.305531e+003;9.797243e-002
3.307460e+003;9.649173e-002
3.309388e+003;9.493158e-002
3.311317e+003;9.381821e-002
3.313245e+003;9.292789e-002
3.315174e+003;9.138010e-002
3.317103e+003;8.931364e-002
3.319031e+003;8.774154e-002
3.320960e+003;8.658580e-002
3.322888e+003;8.527031e-002
3.324817e+003;8.429670e-002
3.326745e+003;8.303452e-002
3.328674e+003;8.171457e-002
3.330602e+003;8.055220e-002
3.332531e+003;7.938482e-002
3.334459e+003;7.835706e-002
3.336388e+003;7.725437e-002
3.338317e+003;7.616755e-002
3.340245e+003;7.511041e-002
3.342174e+003;7.387285e-002
3.344102e+003;7.285545e-002
3.346031e+003;7.184207e-002
3.347959e+003;7.086452e-002
3.349888e+003;7.012270e-002
3.351816e+003;6.970939e-002
3.353745e+003;6.933188e-002
3.355674e+003;6.845328e-002
3.357602e+003;6.777041e-002
3.359531e+003;6.713659e-002
3.361459e+003;6.627280e-002
3.363388e+003;6.589171e-002
3.365316e+003;6.536957e-002
3.367245e+003;6.468172e-002
3.369173e+003;6.444063e-002
3.371102e+003;6.418946e-002
3.373031e+003;6.359253e-002
3.374959e+003;6.299577e-002
3.376887e+003;6.244374e-002
3.378816e+003;6.212968e-002
3.380745e+003;6.170978e-002
3.382673e+003;6.150587e-002
3.384602e+003;6.126502e-002
3.386530e+003;6.039967e-002
3.388459e+003;5.946567e-002
3.390387e+003;5.882394e-002
3.392316e+003;5.851559e-002
3.394244e+003;5.831401e-002
3.396173e+003;5.793996e-002
3.398102e+003;5.756649e-002
3.400030e+003;5.749027e-002
3.401959e+003;5.720347e-002
3.403887e+003;5.686813e-002
3.405816e+003;5.654355e-002
3.407744e+003;5.564288e-002
3.409673e+003;5.487467e-002
3.411601e+003;5.477324e-002
3.413530e+003;5.467526e-002
3.415458e+003;5.408146e-002
3.417387e+003;5.357524e-002
3.419316e+003;5.317419e-002
3.421244e+003;5.271590e-002
3.423173e+003;5.218422e-002
3.425101e+003;5.173596e-002
3.427030e+003;5.152743e-002
3.428958e+003;5.108780e-002
3.430887e+003;5.069366e-002
3.432815e+003;5.059026e-002
3.434744e+003;5.025441e-002
3.436673e+003;4.991425e-002
3.438601e+003;4.961228e-002
3.440530e+003;4.865080e-002
3.442458e+003;4.837478e-002
3.444387e+003;4.854137e-002
3.446315e+003;4.843701e-002
3.448244e+003;4.821924e-002
3.450172e+003;4.794586e-002
3.452101e+003;4.765579e-002
3.454030e+003;4.719513e-002
3.455958e+003;4.701716e-002
3.457886e+003;4.705312e-002
3.459815e+003;4.701804e-002
3.461744e+003;4.653651e-002
3.463672e+003;4.634561e-002
3.465601e+003;4.633179e-002
3.467529e+003;4.567437e-002
3.469458e+003;4.545817e-002
3.471386e+003;4.529853e-002
3.473315e+003;4.478951e-002
3.475243e+003;4.426127e-002
3.477172e+003;4.409990e-002
3.479101e+003;4.444560e-002
3.481029e+003;4.483708e-002
3.482958e+003;4.487114e-002
3.484886e+003;4.481684e-002
3.486815e+003;4.464678e-002
3.488743e+003;4.435487e-002
3.490672e+003;4.414451e-002
3.492600e+003;4.398524e-002
3.494529e+003;4.346057e-002
3.496458e+003;4.307158e-002
3.498386e+003;4.303323e-002
3.500315e+003;4.278770e-002
3.502243e+003;4.222365e-002
3.504172e+003;4.236570e-002
3.506100e+003;4.243850e-002
3.508029e+003;4.249072e-002
3.509957e+003;4.231310e-002
3.511886e+003;4.218623e-002
3.513814e+003;4.215271e-002
3.515743e+003;4.161009e-002
3.517672e+003;4.115982e-002
3.519600e+003;4.102780e-002
3.521529e+003;4.087363e-002
3.523457e+003;4.071057e-002
3.525386e+003;4.036762e-002
3.527314e+003;3.987615e-002
3.529243e+003;3.985243e-002
3.531171e+003;4.003384e-002
3.533100e+003;3.997230e-002
3.535029e+003;3.987844e-002
3.536957e+003;3.932994e-002
3.538885e+003;3.882620e-002
3.540814e+003;3.850920e-002
3.542743e+003;3.845805e-002
3.544671e+003;3.853397e-002
3.546600e+003;3.817168e-002
3.548528e+003;3.767650e-002
3.550457e+003;3.733507e-002
3.552385e+003;3.694534e-002
3.554314e+003;3.704070e-002
3.556242e+003;3.716185e-002
3.558171e+003;3.656609e-002
3.560100e+003;3.588740e-002
3.562028e+003;3.565912e-002
3.563957e+003;3.567077e-002
3.565885e+003;3.528627e-002
3.567814e+003;3.477908e-002
3.569742e+003;3.460068e-002
3.571671e+003;3.429482e-002
3.573599e+003;3.423344e-002
3.575528e+003;3.404325e-002
3.577457e+003;3.377804e-002
3.579385e+003;3.357491e-002
3.581314e+003;3.296736e-002
3.583242e+003;3.255631e-002
3.585171e+003;3.230514e-002
3.587099e+003;3.223037e-002
3.589028e+003;3.234502e-002
3.590956e+003;3.192244e-002
3.592885e+003;3.118256e-002
3.594813e+003;3.064668e-002
3.596742e+003;3.044693e-002
3.598671e+003;3.018017e-002
3.600599e+003;3.010684e-002
3.602528e+003;2.987713e-002
3.604456e+003;2.937760e-002
3.606385e+003;2.915451e-002
3.608313e+003;2.918382e-002
3.610242e+003;2.879921e-002
3.612170e+003;2.823001e-002
3.614099e+003;2.760587e-002
3.616028e+003;2.692485e-002
3.617956e+003;2.621469e-002
3.619885e+003;2.583980e-002
3.621813e+003;2.584881e-002
3.623742e+003;2.576290e-002
3.625670e+003;2.531233e-002
3.627599e+003;2.473922e-002
3.629527e+003;2.384111e-002
3.631456e+003;2.290339e-002
3.633385e+003;2.291286e-002
3.635313e+003;2.283641e-002
3.637241e+003;2.199481e-002
3.639170e+003;2.089631e-002
3.641099e+003;2.042519e-002
3.643027e+003;2.040543e-002
3.644956e+003;1.991285e-002
3.646884e+003;1.909233e-002
3.648813e+003;1.871601e-002
3.650741e+003;1.827945e-002
3.652670e+003;1.758887e-002
3.654598e+003;1.707045e-002
3.656527e+003;1.632495e-002
3.658456e+003;1.562585e-002
3.660384e+003;1.513602e-002
3.662313e+003;1.454716e-002
3.664241e+003;1.398315e-002
3.666170e+003;1.342059e-002
3.668098e+003;1.292661e-002
3.670027e+003;1.234923e-002
3.671955e+003;1.186964e-002
3.673884e+003;1.184666e-002
3.675813e+003;1.168420e-002
3.677741e+003;1.115588e-002
3.679669e+003;1.040037e-002
3.681598e+003;9.809549e-003
3.683527e+003;9.321184e-003
3.685455e+003;9.106339e-003
3.687384e+003;8.996114e-003
3.689312e+003;8.930258e-003
3.691241e+003;8.912636e-003
3.693169e+003;8.389266e-003
3.695098e+003;7.685382e-003
3.697026e+003;7.322310e-003
3.698955e+003;7.232111e-003
3.700884e+003;7.070461e-003
3.702812e+003;7.092015e-003
3.704741e+003;7.028096e-003
3.706669e+003;7.104510e-003
3.708598e+003;6.908366e-003
3.710526e+003;6.577091e-003
3.712455e+003;6.304493e-003
3.714383e+003;6.080349e-003
3.716312e+003;6.211346e-003
3.718240e+003;6.162007e-003
3.720169e+003;5.717305e-003
3.722098e+003;5.323101e-003
3.724026e+003;5.108347e-003
3.725955e+003;5.312703e-003
3.727883e+003;5.366373e-003
3.729812e+003;5.186906e-003
3.731740e+003;5.372881e-003
3.733669e+003;5.515310e-003
3.735597e+003;5.827271e-003
3.737526e+003;5.664834e-003
3.739455e+003;5.048373e-003
3.741383e+003;4.566635e-003
3.743312e+003;4.233260e-003
3.745240e+003;4.611574e-003
3.747169e+003;4.999066e-003
3.749097e+003;4.868601e-003
3.751026e+003;4.799715e-003
3.752954e+003;5.006205e-003
3.754883e+003;5.171414e-003
3.756812e+003;4.949261e-003
3.758740e+003;4.854729e-003
3.760668e+003;4.850038e-003
3.762597e+003;4.531277e-003
3.764526e+003;4.421873e-003
3.766454e+003;4.511222e-003
3.768383e+003;4.529201e-003
3.770311e+003;4.692018e-003
3.772240e+003;4.897251e-003
3.774168e+003;4.665459e-003
3.776097e+003;4.534190e-003
3.778025e+003;4.509280e-003
3.779954e+003;4.607053e-003
3.781883e+003;4.804104e-003
3.783811e+003;4.737673e-003
3.785740e+003;4.523443e-003
3.787668e+003;4.462378e-003
3.789597e+003;4.525887e-003
3.791525e+003;4.483970e-003
3.793454e+003;4.313769e-003
3.795382e+003;4.389975e-003
3.797311e+003;4.278866e-003
3.799240e+003;4.514570e-003
3.801168e+003;4.729567e-003
3.803097e+003;4.405840e-003
3.805025e+003;4.543934e-003
3.806954e+003;4.472086e-003
3.808882e+003;4.129818e-003
3.810811e+003;3.893621e-003
3.812739e+003;4.176150e-003
3.814668e+003;4.578053e-003
3.816596e+003;4.427965e-003
3.818525e+003;4.268627e-003
3.820454e+003;4.491503e-003
3.822382e+003;4.719116e-003
3.824311e+003;4.900903e-003
3.826239e+003;4.845783e-003
3.828168e+003;4.630294e-003
3.830096e+003;4.410626e-003
3.832025e+003;4.103527e-003
3.833953e+003;4.288637e-003
3.835882e+003;4.518353e-003
3.837811e+003;4.242126e-003
3.839739e+003;3.988512e-003
3.841667e+003;4.083726e-003
3.843596e+003;4.466094e-003
3.845525e+003;4.677281e-003
3.847453e+003;4.476438e-003
3.849382e+003;4.582909e-003
3.851310e+003;5.126049e-003
3.853239e+003;5.286440e-003
3.855167e+003;5.066341e-003
3.857096e+003;4.931767e-003
3.859024e+003;4.883445e-003
3.860953e+003;4.680463e-003
3.862882e+003;4.717207e-003
3.864810e+003;4.921781e-003
3.866739e+003;5.084645e-003
3.868667e+003;5.186872e-003
3.870596e+003;5.119377e-003
3.872524e+003;5.168731e-003
3.874453e+003;5.184458e-003
3.876381e+003;5.324107e-003
3.878310e+003;5.703843e-003
3.880239e+003;5.796512e-003
3.882167e+003;5.700251e-003
3.884096e+003;5.592465e-003
3.886024e+003;5.484505e-003
3.887953e+003;5.461487e-003
3.889881e+003;5.865086e-003
3.891810e+003;6.165234e-003
3.893738e+003;6.305434e-003
3.895667e+003;6.848311e-003
3.897595e+003;7.070696e-003
3.899524e+003;7.022102e-003
3.901453e+003;7.017691e-003
3.903381e+003;6.995062e-003
3.905310e+003;6.599361e-003
3.907238e+003;6.525861e-003
3.909167e+003;6.795804e-003
3.911095e+003;6.656117e-003
3.913024e+003;6.537162e-003
3.914952e+003;7.171607e-003
3.916881e+003;7.521204e-003
3.918810e+003;7.359614e-003
3.920738e+003;7.303035e-003
3.922667e+003;6.968395e-003
3.924595e+003;6.809233e-003
3.926524e+003;7.113167e-003
3.928452e+003;7.089489e-003
3.930381e+003;7.416538e-003
3.932309e+003;7.988445e-003
3.934238e+003;7.780567e-003
3.936167e+003;7.599087e-003
3.938095e+003;8.149459e-003
3.940023e+003;8.322421e-003
3.941952e+003;8.202096e-003
3.943881e+003;8.202975e-003
3.945809e+003;8.050514e-003
3.947738e+003;8.324414e-003
3.949666e+003;8.557356e-003
3.951595e+003;8.121911e-003
3.953523e+003;7.921256e-003
3.955452e+003;7.682516e-003
3.957380e+003;7.676074e-003
3.959309e+003;8.011092e-003
3.961238e+003;8.104525e-003
3.963166e+003;8.608353e-003
3.965095e+003;8.775750e-003
3.967023e+003;8.439096e-003
3.968952e+003;8.458724e-003
3.970880e+003;8.442474e-003
3.972809e+003;8.460110e-003
3.974737e+003;8.499168e-003
3.976666e+003;8.435750e-003
3.978594e+003;8.135988e-003
3.980523e+003;8.280845e-003
3.982452e+003;8.429163e-003
3.984380e+003;8.216481e-003
3.986309e+003;8.263588e-003
3.988237e+003;8.365925e-003
3.990166e+003;8.254065e-003
3.992094e+003;8.165023e-003
3.994023e+003;8.304013e-003
3.995951e+003;8.183526e-003
3.997880e+003;8.424501e-003
3.999809e+003;8.943381e-003
4.001737e+003;0.000000e+000
