3.992094e+002;0.000000e+000
4.011380e+002;0.000000e+000
4.030665e+002;0.000000e+000
4.049951e+002;0.000000e+000
4.069236e+002;0.000000e+000
4.088522e+002;0.000000e+000
4.107807e+002;0.000000e+000
4.127093e+002;0.000000e+000
4.146378e+002;0.000000e+000
4.165664e+002;0.000000e+000
4.184949e+002;0.000000e+000
4.204235e+002;0.000000e+000
4.223520e+002;0.000000e+000
4.242806e+002;0.000000e+000
4.262091e+002;0.000000e+000
4.281377e+002;0.000000e+000
4.300662e+002;0.000000e+000
4.319948e+002;0.000000e+000
4.339233e+002;0.000000e+000
4.358519e+002;0.000000e+000
4.377804e+002;0.000000e+000
4.397090e+002;0.000000e+000
4.416375e+002;0.000000e+000
4.435660e+002;0.000000e+000
4.454946e+002;0.000000e+000
4.474232e+002;0.000000e+000
4.493517e+002;0.000000e+000
4.512802e+002;0.000000e+000
4.532088e+002;0.000000e+000
4.551373e+002;0.000000e+000
4.570659e+002;0.000000e+000
4.589944e+002;0.000000e+000
4.609230e+002;0.000000e+000
4.628515e+002;0.000000e+000
4.647801e+002;0.000000e+000
4.667086e+002;0.000000e+000
4.686372e+002;0.000000e+000
4.705657e+002;0.000000e+000
4.724943e+002;0.000000e+000
4.744228e+002;0.000000e+000
4.763513e+002;0.000000e+000
4.782799e+002;0.000000e+000
4.802085e+002;0.000000e+000
4.821370e+002;0.000000e+000
4.840656e+002;0.000000e+000
4.859941e+002;0.000000e+000
4.879226e+002;0.000000e+000
4.898512e+002;0.000000e+000
4.917798e+002;0.000000e+000
4.937083e+002;0.000000e+000
4.956368e+002;0.000000e+000
4.975654e+002;0.000000e+000
4.994939e+002;0.000000e+000
5.014225e+002;0.000000e+000
5.033510e+002;0.000000e+000
5.052796e+002;0.000000e+000
5.072081e+002;0.000000e+000
5.091367e+002;0.000000e+000
5.110652e+002;0.000000e+000
5.129938e+002;0.000000e+000
5.149223e+002;0.000000e+000
5.168509e+002;0.000000e+000
5.187794e+002;0.000000e+000
5.207079e+002;0.000000e+000
5.226365e+002;0.000000e+000
5.245651e+002;0.000000e+000
5.264936e+002;0.000000e+000
5.284222e+002;0.000000e+000
5.303507e+002;0.000000e+000
5.322792e+002;0.000000e+000
5.342078e+002;0.000000e+000
5.361364e+002;0.000000e+000
5.380649e+002;0.000000e+000
5.399935e+002;0.000000e+000
5.419220e+002;0.000000e+000
5.438505e+002;0.000000e+000
5.457791e+002;0.000000e+000
5.477076e+002;0.000000e+000
5.496362e+002;0.000000e+000
5.515648e+002;0.000000e+000
5.534933e+002;0.000000e+000
5.554218e+002;0.000000e+000
5.573504e+002;0.000000e+000
5.592789e+002;0.000000e+000
5.612075e+002;0.000000e+000
5.631360e+002;0.000000e+000
5.650646e+002;0.000000e+000
5.669931e+002;0.000000e+000
5.689217e+002;0.000000e+000
5.708502e+002;0.000000e+000
5.727787e+002;0.000000e+000
5.747073e+002;0.000000e+000
5.766359e+002;0.000000e+000
5.785644e+002;0.000000e+000
5.804930e+002;0.000000e+000
5.824215e+002;0.000000e+000
5.843500e+002;0.000000e+000
5.862786e+002;0.000000e+000
5.882072e+002;0.000000e+000
5.901357e+002;0.000000e+000
5.920643e+002;0.000000e+000
5.939928e+002;0.000000e+000
5.959213e+002;0.000000e+000
5.978499e+002;0.000000e+000
5.997784e+002;2.240542e-001
6.017070e+002;2.229681e-001
6.036355e+002;2.278899e-001
6.055641e+002;2.297689e-001
6.074926e+002;2.196180e-001
6.094211e+002;2.105240e-001
6.113497e+002;2.118702e-001
6.132783e+002;2.205339e-001
6.152068e+002;2.236853e-001
6.171354e+002;2.189734e-001
6.190639e+002;2.193263e-001
6.209924e+002;2.231037e-001
6.229210e+002;2.243755e-001
6.248495e+002;2.201403e-001
6.267781e+002;2.159205e-001
6.287067e+002;2.183656e-001
6.306352e+002;2.203386e-001
6.325637e+002;2.139476e-001
6.344923e+002;2.119709e-001
6.364208e+002;2.132159e-001
6.383494e+002;2.114710e-001
6.402780e+002;2.139828e-001
6.422065e+002;2.166854e-001
6.441350e+002;2.150029e-001
6.460636e+002;2.142360e-001
6.479921e+002;2.128992e-001
6.499207e+002;2.097197e-001
6.518492e+002;2.098842e-001
6.537778e+002;2.093586e-001
6.557063e+002;2.082072e-001
6.576349e+002;2.054359e-001
6.595634e+002;2.056054e-001
6.614919e+002;2.097811e-001
6.634205e+002;2.113570e-001
6.653491e+002;2.095344e-001
6.672776e+002;2.062633e-001
6.692062e+002;2.049785e-001
6.711347e+002;2.023997e-001
6.730632e+002;2.018229e-001
6.749918e+002;2.020792e-001
6.769203e+002;2.008796e-001
6.788489e+002;2.005119e-001
6.807775e+002;1.998082e-001
6.827060e+002;1.975355e-001
6.846345e+002;1.965875e-001
6.865631e+002;1.972730e-001
6.884916e+002;1.963768e-001
6.904202e+002;1.949859e-001
6.923488e+002;1.939224e-001
6.942773e+002;1.924414e-001
6.962058e+002;1.915499e-001
6.981344e+002;1.903300e-001
7.000629e+002;1.880520e-001
7.019915e+002;1.857847e-001
7.039200e+002;1.834508e-001
7.058486e+002;1.816304e-001
7.077771e+002;1.808503e-001
7.097057e+002;1.803170e-001
7.116342e+002;1.785704e-001
7.135627e+002;1.764938e-001
7.154913e+002;1.749810e-001
7.174199e+002;1.735742e-001
7.193484e+002;1.711636e-001
7.212770e+002;1.684602e-001
7.232055e+002;1.671609e-001
7.251340e+002;1.662333e-001
7.270626e+002;1.651082e-001
7.289911e+002;1.621597e-001
7.309197e+002;1.590200e-001
7.328483e+002;1.569732e-001
7.347768e+002;1.557596e-001
7.367053e+002;1.545770e-001
7.386339e+002;1.529024e-001
7.405624e+002;1.508573e-001
7.424910e+002;1.497091e-001
7.444196e+002;1.487331e-001
7.463481e+002;1.474129e-001
7.482766e+002;1.452638e-001
7.502052e+002;1.432573e-001
7.521337e+002;1.414156e-001
7.540623e+002;1.399414e-001
7.559908e+002;1.387942e-001
7.579194e+002;1.378816e-001
7.598479e+002;1.361253e-001
7.617765e+002;1.339407e-001
7.637050e+002;1.329373e-001
7.656335e+002;1.315926e-001
7.675621e+002;1.292952e-001
7.694907e+002;1.280708e-001
7.714192e+002;1.273003e-001
7.733478e+002;1.261790e-001
7.752763e+002;1.241873e-001
7.772048e+002;1.225208e-001
7.791334e+002;1.216201e-001
7.810620e+002;1.207679e-001
7.829905e+002;1.191042e-001
7.849191e+002;1.172143e-001
7.868476e+002;1.156920e-001
7.887761e+002;1.141220e-001
7.907047e+002;1.130887e-001
7.926332e+002;1.114454e-001
7.945618e+002;1.102193e-001
7.964903e+002;1.100152e-001
7.984189e+002;1.087425e-001
8.003474e+002;1.073423e-001
8.022759e+002;1.065071e-001
8.042045e+002;1.061797e-001
8.061331e+002;1.064550e-001
8.080616e+002;1.064545e-001
8.099902e+002;1.056493e-001
8.119187e+002;1.050007e-001
8.138472e+002;1.048615e-001
8.157758e+002;1.042270e-001
8.177043e+002;1.040823e-001
8.196329e+002;1.044545e-001
8.215615e+002;1.042118e-001
8.234900e+002;1.041851e-001
8.254185e+002;1.044790e-001
8.273471e+002;1.050243e-001
8.292756e+002;1.055687e-001
8.312042e+002;1.053136e-001
8.331328e+002;1.043443e-001
8.350613e+002;1.031181e-001
8.369898e+002;1.014381e-001
8.389184e+002;1.002001e-001
8.408469e+002;9.957453e-002
8.427755e+002;9.964083e-002
8.447040e+002;9.941687e-002
8.466326e+002;9.862726e-002
8.485611e+002;9.848158e-002
8.504897e+002;9.863970e-002
8.524182e+002;9.861998e-002
8.543467e+002;9.830878e-002
8.562753e+002;9.697156e-002
8.582039e+002;9.499636e-002
8.601324e+002;9.312989e-002
8.620610e+002;9.150966e-002
8.639895e+002;9.032367e-002
8.659180e+002;8.907541e-002
8.678466e+002;8.809291e-002
8.697751e+002;8.769993e-002
8.717037e+002;8.763579e-002
8.736323e+002;8.787068e-002
8.755608e+002;8.769771e-002
8.774893e+002;8.734707e-002
8.794179e+002;8.680361e-002
8.813464e+002;8.607113e-002
8.832750e+002;8.558203e-002
8.852036e+002;8.492634e-002
8.871321e+002;8.441358e-002
8.890606e+002;8.437761e-002
8.909892e+002;8.465169e-002
8.929177e+002;8.504690e-002
8.948463e+002;8.479050e-002
8.967748e+002;8.455337e-002
8.987034e+002;8.456158e-002
9.006319e+002;8.477250e-002
9.025605e+002;8.509914e-002
9.044890e+002;8.547233e-002
9.064175e+002;8.593343e-002
9.083461e+002;8.595112e-002
9.102747e+002;8.634251e-002
9.122032e+002;8.720006e-002
9.141318e+002;8.800825e-002
9.160603e+002;8.894083e-002
9.179888e+002;9.007122e-002
9.199174e+002;9.139195e-002
9.218459e+002;9.258239e-002
9.237745e+002;9.370151e-002
9.257031e+002;9.453048e-002
9.276316e+002;9.522643e-002
9.295601e+002;9.592010e-002
9.314887e+002;9.684019e-002
9.334172e+002;9.748606e-002
9.353458e+002;9.772546e-002
9.372744e+002;9.833217e-002
9.392029e+002;9.916562e-002
9.411314e+002;9.982822e-002
9.430600e+002;1.008108e-001
9.449885e+002;1.013732e-001
9.469171e+002;1.021141e-001
9.488456e+002;1.034352e-001
9.507742e+002;1.046160e-001
9.527027e+002;1.058570e-001
9.546313e+002;1.072055e-001
9.565598e+002;1.080485e-001
9.584883e+002;1.092148e-001
9.604169e+002;1.108123e-001
9.623455e+002;1.121219e-001
9.642740e+002;1.129551e-001
9.662026e+002;1.138289e-001
9.681311e+002;1.145272e-001
9.700596e+002;1.152861e-001
9.719882e+002;1.164297e-001
9.739167e+002;1.176015e-001
9.758453e+002;1.184923e-001
9.777739e+002;1.192191e-001
9.797024e+002;1.197398e-001
9.816309e+002;1.203983e-001
9.835595e+002;1.215691e-001
9.854880e+002;1.233605e-001
9.874166e+002;1.256693e-001
9.893452e+002;1.285457e-001
9.912737e+002;1.318180e-001
9.932022e+002;1.351723e-001
9.951307e+002;1.382039e-001
9.970593e+002;1.409622e-001
9.989879e+002;1.440042e-001
1.000916e+003;1.468515e-001
1.002845e+003;1.497712e-001
1.004773e+003;1.528969e-001
1.006702e+003;1.554274e-001
1.008631e+003;1.577473e-001
1.010559e+003;1.602908e-001
1.012488e+003;1.617920e-001
1.014416e+003;1.625660e-001
1.016345e+003;1.629413e-001
1.018273e+003;1.627276e-001
1.020202e+003;1.626065e-001
1.022130e+003;1.623302e-001
1.024059e+003;1.625599e-001
1.025988e+003;1.634486e-001
1.027916e+003;1.645013e-001
1.029845e+003;1.659504e-001
1.031773e+003;1.676220e-001
1.033702e+003;1.692007e-001
1.035630e+003;1.704731e-001
1.037559e+003;1.710992e-001
1.039487e+003;1.720989e-001
1.041416e+003;1.729748e-001
1.043344e+003;1.730746e-001
1.045273e+003;1.733501e-001
1.047202e+003;1.737678e-001
1.049130e+003;1.735393e-001
1.051059e+003;1.733258e-001
1.052987e+003;1.734846e-001
1.054916e+003;1.738156e-001
1.056844e+003;1.736253e-001
1.058773e+003;1.733494e-001
1.060701e+003;1.732910e-001
1.062630e+003;1.730735e-001
1.064558e+003;1.725291e-001
1.066487e+003;1.714077e-001
1.068416e+003;1.703221e-001
1.070344e+003;1.689564e-001
1.072273e+003;1.677016e-001
1.074201e+003;1.666738e-001
1.076130e+003;1.653001e-001
1.078058e+003;1.632703e-001
1.079987e+003;1.606113e-001
1.081915e+003;1.581479e-001
1.083844e+003;1.560918e-001
1.085773e+003;1.538856e-001
1.087701e+003;1.516057e-001
1.089630e+003;1.491202e-001
1.091558e+003;1.464619e-001
1.093487e+003;1.439934e-001
1.095415e+003;1.423872e-001
1.097344e+003;1.418057e-001
1.099272e+003;1.415831e-001
1.101201e+003;1.405394e-001
1.103129e+003;1.399328e-001
1.105058e+003;1.396755e-001
1.106987e+003;1.387542e-001
1.108915e+003;1.372242e-001
1.110844e+003;1.352077e-001
1.112772e+003;1.336518e-001
1.114701e+003;1.321282e-001
1.116629e+003;1.310939e-001
1.118558e+003;1.305613e-001
1.120486e+003;1.296190e-001
1.122415e+003;1.291193e-001
1.124344e+003;1.288371e-001
1.126272e+003;1.281331e-001
1.128201e+003;1.279785e-001
1.130129e+003;1.282017e-001
1.132058e+003;1.283492e-001
1.133986e+003;1.287872e-001
1.135915e+003;1.299901e-001
1.137843e+003;1.314484e-001
1.139772e+003;1.326846e-001
1.141700e+003;1.342922e-001
1.143629e+003;1.362748e-001
1.145557e+003;1.383235e-001
1.147486e+003;1.402284e-001
1.149415e+003;1.420626e-001
1.151343e+003;1.439293e-001
1.153272e+003;1.456585e-001
1.155200e+003;1.472868e-001
1.157129e+003;1.486506e-001
1.159057e+003;1.501158e-001
1.160986e+003;1.512838e-001
1.162914e+003;1.515101e-001
1.164843e+003;1.517898e-001
1.166771e+003;1.519111e-001
1.168700e+003;1.519533e-001
1.170629e+003;1.520508e-001
1.172557e+003;1.513554e-001
1.174486e+003;1.502016e-001
1.176414e+003;1.490336e-001
1.178343e+003;1.472746e-001
1.180271e+003;1.453415e-001
1.182200e+003;1.436020e-001
1.184128e+003;1.423158e-001
1.186057e+003;1.414602e-001
1.187986e+003;1.413332e-001
1.189914e+003;1.421241e-001
1.191843e+003;1.436487e-001
1.193771e+003;1.456926e-001
1.195700e+003;1.483238e-001
1.197628e+003;1.512978e-001
1.199557e+003;1.547358e-001
1.201485e+003;1.589352e-001
1.203414e+003;1.631716e-001
1.205343e+003;1.672821e-001
1.207271e+003;1.718104e-001
1.209200e+003;1.765050e-001
1.211128e+003;1.810258e-001
1.213057e+003;1.850157e-001
1.214985e+003;1.883696e-001
1.216914e+003;1.917745e-001
1.218842e+003;1.955782e-001
1.220771e+003;1.986224e-001
1.222699e+003;2.009282e-001
1.224628e+003;2.032537e-001
1.226557e+003;2.047647e-001
1.228485e+003;2.054305e-001
1.230414e+003;2.057247e-001
1.232342e+003;2.052288e-001
1.234271e+003;2.045644e-001
1.236199e+003;2.039140e-001
1.238128e+003;2.023848e-001
1.240056e+003;2.003500e-001
1.241985e+003;1.983712e-001
1.243913e+003;1.960626e-001
1.245842e+003;1.936135e-001
1.247771e+003;1.914555e-001
1.249699e+003;1.893866e-001
1.251628e+003;1.873678e-001
1.253556e+003;1.853646e-001
1.255485e+003;1.829975e-001
1.257413e+003;1.808818e-001
1.259342e+003;1.789907e-001
1.261270e+003;1.764715e-001
1.263199e+003;1.741877e-001
1.265127e+003;1.723097e-001
1.267056e+003;1.704248e-001
1.268985e+003;1.683566e-001
1.270913e+003;1.663658e-001
1.272842e+003;1.641986e-001
1.274770e+003;1.620893e-001
1.276699e+003;1.601186e-001
1.278627e+003;1.584683e-001
1.280556e+003;1.567467e-001
1.282484e+003;1.548992e-001
1.284413e+003;1.533804e-001
1.286342e+003;1.521347e-001
1.288270e+003;1.512146e-001
1.290199e+003;1.504798e-001
1.292127e+003;1.495377e-001
1.294056e+003;1.488021e-001
1.295984e+003;1.480327e-001
1.297913e+003;1.473502e-001
1.299841e+003;1.467241e-001
1.301770e+003;1.459920e-001
1.303698e+003;1.456200e-001
1.305627e+003;1.449756e-001
1.307556e+003;1.442409e-001
1.309484e+003;1.436503e-001
1.311413e+003;1.428954e-001
1.313341e+003;1.420609e-001
1.315270e+003;1.413855e-001
1.317198e+003;1.410007e-001
1.319127e+003;1.408952e-001
1.321055e+003;1.411636e-001
1.322984e+003;1.416082e-001
1.324912e+003;1.417817e-001
1.326841e+003;1.420598e-001
1.328770e+003;1.427236e-001
1.330698e+003;1.431968e-001
1.332627e+003;1.434405e-001
1.334555e+003;1.439227e-001
1.336484e+003;1.442516e-001
1.338412e+003;1.443557e-001
1.340341e+003;1.445781e-001
1.342269e+003;1.448182e-001
1.344198e+003;1.448756e-001
1.346126e+003;1.447973e-001
1.348055e+003;1.445049e-001
1.349984e+003;1.445140e-001
1.351912e+003;1.448726e-001
1.353841e+003;1.454519e-001
1.355769e+003;1.461482e-001
1.357698e+003;1.474909e-001
1.359626e+003;1.497128e-001
1.361555e+003;1.521840e-001
1.363483e+003;1.548617e-001
1.365412e+003;1.578448e-001
1.367341e+003;1.606008e-001
1.369269e+003;1.628076e-001
1.371198e+003;1.642160e-001
1.373126e+003;1.650648e-001
1.375055e+003;1.656797e-001
1.376983e+003;1.661674e-001
1.378912e+003;1.664509e-001
1.380840e+003;1.663112e-001
1.382769e+003;1.658697e-001
1.384698e+003;1.655322e-001
1.386626e+003;1.653139e-001
1.388555e+003;1.650232e-001
1.390483e+003;1.646591e-001
1.392412e+003;1.642044e-001
1.394340e+003;1.635337e-001
1.396269e+003;1.632023e-001
1.398197e+003;1.634108e-001
1.400126e+003;1.641197e-001
1.402054e+003;1.650646e-001
1.403983e+003;1.661698e-001
1.405911e+003;1.675562e-001
1.407840e+003;1.691494e-001
1.409769e+003;1.707178e-001
1.411697e+003;1.722294e-001
1.413626e+003;1.731273e-001
1.415554e+003;1.737650e-001
1.417483e+003;1.743981e-001
1.419411e+003;1.747966e-001
1.421340e+003;1.748802e-001
1.423268e+003;1.752097e-001
1.425197e+003;1.762262e-001
1.427125e+003;1.777779e-001
1.429054e+003;1.797912e-001
1.430983e+003;1.822052e-001
1.432911e+003;1.851286e-001
1.434840e+003;1.884071e-001
1.436768e+003;1.916774e-001
1.438697e+003;1.949692e-001
1.440625e+003;1.980195e-001
1.442554e+003;2.006783e-001
1.444482e+003;2.028407e-001
1.446411e+003;2.040402e-001
1.448340e+003;2.039707e-001
1.450268e+003;2.034220e-001
1.452197e+003;2.023440e-001
1.454125e+003;2.007818e-001
1.456054e+003;1.990723e-001
1.457982e+003;1.975248e-001
1.459911e+003;1.963249e-001
1.461839e+003;1.954194e-001
1.463768e+003;1.946378e-001
1.465697e+003;1.940298e-001
1.467625e+003;1.937860e-001
1.469554e+003;1.938656e-001
1.471482e+003;1.945070e-001
1.473411e+003;1.957831e-001
1.475339e+003;1.977786e-001
1.477268e+003;2.002823e-001
1.479196e+003;2.034978e-001
1.481125e+003;2.081385e-001
1.483053e+003;2.139724e-001
1.484982e+003;2.201299e-001
1.486911e+003;2.265821e-001
1.488839e+003;2.334506e-001
1.490768e+003;2.408809e-001
1.492696e+003;2.484213e-001
1.494625e+003;2.555356e-001
1.496553e+003;2.622601e-001
1.498482e+003;2.684592e-001
1.500410e+003;2.742284e-001
1.502339e+003;2.795592e-001
1.504267e+003;2.841065e-001
1.506196e+003;2.875040e-001
1.508125e+003;2.904717e-001
1.510053e+003;2.932587e-001
1.511982e+003;2.952724e-001
1.513910e+003;2.961014e-001
1.515839e+003;2.949515e-001
1.517767e+003;2.913981e-001
1.519696e+003;2.864851e-001
1.521624e+003;2.806015e-001
1.523553e+003;2.754406e-001
1.525481e+003;2.708759e-001
1.527410e+003;2.666610e-001
1.529339e+003;2.628139e-001
1.531267e+003;2.590764e-001
1.533196e+003;2.553208e-001
1.535124e+003;2.515963e-001
1.537053e+003;2.477974e-001
1.538981e+003;2.436361e-001
1.540910e+003;2.395665e-001
1.542838e+003;2.357594e-001
1.544767e+003;2.318995e-001
1.546695e+003;2.278214e-001
1.548624e+003;2.234016e-001
1.550553e+003;2.190736e-001
1.552481e+003;2.150038e-001
1.554410e+003;2.105646e-001
1.556338e+003;2.059475e-001
1.558267e+003;2.011195e-001
1.560195e+003;1.966129e-001
1.562124e+003;1.927498e-001
1.564052e+003;1.886930e-001
1.565981e+003;1.845782e-001
1.567910e+003;1.806680e-001
1.569838e+003;1.765627e-001
1.571767e+003;1.731336e-001
1.573695e+003;1.702453e-001
1.575624e+003;1.676061e-001
1.577552e+003;1.655752e-001
1.579481e+003;1.641477e-001
1.581409e+003;1.629800e-001
1.583338e+003;1.621161e-001
1.585266e+003;1.621067e-001
1.587195e+003;1.630286e-001
1.589124e+003;1.644198e-001
1.591052e+003;1.663564e-001
1.592981e+003;1.691196e-001
1.594909e+003;1.723180e-001
1.596838e+003;1.757061e-001
1.598766e+003;1.795231e-001
1.600695e+003;1.840119e-001
1.602623e+003;1.895337e-001
1.604552e+003;1.956847e-001
1.606480e+003;2.025349e-001
1.608409e+003;2.109864e-001
1.610338e+003;2.208609e-001
1.612266e+003;2.309450e-001
1.614195e+003;2.406701e-001
1.616123e+003;2.501406e-001
1.618052e+003;2.593574e-001
1.619980e+003;2.684021e-001
1.621909e+003;2.772712e-001
1.623837e+003;2.852847e-001
1.625766e+003;2.922467e-001
1.627694e+003;2.976051e-001
1.629623e+003;3.012755e-001
1.631552e+003;3.035768e-001
1.633480e+003;3.046291e-001
1.635409e+003;3.040380e-001
1.637337e+003;3.021248e-001
1.639266e+003;2.999560e-001
1.641194e+003;2.973244e-001
1.643123e+003;2.936989e-001
1.645051e+003;2.888872e-001
1.646980e+003;2.838613e-001
1.648909e+003;2.783763e-001
1.650837e+003;2.721279e-001
1.652766e+003;2.653093e-001
1.654694e+003;2.590230e-001
1.656623e+003;2.529456e-001
1.658551e+003;2.462528e-001
1.660480e+003;2.394565e-001
1.662408e+003;2.328650e-001
1.664337e+003;2.265466e-001
1.666266e+003;2.201334e-001
1.668194e+003;2.139218e-001
1.670123e+003;2.080016e-001
1.672051e+003;2.023274e-001
1.673980e+003;1.967980e-001
1.675908e+003;1.913644e-001
1.677837e+003;1.862668e-001
1.679765e+003;1.812399e-001
1.681694e+003;1.761502e-001
1.683622e+003;1.711499e-001
1.685551e+003;1.665263e-001
1.687479e+003;1.622625e-001
1.689408e+003;1.579830e-001
1.691337e+003;1.538739e-001
1.693265e+003;1.502907e-001
1.695194e+003;1.463139e-001
1.697122e+003;1.417743e-001
1.699051e+003;1.369633e-001
1.700979e+003;1.311480e-001
1.702908e+003;1.247220e-001
1.704836e+003;1.174955e-001
1.706765e+003;1.096502e-001
1.708693e+003;1.018817e-001
1.710622e+003;9.483363e-002
1.712551e+003;8.834314e-002
1.714479e+003;8.199662e-002
1.716408e+003;7.593748e-002
1.718336e+003;7.089288e-002
1.720265e+003;6.694327e-002
1.722193e+003;6.344043e-002
1.724122e+003;6.047222e-002
1.726050e+003;5.825445e-002
1.727979e+003;5.639155e-002
1.729908e+003;5.483373e-002
1.731836e+003;5.337965e-002
1.733765e+003;5.212884e-002
1.735693e+003;5.139814e-002
1.737622e+003;5.052471e-002
1.739550e+003;4.922649e-002
1.741479e+003;4.790583e-002
1.743407e+003;4.628862e-002
1.745336e+003;4.483771e-002
1.747265e+003;4.323065e-002
1.749193e+003;4.142077e-002
1.751122e+003;3.977671e-002
1.753050e+003;3.831866e-002
1.754979e+003;3.667716e-002
1.756907e+003;3.476102e-002
1.758836e+003;3.307125e-002
1.760764e+003;3.179657e-002
1.762693e+003;3.102431e-002
1.764621e+003;3.038218e-002
1.766550e+003;2.958998e-002
1.768479e+003;2.896661e-002
1.770407e+003;2.845121e-002
1.772336e+003;2.782230e-002
1.774264e+003;2.735441e-002
1.776193e+003;2.705756e-002
1.778121e+003;2.655608e-002
1.780050e+003;2.617165e-002
1.781978e+003;2.590508e-002
1.783907e+003;2.557657e-002
1.785835e+003;2.529006e-002
1.787764e+003;2.487173e-002
1.789693e+003;2.428354e-002
1.791621e+003;2.388109e-002
1.793550e+003;2.374357e-002
1.795478e+003;2.360550e-002
1.797407e+003;2.337595e-002
1.799335e+003;2.320626e-002
1.801264e+003;2.304596e-002
1.803192e+003;2.289924e-002
1.805121e+003;2.266109e-002
1.807049e+003;2.247626e-002
1.808978e+003;2.227326e-002
1.810907e+003;2.216313e-002
1.812835e+003;2.200977e-002
1.814764e+003;2.176570e-002
1.816692e+003;2.144326e-002
1.818621e+003;2.111606e-002
1.820549e+003;2.099026e-002
1.822478e+003;2.095003e-002
1.824406e+003;2.070245e-002
1.826335e+003;2.049524e-002
1.828264e+003;2.018496e-002
1.830192e+003;1.992971e-002
1.832121e+003;1.986321e-002
1.834049e+003;1.973146e-002
1.835978e+003;1.969006e-002
1.837906e+003;1.963498e-002
1.839835e+003;1.940360e-002
1.841763e+003;1.934149e-002
1.843692e+003;1.926334e-002
1.845620e+003;1.904992e-002
1.847549e+003;1.872057e-002
1.849478e+003;1.858976e-002
1.851406e+003;1.880481e-002
1.853335e+003;1.888859e-002
1.855263e+003;1.865430e-002
1.857192e+003;1.847503e-002
1.859120e+003;1.843696e-002
1.861049e+003;1.835293e-002
1.862977e+003;1.836624e-002
1.864906e+003;1.831512e-002
1.866834e+003;1.808528e-002
1.868763e+003;1.796588e-002
1.870692e+003;1.778803e-002
1.872620e+003;1.767410e-002
1.874549e+003;1.774271e-002
1.876477e+003;1.777685e-002
1.878406e+003;1.788197e-002
1.880334e+003;1.806852e-002
1.882263e+003;1.797140e-002
1.884191e+003;1.777892e-002
1.886120e+003;1.754771e-002
1.888048e+003;1.748444e-002
1.889977e+003;1.760288e-002
1.891906e+003;1.764363e-002
1.893834e+003;1.763421e-002
1.895763e+003;1.746171e-002
1.897691e+003;1.725145e-002
1.899620e+003;1.733427e-002
1.901548e+003;1.749727e-002
1.903477e+003;1.749496e-002
1.905405e+003;1.740424e-002
1.907334e+003;1.747706e-002
1.909262e+003;1.747219e-002
1.911191e+003;1.729982e-002
1.913120e+003;1.719929e-002
1.915048e+003;1.729303e-002
1.916977e+003;1.741311e-002
1.918905e+003;1.737400e-002
1.920834e+003;1.726624e-002
1.922762e+003;1.710595e-002
1.924691e+003;1.697748e-002
1.926619e+003;1.702982e-002
1.928548e+003;1.710833e-002
1.930477e+003;1.702327e-002
1.932405e+003;1.696839e-002
1.934334e+003;1.716434e-002
1.936262e+003;1.715630e-002
1.938191e+003;1.711563e-002
1.940119e+003;1.717906e-002
1.942048e+003;1.689824e-002
1.943976e+003;1.662188e-002
1.945905e+003;1.666250e-002
1.947833e+003;1.672431e-002
1.949762e+003;1.681716e-002
1.951691e+003;1.705387e-002
1.953619e+003;1.731031e-002
1.955548e+003;1.730931e-002
1.957476e+003;1.727952e-002
1.959405e+003;1.728241e-002
1.961333e+003;1.714190e-002
1.963262e+003;1.688984e-002
1.965190e+003;1.696887e-002
1.967119e+003;1.716061e-002
1.969047e+003;1.716754e-002
1.970976e+003;1.711126e-002
1.972905e+003;1.711491e-002
1.974833e+003;1.723552e-002
1.976762e+003;1.727341e-002
1.978690e+003;1.727793e-002
1.980619e+003;1.729610e-002
1.982547e+003;1.722446e-002
1.984476e+003;1.729589e-002
1.986404e+003;1.738659e-002
1.988333e+003;1.725773e-002
1.990261e+003;1.712663e-002
1.992190e+003;1.717468e-002
1.994119e+003;1.712587e-002
1.996047e+003;1.710688e-002
1.997976e+003;1.714173e-002
1.999904e+003;1.716672e-002
2.001833e+003;1.717071e-002
2.003761e+003;1.706983e-002
2.005690e+003;1.706514e-002
2.007618e+003;1.691977e-002
2.009547e+003;1.686008e-002
2.011476e+003;1.714069e-002
2.013404e+003;1.705997e-002
2.015333e+003;1.692491e-002
2.017261e+003;1.716541e-002
2.019190e+003;1.714324e-002
2.021118e+003;1.706859e-002
2.023047e+003;1.717157e-002
2.024975e+003;1.712783e-002
2.026904e+003;1.707679e-002
2.028833e+003;1.705463e-002
2.030761e+003;1.708096e-002
2.032690e+003;1.721118e-002
2.034618e+003;1.722004e-002
2.036547e+003;1.707224e-002
2.038475e+003;1.691919e-002
2.040404e+003;1.689893e-002
2.042332e+003;1.696156e-002
2.044261e+003;1.692098e-002
2.046189e+003;1.697300e-002
2.048118e+003;1.706397e-002
2.050047e+003;1.705198e-002
2.051975e+003;1.692411e-002
2.053904e+003;1.683658e-002
2.055832e+003;1.688887e-002
2.057761e+003;1.702514e-002
2.059689e+003;1.705381e-002
2.061618e+003;1.685174e-002
2.063546e+003;1.667624e-002
2.065475e+003;1.682484e-002
2.067404e+003;1.726700e-002
2.069332e+003;1.749127e-002
2.071260e+003;1.734537e-002
2.073189e+003;1.716030e-002
2.075118e+003;1.721398e-002
2.077046e+003;1.711825e-002
2.078975e+003;1.695791e-002
2.080903e+003;1.701256e-002
2.082832e+003;1.706669e-002
2.084760e+003;1.700567e-002
2.086689e+003;1.700157e-002
2.088617e+003;1.701766e-002
2.090546e+003;1.687203e-002
2.092475e+003;1.687633e-002
2.094403e+003;1.702596e-002
2.096332e+003;1.694510e-002
2.098260e+003;1.687792e-002
2.100189e+003;1.705987e-002
2.102117e+003;1.699688e-002
2.104046e+003;1.667845e-002
2.105974e+003;1.647972e-002
2.107903e+003;1.655169e-002
2.109832e+003;1.663087e-002
2.111760e+003;1.660732e-002
2.113688e+003;1.667769e-002
2.115617e+003;1.675217e-002
2.117546e+003;1.676591e-002
2.119474e+003;1.656429e-002
2.121403e+003;1.624521e-002
2.123331e+003;1.617054e-002
2.125260e+003;1.627004e-002
2.127188e+003;1.629804e-002
2.129117e+003;1.621718e-002
2.131045e+003;1.622264e-002
2.132974e+003;1.644913e-002
2.134903e+003;1.650092e-002
2.136831e+003;1.657451e-002
2.138760e+003;1.658756e-002
2.140688e+003;1.633833e-002
2.142617e+003;1.626399e-002
2.144545e+003;1.628274e-002
2.146474e+003;1.623083e-002
2.148402e+003;1.616039e-002
2.150331e+003;1.623375e-002
2.152260e+003;1.631621e-002
2.154188e+003;1.635643e-002
2.156117e+003;1.622780e-002
2.158045e+003;1.600817e-002
2.159974e+003;1.611700e-002
2.161902e+003;1.625591e-002
2.163831e+003;1.640332e-002
2.165759e+003;1.643213e-002
2.167688e+003;1.627517e-002
2.169616e+003;1.616418e-002
2.171545e+003;1.607556e-002
2.173474e+003;1.604211e-002
2.175402e+003;1.601780e-002
2.177331e+003;1.597091e-002
2.179259e+003;1.600181e-002
2.181188e+003;1.599625e-002
2.183116e+003;1.580305e-002
2.185045e+003;1.577873e-002
2.186973e+003;1.599569e-002
2.188902e+003;1.598631e-002
2.190831e+003;1.600859e-002
2.192759e+003;1.602450e-002
2.194688e+003;1.605827e-002
2.196616e+003;1.600848e-002
2.198545e+003;1.585079e-002
2.200473e+003;1.562369e-002
2.202402e+003;1.556362e-002
2.204330e+003;1.574918e-002
2.206259e+003;1.591952e-002
2.208188e+003;1.587027e-002
2.210116e+003;1.574688e-002
2.212044e+003;1.562881e-002
2.213973e+003;1.570520e-002
2.215902e+003;1.567301e-002
2.217830e+003;1.555094e-002
2.219759e+003;1.567775e-002
2.221687e+003;1.556197e-002
2.223616e+003;1.520299e-002
2.225544e+003;1.540927e-002
2.227473e+003;1.537851e-002
2.229401e+003;1.513804e-002
2.231330e+003;1.521892e-002
2.233259e+003;1.524678e-002
2.235187e+003;1.519284e-002
2.237116e+003;1.527101e-002
2.239044e+003;1.526308e-002
2.240973e+003;1.511468e-002
2.242901e+003;1.509053e-002
2.244830e+003;1.509279e-002
2.246758e+003;1.500546e-002
2.248687e+003;1.499163e-002
2.250615e+003;1.483475e-002
2.252544e+003;1.457357e-002
2.254473e+003;1.474099e-002
2.256401e+003;1.492030e-002
2.258330e+003;1.493395e-002
2.260258e+003;1.496063e-002
2.262187e+003;1.492915e-002
2.264115e+003;1.487713e-002
2.266044e+003;1.490209e-002
2.267972e+003;1.491965e-002
2.269901e+003;1.483708e-002
2.271830e+003;1.480749e-002
2.273758e+003;1.495068e-002
2.275687e+003;1.506137e-002
2.277615e+003;1.506919e-002
2.279544e+003;1.502936e-002
2.281472e+003;1.505056e-002
2.283401e+003;1.504840e-002
2.285329e+003;1.511210e-002
2.287258e+003;1.516209e-002
2.289187e+003;1.502827e-002
2.291115e+003;1.496358e-002
2.293043e+003;1.493892e-002
2.294972e+003;1.503873e-002
2.296901e+003;1.522111e-002
2.298829e+003;1.521977e-002
2.300758e+003;1.512236e-002
2.302686e+003;1.503955e-002
2.304615e+003;1.510987e-002
2.306543e+003;1.530389e-002
2.308472e+003;1.518371e-002
2.310400e+003;1.506466e-002
2.312329e+003;1.525038e-002
2.314258e+003;1.550201e-002
2.316186e+003;1.540934e-002
2.318115e+003;1.509797e-002
2.320043e+003;1.522550e-002
2.321972e+003;1.540265e-002
2.323900e+003;1.523728e-002
2.325829e+003;1.519232e-002
2.327757e+003;1.518498e-002
2.329686e+003;1.512634e-002
2.331615e+003;1.534082e-002
2.333543e+003;1.547770e-002
2.335472e+003;1.543780e-002
2.337400e+003;1.551365e-002
2.339329e+003;1.555393e-002
2.341257e+003;1.547286e-002
2.343186e+003;1.565677e-002
2.345114e+003;1.574663e-002
2.347043e+003;1.569569e-002
2.348971e+003;1.568889e-002
2.350900e+003;1.572781e-002
2.352829e+003;1.577271e-002
2.354757e+003;1.586890e-002
2.356686e+003;1.603908e-002
2.358614e+003;1.608367e-002
2.360543e+003;1.597081e-002
2.362471e+003;1.582876e-002
2.364400e+003;1.586092e-002
2.366328e+003;1.614241e-002
2.368257e+003;1.637029e-002
2.370186e+003;1.624737e-002
2.372114e+003;1.580618e-002
2.374042e+003;1.585182e-002
2.375971e+003;1.604995e-002
2.377900e+003;1.606487e-002
2.379828e+003;1.612188e-002
2.381757e+003;1.621652e-002
2.383685e+003;1.620283e-002
2.385614e+003;1.628797e-002
2.387542e+003;1.652525e-002
2.389471e+003;1.658739e-002
2.391399e+003;1.652498e-002
2.393328e+003;1.646107e-002
2.395257e+003;1.636991e-002
2.397185e+003;1.653916e-002
2.399114e+003;1.676426e-002
2.401042e+003;1.679405e-002
2.402971e+003;1.690568e-002
2.404899e+003;1.715248e-002
2.406828e+003;1.725597e-002
2.408756e+003;1.702169e-002
2.410685e+003;1.702979e-002
2.412614e+003;1.732672e-002
2.414542e+003;1.763655e-002
2.416471e+003;1.770844e-002
2.418399e+003;1.774575e-002
2.420328e+003;1.795890e-002
2.422256e+003;1.800300e-002
2.424185e+003;1.809854e-002
2.426113e+003;1.844740e-002
2.428042e+003;1.867796e-002
2.429970e+003;1.835428e-002
2.431899e+003;1.807781e-002
2.433828e+003;1.819026e-002
2.435756e+003;1.839292e-002
2.437685e+003;1.847631e-002
2.439613e+003;1.845985e-002
2.441542e+003;1.850072e-002
2.443470e+003;1.875202e-002
2.445399e+003;1.892265e-002
2.447327e+003;1.901399e-002
2.449256e+003;1.912717e-002
2.451185e+003;1.901077e-002
2.453113e+003;1.897114e-002
2.455042e+003;1.901271e-002
2.456970e+003;1.897176e-002
2.458899e+003;1.896221e-002
2.460827e+003;1.895013e-002
2.462756e+003;1.904335e-002
2.464684e+003;1.897481e-002
2.466613e+003;1.907530e-002
2.468542e+003;1.947772e-002
2.470470e+003;1.954603e-002
2.472398e+003;1.948334e-002
2.474327e+003;1.966535e-002
2.476256e+003;1.985874e-002
2.478184e+003;1.994556e-002
2.480113e+003;1.990539e-002
2.482041e+003;1.984348e-002
2.483970e+003;1.973843e-002
2.485898e+003;1.987559e-002
2.487827e+003;1.998903e-002
2.489755e+003;1.999649e-002
2.491684e+003;2.011117e-002
2.493613e+003;2.016958e-002
2.495541e+003;2.023904e-002
2.497470e+003;2.038907e-002
2.499398e+003;2.025227e-002
2.501327e+003;2.031882e-002
2.503255e+003;2.045429e-002
2.505184e+003;2.020638e-002
2.507112e+003;2.019350e-002
2.509041e+003;2.054426e-002
2.510969e+003;2.062681e-002
2.512898e+003;2.041675e-002
2.514827e+003;2.043259e-002
2.516755e+003;2.061871e-002
2.518684e+003;2.087959e-002
2.520612e+003;2.120738e-002
2.522541e+003;2.129023e-002
2.524469e+003;2.108427e-002
2.526398e+003;2.086662e-002
2.528326e+003;2.078267e-002
2.530255e+003;2.110795e-002
2.532184e+003;2.126451e-002
2.534112e+003;2.096352e-002
2.536041e+003;2.096223e-002
2.537969e+003;2.120905e-002
2.539898e+003;2.126778e-002
2.541826e+003;2.128198e-002
2.543755e+003;2.150600e-002
2.545683e+003;2.168948e-002
2.547612e+003;2.172801e-002
2.549541e+003;2.174852e-002
2.551469e+003;2.197700e-002
2.553397e+003;2.232320e-002
2.555326e+003;2.237874e-002
2.557255e+003;2.222691e-002
2.559183e+003;2.227863e-002
2.561112e+003;2.240030e-002
2.563040e+003;2.227898e-002
2.564969e+003;2.241310e-002
2.566897e+003;2.274460e-002
2.568826e+003;2.298992e-002
2.570754e+003;2.308108e-002
2.572683e+003;2.309526e-002
2.574612e+003;2.327750e-002
2.576540e+003;2.358912e-002
2.578469e+003;2.372621e-002
2.580397e+003;2.362156e-002
2.582326e+003;2.358150e-002
2.584254e+003;2.381290e-002
2.586183e+003;2.417637e-002
2.588111e+003;2.455462e-002
2.590040e+003;2.473561e-002
2.591969e+003;2.476125e-002
2.593897e+003;2.476785e-002
2.595826e+003;2.481766e-002
2.597754e+003;2.485001e-002
2.599683e+003;2.498114e-002
2.601611e+003;2.530481e-002
2.603540e+003;2.548074e-002
2.605468e+003;2.541978e-002
2.607397e+003;2.540988e-002
2.609325e+003;2.560553e-002
2.611254e+003;2.593223e-002
2.613183e+003;2.600420e-002
2.615111e+003;2.622570e-002
2.617040e+003;2.649638e-002
2.618968e+003;2.644553e-002
2.620897e+003;2.636732e-002
2.622825e+003;2.655657e-002
2.624754e+003;2.679919e-002
2.626682e+003;2.663009e-002
2.628611e+003;2.643179e-002
2.630540e+003;2.650075e-002
2.632468e+003;2.654026e-002
2.634396e+003;2.659067e-002
2.636325e+003;2.666669e-002
2.638254e+003;2.667966e-002
2.640182e+003;2.679168e-002
2.642111e+003;2.672694e-002
2.644039e+003;2.656612e-002
2.645968e+003;2.685843e-002
2.647896e+003;2.730261e-002
2.649825e+003;2.723653e-002
2.651753e+003;2.716361e-002
2.653682e+003;2.712481e-002
2.655611e+003;2.714040e-002
2.657539e+003;2.721564e-002
2.659468e+003;2.730554e-002
2.661396e+003;2.752315e-002
2.663325e+003;2.766717e-002
2.665253e+003;2.787254e-002
2.667182e+003;2.795115e-002
2.669110e+003;2.788702e-002
2.671039e+003;2.816457e-002
2.672968e+003;2.830180e-002
2.674896e+003;2.837795e-002
2.676825e+003;2.864027e-002
2.678753e+003;2.872770e-002
2.680682e+003;2.886535e-002
2.682610e+003;2.888922e-002
2.684539e+003;2.891932e-002
2.686467e+003;2.925544e-002
2.688396e+003;2.967362e-002
2.690324e+003;2.997511e-002
2.692253e+003;3.000642e-002
2.694182e+003;2.989971e-002
2.696110e+003;2.986503e-002
2.698039e+003;2.993818e-002
2.699967e+003;3.023367e-002
2.701896e+003;3.062033e-002
2.703824e+003;3.094617e-002
2.705753e+003;3.094659e-002
2.707681e+003;3.092695e-002
2.709610e+003;3.113326e-002
2.711539e+003;3.140188e-002
2.713467e+003;3.176631e-002
2.715396e+003;3.189366e-002
2.717324e+003;3.183864e-002
2.719253e+003;3.203978e-002
2.721181e+003;3.238807e-002
2.723110e+003;3.283136e-002
2.725038e+003;3.324695e-002
2.726967e+003;3.335886e-002
2.728896e+003;3.349656e-002
2.730824e+003;3.383681e-002
2.732752e+003;3.398731e-002
2.734681e+003;3.436367e-002
2.736610e+003;3.482087e-002
2.738538e+003;3.488355e-002
2.740467e+003;3.497709e-002
2.742395e+003;3.519094e-002
2.744324e+003;3.559254e-002
2.746252e+003;3.612754e-002
2.748181e+003;3.624077e-002
2.750109e+003;3.610799e-002
2.752038e+003;3.638757e-002
2.753967e+003;3.684380e-002
2.755895e+003;3.691075e-002
2.757824e+003;3.693116e-002
2.759752e+003;3.721824e-002
2.761681e+003;3.767242e-002
2.763609e+003;3.808970e-002
2.765538e+003;3.826600e-002
2.767466e+003;3.830566e-002
2.769395e+003;3.857764e-002
2.771323e+003;3.898333e-002
2.773252e+003;3.917272e-002
2.775181e+003;3.935552e-002
2.777109e+003;3.940921e-002
2.779038e+003;3.961301e-002
2.780966e+003;4.013443e-002
2.782895e+003;4.073445e-002
2.784823e+003;4.103592e-002
2.786752e+003;4.143469e-002
2.788680e+003;4.182255e-002
2.790609e+003;4.203636e-002
2.792538e+003;4.217644e-002
2.794466e+003;4.251352e-002
2.796395e+003;4.285261e-002
2.798323e+003;4.293728e-002
2.800252e+003;4.324687e-002
2.802180e+003;4.352001e-002
2.804109e+003;4.366574e-002
2.806037e+003;4.426134e-002
2.807966e+003;4.492317e-002
2.809895e+003;4.532505e-002
2.811823e+003;4.569984e-002
2.813751e+003;4.582601e-002
2.815680e+003;4.585609e-002
2.817609e+003;4.615141e-002
2.819537e+003;4.660146e-002
2.821466e+003;4.711032e-002
2.823394e+003;4.745946e-002
2.825323e+003;4.777691e-002
2.827251e+003;4.822839e-002
2.829180e+003;4.845886e-002
2.831108e+003;4.877857e-002
2.833037e+003;4.933182e-002
2.834966e+003;4.998120e-002
2.836894e+003;5.061852e-002
2.838823e+003;5.110367e-002
2.840751e+003;5.192192e-002
2.842680e+003;5.300473e-002
2.844608e+003;5.404153e-002
2.846537e+003;5.527732e-002
2.848465e+003;5.670953e-002
2.850394e+003;5.822542e-002
2.852323e+003;5.962262e-002
2.854251e+003;6.073878e-002
2.856180e+003;6.141781e-002
2.858108e+003;6.172708e-002
2.860037e+003;6.168541e-002
2.861965e+003;6.180810e-002
2.863894e+003;6.202300e-002
2.865822e+003;6.228133e-002
2.867751e+003;6.283292e-002
2.869679e+003;6.332905e-002
2.871608e+003;6.385518e-002
2.873536e+003;6.443260e-002
2.875465e+003;6.491101e-002
2.877394e+003;6.530375e-002
2.879322e+003;6.545717e-002
2.881251e+003;6.570090e-002
2.883179e+003;6.624056e-002
2.885108e+003;6.678786e-002
2.887036e+003;6.693225e-002
2.888965e+003;6.705441e-002
2.890893e+003;6.757064e-002
2.892822e+003;6.810326e-002
2.894750e+003;6.871970e-002
2.896679e+003;6.940474e-002
2.898608e+003;7.001746e-002
2.900536e+003;7.082969e-002
2.902465e+003;7.168045e-002
2.904393e+003;7.263184e-002
2.906322e+003;7.345361e-002
2.908250e+003;7.417496e-002
2.910179e+003;7.527840e-002
2.912107e+003;7.653061e-002
2.914036e+003;7.744711e-002
2.915965e+003;7.848796e-002
2.917893e+003;8.011439e-002
2.919822e+003;8.204021e-002
2.921750e+003;8.380140e-002
2.923679e+003;8.510264e-002
2.925607e+003;8.630452e-002
2.927536e+003;8.743507e-002
2.929464e+003;8.865643e-002
2.931393e+003;8.944768e-002
2.933322e+003;8.972734e-002
2.935250e+003;8.986416e-002
2.937178e+003;8.978772e-002
2.939107e+003;8.914229e-002
2.941036e+003;8.833458e-002
2.942964e+003;8.791457e-002
2.944893e+003;8.725284e-002
2.946821e+003;8.617903e-002
2.948750e+003;8.549351e-002
2.950678e+003;8.475932e-002
2.952607e+003;8.388037e-002
2.954535e+003;8.302349e-002
2.956464e+003;8.219665e-002
2.958393e+003;8.146249e-002
2.960321e+003;8.104392e-002
2.962250e+003;8.042694e-002
2.964178e+003;7.993989e-002
2.966107e+003;7.965357e-002
2.968035e+003;7.929102e-002
2.969964e+003;7.896256e-002
2.971892e+003;7.906245e-002
2.973821e+003;7.902130e-002
2.975750e+003;7.845870e-002
2.977678e+003;7.813428e-002
2.979607e+003;7.807153e-002
2.981535e+003;7.775691e-002
2.983464e+003;7.744596e-002
2.985392e+003;7.726771e-002
2.987321e+003;7.686740e-002
2.989249e+003;7.630707e-002
2.991178e+003;7.559790e-002
2.993106e+003;7.500289e-002
2.995035e+003;7.453354e-002
2.996964e+003;7.405651e-002
2.998892e+003;7.368346e-002
3.000821e+003;7.330448e-002
3.002749e+003;7.283273e-002
3.004678e+003;7.227393e-002
3.006606e+003;7.189395e-002
3.008535e+003;7.166716e-002
3.010463e+003;7.152420e-002
3.012392e+003;7.160941e-002
3.014321e+003;7.193407e-002
3.016249e+003;7.200818e-002
3.018177e+003;7.204569e-002
3.020106e+003;7.272436e-002
3.022035e+003;7.297471e-002
3.023963e+003;7.288320e-002
3.025892e+003;7.335058e-002
3.027820e+003;7.377153e-002
3.029749e+003;7.415814e-002
3.031677e+003;7.463476e-002
3.033606e+003;7.507162e-002
3.035534e+003;7.562968e-002
3.037463e+003;7.587158e-002
3.039392e+003;7.625296e-002
3.041320e+003;7.721344e-002
3.043249e+003;7.781882e-002
3.045177e+003;7.828055e-002
3.047106e+003;7.892771e-002
3.049034e+003;7.970922e-002
3.050963e+003;8.041529e-002
3.052891e+003;8.101984e-002
3.054820e+003;8.169370e-002
3.056749e+003;8.206438e-002
3.058677e+003;8.225802e-002
3.060606e+003;8.290160e-002
3.062534e+003;8.374760e-002
3.064463e+003;8.423775e-002
3.066391e+003;8.447926e-002
3.068320e+003;8.446630e-002
3.070248e+003;8.466993e-002
3.072177e+003;8.495652e-002
3.074105e+003;8.494302e-002
3.076034e+003;8.494285e-002
3.077963e+003;8.488830e-002
3.079891e+003;8.488919e-002
3.081820e+003;8.501607e-002
3.083748e+003;8.504815e-002
3.085677e+003;8.483682e-002
3.087605e+003;8.477636e-002
3.089534e+003;8.479211e-002
3.091462e+003;8.436851e-002
3.093391e+003;8.415169e-002
3.095320e+003;8.395623e-002
3.097248e+003;8.338009e-002
3.099177e+003;8.285111e-002
3.101105e+003;8.251262e-002
3.103034e+003;8.222323e-002
3.104962e+003;8.175869e-002
3.106891e+003;8.143159e-002
3.108819e+003;8.121734e-002
3.110748e+003;8.075276e-002
3.112677e+003;8.039508e-002
3.114605e+003;8.035900e-002
3.116533e+003;8.056373e-002
3.118462e+003;8.057226e-002
3.120391e+003;8.028022e-002
3.122319e+003;8.009120e-002
3.124248e+003;7.998960e-002
3.126176e+003;7.978347e-002
3.128105e+003;7.974501e-002
3.130033e+003;7.992062e-002
3.131962e+003;8.035453e-002
3.133890e+003;8.029936e-002
3.135819e+003;8.024028e-002
3.137748e+003;8.085145e-002
3.139676e+003;8.136249e-002
3.141605e+003;8.151489e-002
3.143533e+003;8.160640e-002
3.145462e+003;8.195472e-002
3.147390e+003;8.261123e-002
3.149319e+003;8.326653e-002
3.151247e+003;8.389846e-002
3.153176e+003;8.482627e-002
3.155104e+003;8.540372e-002
3.157033e+003;8.602063e-002
3.158962e+003;8.705141e-002
3.160890e+003;8.791206e-002
3.162819e+003;8.859528e-002
3.164747e+003;8.960840e-002
3.166676e+003;9.056577e-002
3.168604e+003;9.131565e-002
3.170533e+003;9.213433e-002
3.172461e+003;9.310279e-002
3.174390e+003;9.414485e-002
3.176319e+003;9.498361e-002
3.178247e+003;9.554645e-002
3.180176e+003;9.665963e-002
3.182104e+003;9.808861e-002
3.184033e+003;9.937596e-002
3.185961e+003;1.003887e-001
3.187890e+003;1.014051e-001
3.189818e+003;1.024774e-001
3.191747e+003;1.035492e-001
3.193676e+003;1.046132e-001
3.195604e+003;1.055141e-001
3.197532e+003;1.064997e-001
3.199461e+003;1.078194e-001
3.201390e+003;1.089411e-001
3.203318e+003;1.098586e-001
3.205247e+003;1.108145e-001
3.207175e+003;1.117187e-001
3.209104e+003;1.125169e-001
3.211032e+003;1.132909e-001
3.212961e+003;1.143971e-001
3.214889e+003;1.153846e-001
3.216818e+003;1.163976e-001
3.218747e+003;1.174919e-001
3.220675e+003;1.183205e-001
3.222604e+003;1.193522e-001
3.224532e+003;1.198890e-001
3.226461e+003;1.203467e-001
3.228389e+003;1.211989e-001
3.230318e+003;1.220218e-001
3.232246e+003;1.230235e-001
3.234175e+003;1.239854e-001
3.236104e+003;1.248453e-001
3.238032e+003;1.254854e-001
3.239961e+003;1.262249e-001
3.241889e+003;1.272157e-001
3.243818e+003;1.284657e-001
3.245746e+003;1.293084e-001
3.247675e+003;1.298365e-001
3.249603e+003;1.306599e-001
3.251532e+003;1.314838e-001
3.253460e+003;1.324130e-001
3.255389e+003;1.336799e-001
3.257318e+003;1.346907e-001
3.259246e+003;1.354914e-001
3.261175e+003;1.358367e-001
3.263103e+003;1.366930e-001
3.265032e+003;1.377710e-001
3.266960e+003;1.385920e-001
3.268889e+003;1.396160e-001
3.270817e+003;1.401868e-001
3.272746e+003;1.411307e-001
3.274675e+003;1.424039e-001
3.276603e+003;1.431279e-001
3.278531e+003;1.431302e-001
3.280460e+003;1.428673e-001
3.282389e+003;1.428308e-001
3.284317e+003;1.430407e-001
3.286246e+003;1.431214e-001
3.288174e+003;1.429880e-001
3.290103e+003;1.428486e-001
3.292031e+003;1.425271e-001
3.293960e+003;1.420411e-001
3.295888e+003;1.416329e-001
3.297817e+003;1.410750e-001
3.299746e+003;1.403997e-001
3.301674e+003;1.402011e-001
3.303603e+003;1.400066e-001
3.305531e+003;1.394624e-001
3.307460e+003;1.383571e-001
3.309388e+003;1.369821e-001
3.311317e+003;1.359450e-001
3.313245e+003;1.350270e-001
3.315174e+003;1.339465e-001
3.317103e+003;1.331547e-001
3.319031e+003;1.321796e-001
3.320960e+003;1.310684e-001
3.322888e+003;1.298419e-001
3.324817e+003;1.286736e-001
3.326745e+003;1.277900e-001
3.328674e+003;1.263761e-001
3.330602e+003;1.250591e-001
3.332531e+003;1.242957e-001
3.334459e+003;1.233666e-001
3.336388e+003;1.220735e-001
3.338317e+003;1.207406e-001
3.340245e+003;1.193214e-001
3.342174e+003;1.181068e-001
3.344102e+003;1.173663e-001
3.346031e+003;1.166964e-001
3.347959e+003;1.156609e-001
3.349888e+003;1.144844e-001
3.351816e+003;1.135897e-001
3.353745e+003;1.125100e-001
3.355674e+003;1.112204e-001
3.357602e+003;1.100648e-001
3.359531e+003;1.090367e-001
3.361459e+003;1.082697e-001
3.363388e+003;1.075174e-001
3.365316e+003;1.062565e-001
3.367245e+003;1.051396e-001
3.369173e+003;1.044558e-001
3.371102e+003;1.037943e-001
3.373031e+003;1.031159e-001
3.374959e+003;1.022145e-001
3.376887e+003;1.008370e-001
3.378816e+003;9.959441e-002
3.380745e+003;9.895796e-002
3.382673e+003;9.840053e-002
3.384602e+003;9.769430e-002
3.386530e+003;9.703565e-002
3.388459e+003;9.625152e-002
3.390387e+003;9.509517e-002
3.392316e+003;9.415848e-002
3.394244e+003;9.329769e-002
3.396173e+003;9.228855e-002
3.398102e+003;9.148446e-002
3.400030e+003;9.044933e-002
3.401959e+003;8.951136e-002
3.403887e+003;8.882174e-002
3.405816e+003;8.795238e-002
3.407744e+003;8.685876e-002
3.409673e+003;8.554221e-002
3.411601e+003;8.393922e-002
3.413530e+003;8.289109e-002
3.415458e+003;8.239876e-002
3.417387e+003;8.171862e-002
3.419316e+003;8.052555e-002
3.421244e+003;7.927381e-002
3.423173e+003;7.839492e-002
3.425101e+003;7.790194e-002
3.427030e+003;7.696827e-002
3.428958e+003;7.564960e-002
3.430887e+003;7.466903e-002
3.432815e+003;7.366195e-002
3.434744e+003;7.240576e-002
3.436673e+003;7.128982e-002
3.438601e+003;7.055375e-002
3.440530e+003;6.952752e-002
3.442458e+003;6.862780e-002
3.444387e+003;6.809194e-002
3.446315e+003;6.733151e-002
3.448244e+003;6.655248e-002
3.450172e+003;6.575664e-002
3.452101e+003;6.497904e-002
3.454030e+003;6.440988e-002
3.455958e+003;6.403138e-002
3.457886e+003;6.362794e-002
3.459815e+003;6.303664e-002
3.461744e+003;6.232367e-002
3.463672e+003;6.148427e-002
3.465601e+003;6.073013e-002
3.467529e+003;6.043132e-002
3.469458e+003;6.059193e-002
3.471386e+003;5.993628e-002
3.473315e+003;5.879366e-002
3.475243e+003;5.857205e-002
3.477172e+003;5.852120e-002
3.479101e+003;5.785780e-002
3.481029e+003;5.718389e-002
3.482958e+003;5.709235e-002
3.484886e+003;5.667178e-002
3.486815e+003;5.580271e-002
3.488743e+003;5.504335e-002
3.490672e+003;5.441183e-002
3.492600e+003;5.440868e-002
3.494529e+003;5.421121e-002
3.496458e+003;5.350459e-002
3.498386e+003;5.331877e-002
3.500315e+003;5.312937e-002
3.502243e+003;5.242917e-002
3.504172e+003;5.177109e-002
3.506100e+003;5.149237e-002
3.508029e+003;5.119153e-002
3.509957e+003;5.085242e-002
3.511886e+003;5.044290e-002
3.513814e+003;5.007790e-002
3.515743e+003;4.938338e-002
3.517672e+003;4.880756e-002
3.519600e+003;4.820995e-002
3.521529e+003;4.747657e-002
3.523457e+003;4.704422e-002
3.525386e+003;4.645586e-002
3.527314e+003;4.607120e-002
3.529243e+003;4.612713e-002
3.531171e+003;4.568519e-002
3.533100e+003;4.479799e-002
3.535029e+003;4.397735e-002
3.536957e+003;4.341909e-002
3.538885e+003;4.289189e-002
3.540814e+003;4.216699e-002
3.542743e+003;4.152816e-002
3.544671e+003;4.119899e-002
3.546600e+003;4.028051e-002
3.548528e+003;3.934938e-002
3.550457e+003;3.908345e-002
3.552385e+003;3.872349e-002
3.554314e+003;3.811039e-002
3.556242e+003;3.746515e-002
3.558171e+003;3.692215e-002
3.560100e+003;3.632336e-002
3.562028e+003;3.594135e-002
3.563957e+003;3.578024e-002
3.565885e+003;3.508524e-002
3.567814e+003;3.437260e-002
3.569742e+003;3.391250e-002
3.571671e+003;3.324831e-002
3.573599e+003;3.247693e-002
3.575528e+003;3.195874e-002
3.577457e+003;3.144804e-002
3.579385e+003;3.049502e-002
3.581314e+003;2.976140e-002
3.583242e+003;2.980562e-002
3.585171e+003;2.975179e-002
3.587099e+003;2.891844e-002
3.589028e+003;2.803053e-002
3.590956e+003;2.744606e-002
3.592885e+003;2.664270e-002
3.594813e+003;2.571460e-002
3.596742e+003;2.517895e-002
3.598671e+003;2.482773e-002
3.600599e+003;2.440252e-002
3.602528e+003;2.392569e-002
3.604456e+003;2.326565e-002
3.606385e+003;2.246035e-002
3.608313e+003;2.192284e-002
3.610242e+003;2.147275e-002
3.612170e+003;2.084760e-002
3.614099e+003;2.041147e-002
3.616028e+003;1.997682e-002
3.617956e+003;1.901849e-002
3.619885e+003;1.808351e-002
3.621813e+003;1.746885e-002
3.623742e+003;1.706494e-002
3.625670e+003;1.630898e-002
3.627599e+003;1.535987e-002
3.629527e+003;1.510895e-002
3.631456e+003;1.531580e-002
3.633385e+003;1.460102e-002
3.635313e+003;1.359833e-002
3.637241e+003;1.300701e-002
3.639170e+003;1.242396e-002
3.641099e+003;1.194691e-002
3.643027e+003;1.150084e-002
3.644956e+003;1.122497e-002
3.646884e+003;1.089976e-002
3.648813e+003;1.036382e-002
3.650741e+003;9.743636e-003
3.652670e+003;9.266650e-003
3.654598e+003;9.080996e-003
3.656527e+003;8.589664e-003
3.658456e+003;7.921323e-003
3.660384e+003;7.434301e-003
3.662313e+003;7.029982e-003
3.664241e+003;6.592161e-003
3.666170e+003;5.999646e-003
3.668098e+003;5.740841e-003
3.670027e+003;5.418976e-003
3.671955e+003;5.248140e-003
3.673884e+003;5.244283e-003
3.675813e+003;4.926137e-003
3.677741e+003;4.874699e-003
3.679669e+003;4.580967e-003
3.681598e+003;4.245238e-003
3.683527e+003;4.276959e-003
3.685455e+003;4.184613e-003
3.687384e+003;3.702529e-003
3.689312e+003;3.300767e-003
3.691241e+003;3.104063e-003
3.693169e+003;2.572710e-003
3.695098e+003;2.439040e-003
3.697026e+003;2.542847e-003
3.698955e+003;2.417282e-003
3.700884e+003;2.535181e-003
3.702812e+003;2.569844e-003
3.704741e+003;2.310908e-003
3.706669e+003;1.962350e-003
3.708598e+003;1.834625e-003
3.710526e+003;1.976263e-003
3.712455e+003;1.963648e-003
3.714383e+003;2.002326e-003
3.716312e+003;1.885704e-003
3.718240e+003;1.596745e-003
3.720169e+003;1.681956e-003
3.722098e+003;1.719444e-003
3.724026e+003;1.573766e-003
3.725955e+003;1.409953e-003
3.727883e+003;1.243975e-003
3.729812e+003;9.082585e-004
3.731740e+003;6.907974e-004
3.733669e+003;9.858286e-004
3.735597e+003;1.427970e-003
3.737526e+003;1.242613e-003
3.739455e+003;7.509692e-004
3.741383e+003;8.041451e-004
3.743312e+003;6.886071e-004
3.745240e+003;4.390822e-004
3.747169e+003;5.083748e-004
3.749097e+003;6.689611e-004
3.751026e+003;5.113272e-004
3.752954e+003;4.185852e-004
3.754883e+003;7.865187e-004
3.756812e+003;1.016781e-003
3.758740e+003;6.711181e-004
3.760668e+003;7.066610e-004
3.762597e+003;8.116473e-004
3.764526e+003;5.378001e-004
3.766454e+003;7.083868e-004
3.768383e+003;1.003862e-003
3.770311e+003;1.117524e-003
3.772240e+003;7.892738e-004
3.774168e+003;7.020147e-004
3.776097e+003;7.375601e-004
3.778025e+003;6.096301e-004
3.779954e+003;4.167942e-004
3.781883e+003;3.903950e-004
3.783811e+003;6.097629e-004
3.785740e+003;6.760627e-004
3.787668e+003;4.787856e-004
3.789597e+003;5.227388e-004
3.791525e+003;5.397906e-004
3.793454e+003;3.758363e-004
3.795382e+003;2.620367e-004
3.797311e+003;5.315301e-004
3.799240e+003;7.714156e-004
3.801168e+003;4.650532e-004
3.803097e+003;2.987067e-004
3.805025e+003;4.571258e-004
3.806954e+003;8.576263e-004
3.808882e+003;7.670341e-004
3.810811e+003;1.136646e-004
3.812739e+003;-2.682035e-004
3.814668e+003;-2.876076e-004
3.816596e+003;2.353817e-004
3.818525e+003;6.330895e-004
3.820454e+003;6.863836e-004
3.822382e+003;8.227017e-004
3.824311e+003;7.188743e-004
3.826239e+003;7.374273e-004
3.828168e+003;1.031660e-003
3.830096e+003;1.177456e-003
3.832025e+003;1.032988e-003
3.833953e+003;7.113073e-004
3.835882e+003;2.382991e-004
3.837811e+003;-7.252436e-005
3.839739e+003;1.047048e-005
3.841667e+003;3.430728e-004
3.843596e+003;6.140432e-004
3.845525e+003;5.675260e-004
3.847453e+003;6.717818e-004
3.849382e+003;7.259437e-004
3.851310e+003;1.588074e-004
3.853239e+003;-3.632953e-004
3.855167e+003;-6.616364e-005
3.857096e+003;5.682227e-004
3.859024e+003;8.504552e-004
3.860953e+003;8.251583e-004
3.862882e+003;1.009175e-003
3.864810e+003;9.213408e-004
3.866739e+003;7.150244e-004
3.868667e+003;1.082146e-003
3.870596e+003;1.425610e-003
3.872524e+003;1.378574e-003
3.874453e+003;1.107126e-003
3.876381e+003;1.076832e-003
3.878310e+003;7.585369e-004
3.880239e+003;6.809742e-004
3.882167e+003;8.980319e-004
3.884096e+003;7.539564e-004
3.886024e+003;5.509708e-004
3.887953e+003;5.337196e-004
3.889881e+003;6.119860e-004
3.891810e+003;6.896359e-004
3.893738e+003;7.894398e-004
3.895667e+003;6.926891e-004
3.897595e+003;8.644654e-004
3.899524e+003;1.242114e-003
3.901453e+003;1.441833e-003
3.903381e+003;1.378740e-003
3.905310e+003;1.262783e-003
3.907238e+003;1.146592e-003
3.909167e+003;1.361622e-003
3.911095e+003;1.968009e-003
3.913024e+003;2.242859e-003
3.914952e+003;1.616966e-003
3.916881e+003;1.331077e-003
3.918810e+003;2.013311e-003
3.920738e+003;2.039909e-003
3.922667e+003;1.691136e-003
3.924595e+003;1.501344e-003
3.926524e+003;1.180545e-003
3.928452e+003;1.648894e-003
3.930381e+003;2.113287e-003
3.932309e+003;1.694596e-003
3.934238e+003;1.430663e-003
3.936167e+003;1.801185e-003
3.938095e+003;1.881877e-003
3.940023e+003;2.042073e-003
3.941952e+003;1.966511e-003
3.943881e+003;1.789208e-003
3.945809e+003;2.193703e-003
3.947738e+003;2.273468e-003
3.949666e+003;2.076363e-003
3.951595e+003;2.044337e-003
3.953523e+003;2.008251e-003
3.955452e+003;1.806209e-003
3.957380e+003;1.528542e-003
3.959309e+003;1.406662e-003
3.961238e+003;1.785215e-003
3.963166e+003;2.002593e-003
3.965095e+003;1.973401e-003
3.967023e+003;2.062780e-003
3.968952e+003;1.860213e-003
3.970880e+003;1.534162e-003
3.972809e+003;1.614837e-003
3.974737e+003;2.277465e-003
3.976666e+003;2.548579e-003
3.978594e+003;2.257614e-003
3.980523e+003;2.247489e-003
3.982452e+003;1.992973e-003
3.984380e+003;1.502109e-003
3.986309e+003;1.650058e-003
3.988237e+003;2.170892e-003
3.990166e+003;2.526249e-003
3.992094e+003;2.515018e-003
3.994023e+003;2.136228e-003
3.995951e+003;1.505068e-003
3.997880e+003;1.333869e-003
3.999809e+003;1.609416e-003
4.001737e+003;0.000000e+000
