3.992094e+002;0.000000e+000
4.011380e+002;0.000000e+000
4.030665e+002;0.000000e+000
4.049951e+002;0.000000e+000
4.069236e+002;0.000000e+000
4.088522e+002;0.000000e+000
4.107807e+002;0.000000e+000
4.127093e+002;0.000000e+000
4.146378e+002;0.000000e+000
4.165664e+002;0.000000e+000
4.184949e+002;0.000000e+000
4.204235e+002;0.000000e+000
4.223520e+002;0.000000e+000
4.242806e+002;0.000000e+000
4.262091e+002;0.000000e+000
4.281377e+002;0.000000e+000
4.300662e+002;0.000000e+000
4.319948e+002;0.000000e+000
4.339233e+002;0.000000e+000
4.358519e+002;0.000000e+000
4.377804e+002;0.000000e+000
4.397090e+002;0.000000e+000
4.416375e+002;0.000000e+000
4.435660e+002;0.000000e+000
4.454946e+002;0.000000e+000
4.474232e+002;0.000000e+000
4.493517e+002;0.000000e+000
4.512802e+002;0.000000e+000
4.532088e+002;0.000000e+000
4.551373e+002;0.000000e+000
4.570659e+002;0.000000e+000
4.589944e+002;0.000000e+000
4.609230e+002;0.000000e+000
4.628515e+002;0.000000e+000
4.647801e+002;0.000000e+000
4.667086e+002;0.000000e+000
4.686372e+002;0.000000e+000
4.705657e+002;0.000000e+000
4.724943e+002;0.000000e+000
4.744228e+002;0.000000e+000
4.763513e+002;0.000000e+000
4.782799e+002;0.000000e+000
4.802085e+002;0.000000e+000
4.821370e+002;0.000000e+000
4.840656e+002;0.000000e+000
4.859941e+002;0.000000e+000
4.879226e+002;0.000000e+000
4.898512e+002;0.000000e+000
4.917798e+002;0.000000e+000
4.937083e+002;0.000000e+000
4.956368e+002;0.000000e+000
4.975654e+002;0.000000e+000
4.994939e+002;0.000000e+000
5.014225e+002;0.000000e+000
5.033510e+002;0.000000e+000
5.052796e+002;0.000000e+000
5.072081e+002;0.000000e+000
5.091367e+002;0.000000e+000
5.110652e+002;0.000000e+000
5.129938e+002;0.000000e+000
5.149223e+002;0.000000e+000
5.168509e+002;0.000000e+000
5.187794e+002;0.000000e+000
5.207079e+002;0.000000e+000
5.226365e+002;0.000000e+000
5.245651e+002;0.000000e+000
5.264936e+002;0.000000e+000
5.284222e+002;0.000000e+000
5.303507e+002;0.000000e+000
5.322792e+002;0.000000e+000
5.342078e+002;0.000000e+000
5.361364e+002;0.000000e+000
5.380649e+002;0.000000e+000
5.399935e+002;0.000000e+000
5.419220e+002;0.000000e+000
5.438505e+002;0.000000e+000
5.457791e+002;0.000000e+000
5.477076e+002;0.000000e+000
5.496362e+002;0.000000e+000
5.515648e+002;0.000000e+000
5.534933e+002;0.000000e+000
5.554218e+002;0.000000e+000
5.573504e+002;0.000000e+000
5.592789e+002;0.000000e+000
5.612075e+002;0.000000e+000
5.631360e+002;0.000000e+000
5.650646e+002;0.000000e+000
5.669931e+002;0.000000e+000
5.689217e+002;0.000000e+000
5.708502e+002;0.000000e+000
5.727787e+002;0.000000e+000
5.747073e+002;0.000000e+000
5.766359e+002;0.000000e+000
5.785644e+002;0.000000e+000
5.804930e+002;0.000000e+000
5.824215e+002;0.000000e+000
5.843500e+002;0.000000e+000
5.862786e+002;0.000000e+000
5.882072e+002;0.000000e+000
5.901357e+002;0.000000e+000
5.920643e+002;0.000000e+000
5.939928e+002;0.000000e+000
5.959213e+002;0.000000e+000
5.978499e+002;0.000000e+000
5.997784e+002;1.553154e-001
6.017070e+002;1.638270e-001
6.036355e+002;1.670067e-001
6.055641e+002;1.678949e-001
6.074926e+002;1.684696e-001
6.094211e+002;1.666316e-001
6.113497e+002;1.628133e-001
6.132783e+002;1.623508e-001
6.152068e+002;1.643683e-001
6.171354e+002;1.641711e-001
6.190639e+002;1.651954e-001
6.209924e+002;1.647275e-001
6.229210e+002;1.602191e-001
6.248495e+002;1.555119e-001
6.267781e+002;1.569278e-001
6.287067e+002;1.609722e-001
6.306352e+002;1.587373e-001
6.325637e+002;1.542020e-001
6.344923e+002;1.521494e-001
6.364208e+002;1.520904e-001
6.383494e+002;1.502367e-001
6.402780e+002;1.500607e-001
6.422065e+002;1.507208e-001
6.441350e+002;1.510135e-001
6.460636e+002;1.510058e-001
6.479921e+002;1.502275e-001
6.499207e+002;1.468271e-001
6.518492e+002;1.465225e-001
6.537778e+002;1.498649e-001
6.557063e+002;1.497342e-001
6.576349e+002;1.493016e-001
6.595634e+002;1.493916e-001
6.614919e+002;1.477914e-001
6.634205e+002;1.471721e-001
6.653491e+002;1.471145e-001
6.672776e+002;1.452131e-001
6.692062e+002;1.439646e-001
6.711347e+002;1.445447e-001
6.730632e+002;1.462185e-001
6.749918e+002;1.478643e-001
6.769203e+002;1.477189e-001
6.788489e+002;1.470179e-001
6.807775e+002;1.463958e-001
6.827060e+002;1.455860e-001
6.846345e+002;1.451147e-001
6.865631e+002;1.458030e-001
6.884916e+002;1.446634e-001
6.904202e+002;1.435692e-001
6.923488e+002;1.438350e-001
6.942773e+002;1.427862e-001
6.962058e+002;1.419294e-001
6.981344e+002;1.417369e-001
7.000629e+002;1.405721e-001
7.019915e+002;1.383414e-001
7.039200e+002;1.363683e-001
7.058486e+002;1.358876e-001
7.077771e+002;1.346557e-001
7.097057e+002;1.321406e-001
7.116342e+002;1.306828e-001
7.135627e+002;1.302028e-001
7.154913e+002;1.292272e-001
7.174199e+002;1.278758e-001
7.193484e+002;1.266931e-001
7.212770e+002;1.252128e-001
7.232055e+002;1.234320e-001
7.251340e+002;1.207250e-001
7.270626e+002;1.182743e-001
7.289911e+002;1.173922e-001
7.309197e+002;1.164249e-001
7.328483e+002;1.146873e-001
7.347768e+002;1.133710e-001
7.367053e+002;1.119984e-001
7.386339e+002;1.104049e-001
7.405624e+002;1.083415e-001
7.424910e+002;1.061531e-001
7.444196e+002;1.043372e-001
7.463481e+002;1.036776e-001
7.482766e+002;1.018876e-001
7.502052e+002;1.003055e-001
7.521337e+002;9.960670e-002
7.540623e+002;9.855687e-002
7.559908e+002;9.831958e-002
7.579194e+002;9.793399e-002
7.598479e+002;9.689493e-002
7.617765e+002;9.574860e-002
7.637050e+002;9.461596e-002
7.656335e+002;9.379657e-002
7.675621e+002;9.304339e-002
7.694907e+002;9.270264e-002
7.714192e+002;9.217067e-002
7.733478e+002;9.164046e-002
7.752763e+002;9.061103e-002
7.772048e+002;8.890931e-002
7.791334e+002;8.713676e-002
7.810620e+002;8.631644e-002
7.829905e+002;8.601809e-002
7.849191e+002;8.533237e-002
7.868476e+002;8.505262e-002
7.887761e+002;8.515412e-002
7.907047e+002;8.412848e-002
7.926332e+002;8.254884e-002
7.945618e+002;8.185969e-002
7.964903e+002;8.169146e-002
7.984189e+002;8.107048e-002
8.003474e+002;8.128525e-002
8.022759e+002;8.214087e-002
8.042045e+002;8.201303e-002
8.061331e+002;8.219496e-002
8.080616e+002;8.253237e-002
8.099902e+002;8.254600e-002
8.119187e+002;8.225430e-002
8.138472e+002;8.201223e-002
8.157758e+002;8.223996e-002
8.177043e+002;8.297504e-002
8.196329e+002;8.257172e-002
8.215615e+002;8.229623e-002
8.234900e+002;8.319907e-002
8.254185e+002;8.405537e-002
8.273471e+002;8.413982e-002
8.292756e+002;8.377930e-002
8.312042e+002;8.349425e-002
8.331328e+002;8.288628e-002
8.350613e+002;8.195824e-002
8.369898e+002;8.113533e-002
8.389184e+002;8.028947e-002
8.408469e+002;7.983062e-002
8.427755e+002;7.986992e-002
8.447040e+002;8.009139e-002
8.466326e+002;7.997069e-002
8.485611e+002;8.003582e-002
8.504897e+002;8.058180e-002
8.524182e+002;8.064395e-002
8.543467e+002;7.976743e-002
8.562753e+002;7.869861e-002
8.582039e+002;7.760056e-002
8.601324e+002;7.634594e-002
8.620610e+002;7.510234e-002
8.639895e+002;7.378637e-002
8.659180e+002;7.263853e-002
8.678466e+002;7.230008e-002
8.697751e+002;7.243551e-002
8.717037e+002;7.223605e-002
8.736323e+002;7.171136e-002
8.755608e+002;7.160597e-002
8.774893e+002;7.173829e-002
8.794179e+002;7.216183e-002
8.813464e+002;7.290761e-002
8.832750e+002;7.297389e-002
8.852036e+002;7.268754e-002
8.871321e+002;7.276663e-002
8.890606e+002;7.283057e-002
8.909892e+002;7.236101e-002
8.929177e+002;7.244275e-002
8.948463e+002;7.286693e-002
8.967748e+002;7.297757e-002
8.987034e+002;7.262909e-002
9.006319e+002;7.239570e-002
9.025605e+002;7.235193e-002
9.044890e+002;7.240239e-002
9.064175e+002;7.256921e-002
9.083461e+002;7.273035e-002
9.102747e+002;7.297667e-002
9.122032e+002;7.343987e-002
9.141318e+002;7.392934e-002
9.160603e+002;7.471551e-002
9.179888e+002;7.559636e-002
9.199174e+002;7.639255e-002
9.218459e+002;7.727163e-002
9.237745e+002;7.826547e-002
9.257031e+002;7.923352e-002
9.276316e+002;7.994962e-002
9.295601e+002;8.026695e-002
9.314887e+002;8.035844e-002
9.334172e+002;8.045290e-002
9.353458e+002;8.038918e-002
9.372744e+002;8.032459e-002
9.392029e+002;8.063230e-002
9.411314e+002;8.092231e-002
9.430600e+002;8.136809e-002
9.449885e+002;8.166962e-002
9.469171e+002;8.207811e-002
9.488456e+002;8.275212e-002
9.507742e+002;8.340185e-002
9.527027e+002;8.382174e-002
9.546313e+002;8.435845e-002
9.565598e+002;8.515557e-002
9.584883e+002;8.613569e-002
9.604169e+002;8.720934e-002
9.623455e+002;8.836178e-002
9.642740e+002;8.951698e-002
9.662026e+002;9.067129e-002
9.681311e+002;9.192579e-002
9.700596e+002;9.334394e-002
9.719882e+002;9.447623e-002
9.739167e+002;9.492939e-002
9.758453e+002;9.491550e-002
9.777739e+002;9.450161e-002
9.797024e+002;9.414630e-002
9.816309e+002;9.389376e-002
9.835595e+002;9.360820e-002
9.854880e+002;9.344690e-002
9.874166e+002;9.385975e-002
9.893452e+002;9.500477e-002
9.912737e+002;9.653075e-002
9.932022e+002;9.776634e-002
9.951307e+002;9.838154e-002
9.970593e+002;9.855703e-002
9.989879e+002;9.844580e-002
1.000916e+003;9.844197e-002
1.002845e+003;9.823715e-002
1.004773e+003;9.821115e-002
1.006702e+003;9.827608e-002
1.008631e+003;9.807570e-002
1.010559e+003;9.800889e-002
1.012488e+003;9.797874e-002
1.014416e+003;9.808222e-002
1.016345e+003;9.812167e-002
1.018273e+003;9.752094e-002
1.020202e+003;9.710605e-002
1.022130e+003;9.723978e-002
1.024059e+003;9.780954e-002
1.025988e+003;9.901381e-002
1.027916e+003;1.003749e-001
1.029845e+003;1.017242e-001
1.031773e+003;1.030643e-001
1.033702e+003;1.046287e-001
1.035630e+003;1.059788e-001
1.037559e+003;1.068241e-001
1.039487e+003;1.076775e-001
1.041416e+003;1.083046e-001
1.043344e+003;1.086612e-001
1.045273e+003;1.087548e-001
1.047202e+003;1.090261e-001
1.049130e+003;1.094583e-001
1.051059e+003;1.104811e-001
1.052987e+003;1.116978e-001
1.054916e+003;1.123455e-001
1.056844e+003;1.126588e-001
1.058773e+003;1.134879e-001
1.060701e+003;1.146412e-001
1.062630e+003;1.150784e-001
1.064558e+003;1.149636e-001
1.066487e+003;1.153972e-001
1.068416e+003;1.156172e-001
1.070344e+003;1.152356e-001
1.072273e+003;1.144155e-001
1.074201e+003;1.130360e-001
1.076130e+003;1.118078e-001
1.078058e+003;1.102511e-001
1.079987e+003;1.082076e-001
1.081915e+003;1.061791e-001
1.083844e+003;1.043919e-001
1.085773e+003;1.028741e-001
1.087701e+003;1.016664e-001
1.089630e+003;1.004404e-001
1.091558e+003;9.953336e-002
1.093487e+003;9.903395e-002
1.095415e+003;9.823437e-002
1.097344e+003;9.751874e-002
1.099272e+003;9.774824e-002
1.101201e+003;9.829814e-002
1.103129e+003;9.816695e-002
1.105058e+003;9.782294e-002
1.106987e+003;9.729201e-002
1.108915e+003;9.616377e-002
1.110844e+003;9.490182e-002
1.112772e+003;9.430930e-002
1.114701e+003;9.417275e-002
1.116629e+003;9.404840e-002
1.118558e+003;9.380554e-002
1.120486e+003;9.330595e-002
1.122415e+003;9.293433e-002
1.124344e+003;9.276589e-002
1.126272e+003;9.265141e-002
1.128201e+003;9.273516e-002
1.130129e+003;9.305065e-002
1.132058e+003;9.337874e-002
1.133986e+003;9.390182e-002
1.135915e+003;9.446870e-002
1.137843e+003;9.512940e-002
1.139772e+003;9.584523e-002
1.141700e+003;9.637415e-002
1.143629e+003;9.725176e-002
1.145557e+003;9.873984e-002
1.147486e+003;9.971119e-002
1.149415e+003;1.000433e-001
1.151343e+003;1.004530e-001
1.153272e+003;1.012426e-001
1.155200e+003;1.020891e-001
1.157129e+003;1.031385e-001
1.159057e+003;1.039488e-001
1.160986e+003;1.040143e-001
1.162914e+003;1.042179e-001
1.164843e+003;1.045919e-001
1.166771e+003;1.050817e-001
1.168700e+003;1.055149e-001
1.170629e+003;1.052750e-001
1.172557e+003;1.046628e-001
1.174486e+003;1.039951e-001
1.176414e+003;1.031233e-001
1.178343e+003;1.021322e-001
1.180271e+003;1.013748e-001
1.182200e+003;1.006736e-001
1.184128e+003;1.004976e-001
1.186057e+003;1.008021e-001
1.187986e+003;1.013810e-001
1.189914e+003;1.021874e-001
1.191843e+003;1.030571e-001
1.193771e+003;1.043738e-001
1.195700e+003;1.060358e-001
1.197628e+003;1.078064e-001
1.199557e+003;1.100016e-001
1.201485e+003;1.125844e-001
1.203414e+003;1.152354e-001
1.205343e+003;1.178992e-001
1.207271e+003;1.205844e-001
1.209200e+003;1.227911e-001
1.211128e+003;1.248677e-001
1.213057e+003;1.271951e-001
1.214985e+003;1.291376e-001
1.216914e+003;1.305655e-001
1.218842e+003;1.319475e-001
1.220771e+003;1.335180e-001
1.222699e+003;1.349061e-001
1.224628e+003;1.358772e-001
1.226557e+003;1.364861e-001
1.228485e+003;1.369004e-001
1.230414e+003;1.369244e-001
1.232342e+003;1.363953e-001
1.234271e+003;1.353175e-001
1.236199e+003;1.344858e-001
1.238128e+003;1.336502e-001
1.240056e+003;1.323259e-001
1.241985e+003;1.311468e-001
1.243913e+003;1.300974e-001
1.245842e+003;1.293923e-001
1.247771e+003;1.289123e-001
1.249699e+003;1.285012e-001
1.251628e+003;1.282182e-001
1.253556e+003;1.278249e-001
1.255485e+003;1.276710e-001
1.257413e+003;1.279266e-001
1.259342e+003;1.280521e-001
1.261270e+003;1.271745e-001
1.263199e+003;1.256278e-001
1.265127e+003;1.238538e-001
1.267056e+003;1.215542e-001
1.268985e+003;1.190359e-001
1.270913e+003;1.167968e-001
1.272842e+003;1.149189e-001
1.274770e+003;1.132021e-001
1.276699e+003;1.115136e-001
1.278627e+003;1.102263e-001
1.280556e+003;1.094484e-001
1.282484e+003;1.086816e-001
1.284413e+003;1.078529e-001
1.286342e+003;1.070095e-001
1.288270e+003;1.063519e-001
1.290199e+003;1.061535e-001
1.292127e+003;1.062795e-001
1.294056e+003;1.062786e-001
1.295984e+003;1.060161e-001
1.297913e+003;1.057658e-001
1.299841e+003;1.056370e-001
1.301770e+003;1.054900e-001
1.303698e+003;1.053237e-001
1.305627e+003;1.052531e-001
1.307556e+003;1.050523e-001
1.309484e+003;1.048223e-001
1.311413e+003;1.047173e-001
1.313341e+003;1.043746e-001
1.315270e+003;1.038056e-001
1.317198e+003;1.038386e-001
1.319127e+003;1.043115e-001
1.321055e+003;1.045104e-001
1.322984e+003;1.046531e-001
1.324912e+003;1.049974e-001
1.326841e+003;1.054477e-001
1.328770e+003;1.058470e-001
1.330698e+003;1.062041e-001
1.332627e+003;1.063913e-001
1.334555e+003;1.064326e-001
1.336484e+003;1.063824e-001
1.338412e+003;1.062371e-001
1.340341e+003;1.059980e-001
1.342269e+003;1.059575e-001
1.344198e+003;1.058980e-001
1.346126e+003;1.059482e-001
1.348055e+003;1.061063e-001
1.349984e+003;1.061215e-001
1.351912e+003;1.062874e-001
1.353841e+003;1.067417e-001
1.355769e+003;1.074316e-001
1.357698e+003;1.082021e-001
1.359626e+003;1.094397e-001
1.361555e+003;1.111761e-001
1.363483e+003;1.127999e-001
1.365412e+003;1.141637e-001
1.367341e+003;1.151967e-001
1.369269e+003;1.157071e-001
1.371198e+003;1.155398e-001
1.373126e+003;1.151356e-001
1.375055e+003;1.148997e-001
1.376983e+003;1.147388e-001
1.378912e+003;1.145152e-001
1.380840e+003;1.144097e-001
1.382769e+003;1.144294e-001
1.384698e+003;1.146118e-001
1.386626e+003;1.146304e-001
1.388555e+003;1.145558e-001
1.390483e+003;1.145954e-001
1.392412e+003;1.146572e-001
1.394340e+003;1.144924e-001
1.396269e+003;1.142557e-001
1.398197e+003;1.145807e-001
1.400126e+003;1.152917e-001
1.402054e+003;1.158575e-001
1.403983e+003;1.162057e-001
1.405911e+003;1.165310e-001
1.407840e+003;1.168371e-001
1.409769e+003;1.170000e-001
1.411697e+003;1.171367e-001
1.413626e+003;1.172384e-001
1.415554e+003;1.172641e-001
1.417483e+003;1.174721e-001
1.419411e+003;1.178163e-001
1.421340e+003;1.183259e-001
1.423268e+003;1.190397e-001
1.425197e+003;1.203269e-001
1.427125e+003;1.222130e-001
1.429054e+003;1.244522e-001
1.430983e+003;1.271457e-001
1.432911e+003;1.305252e-001
1.434840e+003;1.334970e-001
1.436768e+003;1.356895e-001
1.438697e+003;1.374808e-001
1.440625e+003;1.385751e-001
1.442554e+003;1.390393e-001
1.444482e+003;1.391502e-001
1.446411e+003;1.388227e-001
1.448340e+003;1.378078e-001
1.450268e+003;1.359226e-001
1.452197e+003;1.334258e-001
1.454125e+003;1.308880e-001
1.456054e+003;1.285102e-001
1.457982e+003;1.262679e-001
1.459911e+003;1.247693e-001
1.461839e+003;1.238974e-001
1.463768e+003;1.233554e-001
1.465697e+003;1.229454e-001
1.467625e+003;1.232503e-001
1.469554e+003;1.240466e-001
1.471482e+003;1.249200e-001
1.473411e+003;1.260307e-001
1.475339e+003;1.274912e-001
1.477268e+003;1.296035e-001
1.479196e+003;1.322703e-001
1.481125e+003;1.353433e-001
1.483053e+003;1.387618e-001
1.484982e+003;1.424002e-001
1.486911e+003;1.463413e-001
1.488839e+003;1.506457e-001
1.490768e+003;1.550434e-001
1.492696e+003;1.595164e-001
1.494625e+003;1.637109e-001
1.496553e+003;1.677289e-001
1.498482e+003;1.716079e-001
1.500410e+003;1.750240e-001
1.502339e+003;1.782572e-001
1.504267e+003;1.811679e-001
1.506196e+003;1.834915e-001
1.508125e+003;1.853736e-001
1.510053e+003;1.870060e-001
1.511982e+003;1.883849e-001
1.513910e+003;1.887382e-001
1.515839e+003;1.875423e-001
1.517767e+003;1.850750e-001
1.519696e+003;1.818731e-001
1.521624e+003;1.786718e-001
1.523553e+003;1.756246e-001
1.525481e+003;1.727888e-001
1.527410e+003;1.701653e-001
1.529339e+003;1.676390e-001
1.531267e+003;1.652672e-001
1.533196e+003;1.627364e-001
1.535124e+003;1.598625e-001
1.537053e+003;1.570812e-001
1.538981e+003;1.546610e-001
1.540910e+003;1.520659e-001
1.542838e+003;1.493399e-001
1.544767e+003;1.468169e-001
1.546695e+003;1.444839e-001
1.548624e+003;1.416697e-001
1.550553e+003;1.391079e-001
1.552481e+003;1.367935e-001
1.554410e+003;1.342631e-001
1.556338e+003;1.317015e-001
1.558267e+003;1.289385e-001
1.560195e+003;1.258060e-001
1.562124e+003;1.230050e-001
1.564052e+003;1.203190e-001
1.565981e+003;1.173680e-001
1.567910e+003;1.148536e-001
1.569838e+003;1.127435e-001
1.571767e+003;1.110153e-001
1.573695e+003;1.098046e-001
1.575624e+003;1.087659e-001
1.577552e+003;1.081142e-001
1.579481e+003;1.078806e-001
1.581409e+003;1.079262e-001
1.583338e+003;1.083294e-001
1.585266e+003;1.095989e-001
1.587195e+003;1.116157e-001
1.589124e+003;1.138913e-001
1.591052e+003;1.165488e-001
1.592981e+003;1.195893e-001
1.594909e+003;1.230652e-001
1.596838e+003;1.268797e-001
1.598766e+003;1.309153e-001
1.600695e+003;1.353613e-001
1.602623e+003;1.405381e-001
1.604552e+003;1.464833e-001
1.606480e+003;1.528206e-001
1.608409e+003;1.592688e-001
1.610338e+003;1.654724e-001
1.612266e+003;1.714322e-001
1.614195e+003;1.770838e-001
1.616123e+003;1.818631e-001
1.618052e+003;1.856878e-001
1.619980e+003;1.885079e-001
1.621909e+003;1.901263e-001
1.623837e+003;1.906661e-001
1.625766e+003;1.901034e-001
1.627694e+003;1.886036e-001
1.629623e+003;1.861473e-001
1.631552e+003;1.830146e-001
1.633480e+003;1.799093e-001
1.635409e+003;1.766229e-001
1.637337e+003;1.731065e-001
1.639266e+003;1.698890e-001
1.641194e+003;1.668000e-001
1.643123e+003;1.637361e-001
1.645051e+003;1.607791e-001
1.646980e+003;1.576825e-001
1.648909e+003;1.546246e-001
1.650837e+003;1.518753e-001
1.652766e+003;1.485763e-001
1.654694e+003;1.449067e-001
1.656623e+003;1.416446e-001
1.658551e+003;1.384923e-001
1.660480e+003;1.351566e-001
1.662408e+003;1.316930e-001
1.664337e+003;1.284492e-001
1.666266e+003;1.254716e-001
1.668194e+003;1.227102e-001
1.670123e+003;1.198158e-001
1.672051e+003;1.171396e-001
1.673980e+003;1.144851e-001
1.675908e+003;1.118306e-001
1.677837e+003;1.093383e-001
1.679765e+003;1.067545e-001
1.681694e+003;1.044340e-001
1.683622e+003;1.022708e-001
1.685551e+003;9.998799e-002
1.687479e+003;9.828048e-002
1.689408e+003;9.708814e-002
1.691337e+003;9.592407e-002
1.693265e+003;9.483610e-002
1.695194e+003;9.392214e-002
1.697122e+003;9.298178e-002
1.699051e+003;9.137396e-002
1.700979e+003;8.772945e-002
1.702908e+003;8.254255e-002
1.704836e+003;7.674035e-002
1.706765e+003;7.086058e-002
1.708693e+003;6.523144e-002
1.710622e+003;6.060134e-002
1.712551e+003;5.713158e-002
1.714479e+003;5.430530e-002
1.716408e+003;5.182839e-002
1.718336e+003;4.967201e-002
1.720265e+003;4.775761e-002
1.722193e+003;4.617725e-002
1.724122e+003;4.499108e-002
1.726050e+003;4.399224e-002
1.727979e+003;4.293380e-002
1.729908e+003;4.187845e-002
1.731836e+003;4.093443e-002
1.733765e+003;4.031123e-002
1.735693e+003;3.962557e-002
1.737622e+003;3.878848e-002
1.739550e+003;3.779718e-002
1.741479e+003;3.707700e-002
1.743407e+003;3.673344e-002
1.745336e+003;3.613201e-002
1.747265e+003;3.528192e-002
1.749193e+003;3.467349e-002
1.751122e+003;3.422820e-002
1.753050e+003;3.379304e-002
1.754979e+003;3.320282e-002
1.756907e+003;3.261235e-002
1.758836e+003;3.214531e-002
1.760764e+003;3.182349e-002
1.762693e+003;3.153301e-002
1.764621e+003;3.111208e-002
1.766550e+003;3.078224e-002
1.768479e+003;3.066005e-002
1.770407e+003;3.062186e-002
1.772336e+003;3.015815e-002
1.774264e+003;2.959349e-002
1.776193e+003;2.961151e-002
1.778121e+003;2.962048e-002
1.780050e+003;2.936490e-002
1.781978e+003;2.903703e-002
1.783907e+003;2.882584e-002
1.785835e+003;2.853853e-002
1.787764e+003;2.820890e-002
1.789693e+003;2.772749e-002
1.791621e+003;2.736408e-002
1.793550e+003;2.720545e-002
1.795478e+003;2.712393e-002
1.797407e+003;2.696987e-002
1.799335e+003;2.679887e-002
1.801264e+003;2.643288e-002
1.803192e+003;2.612382e-002
1.805121e+003;2.596688e-002
1.807049e+003;2.575731e-002
1.808978e+003;2.544813e-002
1.810907e+003;2.509810e-002
1.812835e+003;2.485646e-002
1.814764e+003;2.478798e-002
1.816692e+003;2.463310e-002
1.818621e+003;2.444626e-002
1.820549e+003;2.428477e-002
1.822478e+003;2.408008e-002
1.824406e+003;2.393574e-002
1.826335e+003;2.369752e-002
1.828264e+003;2.344635e-002
1.830192e+003;2.334378e-002
1.832121e+003;2.322754e-002
1.834049e+003;2.288652e-002
1.835978e+003;2.262902e-002
1.837906e+003;2.251893e-002
1.839835e+003;2.226129e-002
1.841763e+003;2.207220e-002
1.843692e+003;2.186649e-002
1.845620e+003;2.175114e-002
1.847549e+003;2.168485e-002
1.849478e+003;2.144246e-002
1.851406e+003;2.112382e-002
1.853335e+003;2.084395e-002
1.855263e+003;2.084051e-002
1.857192e+003;2.084906e-002
1.859120e+003;2.094366e-002
1.861049e+003;2.090844e-002
1.862977e+003;2.066989e-002
1.864906e+003;2.053929e-002
1.866834e+003;2.056531e-002
1.868763e+003;2.055805e-002
1.870692e+003;2.049601e-002
1.872620e+003;2.049514e-002
1.874549e+003;2.043321e-002
1.876477e+003;2.022901e-002
1.878406e+003;2.011513e-002
1.880334e+003;2.019305e-002
1.882263e+003;2.021460e-002
1.884191e+003;2.015105e-002
1.886120e+003;1.986429e-002
1.888048e+003;1.960447e-002
1.889977e+003;1.946275e-002
1.891906e+003;1.925724e-002
1.893834e+003;1.918600e-002
1.895763e+003;1.939023e-002
1.897691e+003;1.948282e-002
1.899620e+003;1.919068e-002
1.901548e+003;1.890136e-002
1.903477e+003;1.875589e-002
1.905405e+003;1.888323e-002
1.907334e+003;1.898394e-002
1.909262e+003;1.872597e-002
1.911191e+003;1.846573e-002
1.913120e+003;1.854740e-002
1.915048e+003;1.879087e-002
1.916977e+003;1.873500e-002
1.918905e+003;1.869380e-002
1.920834e+003;1.865450e-002
1.922762e+003;1.858135e-002
1.924691e+003;1.871403e-002
1.926619e+003;1.872012e-002
1.928548e+003;1.853626e-002
1.930477e+003;1.844557e-002
1.932405e+003;1.845376e-002
1.934334e+003;1.847589e-002
1.936262e+003;1.847344e-002
1.938191e+003;1.828363e-002
1.940119e+003;1.819113e-002
1.942048e+003;1.830696e-002
1.943976e+003;1.837529e-002
1.945905e+003;1.842158e-002
1.947833e+003;1.853865e-002
1.949762e+003;1.855497e-002
1.951691e+003;1.856023e-002
1.953619e+003;1.857492e-002
1.955548e+003;1.859460e-002
1.957476e+003;1.875063e-002
1.959405e+003;1.872168e-002
1.961333e+003;1.844785e-002
1.963262e+003;1.843057e-002
1.965190e+003;1.855801e-002
1.967119e+003;1.855988e-002
1.969047e+003;1.863085e-002
1.970976e+003;1.859903e-002
1.972905e+003;1.844982e-002
1.974833e+003;1.852731e-002
1.976762e+003;1.850341e-002
1.978690e+003;1.820388e-002
1.980619e+003;1.799561e-002
1.982547e+003;1.814977e-002
1.984476e+003;1.834201e-002
1.986404e+003;1.842645e-002
1.988333e+003;1.847057e-002
1.990261e+003;1.856628e-002
1.992190e+003;1.855244e-002
1.994119e+003;1.851690e-002
1.996047e+003;1.838494e-002
1.997976e+003;1.827392e-002
1.999904e+003;1.821452e-002
2.001833e+003;1.826819e-002
2.003761e+003;1.823926e-002
2.005690e+003;1.816325e-002
2.007618e+003;1.813485e-002
2.009547e+003;1.815831e-002
2.011476e+003;1.809094e-002
2.013404e+003;1.802383e-002
2.015333e+003;1.805350e-002
2.017261e+003;1.806144e-002
2.019190e+003;1.811001e-002
2.021118e+003;1.823543e-002
2.023047e+003;1.812037e-002
2.024975e+003;1.787279e-002
2.026904e+003;1.795476e-002
2.028833e+003;1.818139e-002
2.030761e+003;1.830845e-002
2.032690e+003;1.827306e-002
2.034618e+003;1.839814e-002
2.036547e+003;1.845736e-002
2.038475e+003;1.829673e-002
2.040404e+003;1.808165e-002
2.042332e+003;1.812880e-002
2.044261e+003;1.811143e-002
2.046189e+003;1.815288e-002
2.048118e+003;1.830347e-002
2.050047e+003;1.856991e-002
2.051975e+003;1.856009e-002
2.053904e+003;1.841283e-002
2.055832e+003;1.841294e-002
2.057761e+003;1.837059e-002
2.059689e+003;1.834308e-002
2.061618e+003;1.845539e-002
2.063546e+003;1.841449e-002
2.065475e+003;1.831996e-002
2.067404e+003;1.853948e-002
2.069332e+003;1.858564e-002
2.071260e+003;1.841930e-002
2.073189e+003;1.856434e-002
2.075118e+003;1.886032e-002
2.077046e+003;1.881734e-002
2.078975e+003;1.861428e-002
2.080903e+003;1.859474e-002
2.082832e+003;1.867515e-002
2.084760e+003;1.873562e-002
2.086689e+003;1.871469e-002
2.088617e+003;1.865239e-002
2.090546e+003;1.858433e-002
2.092475e+003;1.840696e-002
2.094403e+003;1.836392e-002
2.096332e+003;1.842389e-002
2.098260e+003;1.842514e-002
2.100189e+003;1.837356e-002
2.102117e+003;1.835307e-002
2.104046e+003;1.843074e-002
2.105974e+003;1.841888e-002
2.107903e+003;1.839600e-002
2.109832e+003;1.853827e-002
2.111760e+003;1.844173e-002
2.113688e+003;1.816256e-002
2.115617e+003;1.795365e-002
2.117546e+003;1.799751e-002
2.119474e+003;1.805913e-002
2.121403e+003;1.809015e-002
2.123331e+003;1.814867e-002
2.125260e+003;1.810548e-002
2.127188e+003;1.804276e-002
2.129117e+003;1.809671e-002
2.131045e+003;1.808545e-002
2.132974e+003;1.807564e-002
2.134903e+003;1.796757e-002
2.136831e+003;1.796056e-002
2.138760e+003;1.804241e-002
2.140688e+003;1.802991e-002
2.142617e+003;1.798594e-002
2.144545e+003;1.797203e-002
2.146474e+003;1.801319e-002
2.148402e+003;1.798574e-002
2.150331e+003;1.781579e-002
2.152260e+003;1.770381e-002
2.154188e+003;1.769774e-002
2.156117e+003;1.788214e-002
2.158045e+003;1.803246e-002
2.159974e+003;1.806182e-002
2.161902e+003;1.793041e-002
2.163831e+003;1.778883e-002
2.165759e+003;1.801665e-002
2.167688e+003;1.810884e-002
2.169616e+003;1.790462e-002
2.171545e+003;1.803139e-002
2.173474e+003;1.807616e-002
2.175402e+003;1.776663e-002
2.177331e+003;1.786895e-002
2.179259e+003;1.791336e-002
2.181188e+003;1.776611e-002
2.183116e+003;1.778572e-002
2.185045e+003;1.773677e-002
2.186973e+003;1.765605e-002
2.188902e+003;1.762434e-002
2.190831e+003;1.752318e-002
2.192759e+003;1.738521e-002
2.194688e+003;1.730462e-002
2.196616e+003;1.732548e-002
2.198545e+003;1.739314e-002
2.200473e+003;1.741476e-002
2.202402e+003;1.759035e-002
2.204330e+003;1.786191e-002
2.206259e+003;1.792627e-002
2.208188e+003;1.788100e-002
2.210116e+003;1.772887e-002
2.212044e+003;1.765840e-002
2.213973e+003;1.753888e-002
2.215902e+003;1.735575e-002
2.217830e+003;1.729669e-002
2.219759e+003;1.742325e-002
2.221687e+003;1.780798e-002
2.223616e+003;1.770085e-002
2.225544e+003;1.738458e-002
2.227473e+003;1.740445e-002
2.229401e+003;1.759994e-002
2.231330e+003;1.772939e-002
2.233259e+003;1.759970e-002
2.235187e+003;1.747550e-002
2.237116e+003;1.738534e-002
2.239044e+003;1.735048e-002
2.240973e+003;1.761858e-002
2.242901e+003;1.780291e-002
2.244830e+003;1.759328e-002
2.246758e+003;1.749158e-002
2.248687e+003;1.767003e-002
2.250615e+003;1.778862e-002
2.252544e+003;1.758925e-002
2.254473e+003;1.742932e-002
2.256401e+003;1.754146e-002
2.258330e+003;1.760112e-002
2.260258e+003;1.754277e-002
2.262187e+003;1.741418e-002
2.264115e+003;1.737093e-002
2.266044e+003;1.734637e-002
2.267972e+003;1.725431e-002
2.269901e+003;1.737586e-002
2.271830e+003;1.744829e-002
2.273758e+003;1.752559e-002
2.275687e+003;1.759318e-002
2.277615e+003;1.748206e-002
2.279544e+003;1.758838e-002
2.281472e+003;1.762027e-002
2.283401e+003;1.738845e-002
2.285329e+003;1.748430e-002
2.287258e+003;1.772915e-002
2.289187e+003;1.789875e-002
2.291115e+003;1.806649e-002
2.293043e+003;1.817752e-002
2.294972e+003;1.819503e-002
2.296901e+003;1.801575e-002
2.298829e+003;1.790334e-002
2.300758e+003;1.808082e-002
2.302686e+003;1.828557e-002
2.304615e+003;1.822675e-002
2.306543e+003;1.819645e-002
2.308472e+003;1.832511e-002
2.310400e+003;1.821573e-002
2.312329e+003;1.810486e-002
2.314258e+003;1.817213e-002
2.316186e+003;1.832272e-002
2.318115e+003;1.838964e-002
2.320043e+003;1.844000e-002
2.321972e+003;1.847205e-002
2.323900e+003;1.842849e-002
2.325829e+003;1.842504e-002
2.327757e+003;1.829639e-002
2.329686e+003;1.825747e-002
2.331615e+003;1.835687e-002
2.333543e+003;1.834522e-002
2.335472e+003;1.825205e-002
2.337400e+003;1.820194e-002
2.339329e+003;1.817365e-002
2.341257e+003;1.813260e-002
2.343186e+003;1.810870e-002
2.345114e+003;1.832939e-002
2.347043e+003;1.855621e-002
2.348971e+003;1.836150e-002
2.350900e+003;1.826832e-002
2.352829e+003;1.836492e-002
2.354757e+003;1.840900e-002
2.356686e+003;1.845681e-002
2.358614e+003;1.866502e-002
2.360543e+003;1.869006e-002
2.362471e+003;1.851922e-002
2.364400e+003;1.830955e-002
2.366328e+003;1.825353e-002
2.368257e+003;1.843475e-002
2.370186e+003;1.870359e-002
2.372114e+003;1.882513e-002
2.374042e+003;1.878759e-002
2.375971e+003;1.880129e-002
2.377900e+003;1.890794e-002
2.379828e+003;1.896892e-002
2.381757e+003;1.896210e-002
2.383685e+003;1.891389e-002
2.385614e+003;1.882793e-002
2.387542e+003;1.899440e-002
2.389471e+003;1.914268e-002
2.391399e+003;1.949661e-002
2.393328e+003;1.954160e-002
2.395257e+003;1.924837e-002
2.397185e+003;1.924138e-002
2.399114e+003;1.951681e-002
2.401042e+003;1.972054e-002
2.402971e+003;1.991677e-002
2.404899e+003;1.994608e-002
2.406828e+003;1.981920e-002
2.408756e+003;1.981445e-002
2.410685e+003;2.004219e-002
2.412614e+003;2.047499e-002
2.414542e+003;2.079984e-002
2.416471e+003;2.094867e-002
2.418399e+003;2.094700e-002
2.420328e+003;2.101137e-002
2.422256e+003;2.104096e-002
2.424185e+003;2.116852e-002
2.426113e+003;2.132318e-002
2.428042e+003;2.139251e-002
2.429970e+003;2.160133e-002
2.431899e+003;2.175128e-002
2.433828e+003;2.170822e-002
2.435756e+003;2.180169e-002
2.437685e+003;2.220340e-002
2.439613e+003;2.242060e-002
2.441542e+003;2.231452e-002
2.443470e+003;2.246474e-002
2.445399e+003;2.270819e-002
2.447327e+003;2.280519e-002
2.449256e+003;2.267460e-002
2.451185e+003;2.255062e-002
2.453113e+003;2.256256e-002
2.455042e+003;2.268235e-002
2.456970e+003;2.250169e-002
2.458899e+003;2.230803e-002
2.460827e+003;2.262053e-002
2.462756e+003;2.289962e-002
2.464684e+003;2.310969e-002
2.466613e+003;2.319843e-002
2.468542e+003;2.314723e-002
2.470470e+003;2.323740e-002
2.472398e+003;2.325540e-002
2.474327e+003;2.321923e-002
2.476256e+003;2.315949e-002
2.478184e+003;2.314419e-002
2.480113e+003;2.328816e-002
2.482041e+003;2.348233e-002
2.483970e+003;2.334543e-002
2.485898e+003;2.325750e-002
2.487827e+003;2.344044e-002
2.489755e+003;2.345033e-002
2.491684e+003;2.330487e-002
2.493613e+003;2.328487e-002
2.495541e+003;2.344467e-002
2.497470e+003;2.354841e-002
2.499398e+003;2.361848e-002
2.501327e+003;2.367834e-002
2.503255e+003;2.363730e-002
2.505184e+003;2.373972e-002
2.507112e+003;2.379810e-002
2.509041e+003;2.354011e-002
2.510969e+003;2.359350e-002
2.512898e+003;2.391809e-002
2.514827e+003;2.397580e-002
2.516755e+003;2.386796e-002
2.518684e+003;2.390920e-002
2.520612e+003;2.411927e-002
2.522541e+003;2.410807e-002
2.524469e+003;2.382102e-002
2.526398e+003;2.398038e-002
2.528326e+003;2.427117e-002
2.530255e+003;2.419227e-002
2.532184e+003;2.420737e-002
2.534112e+003;2.428585e-002
2.536041e+003;2.435138e-002
2.537969e+003;2.448198e-002
2.539898e+003;2.465912e-002
2.541826e+003;2.472825e-002
2.543755e+003;2.469012e-002
2.545683e+003;2.486211e-002
2.547612e+003;2.516716e-002
2.549541e+003;2.530288e-002
2.551469e+003;2.510252e-002
2.553397e+003;2.500950e-002
2.555326e+003;2.526123e-002
2.557255e+003;2.558809e-002
2.559183e+003;2.573559e-002
2.561112e+003;2.582964e-002
2.563040e+003;2.588285e-002
2.564969e+003;2.611049e-002
2.566897e+003;2.643278e-002
2.568826e+003;2.654671e-002
2.570754e+003;2.676014e-002
2.572683e+003;2.703873e-002
2.574612e+003;2.691505e-002
2.576540e+003;2.701059e-002
2.578469e+003;2.753756e-002
2.580397e+003;2.798331e-002
2.582326e+003;2.818688e-002
2.584254e+003;2.812840e-002
2.586183e+003;2.803713e-002
2.588111e+003;2.801466e-002
2.590040e+003;2.811843e-002
2.591969e+003;2.839146e-002
2.593897e+003;2.875053e-002
2.595826e+003;2.913240e-002
2.597754e+003;2.933810e-002
2.599683e+003;2.938873e-002
2.601611e+003;2.946365e-002
2.603540e+003;2.964939e-002
2.605468e+003;2.975267e-002
2.607397e+003;2.986485e-002
2.609325e+003;2.999211e-002
2.611254e+003;2.997273e-002
2.613183e+003;2.995331e-002
2.615111e+003;3.005776e-002
2.617040e+003;3.019009e-002
2.618968e+003;3.040610e-002
2.620897e+003;3.039579e-002
2.622825e+003;3.029946e-002
2.624754e+003;3.036285e-002
2.626682e+003;3.044128e-002
2.628611e+003;3.023374e-002
2.630540e+003;3.002176e-002
2.632468e+003;3.029619e-002
2.634396e+003;3.049765e-002
2.636325e+003;3.034714e-002
2.638254e+003;3.019989e-002
2.640182e+003;3.034029e-002
2.642111e+003;3.039423e-002
2.644039e+003;3.018003e-002
2.645968e+003;3.009547e-002
2.647896e+003;3.009405e-002
2.649825e+003;3.034220e-002
2.651753e+003;3.048006e-002
2.653682e+003;3.029413e-002
2.655611e+003;3.029747e-002
2.657539e+003;3.044729e-002
2.659468e+003;3.045731e-002
2.661396e+003;3.052328e-002
2.663325e+003;3.059875e-002
2.665253e+003;3.064661e-002
2.667182e+003;3.090543e-002
2.669110e+003;3.127193e-002
2.671039e+003;3.148153e-002
2.672968e+003;3.149015e-002
2.674896e+003;3.150280e-002
2.676825e+003;3.164968e-002
2.678753e+003;3.169459e-002
2.680682e+003;3.188878e-002
2.682610e+003;3.217824e-002
2.684539e+003;3.230672e-002
2.686467e+003;3.248911e-002
2.688396e+003;3.270062e-002
2.690324e+003;3.288304e-002
2.692253e+003;3.309303e-002
2.694182e+003;3.323715e-002
2.696110e+003;3.343296e-002
2.698039e+003;3.367970e-002
2.699967e+003;3.375225e-002
2.701896e+003;3.395284e-002
2.703824e+003;3.406740e-002
2.705753e+003;3.389499e-002
2.707681e+003;3.384949e-002
2.709610e+003;3.411718e-002
2.711539e+003;3.458693e-002
2.713467e+003;3.498622e-002
2.715396e+003;3.502770e-002
2.717324e+003;3.498787e-002
2.719253e+003;3.526881e-002
2.721181e+003;3.558981e-002
2.723110e+003;3.581622e-002
2.725038e+003;3.593253e-002
2.726967e+003;3.592458e-002
2.728896e+003;3.596910e-002
2.730824e+003;3.635752e-002
2.732752e+003;3.710555e-002
2.734681e+003;3.745345e-002
2.736610e+003;3.741625e-002
2.738538e+003;3.749993e-002
2.740467e+003;3.758674e-002
2.742395e+003;3.760170e-002
2.744324e+003;3.776389e-002
2.746252e+003;3.812146e-002
2.748181e+003;3.832803e-002
2.750109e+003;3.836603e-002
2.752038e+003;3.866119e-002
2.753967e+003;3.879109e-002
2.755895e+003;3.885286e-002
2.757824e+003;3.918875e-002
2.759752e+003;3.933716e-002
2.761681e+003;3.927372e-002
2.763609e+003;3.952533e-002
2.765538e+003;3.988751e-002
2.767466e+003;4.002661e-002
2.769395e+003;4.005045e-002
2.771323e+003;4.037526e-002
2.773252e+003;4.069525e-002
2.775181e+003;4.071905e-002
2.777109e+003;4.049280e-002
2.779038e+003;4.043581e-002
2.780966e+003;4.090581e-002
2.782895e+003;4.120682e-002
2.784823e+003;4.126665e-002
2.786752e+003;4.120343e-002
2.788680e+003;4.118041e-002
2.790609e+003;4.148230e-002
2.792538e+003;4.186455e-002
2.794466e+003;4.227727e-002
2.796395e+003;4.258887e-002
2.798323e+003;4.250972e-002
2.800252e+003;4.267948e-002
2.802180e+003;4.310886e-002
2.804109e+003;4.323830e-002
2.806037e+003;4.331085e-002
2.807966e+003;4.337247e-002
2.809895e+003;4.361877e-002
2.811823e+003;4.393193e-002
2.813751e+003;4.401457e-002
2.815680e+003;4.397904e-002
2.817609e+003;4.400020e-002
2.819537e+003;4.430820e-002
2.821466e+003;4.441980e-002
2.823394e+003;4.444986e-002
2.825323e+003;4.469408e-002
2.827251e+003;4.507454e-002
2.829180e+003;4.516605e-002
2.831108e+003;4.518667e-002
2.833037e+003;4.574693e-002
2.834966e+003;4.612728e-002
2.836894e+003;4.619442e-002
2.838823e+003;4.656605e-002
2.840751e+003;4.707266e-002
2.842680e+003;4.744327e-002
2.844608e+003;4.808198e-002
2.846537e+003;4.864984e-002
2.848465e+003;4.900184e-002
2.850394e+003;4.941030e-002
2.852323e+003;5.003102e-002
2.854251e+003;5.069098e-002
2.856180e+003;5.112600e-002
2.858108e+003;5.136290e-002
2.860037e+003;5.196024e-002
2.861965e+003;5.264109e-002
2.863894e+003;5.294663e-002
2.865822e+003;5.310690e-002
2.867751e+003;5.352089e-002
2.869679e+003;5.412695e-002
2.871608e+003;5.467939e-002
2.873536e+003;5.492884e-002
2.875465e+003;5.525098e-002
2.877394e+003;5.543179e-002
2.879322e+003;5.497288e-002
2.881251e+003;5.467898e-002
2.883179e+003;5.480609e-002
2.885108e+003;5.478369e-002
2.887036e+003;5.478035e-002
2.888965e+003;5.485057e-002
2.890893e+003;5.480076e-002
2.892822e+003;5.519868e-002
2.894750e+003;5.539193e-002
2.896679e+003;5.518619e-002
2.898608e+003;5.520647e-002
2.900536e+003;5.546823e-002
2.902465e+003;5.586715e-002
2.904393e+003;5.636541e-002
2.906322e+003;5.664708e-002
2.908250e+003;5.684374e-002
2.910179e+003;5.705011e-002
2.912107e+003;5.724694e-002
2.914036e+003;5.787889e-002
2.915965e+003;5.831659e-002
2.917893e+003;5.861342e-002
2.919822e+003;5.908789e-002
2.921750e+003;5.964011e-002
2.923679e+003;6.004691e-002
2.925607e+003;6.037009e-002
2.927536e+003;6.115912e-002
2.929464e+003;6.178911e-002
2.931393e+003;6.204467e-002
2.933322e+003;6.181352e-002
2.935250e+003;6.187174e-002
2.937178e+003;6.243533e-002
2.939107e+003;6.228733e-002
2.941036e+003;6.181902e-002
2.942964e+003;6.148877e-002
2.944893e+003;6.094094e-002
2.946821e+003;6.032040e-002
2.948750e+003;5.986949e-002
2.950678e+003;5.967923e-002
2.952607e+003;5.934205e-002
2.954535e+003;5.889216e-002
2.956464e+003;5.864167e-002
2.958393e+003;5.889595e-002
2.960321e+003;5.901455e-002
2.962250e+003;5.897659e-002
2.964178e+003;5.911150e-002
2.966107e+003;5.895967e-002
2.968035e+003;5.895250e-002
2.969964e+003;5.929521e-002
2.971892e+003;5.936556e-002
2.973821e+003;5.873168e-002
2.975750e+003;5.830253e-002
2.977678e+003;5.826612e-002
2.979607e+003;5.805875e-002
2.981535e+003;5.784504e-002
2.983464e+003;5.802633e-002
2.985392e+003;5.793632e-002
2.987321e+003;5.767008e-002
2.989249e+003;5.758374e-002
2.991178e+003;5.729555e-002
2.993106e+003;5.670334e-002
2.995035e+003;5.648181e-002
2.996964e+003;5.649086e-002
2.998892e+003;5.611668e-002
3.000821e+003;5.558827e-002
3.002749e+003;5.536355e-002
3.004678e+003;5.510565e-002
3.006606e+003;5.472028e-002
3.008535e+003;5.449097e-002
3.010463e+003;5.457430e-002
3.012392e+003;5.486515e-002
3.014321e+003;5.493509e-002
3.016249e+003;5.481624e-002
3.018177e+003;5.488406e-002
3.020106e+003;5.507807e-002
3.022035e+003;5.519067e-002
3.023963e+003;5.515203e-002
3.025892e+003;5.552595e-002
3.027820e+003;5.617448e-002
3.029749e+003;5.636311e-002
3.031677e+003;5.653000e-002
3.033606e+003;5.705513e-002
3.035534e+003;5.740407e-002
3.037463e+003;5.765873e-002
3.039392e+003;5.800823e-002
3.041320e+003;5.826964e-002
3.043249e+003;5.873531e-002
3.045177e+003;5.923035e-002
3.047106e+003;5.929932e-002
3.049034e+003;5.950804e-002
3.050963e+003;5.973899e-002
3.052891e+003;5.980580e-002
3.054820e+003;6.011308e-002
3.056749e+003;6.069206e-002
3.058677e+003;6.112654e-002
3.060606e+003;6.135629e-002
3.062534e+003;6.157024e-002
3.064463e+003;6.191164e-002
3.066391e+003;6.201535e-002
3.068320e+003;6.191534e-002
3.070248e+003;6.199311e-002
3.072177e+003;6.217369e-002
3.074105e+003;6.217449e-002
3.076034e+003;6.198738e-002
3.077963e+003;6.185459e-002
3.079891e+003;6.172318e-002
3.081820e+003;6.172112e-002
3.083748e+003;6.173166e-002
3.085677e+003;6.177968e-002
3.087605e+003;6.161686e-002
3.089534e+003;6.123351e-002
3.091462e+003;6.100946e-002
3.093391e+003;6.079358e-002
3.095320e+003;6.056043e-002
3.097248e+003;6.019577e-002
3.099177e+003;5.985584e-002
3.101105e+003;5.983378e-002
3.103034e+003;5.962160e-002
3.104962e+003;5.928393e-002
3.106891e+003;5.924242e-002
3.108819e+003;5.905604e-002
3.110748e+003;5.886768e-002
3.112677e+003;5.892483e-002
3.114605e+003;5.880785e-002
3.116533e+003;5.855506e-002
3.118462e+003;5.864011e-002
3.120391e+003;5.881168e-002
3.122319e+003;5.881498e-002
3.124248e+003;5.887076e-002
3.126176e+003;5.879563e-002
3.128105e+003;5.895993e-002
3.130033e+003;5.921801e-002
3.131962e+003;5.895955e-002
3.133890e+003;5.866814e-002
3.135819e+003;5.879161e-002
3.137748e+003;5.910004e-002
3.139676e+003;5.940097e-002
3.141605e+003;5.964383e-002
3.143533e+003;5.996747e-002
3.145462e+003;6.009261e-002
3.147390e+003;6.012849e-002
3.149319e+003;6.046780e-002
3.151247e+003;6.097636e-002
3.153176e+003;6.143709e-002
3.155104e+003;6.171562e-002
3.157033e+003;6.218952e-002
3.158962e+003;6.242997e-002
3.160890e+003;6.270459e-002
3.162819e+003;6.344016e-002
3.164747e+003;6.393736e-002
3.166676e+003;6.426395e-002
3.168604e+003;6.466495e-002
3.170533e+003;6.505612e-002
3.172461e+003;6.565572e-002
3.174390e+003;6.642512e-002
3.176319e+003;6.705728e-002
3.178247e+003;6.715268e-002
3.180176e+003;6.713358e-002
3.182104e+003;6.761404e-002
3.184033e+003;6.816287e-002
3.185961e+003;6.871039e-002
3.187890e+003;6.949649e-002
3.189818e+003;7.028075e-002
3.191747e+003;7.054498e-002
3.193676e+003;7.099479e-002
3.195604e+003;7.183054e-002
3.197532e+003;7.247321e-002
3.199461e+003;7.293258e-002
3.201390e+003;7.350839e-002
3.203318e+003;7.424686e-002
3.205247e+003;7.460026e-002
3.207175e+003;7.479241e-002
3.209104e+003;7.542403e-002
3.211032e+003;7.635017e-002
3.212961e+003;7.720275e-002
3.214889e+003;7.768741e-002
3.216818e+003;7.789715e-002
3.218747e+003;7.845430e-002
3.220675e+003;7.934158e-002
3.222604e+003;8.030920e-002
3.224532e+003;8.103517e-002
3.226461e+003;8.168066e-002
3.228389e+003;8.249086e-002
3.230318e+003;8.309699e-002
3.232246e+003;8.351340e-002
3.234175e+003;8.437371e-002
3.236104e+003;8.542792e-002
3.238032e+003;8.649380e-002
3.239961e+003;8.724084e-002
3.241889e+003;8.777005e-002
3.243818e+003;8.852166e-002
3.245746e+003;8.938976e-002
3.247675e+003;9.014478e-002
3.249603e+003;9.083062e-002
3.251532e+003;9.204246e-002
3.253460e+003;9.368663e-002
3.255389e+003;9.479909e-002
3.257318e+003;9.547552e-002
3.259246e+003;9.637949e-002
3.261175e+003;9.740379e-002
3.263103e+003;9.841828e-002
3.265032e+003;9.931032e-002
3.266960e+003;1.002739e-001
3.268889e+003;1.016458e-001
3.270817e+003;1.031323e-001
3.272746e+003;1.039948e-001
3.274675e+003;1.043578e-001
3.276603e+003;1.048751e-001
3.278531e+003;1.053074e-001
3.280460e+003;1.050868e-001
3.282389e+003;1.047372e-001
3.284317e+003;1.049918e-001
3.286246e+003;1.053193e-001
3.288174e+003;1.048683e-001
3.290103e+003;1.040270e-001
3.292031e+003;1.036838e-001
3.293960e+003;1.032437e-001
3.295888e+003;1.021430e-001
3.297817e+003;1.009482e-001
3.299746e+003;9.982238e-002
3.301674e+003;9.861038e-002
3.303603e+003;9.747689e-002
3.305531e+003;9.654561e-002
3.307460e+003;9.573886e-002
3.309388e+003;9.433149e-002
3.311317e+003;9.295477e-002
3.313245e+003;9.198193e-002
3.315174e+003;9.061063e-002
3.317103e+003;8.900789e-002
3.319031e+003;8.783799e-002
3.320960e+003;8.698408e-002
3.322888e+003;8.594134e-002
3.324817e+003;8.479517e-002
3.326745e+003;8.361197e-002
3.328674e+003;8.229975e-002
3.330602e+003;8.105163e-002
3.332531e+003;8.005334e-002
3.334459e+003;7.918732e-002
3.336388e+003;7.829674e-002
3.338317e+003;7.736946e-002
3.340245e+003;7.661223e-002
3.342174e+003;7.544859e-002
3.344102e+003;7.444610e-002
3.346031e+003;7.367843e-002
3.347959e+003;7.279151e-002
3.349888e+003;7.201643e-002
3.351816e+003;7.169081e-002
3.353745e+003;7.135683e-002
3.355674e+003;7.017594e-002
3.357602e+003;6.929605e-002
3.359531e+003;6.872288e-002
3.361459e+003;6.775282e-002
3.363388e+003;6.742097e-002
3.365316e+003;6.723769e-002
3.367245e+003;6.672797e-002
3.369173e+003;6.635304e-002
3.371102e+003;6.596050e-002
3.373031e+003;6.546067e-002
3.374959e+003;6.488688e-002
3.376887e+003;6.432999e-002
3.378816e+003;6.429172e-002
3.380745e+003;6.396969e-002
3.382673e+003;6.350700e-002
3.384602e+003;6.288389e-002
3.386530e+003;6.207884e-002
3.388459e+003;6.170370e-002
3.390387e+003;6.148392e-002
3.392316e+003;6.117163e-002
3.394244e+003;6.069495e-002
3.396173e+003;6.006898e-002
3.398102e+003;5.993358e-002
3.400030e+003;5.991399e-002
3.401959e+003;5.929700e-002
3.403887e+003;5.889189e-002
3.405816e+003;5.848041e-002
3.407744e+003;5.769959e-002
3.409673e+003;5.704040e-002
3.411601e+003;5.675072e-002
3.413530e+003;5.675990e-002
3.415458e+003;5.655544e-002
3.417387e+003;5.613919e-002
3.419316e+003;5.551153e-002
3.421244e+003;5.474990e-002
3.423173e+003;5.444008e-002
3.425101e+003;5.422405e-002
3.427030e+003;5.387394e-002
3.428958e+003;5.346974e-002
3.430887e+003;5.317423e-002
3.432815e+003;5.297688e-002
3.434744e+003;5.238988e-002
3.436673e+003;5.210288e-002
3.438601e+003;5.214427e-002
3.440530e+003;5.141739e-002
3.442458e+003;5.080989e-002
3.444387e+003;5.069932e-002
3.446315e+003;5.040956e-002
3.448244e+003;5.031966e-002
3.450172e+003;5.043341e-002
3.452101e+003;5.014361e-002
3.454030e+003;4.953737e-002
3.455958e+003;4.920742e-002
3.457886e+003;4.900714e-002
3.459815e+003;4.889748e-002
3.461744e+003;4.877501e-002
3.463672e+003;4.862441e-002
3.465601e+003;4.853081e-002
3.467529e+003;4.818067e-002
3.469458e+003;4.817422e-002
3.471386e+003;4.824239e-002
3.473315e+003;4.808535e-002
3.475243e+003;4.754551e-002
3.477172e+003;4.703580e-002
3.479101e+003;4.722057e-002
3.481029e+003;4.745727e-002
3.482958e+003;4.725737e-002
3.484886e+003;4.730037e-002
3.486815e+003;4.738924e-002
3.488743e+003;4.698924e-002
3.490672e+003;4.691268e-002
3.492600e+003;4.695764e-002
3.494529e+003;4.657926e-002
3.496458e+003;4.616619e-002
3.498386e+003;4.587635e-002
3.500315e+003;4.566502e-002
3.502243e+003;4.557463e-002
3.504172e+003;4.549485e-002
3.506100e+003;4.548606e-002
3.508029e+003;4.531762e-002
3.509957e+003;4.508925e-002
3.511886e+003;4.510134e-002
3.513814e+003;4.492570e-002
3.515743e+003;4.435363e-002
3.517672e+003;4.388746e-002
3.519600e+003;4.367054e-002
3.521529e+003;4.363507e-002
3.523457e+003;4.352998e-002
3.525386e+003;4.322289e-002
3.527314e+003;4.274529e-002
3.529243e+003;4.275395e-002
3.531171e+003;4.290107e-002
3.533100e+003;4.280825e-002
3.535029e+003;4.217242e-002
3.536957e+003;4.148303e-002
3.538885e+003;4.151646e-002
3.540814e+003;4.168558e-002
3.542743e+003;4.166034e-002
3.544671e+003;4.152258e-002
3.546600e+003;4.123258e-002
3.548528e+003;4.106214e-002
3.550457e+003;4.077652e-002
3.552385e+003;4.013072e-002
3.554314e+003;4.001063e-002
3.556242e+003;4.002269e-002
3.558171e+003;3.965759e-002
3.560100e+003;3.951291e-002
3.562028e+003;3.907479e-002
3.563957e+003;3.845812e-002
3.565885e+003;3.788162e-002
3.567814e+003;3.745363e-002
3.569742e+003;3.739740e-002
3.571671e+003;3.735204e-002
3.573599e+003;3.738804e-002
3.575528e+003;3.702775e-002
3.577457e+003;3.661332e-002
3.579385e+003;3.601255e-002
3.581314e+003;3.550609e-002
3.583242e+003;3.554705e-002
3.585171e+003;3.544716e-002
3.587099e+003;3.527686e-002
3.589028e+003;3.539216e-002
3.590956e+003;3.524024e-002
3.592885e+003;3.483346e-002
3.594813e+003;3.440419e-002
3.596742e+003;3.409428e-002
3.598671e+003;3.369170e-002
3.600599e+003;3.327131e-002
3.602528e+003;3.287096e-002
3.604456e+003;3.224643e-002
3.606385e+003;3.189769e-002
3.608313e+003;3.193760e-002
3.610242e+003;3.164284e-002
3.612170e+003;3.104136e-002
3.614099e+003;3.040823e-002
3.616028e+003;2.975150e-002
3.617956e+003;2.918570e-002
3.619885e+003;2.896955e-002
3.621813e+003;2.884581e-002
3.623742e+003;2.837062e-002
3.625670e+003;2.793253e-002
3.627599e+003;2.754208e-002
3.629527e+003;2.688554e-002
3.631456e+003;2.654164e-002
3.633385e+003;2.623806e-002
3.635313e+003;2.526758e-002
3.637241e+003;2.455967e-002
3.639170e+003;2.409525e-002
3.641099e+003;2.362575e-002
3.643027e+003;2.302321e-002
3.644956e+003;2.258849e-002
3.646884e+003;2.234745e-002
3.648813e+003;2.200666e-002
3.650741e+003;2.142234e-002
3.652670e+003;2.076161e-002
3.654598e+003;2.021839e-002
3.656527e+003;1.947291e-002
3.658456e+003;1.896231e-002
3.660384e+003;1.854259e-002
3.662313e+003;1.774275e-002
3.664241e+003;1.699623e-002
3.666170e+003;1.645284e-002
3.668098e+003;1.592550e-002
3.670027e+003;1.559054e-002
3.671955e+003;1.514857e-002
3.673884e+003;1.466987e-002
3.675813e+003;1.419761e-002
3.677741e+003;1.398773e-002
3.679669e+003;1.358366e-002
3.681598e+003;1.300452e-002
3.683527e+003;1.251981e-002
3.685455e+003;1.224758e-002
3.687384e+003;1.182783e-002
3.689312e+003;1.137232e-002
3.691241e+003;1.141399e-002
3.693169e+003;1.120314e-002
3.695098e+003;1.046631e-002
3.697026e+003;1.026403e-002
3.698955e+003;1.043559e-002
3.700884e+003;9.978766e-003
3.702812e+003;9.691183e-003
3.704741e+003;9.669500e-003
3.706669e+003;9.784538e-003
3.708598e+003;9.801923e-003
3.710526e+003;9.574782e-003
3.712455e+003;9.277786e-003
3.714383e+003;9.344204e-003
3.716312e+003;9.458614e-003
3.718240e+003;9.093245e-003
3.720169e+003;8.609638e-003
3.722098e+003;8.492072e-003
3.724026e+003;8.253085e-003
3.725955e+003;7.875333e-003
3.727883e+003;7.648961e-003
3.729812e+003;7.814908e-003
3.731740e+003;8.036034e-003
3.733669e+003;8.102600e-003
3.735597e+003;8.220195e-003
3.737526e+003;7.909716e-003
3.739455e+003;7.901685e-003
3.741383e+003;7.848983e-003
3.743312e+003;7.293904e-003
3.745240e+003;7.404876e-003
3.747169e+003;7.900234e-003
3.749097e+003;7.844529e-003
3.751026e+003;7.739651e-003
3.752954e+003;7.887648e-003
3.754883e+003;8.134198e-003
3.756812e+003;8.015919e-003
3.758740e+003;7.896557e-003
3.760668e+003;7.846587e-003
3.762597e+003;7.529868e-003
3.764526e+003;7.226417e-003
3.766454e+003;7.189663e-003
3.768383e+003;7.198220e-003
3.770311e+003;7.315570e-003
3.772240e+003;7.284132e-003
3.774168e+003;7.142571e-003
3.776097e+003;7.456008e-003
3.778025e+003;7.425908e-003
3.779954e+003;7.055643e-003
3.781883e+003;7.197142e-003
3.783811e+003;7.191516e-003
3.785740e+003;6.868844e-003
3.787668e+003;7.135060e-003
3.789597e+003;7.383711e-003
3.791525e+003;7.404371e-003
3.793454e+003;7.148365e-003
3.795382e+003;7.056383e-003
3.797311e+003;6.718265e-003
3.799240e+003;6.709382e-003
3.801168e+003;7.157695e-003
3.803097e+003;7.387452e-003
3.805025e+003;7.415257e-003
3.806954e+003;7.317457e-003
3.808882e+003;6.978429e-003
3.810811e+003;6.674253e-003
3.812739e+003;6.873490e-003
3.814668e+003;7.103904e-003
3.816596e+003;6.896112e-003
3.818525e+003;6.939810e-003
3.820454e+003;7.244206e-003
3.822382e+003;7.386744e-003
3.824311e+003;7.448660e-003
3.826239e+003;7.457592e-003
3.828168e+003;7.761238e-003
3.830096e+003;7.959253e-003
3.832025e+003;7.656008e-003
3.833953e+003;7.747172e-003
3.835882e+003;7.824523e-003
3.837811e+003;7.302833e-003
3.839739e+003;7.167801e-003
3.841667e+003;7.265971e-003
3.843596e+003;7.398877e-003
3.845525e+003;7.512000e-003
3.847453e+003;7.493998e-003
3.849382e+003;7.519586e-003
3.851310e+003;8.039882e-003
3.853239e+003;8.187003e-003
3.855167e+003;7.862681e-003
3.857096e+003;7.715028e-003
3.859024e+003;8.210605e-003
3.860953e+003;8.458556e-003
3.862882e+003;8.291281e-003
3.864810e+003;8.241807e-003
3.866739e+003;8.369539e-003
3.868667e+003;8.359575e-003
3.870596e+003;8.353495e-003
3.872524e+003;8.557728e-003
3.874453e+003;8.342111e-003
3.876381e+003;8.042920e-003
3.878310e+003;8.438521e-003
3.880239e+003;8.691131e-003
3.882167e+003;8.697418e-003
3.884096e+003;8.824440e-003
3.886024e+003;8.669463e-003
3.887953e+003;8.472645e-003
3.889881e+003;8.892479e-003
3.891810e+003;9.362418e-003
3.893738e+003;9.586773e-003
3.895667e+003;9.955983e-003
3.897595e+003;9.957000e-003
3.899524e+003;9.751091e-003
3.901453e+003;9.733775e-003
3.903381e+003;9.941608e-003
3.905310e+003;1.017715e-002
3.907238e+003;1.018448e-002
3.909167e+003;9.788977e-003
3.911095e+003;9.323994e-003
3.913024e+003;9.523163e-003
3.914952e+003;1.006313e-002
3.916881e+003;1.043610e-002
3.918810e+003;1.050205e-002
3.920738e+003;1.054309e-002
3.922667e+003;1.053033e-002
3.924595e+003;1.061952e-002
3.926524e+003;1.066709e-002
3.928452e+003;1.035974e-002
3.930381e+003;1.072656e-002
3.932309e+003;1.140025e-002
3.934238e+003;1.118465e-002
3.936167e+003;1.092052e-002
3.938095e+003;1.123116e-002
3.940023e+003;1.137617e-002
3.941952e+003;1.169645e-002
3.943881e+003;1.200301e-002
3.945809e+003;1.192832e-002
3.947738e+003;1.195945e-002
3.949666e+003;1.192975e-002
3.951595e+003;1.182943e-002
3.953523e+003;1.195526e-002
3.955452e+003;1.173482e-002
3.957380e+003;1.144930e-002
3.959309e+003;1.122415e-002
3.961238e+003;1.124864e-002
3.963166e+003;1.181431e-002
3.965095e+003;1.218154e-002
3.967023e+003;1.200516e-002
3.968952e+003;1.168325e-002
3.970880e+003;1.147363e-002
3.972809e+003;1.158615e-002
3.974737e+003;1.157335e-002
3.976666e+003;1.172716e-002
3.978594e+003;1.209312e-002
3.980523e+003;1.247323e-002
3.982452e+003;1.229775e-002
3.984380e+003;1.183852e-002
3.986309e+003;1.157614e-002
3.988237e+003;1.155791e-002
3.990166e+003;1.155614e-002
3.992094e+003;1.133767e-002
3.994023e+003;1.137440e-002
3.995951e+003;1.123055e-002
3.997880e+003;1.134209e-002
3.999809e+003;1.149503e-002
4.001737e+003;0.000000e+000
