3.992094e+002;0.000000e+000
4.011380e+002;0.000000e+000
4.030665e+002;0.000000e+000
4.049951e+002;0.000000e+000
4.069236e+002;0.000000e+000
4.088522e+002;0.000000e+000
4.107807e+002;0.000000e+000
4.127093e+002;0.000000e+000
4.146378e+002;0.000000e+000
4.165664e+002;0.000000e+000
4.184949e+002;0.000000e+000
4.204235e+002;0.000000e+000
4.223520e+002;0.000000e+000
4.242806e+002;0.000000e+000
4.262091e+002;0.000000e+000
4.281377e+002;0.000000e+000
4.300662e+002;0.000000e+000
4.319948e+002;0.000000e+000
4.339233e+002;0.000000e+000
4.358519e+002;0.000000e+000
4.377804e+002;0.000000e+000
4.397090e+002;0.000000e+000
4.416375e+002;0.000000e+000
4.435660e+002;0.000000e+000
4.454946e+002;0.000000e+000
4.474232e+002;0.000000e+000
4.493517e+002;0.000000e+000
4.512802e+002;0.000000e+000
4.532088e+002;0.000000e+000
4.551373e+002;0.000000e+000
4.570659e+002;0.000000e+000
4.589944e+002;0.000000e+000
4.609230e+002;0.000000e+000
4.628515e+002;0.000000e+000
4.647801e+002;0.000000e+000
4.667086e+002;0.000000e+000
4.686372e+002;0.000000e+000
4.705657e+002;0.000000e+000
4.724943e+002;0.000000e+000
4.744228e+002;0.000000e+000
4.763513e+002;0.000000e+000
4.782799e+002;0.000000e+000
4.802085e+002;0.000000e+000
4.821370e+002;0.000000e+000
4.840656e+002;0.000000e+000
4.859941e+002;0.000000e+000
4.879226e+002;0.000000e+000
4.898512e+002;0.000000e+000
4.917798e+002;0.000000e+000
4.937083e+002;0.000000e+000
4.956368e+002;0.000000e+000
4.975654e+002;0.000000e+000
4.994939e+002;0.000000e+000
5.014225e+002;0.000000e+000
5.033510e+002;0.000000e+000
5.052796e+002;0.000000e+000
5.072081e+002;0.000000e+000
5.091367e+002;0.000000e+000
5.110652e+002;0.000000e+000
5.129938e+002;0.000000e+000
5.149223e+002;0.000000e+000
5.168509e+002;0.000000e+000
5.187794e+002;0.000000e+000
5.207079e+002;0.000000e+000
5.226365e+002;0.000000e+000
5.245651e+002;0.000000e+000
5.264936e+002;0.000000e+000
5.284222e+002;0.000000e+000
5.303507e+002;0.000000e+000
5.322792e+002;0.000000e+000
5.342078e+002;0.000000e+000
5.361364e+002;0.000000e+000
5.380649e+002;0.000000e+000
5.399935e+002;0.000000e+000
5.419220e+002;0.000000e+000
5.438505e+002;0.000000e+000
5.457791e+002;0.000000e+000
5.477076e+002;0.000000e+000
5.496362e+002;0.000000e+000
5.515648e+002;0.000000e+000
5.534933e+002;0.000000e+000
5.554218e+002;0.000000e+000
5.573504e+002;0.000000e+000
5.592789e+002;0.000000e+000
5.612075e+002;0.000000e+000
5.631360e+002;0.000000e+000
5.650646e+002;0.000000e+000
5.669931e+002;0.000000e+000
5.689217e+002;0.000000e+000
5.708502e+002;0.000000e+000
5.727787e+002;0.000000e+000
5.747073e+002;0.000000e+000
5.766359e+002;0.000000e+000
5.785644e+002;0.000000e+000
5.804930e+002;0.000000e+000
5.824215e+002;0.000000e+000
5.843500e+002;0.000000e+000
5.862786e+002;0.000000e+000
5.882072e+002;0.000000e+000
5.901357e+002;0.000000e+000
5.920643e+002;0.000000e+000
5.939928e+002;0.000000e+000
5.959213e+002;0.000000e+000
5.978499e+002;0.000000e+000
5.997784e+002;1.786630e-001
6.017070e+002;1.824708e-001
6.036355e+002;1.897924e-001
6.055641e+002;1.925238e-001
6.074926e+002;1.960784e-001
6.094211e+002;1.960425e-001
6.113497e+002;1.961943e-001
6.132783e+002;1.984392e-001
6.152068e+002;1.949719e-001
6.171354e+002;1.909572e-001
6.190639e+002;1.917566e-001
6.209924e+002;1.963369e-001
6.229210e+002;1.982984e-001
6.248495e+002;1.963950e-001
6.267781e+002;1.914577e-001
6.287067e+002;1.900397e-001
6.306352e+002;1.908387e-001
6.325637e+002;1.875358e-001
6.344923e+002;1.861309e-001
6.364208e+002;1.895424e-001
6.383494e+002;1.882786e-001
6.402780e+002;1.848015e-001
6.422065e+002;1.834450e-001
6.441350e+002;1.819347e-001
6.460636e+002;1.820913e-001
6.479921e+002;1.867379e-001
6.499207e+002;1.875780e-001
6.518492e+002;1.846299e-001
6.537778e+002;1.826568e-001
6.557063e+002;1.821972e-001
6.576349e+002;1.808339e-001
6.595634e+002;1.803018e-001
6.614919e+002;1.822509e-001
6.634205e+002;1.836504e-001
6.653491e+002;1.820998e-001
6.672776e+002;1.789904e-001
6.692062e+002;1.795854e-001
6.711347e+002;1.811207e-001
6.730632e+002;1.810487e-001
6.749918e+002;1.808107e-001
6.769203e+002;1.807067e-001
6.788489e+002;1.805568e-001
6.807775e+002;1.809573e-001
6.827060e+002;1.807452e-001
6.846345e+002;1.803893e-001
6.865631e+002;1.812728e-001
6.884916e+002;1.816375e-001
6.904202e+002;1.816135e-001
6.923488e+002;1.805636e-001
6.942773e+002;1.787286e-001
6.962058e+002;1.778964e-001
6.981344e+002;1.764204e-001
7.000629e+002;1.746140e-001
7.019915e+002;1.735173e-001
7.039200e+002;1.716940e-001
7.058486e+002;1.696848e-001
7.077771e+002;1.679240e-001
7.097057e+002;1.653314e-001
7.116342e+002;1.628783e-001
7.135627e+002;1.614553e-001
7.154913e+002;1.603243e-001
7.174199e+002;1.591384e-001
7.193484e+002;1.581089e-001
7.212770e+002;1.565060e-001
7.232055e+002;1.541143e-001
7.251340e+002;1.514629e-001
7.270626e+002;1.495456e-001
7.289911e+002;1.469948e-001
7.309197e+002;1.442209e-001
7.328483e+002;1.417497e-001
7.347768e+002;1.397586e-001
7.367053e+002;1.373220e-001
7.386339e+002;1.345726e-001
7.405624e+002;1.321323e-001
7.424910e+002;1.299776e-001
7.444196e+002;1.286884e-001
7.463481e+002;1.271262e-001
7.482766e+002;1.244802e-001
7.502052e+002;1.229390e-001
7.521337e+002;1.218069e-001
7.540623e+002;1.195713e-001
7.559908e+002;1.179133e-001
7.579194e+002;1.174868e-001
7.598479e+002;1.162280e-001
7.617765e+002;1.153080e-001
7.637050e+002;1.152466e-001
7.656335e+002;1.144965e-001
7.675621e+002;1.129830e-001
7.694907e+002;1.123194e-001
7.714192e+002;1.119946e-001
7.733478e+002;1.109159e-001
7.752763e+002;1.094001e-001
7.772048e+002;1.087293e-001
7.791334e+002;1.078068e-001
7.810620e+002;1.063781e-001
7.829905e+002;1.053360e-001
7.849191e+002;1.043854e-001
7.868476e+002;1.033741e-001
7.887761e+002;1.021880e-001
7.907047e+002;1.013421e-001
7.926332e+002;1.002874e-001
7.945618e+002;9.942174e-002
7.964903e+002;9.948352e-002
7.984189e+002;9.949952e-002
8.003474e+002;9.872274e-002
8.022759e+002;9.881246e-002
8.042045e+002;9.854756e-002
8.061331e+002;9.834360e-002
8.080616e+002;9.866040e-002
8.099902e+002;9.837311e-002
8.119187e+002;9.839164e-002
8.138472e+002;9.856456e-002
8.157758e+002;9.830558e-002
8.177043e+002;9.844135e-002
8.196329e+002;9.821285e-002
8.215615e+002;9.826951e-002
8.234900e+002;9.854760e-002
8.254185e+002;9.863637e-002
8.273471e+002;9.921454e-002
8.292756e+002;9.912024e-002
8.312042e+002;9.833213e-002
8.331328e+002;9.763066e-002
8.350613e+002;9.702455e-002
8.369898e+002;9.572989e-002
8.389184e+002;9.493084e-002
8.408469e+002;9.447768e-002
8.427755e+002;9.431765e-002
8.447040e+002;9.478948e-002
8.466326e+002;9.539223e-002
8.485611e+002;9.544915e-002
8.504897e+002;9.554100e-002
8.524182e+002;9.528258e-002
8.543467e+002;9.483247e-002
8.562753e+002;9.414633e-002
8.582039e+002;9.290441e-002
8.601324e+002;9.170135e-002
8.620610e+002;9.103325e-002
8.639895e+002;9.068272e-002
8.659180e+002;8.998358e-002
8.678466e+002;8.999214e-002
8.697751e+002;9.081364e-002
8.717037e+002;9.138426e-002
8.736323e+002;9.157172e-002
8.755608e+002;9.182827e-002
8.774893e+002;9.201113e-002
8.794179e+002;9.186884e-002
8.813464e+002;9.187412e-002
8.832750e+002;9.195302e-002
8.852036e+002;9.181578e-002
8.871321e+002;9.165151e-002
8.890606e+002;9.171011e-002
8.909892e+002;9.205626e-002
8.929177e+002;9.239654e-002
8.948463e+002;9.191179e-002
8.967748e+002;9.136423e-002
8.987034e+002;9.178124e-002
9.006319e+002;9.233499e-002
9.025605e+002;9.275634e-002
9.044890e+002;9.296848e-002
9.064175e+002;9.320688e-002
9.083461e+002;9.329921e-002
9.102747e+002;9.365177e-002
9.122032e+002;9.436788e-002
9.141318e+002;9.483198e-002
9.160603e+002;9.560550e-002
9.179888e+002;9.679526e-002
9.199174e+002;9.796512e-002
9.218459e+002;9.890819e-002
9.237745e+002;9.977844e-002
9.257031e+002;1.004902e-001
9.276316e+002;1.009071e-001
9.295601e+002;1.009066e-001
9.314887e+002;1.009220e-001
9.334172e+002;1.010152e-001
9.353458e+002;1.008566e-001
9.372744e+002;1.007593e-001
9.392029e+002;1.010685e-001
9.411314e+002;1.012593e-001
9.430600e+002;1.013878e-001
9.449885e+002;1.015453e-001
9.469171e+002;1.019609e-001
9.488456e+002;1.023180e-001
9.507742e+002;1.028427e-001
9.527027e+002;1.037163e-001
9.546313e+002;1.044752e-001
9.565598e+002;1.050600e-001
9.584883e+002;1.057932e-001
9.604169e+002;1.066537e-001
9.623455e+002;1.076184e-001
9.642740e+002;1.087462e-001
9.662026e+002;1.102466e-001
9.681311e+002;1.118777e-001
9.700596e+002;1.137130e-001
9.719882e+002;1.155062e-001
9.739167e+002;1.167305e-001
9.758453e+002;1.176018e-001
9.777739e+002;1.178714e-001
9.797024e+002;1.175903e-001
9.816309e+002;1.172004e-001
9.835595e+002;1.172013e-001
9.854880e+002;1.181919e-001
9.874166e+002;1.201097e-001
9.893452e+002;1.227355e-001
9.912737e+002;1.257940e-001
9.932022e+002;1.287145e-001
9.951307e+002;1.311648e-001
9.970593e+002;1.331649e-001
9.989879e+002;1.346748e-001
1.000916e+003;1.355017e-001
1.002845e+003;1.362046e-001
1.004773e+003;1.370356e-001
1.006702e+003;1.374963e-001
1.008631e+003;1.381104e-001
1.010559e+003;1.393687e-001
1.012488e+003;1.401867e-001
1.014416e+003;1.408650e-001
1.016345e+003;1.413160e-001
1.018273e+003;1.412337e-001
1.020202e+003;1.417464e-001
1.022130e+003;1.429367e-001
1.024059e+003;1.438218e-001
1.025988e+003;1.445134e-001
1.027916e+003;1.453151e-001
1.029845e+003;1.464568e-001
1.031773e+003;1.475793e-001
1.033702e+003;1.484525e-001
1.035630e+003;1.494657e-001
1.037559e+003;1.498606e-001
1.039487e+003;1.501722e-001
1.041416e+003;1.507355e-001
1.043344e+003;1.507408e-001
1.045273e+003;1.506109e-001
1.047202e+003;1.507765e-001
1.049130e+003;1.507186e-001
1.051059e+003;1.509433e-001
1.052987e+003;1.513223e-001
1.054916e+003;1.513791e-001
1.056844e+003;1.511907e-001
1.058773e+003;1.508386e-001
1.060701e+003;1.504807e-001
1.062630e+003;1.503183e-001
1.064558e+003;1.500899e-001
1.066487e+003;1.496889e-001
1.068416e+003;1.487640e-001
1.070344e+003;1.475815e-001
1.072273e+003;1.464969e-001
1.074201e+003;1.454527e-001
1.076130e+003;1.437544e-001
1.078058e+003;1.414308e-001
1.079987e+003;1.394663e-001
1.081915e+003;1.373866e-001
1.083844e+003;1.354254e-001
1.085773e+003;1.336113e-001
1.087701e+003;1.320263e-001
1.089630e+003;1.305418e-001
1.091558e+003;1.294971e-001
1.093487e+003;1.293105e-001
1.095415e+003;1.298568e-001
1.097344e+003;1.299873e-001
1.099272e+003;1.296805e-001
1.101201e+003;1.297964e-001
1.103129e+003;1.298961e-001
1.105058e+003;1.294954e-001
1.106987e+003;1.290997e-001
1.108915e+003;1.283548e-001
1.110844e+003;1.269018e-001
1.112772e+003;1.258790e-001
1.114701e+003;1.250875e-001
1.116629e+003;1.245653e-001
1.118558e+003;1.241607e-001
1.120486e+003;1.235081e-001
1.122415e+003;1.230125e-001
1.124344e+003;1.223415e-001
1.126272e+003;1.217813e-001
1.128201e+003;1.214341e-001
1.130129e+003;1.212724e-001
1.132058e+003;1.214608e-001
1.133986e+003;1.215653e-001
1.135915e+003;1.218416e-001
1.137843e+003;1.223686e-001
1.139772e+003;1.231117e-001
1.141700e+003;1.241588e-001
1.143629e+003;1.252606e-001
1.145557e+003;1.263650e-001
1.147486e+003;1.275875e-001
1.149415e+003;1.287445e-001
1.151343e+003;1.301947e-001
1.153272e+003;1.315599e-001
1.155200e+003;1.323993e-001
1.157129e+003;1.330702e-001
1.159057e+003;1.337852e-001
1.160986e+003;1.339860e-001
1.162914e+003;1.339718e-001
1.164843e+003;1.341956e-001
1.166771e+003;1.339538e-001
1.168700e+003;1.335307e-001
1.170629e+003;1.331095e-001
1.172557e+003;1.317354e-001
1.174486e+003;1.302665e-001
1.176414e+003;1.285846e-001
1.178343e+003;1.268074e-001
1.180271e+003;1.256426e-001
1.182200e+003;1.249116e-001
1.184128e+003;1.247881e-001
1.186057e+003;1.253001e-001
1.187986e+003;1.257877e-001
1.189914e+003;1.262048e-001
1.191843e+003;1.270347e-001
1.193771e+003;1.281419e-001
1.195700e+003;1.295960e-001
1.197628e+003;1.311965e-001
1.199557e+003;1.330788e-001
1.201485e+003;1.357221e-001
1.203414e+003;1.384330e-001
1.205343e+003;1.408028e-001
1.207271e+003;1.435484e-001
1.209200e+003;1.468479e-001
1.211128e+003;1.500873e-001
1.213057e+003;1.527488e-001
1.214985e+003;1.552105e-001
1.216914e+003;1.576968e-001
1.218842e+003;1.597678e-001
1.220771e+003;1.614585e-001
1.222699e+003;1.628248e-001
1.224628e+003;1.639417e-001
1.226557e+003;1.644618e-001
1.228485e+003;1.644238e-001
1.230414e+003;1.643254e-001
1.232342e+003;1.635770e-001
1.234271e+003;1.615392e-001
1.236199e+003;1.591996e-001
1.238128e+003;1.569923e-001
1.240056e+003;1.546738e-001
1.241985e+003;1.527957e-001
1.243913e+003;1.511749e-001
1.245842e+003;1.494876e-001
1.247771e+003;1.481697e-001
1.249699e+003;1.472030e-001
1.251628e+003;1.464092e-001
1.253556e+003;1.455530e-001
1.255485e+003;1.451267e-001
1.257413e+003;1.454624e-001
1.259342e+003;1.452721e-001
1.261270e+003;1.446258e-001
1.263199e+003;1.438011e-001
1.265127e+003;1.421660e-001
1.267056e+003;1.400953e-001
1.268985e+003;1.375732e-001
1.270913e+003;1.350107e-001
1.272842e+003;1.324156e-001
1.274770e+003;1.298480e-001
1.276699e+003;1.277196e-001
1.278627e+003;1.260444e-001
1.280556e+003;1.246859e-001
1.282484e+003;1.237462e-001
1.284413e+003;1.227377e-001
1.286342e+003;1.219572e-001
1.288270e+003;1.213346e-001
1.290199e+003;1.206573e-001
1.292127e+003;1.201984e-001
1.294056e+003;1.199662e-001
1.295984e+003;1.195947e-001
1.297913e+003;1.194420e-001
1.299841e+003;1.196311e-001
1.301770e+003;1.196639e-001
1.303698e+003;1.197005e-001
1.305627e+003;1.195244e-001
1.307556e+003;1.192502e-001
1.309484e+003;1.191625e-001
1.311413e+003;1.190676e-001
1.313341e+003;1.186512e-001
1.315270e+003;1.184105e-001
1.317198e+003;1.184999e-001
1.319127e+003;1.186839e-001
1.321055e+003;1.190984e-001
1.322984e+003;1.196106e-001
1.324912e+003;1.198696e-001
1.326841e+003;1.201996e-001
1.328770e+003;1.207257e-001
1.330698e+003;1.211095e-001
1.332627e+003;1.210473e-001
1.334555e+003;1.209257e-001
1.336484e+003;1.206628e-001
1.338412e+003;1.202980e-001
1.340341e+003;1.202876e-001
1.342269e+003;1.202767e-001
1.344198e+003;1.197378e-001
1.346126e+003;1.194857e-001
1.348055e+003;1.195483e-001
1.349984e+003;1.195386e-001
1.351912e+003;1.192737e-001
1.353841e+003;1.194322e-001
1.355769e+003;1.202220e-001
1.357698e+003;1.214045e-001
1.359626e+003;1.228798e-001
1.361555e+003;1.244821e-001
1.363483e+003;1.261771e-001
1.365412e+003;1.277352e-001
1.367341e+003;1.288249e-001
1.369269e+003;1.292156e-001
1.371198e+003;1.290167e-001
1.373126e+003;1.286730e-001
1.375055e+003;1.285986e-001
1.376983e+003;1.286959e-001
1.378912e+003;1.287617e-001
1.380840e+003;1.287456e-001
1.382769e+003;1.289032e-001
1.384698e+003;1.290536e-001
1.386626e+003;1.292358e-001
1.388555e+003;1.293547e-001
1.390483e+003;1.294631e-001
1.392412e+003;1.298376e-001
1.394340e+003;1.303351e-001
1.396269e+003;1.310224e-001
1.398197e+003;1.319334e-001
1.400126e+003;1.330277e-001
1.402054e+003;1.342939e-001
1.403983e+003;1.352305e-001
1.405911e+003;1.357585e-001
1.407840e+003;1.361678e-001
1.409769e+003;1.364397e-001
1.411697e+003;1.365915e-001
1.413626e+003;1.364853e-001
1.415554e+003;1.360294e-001
1.417483e+003;1.355898e-001
1.419411e+003;1.356827e-001
1.421340e+003;1.361620e-001
1.423268e+003;1.366676e-001
1.425197e+003;1.375482e-001
1.427125e+003;1.391521e-001
1.429054e+003;1.415616e-001
1.430983e+003;1.444779e-001
1.432911e+003;1.475321e-001
1.434840e+003;1.508443e-001
1.436768e+003;1.539991e-001
1.438697e+003;1.563509e-001
1.440625e+003;1.575856e-001
1.442554e+003;1.581112e-001
1.444482e+003;1.581685e-001
1.446411e+003;1.573770e-001
1.448340e+003;1.553974e-001
1.450268e+003;1.524802e-001
1.452197e+003;1.492543e-001
1.454125e+003;1.459292e-001
1.456054e+003;1.426006e-001
1.457982e+003;1.397243e-001
1.459911e+003;1.376185e-001
1.461839e+003;1.363092e-001
1.463768e+003;1.356997e-001
1.465697e+003;1.353907e-001
1.467625e+003;1.354522e-001
1.469554e+003;1.355839e-001
1.471482e+003;1.356840e-001
1.473411e+003;1.362154e-001
1.475339e+003;1.372192e-001
1.477268e+003;1.386470e-001
1.479196e+003;1.408583e-001
1.481125e+003;1.434609e-001
1.483053e+003;1.468154e-001
1.484982e+003;1.511286e-001
1.486911e+003;1.558443e-001
1.488839e+003;1.608481e-001
1.490768e+003;1.663115e-001
1.492696e+003;1.719561e-001
1.494625e+003;1.774828e-001
1.496553e+003;1.829374e-001
1.498482e+003;1.884944e-001
1.500410e+003;1.942468e-001
1.502339e+003;1.996045e-001
1.504267e+003;2.043632e-001
1.506196e+003;2.084291e-001
1.508125e+003;2.123709e-001
1.510053e+003;2.163240e-001
1.511982e+003;2.193646e-001
1.513910e+003;2.205706e-001
1.515839e+003;2.195433e-001
1.517767e+003;2.166356e-001
1.519696e+003;2.129212e-001
1.521624e+003;2.094018e-001
1.523553e+003;2.068045e-001
1.525481e+003;2.042783e-001
1.527410e+003;2.017120e-001
1.529339e+003;1.988879e-001
1.531267e+003;1.958549e-001
1.533196e+003;1.927942e-001
1.535124e+003;1.895766e-001
1.537053e+003;1.862423e-001
1.538981e+003;1.823933e-001
1.540910e+003;1.785056e-001
1.542838e+003;1.752645e-001
1.544767e+003;1.720560e-001
1.546695e+003;1.687967e-001
1.548624e+003;1.656896e-001
1.550553e+003;1.626077e-001
1.552481e+003;1.594385e-001
1.554410e+003;1.562740e-001
1.556338e+003;1.530914e-001
1.558267e+003;1.497573e-001
1.560195e+003;1.465206e-001
1.562124e+003;1.433251e-001
1.564052e+003;1.399110e-001
1.565981e+003;1.365630e-001
1.567910e+003;1.337479e-001
1.569838e+003;1.311464e-001
1.571767e+003;1.290623e-001
1.573695e+003;1.274744e-001
1.575624e+003;1.259089e-001
1.577552e+003;1.250888e-001
1.579481e+003;1.251311e-001
1.581409e+003;1.253169e-001
1.583338e+003;1.258799e-001
1.585266e+003;1.271430e-001
1.587195e+003;1.290448e-001
1.589124e+003;1.315749e-001
1.591052e+003;1.345234e-001
1.592981e+003;1.376757e-001
1.594909e+003;1.411559e-001
1.596838e+003;1.451469e-001
1.598766e+003;1.497157e-001
1.600695e+003;1.554228e-001
1.602623e+003;1.622017e-001
1.604552e+003;1.696681e-001
1.606480e+003;1.778528e-001
1.608409e+003;1.864033e-001
1.610338e+003;1.949555e-001
1.612266e+003;2.030532e-001
1.614195e+003;2.102181e-001
1.616123e+003;2.167119e-001
1.618052e+003;2.222927e-001
1.619980e+003;2.259826e-001
1.621909e+003;2.274752e-001
1.623837e+003;2.269417e-001
1.625766e+003;2.247903e-001
1.627694e+003;2.213336e-001
1.629623e+003;2.168084e-001
1.631552e+003;2.117482e-001
1.633480e+003;2.067714e-001
1.635409e+003;2.017176e-001
1.637337e+003;1.970758e-001
1.639266e+003;1.929174e-001
1.641194e+003;1.886323e-001
1.643123e+003;1.844994e-001
1.645051e+003;1.805990e-001
1.646980e+003;1.768820e-001
1.648909e+003;1.731348e-001
1.650837e+003;1.694160e-001
1.652766e+003;1.656985e-001
1.654694e+003;1.619756e-001
1.656623e+003;1.582241e-001
1.658551e+003;1.543082e-001
1.660480e+003;1.504884e-001
1.662408e+003;1.466503e-001
1.664337e+003;1.427498e-001
1.666266e+003;1.388421e-001
1.668194e+003;1.349913e-001
1.670123e+003;1.314850e-001
1.672051e+003;1.282929e-001
1.673980e+003;1.249503e-001
1.675908e+003;1.216277e-001
1.677837e+003;1.187064e-001
1.679765e+003;1.157362e-001
1.681694e+003;1.129045e-001
1.683622e+003;1.101694e-001
1.685551e+003;1.073752e-001
1.687479e+003;1.049774e-001
1.689408e+003;1.031695e-001
1.691337e+003;1.017731e-001
1.693265e+003;1.009914e-001
1.695194e+003;1.004608e-001
1.697122e+003;9.995966e-002
1.699051e+003;9.858660e-002
1.700979e+003;9.481145e-002
1.702908e+003;8.876377e-002
1.704836e+003;8.177173e-002
1.706765e+003;7.535470e-002
1.708693e+003;7.017025e-002
1.710622e+003;6.653166e-002
1.712551e+003;6.382950e-002
1.714479e+003;6.152042e-002
1.716408e+003;5.972777e-002
1.718336e+003;5.850710e-002
1.720265e+003;5.772298e-002
1.722193e+003;5.709292e-002
1.724122e+003;5.642098e-002
1.726050e+003;5.596140e-002
1.727979e+003;5.579597e-002
1.729908e+003;5.589997e-002
1.731836e+003;5.583836e-002
1.733765e+003;5.548916e-002
1.735693e+003;5.534939e-002
1.737622e+003;5.524985e-002
1.739550e+003;5.498871e-002
1.741479e+003;5.472761e-002
1.743407e+003;5.418527e-002
1.745336e+003;5.377560e-002
1.747265e+003;5.330266e-002
1.749193e+003;5.279724e-002
1.751122e+003;5.238891e-002
1.753050e+003;5.209429e-002
1.754979e+003;5.171200e-002
1.756907e+003;5.112682e-002
1.758836e+003;5.069660e-002
1.760764e+003;5.030906e-002
1.762693e+003;5.019691e-002
1.764621e+003;5.018839e-002
1.766550e+003;5.011832e-002
1.768479e+003;5.007173e-002
1.770407e+003;5.004615e-002
1.772336e+003;4.990608e-002
1.774264e+003;4.987407e-002
1.776193e+003;4.990184e-002
1.778121e+003;4.971068e-002
1.780050e+003;4.962981e-002
1.781978e+003;4.965084e-002
1.783907e+003;4.953711e-002
1.785835e+003;4.959166e-002
1.787764e+003;4.961518e-002
1.789693e+003;4.935398e-002
1.791621e+003;4.911710e-002
1.793550e+003;4.901312e-002
1.795478e+003;4.900477e-002
1.797407e+003;4.915216e-002
1.799335e+003;4.926223e-002
1.801264e+003;4.896408e-002
1.803192e+003;4.870373e-002
1.805121e+003;4.883900e-002
1.807049e+003;4.896156e-002
1.808978e+003;4.882851e-002
1.810907e+003;4.871633e-002
1.812835e+003;4.859606e-002
1.814764e+003;4.843441e-002
1.816692e+003;4.839078e-002
1.818621e+003;4.847087e-002
1.820549e+003;4.856601e-002
1.822478e+003;4.846116e-002
1.824406e+003;4.824428e-002
1.826335e+003;4.814609e-002
1.828264e+003;4.795767e-002
1.830192e+003;4.790442e-002
1.832121e+003;4.801170e-002
1.834049e+003;4.796204e-002
1.835978e+003;4.788907e-002
1.837906e+003;4.784993e-002
1.839835e+003;4.781320e-002
1.841763e+003;4.780047e-002
1.843692e+003;4.777077e-002
1.845620e+003;4.784139e-002
1.847549e+003;4.765613e-002
1.849478e+003;4.744083e-002
1.851406e+003;4.761446e-002
1.853335e+003;4.769555e-002
1.855263e+003;4.767203e-002
1.857192e+003;4.766633e-002
1.859120e+003;4.749272e-002
1.861049e+003;4.747908e-002
1.862977e+003;4.773386e-002
1.864906e+003;4.782237e-002
1.866834e+003;4.768127e-002
1.868763e+003;4.747583e-002
1.870692e+003;4.743455e-002
1.872620e+003;4.741193e-002
1.874549e+003;4.745358e-002
1.876477e+003;4.756758e-002
1.878406e+003;4.772406e-002
1.880334e+003;4.784472e-002
1.882263e+003;4.786972e-002
1.884191e+003;4.777014e-002
1.886120e+003;4.756277e-002
1.888048e+003;4.753852e-002
1.889977e+003;4.753782e-002
1.891906e+003;4.754129e-002
1.893834e+003;4.763076e-002
1.895763e+003;4.757693e-002
1.897691e+003;4.738137e-002
1.899620e+003;4.729420e-002
1.901548e+003;4.719826e-002
1.903477e+003;4.738122e-002
1.905405e+003;4.740757e-002
1.907334e+003;4.732494e-002
1.909262e+003;4.714759e-002
1.911191e+003;4.699508e-002
1.913120e+003;4.710157e-002
1.915048e+003;4.725995e-002
1.916977e+003;4.723867e-002
1.918905e+003;4.725855e-002
1.920834e+003;4.720772e-002
1.922762e+003;4.719029e-002
1.924691e+003;4.711922e-002
1.926619e+003;4.699242e-002
1.928548e+003;4.692822e-002
1.930477e+003;4.695041e-002
1.932405e+003;4.707177e-002
1.934334e+003;4.737050e-002
1.936262e+003;4.746858e-002
1.938191e+003;4.726978e-002
1.940119e+003;4.712920e-002
1.942048e+003;4.708865e-002
1.943976e+003;4.702077e-002
1.945905e+003;4.707683e-002
1.947833e+003;4.718194e-002
1.949762e+003;4.715128e-002
1.951691e+003;4.718349e-002
1.953619e+003;4.741392e-002
1.955548e+003;4.744275e-002
1.957476e+003;4.735731e-002
1.959405e+003;4.747283e-002
1.961333e+003;4.760747e-002
1.963262e+003;4.753028e-002
1.965190e+003;4.733485e-002
1.967119e+003;4.723365e-002
1.969047e+003;4.733987e-002
1.970976e+003;4.758995e-002
1.972905e+003;4.758669e-002
1.974833e+003;4.759608e-002
1.976762e+003;4.781401e-002
1.978690e+003;4.786262e-002
1.980619e+003;4.774969e-002
1.982547e+003;4.773419e-002
1.984476e+003;4.775823e-002
1.986404e+003;4.764751e-002
1.988333e+003;4.749243e-002
1.990261e+003;4.742401e-002
1.992190e+003;4.778498e-002
1.994119e+003;4.793480e-002
1.996047e+003;4.776878e-002
1.997976e+003;4.768826e-002
1.999904e+003;4.768065e-002
2.001833e+003;4.760459e-002
2.003761e+003;4.759623e-002
2.005690e+003;4.779515e-002
2.007618e+003;4.787061e-002
2.009547e+003;4.775472e-002
2.011476e+003;4.773638e-002
2.013404e+003;4.764245e-002
2.015333e+003;4.767491e-002
2.017261e+003;4.793828e-002
2.019190e+003;4.794894e-002
2.021118e+003;4.797921e-002
2.023047e+003;4.803246e-002
2.024975e+003;4.788582e-002
2.026904e+003;4.789980e-002
2.028833e+003;4.810704e-002
2.030761e+003;4.813276e-002
2.032690e+003;4.819718e-002
2.034618e+003;4.817471e-002
2.036547e+003;4.794283e-002
2.038475e+003;4.778409e-002
2.040404e+003;4.781560e-002
2.042332e+003;4.791464e-002
2.044261e+003;4.787516e-002
2.046189e+003;4.787479e-002
2.048118e+003;4.800337e-002
2.050047e+003;4.800244e-002
2.051975e+003;4.795515e-002
2.053904e+003;4.784631e-002
2.055832e+003;4.793018e-002
2.057761e+003;4.825960e-002
2.059689e+003;4.836037e-002
2.061618e+003;4.822665e-002
2.063546e+003;4.811862e-002
2.065475e+003;4.808901e-002
2.067404e+003;4.835744e-002
2.069332e+003;4.856108e-002
2.071260e+003;4.853414e-002
2.073189e+003;4.849657e-002
2.075118e+003;4.855560e-002
2.077046e+003;4.846186e-002
2.078975e+003;4.834159e-002
2.080903e+003;4.844119e-002
2.082832e+003;4.847920e-002
2.084760e+003;4.845519e-002
2.086689e+003;4.852529e-002
2.088617e+003;4.844497e-002
2.090546e+003;4.832078e-002
2.092475e+003;4.828341e-002
2.094403e+003;4.830871e-002
2.096332e+003;4.816212e-002
2.098260e+003;4.826686e-002
2.100189e+003;4.860844e-002
2.102117e+003;4.858806e-002
2.104046e+003;4.835604e-002
2.105974e+003;4.826942e-002
2.107903e+003;4.807287e-002
2.109832e+003;4.801618e-002
2.111760e+003;4.808690e-002
2.113688e+003;4.819699e-002
2.115617e+003;4.828360e-002
2.117546e+003;4.834285e-002
2.119474e+003;4.822924e-002
2.121403e+003;4.805444e-002
2.123331e+003;4.804685e-002
2.125260e+003;4.807535e-002
2.127188e+003;4.798346e-002
2.129117e+003;4.791752e-002
2.131045e+003;4.803812e-002
2.132974e+003;4.819844e-002
2.134903e+003;4.811829e-002
2.136831e+003;4.801699e-002
2.138760e+003;4.797658e-002
2.140688e+003;4.785245e-002
2.142617e+003;4.808376e-002
2.144545e+003;4.835774e-002
2.146474e+003;4.836552e-002
2.148402e+003;4.822735e-002
2.150331e+003;4.818389e-002
2.152260e+003;4.817845e-002
2.154188e+003;4.806255e-002
2.156117e+003;4.797284e-002
2.158045e+003;4.802632e-002
2.159974e+003;4.829682e-002
2.161902e+003;4.829086e-002
2.163831e+003;4.823416e-002
2.165759e+003;4.827745e-002
2.167688e+003;4.823209e-002
2.169616e+003;4.814890e-002
2.171545e+003;4.816930e-002
2.173474e+003;4.833433e-002
2.175402e+003;4.828434e-002
2.177331e+003;4.814524e-002
2.179259e+003;4.815009e-002
2.181188e+003;4.818637e-002
2.183116e+003;4.812669e-002
2.185045e+003;4.812777e-002
2.186973e+003;4.822835e-002
2.188902e+003;4.813106e-002
2.190831e+003;4.797428e-002
2.192759e+003;4.783262e-002
2.194688e+003;4.806995e-002
2.196616e+003;4.834226e-002
2.198545e+003;4.820603e-002
2.200473e+003;4.782663e-002
2.202402e+003;4.764899e-002
2.204330e+003;4.781531e-002
2.206259e+003;4.792237e-002
2.208188e+003;4.784930e-002
2.210116e+003;4.792248e-002
2.212044e+003;4.786595e-002
2.213973e+003;4.792840e-002
2.215902e+003;4.800108e-002
2.217830e+003;4.793425e-002
2.219759e+003;4.791072e-002
2.221687e+003;4.771408e-002
2.223616e+003;4.761690e-002
2.225544e+003;4.786506e-002
2.227473e+003;4.794683e-002
2.229401e+003;4.796485e-002
2.231330e+003;4.802587e-002
2.233259e+003;4.793487e-002
2.235187e+003;4.791482e-002
2.237116e+003;4.787805e-002
2.239044e+003;4.768272e-002
2.240973e+003;4.744611e-002
2.242901e+003;4.730820e-002
2.244830e+003;4.720665e-002
2.246758e+003;4.719697e-002
2.248687e+003;4.734837e-002
2.250615e+003;4.733322e-002
2.252544e+003;4.715586e-002
2.254473e+003;4.728847e-002
2.256401e+003;4.730846e-002
2.258330e+003;4.712890e-002
2.260258e+003;4.708034e-002
2.262187e+003;4.717193e-002
2.264115e+003;4.719302e-002
2.266044e+003;4.708927e-002
2.267972e+003;4.704212e-002
2.269901e+003;4.699220e-002
2.271830e+003;4.694048e-002
2.273758e+003;4.701088e-002
2.275687e+003;4.720609e-002
2.277615e+003;4.733130e-002
2.279544e+003;4.741655e-002
2.281472e+003;4.742697e-002
2.283401e+003;4.734822e-002
2.285329e+003;4.744109e-002
2.287258e+003;4.743185e-002
2.289187e+003;4.721130e-002
2.291115e+003;4.714892e-002
2.293043e+003;4.711904e-002
2.294972e+003;4.717909e-002
2.296901e+003;4.721330e-002
2.298829e+003;4.702484e-002
2.300758e+003;4.695942e-002
2.302686e+003;4.699430e-002
2.304615e+003;4.705947e-002
2.306543e+003;4.713669e-002
2.308472e+003;4.701029e-002
2.310400e+003;4.688337e-002
2.312329e+003;4.729080e-002
2.314258e+003;4.750858e-002
2.316186e+003;4.717075e-002
2.318115e+003;4.711941e-002
2.320043e+003;4.732705e-002
2.321972e+003;4.727813e-002
2.323900e+003;4.704278e-002
2.325829e+003;4.679638e-002
2.327757e+003;4.671059e-002
2.329686e+003;4.675782e-002
2.331615e+003;4.686757e-002
2.333543e+003;4.709917e-002
2.335472e+003;4.718740e-002
2.337400e+003;4.712875e-002
2.339329e+003;4.688470e-002
2.341257e+003;4.672110e-002
2.343186e+003;4.697115e-002
2.345114e+003;4.720620e-002
2.347043e+003;4.710729e-002
2.348971e+003;4.698448e-002
2.350900e+003;4.704644e-002
2.352829e+003;4.736115e-002
2.354757e+003;4.754710e-002
2.356686e+003;4.749583e-002
2.358614e+003;4.738551e-002
2.360543e+003;4.718855e-002
2.362471e+003;4.703699e-002
2.364400e+003;4.710294e-002
2.366328e+003;4.722508e-002
2.368257e+003;4.730636e-002
2.370186e+003;4.725478e-002
2.372114e+003;4.707949e-002
2.374042e+003;4.727554e-002
2.375971e+003;4.754883e-002
2.377900e+003;4.761919e-002
2.379828e+003;4.771249e-002
2.381757e+003;4.776519e-002
2.383685e+003;4.762869e-002
2.385614e+003;4.747768e-002
2.387542e+003;4.757682e-002
2.389471e+003;4.763709e-002
2.391399e+003;4.766859e-002
2.393328e+003;4.784830e-002
2.395257e+003;4.793809e-002
2.397185e+003;4.794194e-002
2.399114e+003;4.793043e-002
2.401042e+003;4.786447e-002
2.402971e+003;4.800156e-002
2.404899e+003;4.846331e-002
2.406828e+003;4.874954e-002
2.408756e+003;4.869031e-002
2.410685e+003;4.846209e-002
2.412614e+003;4.827293e-002
2.414542e+003;4.861022e-002
2.416471e+003;4.904053e-002
2.418399e+003;4.910738e-002
2.420328e+003;4.911536e-002
2.422256e+003;4.896842e-002
2.424185e+003;4.912712e-002
2.426113e+003;4.953562e-002
2.428042e+003;4.979570e-002
2.429970e+003;4.958457e-002
2.431899e+003;4.939686e-002
2.433828e+003;4.946028e-002
2.435756e+003;4.962023e-002
2.437685e+003;4.974186e-002
2.439613e+003;4.985218e-002
2.441542e+003;4.994417e-002
2.443470e+003;4.999094e-002
2.445399e+003;4.991990e-002
2.447327e+003;4.991566e-002
2.449256e+003;5.012241e-002
2.451185e+003;5.009456e-002
2.453113e+003;4.980528e-002
2.455042e+003;4.971971e-002
2.456970e+003;4.990481e-002
2.458899e+003;4.997562e-002
2.460827e+003;4.988511e-002
2.462756e+003;4.982082e-002
2.464684e+003;4.987099e-002
2.466613e+003;5.007471e-002
2.468542e+003;5.039434e-002
2.470470e+003;5.044923e-002
2.472398e+003;5.032491e-002
2.474327e+003;5.025560e-002
2.476256e+003;5.039445e-002
2.478184e+003;5.061863e-002
2.480113e+003;5.046062e-002
2.482041e+003;5.042478e-002
2.483970e+003;5.042787e-002
2.485898e+003;5.044160e-002
2.487827e+003;5.063032e-002
2.489755e+003;5.080624e-002
2.491684e+003;5.062053e-002
2.493613e+003;5.050524e-002
2.495541e+003;5.072151e-002
2.497470e+003;5.080519e-002
2.499398e+003;5.061539e-002
2.501327e+003;5.049590e-002
2.503255e+003;5.050416e-002
2.505184e+003;5.046256e-002
2.507112e+003;5.061189e-002
2.509041e+003;5.068971e-002
2.510969e+003;5.071648e-002
2.512898e+003;5.054790e-002
2.514827e+003;5.045161e-002
2.516755e+003;5.071782e-002
2.518684e+003;5.094336e-002
2.520612e+003;5.123962e-002
2.522541e+003;5.128299e-002
2.524469e+003;5.123985e-002
2.526398e+003;5.108299e-002
2.528326e+003;5.079745e-002
2.530255e+003;5.093040e-002
2.532184e+003;5.113737e-002
2.534112e+003;5.101140e-002
2.536041e+003;5.091665e-002
2.537969e+003;5.096307e-002
2.539898e+003;5.107173e-002
2.541826e+003;5.125073e-002
2.543755e+003;5.134679e-002
2.545683e+003;5.122881e-002
2.547612e+003;5.106532e-002
2.549541e+003;5.122441e-002
2.551469e+003;5.155836e-002
2.553397e+003;5.174011e-002
2.555326e+003;5.173163e-002
2.557255e+003;5.156101e-002
2.559183e+003;5.164658e-002
2.561112e+003;5.171039e-002
2.563040e+003;5.151251e-002
2.564969e+003;5.150005e-002
2.566897e+003;5.155862e-002
2.568826e+003;5.189757e-002
2.570754e+003;5.206993e-002
2.572683e+003;5.205996e-002
2.574612e+003;5.212914e-002
2.576540e+003;5.222495e-002
2.578469e+003;5.228930e-002
2.580397e+003;5.216576e-002
2.582326e+003;5.209533e-002
2.584254e+003;5.237609e-002
2.586183e+003;5.277217e-002
2.588111e+003;5.297489e-002
2.590040e+003;5.300627e-002
2.591969e+003;5.304931e-002
2.593897e+003;5.307425e-002
2.595826e+003;5.308193e-002
2.597754e+003;5.297561e-002
2.599683e+003;5.305751e-002
2.601611e+003;5.347547e-002
2.603540e+003;5.376030e-002
2.605468e+003;5.375291e-002
2.607397e+003;5.359218e-002
2.609325e+003;5.360770e-002
2.611254e+003;5.375044e-002
2.613183e+003;5.377077e-002
2.615111e+003;5.385166e-002
2.617040e+003;5.403174e-002
2.618968e+003;5.408690e-002
2.620897e+003;5.417019e-002
2.622825e+003;5.417920e-002
2.624754e+003;5.428810e-002
2.626682e+003;5.428131e-002
2.628611e+003;5.401940e-002
2.630540e+003;5.393637e-002
2.632468e+003;5.411835e-002
2.634396e+003;5.426452e-002
2.636325e+003;5.433282e-002
2.638254e+003;5.427759e-002
2.640182e+003;5.395756e-002
2.642111e+003;5.373848e-002
2.644039e+003;5.374444e-002
2.645968e+003;5.404251e-002
2.647896e+003;5.412154e-002
2.649825e+003;5.390658e-002
2.651753e+003;5.393119e-002
2.653682e+003;5.424725e-002
2.655611e+003;5.438006e-002
2.657539e+003;5.428938e-002
2.659468e+003;5.442937e-002
2.661396e+003;5.462641e-002
2.663325e+003;5.449465e-002
2.665253e+003;5.448722e-002
2.667182e+003;5.463734e-002
2.669110e+003;5.453582e-002
2.671039e+003;5.461630e-002
2.672968e+003;5.471013e-002
2.674896e+003;5.465196e-002
2.676825e+003;5.473118e-002
2.678753e+003;5.466278e-002
2.680682e+003;5.475046e-002
2.682610e+003;5.488478e-002
2.684539e+003;5.487560e-002
2.686467e+003;5.489508e-002
2.688396e+003;5.498108e-002
2.690324e+003;5.520327e-002
2.692253e+003;5.516463e-002
2.694182e+003;5.517366e-002
2.696110e+003;5.556018e-002
2.698039e+003;5.569968e-002
2.699967e+003;5.550170e-002
2.701896e+003;5.575671e-002
2.703824e+003;5.604433e-002
2.705753e+003;5.587694e-002
2.707681e+003;5.582272e-002
2.709610e+003;5.597572e-002
2.711539e+003;5.617271e-002
2.713467e+003;5.660352e-002
2.715396e+003;5.671232e-002
2.717324e+003;5.655057e-002
2.719253e+003;5.656831e-002
2.721181e+003;5.672275e-002
2.723110e+003;5.699891e-002
2.725038e+003;5.719958e-002
2.726967e+003;5.701701e-002
2.728896e+003;5.681862e-002
2.730824e+003;5.728327e-002
2.732752e+003;5.758438e-002
2.734681e+003;5.780178e-002
2.736610e+003;5.782487e-002
2.738538e+003;5.765400e-002
2.740467e+003;5.775791e-002
2.742395e+003;5.793205e-002
2.744324e+003;5.819368e-002
2.746252e+003;5.835146e-002
2.748181e+003;5.840695e-002
2.750109e+003;5.834361e-002
2.752038e+003;5.844917e-002
2.753967e+003;5.883813e-002
2.755895e+003;5.911420e-002
2.757824e+003;5.915433e-002
2.759752e+003;5.921079e-002
2.761681e+003;5.927653e-002
2.763609e+003;5.937840e-002
2.765538e+003;5.963486e-002
2.767466e+003;5.967752e-002
2.769395e+003;5.956086e-002
2.771323e+003;5.962529e-002
2.773252e+003;5.987988e-002
2.775181e+003;6.013640e-002
2.777109e+003;5.999817e-002
2.779038e+003;6.001917e-002
2.780966e+003;6.036658e-002
2.782895e+003;6.079647e-002
2.784823e+003;6.070852e-002
2.786752e+003;6.057780e-002
2.788680e+003;6.078157e-002
2.790609e+003;6.102959e-002
2.792538e+003;6.112124e-002
2.794466e+003;6.121676e-002
2.796395e+003;6.141774e-002
2.798323e+003;6.168839e-002
2.800252e+003;6.180668e-002
2.802180e+003;6.153485e-002
2.804109e+003;6.135492e-002
2.806037e+003;6.162133e-002
2.807966e+003;6.182028e-002
2.809895e+003;6.170275e-002
2.811823e+003;6.181616e-002
2.813751e+003;6.211497e-002
2.815680e+003;6.199196e-002
2.817609e+003;6.210407e-002
2.819537e+003;6.246452e-002
2.821466e+003;6.272901e-002
2.823394e+003;6.264820e-002
2.825323e+003;6.238773e-002
2.827251e+003;6.261571e-002
2.829180e+003;6.276993e-002
2.831108e+003;6.282492e-002
2.833037e+003;6.320746e-002
2.834966e+003;6.356549e-002
2.836894e+003;6.399925e-002
2.838823e+003;6.443413e-002
2.840751e+003;6.497927e-002
2.842680e+003;6.594246e-002
2.844608e+003;6.672851e-002
2.846537e+003;6.786038e-002
2.848465e+003;6.937764e-002
2.850394e+003;7.009911e-002
2.852323e+003;7.026396e-002
2.854251e+003;7.024831e-002
2.856180e+003;6.999893e-002
2.858108e+003;6.990060e-002
2.860037e+003;6.960515e-002
2.861965e+003;6.904400e-002
2.863894e+003;6.884652e-002
2.865822e+003;6.920348e-002
2.867751e+003;6.934864e-002
2.869679e+003;6.956766e-002
2.871608e+003;6.993828e-002
2.873536e+003;6.999987e-002
2.875465e+003;6.987667e-002
2.877394e+003;6.979623e-002
2.879322e+003;6.949548e-002
2.881251e+003;6.920131e-002
2.883179e+003;6.932174e-002
2.885108e+003;6.984044e-002
2.887036e+003;6.977421e-002
2.888965e+003;6.952386e-002
2.890893e+003;6.989531e-002
2.892822e+003;7.048036e-002
2.894750e+003;7.099517e-002
2.896679e+003;7.122826e-002
2.898608e+003;7.128775e-002
2.900536e+003;7.174615e-002
2.902465e+003;7.222028e-002
2.904393e+003;7.264590e-002
2.906322e+003;7.296637e-002
2.908250e+003;7.359336e-002
2.910179e+003;7.486780e-002
2.912107e+003;7.613856e-002
2.914036e+003;7.726787e-002
2.915965e+003;7.829785e-002
2.917893e+003;7.916935e-002
2.919822e+003;7.980183e-002
2.921750e+003;8.053529e-002
2.923679e+003;8.093815e-002
2.925607e+003;8.073600e-002
2.927536e+003;8.022155e-002
2.929464e+003;8.015723e-002
2.931393e+003;7.978263e-002
2.933322e+003;7.913305e-002
2.935250e+003;7.864475e-002
2.937178e+003;7.780923e-002
2.939107e+003;7.681543e-002
2.941036e+003;7.605060e-002
2.942964e+003;7.560496e-002
2.944893e+003;7.500411e-002
2.946821e+003;7.423797e-002
2.948750e+003;7.379379e-002
2.950678e+003;7.338130e-002
2.952607e+003;7.340907e-002
2.954535e+003;7.350434e-002
2.956464e+003;7.332798e-002
2.958393e+003;7.309894e-002
2.960321e+003;7.318234e-002
2.962250e+003;7.317901e-002
2.964178e+003;7.307468e-002
2.966107e+003;7.300768e-002
2.968035e+003;7.277920e-002
2.969964e+003;7.257117e-002
2.971892e+003;7.255880e-002
2.973821e+003;7.241248e-002
2.975750e+003;7.201073e-002
2.977678e+003;7.166802e-002
2.979607e+003;7.138854e-002
2.981535e+003;7.102108e-002
2.983464e+003;7.084892e-002
2.985392e+003;7.088582e-002
2.987321e+003;7.061951e-002
2.989249e+003;7.010565e-002
2.991178e+003;6.954638e-002
2.993106e+003;6.920496e-002
2.995035e+003;6.885072e-002
2.996964e+003;6.862178e-002
2.998892e+003;6.867712e-002
3.000821e+003;6.844808e-002
3.002749e+003;6.828745e-002
3.004678e+003;6.820746e-002
3.006606e+003;6.786135e-002
3.008535e+003;6.773729e-002
3.010463e+003;6.809427e-002
3.012392e+003;6.823937e-002
3.014321e+003;6.845619e-002
3.016249e+003;6.870367e-002
3.018177e+003;6.871516e-002
3.020106e+003;6.875033e-002
3.022035e+003;6.855074e-002
3.023963e+003;6.846415e-002
3.025892e+003;6.892589e-002
3.027820e+003;6.922291e-002
3.029749e+003;6.960736e-002
3.031677e+003;7.016391e-002
3.033606e+003;7.022805e-002
3.035534e+003;7.034367e-002
3.037463e+003;7.072482e-002
3.039392e+003;7.073200e-002
3.041320e+003;7.094211e-002
3.043249e+003;7.143920e-002
3.045177e+003;7.199555e-002
3.047106e+003;7.224528e-002
3.049034e+003;7.230673e-002
3.050963e+003;7.257020e-002
3.052891e+003;7.274226e-002
3.054820e+003;7.301611e-002
3.056749e+003;7.335030e-002
3.058677e+003;7.361747e-002
3.060606e+003;7.423452e-002
3.062534e+003;7.487091e-002
3.064463e+003;7.467270e-002
3.066391e+003;7.467435e-002
3.068320e+003;7.492878e-002
3.070248e+003;7.491875e-002
3.072177e+003;7.484469e-002
3.074105e+003;7.468261e-002
3.076034e+003;7.484260e-002
3.077963e+003;7.514626e-002
3.079891e+003;7.496355e-002
3.081820e+003;7.468332e-002
3.083748e+003;7.450246e-002
3.085677e+003;7.460462e-002
3.087605e+003;7.462784e-002
3.089534e+003;7.420228e-002
3.091462e+003;7.369720e-002
3.093391e+003;7.365295e-002
3.095320e+003;7.387101e-002
3.097248e+003;7.372739e-002
3.099177e+003;7.348159e-002
3.101105e+003;7.340189e-002
3.103034e+003;7.326773e-002
3.104962e+003;7.290263e-002
3.106891e+003;7.251361e-002
3.108819e+003;7.254055e-002
3.110748e+003;7.262941e-002
3.112677e+003;7.247035e-002
3.114605e+003;7.218350e-002
3.116533e+003;7.230086e-002
3.118462e+003;7.242658e-002
3.120391e+003;7.228775e-002
3.122319e+003;7.242455e-002
3.124248e+003;7.246792e-002
3.126176e+003;7.232442e-002
3.128105e+003;7.261496e-002
3.130033e+003;7.287520e-002
3.131962e+003;7.263662e-002
3.133890e+003;7.247395e-002
3.135819e+003;7.234782e-002
3.137748e+003;7.243488e-002
3.139676e+003;7.292223e-002
3.141605e+003;7.315157e-002
3.143533e+003;7.286913e-002
3.145462e+003;7.284150e-002
3.147390e+003;7.314344e-002
3.149319e+003;7.332994e-002
3.151247e+003;7.360757e-002
3.153176e+003;7.426923e-002
3.155104e+003;7.482438e-002
3.157033e+003;7.508587e-002
3.158962e+003;7.530362e-002
3.160890e+003;7.573874e-002
3.162819e+003;7.599495e-002
3.164747e+003;7.628633e-002
3.166676e+003;7.679579e-002
3.168604e+003;7.729079e-002
3.170533e+003;7.749725e-002
3.172461e+003;7.777562e-002
3.174390e+003;7.806836e-002
3.176319e+003;7.838762e-002
3.178247e+003;7.881845e-002
3.180176e+003;7.941970e-002
3.182104e+003;7.994305e-002
3.184033e+003;8.044396e-002
3.185961e+003;8.088299e-002
3.187890e+003;8.143359e-002
3.189818e+003;8.177089e-002
3.191747e+003;8.225638e-002
3.193676e+003;8.288793e-002
3.195604e+003;8.343915e-002
3.197532e+003;8.416571e-002
3.199461e+003;8.460224e-002
3.201390e+003;8.485007e-002
3.203318e+003;8.546152e-002
3.205247e+003;8.590645e-002
3.207175e+003;8.633030e-002
3.209104e+003;8.685893e-002
3.211032e+003;8.723781e-002
3.212961e+003;8.783717e-002
3.214889e+003;8.848981e-002
3.216818e+003;8.922505e-002
3.218747e+003;8.972921e-002
3.220675e+003;8.987007e-002
3.222604e+003;9.055164e-002
3.224532e+003;9.135429e-002
3.226461e+003;9.185263e-002
3.228389e+003;9.253040e-002
3.230318e+003;9.316450e-002
3.232246e+003;9.375114e-002
3.234175e+003;9.450358e-002
3.236104e+003;9.495929e-002
3.238032e+003;9.551091e-002
3.239961e+003;9.660454e-002
3.241889e+003;9.780448e-002
3.243818e+003;9.895309e-002
3.245746e+003;9.973041e-002
3.247675e+003;1.003632e-001
3.249603e+003;1.011560e-001
3.251532e+003;1.018238e-001
3.253460e+003;1.025535e-001
3.255389e+003;1.035521e-001
3.257318e+003;1.049379e-001
3.259246e+003;1.063664e-001
3.261175e+003;1.072611e-001
3.263103e+003;1.081745e-001
3.265032e+003;1.091592e-001
3.266960e+003;1.100509e-001
3.268889e+003;1.112077e-001
3.270817e+003;1.121845e-001
3.272746e+003;1.129620e-001
3.274675e+003;1.132998e-001
3.276603e+003;1.133973e-001
3.278531e+003;1.134200e-001
3.280460e+003;1.131695e-001
3.282389e+003;1.130293e-001
3.284317e+003;1.125054e-001
3.286246e+003;1.114234e-001
3.288174e+003;1.106959e-001
3.290103e+003;1.101590e-001
3.292031e+003;1.089393e-001
3.293960e+003;1.074803e-001
3.295888e+003;1.065069e-001
3.297817e+003;1.056344e-001
3.299746e+003;1.042240e-001
3.301674e+003;1.029616e-001
3.303603e+003;1.016441e-001
3.305531e+003;1.003037e-001
3.307460e+003;9.881458e-002
3.309388e+003;9.735080e-002
3.311317e+003;9.604173e-002
3.313245e+003;9.463347e-002
3.315174e+003;9.338211e-002
3.317103e+003;9.236626e-002
3.319031e+003;9.148087e-002
3.320960e+003;9.032208e-002
3.322888e+003;8.895311e-002
3.324817e+003;8.812976e-002
3.326745e+003;8.741242e-002
3.328674e+003;8.637651e-002
3.330602e+003;8.553301e-002
3.332531e+003;8.458380e-002
3.334459e+003;8.324417e-002
3.336388e+003;8.224837e-002
3.338317e+003;8.158805e-002
3.340245e+003;8.109105e-002
3.342174e+003;8.059763e-002
3.344102e+003;8.004224e-002
3.346031e+003;7.926550e-002
3.347959e+003;7.864301e-002
3.349888e+003;7.860679e-002
3.351816e+003;7.825059e-002
3.353745e+003;7.704407e-002
3.355674e+003;7.672106e-002
3.357602e+003;7.674936e-002
3.359531e+003;7.656298e-002
3.361459e+003;7.619143e-002
3.363388e+003;7.561745e-002
3.365316e+003;7.505531e-002
3.367245e+003;7.455887e-002
3.369173e+003;7.410941e-002
3.371102e+003;7.411645e-002
3.373031e+003;7.412289e-002
3.374959e+003;7.394175e-002
3.376887e+003;7.324098e-002
3.378816e+003;7.271903e-002
3.380745e+003;7.265283e-002
3.382673e+003;7.246663e-002
3.384602e+003;7.206842e-002
3.386530e+003;7.168111e-002
3.388459e+003;7.157443e-002
3.390387e+003;7.150857e-002
3.392316e+003;7.107720e-002
3.394244e+003;7.057706e-002
3.396173e+003;7.032746e-002
3.398102e+003;7.024889e-002
3.400030e+003;7.002038e-002
3.401959e+003;6.963187e-002
3.403887e+003;6.961568e-002
3.405816e+003;6.953740e-002
3.407744e+003;6.916412e-002
3.409673e+003;6.868497e-002
3.411601e+003;6.839944e-002
3.413530e+003;6.793066e-002
3.415458e+003;6.766197e-002
3.417387e+003;6.770980e-002
3.419316e+003;6.727769e-002
3.421244e+003;6.665468e-002
3.423173e+003;6.649598e-002
3.425101e+003;6.685912e-002
3.427030e+003;6.694242e-002
3.428958e+003;6.627738e-002
3.430887e+003;6.585183e-002
3.432815e+003;6.571431e-002
3.434744e+003;6.539680e-002
3.436673e+003;6.506248e-002
3.438601e+003;6.499593e-002
3.440530e+003;6.476998e-002
3.442458e+003;6.424078e-002
3.444387e+003;6.413331e-002
3.446315e+003;6.392266e-002
3.448244e+003;6.354566e-002
3.450172e+003;6.336934e-002
3.452101e+003;6.355352e-002
3.454030e+003;6.332920e-002
3.455958e+003;6.289438e-002
3.457886e+003;6.291043e-002
3.459815e+003;6.300787e-002
3.461744e+003;6.270286e-002
3.463672e+003;6.199273e-002
3.465601e+003;6.145274e-002
3.467529e+003;6.159662e-002
3.469458e+003;6.200721e-002
3.471386e+003;6.202541e-002
3.473315e+003;6.168625e-002
3.475243e+003;6.174381e-002
3.477172e+003;6.165268e-002
3.479101e+003;6.113951e-002
3.481029e+003;6.105587e-002
3.482958e+003;6.125487e-002
3.484886e+003;6.080196e-002
3.486815e+003;6.024716e-002
3.488743e+003;6.016316e-002
3.490672e+003;6.001586e-002
3.492600e+003;5.986710e-002
3.494529e+003;5.971435e-002
3.496458e+003;5.958849e-002
3.498386e+003;5.967101e-002
3.500315e+003;5.969242e-002
3.502243e+003;5.937137e-002
3.504172e+003;5.917779e-002
3.506100e+003;5.915528e-002
3.508029e+003;5.924641e-002
3.509957e+003;5.924820e-002
3.511886e+003;5.900430e-002
3.513814e+003;5.874597e-002
3.515743e+003;5.825062e-002
3.517672e+003;5.811041e-002
3.519600e+003;5.798748e-002
3.521529e+003;5.762365e-002
3.523457e+003;5.747204e-002
3.525386e+003;5.736838e-002
3.527314e+003;5.727673e-002
3.529243e+003;5.710554e-002
3.531171e+003;5.710921e-002
3.533100e+003;5.699090e-002
3.535029e+003;5.641208e-002
3.536957e+003;5.608354e-002
3.538885e+003;5.607532e-002
3.540814e+003;5.583527e-002
3.542743e+003;5.556910e-002
3.544671e+003;5.521395e-002
3.546600e+003;5.467571e-002
3.548528e+003;5.440327e-002
3.550457e+003;5.428994e-002
3.552385e+003;5.429017e-002
3.554314e+003;5.438070e-002
3.556242e+003;5.429959e-002
3.558171e+003;5.404093e-002
3.560100e+003;5.376109e-002
3.562028e+003;5.341255e-002
3.563957e+003;5.326277e-002
3.565885e+003;5.300372e-002
3.567814e+003;5.263727e-002
3.569742e+003;5.262138e-002
3.571671e+003;5.290973e-002
3.573599e+003;5.304426e-002
3.575528e+003;5.267164e-002
3.577457e+003;5.225619e-002
3.579385e+003;5.188906e-002
3.581314e+003;5.152519e-002
3.583242e+003;5.135503e-002
3.585171e+003;5.149584e-002
3.587099e+003;5.167669e-002
3.589028e+003;5.153728e-002
3.590956e+003;5.113737e-002
3.592885e+003;5.074493e-002
3.594813e+003;5.036573e-002
3.596742e+003;5.006827e-002
3.598671e+003;5.003035e-002
3.600599e+003;5.036048e-002
3.602528e+003;5.034374e-002
3.604456e+003;5.014670e-002
3.606385e+003;5.009088e-002
3.608313e+003;4.973223e-002
3.610242e+003;4.936204e-002
3.612170e+003;4.908085e-002
3.614099e+003;4.896056e-002
3.616028e+003;4.870165e-002
3.617956e+003;4.831604e-002
3.619885e+003;4.831759e-002
3.621813e+003;4.828312e-002
3.623742e+003;4.827145e-002
3.625670e+003;4.797114e-002
3.627599e+003;4.729369e-002
3.629527e+003;4.715272e-002
3.631456e+003;4.723280e-002
3.633385e+003;4.683299e-002
3.635313e+003;4.677158e-002
3.637241e+003;4.661540e-002
3.639170e+003;4.604729e-002
3.641099e+003;4.585031e-002
3.643027e+003;4.571626e-002
3.644956e+003;4.539041e-002
3.646884e+003;4.524933e-002
3.648813e+003;4.521436e-002
3.650741e+003;4.472156e-002
3.652670e+003;4.445463e-002
3.654598e+003;4.434526e-002
3.656527e+003;4.388856e-002
3.658456e+003;4.347401e-002
3.660384e+003;4.323753e-002
3.662313e+003;4.268552e-002
3.664241e+003;4.217385e-002
3.666170e+003;4.203417e-002
3.668098e+003;4.179096e-002
3.670027e+003;4.133457e-002
3.671955e+003;4.119039e-002
3.673884e+003;4.078085e-002
3.675813e+003;4.022297e-002
3.677741e+003;4.007174e-002
3.679669e+003;4.006901e-002
3.681598e+003;4.010488e-002
3.683527e+003;3.986369e-002
3.685455e+003;3.982595e-002
3.687384e+003;3.960187e-002
3.689312e+003;3.919270e-002
3.691241e+003;3.889776e-002
3.693169e+003;3.806431e-002
3.695098e+003;3.748039e-002
3.697026e+003;3.745348e-002
3.698955e+003;3.731445e-002
3.700884e+003;3.717806e-002
3.702812e+003;3.684629e-002
3.704741e+003;3.663675e-002
3.706669e+003;3.642616e-002
3.708598e+003;3.607310e-002
3.710526e+003;3.575218e-002
3.712455e+003;3.582504e-002
3.714383e+003;3.596918e-002
3.716312e+003;3.580276e-002
3.718240e+003;3.536977e-002
3.720169e+003;3.515921e-002
3.722098e+003;3.496226e-002
3.724026e+003;3.502583e-002
3.725955e+003;3.514567e-002
3.727883e+003;3.485038e-002
3.729812e+003;3.416084e-002
3.731740e+003;3.391164e-002
3.733669e+003;3.403221e-002
3.735597e+003;3.423175e-002
3.737526e+003;3.440663e-002
3.739455e+003;3.428069e-002
3.741383e+003;3.428080e-002
3.743312e+003;3.380551e-002
3.745240e+003;3.339747e-002
3.747169e+003;3.360552e-002
3.749097e+003;3.377879e-002
3.751026e+003;3.373305e-002
3.752954e+003;3.370817e-002
3.754883e+003;3.364383e-002
3.756812e+003;3.331181e-002
3.758740e+003;3.278451e-002
3.760668e+003;3.282228e-002
3.762597e+003;3.316766e-002
3.764526e+003;3.326140e-002
3.766454e+003;3.353632e-002
3.768383e+003;3.342584e-002
3.770311e+003;3.306317e-002
3.772240e+003;3.306864e-002
3.774168e+003;3.358182e-002
3.776097e+003;3.370040e-002
3.778025e+003;3.335796e-002
3.779954e+003;3.301823e-002
3.781883e+003;3.278469e-002
3.783811e+003;3.288440e-002
3.785740e+003;3.318565e-002
3.787668e+003;3.356879e-002
3.789597e+003;3.353740e-002
3.791525e+003;3.302631e-002
3.793454e+003;3.267362e-002
3.795382e+003;3.269484e-002
3.797311e+003;3.308237e-002
3.799240e+003;3.340366e-002
3.801168e+003;3.326473e-002
3.803097e+003;3.327367e-002
3.805025e+003;3.333753e-002
3.806954e+003;3.357513e-002
3.808882e+003;3.364580e-002
3.810811e+003;3.318254e-002
3.812739e+003;3.281632e-002
3.814668e+003;3.246872e-002
3.816596e+003;3.281360e-002
3.818525e+003;3.328587e-002
3.820454e+003;3.332466e-002
3.822382e+003;3.342087e-002
3.824311e+003;3.348378e-002
3.826239e+003;3.378953e-002
3.828168e+003;3.399727e-002
3.830096e+003;3.398652e-002
3.832025e+003;3.364085e-002
3.833953e+003;3.317660e-002
3.835882e+003;3.312499e-002
3.837811e+003;3.298891e-002
3.839739e+003;3.286159e-002
3.841667e+003;3.316776e-002
3.843596e+003;3.351453e-002
3.845525e+003;3.342792e-002
3.847453e+003;3.353575e-002
3.849382e+003;3.388402e-002
3.851310e+003;3.346410e-002
3.853239e+003;3.263150e-002
3.855167e+003;3.277101e-002
3.857096e+003;3.340466e-002
3.859024e+003;3.342817e-002
3.860953e+003;3.331607e-002
3.862882e+003;3.386597e-002
3.864810e+003;3.419102e-002
3.866739e+003;3.411951e-002
3.868667e+003;3.397094e-002
3.870596e+003;3.400111e-002
3.872524e+003;3.424068e-002
3.874453e+003;3.428672e-002
3.876381e+003;3.428732e-002
3.878310e+003;3.402214e-002
3.880239e+003;3.370430e-002
3.882167e+003;3.389251e-002
3.884096e+003;3.394983e-002
3.886024e+003;3.396030e-002
3.887953e+003;3.424760e-002
3.889881e+003;3.433932e-002
3.891810e+003;3.450391e-002
3.893738e+003;3.462364e-002
3.895667e+003;3.438120e-002
3.897595e+003;3.425505e-002
3.899524e+003;3.451363e-002
3.901453e+003;3.486582e-002
3.903381e+003;3.472215e-002
3.905310e+003;3.454926e-002
3.907238e+003;3.452888e-002
3.909167e+003;3.472409e-002
3.911095e+003;3.521914e-002
3.913024e+003;3.556636e-002
3.914952e+003;3.516219e-002
3.916881e+003;3.462159e-002
3.918810e+003;3.504013e-002
3.920738e+003;3.564070e-002
3.922667e+003;3.562750e-002
3.924595e+003;3.530043e-002
3.926524e+003;3.528376e-002
3.928452e+003;3.545647e-002
3.930381e+003;3.563160e-002
3.932309e+003;3.563764e-002
3.934238e+003;3.532552e-002
3.936167e+003;3.539734e-002
3.938095e+003;3.552767e-002
3.940023e+003;3.548696e-002
3.941952e+003;3.594664e-002
3.943881e+003;3.601377e-002
3.945809e+003;3.607937e-002
3.947738e+003;3.599966e-002
3.949666e+003;3.585645e-002
3.951595e+003;3.564635e-002
3.953523e+003;3.537321e-002
3.955452e+003;3.535992e-002
3.957380e+003;3.560311e-002
3.959309e+003;3.583731e-002
3.961238e+003;3.596277e-002
3.963166e+003;3.612063e-002
3.965095e+003;3.646889e-002
3.967023e+003;3.650108e-002
3.968952e+003;3.640749e-002
3.970880e+003;3.642396e-002
3.972809e+003;3.683724e-002
3.974737e+003;3.713857e-002
3.976666e+003;3.699232e-002
3.978594e+003;3.675104e-002
3.980523e+003;3.672025e-002
3.982452e+003;3.668996e-002
3.984380e+003;3.647621e-002
3.986309e+003;3.641574e-002
3.988237e+003;3.664165e-002
3.990166e+003;3.670590e-002
3.992094e+003;3.676940e-002
3.994023e+003;3.683417e-002
3.995951e+003;3.649387e-002
3.997880e+003;3.618354e-002
3.999809e+003;3.608102e-002
4.001737e+003;0.000000e+000
