3.992094e+002;0.000000e+000
4.011380e+002;0.000000e+000
4.030665e+002;0.000000e+000
4.049951e+002;0.000000e+000
4.069236e+002;0.000000e+000
4.088522e+002;0.000000e+000
4.107807e+002;0.000000e+000
4.127093e+002;0.000000e+000
4.146378e+002;0.000000e+000
4.165664e+002;0.000000e+000
4.184949e+002;0.000000e+000
4.204235e+002;0.000000e+000
4.223520e+002;0.000000e+000
4.242806e+002;0.000000e+000
4.262091e+002;0.000000e+000
4.281377e+002;0.000000e+000
4.300662e+002;0.000000e+000
4.319948e+002;0.000000e+000
4.339233e+002;0.000000e+000
4.358519e+002;0.000000e+000
4.377804e+002;0.000000e+000
4.397090e+002;0.000000e+000
4.416375e+002;0.000000e+000
4.435660e+002;0.000000e+000
4.454946e+002;0.000000e+000
4.474232e+002;0.000000e+000
4.493517e+002;0.000000e+000
4.512802e+002;0.000000e+000
4.532088e+002;0.000000e+000
4.551373e+002;0.000000e+000
4.570659e+002;0.000000e+000
4.589944e+002;0.000000e+000
4.609230e+002;0.000000e+000
4.628515e+002;0.000000e+000
4.647801e+002;0.000000e+000
4.667086e+002;0.000000e+000
4.686372e+002;0.000000e+000
4.705657e+002;0.000000e+000
4.724943e+002;0.000000e+000
4.744228e+002;0.000000e+000
4.763513e+002;0.000000e+000
4.782799e+002;0.000000e+000
4.802085e+002;0.000000e+000
4.821370e+002;0.000000e+000
4.840656e+002;0.000000e+000
4.859941e+002;0.000000e+000
4.879226e+002;0.000000e+000
4.898512e+002;0.000000e+000
4.917798e+002;0.000000e+000
4.937083e+002;0.000000e+000
4.956368e+002;0.000000e+000
4.975654e+002;0.000000e+000
4.994939e+002;0.000000e+000
5.014225e+002;0.000000e+000
5.033510e+002;0.000000e+000
5.052796e+002;0.000000e+000
5.072081e+002;0.000000e+000
5.091367e+002;0.000000e+000
5.110652e+002;0.000000e+000
5.129938e+002;0.000000e+000
5.149223e+002;0.000000e+000
5.168509e+002;0.000000e+000
5.187794e+002;0.000000e+000
5.207079e+002;0.000000e+000
5.226365e+002;0.000000e+000
5.245651e+002;0.000000e+000
5.264936e+002;0.000000e+000
5.284222e+002;0.000000e+000
5.303507e+002;0.000000e+000
5.322792e+002;0.000000e+000
5.342078e+002;0.000000e+000
5.361364e+002;0.000000e+000
5.380649e+002;0.000000e+000
5.399935e+002;0.000000e+000
5.419220e+002;0.000000e+000
5.438505e+002;0.000000e+000
5.457791e+002;0.000000e+000
5.477076e+002;0.000000e+000
5.496362e+002;0.000000e+000
5.515648e+002;0.000000e+000
5.534933e+002;0.000000e+000
5.554218e+002;0.000000e+000
5.573504e+002;0.000000e+000
5.592789e+002;0.000000e+000
5.612075e+002;0.000000e+000
5.631360e+002;0.000000e+000
5.650646e+002;0.000000e+000
5.669931e+002;0.000000e+000
5.689217e+002;0.000000e+000
5.708502e+002;0.000000e+000
5.727787e+002;0.000000e+000
5.747073e+002;0.000000e+000
5.766359e+002;0.000000e+000
5.785644e+002;0.000000e+000
5.804930e+002;0.000000e+000
5.824215e+002;0.000000e+000
5.843500e+002;0.000000e+000
5.862786e+002;0.000000e+000
5.882072e+002;0.000000e+000
5.901357e+002;0.000000e+000
5.920643e+002;0.000000e+000
5.939928e+002;0.000000e+000
5.959213e+002;0.000000e+000
5.978499e+002;0.000000e+000
5.997784e+002;1.172413e-001
6.017070e+002;1.197509e-001
6.036355e+002;1.264223e-001
6.055641e+002;1.261542e-001
6.074926e+002;1.278140e-001
6.094211e+002;1.286144e-001
6.113497e+002;1.274472e-001
6.132783e+002;1.274989e-001
6.152068e+002;1.265497e-001
6.171354e+002;1.289205e-001
6.190639e+002;1.318208e-001
6.209924e+002;1.317066e-001
6.229210e+002;1.297693e-001
6.248495e+002;1.285957e-001
6.267781e+002;1.279044e-001
6.287067e+002;1.278579e-001
6.306352e+002;1.302882e-001
6.325637e+002;1.315186e-001
6.344923e+002;1.309889e-001
6.364208e+002;1.317712e-001
6.383494e+002;1.321986e-001
6.402780e+002;1.298227e-001
6.422065e+002;1.293416e-001
6.441350e+002;1.305807e-001
6.460636e+002;1.297884e-001
6.479921e+002;1.289946e-001
6.499207e+002;1.286366e-001
6.518492e+002;1.267707e-001
6.537778e+002;1.245229e-001
6.557063e+002;1.252359e-001
6.576349e+002;1.262110e-001
6.595634e+002;1.265312e-001
6.614919e+002;1.278457e-001
6.634205e+002;1.285603e-001
6.653491e+002;1.253295e-001
6.672776e+002;1.221155e-001
6.692062e+002;1.226785e-001
6.711347e+002;1.221023e-001
6.730632e+002;1.211275e-001
6.749918e+002;1.209042e-001
6.769203e+002;1.198875e-001
6.788489e+002;1.192784e-001
6.807775e+002;1.193762e-001
6.827060e+002;1.187861e-001
6.846345e+002;1.178436e-001
6.865631e+002;1.185065e-001
6.884916e+002;1.176654e-001
6.904202e+002;1.163749e-001
6.923488e+002;1.156044e-001
6.942773e+002;1.147050e-001
6.962058e+002;1.146355e-001
6.981344e+002;1.139314e-001
7.000629e+002;1.122086e-001
7.019915e+002;1.115045e-001
7.039200e+002;1.108705e-001
7.058486e+002;1.095645e-001
7.077771e+002;1.081759e-001
7.097057e+002;1.072505e-001
7.116342e+002;1.064706e-001
7.135627e+002;1.054781e-001
7.154913e+002;1.041006e-001
7.174199e+002;1.028462e-001
7.193484e+002;1.020437e-001
7.212770e+002;1.014001e-001
7.232055e+002;1.006970e-001
7.251340e+002;1.002253e-001
7.270626e+002;9.978077e-002
7.289911e+002;9.839534e-002
7.309197e+002;9.649421e-002
7.328483e+002;9.473430e-002
7.347768e+002;9.346567e-002
7.367053e+002;9.243979e-002
7.386339e+002;9.139849e-002
7.405624e+002;9.002499e-002
7.424910e+002;8.892700e-002
7.444196e+002;8.754418e-002
7.463481e+002;8.595431e-002
7.482766e+002;8.428917e-002
7.502052e+002;8.308611e-002
7.521337e+002;8.191319e-002
7.540623e+002;8.053836e-002
7.559908e+002;7.978287e-002
7.579194e+002;7.914589e-002
7.598479e+002;7.781406e-002
7.617765e+002;7.657764e-002
7.637050e+002;7.527919e-002
7.656335e+002;7.394537e-002
7.675621e+002;7.253675e-002
7.694907e+002;7.157514e-002
7.714192e+002;7.117532e-002
7.733478e+002;7.070856e-002
7.752763e+002;6.911594e-002
7.772048e+002;6.757970e-002
7.791334e+002;6.666418e-002
7.810620e+002;6.594546e-002
7.829905e+002;6.489200e-002
7.849191e+002;6.394262e-002
7.868476e+002;6.328557e-002
7.887761e+002;6.207261e-002
7.907047e+002;6.130126e-002
7.926332e+002;6.038573e-002
7.945618e+002;5.924695e-002
7.964903e+002;5.920757e-002
7.984189e+002;5.899546e-002
8.003474e+002;5.808731e-002
8.022759e+002;5.765915e-002
8.042045e+002;5.743800e-002
8.061331e+002;5.722792e-002
8.080616e+002;5.749204e-002
8.099902e+002;5.720022e-002
8.119187e+002;5.716367e-002
8.138472e+002;5.735768e-002
8.157758e+002;5.701720e-002
8.177043e+002;5.657548e-002
8.196329e+002;5.604044e-002
8.215615e+002;5.555769e-002
8.234900e+002;5.576828e-002
8.254185e+002;5.628430e-002
8.273471e+002;5.670870e-002
8.292756e+002;5.757556e-002
8.312042e+002;5.814682e-002
8.331328e+002;5.769774e-002
8.350613e+002;5.756456e-002
8.369898e+002;5.679105e-002
8.389184e+002;5.584035e-002
8.408469e+002;5.509214e-002
8.427755e+002;5.487711e-002
8.447040e+002;5.503719e-002
8.466326e+002;5.484000e-002
8.485611e+002;5.470555e-002
8.504897e+002;5.467590e-002
8.524182e+002;5.419635e-002
8.543467e+002;5.376454e-002
8.562753e+002;5.330705e-002
8.582039e+002;5.241979e-002
8.601324e+002;5.137957e-002
8.620610e+002;5.089020e-002
8.639895e+002;5.022041e-002
8.659180e+002;4.879748e-002
8.678466e+002;4.820155e-002
8.697751e+002;4.815009e-002
8.717037e+002;4.782955e-002
8.736323e+002;4.747742e-002
8.755608e+002;4.717658e-002
8.774893e+002;4.724015e-002
8.794179e+002;4.707140e-002
8.813464e+002;4.688437e-002
8.832750e+002;4.672417e-002
8.852036e+002;4.654053e-002
8.871321e+002;4.654023e-002
8.890606e+002;4.667465e-002
8.909892e+002;4.678505e-002
8.929177e+002;4.695735e-002
8.948463e+002;4.670413e-002
8.967748e+002;4.613933e-002
8.987034e+002;4.597269e-002
9.006319e+002;4.632335e-002
9.025605e+002;4.659143e-002
9.044890e+002;4.681985e-002
9.064175e+002;4.737169e-002
9.083461e+002;4.752994e-002
9.102747e+002;4.740568e-002
9.122032e+002;4.787365e-002
9.141318e+002;4.852336e-002
9.160603e+002;4.895889e-002
9.179888e+002;4.942656e-002
9.199174e+002;5.027216e-002
9.218459e+002;5.136197e-002
9.237745e+002;5.206478e-002
9.257031e+002;5.240558e-002
9.276316e+002;5.327161e-002
9.295601e+002;5.391806e-002
9.314887e+002;5.437668e-002
9.334172e+002;5.501387e-002
9.353458e+002;5.527322e-002
9.372744e+002;5.563919e-002
9.392029e+002;5.629777e-002
9.411314e+002;5.663252e-002
9.430600e+002;5.728761e-002
9.449885e+002;5.774944e-002
9.469171e+002;5.793576e-002
9.488456e+002;5.842851e-002
9.507742e+002;5.917646e-002
9.527027e+002;5.988360e-002
9.546313e+002;6.035813e-002
9.565598e+002;6.058321e-002
9.584883e+002;6.110961e-002
9.604169e+002;6.169045e-002
9.623455e+002;6.206107e-002
9.642740e+002;6.212081e-002
9.662026e+002;6.207876e-002
9.681311e+002;6.199754e-002
9.700596e+002;6.205029e-002
9.719882e+002;6.208408e-002
9.739167e+002;6.207062e-002
9.758453e+002;6.196376e-002
9.777739e+002;6.154520e-002
9.797024e+002;6.106697e-002
9.816309e+002;6.075455e-002
9.835595e+002;6.079400e-002
9.854880e+002;6.130653e-002
9.874166e+002;6.168938e-002
9.893452e+002;6.219395e-002
9.912737e+002;6.311185e-002
9.932022e+002;6.402516e-002
9.951307e+002;6.513761e-002
9.970593e+002;6.629363e-002
9.989879e+002;6.752706e-002
1.000916e+003;6.855465e-002
1.002845e+003;6.946830e-002
1.004773e+003;7.061245e-002
1.006702e+003;7.163891e-002
1.008631e+003;7.284691e-002
1.010559e+003;7.410591e-002
1.012488e+003;7.444858e-002
1.014416e+003;7.454396e-002
1.016345e+003;7.494701e-002
1.018273e+003;7.505050e-002
1.020202e+003;7.527635e-002
1.022130e+003;7.533909e-002
1.024059e+003;7.533846e-002
1.025988e+003;7.586763e-002
1.027916e+003;7.658108e-002
1.029845e+003;7.765325e-002
1.031773e+003;7.921360e-002
1.033702e+003;8.026754e-002
1.035630e+003;8.122597e-002
1.037559e+003;8.203436e-002
1.039487e+003;8.277706e-002
1.041416e+003;8.368946e-002
1.043344e+003;8.435302e-002
1.045273e+003;8.496163e-002
1.047202e+003;8.534544e-002
1.049130e+003;8.562606e-002
1.051059e+003;8.609225e-002
1.052987e+003;8.657152e-002
1.054916e+003;8.683177e-002
1.056844e+003;8.742648e-002
1.058773e+003;8.804254e-002
1.060701e+003;8.840013e-002
1.062630e+003;8.875219e-002
1.064558e+003;8.887939e-002
1.066487e+003;8.873699e-002
1.068416e+003;8.834051e-002
1.070344e+003;8.746064e-002
1.072273e+003;8.688053e-002
1.074201e+003;8.668514e-002
1.076130e+003;8.618813e-002
1.078058e+003;8.507358e-002
1.079987e+003;8.350846e-002
1.081915e+003;8.245809e-002
1.083844e+003;8.185125e-002
1.085773e+003;8.072849e-002
1.087701e+003;7.951416e-002
1.089630e+003;7.849491e-002
1.091558e+003;7.704359e-002
1.093487e+003;7.568514e-002
1.095415e+003;7.539667e-002
1.097344e+003;7.517876e-002
1.099272e+003;7.498237e-002
1.101201e+003;7.455415e-002
1.103129e+003;7.422645e-002
1.105058e+003;7.374997e-002
1.106987e+003;7.331503e-002
1.108915e+003;7.319470e-002
1.110844e+003;7.231448e-002
1.112772e+003;7.102990e-002
1.114701e+003;7.021605e-002
1.116629e+003;6.947083e-002
1.118558e+003;6.891164e-002
1.120486e+003;6.876609e-002
1.122415e+003;6.856862e-002
1.124344e+003;6.833130e-002
1.126272e+003;6.799184e-002
1.128201e+003;6.750329e-002
1.130129e+003;6.734103e-002
1.132058e+003;6.768250e-002
1.133986e+003;6.797537e-002
1.135915e+003;6.813885e-002
1.137843e+003;6.872448e-002
1.139772e+003;6.966240e-002
1.141700e+003;7.046562e-002
1.143629e+003;7.116467e-002
1.145557e+003;7.195183e-002
1.147486e+003;7.276098e-002
1.149415e+003;7.388899e-002
1.151343e+003;7.514574e-002
1.153272e+003;7.616044e-002
1.155200e+003;7.711498e-002
1.157129e+003;7.804536e-002
1.159057e+003;7.893725e-002
1.160986e+003;7.949860e-002
1.162914e+003;8.014631e-002
1.164843e+003;8.099062e-002
1.166771e+003;8.118846e-002
1.168700e+003;8.171745e-002
1.170629e+003;8.261797e-002
1.172557e+003;8.274756e-002
1.174486e+003;8.245572e-002
1.176414e+003;8.182993e-002
1.178343e+003;8.082942e-002
1.180271e+003;7.988668e-002
1.182200e+003;7.914442e-002
1.184128e+003;7.816026e-002
1.186057e+003;7.735314e-002
1.187986e+003;7.744339e-002
1.189914e+003;7.775881e-002
1.191843e+003;7.804437e-002
1.193771e+003;7.897321e-002
1.195700e+003;8.023634e-002
1.197628e+003;8.122756e-002
1.199557e+003;8.259004e-002
1.201485e+003;8.473943e-002
1.203414e+003;8.690859e-002
1.205343e+003;8.883508e-002
1.207271e+003;9.116456e-002
1.209200e+003;9.377088e-002
1.211128e+003;9.613520e-002
1.213057e+003;9.835009e-002
1.214985e+003;1.006413e-001
1.216914e+003;1.027637e-001
1.218842e+003;1.049932e-001
1.220771e+003;1.069395e-001
1.222699e+003;1.086542e-001
1.224628e+003;1.102327e-001
1.226557e+003;1.113985e-001
1.228485e+003;1.123261e-001
1.230414e+003;1.133664e-001
1.232342e+003;1.138358e-001
1.234271e+003;1.138293e-001
1.236199e+003;1.138795e-001
1.238128e+003;1.136128e-001
1.240056e+003;1.130398e-001
1.241985e+003;1.126125e-001
1.243913e+003;1.117987e-001
1.245842e+003;1.104912e-001
1.247771e+003;1.093837e-001
1.249699e+003;1.084519e-001
1.251628e+003;1.076469e-001
1.253556e+003;1.069127e-001
1.255485e+003;1.060048e-001
1.257413e+003;1.053588e-001
1.259342e+003;1.043710e-001
1.261270e+003;1.030738e-001
1.263199e+003;1.017677e-001
1.265127e+003;1.005368e-001
1.267056e+003;9.933531e-002
1.268985e+003;9.820695e-002
1.270913e+003;9.716771e-002
1.272842e+003;9.593783e-002
1.274770e+003;9.466478e-002
1.276699e+003;9.340655e-002
1.278627e+003;9.242228e-002
1.280556e+003;9.148978e-002
1.282484e+003;9.038585e-002
1.284413e+003;8.927730e-002
1.286342e+003;8.837393e-002
1.288270e+003;8.769105e-002
1.290199e+003;8.714785e-002
1.292127e+003;8.649234e-002
1.294056e+003;8.569314e-002
1.295984e+003;8.514424e-002
1.297913e+003;8.486731e-002
1.299841e+003;8.453062e-002
1.301770e+003;8.407418e-002
1.303698e+003;8.363530e-002
1.305627e+003;8.281744e-002
1.307556e+003;8.197677e-002
1.309484e+003;8.163044e-002
1.311413e+003;8.119924e-002
1.313341e+003;8.046278e-002
1.315270e+003;7.992814e-002
1.317198e+003;7.955232e-002
1.319127e+003;7.925571e-002
1.321055e+003;7.951352e-002
1.322984e+003;7.981477e-002
1.324912e+003;7.969465e-002
1.326841e+003;7.984563e-002
1.328770e+003;8.012260e-002
1.330698e+003;8.008482e-002
1.332627e+003;8.008634e-002
1.334555e+003;8.025017e-002
1.336484e+003;8.035576e-002
1.338412e+003;8.050290e-002
1.340341e+003;8.072949e-002
1.342269e+003;8.072375e-002
1.344198e+003;8.051267e-002
1.346126e+003;8.042905e-002
1.348055e+003;8.019824e-002
1.349984e+003;8.003435e-002
1.351912e+003;7.995145e-002
1.353841e+003;7.990070e-002
1.355769e+003;8.032534e-002
1.357698e+003;8.109859e-002
1.359626e+003;8.207022e-002
1.361555e+003;8.329142e-002
1.363483e+003;8.479255e-002
1.365412e+003;8.657650e-002
1.367341e+003;8.824793e-002
1.369269e+003;8.965194e-002
1.371198e+003;9.078039e-002
1.373126e+003;9.166771e-002
1.375055e+003;9.225315e-002
1.376983e+003;9.255615e-002
1.378912e+003;9.278985e-002
1.380840e+003;9.277286e-002
1.382769e+003;9.266753e-002
1.384698e+003;9.254725e-002
1.386626e+003;9.228921e-002
1.388555e+003;9.175746e-002
1.390483e+003;9.145670e-002
1.392412e+003;9.120371e-002
1.394340e+003;9.068007e-002
1.396269e+003;9.044742e-002
1.398197e+003;9.039127e-002
1.400126e+003;9.026273e-002
1.402054e+003;9.057446e-002
1.403983e+003;9.107403e-002
1.405911e+003;9.175865e-002
1.407840e+003;9.287705e-002
1.409769e+003;9.390675e-002
1.411697e+003;9.484620e-002
1.413626e+003;9.553023e-002
1.415554e+003;9.593238e-002
1.417483e+003;9.617407e-002
1.419411e+003;9.623188e-002
1.421340e+003;9.617700e-002
1.423268e+003;9.623399e-002
1.425197e+003;9.642160e-002
1.427125e+003;9.686806e-002
1.429054e+003;9.764928e-002
1.430983e+003;9.865845e-002
1.432911e+003;9.987263e-002
1.434840e+003;1.015030e-001
1.436768e+003;1.032379e-001
1.438697e+003;1.050123e-001
1.440625e+003;1.068912e-001
1.442554e+003;1.086081e-001
1.444482e+003;1.100277e-001
1.446411e+003;1.110579e-001
1.448340e+003;1.114587e-001
1.450268e+003;1.113474e-001
1.452197e+003;1.111746e-001
1.454125e+003;1.108147e-001
1.456054e+003;1.097559e-001
1.457982e+003;1.085585e-001
1.459911e+003;1.075853e-001
1.461839e+003;1.068427e-001
1.463768e+003;1.059541e-001
1.465697e+003;1.049973e-001
1.467625e+003;1.044050e-001
1.469554e+003;1.037795e-001
1.471482e+003;1.030046e-001
1.473411e+003;1.026116e-001
1.475339e+003;1.028259e-001
1.477268e+003;1.034378e-001
1.479196e+003;1.045147e-001
1.481125e+003;1.059974e-001
1.483053e+003;1.082147e-001
1.484982e+003;1.109202e-001
1.486911e+003;1.141616e-001
1.488839e+003;1.180573e-001
1.490768e+003;1.221104e-001
1.492696e+003;1.261334e-001
1.494625e+003;1.301704e-001
1.496553e+003;1.340925e-001
1.498482e+003;1.378636e-001
1.500410e+003;1.414962e-001
1.502339e+003;1.449026e-001
1.504267e+003;1.476597e-001
1.506196e+003;1.499860e-001
1.508125e+003;1.525357e-001
1.510053e+003;1.550416e-001
1.511982e+003;1.570470e-001
1.513910e+003;1.586283e-001
1.515839e+003;1.592662e-001
1.517767e+003;1.588085e-001
1.519696e+003;1.575609e-001
1.521624e+003;1.555917e-001
1.523553e+003;1.537982e-001
1.525481e+003;1.523465e-001
1.527410e+003;1.511819e-001
1.529339e+003;1.499441e-001
1.531267e+003;1.486594e-001
1.533196e+003;1.471946e-001
1.535124e+003;1.456531e-001
1.537053e+003;1.440835e-001
1.538981e+003;1.421455e-001
1.540910e+003;1.405651e-001
1.542838e+003;1.392725e-001
1.544767e+003;1.376890e-001
1.546695e+003;1.358952e-001
1.548624e+003;1.337547e-001
1.550553e+003;1.318532e-001
1.552481e+003;1.299428e-001
1.554410e+003;1.277149e-001
1.556338e+003;1.254936e-001
1.558267e+003;1.231926e-001
1.560195e+003;1.208206e-001
1.562124e+003;1.186129e-001
1.564052e+003;1.163535e-001
1.565981e+003;1.137415e-001
1.567910e+003;1.111963e-001
1.569838e+003;1.088717e-001
1.571767e+003;1.068378e-001
1.573695e+003;1.046956e-001
1.575624e+003;1.023784e-001
1.577552e+003;1.007192e-001
1.579481e+003;9.963016e-002
1.581409e+003;9.838844e-002
1.583338e+003;9.700213e-002
1.585266e+003;9.601193e-002
1.587195e+003;9.572283e-002
1.589124e+003;9.577950e-002
1.591052e+003;9.617804e-002
1.592981e+003;9.700313e-002
1.594909e+003;9.816334e-002
1.596838e+003;9.944545e-002
1.598766e+003;1.008064e-001
1.600695e+003;1.023873e-001
1.602623e+003;1.044041e-001
1.604552e+003;1.069790e-001
1.606480e+003;1.101397e-001
1.608409e+003;1.141369e-001
1.610338e+003;1.185338e-001
1.612266e+003;1.228485e-001
1.614195e+003;1.271084e-001
1.616123e+003;1.314394e-001
1.618052e+003;1.358052e-001
1.619980e+003;1.400080e-001
1.621909e+003;1.441801e-001
1.623837e+003;1.481395e-001
1.625766e+003;1.518182e-001
1.627694e+003;1.550604e-001
1.629623e+003;1.574825e-001
1.631552e+003;1.595554e-001
1.633480e+003;1.614052e-001
1.635409e+003;1.625742e-001
1.637337e+003;1.633485e-001
1.639266e+003;1.640549e-001
1.641194e+003;1.641927e-001
1.643123e+003;1.637764e-001
1.645051e+003;1.626253e-001
1.646980e+003;1.609700e-001
1.648909e+003;1.595119e-001
1.650837e+003;1.579559e-001
1.652766e+003;1.556180e-001
1.654694e+003;1.534508e-001
1.656623e+003;1.515291e-001
1.658551e+003;1.491176e-001
1.660480e+003;1.464654e-001
1.662408e+003;1.439535e-001
1.664337e+003;1.416918e-001
1.666266e+003;1.391472e-001
1.668194e+003;1.362909e-001
1.670123e+003;1.335452e-001
1.672051e+003;1.311670e-001
1.673980e+003;1.287705e-001
1.675908e+003;1.261348e-001
1.677837e+003;1.235129e-001
1.679765e+003;1.209661e-001
1.681694e+003;1.186104e-001
1.683622e+003;1.161004e-001
1.685551e+003;1.133917e-001
1.687479e+003;1.110133e-001
1.689408e+003;1.088226e-001
1.691337e+003;1.064528e-001
1.693265e+003;1.043163e-001
1.695194e+003;1.019103e-001
1.697122e+003;9.929346e-002
1.699051e+003;9.655997e-002
1.700979e+003;9.340724e-002
1.702908e+003;8.965047e-002
1.704836e+003;8.512582e-002
1.706765e+003;8.019947e-002
1.708693e+003;7.533448e-002
1.710622e+003;7.066431e-002
1.712551e+003;6.612936e-002
1.714479e+003;6.175920e-002
1.716408e+003;5.748637e-002
1.718336e+003;5.367968e-002
1.720265e+003;5.073242e-002
1.722193e+003;4.791800e-002
1.724122e+003;4.549596e-002
1.726050e+003;4.392452e-002
1.727979e+003;4.250398e-002
1.729908e+003;4.130902e-002
1.731836e+003;4.053372e-002
1.733765e+003;3.985163e-002
1.735693e+003;3.931141e-002
1.737622e+003;3.871230e-002
1.739550e+003;3.789872e-002
1.741479e+003;3.718131e-002
1.743407e+003;3.607836e-002
1.745336e+003;3.483648e-002
1.747265e+003;3.346728e-002
1.749193e+003;3.194997e-002
1.751122e+003;3.061180e-002
1.753050e+003;2.944198e-002
1.754979e+003;2.807326e-002
1.756907e+003;2.659465e-002
1.758836e+003;2.534882e-002
1.760764e+003;2.439702e-002
1.762693e+003;2.387248e-002
1.764621e+003;2.335704e-002
1.766550e+003;2.269915e-002
1.768479e+003;2.233213e-002
1.770407e+003;2.192190e-002
1.772336e+003;2.135938e-002
1.774264e+003;2.093330e-002
1.776193e+003;2.066166e-002
1.778121e+003;2.026543e-002
1.780050e+003;1.998324e-002
1.781978e+003;1.980526e-002
1.783907e+003;1.953771e-002
1.785835e+003;1.927567e-002
1.787764e+003;1.885253e-002
1.789693e+003;1.843506e-002
1.791621e+003;1.817966e-002
1.793550e+003;1.802162e-002
1.795478e+003;1.793207e-002
1.797407e+003;1.788328e-002
1.799335e+003;1.783077e-002
1.801264e+003;1.763583e-002
1.803192e+003;1.745225e-002
1.805121e+003;1.740455e-002
1.807049e+003;1.743073e-002
1.808978e+003;1.737538e-002
1.810907e+003;1.719264e-002
1.812835e+003;1.682370e-002
1.814764e+003;1.651872e-002
1.816692e+003;1.634562e-002
1.818621e+003;1.621545e-002
1.820549e+003;1.617219e-002
1.822478e+003;1.605576e-002
1.824406e+003;1.587642e-002
1.826335e+003;1.581563e-002
1.828264e+003;1.569551e-002
1.830192e+003;1.563963e-002
1.832121e+003;1.556551e-002
1.834049e+003;1.539983e-002
1.835978e+003;1.532720e-002
1.837906e+003;1.520776e-002
1.839835e+003;1.494376e-002
1.841763e+003;1.488820e-002
1.843692e+003;1.501074e-002
1.845620e+003;1.504497e-002
1.847549e+003;1.485793e-002
1.849478e+003;1.473365e-002
1.851406e+003;1.482409e-002
1.853335e+003;1.477616e-002
1.855263e+003;1.465763e-002
1.857192e+003;1.459609e-002
1.859120e+003;1.448494e-002
1.861049e+003;1.421945e-002
1.862977e+003;1.403485e-002
1.864906e+003;1.416355e-002
1.866834e+003;1.424174e-002
1.868763e+003;1.419874e-002
1.870692e+003;1.409714e-002
1.872620e+003;1.403725e-002
1.874549e+003;1.404834e-002
1.876477e+003;1.395639e-002
1.878406e+003;1.395670e-002
1.880334e+003;1.407846e-002
1.882263e+003;1.391304e-002
1.884191e+003;1.374235e-002
1.886120e+003;1.368805e-002
1.888048e+003;1.373315e-002
1.889977e+003;1.380203e-002
1.891906e+003;1.384797e-002
1.893834e+003;1.386925e-002
1.895763e+003;1.383634e-002
1.897691e+003;1.370788e-002
1.899620e+003;1.367984e-002
1.901548e+003;1.372200e-002
1.903477e+003;1.372583e-002
1.905405e+003;1.377060e-002
1.907334e+003;1.389628e-002
1.909262e+003;1.384698e-002
1.911191e+003;1.356978e-002
1.913120e+003;1.345938e-002
1.915048e+003;1.365902e-002
1.916977e+003;1.362544e-002
1.918905e+003;1.344410e-002
1.920834e+003;1.337787e-002
1.922762e+003;1.343371e-002
1.924691e+003;1.339383e-002
1.926619e+003;1.335542e-002
1.928548e+003;1.325098e-002
1.930477e+003;1.321733e-002
1.932405e+003;1.332419e-002
1.934334e+003;1.340299e-002
1.936262e+003;1.341416e-002
1.938191e+003;1.333790e-002
1.940119e+003;1.322663e-002
1.942048e+003;1.296106e-002
1.943976e+003;1.298229e-002
1.945905e+003;1.321276e-002
1.947833e+003;1.334596e-002
1.949762e+003;1.322307e-002
1.951691e+003;1.305621e-002
1.953619e+003;1.321433e-002
1.955548e+003;1.333537e-002
1.957476e+003;1.330595e-002
1.959405e+003;1.317010e-002
1.961333e+003;1.306608e-002
1.963262e+003;1.301445e-002
1.965190e+003;1.310323e-002
1.967119e+003;1.332303e-002
1.969047e+003;1.328450e-002
1.970976e+003;1.332232e-002
1.972905e+003;1.336530e-002
1.974833e+003;1.342452e-002
1.976762e+003;1.359881e-002
1.978690e+003;1.362968e-002
1.980619e+003;1.347158e-002
1.982547e+003;1.335450e-002
1.984476e+003;1.325628e-002
1.986404e+003;1.322700e-002
1.988333e+003;1.311983e-002
1.990261e+003;1.308878e-002
1.992190e+003;1.316043e-002
1.994119e+003;1.323301e-002
1.996047e+003;1.328402e-002
1.997976e+003;1.314014e-002
1.999904e+003;1.317488e-002
2.001833e+003;1.337675e-002
2.003761e+003;1.334305e-002
2.005690e+003;1.330978e-002
2.007618e+003;1.341727e-002
2.009547e+003;1.335067e-002
2.011476e+003;1.333731e-002
2.013404e+003;1.304658e-002
2.015333e+003;1.301278e-002
2.017261e+003;1.335795e-002
2.019190e+003;1.346977e-002
2.021118e+003;1.344916e-002
2.023047e+003;1.335894e-002
2.024975e+003;1.319305e-002
2.026904e+003;1.320432e-002
2.028833e+003;1.331719e-002
2.030761e+003;1.321727e-002
2.032690e+003;1.321556e-002
2.034618e+003;1.324627e-002
2.036547e+003;1.308820e-002
2.038475e+003;1.297375e-002
2.040404e+003;1.301168e-002
2.042332e+003;1.305030e-002
2.044261e+003;1.306106e-002
2.046189e+003;1.307263e-002
2.048118e+003;1.308260e-002
2.050047e+003;1.302579e-002
2.051975e+003;1.284650e-002
2.053904e+003;1.268156e-002
2.055832e+003;1.275860e-002
2.057761e+003;1.292938e-002
2.059689e+003;1.309046e-002
2.061618e+003;1.308055e-002
2.063546e+003;1.299321e-002
2.065475e+003;1.297850e-002
2.067404e+003;1.313728e-002
2.069332e+003;1.314558e-002
2.071260e+003;1.296027e-002
2.073189e+003;1.300912e-002
2.075118e+003;1.317959e-002
2.077046e+003;1.319810e-002
2.078975e+003;1.307424e-002
2.080903e+003;1.305252e-002
2.082832e+003;1.316467e-002
2.084760e+003;1.319698e-002
2.086689e+003;1.320207e-002
2.088617e+003;1.299233e-002
2.090546e+003;1.277627e-002
2.092475e+003;1.289620e-002
2.094403e+003;1.300475e-002
2.096332e+003;1.268231e-002
2.098260e+003;1.258011e-002
2.100189e+003;1.282507e-002
2.102117e+003;1.291920e-002
2.104046e+003;1.279907e-002
2.105974e+003;1.257366e-002
2.107903e+003;1.246334e-002
2.109832e+003;1.262431e-002
2.111760e+003;1.284869e-002
2.113688e+003;1.301206e-002
2.115617e+003;1.291579e-002
2.117546e+003;1.271465e-002
2.119474e+003;1.252141e-002
2.121403e+003;1.242123e-002
2.123331e+003;1.257121e-002
2.125260e+003;1.270370e-002
2.127188e+003;1.279566e-002
2.129117e+003;1.273191e-002
2.131045e+003;1.277081e-002
2.132974e+003;1.269817e-002
2.134903e+003;1.251845e-002
2.136831e+003;1.250208e-002
2.138760e+003;1.247831e-002
2.140688e+003;1.236422e-002
2.142617e+003;1.260364e-002
2.144545e+003;1.289842e-002
2.146474e+003;1.294522e-002
2.148402e+003;1.275870e-002
2.150331e+003;1.268122e-002
2.152260e+003;1.263850e-002
2.154188e+003;1.252663e-002
2.156117e+003;1.253802e-002
2.158045e+003;1.248884e-002
2.159974e+003;1.255013e-002
2.161902e+003;1.260753e-002
2.163831e+003;1.279313e-002
2.165759e+003;1.281668e-002
2.167688e+003;1.256295e-002
2.169616e+003;1.265430e-002
2.171545e+003;1.269152e-002
2.173474e+003;1.273154e-002
2.175402e+003;1.272666e-002
2.177331e+003;1.275778e-002
2.179259e+003;1.283063e-002
2.181188e+003;1.267293e-002
2.183116e+003;1.252428e-002
2.185045e+003;1.255402e-002
2.186973e+003;1.255627e-002
2.188902e+003;1.250337e-002
2.190831e+003;1.269684e-002
2.192759e+003;1.262977e-002
2.194688e+003;1.260340e-002
2.196616e+003;1.265925e-002
2.198545e+003;1.257932e-002
2.200473e+003;1.249359e-002
2.202402e+003;1.248949e-002
2.204330e+003;1.255777e-002
2.206259e+003;1.259825e-002
2.208188e+003;1.266992e-002
2.210116e+003;1.278016e-002
2.212044e+003;1.274116e-002
2.213973e+003;1.257912e-002
2.215902e+003;1.246177e-002
2.217830e+003;1.274509e-002
2.219759e+003;1.301831e-002
2.221687e+003;1.276812e-002
2.223616e+003;1.260627e-002
2.225544e+003;1.291426e-002
2.227473e+003;1.289681e-002
2.229401e+003;1.265843e-002
2.231330e+003;1.266992e-002
2.233259e+003;1.269449e-002
2.235187e+003;1.278405e-002
2.237116e+003;1.285111e-002
2.239044e+003;1.264908e-002
2.240973e+003;1.243705e-002
2.242901e+003;1.231844e-002
2.244830e+003;1.230859e-002
2.246758e+003;1.246293e-002
2.248687e+003;1.247384e-002
2.250615e+003;1.251971e-002
2.252544e+003;1.257124e-002
2.254473e+003;1.255040e-002
2.256401e+003;1.263444e-002
2.258330e+003;1.266375e-002
2.260258e+003;1.286360e-002
2.262187e+003;1.298311e-002
2.264115e+003;1.273441e-002
2.266044e+003;1.255446e-002
2.267972e+003;1.263963e-002
2.269901e+003;1.271509e-002
2.271830e+003;1.257953e-002
2.273758e+003;1.257973e-002
2.275687e+003;1.294156e-002
2.277615e+003;1.317252e-002
2.279544e+003;1.323076e-002
2.281472e+003;1.314455e-002
2.283401e+003;1.317495e-002
2.285329e+003;1.330004e-002
2.287258e+003;1.319756e-002
2.289187e+003;1.300397e-002
2.291115e+003;1.312017e-002
2.293043e+003;1.322943e-002
2.294972e+003;1.319814e-002
2.296901e+003;1.302142e-002
2.298829e+003;1.292064e-002
2.300758e+003;1.287681e-002
2.302686e+003;1.276815e-002
2.304615e+003;1.275358e-002
2.306543e+003;1.292193e-002
2.308472e+003;1.292692e-002
2.310400e+003;1.288773e-002
2.312329e+003;1.305061e-002
2.314258e+003;1.325918e-002
2.316186e+003;1.329498e-002
2.318115e+003;1.315749e-002
2.320043e+003;1.331046e-002
2.321972e+003;1.335163e-002
2.323900e+003;1.320087e-002
2.325829e+003;1.316569e-002
2.327757e+003;1.323168e-002
2.329686e+003;1.325108e-002
2.331615e+003;1.317922e-002
2.333543e+003;1.321023e-002
2.335472e+003;1.333967e-002
2.337400e+003;1.337254e-002
2.339329e+003;1.336069e-002
2.341257e+003;1.331893e-002
2.343186e+003;1.337360e-002
2.345114e+003;1.352288e-002
2.347043e+003;1.351512e-002
2.348971e+003;1.340111e-002
2.350900e+003;1.352640e-002
2.352829e+003;1.377833e-002
2.354757e+003;1.399417e-002
2.356686e+003;1.410608e-002
2.358614e+003;1.406853e-002
2.360543e+003;1.390681e-002
2.362471e+003;1.378093e-002
2.364400e+003;1.363378e-002
2.366328e+003;1.365204e-002
2.368257e+003;1.381024e-002
2.370186e+003;1.377932e-002
2.372114e+003;1.358253e-002
2.374042e+003;1.381558e-002
2.375971e+003;1.413394e-002
2.377900e+003;1.407911e-002
2.379828e+003;1.392183e-002
2.381757e+003;1.390770e-002
2.383685e+003;1.395150e-002
2.385614e+003;1.391492e-002
2.387542e+003;1.403797e-002
2.389471e+003;1.427602e-002
2.391399e+003;1.426170e-002
2.393328e+003;1.417854e-002
2.395257e+003;1.408448e-002
2.397185e+003;1.425804e-002
2.399114e+003;1.432981e-002
2.401042e+003;1.425499e-002
2.402971e+003;1.441715e-002
2.404899e+003;1.451043e-002
2.406828e+003;1.441287e-002
2.408756e+003;1.435416e-002
2.410685e+003;1.437814e-002
2.412614e+003;1.458564e-002
2.414542e+003;1.492311e-002
2.416471e+003;1.530485e-002
2.418399e+003;1.531796e-002
2.420328e+003;1.525313e-002
2.422256e+003;1.526559e-002
2.424185e+003;1.543870e-002
2.426113e+003;1.561696e-002
2.428042e+003;1.572472e-002
2.429970e+003;1.559607e-002
2.431899e+003;1.550249e-002
2.433828e+003;1.558835e-002
2.435756e+003;1.574268e-002
2.437685e+003;1.568559e-002
2.439613e+003;1.566051e-002
2.441542e+003;1.576526e-002
2.443470e+003;1.588831e-002
2.445399e+003;1.605277e-002
2.447327e+003;1.612645e-002
2.449256e+003;1.612267e-002
2.451185e+003;1.612614e-002
2.453113e+003;1.610902e-002
2.455042e+003;1.609244e-002
2.456970e+003;1.611672e-002
2.458899e+003;1.593241e-002
2.460827e+003;1.572966e-002
2.462756e+003;1.575010e-002
2.464684e+003;1.578357e-002
2.466613e+003;1.601213e-002
2.468542e+003;1.624909e-002
2.470470e+003;1.640529e-002
2.472398e+003;1.646465e-002
2.474327e+003;1.641317e-002
2.476256e+003;1.656766e-002
2.478184e+003;1.682195e-002
2.480113e+003;1.674549e-002
2.482041e+003;1.662649e-002
2.483970e+003;1.662811e-002
2.485898e+003;1.678148e-002
2.487827e+003;1.676374e-002
2.489755e+003;1.677163e-002
2.491684e+003;1.695116e-002
2.493613e+003;1.704412e-002
2.495541e+003;1.703644e-002
2.497470e+003;1.708782e-002
2.499398e+003;1.685911e-002
2.501327e+003;1.654907e-002
2.503255e+003;1.669394e-002
2.505184e+003;1.693603e-002
2.507112e+003;1.708968e-002
2.509041e+003;1.747902e-002
2.510969e+003;1.764418e-002
2.512898e+003;1.758183e-002
2.514827e+003;1.742156e-002
2.516755e+003;1.749275e-002
2.518684e+003;1.766747e-002
2.520612e+003;1.766637e-002
2.522541e+003;1.765678e-002
2.524469e+003;1.750865e-002
2.526398e+003;1.733265e-002
2.528326e+003;1.726021e-002
2.530255e+003;1.748399e-002
2.532184e+003;1.775883e-002
2.534112e+003;1.766219e-002
2.536041e+003;1.766292e-002
2.537969e+003;1.788604e-002
2.539898e+003;1.790493e-002
2.541826e+003;1.787120e-002
2.543755e+003;1.802556e-002
2.545683e+003;1.817676e-002
2.547612e+003;1.813157e-002
2.549541e+003;1.806051e-002
2.551469e+003;1.812753e-002
2.553397e+003;1.832314e-002
2.555326e+003;1.847236e-002
2.557255e+003;1.841771e-002
2.559183e+003;1.861335e-002
2.561112e+003;1.875320e-002
2.563040e+003;1.855106e-002
2.564969e+003;1.839583e-002
2.566897e+003;1.851316e-002
2.568826e+003;1.873617e-002
2.570754e+003;1.883350e-002
2.572683e+003;1.892891e-002
2.574612e+003;1.910047e-002
2.576540e+003;1.917447e-002
2.578469e+003;1.919909e-002
2.580397e+003;1.897339e-002
2.582326e+003;1.888776e-002
2.584254e+003;1.919182e-002
2.586183e+003;1.952725e-002
2.588111e+003;1.967835e-002
2.590040e+003;1.983539e-002
2.591969e+003;1.992946e-002
2.593897e+003;1.975598e-002
2.595826e+003;1.976992e-002
2.597754e+003;1.983370e-002
2.599683e+003;1.986807e-002
2.601611e+003;1.996686e-002
2.603540e+003;2.014529e-002
2.605468e+003;2.013130e-002
2.607397e+003;2.015827e-002
2.609325e+003;2.032782e-002
2.611254e+003;2.048468e-002
2.613183e+003;2.038758e-002
2.615111e+003;2.038036e-002
2.617040e+003;2.074833e-002
2.618968e+003;2.078197e-002
2.620897e+003;2.064665e-002
2.622825e+003;2.081204e-002
2.624754e+003;2.105606e-002
2.626682e+003;2.089655e-002
2.628611e+003;2.072775e-002
2.630540e+003;2.080849e-002
2.632468e+003;2.099930e-002
2.634396e+003;2.092670e-002
2.636325e+003;2.077325e-002
2.638254e+003;2.072247e-002
2.640182e+003;2.083109e-002
2.642111e+003;2.092391e-002
2.644039e+003;2.102597e-002
2.645968e+003;2.111627e-002
2.647896e+003;2.127206e-002
2.649825e+003;2.124617e-002
2.651753e+003;2.116347e-002
2.653682e+003;2.119729e-002
2.655611e+003;2.125703e-002
2.657539e+003;2.113011e-002
2.659468e+003;2.111018e-002
2.661396e+003;2.129677e-002
2.663325e+003;2.148208e-002
2.665253e+003;2.159037e-002
2.667182e+003;2.150151e-002
2.669110e+003;2.134671e-002
2.671039e+003;2.164354e-002
2.672968e+003;2.180071e-002
2.674896e+003;2.176643e-002
2.676825e+003;2.188921e-002
2.678753e+003;2.189639e-002
2.680682e+003;2.182148e-002
2.682610e+003;2.183897e-002
2.684539e+003;2.191922e-002
2.686467e+003;2.201485e-002
2.688396e+003;2.228048e-002
2.690324e+003;2.249499e-002
2.692253e+003;2.239674e-002
2.694182e+003;2.234281e-002
2.696110e+003;2.251028e-002
2.698039e+003;2.252745e-002
2.699967e+003;2.255956e-002
2.701896e+003;2.300655e-002
2.703824e+003;2.342082e-002
2.705753e+003;2.330344e-002
2.707681e+003;2.326900e-002
2.709610e+003;2.329907e-002
2.711539e+003;2.327163e-002
2.713467e+003;2.345817e-002
2.715396e+003;2.351766e-002
2.717324e+003;2.345519e-002
2.719253e+003;2.368524e-002
2.721181e+003;2.402611e-002
2.723110e+003;2.419806e-002
2.725038e+003;2.415696e-002
2.726967e+003;2.423043e-002
2.728896e+003;2.445748e-002
2.730824e+003;2.479679e-002
2.732752e+003;2.497504e-002
2.734681e+003;2.526653e-002
2.736610e+003;2.543289e-002
2.738538e+003;2.539867e-002
2.740467e+003;2.559055e-002
2.742395e+003;2.584423e-002
2.744324e+003;2.580615e-002
2.746252e+003;2.564728e-002
2.748181e+003;2.593124e-002
2.750109e+003;2.622187e-002
2.752038e+003;2.611049e-002
2.753967e+003;2.626759e-002
2.755895e+003;2.648867e-002
2.757824e+003;2.675478e-002
2.759752e+003;2.705908e-002
2.761681e+003;2.710870e-002
2.763609e+003;2.713078e-002
2.765538e+003;2.727816e-002
2.767466e+003;2.730286e-002
2.769395e+003;2.740897e-002
2.771323e+003;2.757632e-002
2.773252e+003;2.784738e-002
2.775181e+003;2.803569e-002
2.777109e+003;2.800087e-002
2.779038e+003;2.828390e-002
2.780966e+003;2.863574e-002
2.782895e+003;2.897904e-002
2.784823e+003;2.922142e-002
2.786752e+003;2.935785e-002
2.788680e+003;2.953589e-002
2.790609e+003;2.950851e-002
2.792538e+003;2.958948e-002
2.794466e+003;2.989612e-002
2.796395e+003;3.031463e-002
2.798323e+003;3.049260e-002
2.800252e+003;3.056092e-002
2.802180e+003;3.053366e-002
2.804109e+003;3.072882e-002
2.806037e+003;3.111140e-002
2.807966e+003;3.125829e-002
2.809895e+003;3.132527e-002
2.811823e+003;3.146133e-002
2.813751e+003;3.169986e-002
2.815680e+003;3.193107e-002
2.817609e+003;3.218541e-002
2.819537e+003;3.240602e-002
2.821466e+003;3.271116e-002
2.823394e+003;3.304390e-002
2.825323e+003;3.329446e-002
2.827251e+003;3.353514e-002
2.829180e+003;3.346406e-002
2.831108e+003;3.347161e-002
2.833037e+003;3.397997e-002
2.834966e+003;3.461521e-002
2.836894e+003;3.533522e-002
2.838823e+003;3.579992e-002
2.840751e+003;3.626469e-002
2.842680e+003;3.720376e-002
2.844608e+003;3.831272e-002
2.846537e+003;3.951291e-002
2.848465e+003;4.094965e-002
2.850394e+003;4.211883e-002
2.852323e+003;4.308932e-002
2.854251e+003;4.387115e-002
2.856180e+003;4.426688e-002
2.858108e+003;4.438379e-002
2.860037e+003;4.432959e-002
2.861965e+003;4.397662e-002
2.863894e+003;4.359723e-002
2.865822e+003;4.383680e-002
2.867751e+003;4.394821e-002
2.869679e+003;4.374874e-002
2.871608e+003;4.423863e-002
2.873536e+003;4.490443e-002
2.875465e+003;4.491821e-002
2.877394e+003;4.486056e-002
2.879322e+003;4.509046e-002
2.881251e+003;4.539291e-002
2.883179e+003;4.564654e-002
2.885108e+003;4.606744e-002
2.887036e+003;4.639074e-002
2.888965e+003;4.632135e-002
2.890893e+003;4.648952e-002
2.892822e+003;4.706346e-002
2.894750e+003;4.778335e-002
2.896679e+003;4.848131e-002
2.898608e+003;4.906041e-002
2.900536e+003;4.953287e-002
2.902465e+003;4.964281e-002
2.904393e+003;5.043178e-002
2.906322e+003;5.162273e-002
2.908250e+003;5.235568e-002
2.910179e+003;5.308571e-002
2.912107e+003;5.428288e-002
2.914036e+003;5.551729e-002
2.915965e+003;5.670519e-002
2.917893e+003;5.824823e-002
2.919822e+003;5.991441e-002
2.921750e+003;6.134744e-002
2.923679e+003;6.250370e-002
2.925607e+003;6.350777e-002
2.927536e+003;6.404044e-002
2.929464e+003;6.464341e-002
2.931393e+003;6.499366e-002
2.933322e+003;6.481440e-002
2.935250e+003;6.477779e-002
2.937178e+003;6.462108e-002
2.939107e+003;6.401081e-002
2.941036e+003;6.341385e-002
2.942964e+003;6.303473e-002
2.944893e+003;6.237431e-002
2.946821e+003;6.149484e-002
2.948750e+003;6.099306e-002
2.950678e+003;6.077563e-002
2.952607e+003;6.033000e-002
2.954535e+003;5.978211e-002
2.956464e+003;5.921645e-002
2.958393e+003;5.872306e-002
2.960321e+003;5.862642e-002
2.962250e+003;5.830750e-002
2.964178e+003;5.739008e-002
2.966107e+003;5.685031e-002
2.968035e+003;5.661183e-002
2.969964e+003;5.619635e-002
2.971892e+003;5.601455e-002
2.973821e+003;5.582630e-002
2.975750e+003;5.534066e-002
2.977678e+003;5.506366e-002
2.979607e+003;5.493400e-002
2.981535e+003;5.464854e-002
2.983464e+003;5.443317e-002
2.985392e+003;5.432494e-002
2.987321e+003;5.378487e-002
2.989249e+003;5.318153e-002
2.991178e+003;5.293218e-002
2.993106e+003;5.248779e-002
2.995035e+003;5.193066e-002
2.996964e+003;5.170879e-002
2.998892e+003;5.157646e-002
3.000821e+003;5.105112e-002
3.002749e+003;5.061342e-002
3.004678e+003;5.014737e-002
3.006606e+003;4.989968e-002
3.008535e+003;4.994864e-002
3.010463e+003;5.007285e-002
3.012392e+003;5.009735e-002
3.014321e+003;5.020063e-002
3.016249e+003;5.040547e-002
3.018177e+003;5.070721e-002
3.020106e+003;5.097477e-002
3.022035e+003;5.087816e-002
3.023963e+003;5.075879e-002
3.025892e+003;5.124626e-002
3.027820e+003;5.161067e-002
3.029749e+003;5.181954e-002
3.031677e+003;5.232118e-002
3.033606e+003;5.266862e-002
3.035534e+003;5.306923e-002
3.037463e+003;5.339243e-002
3.039392e+003;5.351156e-002
3.041320e+003;5.384333e-002
3.043249e+003;5.441150e-002
3.045177e+003;5.509537e-002
3.047106e+003;5.543371e-002
3.049034e+003;5.579853e-002
3.050963e+003;5.618636e-002
3.052891e+003;5.635228e-002
3.054820e+003;5.667562e-002
3.056749e+003;5.706616e-002
3.058677e+003;5.749919e-002
3.060606e+003;5.798130e-002
3.062534e+003;5.862783e-002
3.064463e+003;5.878201e-002
3.066391e+003;5.878964e-002
3.068320e+003;5.897876e-002
3.070248e+003;5.930205e-002
3.072177e+003;5.952666e-002
3.074105e+003;5.955064e-002
3.076034e+003;5.954334e-002
3.077963e+003;5.963688e-002
3.079891e+003;5.932408e-002
3.081820e+003;5.893219e-002
3.083748e+003;5.904044e-002
3.085677e+003;5.933578e-002
3.087605e+003;5.916804e-002
3.089534e+003;5.908580e-002
3.091462e+003;5.881126e-002
3.093391e+003;5.831830e-002
3.095320e+003;5.824846e-002
3.097248e+003;5.815337e-002
3.099177e+003;5.798350e-002
3.101105e+003;5.779701e-002
3.103034e+003;5.749927e-002
3.104962e+003;5.719697e-002
3.106891e+003;5.672742e-002
3.108819e+003;5.657019e-002
3.110748e+003;5.642781e-002
3.112677e+003;5.613093e-002
3.114605e+003;5.588757e-002
3.116533e+003;5.582227e-002
3.118462e+003;5.576673e-002
3.120391e+003;5.565930e-002
3.122319e+003;5.559219e-002
3.124248e+003;5.541730e-002
3.126176e+003;5.525817e-002
3.128105e+003;5.517836e-002
3.130033e+003;5.513303e-002
3.131962e+003;5.532354e-002
3.133890e+003;5.531059e-002
3.135819e+003;5.536468e-002
3.137748e+003;5.557065e-002
3.139676e+003;5.588836e-002
3.141605e+003;5.609224e-002
3.143533e+003;5.606902e-002
3.145462e+003;5.618538e-002
3.147390e+003;5.632406e-002
3.149319e+003;5.671289e-002
3.151247e+003;5.740566e-002
3.153176e+003;5.814621e-002
3.155104e+003;5.866158e-002
3.157033e+003;5.914111e-002
3.158962e+003;5.928827e-002
3.160890e+003;5.959822e-002
3.162819e+003;6.028583e-002
3.164747e+003;6.115698e-002
3.166676e+003;6.172330e-002
3.168604e+003;6.202093e-002
3.170533e+003;6.260747e-002
3.172461e+003;6.332441e-002
3.174390e+003;6.407816e-002
3.176319e+003;6.459797e-002
3.178247e+003;6.500059e-002
3.180176e+003;6.588873e-002
3.182104e+003;6.682754e-002
3.184033e+003;6.780561e-002
3.185961e+003;6.857789e-002
3.187890e+003;6.929088e-002
3.189818e+003;7.010362e-002
3.191747e+003;7.087521e-002
3.193676e+003;7.155232e-002
3.195604e+003;7.203751e-002
3.197532e+003;7.305641e-002
3.199461e+003;7.404932e-002
3.201390e+003;7.440213e-002
3.203318e+003;7.482941e-002
3.205247e+003;7.538611e-002
3.207175e+003;7.599340e-002
3.209104e+003;7.658428e-002
3.211032e+003;7.718926e-002
3.212961e+003;7.811036e-002
3.214889e+003;7.891039e-002
3.216818e+003;7.958149e-002
3.218747e+003;8.012200e-002
3.220675e+003;8.078764e-002
3.222604e+003;8.171261e-002
3.224532e+003;8.215109e-002
3.226461e+003;8.236255e-002
3.228389e+003;8.306035e-002
3.230318e+003;8.400773e-002
3.232246e+003;8.459552e-002
3.234175e+003;8.502913e-002
3.236104e+003;8.570217e-002
3.238032e+003;8.659413e-002
3.239961e+003;8.731429e-002
3.241889e+003;8.763795e-002
3.243818e+003;8.821062e-002
3.245746e+003;8.895994e-002
3.247675e+003;8.928804e-002
3.249603e+003;8.970286e-002
3.251532e+003;9.008431e-002
3.253460e+003;9.077468e-002
3.255389e+003;9.184829e-002
3.257318e+003;9.252556e-002
3.259246e+003;9.290495e-002
3.261175e+003;9.323883e-002
3.263103e+003;9.391819e-002
3.265032e+003;9.478330e-002
3.266960e+003;9.558494e-002
3.268889e+003;9.653597e-002
3.270817e+003;9.708831e-002
3.272746e+003;9.759759e-002
3.274675e+003;9.842414e-002
3.276603e+003;9.892883e-002
3.278531e+003;9.920101e-002
3.280460e+003;9.936767e-002
3.282389e+003;9.975897e-002
3.284317e+003;9.993201e-002
3.286246e+003;9.968776e-002
3.288174e+003;9.944511e-002
3.290103e+003;9.963233e-002
3.292031e+003;9.962541e-002
3.293960e+003;9.940995e-002
3.295888e+003;9.995800e-002
3.297817e+003;1.001920e-001
3.299746e+003;9.955265e-002
3.301674e+003;9.913444e-002
3.303603e+003;9.907037e-002
3.305531e+003;9.874932e-002
3.307460e+003;9.822597e-002
3.309388e+003;9.782340e-002
3.311317e+003;9.755428e-002
3.313245e+003;9.697794e-002
3.315174e+003;9.625226e-002
3.317103e+003;9.581619e-002
3.319031e+003;9.554517e-002
3.320960e+003;9.491913e-002
3.322888e+003;9.413872e-002
3.324817e+003;9.349929e-002
3.326745e+003;9.286039e-002
3.328674e+003;9.210226e-002
3.330602e+003;9.140087e-002
3.332531e+003;9.084129e-002
3.334459e+003;9.016501e-002
3.336388e+003;8.971199e-002
3.338317e+003;8.915258e-002
3.340245e+003;8.813122e-002
3.342174e+003;8.713077e-002
3.344102e+003;8.653723e-002
3.346031e+003;8.613609e-002
3.347959e+003;8.533983e-002
3.349888e+003;8.447613e-002
3.351816e+003;8.416025e-002
3.353745e+003;8.390268e-002
3.355674e+003;8.338214e-002
3.357602e+003;8.246145e-002
3.359531e+003;8.164047e-002
3.361459e+003;8.088163e-002
3.363388e+003;8.038080e-002
3.365316e+003;7.974382e-002
3.367245e+003;7.902440e-002
3.369173e+003;7.837372e-002
3.371102e+003;7.790840e-002
3.373031e+003;7.748101e-002
3.374959e+003;7.673121e-002
3.376887e+003;7.581796e-002
3.378816e+003;7.507481e-002
3.380745e+003;7.457634e-002
3.382673e+003;7.412431e-002
3.384602e+003;7.353923e-002
3.386530e+003;7.285345e-002
3.388459e+003;7.229839e-002
3.390387e+003;7.187210e-002
3.392316e+003;7.144185e-002
3.394244e+003;7.081592e-002
3.396173e+003;7.013902e-002
3.398102e+003;6.962685e-002
3.400030e+003;6.873868e-002
3.401959e+003;6.771568e-002
3.403887e+003;6.710457e-002
3.405816e+003;6.650838e-002
3.407744e+003;6.593656e-002
3.409673e+003;6.509808e-002
3.411601e+003;6.435566e-002
3.413530e+003;6.418631e-002
3.415458e+003;6.357738e-002
3.417387e+003;6.256182e-002
3.419316e+003;6.145064e-002
3.421244e+003;6.063125e-002
3.423173e+003;6.014999e-002
3.425101e+003;5.949375e-002
3.427030e+003;5.854516e-002
3.428958e+003;5.754440e-002
3.430887e+003;5.701527e-002
3.432815e+003;5.642453e-002
3.434744e+003;5.565019e-002
3.436673e+003;5.494640e-002
3.438601e+003;5.439474e-002
3.440530e+003;5.370732e-002
3.442458e+003;5.285468e-002
3.444387e+003;5.240117e-002
3.446315e+003;5.211924e-002
3.448244e+003;5.133396e-002
3.450172e+003;5.042091e-002
3.452101e+003;4.976374e-002
3.454030e+003;4.917806e-002
3.455958e+003;4.904290e-002
3.457886e+003;4.899465e-002
3.459815e+003;4.869172e-002
3.461744e+003;4.820277e-002
3.463672e+003;4.734626e-002
3.465601e+003;4.657553e-002
3.467529e+003;4.630993e-002
3.469458e+003;4.639247e-002
3.471386e+003;4.624926e-002
3.473315e+003;4.600249e-002
3.475243e+003;4.595877e-002
3.477172e+003;4.542653e-002
3.479101e+003;4.463129e-002
3.481029e+003;4.453469e-002
3.482958e+003;4.455631e-002
3.484886e+003;4.411880e-002
3.486815e+003;4.351939e-002
3.488743e+003;4.288413e-002
3.490672e+003;4.208181e-002
3.492600e+003;4.204607e-002
3.494529e+003;4.240683e-002
3.496458e+003;4.219149e-002
3.498386e+003;4.189235e-002
3.500315e+003;4.144216e-002
3.502243e+003;4.084513e-002
3.504172e+003;4.048087e-002
3.506100e+003;4.041053e-002
3.508029e+003;4.046319e-002
3.509957e+003;4.015503e-002
3.511886e+003;3.956568e-002
3.513814e+003;3.924220e-002
3.515743e+003;3.887939e-002
3.517672e+003;3.860357e-002
3.519600e+003;3.824451e-002
3.521529e+003;3.767986e-002
3.523457e+003;3.754061e-002
3.525386e+003;3.733203e-002
3.527314e+003;3.689069e-002
3.529243e+003;3.664955e-002
3.531171e+003;3.630654e-002
3.533100e+003;3.614904e-002
3.535029e+003;3.588456e-002
3.536957e+003;3.539439e-002
3.538885e+003;3.472391e-002
3.540814e+003;3.385708e-002
3.542743e+003;3.334197e-002
3.544671e+003;3.321880e-002
3.546600e+003;3.262821e-002
3.548528e+003;3.199002e-002
3.550457e+003;3.180145e-002
3.552385e+003;3.144017e-002
3.554314e+003;3.115326e-002
3.556242e+003;3.090411e-002
3.558171e+003;3.042369e-002
3.560100e+003;2.999676e-002
3.562028e+003;2.977066e-002
3.563957e+003;2.969970e-002
3.565885e+003;2.914275e-002
3.567814e+003;2.852703e-002
3.569742e+003;2.828539e-002
3.571671e+003;2.819169e-002
3.573599e+003;2.792575e-002
3.575528e+003;2.748333e-002
3.577457e+003;2.716788e-002
3.579385e+003;2.669421e-002
3.581314e+003;2.605795e-002
3.583242e+003;2.582746e-002
3.585171e+003;2.576656e-002
3.587099e+003;2.541486e-002
3.589028e+003;2.503477e-002
3.590956e+003;2.449576e-002
3.592885e+003;2.388995e-002
3.594813e+003;2.359364e-002
3.596742e+003;2.328260e-002
3.598671e+003;2.320601e-002
3.600599e+003;2.333399e-002
3.602528e+003;2.320465e-002
3.604456e+003;2.280742e-002
3.606385e+003;2.204560e-002
3.608313e+003;2.127178e-002
3.610242e+003;2.091891e-002
3.612170e+003;2.073338e-002
3.614099e+003;2.027945e-002
3.616028e+003;1.971468e-002
3.617956e+003;1.944619e-002
3.619885e+003;1.956582e-002
3.621813e+003;1.928793e-002
3.623742e+003;1.908728e-002
3.625670e+003;1.863818e-002
3.627599e+003;1.769046e-002
3.629527e+003;1.717837e-002
3.631456e+003;1.730934e-002
3.633385e+003;1.708989e-002
3.635313e+003;1.669081e-002
3.637241e+003;1.621718e-002
3.639170e+003;1.564601e-002
3.641099e+003;1.528374e-002
3.643027e+003;1.498573e-002
3.644956e+003;1.492891e-002
3.646884e+003;1.504837e-002
3.648813e+003;1.476423e-002
3.650741e+003;1.415259e-002
3.652670e+003;1.402377e-002
3.654598e+003;1.399950e-002
3.656527e+003;1.367475e-002
3.658456e+003;1.328460e-002
3.660384e+003;1.310309e-002
3.662313e+003;1.289401e-002
3.664241e+003;1.247524e-002
3.666170e+003;1.218542e-002
3.668098e+003;1.205990e-002
3.670027e+003;1.175643e-002
3.671955e+003;1.161848e-002
3.673884e+003;1.144719e-002
3.675813e+003;1.143093e-002
3.677741e+003;1.152051e-002
3.679669e+003;1.129002e-002
3.681598e+003;1.102794e-002
3.683527e+003;1.075033e-002
3.685455e+003;1.067266e-002
3.687384e+003;1.058343e-002
3.689312e+003;1.068458e-002
3.691241e+003;1.091468e-002
3.693169e+003;1.037807e-002
3.695098e+003;1.000660e-002
3.697026e+003;1.008063e-002
3.698955e+003;1.002610e-002
3.700884e+003;1.005007e-002
3.702812e+003;9.942219e-003
3.704741e+003;9.702229e-003
3.706669e+003;9.537524e-003
3.708598e+003;9.614110e-003
3.710526e+003;9.774371e-003
3.712455e+003;9.685661e-003
3.714383e+003;9.676954e-003
3.716312e+003;9.437484e-003
3.718240e+003;9.352770e-003
3.720169e+003;9.667704e-003
3.722098e+003;9.830087e-003
3.724026e+003;9.444053e-003
3.725955e+003;8.970001e-003
3.727883e+003;8.864815e-003
3.729812e+003;8.924846e-003
3.731740e+003;8.823865e-003
3.733669e+003;9.006702e-003
3.735597e+003;9.445848e-003
3.737526e+003;9.440362e-003
3.739455e+003;8.909321e-003
3.741383e+003;8.478320e-003
3.743312e+003;8.273348e-003
3.745240e+003;8.249371e-003
3.747169e+003;8.621940e-003
3.749097e+003;8.846656e-003
3.751026e+003;8.679841e-003
3.752954e+003;8.423015e-003
3.754883e+003;8.678658e-003
3.756812e+003;8.773823e-003
3.758740e+003;8.330763e-003
3.760668e+003;8.441595e-003
3.762597e+003;8.736667e-003
3.764526e+003;8.586385e-003
3.766454e+003;8.659965e-003
3.768383e+003;8.923695e-003
3.770311e+003;8.941250e-003
3.772240e+003;8.542419e-003
3.774168e+003;8.528160e-003
3.776097e+003;8.603858e-003
3.778025e+003;8.658680e-003
3.779954e+003;8.693903e-003
3.781883e+003;8.490045e-003
3.783811e+003;8.316712e-003
3.785740e+003;8.441156e-003
3.787668e+003;8.696641e-003
3.789597e+003;8.845642e-003
3.791525e+003;8.670917e-003
3.793454e+003;8.194600e-003
3.795382e+003;8.030296e-003
3.797311e+003;8.268282e-003
3.799240e+003;8.430920e-003
3.801168e+003;8.227320e-003
3.803097e+003;8.133355e-003
3.805025e+003;8.528497e-003
3.806954e+003;8.897281e-003
3.808882e+003;8.695965e-003
3.810811e+003;8.253559e-003
3.812739e+003;8.156448e-003
3.814668e+003;8.056657e-003
3.816596e+003;8.335930e-003
3.818525e+003;8.625860e-003
3.820454e+003;8.676562e-003
3.822382e+003;8.643268e-003
3.824311e+003;8.447542e-003
3.826239e+003;8.548232e-003
3.828168e+003;8.769698e-003
3.830096e+003;8.833028e-003
3.832025e+003;8.720946e-003
3.833953e+003;8.696979e-003
3.835882e+003;8.208849e-003
3.837811e+003;7.538600e-003
3.839739e+003;7.680256e-003
3.841667e+003;8.144428e-003
3.843596e+003;8.162795e-003
3.845525e+003;8.096457e-003
3.847453e+003;7.998334e-003
3.849382e+003;7.956756e-003
3.851310e+003;7.788865e-003
3.853239e+003;7.692161e-003
3.855167e+003;7.798547e-003
3.857096e+003;8.048725e-003
3.859024e+003;7.968197e-003
3.860953e+003;8.067257e-003
3.862882e+003;8.621602e-003
3.864810e+003;8.314382e-003
3.866739e+003;8.084979e-003
3.868667e+003;8.591658e-003
3.870596e+003;8.937461e-003
3.872524e+003;8.836275e-003
3.874453e+003;8.406495e-003
3.876381e+003;8.706242e-003
3.878310e+003;8.750360e-003
3.880239e+003;8.406866e-003
3.882167e+003;8.138993e-003
3.884096e+003;7.999954e-003
3.886024e+003;7.854718e-003
3.887953e+003;8.110770e-003
3.889881e+003;8.507885e-003
3.891810e+003;8.620217e-003
3.893738e+003;8.373830e-003
3.895667e+003;8.107428e-003
3.897595e+003;8.073333e-003
3.899524e+003;8.348023e-003
3.901453e+003;8.453825e-003
3.903381e+003;8.519307e-003
3.905310e+003;8.833130e-003
3.907238e+003;8.694038e-003
3.909167e+003;8.270072e-003
3.911095e+003;8.330932e-003
3.913024e+003;8.530998e-003
3.914952e+003;8.452271e-003
3.916881e+003;8.568542e-003
3.918810e+003;8.957248e-003
3.920738e+003;9.102887e-003
3.922667e+003;9.004673e-003
3.924595e+003;8.623901e-003
3.926524e+003;8.282264e-003
3.928452e+003;8.616262e-003
3.930381e+003;8.955117e-003
3.932309e+003;8.665779e-003
3.934238e+003;8.395313e-003
3.936167e+003;8.573848e-003
3.938095e+003;8.434129e-003
3.940023e+003;8.214792e-003
3.941952e+003;8.436967e-003
3.943881e+003;8.766959e-003
3.945809e+003;9.073215e-003
3.947738e+003;9.102346e-003
3.949666e+003;9.131615e-003
3.951595e+003;8.939457e-003
3.953523e+003;8.272402e-003
3.955452e+003;7.971639e-003
3.957380e+003;7.859779e-003
3.959309e+003;8.147804e-003
3.961238e+003;8.637048e-003
3.963166e+003;8.651075e-003
3.965095e+003;8.789578e-003
3.967023e+003;8.820179e-003
3.968952e+003;8.402069e-003
3.970880e+003;8.381801e-003
3.972809e+003;9.026730e-003
3.974737e+003;9.187926e-003
3.976666e+003;8.665001e-003
3.978594e+003;8.144665e-003
3.980523e+003;8.490856e-003
3.982452e+003;9.117099e-003
3.984380e+003;8.719392e-003
3.986309e+003;8.363256e-003
3.988237e+003;8.403455e-003
3.990166e+003;8.492072e-003
3.992094e+003;8.542757e-003
3.994023e+003;8.178866e-003
3.995951e+003;7.792744e-003
3.997880e+003;7.964146e-003
3.999809e+003;8.049367e-003
4.001737e+003;0.000000e+000
