3.992094e+002;0.000000e+000
4.011380e+002;0.000000e+000
4.030665e+002;0.000000e+000
4.049951e+002;0.000000e+000
4.069236e+002;0.000000e+000
4.088522e+002;0.000000e+000
4.107807e+002;0.000000e+000
4.127093e+002;0.000000e+000
4.146378e+002;0.000000e+000
4.165664e+002;0.000000e+000
4.184949e+002;0.000000e+000
4.204235e+002;0.000000e+000
4.223520e+002;0.000000e+000
4.242806e+002;0.000000e+000
4.262091e+002;0.000000e+000
4.281377e+002;0.000000e+000
4.300662e+002;0.000000e+000
4.319948e+002;0.000000e+000
4.339233e+002;0.000000e+000
4.358519e+002;0.000000e+000
4.377804e+002;0.000000e+000
4.397090e+002;0.000000e+000
4.416375e+002;0.000000e+000
4.435660e+002;0.000000e+000
4.454946e+002;0.000000e+000
4.474232e+002;0.000000e+000
4.493517e+002;0.000000e+000
4.512802e+002;0.000000e+000
4.532088e+002;0.000000e+000
4.551373e+002;0.000000e+000
4.570659e+002;0.000000e+000
4.589944e+002;0.000000e+000
4.609230e+002;0.000000e+000
4.628515e+002;0.000000e+000
4.647801e+002;0.000000e+000
4.667086e+002;0.000000e+000
4.686372e+002;0.000000e+000
4.705657e+002;0.000000e+000
4.724943e+002;0.000000e+000
4.744228e+002;0.000000e+000
4.763513e+002;0.000000e+000
4.782799e+002;0.000000e+000
4.802085e+002;0.000000e+000
4.821370e+002;0.000000e+000
4.840656e+002;0.000000e+000
4.859941e+002;0.000000e+000
4.879226e+002;0.000000e+000
4.898512e+002;0.000000e+000
4.917798e+002;0.000000e+000
4.937083e+002;0.000000e+000
4.956368e+002;0.000000e+000
4.975654e+002;0.000000e+000
4.994939e+002;0.000000e+000
5.014225e+002;0.000000e+000
5.033510e+002;0.000000e+000
5.052796e+002;0.000000e+000
5.072081e+002;0.000000e+000
5.091367e+002;0.000000e+000
5.110652e+002;0.000000e+000
5.129938e+002;0.000000e+000
5.149223e+002;0.000000e+000
5.168509e+002;0.000000e+000
5.187794e+002;0.000000e+000
5.207079e+002;0.000000e+000
5.226365e+002;0.000000e+000
5.245651e+002;0.000000e+000
5.264936e+002;0.000000e+000
5.284222e+002;0.000000e+000
5.303507e+002;0.000000e+000
5.322792e+002;0.000000e+000
5.342078e+002;0.000000e+000
5.361364e+002;0.000000e+000
5.380649e+002;0.000000e+000
5.399935e+002;0.000000e+000
5.419220e+002;0.000000e+000
5.438505e+002;0.000000e+000
5.457791e+002;0.000000e+000
5.477076e+002;0.000000e+000
5.496362e+002;0.000000e+000
5.515648e+002;0.000000e+000
5.534933e+002;0.000000e+000
5.554218e+002;0.000000e+000
5.573504e+002;0.000000e+000
5.592789e+002;0.000000e+000
5.612075e+002;0.000000e+000
5.631360e+002;0.000000e+000
5.650646e+002;0.000000e+000
5.669931e+002;0.000000e+000
5.689217e+002;0.000000e+000
5.708502e+002;0.000000e+000
5.727787e+002;0.000000e+000
5.747073e+002;0.000000e+000
5.766359e+002;0.000000e+000
5.785644e+002;0.000000e+000
5.804930e+002;0.000000e+000
5.824215e+002;0.000000e+000
5.843500e+002;0.000000e+000
5.862786e+002;0.000000e+000
5.882072e+002;0.000000e+000
5.901357e+002;0.000000e+000
5.920643e+002;0.000000e+000
5.939928e+002;0.000000e+000
5.959213e+002;0.000000e+000
5.978499e+002;0.000000e+000
5.997784e+002;2.847137e-001
6.017070e+002;2.773143e-001
6.036355e+002;2.824386e-001
6.055641e+002;2.925002e-001
6.074926e+002;2.991743e-001
6.094211e+002;2.981510e-001
6.113497e+002;2.952794e-001
6.132783e+002;2.928815e-001
6.152068e+002;2.939546e-001
6.171354e+002;2.951492e-001
6.190639e+002;2.940665e-001
6.209924e+002;2.935740e-001
6.229210e+002;2.976259e-001
6.248495e+002;3.021691e-001
6.267781e+002;2.978853e-001
6.287067e+002;2.905831e-001
6.306352e+002;2.861152e-001
6.325637e+002;2.796113e-001
6.344923e+002;2.798366e-001
6.364208e+002;2.863823e-001
6.383494e+002;2.835003e-001
6.402780e+002;2.788897e-001
6.422065e+002;2.774537e-001
6.441350e+002;2.810682e-001
6.460636e+002;2.846149e-001
6.479921e+002;2.783045e-001
6.499207e+002;2.729576e-001
6.518492e+002;2.742825e-001
6.537778e+002;2.742333e-001
6.557063e+002;2.711059e-001
6.576349e+002;2.685709e-001
6.595634e+002;2.680127e-001
6.614919e+002;2.705179e-001
6.634205e+002;2.714796e-001
6.653491e+002;2.701623e-001
6.672776e+002;2.682615e-001
6.692062e+002;2.688865e-001
6.711347e+002;2.714498e-001
6.730632e+002;2.724814e-001
6.749918e+002;2.737145e-001
6.769203e+002;2.731392e-001
6.788489e+002;2.712744e-001
6.807775e+002;2.704451e-001
6.827060e+002;2.696157e-001
6.846345e+002;2.683098e-001
6.865631e+002;2.681128e-001
6.884916e+002;2.690427e-001
6.904202e+002;2.678041e-001
6.923488e+002;2.656853e-001
6.942773e+002;2.640782e-001
6.962058e+002;2.632681e-001
6.981344e+002;2.622114e-001
7.000629e+002;2.595885e-001
7.019915e+002;2.560054e-001
7.039200e+002;2.527603e-001
7.058486e+002;2.506044e-001
7.077771e+002;2.480947e-001
7.097057e+002;2.447271e-001
7.116342e+002;2.417481e-001
7.135627e+002;2.396973e-001
7.154913e+002;2.372279e-001
7.174199e+002;2.349709e-001
7.193484e+002;2.329854e-001
7.212770e+002;2.303997e-001
7.232055e+002;2.267386e-001
7.251340e+002;2.228226e-001
7.270626e+002;2.192625e-001
7.289911e+002;2.157911e-001
7.309197e+002;2.127281e-001
7.328483e+002;2.096904e-001
7.347768e+002;2.066269e-001
7.367053e+002;2.035714e-001
7.386339e+002;2.007701e-001
7.405624e+002;1.973968e-001
7.424910e+002;1.942121e-001
7.444196e+002;1.911063e-001
7.463481e+002;1.869516e-001
7.482766e+002;1.831700e-001
7.502052e+002;1.818754e-001
7.521337e+002;1.804867e-001
7.540623e+002;1.782003e-001
7.559908e+002;1.762795e-001
7.579194e+002;1.741112e-001
7.598479e+002;1.715331e-001
7.617765e+002;1.700665e-001
7.637050e+002;1.694652e-001
7.656335e+002;1.688237e-001
7.675621e+002;1.677105e-001
7.694907e+002;1.652152e-001
7.714192e+002;1.626816e-001
7.733478e+002;1.606889e-001
7.752763e+002;1.580624e-001
7.772048e+002;1.557683e-001
7.791334e+002;1.543328e-001
7.810620e+002;1.530551e-001
7.829905e+002;1.512211e-001
7.849191e+002;1.496205e-001
7.868476e+002;1.481468e-001
7.887761e+002;1.462898e-001
7.907047e+002;1.450894e-001
7.926332e+002;1.441965e-001
7.945618e+002;1.428672e-001
7.964903e+002;1.423974e-001
7.984189e+002;1.422995e-001
8.003474e+002;1.417553e-001
8.022759e+002;1.412614e-001
8.042045e+002;1.404747e-001
8.061331e+002;1.400996e-001
8.080616e+002;1.400268e-001
8.099902e+002;1.402364e-001
8.119187e+002;1.403168e-001
8.138472e+002;1.401841e-001
8.157758e+002;1.405273e-001
8.177043e+002;1.407288e-001
8.196329e+002;1.401366e-001
8.215615e+002;1.401941e-001
8.234900e+002;1.417150e-001
8.254185e+002;1.427786e-001
8.273471e+002;1.432248e-001
8.292756e+002;1.428977e-001
8.312042e+002;1.413393e-001
8.331328e+002;1.393475e-001
8.350613e+002;1.372298e-001
8.369898e+002;1.354685e-001
8.389184e+002;1.345144e-001
8.408469e+002;1.336425e-001
8.427755e+002;1.333200e-001
8.447040e+002;1.343428e-001
8.466326e+002;1.348347e-001
8.485611e+002;1.340166e-001
8.504897e+002;1.338282e-001
8.524182e+002;1.341152e-001
8.543467e+002;1.331954e-001
8.562753e+002;1.306738e-001
8.582039e+002;1.281338e-001
8.601324e+002;1.262805e-001
8.620610e+002;1.246557e-001
8.639895e+002;1.236638e-001
8.659180e+002;1.229511e-001
8.678466e+002;1.224829e-001
8.697751e+002;1.224414e-001
8.717037e+002;1.232608e-001
8.736323e+002;1.242362e-001
8.755608e+002;1.244492e-001
8.774893e+002;1.241245e-001
8.794179e+002;1.237920e-001
8.813464e+002;1.235637e-001
8.832750e+002;1.236885e-001
8.852036e+002;1.236998e-001
8.871321e+002;1.236803e-001
8.890606e+002;1.238176e-001
8.909892e+002;1.237652e-001
8.929177e+002;1.236656e-001
8.948463e+002;1.235850e-001
8.967748e+002;1.234185e-001
8.987034e+002;1.231930e-001
9.006319e+002;1.230412e-001
9.025605e+002;1.227437e-001
9.044890e+002;1.227496e-001
9.064175e+002;1.229588e-001
9.083461e+002;1.228769e-001
9.102747e+002;1.228953e-001
9.122032e+002;1.238619e-001
9.141318e+002;1.248444e-001
9.160603e+002;1.260363e-001
9.179888e+002;1.274462e-001
9.199174e+002;1.288891e-001
9.218459e+002;1.302087e-001
9.237745e+002;1.314716e-001
9.257031e+002;1.328312e-001
9.276316e+002;1.338489e-001
9.295601e+002;1.340618e-001
9.314887e+002;1.339533e-001
9.334172e+002;1.338688e-001
9.353458e+002;1.338924e-001
9.372744e+002;1.339230e-001
9.392029e+002;1.338806e-001
9.411314e+002;1.342053e-001
9.430600e+002;1.349867e-001
9.449885e+002;1.355146e-001
9.469171e+002;1.361505e-001
9.488456e+002;1.373931e-001
9.507742e+002;1.382110e-001
9.527027e+002;1.391256e-001
9.546313e+002;1.403123e-001
9.565598e+002;1.414053e-001
9.584883e+002;1.425282e-001
9.604169e+002;1.440674e-001
9.623455e+002;1.460630e-001
9.642740e+002;1.482137e-001
9.662026e+002;1.501422e-001
9.681311e+002;1.521307e-001
9.700596e+002;1.544775e-001
9.719882e+002;1.564937e-001
9.739167e+002;1.575710e-001
9.758453e+002;1.579706e-001
9.777739e+002;1.576228e-001
9.797024e+002;1.564282e-001
9.816309e+002;1.554057e-001
9.835595e+002;1.546836e-001
9.854880e+002;1.550708e-001
9.874166e+002;1.569318e-001
9.893452e+002;1.593977e-001
9.912737e+002;1.620482e-001
9.932022e+002;1.642304e-001
9.951307e+002;1.656187e-001
9.970593e+002;1.662355e-001
9.989879e+002;1.661732e-001
1.000916e+003;1.658434e-001
1.002845e+003;1.649746e-001
1.004773e+003;1.637086e-001
1.006702e+003;1.633780e-001
1.008631e+003;1.638101e-001
1.010559e+003;1.640197e-001
1.012488e+003;1.643429e-001
1.014416e+003;1.643730e-001
1.016345e+003;1.636523e-001
1.018273e+003;1.630382e-001
1.020202e+003;1.626964e-001
1.022130e+003;1.627641e-001
1.024059e+003;1.633677e-001
1.025988e+003;1.645875e-001
1.027916e+003;1.665198e-001
1.029845e+003;1.691209e-001
1.031773e+003;1.717914e-001
1.033702e+003;1.744427e-001
1.035630e+003;1.768237e-001
1.037559e+003;1.787786e-001
1.039487e+003;1.804332e-001
1.041416e+003;1.821871e-001
1.043344e+003;1.838268e-001
1.045273e+003;1.841427e-001
1.047202e+003;1.846515e-001
1.049130e+003;1.852021e-001
1.051059e+003;1.856051e-001
1.052987e+003;1.869215e-001
1.054916e+003;1.885302e-001
1.056844e+003;1.902074e-001
1.058773e+003;1.918876e-001
1.060701e+003;1.931247e-001
1.062630e+003;1.939868e-001
1.064558e+003;1.944715e-001
1.066487e+003;1.941990e-001
1.068416e+003;1.937094e-001
1.070344e+003;1.929893e-001
1.072273e+003;1.914080e-001
1.074201e+003;1.885516e-001
1.076130e+003;1.848356e-001
1.078058e+003;1.813356e-001
1.079987e+003;1.772221e-001
1.081915e+003;1.729226e-001
1.083844e+003;1.691105e-001
1.085773e+003;1.656729e-001
1.087701e+003;1.624280e-001
1.089630e+003;1.593528e-001
1.091558e+003;1.573925e-001
1.093487e+003;1.562719e-001
1.095415e+003;1.555828e-001
1.097344e+003;1.550364e-001
1.099272e+003;1.548103e-001
1.101201e+003;1.552153e-001
1.103129e+003;1.552466e-001
1.105058e+003;1.541765e-001
1.106987e+003;1.525658e-001
1.108915e+003;1.516337e-001
1.110844e+003;1.512892e-001
1.112772e+003;1.512628e-001
1.114701e+003;1.511523e-001
1.116629e+003;1.510024e-001
1.118558e+003;1.512466e-001
1.120486e+003;1.520543e-001
1.122415e+003;1.526179e-001
1.124344e+003;1.527599e-001
1.126272e+003;1.534931e-001
1.128201e+003;1.543171e-001
1.130129e+003;1.556032e-001
1.132058e+003;1.570721e-001
1.133986e+003;1.588009e-001
1.135915e+003;1.608416e-001
1.137843e+003;1.631441e-001
1.139772e+003;1.648756e-001
1.141700e+003;1.673650e-001
1.143629e+003;1.705274e-001
1.145557e+003;1.729396e-001
1.147486e+003;1.754500e-001
1.149415e+003;1.782282e-001
1.151343e+003;1.805653e-001
1.153272e+003;1.828875e-001
1.155200e+003;1.854307e-001
1.157129e+003;1.874514e-001
1.159057e+003;1.891242e-001
1.160986e+003;1.909096e-001
1.162914e+003;1.922655e-001
1.164843e+003;1.934948e-001
1.166771e+003;1.947614e-001
1.168700e+003;1.957702e-001
1.170629e+003;1.957174e-001
1.172557e+003;1.943541e-001
1.174486e+003;1.928075e-001
1.176414e+003;1.909212e-001
1.178343e+003;1.886663e-001
1.180271e+003;1.872581e-001
1.182200e+003;1.864816e-001
1.184128e+003;1.863613e-001
1.186057e+003;1.871071e-001
1.187986e+003;1.885048e-001
1.189914e+003;1.904228e-001
1.191843e+003;1.928291e-001
1.193771e+003;1.961444e-001
1.195700e+003;1.999484e-001
1.197628e+003;2.037161e-001
1.199557e+003;2.079668e-001
1.201485e+003;2.127640e-001
1.203414e+003;2.185922e-001
1.205343e+003;2.246621e-001
1.207271e+003;2.302262e-001
1.209200e+003;2.356772e-001
1.211128e+003;2.412299e-001
1.213057e+003;2.470474e-001
1.214985e+003;2.523709e-001
1.216914e+003;2.561827e-001
1.218842e+003;2.595763e-001
1.220771e+003;2.631543e-001
1.222699e+003;2.660515e-001
1.224628e+003;2.685588e-001
1.226557e+003;2.708506e-001
1.228485e+003;2.718059e-001
1.230414e+003;2.712815e-001
1.232342e+003;2.694266e-001
1.234271e+003;2.670323e-001
1.236199e+003;2.647080e-001
1.238128e+003;2.620418e-001
1.240056e+003;2.590330e-001
1.241985e+003;2.561399e-001
1.243913e+003;2.535992e-001
1.245842e+003;2.515961e-001
1.247771e+003;2.498554e-001
1.249699e+003;2.482664e-001
1.251628e+003;2.470723e-001
1.253556e+003;2.460651e-001
1.255485e+003;2.455211e-001
1.257413e+003;2.443936e-001
1.259342e+003;2.423879e-001
1.261270e+003;2.399581e-001
1.263199e+003;2.369165e-001
1.265127e+003;2.335689e-001
1.267056e+003;2.295495e-001
1.268985e+003;2.254483e-001
1.270913e+003;2.216137e-001
1.272842e+003;2.178950e-001
1.274770e+003;2.143710e-001
1.276699e+003;2.111481e-001
1.278627e+003;2.079830e-001
1.280556e+003;2.053674e-001
1.282484e+003;2.037030e-001
1.284413e+003;2.023230e-001
1.286342e+003;2.012201e-001
1.288270e+003;2.004249e-001
1.290199e+003;1.997825e-001
1.292127e+003;1.994385e-001
1.294056e+003;1.991686e-001
1.295984e+003;1.992951e-001
1.297913e+003;1.993657e-001
1.299841e+003;1.994703e-001
1.301770e+003;1.995906e-001
1.303698e+003;1.992903e-001
1.305627e+003;1.989451e-001
1.307556e+003;1.988001e-001
1.309484e+003;1.986776e-001
1.311413e+003;1.984939e-001
1.313341e+003;1.981983e-001
1.315270e+003;1.979154e-001
1.317198e+003;1.980329e-001
1.319127e+003;1.984677e-001
1.321055e+003;1.988857e-001
1.322984e+003;1.995474e-001
1.324912e+003;2.005013e-001
1.326841e+003;2.015538e-001
1.328770e+003;2.023547e-001
1.330698e+003;2.029981e-001
1.332627e+003;2.034775e-001
1.334555e+003;2.035112e-001
1.336484e+003;2.034982e-001
1.338412e+003;2.033344e-001
1.340341e+003;2.030276e-001
1.342269e+003;2.026472e-001
1.344198e+003;2.018356e-001
1.346126e+003;2.014324e-001
1.348055e+003;2.014688e-001
1.349984e+003;2.014006e-001
1.351912e+003;2.014705e-001
1.353841e+003;2.021300e-001
1.355769e+003;2.035022e-001
1.357698e+003;2.058073e-001
1.359626e+003;2.087850e-001
1.361555e+003;2.121219e-001
1.363483e+003;2.158322e-001
1.365412e+003;2.194442e-001
1.367341e+003;2.220203e-001
1.369269e+003;2.232013e-001
1.371198e+003;2.228717e-001
1.373126e+003;2.219881e-001
1.375055e+003;2.213654e-001
1.376983e+003;2.212817e-001
1.378912e+003;2.214559e-001
1.380840e+003;2.218502e-001
1.382769e+003;2.222936e-001
1.384698e+003;2.226864e-001
1.386626e+003;2.229858e-001
1.388555e+003;2.235630e-001
1.390483e+003;2.241324e-001
1.392412e+003;2.246233e-001
1.394340e+003;2.253817e-001
1.396269e+003;2.260507e-001
1.398197e+003;2.267947e-001
1.400126e+003;2.279861e-001
1.402054e+003;2.295695e-001
1.403983e+003;2.312017e-001
1.405911e+003;2.323915e-001
1.407840e+003;2.331442e-001
1.409769e+003;2.337512e-001
1.411697e+003;2.343098e-001
1.413626e+003;2.346697e-001
1.415554e+003;2.348696e-001
1.417483e+003;2.353768e-001
1.419411e+003;2.361575e-001
1.421340e+003;2.370393e-001
1.423268e+003;2.388292e-001
1.425197e+003;2.420583e-001
1.427125e+003;2.465971e-001
1.429054e+003;2.525063e-001
1.430983e+003;2.593247e-001
1.432911e+003;2.666703e-001
1.434840e+003;2.739814e-001
1.436768e+003;2.803009e-001
1.438697e+003;2.848648e-001
1.440625e+003;2.876728e-001
1.442554e+003;2.892862e-001
1.444482e+003;2.896664e-001
1.446411e+003;2.881454e-001
1.448340e+003;2.845120e-001
1.450268e+003;2.794667e-001
1.452197e+003;2.735793e-001
1.454125e+003;2.669636e-001
1.456054e+003;2.602352e-001
1.457982e+003;2.545103e-001
1.459911e+003;2.503783e-001
1.461839e+003;2.478060e-001
1.463768e+003;2.465867e-001
1.465697e+003;2.462510e-001
1.467625e+003;2.467441e-001
1.469554e+003;2.479765e-001
1.471482e+003;2.498840e-001
1.473411e+003;2.522679e-001
1.475339e+003;2.555837e-001
1.477268e+003;2.603025e-001
1.479196e+003;2.664447e-001
1.481125e+003;2.738849e-001
1.483053e+003;2.821279e-001
1.484982e+003;2.915999e-001
1.486911e+003;3.020587e-001
1.488839e+003;3.131571e-001
1.490768e+003;3.248108e-001
1.492696e+003;3.363568e-001
1.494625e+003;3.478725e-001
1.496553e+003;3.592274e-001
1.498482e+003;3.704406e-001
1.500410e+003;3.811017e-001
1.502339e+003;3.906720e-001
1.504267e+003;3.995887e-001
1.506196e+003;4.080172e-001
1.508125e+003;4.154702e-001
1.510053e+003;4.218779e-001
1.511982e+003;4.269240e-001
1.513910e+003;4.280832e-001
1.515839e+003;4.240128e-001
1.517767e+003;4.159223e-001
1.519696e+003;4.057193e-001
1.521624e+003;3.952846e-001
1.523553e+003;3.866146e-001
1.525481e+003;3.793998e-001
1.527410e+003;3.723527e-001
1.529339e+003;3.655580e-001
1.531267e+003;3.590949e-001
1.533196e+003;3.525026e-001
1.535124e+003;3.455458e-001
1.537053e+003;3.385016e-001
1.538981e+003;3.314534e-001
1.540910e+003;3.247440e-001
1.542838e+003;3.185007e-001
1.544767e+003;3.123358e-001
1.546695e+003;3.060402e-001
1.548624e+003;2.999544e-001
1.550553e+003;2.939653e-001
1.552481e+003;2.880595e-001
1.554410e+003;2.817465e-001
1.556338e+003;2.751154e-001
1.558267e+003;2.685454e-001
1.560195e+003;2.617894e-001
1.562124e+003;2.551893e-001
1.564052e+003;2.488832e-001
1.565981e+003;2.429868e-001
1.567910e+003;2.375225e-001
1.569838e+003;2.322502e-001
1.571767e+003;2.278236e-001
1.573695e+003;2.246226e-001
1.575624e+003;2.224589e-001
1.577552e+003;2.212759e-001
1.579481e+003;2.209821e-001
1.581409e+003;2.215761e-001
1.583338e+003;2.233616e-001
1.585266e+003;2.263357e-001
1.587195e+003;2.306241e-001
1.589124e+003;2.361284e-001
1.591052e+003;2.425556e-001
1.592981e+003;2.498035e-001
1.594909e+003;2.575680e-001
1.596838e+003;2.662998e-001
1.598766e+003;2.761554e-001
1.600695e+003;2.873492e-001
1.602623e+003;3.007316e-001
1.604552e+003;3.165760e-001
1.606480e+003;3.346363e-001
1.608409e+003;3.537919e-001
1.610338e+003;3.735037e-001
1.612266e+003;3.926570e-001
1.614195e+003;4.101982e-001
1.616123e+003;4.260348e-001
1.618052e+003;4.390550e-001
1.619980e+003;4.480758e-001
1.621909e+003;4.523479e-001
1.623837e+003;4.521691e-001
1.625766e+003;4.482953e-001
1.627694e+003;4.411424e-001
1.629623e+003;4.314612e-001
1.631552e+003;4.203939e-001
1.633480e+003;4.089539e-001
1.635409e+003;3.975809e-001
1.637337e+003;3.864281e-001
1.639266e+003;3.759381e-001
1.641194e+003;3.664294e-001
1.643123e+003;3.572529e-001
1.645051e+003;3.481333e-001
1.646980e+003;3.392878e-001
1.648909e+003;3.308151e-001
1.650837e+003;3.225451e-001
1.652766e+003;3.138395e-001
1.654694e+003;3.049587e-001
1.656623e+003;2.960893e-001
1.658551e+003;2.869146e-001
1.660480e+003;2.781613e-001
1.662408e+003;2.696816e-001
1.664337e+003;2.616107e-001
1.666266e+003;2.542922e-001
1.668194e+003;2.469479e-001
1.670123e+003;2.397396e-001
1.672051e+003;2.333283e-001
1.673980e+003;2.270578e-001
1.675908e+003;2.205872e-001
1.677837e+003;2.144391e-001
1.679765e+003;2.087198e-001
1.681694e+003;2.033845e-001
1.683622e+003;1.983735e-001
1.685551e+003;1.936740e-001
1.687479e+003;1.897814e-001
1.689408e+003;1.865948e-001
1.691337e+003;1.837889e-001
1.693265e+003;1.814083e-001
1.695194e+003;1.794568e-001
1.697122e+003;1.772517e-001
1.699051e+003;1.729024e-001
1.700979e+003;1.650446e-001
1.702908e+003;1.542745e-001
1.704836e+003;1.417524e-001
1.706765e+003;1.294372e-001
1.708693e+003;1.189676e-001
1.710622e+003;1.105771e-001
1.712551e+003;1.040451e-001
1.714479e+003;9.889971e-002
1.716408e+003;9.468473e-002
1.718336e+003;9.138259e-002
1.720265e+003;8.883056e-002
1.722193e+003;8.684990e-002
1.724122e+003;8.541211e-002
1.726050e+003;8.432128e-002
1.727979e+003;8.326553e-002
1.729908e+003;8.229458e-002
1.731836e+003;8.164063e-002
1.733765e+003;8.105849e-002
1.735693e+003;8.040325e-002
1.737622e+003;7.981712e-002
1.739550e+003;7.918043e-002
1.741479e+003;7.874468e-002
1.743407e+003;7.818105e-002
1.745336e+003;7.771812e-002
1.747265e+003;7.733620e-002
1.749193e+003;7.688010e-002
1.751122e+003;7.633986e-002
1.753050e+003;7.597806e-002
1.754979e+003;7.576004e-002
1.756907e+003;7.574308e-002
1.758836e+003;7.555164e-002
1.760764e+003;7.523214e-002
1.762693e+003;7.496887e-002
1.764621e+003;7.490674e-002
1.766550e+003;7.475837e-002
1.768479e+003;7.436386e-002
1.770407e+003;7.417689e-002
1.772336e+003;7.408882e-002
1.774264e+003;7.393625e-002
1.776193e+003;7.383719e-002
1.778121e+003;7.343371e-002
1.780050e+003;7.319513e-002
1.781978e+003;7.308640e-002
1.783907e+003;7.306358e-002
1.785835e+003;7.301791e-002
1.787764e+003;7.292925e-002
1.789693e+003;7.271417e-002
1.791621e+003;7.244650e-002
1.793550e+003;7.223492e-002
1.795478e+003;7.199520e-002
1.797407e+003;7.179118e-002
1.799335e+003;7.195668e-002
1.801264e+003;7.191440e-002
1.803192e+003;7.156971e-002
1.805121e+003;7.122349e-002
1.807049e+003;7.098542e-002
1.808978e+003;7.069609e-002
1.810907e+003;7.043270e-002
1.812835e+003;7.015534e-002
1.814764e+003;6.990045e-002
1.816692e+003;6.972753e-002
1.818621e+003;6.955463e-002
1.820549e+003;6.934654e-002
1.822478e+003;6.927312e-002
1.824406e+003;6.927654e-002
1.826335e+003;6.914975e-002
1.828264e+003;6.896341e-002
1.830192e+003;6.886280e-002
1.832121e+003;6.852847e-002
1.834049e+003;6.817361e-002
1.835978e+003;6.793345e-002
1.837906e+003;6.776502e-002
1.839835e+003;6.769264e-002
1.841763e+003;6.768695e-002
1.843692e+003;6.754629e-002
1.845620e+003;6.725889e-002
1.847549e+003;6.694547e-002
1.849478e+003;6.676135e-002
1.851406e+003;6.674918e-002
1.853335e+003;6.673507e-002
1.855263e+003;6.658627e-002
1.857192e+003;6.639481e-002
1.859120e+003;6.627866e-002
1.861049e+003;6.643489e-002
1.862977e+003;6.640269e-002
1.864906e+003;6.622799e-002
1.866834e+003;6.615548e-002
1.868763e+003;6.615416e-002
1.870692e+003;6.625547e-002
1.872620e+003;6.625867e-002
1.874549e+003;6.624485e-002
1.876477e+003;6.615432e-002
1.878406e+003;6.613815e-002
1.880334e+003;6.613128e-002
1.882263e+003;6.592279e-002
1.884191e+003;6.589598e-002
1.886120e+003;6.612592e-002
1.888048e+003;6.615609e-002
1.889977e+003;6.596390e-002
1.891906e+003;6.596421e-002
1.893834e+003;6.617234e-002
1.895763e+003;6.600679e-002
1.897691e+003;6.569600e-002
1.899620e+003;6.561194e-002
1.901548e+003;6.555183e-002
1.903477e+003;6.547377e-002
1.905405e+003;6.523413e-002
1.907334e+003;6.513249e-002
1.909262e+003;6.507356e-002
1.911191e+003;6.490870e-002
1.913120e+003;6.470052e-002
1.915048e+003;6.452169e-002
1.916977e+003;6.459709e-002
1.918905e+003;6.473052e-002
1.920834e+003;6.467099e-002
1.922762e+003;6.443721e-002
1.924691e+003;6.452093e-002
1.926619e+003;6.478587e-002
1.928548e+003;6.480471e-002
1.930477e+003;6.473156e-002
1.932405e+003;6.470402e-002
1.934334e+003;6.460620e-002
1.936262e+003;6.439190e-002
1.938191e+003;6.436557e-002
1.940119e+003;6.451377e-002
1.942048e+003;6.462754e-002
1.943976e+003;6.457236e-002
1.945905e+003;6.455160e-002
1.947833e+003;6.466088e-002
1.949762e+003;6.461923e-002
1.951691e+003;6.462734e-002
1.953619e+003;6.483638e-002
1.955548e+003;6.495526e-002
1.957476e+003;6.498731e-002
1.959405e+003;6.502849e-002
1.961333e+003;6.495318e-002
1.963262e+003;6.484022e-002
1.965190e+003;6.478082e-002
1.967119e+003;6.492367e-002
1.969047e+003;6.497808e-002
1.970976e+003;6.484118e-002
1.972905e+003;6.474498e-002
1.974833e+003;6.456533e-002
1.976762e+003;6.448022e-002
1.978690e+003;6.454480e-002
1.980619e+003;6.454149e-002
1.982547e+003;6.447038e-002
1.984476e+003;6.445208e-002
1.986404e+003;6.435297e-002
1.988333e+003;6.443948e-002
1.990261e+003;6.465003e-002
1.992190e+003;6.472975e-002
1.994119e+003;6.455222e-002
1.996047e+003;6.426141e-002
1.997976e+003;6.425396e-002
1.999904e+003;6.448187e-002
2.001833e+003;6.443175e-002
2.003761e+003;6.434728e-002
2.005690e+003;6.439378e-002
2.007618e+003;6.442172e-002
2.009547e+003;6.430191e-002
2.011476e+003;6.418654e-002
2.013404e+003;6.424009e-002
2.015333e+003;6.449559e-002
2.017261e+003;6.466560e-002
2.019190e+003;6.478187e-002
2.021118e+003;6.467325e-002
2.023047e+003;6.450789e-002
2.024975e+003;6.451439e-002
2.026904e+003;6.466522e-002
2.028833e+003;6.466656e-002
2.030761e+003;6.447922e-002
2.032690e+003;6.440181e-002
2.034618e+003;6.451024e-002
2.036547e+003;6.459070e-002
2.038475e+003;6.450485e-002
2.040404e+003;6.455718e-002
2.042332e+003;6.447514e-002
2.044261e+003;6.426391e-002
2.046189e+003;6.426959e-002
2.048118e+003;6.430652e-002
2.050047e+003;6.433871e-002
2.051975e+003;6.445035e-002
2.053904e+003;6.438552e-002
2.055832e+003;6.426337e-002
2.057761e+003;6.445312e-002
2.059689e+003;6.457240e-002
2.061618e+003;6.456429e-002
2.063546e+003;6.469817e-002
2.065475e+003;6.477471e-002
2.067404e+003;6.486238e-002
2.069332e+003;6.479729e-002
2.071260e+003;6.462803e-002
2.073189e+003;6.475079e-002
2.075118e+003;6.472445e-002
2.077046e+003;6.464119e-002
2.078975e+003;6.468295e-002
2.080903e+003;6.493259e-002
2.082832e+003;6.504434e-002
2.084760e+003;6.495695e-002
2.086689e+003;6.494313e-002
2.088617e+003;6.486584e-002
2.090546e+003;6.485845e-002
2.092475e+003;6.508980e-002
2.094403e+003;6.512125e-002
2.096332e+003;6.502491e-002
2.098260e+003;6.511413e-002
2.100189e+003;6.533025e-002
2.102117e+003;6.528734e-002
2.104046e+003;6.507275e-002
2.105974e+003;6.492882e-002
2.107903e+003;6.499031e-002
2.109832e+003;6.516379e-002
2.111760e+003;6.517310e-002
2.113688e+003;6.513353e-002
2.115617e+003;6.495803e-002
2.117546e+003;6.492240e-002
2.119474e+003;6.508445e-002
2.121403e+003;6.496976e-002
2.123331e+003;6.489381e-002
2.125260e+003;6.489950e-002
2.127188e+003;6.496661e-002
2.129117e+003;6.502125e-002
2.131045e+003;6.480587e-002
2.132974e+003;6.474587e-002
2.134903e+003;6.487211e-002
2.136831e+003;6.470972e-002
2.138760e+003;6.458167e-002
2.140688e+003;6.453707e-002
2.142617e+003;6.443448e-002
2.144545e+003;6.437153e-002
2.146474e+003;6.446903e-002
2.148402e+003;6.453262e-002
2.150331e+003;6.447268e-002
2.152260e+003;6.434709e-002
2.154188e+003;6.445120e-002
2.156117e+003;6.453177e-002
2.158045e+003;6.439421e-002
2.159974e+003;6.428032e-002
2.161902e+003;6.439152e-002
2.163831e+003;6.436981e-002
2.165759e+003;6.424916e-002
2.167688e+003;6.425534e-002
2.169616e+003;6.429972e-002
2.171545e+003;6.431831e-002
2.173474e+003;6.433588e-002
2.175402e+003;6.424608e-002
2.177331e+003;6.409229e-002
2.179259e+003;6.402981e-002
2.181188e+003;6.407785e-002
2.183116e+003;6.422887e-002
2.185045e+003;6.446953e-002
2.186973e+003;6.455110e-002
2.188902e+003;6.455211e-002
2.190831e+003;6.450374e-002
2.192759e+003;6.435977e-002
2.194688e+003;6.413738e-002
2.196616e+003;6.395701e-002
2.198545e+003;6.382194e-002
2.200473e+003;6.390923e-002
2.202402e+003;6.403323e-002
2.204330e+003;6.414137e-002
2.206259e+003;6.402409e-002
2.208188e+003;6.379672e-002
2.210116e+003;6.374565e-002
2.212044e+003;6.377186e-002
2.213973e+003;6.380137e-002
2.215902e+003;6.363297e-002
2.217830e+003;6.357557e-002
2.219759e+003;6.360339e-002
2.221687e+003;6.358259e-002
2.223616e+003;6.362506e-002
2.225544e+003;6.364347e-002
2.227473e+003;6.360043e-002
2.229401e+003;6.365889e-002
2.231330e+003;6.364900e-002
2.233259e+003;6.349511e-002
2.235187e+003;6.350535e-002
2.237116e+003;6.352165e-002
2.239044e+003;6.343713e-002
2.240973e+003;6.335155e-002
2.242901e+003;6.329826e-002
2.244830e+003;6.353956e-002
2.246758e+003;6.366358e-002
2.248687e+003;6.345365e-002
2.250615e+003;6.338482e-002
2.252544e+003;6.340189e-002
2.254473e+003;6.349085e-002
2.256401e+003;6.345051e-002
2.258330e+003;6.323640e-002
2.260258e+003;6.313339e-002
2.262187e+003;6.304251e-002
2.264115e+003;6.318439e-002
2.266044e+003;6.336512e-002
2.267972e+003;6.340124e-002
2.269901e+003;6.338471e-002
2.271830e+003;6.336527e-002
2.273758e+003;6.320972e-002
2.275687e+003;6.323027e-002
2.277615e+003;6.342873e-002
2.279544e+003;6.351052e-002
2.281472e+003;6.352656e-002
2.283401e+003;6.354286e-002
2.285329e+003;6.355575e-002
2.287258e+003;6.366707e-002
2.289187e+003;6.371894e-002
2.291115e+003;6.353166e-002
2.293043e+003;6.340986e-002
2.294972e+003;6.377024e-002
2.296901e+003;6.421547e-002
2.298829e+003;6.435236e-002
2.300758e+003;6.404006e-002
2.302686e+003;6.387241e-002
2.304615e+003;6.378790e-002
2.306543e+003;6.377462e-002
2.308472e+003;6.395045e-002
2.310400e+003;6.380678e-002
2.312329e+003;6.358532e-002
2.314258e+003;6.366764e-002
2.316186e+003;6.379392e-002
2.318115e+003;6.392753e-002
2.320043e+003;6.416438e-002
2.321972e+003;6.418247e-002
2.323900e+003;6.398715e-002
2.325829e+003;6.369603e-002
2.327757e+003;6.361355e-002
2.329686e+003;6.386462e-002
2.331615e+003;6.381971e-002
2.333543e+003;6.373578e-002
2.335472e+003;6.379918e-002
2.337400e+003;6.380071e-002
2.339329e+003;6.356511e-002
2.341257e+003;6.348859e-002
2.343186e+003;6.365337e-002
2.345114e+003;6.358164e-002
2.347043e+003;6.344575e-002
2.348971e+003;6.348453e-002
2.350900e+003;6.369174e-002
2.352829e+003;6.385886e-002
2.354757e+003;6.397644e-002
2.356686e+003;6.390569e-002
2.358614e+003;6.369277e-002
2.360543e+003;6.371253e-002
2.362471e+003;6.364873e-002
2.364400e+003;6.368272e-002
2.366328e+003;6.404506e-002
2.368257e+003;6.430551e-002
2.370186e+003;6.427305e-002
2.372114e+003;6.437568e-002
2.374042e+003;6.444097e-002
2.375971e+003;6.428492e-002
2.377900e+003;6.428611e-002
2.379828e+003;6.453723e-002
2.381757e+003;6.466818e-002
2.383685e+003;6.456883e-002
2.385614e+003;6.434290e-002
2.387542e+003;6.445270e-002
2.389471e+003;6.454761e-002
2.391399e+003;6.444336e-002
2.393328e+003;6.480464e-002
2.395257e+003;6.530876e-002
2.397185e+003;6.531750e-002
2.399114e+003;6.525107e-002
2.401042e+003;6.547099e-002
2.402971e+003;6.560960e-002
2.404899e+003;6.565534e-002
2.406828e+003;6.595182e-002
2.408756e+003;6.634767e-002
2.410685e+003;6.638381e-002
2.412614e+003;6.641801e-002
2.414542e+003;6.673542e-002
2.416471e+003;6.690740e-002
2.418399e+003;6.705573e-002
2.420328e+003;6.766271e-002
2.422256e+003;6.804486e-002
2.424185e+003;6.830179e-002
2.426113e+003;6.856246e-002
2.428042e+003;6.852121e-002
2.429970e+003;6.853184e-002
2.431899e+003;6.891242e-002
2.433828e+003;6.929535e-002
2.435756e+003;6.921864e-002
2.437685e+003;6.909636e-002
2.439613e+003;6.924568e-002
2.441542e+003;6.945217e-002
2.443470e+003;6.953751e-002
2.445399e+003;6.962405e-002
2.447327e+003;6.988644e-002
2.449256e+003;6.979834e-002
2.451185e+003;6.946293e-002
2.453113e+003;6.928719e-002
2.455042e+003;6.943960e-002
2.456970e+003;6.968893e-002
2.458899e+003;6.980021e-002
2.460827e+003;6.985262e-002
2.462756e+003;6.979301e-002
2.464684e+003;6.980308e-002
2.466613e+003;6.975795e-002
2.468542e+003;6.968629e-002
2.470470e+003;6.990539e-002
2.472398e+003;7.016842e-002
2.474327e+003;7.047179e-002
2.476256e+003;7.055578e-002
2.478184e+003;7.045109e-002
2.480113e+003;7.046450e-002
2.482041e+003;7.060232e-002
2.483970e+003;7.065008e-002
2.485898e+003;7.067425e-002
2.487827e+003;7.101839e-002
2.489755e+003;7.138620e-002
2.491684e+003;7.124836e-002
2.493613e+003;7.108215e-002
2.495541e+003;7.120616e-002
2.497470e+003;7.114757e-002
2.499398e+003;7.102994e-002
2.501327e+003;7.131540e-002
2.503255e+003;7.164422e-002
2.505184e+003;7.179548e-002
2.507112e+003;7.191574e-002
2.509041e+003;7.193482e-002
2.510969e+003;7.166439e-002
2.512898e+003;7.163133e-002
2.514827e+003;7.190064e-002
2.516755e+003;7.192489e-002
2.518684e+003;7.177410e-002
2.520612e+003;7.179113e-002
2.522541e+003;7.218875e-002
2.524469e+003;7.234406e-002
2.526398e+003;7.226857e-002
2.528326e+003;7.229056e-002
2.530255e+003;7.218347e-002
2.532184e+003;7.226575e-002
2.534112e+003;7.248996e-002
2.536041e+003;7.253354e-002
2.537969e+003;7.244032e-002
2.539898e+003;7.241777e-002
2.541826e+003;7.266407e-002
2.543755e+003;7.289355e-002
2.545683e+003;7.301489e-002
2.547612e+003;7.333528e-002
2.549541e+003;7.354356e-002
2.551469e+003;7.355156e-002
2.553397e+003;7.344509e-002
2.555326e+003;7.343167e-002
2.557255e+003;7.370183e-002
2.559183e+003;7.402127e-002
2.561112e+003;7.419222e-002
2.563040e+003;7.434094e-002
2.564969e+003;7.462524e-002
2.566897e+003;7.463874e-002
2.568826e+003;7.463681e-002
2.570754e+003;7.501423e-002
2.572683e+003;7.543881e-002
2.574612e+003;7.549696e-002
2.576540e+003;7.569472e-002
2.578469e+003;7.606857e-002
2.580397e+003;7.633401e-002
2.582326e+003;7.656499e-002
2.584254e+003;7.673196e-002
2.586183e+003;7.689877e-002
2.588111e+003;7.700767e-002
2.590040e+003;7.717220e-002
2.591969e+003;7.749139e-002
2.593897e+003;7.755520e-002
2.595826e+003;7.759006e-002
2.597754e+003;7.800876e-002
2.599683e+003;7.828936e-002
2.601611e+003;7.822544e-002
2.603540e+003;7.841143e-002
2.605468e+003;7.875866e-002
2.607397e+003;7.884073e-002
2.609325e+003;7.885277e-002
2.611254e+003;7.892076e-002
2.613183e+003;7.892946e-002
2.615111e+003;7.907250e-002
2.617040e+003;7.937018e-002
2.618968e+003;7.942217e-002
2.620897e+003;7.928665e-002
2.622825e+003;7.926124e-002
2.624754e+003;7.923750e-002
2.626682e+003;7.910402e-002
2.628611e+003;7.919634e-002
2.630540e+003;7.958853e-002
2.632468e+003;7.967880e-002
2.634396e+003;7.947154e-002
2.636325e+003;7.923746e-002
2.638254e+003;7.924645e-002
2.640182e+003;7.919265e-002
2.642111e+003;7.888103e-002
2.644039e+003;7.891786e-002
2.645968e+003;7.912803e-002
2.647896e+003;7.902818e-002
2.649825e+003;7.900493e-002
2.651753e+003;7.909253e-002
2.653682e+003;7.926171e-002
2.655611e+003;7.963972e-002
2.657539e+003;7.983312e-002
2.659468e+003;7.955566e-002
2.661396e+003;7.957998e-002
2.663325e+003;7.981676e-002
2.665253e+003;7.992819e-002
2.667182e+003;8.016787e-002
2.669110e+003;8.037275e-002
2.671039e+003;8.053565e-002
2.672968e+003;8.066039e-002
2.674896e+003;8.079027e-002
2.676825e+003;8.104624e-002
2.678753e+003;8.102164e-002
2.680682e+003;8.091756e-002
2.682610e+003;8.122309e-002
2.684539e+003;8.150038e-002
2.686467e+003;8.157146e-002
2.688396e+003;8.167626e-002
2.690324e+003;8.193007e-002
2.692253e+003;8.217170e-002
2.694182e+003;8.244130e-002
2.696110e+003;8.258630e-002
2.698039e+003;8.238598e-002
2.699967e+003;8.257717e-002
2.701896e+003;8.282413e-002
2.703824e+003;8.282096e-002
2.705753e+003;8.327243e-002
2.707681e+003;8.368014e-002
2.709610e+003;8.376523e-002
2.711539e+003;8.385738e-002
2.713467e+003;8.406039e-002
2.715396e+003;8.410382e-002
2.717324e+003;8.434900e-002
2.719253e+003;8.452249e-002
2.721181e+003;8.460429e-002
2.723110e+003;8.490237e-002
2.725038e+003;8.507278e-002
2.726967e+003;8.515766e-002
2.728896e+003;8.542723e-002
2.730824e+003;8.571541e-002
2.732752e+003;8.564252e-002
2.734681e+003;8.563970e-002
2.736610e+003;8.590238e-002
2.738538e+003;8.624248e-002
2.740467e+003;8.642182e-002
2.742395e+003;8.663745e-002
2.744324e+003;8.676011e-002
2.746252e+003;8.681931e-002
2.748181e+003;8.705282e-002
2.750109e+003;8.745254e-002
2.752038e+003;8.776600e-002
2.753967e+003;8.795360e-002
2.755895e+003;8.818521e-002
2.757824e+003;8.832857e-002
2.759752e+003;8.840906e-002
2.761681e+003;8.863868e-002
2.763609e+003;8.871499e-002
2.765538e+003;8.867301e-002
2.767466e+003;8.869947e-002
2.769395e+003;8.895185e-002
2.771323e+003;8.936325e-002
2.773252e+003;8.952064e-002
2.775181e+003;8.980047e-002
2.777109e+003;9.003013e-002
2.779038e+003;8.994628e-002
2.780966e+003;8.996622e-002
2.782895e+003;9.024861e-002
2.784823e+003;9.039437e-002
2.786752e+003;9.042714e-002
2.788680e+003;9.053116e-002
2.790609e+003;9.071514e-002
2.792538e+003;9.089532e-002
2.794466e+003;9.102038e-002
2.796395e+003;9.117882e-002
2.798323e+003;9.151518e-002
2.800252e+003;9.166935e-002
2.802180e+003;9.172513e-002
2.804109e+003;9.196551e-002
2.806037e+003;9.211836e-002
2.807966e+003;9.218878e-002
2.809895e+003;9.232019e-002
2.811823e+003;9.253958e-002
2.813751e+003;9.253027e-002
2.815680e+003;9.231326e-002
2.817609e+003;9.245750e-002
2.819537e+003;9.284516e-002
2.821466e+003;9.324290e-002
2.823394e+003;9.323316e-002
2.825323e+003;9.309544e-002
2.827251e+003;9.328939e-002
2.829180e+003;9.347171e-002
2.831108e+003;9.374391e-002
2.833037e+003;9.399730e-002
2.834966e+003;9.434734e-002
2.836894e+003;9.467372e-002
2.838823e+003;9.486310e-002
2.840751e+003;9.529880e-002
2.842680e+003;9.594465e-002
2.844608e+003;9.661278e-002
2.846537e+003;9.726403e-002
2.848465e+003;9.787334e-002
2.850394e+003;9.820728e-002
2.852323e+003;9.865621e-002
2.854251e+003;9.950936e-002
2.856180e+003;9.996931e-002
2.858108e+003;9.992693e-002
2.860037e+003;1.002270e-001
2.861965e+003;1.007098e-001
2.863894e+003;1.009223e-001
2.865822e+003;1.013719e-001
2.867751e+003;1.022136e-001
2.869679e+003;1.027468e-001
2.871608e+003;1.031709e-001
2.873536e+003;1.037808e-001
2.875465e+003;1.040578e-001
2.877394e+003;1.041118e-001
2.879322e+003;1.040569e-001
2.881251e+003;1.038664e-001
2.883179e+003;1.037128e-001
2.885108e+003;1.036757e-001
2.887036e+003;1.037976e-001
2.888965e+003;1.038262e-001
2.890893e+003;1.036955e-001
2.892822e+003;1.039293e-001
2.894750e+003;1.044742e-001
2.896679e+003;1.048593e-001
2.898608e+003;1.052896e-001
2.900536e+003;1.057818e-001
2.902465e+003;1.059379e-001
2.904393e+003;1.064944e-001
2.906322e+003;1.072535e-001
2.908250e+003;1.077998e-001
2.910179e+003;1.084002e-001
2.912107e+003;1.090222e-001
2.914036e+003;1.098750e-001
2.915965e+003;1.107058e-001
2.917893e+003;1.116774e-001
2.919822e+003;1.129072e-001
2.921750e+003;1.138756e-001
2.923679e+003;1.149135e-001
2.925607e+003;1.159383e-001
2.927536e+003;1.164233e-001
2.929464e+003;1.165300e-001
2.931393e+003;1.168146e-001
2.933322e+003;1.169362e-001
2.935250e+003;1.169099e-001
2.937178e+003;1.165867e-001
2.939107e+003;1.160384e-001
2.941036e+003;1.151901e-001
2.942964e+003;1.142344e-001
2.944893e+003;1.134093e-001
2.946821e+003;1.125893e-001
2.948750e+003;1.119327e-001
2.950678e+003;1.113559e-001
2.952607e+003;1.108107e-001
2.954535e+003;1.106124e-001
2.956464e+003;1.105248e-001
2.958393e+003;1.106744e-001
2.960321e+003;1.107371e-001
2.962250e+003;1.107452e-001
2.964178e+003;1.111940e-001
2.966107e+003;1.116572e-001
2.968035e+003;1.115730e-001
2.969964e+003;1.114364e-001
2.971892e+003;1.118605e-001
2.973821e+003;1.122241e-001
2.975750e+003;1.121741e-001
2.977678e+003;1.119435e-001
2.979607e+003;1.114049e-001
2.981535e+003;1.107134e-001
2.983464e+003;1.102834e-001
2.985392e+003;1.099867e-001
2.987321e+003;1.096762e-001
2.989249e+003;1.094614e-001
2.991178e+003;1.085447e-001
2.993106e+003;1.073060e-001
2.995035e+003;1.067628e-001
2.996964e+003;1.067781e-001
2.998892e+003;1.063860e-001
3.000821e+003;1.058178e-001
3.002749e+003;1.054931e-001
3.004678e+003;1.053129e-001
3.006606e+003;1.051677e-001
3.008535e+003;1.051226e-001
3.010463e+003;1.052530e-001
3.012392e+003;1.053511e-001
3.014321e+003;1.053966e-001
3.016249e+003;1.053431e-001
3.018177e+003;1.055418e-001
3.020106e+003;1.060329e-001
3.022035e+003;1.063903e-001
3.023963e+003;1.066730e-001
3.025892e+003;1.071017e-001
3.027820e+003;1.077272e-001
3.029749e+003;1.083256e-001
3.031677e+003;1.088248e-001
3.033606e+003;1.092748e-001
3.035534e+003;1.097533e-001
3.037463e+003;1.105036e-001
3.039392e+003;1.111581e-001
3.041320e+003;1.113679e-001
3.043249e+003;1.117891e-001
3.045177e+003;1.124601e-001
3.047106e+003;1.129672e-001
3.049034e+003;1.135872e-001
3.050963e+003;1.145258e-001
3.052891e+003;1.154050e-001
3.054820e+003;1.157709e-001
3.056749e+003;1.162100e-001
3.058677e+003;1.166717e-001
3.060606e+003;1.168404e-001
3.062534e+003;1.170145e-001
3.064463e+003;1.176283e-001
3.066391e+003;1.179958e-001
3.068320e+003;1.176739e-001
3.070248e+003;1.175673e-001
3.072177e+003;1.178049e-001
3.074105e+003;1.180467e-001
3.076034e+003;1.181761e-001
3.077963e+003;1.181823e-001
3.079891e+003;1.178931e-001
3.081820e+003;1.174428e-001
3.083748e+003;1.172542e-001
3.085677e+003;1.172774e-001
3.087605e+003;1.172071e-001
3.089534e+003;1.168589e-001
3.091462e+003;1.163526e-001
3.093391e+003;1.159812e-001
3.095320e+003;1.156702e-001
3.097248e+003;1.153066e-001
3.099177e+003;1.148894e-001
3.101105e+003;1.145981e-001
3.103034e+003;1.143411e-001
3.104962e+003;1.139235e-001
3.106891e+003;1.135694e-001
3.108819e+003;1.133528e-001
3.110748e+003;1.133011e-001
3.112677e+003;1.131561e-001
3.114605e+003;1.128801e-001
3.116533e+003;1.124559e-001
3.118462e+003;1.123136e-001
3.120391e+003;1.122630e-001
3.122319e+003;1.121272e-001
3.124248e+003;1.118516e-001
3.126176e+003;1.116902e-001
3.128105e+003;1.118893e-001
3.130033e+003;1.122169e-001
3.131962e+003;1.125946e-001
3.133890e+003;1.126900e-001
3.135819e+003;1.128776e-001
3.137748e+003;1.132324e-001
3.139676e+003;1.134758e-001
3.141605e+003;1.139473e-001
3.143533e+003;1.146727e-001
3.145462e+003;1.150343e-001
3.147390e+003;1.152808e-001
3.149319e+003;1.156616e-001
3.151247e+003;1.162102e-001
3.153176e+003;1.168101e-001
3.155104e+003;1.175084e-001
3.157033e+003;1.180158e-001
3.158962e+003;1.185613e-001
3.160890e+003;1.188868e-001
3.162819e+003;1.193993e-001
3.164747e+003;1.203628e-001
3.166676e+003;1.212664e-001
3.168604e+003;1.218388e-001
3.170533e+003;1.227105e-001
3.172461e+003;1.238133e-001
3.174390e+003;1.246014e-001
3.176319e+003;1.253560e-001
3.178247e+003;1.262042e-001
3.180176e+003;1.270379e-001
3.182104e+003;1.283574e-001
3.184033e+003;1.296671e-001
3.185961e+003;1.306988e-001
3.187890e+003;1.316770e-001
3.189818e+003;1.326947e-001
3.191747e+003;1.339382e-001
3.193676e+003;1.347652e-001
3.195604e+003;1.355820e-001
3.197532e+003;1.368467e-001
3.199461e+003;1.380979e-001
3.201390e+003;1.393913e-001
3.203318e+003;1.409346e-001
3.205247e+003;1.422019e-001
3.207175e+003;1.430743e-001
3.209104e+003;1.440789e-001
3.211032e+003;1.453998e-001
3.212961e+003;1.467541e-001
3.214889e+003;1.479384e-001
3.216818e+003;1.488670e-001
3.218747e+003;1.497049e-001
3.220675e+003;1.512158e-001
3.222604e+003;1.529340e-001
3.224532e+003;1.545179e-001
3.226461e+003;1.557948e-001
3.228389e+003;1.572394e-001
3.230318e+003;1.589046e-001
3.232246e+003;1.607245e-001
3.234175e+003;1.622405e-001
3.236104e+003;1.635993e-001
3.238032e+003;1.653948e-001
3.239961e+003;1.673101e-001
3.241889e+003;1.694082e-001
3.243818e+003;1.715595e-001
3.245746e+003;1.735914e-001
3.247675e+003;1.755610e-001
3.249603e+003;1.775508e-001
3.251532e+003;1.798542e-001
3.253460e+003;1.821938e-001
3.255389e+003;1.843789e-001
3.257318e+003;1.869475e-001
3.259246e+003;1.897724e-001
3.261175e+003;1.926766e-001
3.263103e+003;1.952817e-001
3.265032e+003;1.974233e-001
3.266960e+003;1.996217e-001
3.268889e+003;2.017458e-001
3.270817e+003;2.039282e-001
3.272746e+003;2.061875e-001
3.274675e+003;2.081137e-001
3.276603e+003;2.098628e-001
3.278531e+003;2.107527e-001
3.280460e+003;2.111418e-001
3.282389e+003;2.110777e-001
3.284317e+003;2.103496e-001
3.286246e+003;2.096136e-001
3.288174e+003;2.088444e-001
3.290103e+003;2.076144e-001
3.292031e+003;2.060527e-001
3.293960e+003;2.042213e-001
3.295888e+003;2.021014e-001
3.297817e+003;1.992319e-001
3.299746e+003;1.965015e-001
3.301674e+003;1.938034e-001
3.303603e+003;1.912294e-001
3.305531e+003;1.888500e-001
3.307460e+003;1.860823e-001
3.309388e+003;1.829128e-001
3.311317e+003;1.796253e-001
3.313245e+003;1.767316e-001
3.315174e+003;1.744929e-001
3.317103e+003;1.718476e-001
3.319031e+003;1.688508e-001
3.320960e+003;1.664682e-001
3.322888e+003;1.638205e-001
3.324817e+003;1.607090e-001
3.326745e+003;1.577537e-001
3.328674e+003;1.556120e-001
3.330602e+003;1.537388e-001
3.332531e+003;1.514289e-001
3.334459e+003;1.490387e-001
3.336388e+003;1.471004e-001
3.338317e+003;1.450270e-001
3.340245e+003;1.428373e-001
3.342174e+003;1.409337e-001
3.344102e+003;1.394099e-001
3.346031e+003;1.381857e-001
3.347959e+003;1.367196e-001
3.349888e+003;1.351840e-001
3.351816e+003;1.335991e-001
3.353745e+003;1.321477e-001
3.355674e+003;1.310729e-001
3.357602e+003;1.297490e-001
3.359531e+003;1.286094e-001
3.361459e+003;1.276965e-001
3.363388e+003;1.266411e-001
3.365316e+003;1.256802e-001
3.367245e+003;1.242940e-001
3.369173e+003;1.232359e-001
3.371102e+003;1.225625e-001
3.373031e+003;1.217763e-001
3.374959e+003;1.209744e-001
3.376887e+003;1.201712e-001
3.378816e+003;1.194283e-001
3.380745e+003;1.182315e-001
3.382673e+003;1.173830e-001
3.384602e+003;1.169801e-001
3.386530e+003;1.162767e-001
3.388459e+003;1.155888e-001
3.390387e+003;1.148030e-001
3.392316e+003;1.141660e-001
3.394244e+003;1.133876e-001
3.396173e+003;1.128070e-001
3.398102e+003;1.121383e-001
3.400030e+003;1.113745e-001
3.401959e+003;1.108215e-001
3.403887e+003;1.101124e-001
3.405816e+003;1.093665e-001
3.407744e+003;1.082995e-001
3.409673e+003;1.073464e-001
3.411601e+003;1.068173e-001
3.413530e+003;1.060266e-001
3.415458e+003;1.052946e-001
3.417387e+003;1.047154e-001
3.419316e+003;1.038701e-001
3.421244e+003;1.029631e-001
3.423173e+003;1.023414e-001
3.425101e+003;1.017615e-001
3.427030e+003;1.009928e-001
3.428958e+003;1.002876e-001
3.430887e+003;9.995908e-002
3.432815e+003;9.941845e-002
3.434744e+003;9.874695e-002
3.436673e+003;9.793644e-002
3.438601e+003;9.696937e-002
3.440530e+003;9.640580e-002
3.442458e+003;9.613004e-002
3.444387e+003;9.582040e-002
3.446315e+003;9.582458e-002
3.448244e+003;9.579653e-002
3.450172e+003;9.502654e-002
3.452101e+003;9.433297e-002
3.454030e+003;9.408860e-002
3.455958e+003;9.386608e-002
3.457886e+003;9.343124e-002
3.459815e+003;9.326528e-002
3.461744e+003;9.305669e-002
3.463672e+003;9.242880e-002
3.465601e+003;9.237609e-002
3.467529e+003;9.217223e-002
3.469458e+003;9.176826e-002
3.471386e+003;9.151752e-002
3.473315e+003;9.115932e-002
3.475243e+003;9.074222e-002
3.477172e+003;9.029417e-002
3.479101e+003;8.997090e-002
3.481029e+003;9.011118e-002
3.482958e+003;8.996707e-002
3.484886e+003;8.948070e-002
3.486815e+003;8.934840e-002
3.488743e+003;8.908428e-002
3.490672e+003;8.844939e-002
3.492600e+003;8.851345e-002
3.494529e+003;8.848318e-002
3.496458e+003;8.791198e-002
3.498386e+003;8.764508e-002
3.500315e+003;8.738041e-002
3.502243e+003;8.710570e-002
3.504172e+003;8.665776e-002
3.506100e+003;8.590952e-002
3.508029e+003;8.585481e-002
3.509957e+003;8.586450e-002
3.511886e+003;8.571453e-002
3.513814e+003;8.571025e-002
3.515743e+003;8.527229e-002
3.517672e+003;8.455168e-002
3.519600e+003;8.412301e-002
3.521529e+003;8.401106e-002
3.523457e+003;8.417762e-002
3.525386e+003;8.359317e-002
3.527314e+003;8.280548e-002
3.529243e+003;8.248818e-002
3.531171e+003;8.225738e-002
3.533100e+003;8.213375e-002
3.535029e+003;8.170989e-002
3.536957e+003;8.142572e-002
3.538885e+003;8.158109e-002
3.540814e+003;8.106421e-002
3.542743e+003;8.044524e-002
3.544671e+003;8.020345e-002
3.546600e+003;7.994611e-002
3.548528e+003;7.969843e-002
3.550457e+003;7.939930e-002
3.552385e+003;7.905564e-002
3.554314e+003;7.860175e-002
3.556242e+003;7.820703e-002
3.558171e+003;7.788727e-002
3.560100e+003;7.755753e-002
3.562028e+003;7.742442e-002
3.563957e+003;7.735401e-002
3.565885e+003;7.692499e-002
3.567814e+003;7.655199e-002
3.569742e+003;7.655349e-002
3.571671e+003;7.625809e-002
3.573599e+003;7.550330e-002
3.575528e+003;7.496978e-002
3.577457e+003;7.459349e-002
3.579385e+003;7.444260e-002
3.581314e+003;7.409821e-002
3.583242e+003;7.371546e-002
3.585171e+003;7.336348e-002
3.587099e+003;7.265158e-002
3.589028e+003;7.234802e-002
3.590956e+003;7.231002e-002
3.592885e+003;7.205578e-002
3.594813e+003;7.201146e-002
3.596742e+003;7.182112e-002
3.598671e+003;7.109757e-002
3.600599e+003;7.088894e-002
3.602528e+003;7.116291e-002
3.604456e+003;7.113254e-002
3.606385e+003;7.055784e-002
3.608313e+003;6.973410e-002
3.610242e+003;6.968893e-002
3.612170e+003;6.993408e-002
3.614099e+003;6.959068e-002
3.616028e+003;6.874369e-002
3.617956e+003;6.796642e-002
3.619885e+003;6.768443e-002
3.621813e+003;6.750693e-002
3.623742e+003;6.737863e-002
3.625670e+003;6.715508e-002
3.627599e+003;6.671058e-002
3.629527e+003;6.607314e-002
3.631456e+003;6.563850e-002
3.633385e+003;6.508034e-002
3.635313e+003;6.468152e-002
3.637241e+003;6.435616e-002
3.639170e+003;6.389014e-002
3.641099e+003;6.389344e-002
3.643027e+003;6.367263e-002
3.644956e+003;6.292395e-002
3.646884e+003;6.236398e-002
3.648813e+003;6.188944e-002
3.650741e+003;6.118990e-002
3.652670e+003;6.093206e-002
3.654598e+003;6.044251e-002
3.656527e+003;5.933677e-002
3.658456e+003;5.860455e-002
3.660384e+003;5.811712e-002
3.662313e+003;5.767038e-002
3.664241e+003;5.726777e-002
3.666170e+003;5.680733e-002
3.668098e+003;5.620657e-002
3.670027e+003;5.553728e-002
3.671955e+003;5.465467e-002
3.673884e+003;5.389866e-002
3.675813e+003;5.294173e-002
3.677741e+003;5.234910e-002
3.679669e+003;5.200774e-002
3.681598e+003;5.133639e-002
3.683527e+003;5.072855e-002
3.685455e+003;5.009995e-002
3.687384e+003;4.944788e-002
3.689312e+003;4.905296e-002
3.691241e+003;4.894966e-002
3.693169e+003;4.875010e-002
3.695098e+003;4.845171e-002
3.697026e+003;4.846260e-002
3.698955e+003;4.852355e-002
3.700884e+003;4.801847e-002
3.702812e+003;4.749180e-002
3.704741e+003;4.704123e-002
3.706669e+003;4.666001e-002
3.708598e+003;4.625596e-002
3.710526e+003;4.609821e-002
3.712455e+003;4.631826e-002
3.714383e+003;4.632467e-002
3.716312e+003;4.594993e-002
3.718240e+003;4.568125e-002
3.720169e+003;4.582520e-002
3.722098e+003;4.551233e-002
3.724026e+003;4.518303e-002
3.725955e+003;4.513601e-002
3.727883e+003;4.491060e-002
3.729812e+003;4.511274e-002
3.731740e+003;4.520484e-002
3.733669e+003;4.496995e-002
3.735597e+003;4.471532e-002
3.737526e+003;4.480806e-002
3.739455e+003;4.469585e-002
3.741383e+003;4.452367e-002
3.743312e+003;4.443943e-002
3.745240e+003;4.400573e-002
3.747169e+003;4.397020e-002
3.749097e+003;4.377732e-002
3.751026e+003;4.398403e-002
3.752954e+003;4.421750e-002
3.754883e+003;4.410226e-002
3.756812e+003;4.359760e-002
3.758740e+003;4.359481e-002
3.760668e+003;4.387254e-002
3.762597e+003;4.393072e-002
3.764526e+003;4.370810e-002
3.766454e+003;4.345376e-002
3.768383e+003;4.355844e-002
3.770311e+003;4.371924e-002
3.772240e+003;4.373170e-002
3.774168e+003;4.350625e-002
3.776097e+003;4.313876e-002
3.778025e+003;4.307106e-002
3.779954e+003;4.296230e-002
3.781883e+003;4.271195e-002
3.783811e+003;4.245275e-002
3.785740e+003;4.234549e-002
3.787668e+003;4.246273e-002
3.789597e+003;4.283049e-002
3.791525e+003;4.300766e-002
3.793454e+003;4.317630e-002
3.795382e+003;4.301742e-002
3.797311e+003;4.279856e-002
3.799240e+003;4.292393e-002
3.801168e+003;4.336866e-002
3.803097e+003;4.354573e-002
3.805025e+003;4.331664e-002
3.806954e+003;4.323871e-002
3.808882e+003;4.307666e-002
3.810811e+003;4.316961e-002
3.812739e+003;4.332839e-002
3.814668e+003;4.332481e-002
3.816596e+003;4.338283e-002
3.818525e+003;4.387797e-002
3.820454e+003;4.394487e-002
3.822382e+003;4.329746e-002
3.824311e+003;4.306773e-002
3.826239e+003;4.369531e-002
3.828168e+003;4.402194e-002
3.830096e+003;4.355859e-002
3.832025e+003;4.337694e-002
3.833953e+003;4.376691e-002
3.835882e+003;4.388321e-002
3.837811e+003;4.341436e-002
3.839739e+003;4.351046e-002
3.841667e+003;4.401354e-002
3.843596e+003;4.417165e-002
3.845525e+003;4.405502e-002
3.847453e+003;4.436482e-002
3.849382e+003;4.486313e-002
3.851310e+003;4.498766e-002
3.853239e+003;4.445654e-002
3.855167e+003;4.410155e-002
3.857096e+003;4.437231e-002
3.859024e+003;4.442405e-002
3.860953e+003;4.451193e-002
3.862882e+003;4.483715e-002
3.864810e+003;4.497369e-002
3.866739e+003;4.503121e-002
3.868667e+003;4.515792e-002
3.870596e+003;4.539376e-002
3.872524e+003;4.560488e-002
3.874453e+003;4.559855e-002
3.876381e+003;4.583389e-002
3.878310e+003;4.611169e-002
3.880239e+003;4.623802e-002
3.882167e+003;4.621705e-002
3.884096e+003;4.612949e-002
3.886024e+003;4.626094e-002
3.887953e+003;4.627005e-002
3.889881e+003;4.617127e-002
3.891810e+003;4.599686e-002
3.893738e+003;4.572171e-002
3.895667e+003;4.626149e-002
3.897595e+003;4.747029e-002
3.899524e+003;4.777543e-002
3.901453e+003;4.727983e-002
3.903381e+003;4.708617e-002
3.905310e+003;4.731796e-002
3.907238e+003;4.766134e-002
3.909167e+003;4.764792e-002
3.911095e+003;4.757198e-002
3.913024e+003;4.770220e-002
3.914952e+003;4.798698e-002
3.916881e+003;4.833615e-002
3.918810e+003;4.859362e-002
3.920738e+003;4.819907e-002
3.922667e+003;4.815738e-002
3.924595e+003;4.856016e-002
3.926524e+003;4.879232e-002
3.928452e+003;4.904153e-002
3.930381e+003;4.878024e-002
3.932309e+003;4.842671e-002
3.934238e+003;4.857883e-002
3.936167e+003;4.897933e-002
3.938095e+003;4.911269e-002
3.940023e+003;4.897139e-002
3.941952e+003;4.915186e-002
3.943881e+003;4.955735e-002
3.945809e+003;4.970660e-002
3.947738e+003;4.961941e-002
3.949666e+003;4.981636e-002
3.951595e+003;4.980781e-002
3.953523e+003;4.982074e-002
3.955452e+003;5.001919e-002
3.957380e+003;5.002161e-002
3.959309e+003;4.991938e-002
3.961238e+003;4.983576e-002
3.963166e+003;4.974907e-002
3.965095e+003;4.955408e-002
3.967023e+003;4.976924e-002
3.968952e+003;4.997235e-002
3.970880e+003;4.987326e-002
3.972809e+003;5.009133e-002
3.974737e+003;5.036286e-002
3.976666e+003;5.062522e-002
3.978594e+003;5.079056e-002
3.980523e+003;5.101125e-002
3.982452e+003;5.088662e-002
3.984380e+003;5.052754e-002
3.986309e+003;5.080825e-002
3.988237e+003;5.096016e-002
3.990166e+003;5.044409e-002
3.992094e+003;5.009530e-002
3.994023e+003;5.051808e-002
3.995951e+003;5.112514e-002
3.997880e+003;5.119805e-002
3.999809e+003;5.092905e-002
4.001737e+003;0.000000e+000
