3.992094e+002;0.000000e+000
4.011380e+002;0.000000e+000
4.030665e+002;0.000000e+000
4.049951e+002;0.000000e+000
4.069236e+002;0.000000e+000
4.088522e+002;0.000000e+000
4.107807e+002;0.000000e+000
4.127093e+002;0.000000e+000
4.146378e+002;0.000000e+000
4.165664e+002;0.000000e+000
4.184949e+002;0.000000e+000
4.204235e+002;0.000000e+000
4.223520e+002;0.000000e+000
4.242806e+002;0.000000e+000
4.262091e+002;0.000000e+000
4.281377e+002;0.000000e+000
4.300662e+002;0.000000e+000
4.319948e+002;0.000000e+000
4.339233e+002;0.000000e+000
4.358519e+002;0.000000e+000
4.377804e+002;0.000000e+000
4.397090e+002;0.000000e+000
4.416375e+002;0.000000e+000
4.435660e+002;0.000000e+000
4.454946e+002;0.000000e+000
4.474232e+002;0.000000e+000
4.493517e+002;0.000000e+000
4.512802e+002;0.000000e+000
4.532088e+002;0.000000e+000
4.551373e+002;0.000000e+000
4.570659e+002;0.000000e+000
4.589944e+002;0.000000e+000
4.609230e+002;0.000000e+000
4.628515e+002;0.000000e+000
4.647801e+002;0.000000e+000
4.667086e+002;0.000000e+000
4.686372e+002;0.000000e+000
4.705657e+002;0.000000e+000
4.724943e+002;0.000000e+000
4.744228e+002;0.000000e+000
4.763513e+002;0.000000e+000
4.782799e+002;0.000000e+000
4.802085e+002;0.000000e+000
4.821370e+002;0.000000e+000
4.840656e+002;0.000000e+000
4.859941e+002;0.000000e+000
4.879226e+002;0.000000e+000
4.898512e+002;0.000000e+000
4.917798e+002;0.000000e+000
4.937083e+002;0.000000e+000
4.956368e+002;0.000000e+000
4.975654e+002;0.000000e+000
4.994939e+002;0.000000e+000
5.014225e+002;0.000000e+000
5.033510e+002;0.000000e+000
5.052796e+002;0.000000e+000
5.072081e+002;0.000000e+000
5.091367e+002;0.000000e+000
5.110652e+002;0.000000e+000
5.129938e+002;0.000000e+000
5.149223e+002;0.000000e+000
5.168509e+002;0.000000e+000
5.187794e+002;0.000000e+000
5.207079e+002;0.000000e+000
5.226365e+002;0.000000e+000
5.245651e+002;0.000000e+000
5.264936e+002;0.000000e+000
5.284222e+002;0.000000e+000
5.303507e+002;0.000000e+000
5.322792e+002;0.000000e+000
5.342078e+002;0.000000e+000
5.361364e+002;0.000000e+000
5.380649e+002;0.000000e+000
5.399935e+002;0.000000e+000
5.419220e+002;0.000000e+000
5.438505e+002;0.000000e+000
5.457791e+002;0.000000e+000
5.477076e+002;0.000000e+000
5.496362e+002;0.000000e+000
5.515648e+002;0.000000e+000
5.534933e+002;0.000000e+000
5.554218e+002;0.000000e+000
5.573504e+002;0.000000e+000
5.592789e+002;0.000000e+000
5.612075e+002;0.000000e+000
5.631360e+002;0.000000e+000
5.650646e+002;0.000000e+000
5.669931e+002;0.000000e+000
5.689217e+002;0.000000e+000
5.708502e+002;0.000000e+000
5.727787e+002;0.000000e+000
5.747073e+002;0.000000e+000
5.766359e+002;0.000000e+000
5.785644e+002;0.000000e+000
5.804930e+002;0.000000e+000
5.824215e+002;0.000000e+000
5.843500e+002;0.000000e+000
5.862786e+002;0.000000e+000
5.882072e+002;0.000000e+000
5.901357e+002;0.000000e+000
5.920643e+002;0.000000e+000
5.939928e+002;0.000000e+000
5.959213e+002;0.000000e+000
5.978499e+002;0.000000e+000
5.997784e+002;2.839102e-001
6.017070e+002;2.871512e-001
6.036355e+002;2.890361e-001
6.055641e+002;2.920539e-001
6.074926e+002;2.984977e-001
6.094211e+002;2.987667e-001
6.113497e+002;2.957417e-001
6.132783e+002;3.011137e-001
6.152068e+002;3.031973e-001
6.171354e+002;2.981771e-001
6.190639e+002;2.937841e-001
6.209924e+002;2.943533e-001
6.229210e+002;2.947576e-001
6.248495e+002;2.922918e-001
6.267781e+002;2.888060e-001
6.287067e+002;2.859554e-001
6.306352e+002;2.861540e-001
6.325637e+002;2.853794e-001
6.344923e+002;2.822509e-001
6.364208e+002;2.797350e-001
6.383494e+002;2.834296e-001
6.402780e+002;2.828537e-001
6.422065e+002;2.808691e-001
6.441350e+002;2.780246e-001
6.460636e+002;2.775120e-001
6.479921e+002;2.767987e-001
6.499207e+002;2.767670e-001
6.518492e+002;2.736712e-001
6.537778e+002;2.716511e-001
6.557063e+002;2.745336e-001
6.576349e+002;2.729787e-001
6.595634e+002;2.701648e-001
6.614919e+002;2.713548e-001
6.634205e+002;2.731046e-001
6.653491e+002;2.724617e-001
6.672776e+002;2.714366e-001
6.692062e+002;2.713070e-001
6.711347e+002;2.728575e-001
6.730632e+002;2.733135e-001
6.749918e+002;2.714895e-001
6.769203e+002;2.713354e-001
6.788489e+002;2.702200e-001
6.807775e+002;2.683851e-001
6.827060e+002;2.690456e-001
6.846345e+002;2.697406e-001
6.865631e+002;2.681914e-001
6.884916e+002;2.649069e-001
6.904202e+002;2.622420e-001
6.923488e+002;2.619806e-001
6.942773e+002;2.615888e-001
6.962058e+002;2.587506e-001
6.981344e+002;2.569698e-001
7.000629e+002;2.554471e-001
7.019915e+002;2.523605e-001
7.039200e+002;2.495578e-001
7.058486e+002;2.475491e-001
7.077771e+002;2.443261e-001
7.097057e+002;2.418690e-001
7.116342e+002;2.405605e-001
7.135627e+002;2.376825e-001
7.154913e+002;2.342236e-001
7.174199e+002;2.318573e-001
7.193484e+002;2.291515e-001
7.212770e+002;2.246794e-001
7.232055e+002;2.210658e-001
7.251340e+002;2.187023e-001
7.270626e+002;2.159767e-001
7.289911e+002;2.129168e-001
7.309197e+002;2.101270e-001
7.328483e+002;2.065966e-001
7.347768e+002;2.031092e-001
7.367053e+002;2.000539e-001
7.386339e+002;1.962752e-001
7.405624e+002;1.928102e-001
7.424910e+002;1.895623e-001
7.444196e+002;1.859239e-001
7.463481e+002;1.828295e-001
7.482766e+002;1.804994e-001
7.502052e+002;1.783029e-001
7.521337e+002;1.750461e-001
7.540623e+002;1.726452e-001
7.559908e+002;1.716315e-001
7.579194e+002;1.704355e-001
7.598479e+002;1.685374e-001
7.617765e+002;1.664986e-001
7.637050e+002;1.648745e-001
7.656335e+002;1.632113e-001
7.675621e+002;1.614261e-001
7.694907e+002;1.596645e-001
7.714192e+002;1.575329e-001
7.733478e+002;1.561796e-001
7.752763e+002;1.549575e-001
7.772048e+002;1.532297e-001
7.791334e+002;1.510350e-001
7.810620e+002;1.494059e-001
7.829905e+002;1.477753e-001
7.849191e+002;1.460101e-001
7.868476e+002;1.443867e-001
7.887761e+002;1.435264e-001
7.907047e+002;1.421568e-001
7.926332e+002;1.398071e-001
7.945618e+002;1.382858e-001
7.964903e+002;1.384244e-001
7.984189e+002;1.388039e-001
8.003474e+002;1.383300e-001
8.022759e+002;1.371711e-001
8.042045e+002;1.367729e-001
8.061331e+002;1.373983e-001
8.080616e+002;1.379107e-001
8.099902e+002;1.380871e-001
8.119187e+002;1.383839e-001
8.138472e+002;1.381987e-001
8.157758e+002;1.377328e-001
8.177043e+002;1.378844e-001
8.196329e+002;1.390210e-001
8.215615e+002;1.397149e-001
8.234900e+002;1.394574e-001
8.254185e+002;1.392659e-001
8.273471e+002;1.389616e-001
8.292756e+002;1.387914e-001
8.312042e+002;1.381018e-001
8.331328e+002;1.364329e-001
8.350613e+002;1.348677e-001
8.369898e+002;1.332825e-001
8.389184e+002;1.318365e-001
8.408469e+002;1.310029e-001
8.427755e+002;1.302659e-001
8.447040e+002;1.299595e-001
8.466326e+002;1.306222e-001
8.485611e+002;1.308910e-001
8.504897e+002;1.304015e-001
8.524182e+002;1.307154e-001
8.543467e+002;1.305847e-001
8.562753e+002;1.286920e-001
8.582039e+002;1.260825e-001
8.601324e+002;1.238121e-001
8.620610e+002;1.223190e-001
8.639895e+002;1.210433e-001
8.659180e+002;1.196330e-001
8.678466e+002;1.191172e-001
8.697751e+002;1.190182e-001
8.717037e+002;1.192024e-001
8.736323e+002;1.198781e-001
8.755608e+002;1.197686e-001
8.774893e+002;1.194307e-001
8.794179e+002;1.196245e-001
8.813464e+002;1.196376e-001
8.832750e+002;1.197573e-001
8.852036e+002;1.200878e-001
8.871321e+002;1.198007e-001
8.890606e+002;1.193690e-001
8.909892e+002;1.192721e-001
8.929177e+002;1.193074e-001
8.948463e+002;1.192142e-001
8.967748e+002;1.192743e-001
8.987034e+002;1.191919e-001
9.006319e+002;1.188624e-001
9.025605e+002;1.189123e-001
9.044890e+002;1.188824e-001
9.064175e+002;1.188609e-001
9.083461e+002;1.187909e-001
9.102747e+002;1.191200e-001
9.122032e+002;1.200993e-001
9.141318e+002;1.209248e-001
9.160603e+002;1.218174e-001
9.179888e+002;1.232942e-001
9.199174e+002;1.250698e-001
9.218459e+002;1.265250e-001
9.237745e+002;1.280520e-001
9.257031e+002;1.295252e-001
9.276316e+002;1.305113e-001
9.295601e+002;1.311262e-001
9.314887e+002;1.312025e-001
9.334172e+002;1.312652e-001
9.353458e+002;1.316418e-001
9.372744e+002;1.320795e-001
9.392029e+002;1.325672e-001
9.411314e+002;1.329973e-001
9.430600e+002;1.333540e-001
9.449885e+002;1.342157e-001
9.469171e+002;1.348958e-001
9.488456e+002;1.355861e-001
9.507742e+002;1.365503e-001
9.527027e+002;1.375664e-001
9.546313e+002;1.386345e-001
9.565598e+002;1.399335e-001
9.584883e+002;1.413388e-001
9.604169e+002;1.428676e-001
9.623455e+002;1.445929e-001
9.642740e+002;1.465339e-001
9.662026e+002;1.485737e-001
9.681311e+002;1.509438e-001
9.700596e+002;1.530469e-001
9.719882e+002;1.544965e-001
9.739167e+002;1.557922e-001
9.758453e+002;1.564981e-001
9.777739e+002;1.560068e-001
9.797024e+002;1.554052e-001
9.816309e+002;1.552298e-001
9.835595e+002;1.551527e-001
9.854880e+002;1.557560e-001
9.874166e+002;1.577374e-001
9.893452e+002;1.602753e-001
9.912737e+002;1.631739e-001
9.932022e+002;1.657139e-001
9.951307e+002;1.670861e-001
9.970593e+002;1.675921e-001
9.989879e+002;1.677101e-001
1.000916e+003;1.673693e-001
1.002845e+003;1.667823e-001
1.004773e+003;1.665971e-001
1.006702e+003;1.670339e-001
1.008631e+003;1.677725e-001
1.010559e+003;1.681929e-001
1.012488e+003;1.683935e-001
1.014416e+003;1.681181e-001
1.016345e+003;1.678759e-001
1.018273e+003;1.676479e-001
1.020202e+003;1.674408e-001
1.022130e+003;1.681304e-001
1.024059e+003;1.699854e-001
1.025988e+003;1.731223e-001
1.027916e+003;1.763780e-001
1.029845e+003;1.787332e-001
1.031773e+003;1.808131e-001
1.033702e+003;1.835062e-001
1.035630e+003;1.860319e-001
1.037559e+003;1.877712e-001
1.039487e+003;1.887806e-001
1.041416e+003;1.899237e-001
1.043344e+003;1.907729e-001
1.045273e+003;1.909692e-001
1.047202e+003;1.911785e-001
1.049130e+003;1.915073e-001
1.051059e+003;1.920101e-001
1.052987e+003;1.927758e-001
1.054916e+003;1.938135e-001
1.056844e+003;1.954514e-001
1.058773e+003;1.972068e-001
1.060701e+003;1.988018e-001
1.062630e+003;1.999183e-001
1.064558e+003;2.005254e-001
1.066487e+003;2.013404e-001
1.068416e+003;2.014340e-001
1.070344e+003;2.002589e-001
1.072273e+003;1.983225e-001
1.074201e+003;1.961214e-001
1.076130e+003;1.934703e-001
1.078058e+003;1.902571e-001
1.079987e+003;1.872605e-001
1.081915e+003;1.845730e-001
1.083844e+003;1.809924e-001
1.085773e+003;1.768494e-001
1.087701e+003;1.740033e-001
1.089630e+003;1.718359e-001
1.091558e+003;1.697072e-001
1.093487e+003;1.687004e-001
1.095415e+003;1.681186e-001
1.097344e+003;1.678178e-001
1.099272e+003;1.680754e-001
1.101201e+003;1.678106e-001
1.103129e+003;1.676826e-001
1.105058e+003;1.674124e-001
1.106987e+003;1.666860e-001
1.108915e+003;1.658465e-001
1.110844e+003;1.646425e-001
1.112772e+003;1.633175e-001
1.114701e+003;1.626885e-001
1.116629e+003;1.628575e-001
1.118558e+003;1.629852e-001
1.120486e+003;1.630352e-001
1.122415e+003;1.632415e-001
1.124344e+003;1.634954e-001
1.126272e+003;1.638341e-001
1.128201e+003;1.638793e-001
1.130129e+003;1.641094e-001
1.132058e+003;1.648158e-001
1.133986e+003;1.659534e-001
1.135915e+003;1.673454e-001
1.137843e+003;1.689664e-001
1.139772e+003;1.704414e-001
1.141700e+003;1.720996e-001
1.143629e+003;1.740520e-001
1.145557e+003;1.759469e-001
1.147486e+003;1.776846e-001
1.149415e+003;1.794897e-001
1.151343e+003;1.814521e-001
1.153272e+003;1.830067e-001
1.155200e+003;1.843353e-001
1.157129e+003;1.858295e-001
1.159057e+003;1.870957e-001
1.160986e+003;1.880548e-001
1.162914e+003;1.891826e-001
1.164843e+003;1.903935e-001
1.166771e+003;1.913267e-001
1.168700e+003;1.924234e-001
1.170629e+003;1.927643e-001
1.172557e+003;1.918541e-001
1.174486e+003;1.904170e-001
1.176414e+003;1.888202e-001
1.178343e+003;1.870690e-001
1.180271e+003;1.853898e-001
1.182200e+003;1.843569e-001
1.184128e+003;1.845856e-001
1.186057e+003;1.857205e-001
1.187986e+003;1.869652e-001
1.189914e+003;1.883227e-001
1.191843e+003;1.904182e-001
1.193771e+003;1.931346e-001
1.195700e+003;1.963266e-001
1.197628e+003;2.000703e-001
1.199557e+003;2.042025e-001
1.201485e+003;2.087890e-001
1.203414e+003;2.143386e-001
1.205343e+003;2.199061e-001
1.207271e+003;2.249730e-001
1.209200e+003;2.300196e-001
1.211128e+003;2.351218e-001
1.213057e+003;2.398669e-001
1.214985e+003;2.441696e-001
1.216914e+003;2.485382e-001
1.218842e+003;2.528348e-001
1.220771e+003;2.562111e-001
1.222699e+003;2.587156e-001
1.224628e+003;2.608216e-001
1.226557e+003;2.627687e-001
1.228485e+003;2.637953e-001
1.230414e+003;2.637176e-001
1.232342e+003;2.627233e-001
1.234271e+003;2.607726e-001
1.236199e+003;2.585904e-001
1.238128e+003;2.561982e-001
1.240056e+003;2.536418e-001
1.241985e+003;2.514629e-001
1.243913e+003;2.492844e-001
1.245842e+003;2.470632e-001
1.247771e+003;2.453190e-001
1.249699e+003;2.440384e-001
1.251628e+003;2.432700e-001
1.253556e+003;2.422841e-001
1.255485e+003;2.410820e-001
1.257413e+003;2.401896e-001
1.259342e+003;2.388685e-001
1.261270e+003;2.362385e-001
1.263199e+003;2.330063e-001
1.265127e+003;2.297942e-001
1.267056e+003;2.264807e-001
1.268985e+003;2.228569e-001
1.270913e+003;2.188173e-001
1.272842e+003;2.148372e-001
1.274770e+003;2.114749e-001
1.276699e+003;2.088068e-001
1.278627e+003;2.062475e-001
1.280556e+003;2.039979e-001
1.282484e+003;2.020657e-001
1.284413e+003;2.004454e-001
1.286342e+003;1.992012e-001
1.288270e+003;1.983299e-001
1.290199e+003;1.977240e-001
1.292127e+003;1.971075e-001
1.294056e+003;1.970195e-001
1.295984e+003;1.973508e-001
1.297913e+003;1.974378e-001
1.299841e+003;1.973938e-001
1.301770e+003;1.973954e-001
1.303698e+003;1.969644e-001
1.305627e+003;1.964227e-001
1.307556e+003;1.961661e-001
1.309484e+003;1.958308e-001
1.311413e+003;1.952417e-001
1.313341e+003;1.949653e-001
1.315270e+003;1.948493e-001
1.317198e+003;1.946527e-001
1.319127e+003;1.947289e-001
1.321055e+003;1.954439e-001
1.322984e+003;1.963516e-001
1.324912e+003;1.971030e-001
1.326841e+003;1.980156e-001
1.328770e+003;1.989037e-001
1.330698e+003;1.995640e-001
1.332627e+003;2.002253e-001
1.334555e+003;2.004787e-001
1.336484e+003;2.000410e-001
1.338412e+003;1.996145e-001
1.340341e+003;1.995478e-001
1.342269e+003;1.994441e-001
1.344198e+003;1.990890e-001
1.346126e+003;1.991731e-001
1.348055e+003;1.995363e-001
1.349984e+003;1.997647e-001
1.351912e+003;1.999267e-001
1.353841e+003;2.003364e-001
1.355769e+003;2.013763e-001
1.357698e+003;2.033719e-001
1.359626e+003;2.061709e-001
1.361555e+003;2.093397e-001
1.363483e+003;2.126961e-001
1.365412e+003;2.160450e-001
1.367341e+003;2.183829e-001
1.369269e+003;2.191813e-001
1.371198e+003;2.189728e-001
1.373126e+003;2.183394e-001
1.375055e+003;2.176896e-001
1.376983e+003;2.172315e-001
1.378912e+003;2.172539e-001
1.380840e+003;2.174326e-001
1.382769e+003;2.174974e-001
1.384698e+003;2.177097e-001
1.386626e+003;2.181817e-001
1.388555e+003;2.187196e-001
1.390483e+003;2.189445e-001
1.392412e+003;2.189269e-001
1.394340e+003;2.191464e-001
1.396269e+003;2.197031e-001
1.398197e+003;2.204621e-001
1.400126e+003;2.212393e-001
1.402054e+003;2.220811e-001
1.403983e+003;2.232456e-001
1.405911e+003;2.247669e-001
1.407840e+003;2.258051e-001
1.409769e+003;2.265575e-001
1.411697e+003;2.268715e-001
1.413626e+003;2.271133e-001
1.415554e+003;2.277106e-001
1.417483e+003;2.283320e-001
1.419411e+003;2.290766e-001
1.421340e+003;2.305646e-001
1.423268e+003;2.327372e-001
1.425197e+003;2.359961e-001
1.427125e+003;2.406195e-001
1.429054e+003;2.461174e-001
1.430983e+003;2.527393e-001
1.432911e+003;2.600532e-001
1.434840e+003;2.670297e-001
1.436768e+003;2.724330e-001
1.438697e+003;2.761867e-001
1.440625e+003;2.787495e-001
1.442554e+003;2.804942e-001
1.444482e+003;2.809111e-001
1.446411e+003;2.798161e-001
1.448340e+003;2.773687e-001
1.450268e+003;2.732169e-001
1.452197e+003;2.676055e-001
1.454125e+003;2.615339e-001
1.456054e+003;2.557145e-001
1.457982e+003;2.510682e-001
1.459911e+003;2.480293e-001
1.461839e+003;2.458297e-001
1.463768e+003;2.444490e-001
1.465697e+003;2.440850e-001
1.467625e+003;2.444885e-001
1.469554e+003;2.456101e-001
1.471482e+003;2.473766e-001
1.473411e+003;2.495665e-001
1.475339e+003;2.522339e-001
1.477268e+003;2.558457e-001
1.479196e+003;2.605513e-001
1.481125e+003;2.661482e-001
1.483053e+003;2.729149e-001
1.484982e+003;2.811236e-001
1.486911e+003;2.899970e-001
1.488839e+003;2.995257e-001
1.490768e+003;3.098444e-001
1.492696e+003;3.206247e-001
1.494625e+003;3.315262e-001
1.496553e+003;3.424982e-001
1.498482e+003;3.531860e-001
1.500410e+003;3.628465e-001
1.502339e+003;3.719295e-001
1.504267e+003;3.803263e-001
1.506196e+003;3.880929e-001
1.508125e+003;3.957503e-001
1.510053e+003;4.021997e-001
1.511982e+003;4.073496e-001
1.513910e+003;4.097083e-001
1.515839e+003;4.075338e-001
1.517767e+003;4.011584e-001
1.519696e+003;3.922275e-001
1.521624e+003;3.832393e-001
1.523553e+003;3.755187e-001
1.525481e+003;3.684729e-001
1.527410e+003;3.622069e-001
1.529339e+003;3.561972e-001
1.531267e+003;3.501740e-001
1.533196e+003;3.438483e-001
1.535124e+003;3.374406e-001
1.537053e+003;3.309795e-001
1.538981e+003;3.243845e-001
1.540910e+003;3.177626e-001
1.542838e+003;3.114706e-001
1.544767e+003;3.058778e-001
1.546695e+003;3.001794e-001
1.548624e+003;2.939283e-001
1.550553e+003;2.876212e-001
1.552481e+003;2.814005e-001
1.554410e+003;2.750435e-001
1.556338e+003;2.689438e-001
1.558267e+003;2.625012e-001
1.560195e+003;2.557440e-001
1.562124e+003;2.498640e-001
1.564052e+003;2.442030e-001
1.565981e+003;2.382292e-001
1.567910e+003;2.329279e-001
1.569838e+003;2.285032e-001
1.571767e+003;2.247874e-001
1.573695e+003;2.216994e-001
1.575624e+003;2.194496e-001
1.577552e+003;2.182553e-001
1.579481e+003;2.180448e-001
1.581409e+003;2.184662e-001
1.583338e+003;2.201647e-001
1.585266e+003;2.230704e-001
1.587195e+003;2.271426e-001
1.589124e+003;2.326874e-001
1.591052e+003;2.391481e-001
1.592981e+003;2.463385e-001
1.594909e+003;2.545587e-001
1.596838e+003;2.635908e-001
1.598766e+003;2.736551e-001
1.600695e+003;2.852046e-001
1.602623e+003;2.984425e-001
1.604552e+003;3.135427e-001
1.606480e+003;3.302687e-001
1.608409e+003;3.477703e-001
1.610338e+003;3.651666e-001
1.612266e+003;3.815276e-001
1.614195e+003;3.962137e-001
1.616123e+003;4.087907e-001
1.618052e+003;4.189289e-001
1.619980e+003;4.260911e-001
1.621909e+003;4.294452e-001
1.623837e+003;4.289014e-001
1.625766e+003;4.247451e-001
1.627694e+003;4.176876e-001
1.629623e+003;4.087440e-001
1.631552e+003;3.983401e-001
1.633480e+003;3.874453e-001
1.635409e+003;3.762715e-001
1.637337e+003;3.656421e-001
1.639266e+003;3.559535e-001
1.641194e+003;3.467961e-001
1.643123e+003;3.378641e-001
1.645051e+003;3.292440e-001
1.646980e+003;3.210347e-001
1.648909e+003;3.133993e-001
1.650837e+003;3.060205e-001
1.652766e+003;2.981568e-001
1.654694e+003;2.904270e-001
1.656623e+003;2.826811e-001
1.658551e+003;2.745489e-001
1.660480e+003;2.667403e-001
1.662408e+003;2.591709e-001
1.664337e+003;2.518232e-001
1.666266e+003;2.448563e-001
1.668194e+003;2.380207e-001
1.670123e+003;2.315457e-001
1.672051e+003;2.256540e-001
1.673980e+003;2.197947e-001
1.675908e+003;2.139469e-001
1.677837e+003;2.084778e-001
1.679765e+003;2.031960e-001
1.681694e+003;1.981406e-001
1.683622e+003;1.934787e-001
1.685551e+003;1.893019e-001
1.687479e+003;1.856707e-001
1.689408e+003;1.822693e-001
1.691337e+003;1.795230e-001
1.693265e+003;1.774728e-001
1.695194e+003;1.758760e-001
1.697122e+003;1.744837e-001
1.699051e+003;1.711432e-001
1.700979e+003;1.641333e-001
1.702908e+003;1.540143e-001
1.704836e+003;1.416667e-001
1.706765e+003;1.294572e-001
1.708693e+003;1.191740e-001
1.710622e+003;1.107821e-001
1.712551e+003;1.040420e-001
1.714479e+003;9.874500e-002
1.716408e+003;9.444605e-002
1.718336e+003;9.102602e-002
1.720265e+003;8.855262e-002
1.722193e+003;8.660683e-002
1.724122e+003;8.474857e-002
1.726050e+003;8.341980e-002
1.727979e+003;8.237697e-002
1.729908e+003;8.120072e-002
1.731836e+003;8.020007e-002
1.733765e+003;7.922016e-002
1.735693e+003;7.838591e-002
1.737622e+003;7.779496e-002
1.739550e+003;7.689422e-002
1.741479e+003;7.608135e-002
1.743407e+003;7.527899e-002
1.745336e+003;7.463650e-002
1.747265e+003;7.398064e-002
1.749193e+003;7.323965e-002
1.751122e+003;7.293650e-002
1.753050e+003;7.262667e-002
1.754979e+003;7.205398e-002
1.756907e+003;7.166740e-002
1.758836e+003;7.146224e-002
1.760764e+003;7.146744e-002
1.762693e+003;7.120074e-002
1.764621e+003;7.093911e-002
1.766550e+003;7.066719e-002
1.768479e+003;7.037016e-002
1.770407e+003;7.027008e-002
1.772336e+003;6.989874e-002
1.774264e+003;6.957664e-002
1.776193e+003;6.968217e-002
1.778121e+003;6.957975e-002
1.780050e+003;6.933282e-002
1.781978e+003;6.909741e-002
1.783907e+003;6.895032e-002
1.785835e+003;6.883515e-002
1.787764e+003;6.885270e-002
1.789693e+003;6.867445e-002
1.791621e+003;6.844358e-002
1.793550e+003;6.819063e-002
1.795478e+003;6.779291e-002
1.797407e+003;6.740920e-002
1.799335e+003;6.724434e-002
1.801264e+003;6.706776e-002
1.803192e+003;6.694362e-002
1.805121e+003;6.676468e-002
1.807049e+003;6.643296e-002
1.808978e+003;6.613819e-002
1.810907e+003;6.584146e-002
1.812835e+003;6.547365e-002
1.814764e+003;6.536495e-002
1.816692e+003;6.533337e-002
1.818621e+003;6.522497e-002
1.820549e+003;6.486784e-002
1.822478e+003;6.460124e-002
1.824406e+003;6.448433e-002
1.826335e+003;6.433983e-002
1.828264e+003;6.413638e-002
1.830192e+003;6.379361e-002
1.832121e+003;6.339709e-002
1.834049e+003;6.321976e-002
1.835978e+003;6.308220e-002
1.837906e+003;6.304660e-002
1.839835e+003;6.305426e-002
1.841763e+003;6.297600e-002
1.843692e+003;6.256653e-002
1.845620e+003;6.211019e-002
1.847549e+003;6.200824e-002
1.849478e+003;6.213550e-002
1.851406e+003;6.190755e-002
1.853335e+003;6.166727e-002
1.855263e+003;6.161897e-002
1.857192e+003;6.151698e-002
1.859120e+003;6.143682e-002
1.861049e+003;6.156642e-002
1.862977e+003;6.158979e-002
1.864906e+003;6.136202e-002
1.866834e+003;6.130054e-002
1.868763e+003;6.144106e-002
1.870692e+003;6.144094e-002
1.872620e+003;6.135137e-002
1.874549e+003;6.140801e-002
1.876477e+003;6.153832e-002
1.878406e+003;6.159056e-002
1.880334e+003;6.146907e-002
1.882263e+003;6.127551e-002
1.884191e+003;6.126716e-002
1.886120e+003;6.124163e-002
1.888048e+003;6.120325e-002
1.889977e+003;6.117483e-002
1.891906e+003;6.108451e-002
1.893834e+003;6.097293e-002
1.895763e+003;6.099086e-002
1.897691e+003;6.105755e-002
1.899620e+003;6.105755e-002
1.901548e+003;6.094243e-002
1.903477e+003;6.072528e-002
1.905405e+003;6.067045e-002
1.907334e+003;6.077639e-002
1.909262e+003;6.062347e-002
1.911191e+003;6.049347e-002
1.913120e+003;6.044110e-002
1.915048e+003;6.021701e-002
1.916977e+003;6.015186e-002
1.918905e+003;6.034233e-002
1.920834e+003;6.035227e-002
1.922762e+003;6.029135e-002
1.924691e+003;6.005109e-002
1.926619e+003;5.999631e-002
1.928548e+003;6.001019e-002
1.930477e+003;6.000049e-002
1.932405e+003;6.027860e-002
1.934334e+003;6.032569e-002
1.936262e+003;5.985173e-002
1.938191e+003;5.967671e-002
1.940119e+003;5.996595e-002
1.942048e+003;6.020917e-002
1.943976e+003;6.020742e-002
1.945905e+003;6.008808e-002
1.947833e+003;6.018401e-002
1.949762e+003;6.036396e-002
1.951691e+003;6.040534e-002
1.953619e+003;6.028108e-002
1.955548e+003;6.024396e-002
1.957476e+003;6.050619e-002
1.959405e+003;6.071442e-002
1.961333e+003;6.064043e-002
1.963262e+003;6.055650e-002
1.965190e+003;6.049766e-002
1.967119e+003;6.034332e-002
1.969047e+003;6.024887e-002
1.970976e+003;6.034511e-002
1.972905e+003;6.035874e-002
1.974833e+003;6.023871e-002
1.976762e+003;6.037820e-002
1.978690e+003;6.064634e-002
1.980619e+003;6.039099e-002
1.982547e+003;6.008572e-002
1.984476e+003;6.005756e-002
1.986404e+003;6.024004e-002
1.988333e+003;6.031770e-002
1.990261e+003;6.007248e-002
1.992190e+003;5.983287e-002
1.994119e+003;5.976982e-002
1.996047e+003;5.971412e-002
1.997976e+003;5.975412e-002
1.999904e+003;5.986086e-002
2.001833e+003;5.982907e-002
2.003761e+003;5.979884e-002
2.005690e+003;5.981066e-002
2.007618e+003;5.957451e-002
2.009547e+003;5.937023e-002
2.011476e+003;5.949976e-002
2.013404e+003;5.948638e-002
2.015333e+003;5.948425e-002
2.017261e+003;5.952795e-002
2.019190e+003;5.957527e-002
2.021118e+003;5.975043e-002
2.023047e+003;5.985489e-002
2.024975e+003;5.992959e-002
2.026904e+003;5.991304e-002
2.028833e+003;5.978461e-002
2.030761e+003;5.977694e-002
2.032690e+003;5.964969e-002
2.034618e+003;5.949417e-002
2.036547e+003;5.954106e-002
2.038475e+003;5.960176e-002
2.040404e+003;5.944774e-002
2.042332e+003;5.939899e-002
2.044261e+003;5.955205e-002
2.046189e+003;5.967904e-002
2.048118e+003;5.960871e-002
2.050047e+003;5.950340e-002
2.051975e+003;5.960742e-002
2.053904e+003;5.972002e-002
2.055832e+003;5.981005e-002
2.057761e+003;5.977918e-002
2.059689e+003;5.982945e-002
2.061618e+003;5.989760e-002
2.063546e+003;5.992183e-002
2.065475e+003;6.004535e-002
2.067404e+003;6.017336e-002
2.069332e+003;6.017187e-002
2.071260e+003;6.018260e-002
2.073189e+003;6.022234e-002
2.075118e+003;6.024370e-002
2.077046e+003;6.034168e-002
2.078975e+003;6.029154e-002
2.080903e+003;6.027251e-002
2.082832e+003;6.037031e-002
2.084760e+003;6.023756e-002
2.086689e+003;6.005992e-002
2.088617e+003;6.016304e-002
2.090546e+003;6.031781e-002
2.092475e+003;6.038235e-002
2.094403e+003;6.028214e-002
2.096332e+003;6.020537e-002
2.098260e+003;6.013694e-002
2.100189e+003;6.007328e-002
2.102117e+003;6.018763e-002
2.104046e+003;6.035444e-002
2.105974e+003;6.023334e-002
2.107903e+003;6.010360e-002
2.109832e+003;6.017180e-002
2.111760e+003;6.027506e-002
2.113688e+003;6.028880e-002
2.115617e+003;6.026455e-002
2.117546e+003;6.007936e-002
2.119474e+003;5.988254e-002
2.121403e+003;5.981713e-002
2.123331e+003;5.999509e-002
2.125260e+003;6.014660e-002
2.127188e+003;5.996827e-002
2.129117e+003;5.982899e-002
2.131045e+003;5.991707e-002
2.132974e+003;6.002990e-002
2.134903e+003;6.014786e-002
2.136831e+003;6.013838e-002
2.138760e+003;6.005828e-002
2.140688e+003;5.995290e-002
2.142617e+003;5.973393e-002
2.144545e+003;5.974618e-002
2.146474e+003;5.992670e-002
2.148402e+003;5.997143e-002
2.150331e+003;5.997820e-002
2.152260e+003;5.982770e-002
2.154188e+003;5.963475e-002
2.156117e+003;5.957481e-002
2.158045e+003;5.964285e-002
2.159974e+003;5.973119e-002
2.161902e+003;5.974557e-002
2.163831e+003;5.973891e-002
2.165759e+003;5.964874e-002
2.167688e+003;5.957705e-002
2.169616e+003;5.955128e-002
2.171545e+003;5.964026e-002
2.173474e+003;5.967196e-002
2.175402e+003;5.962608e-002
2.177331e+003;5.958435e-002
2.179259e+003;5.955212e-002
2.181188e+003;5.943087e-002
2.183116e+003;5.945344e-002
2.185045e+003;5.949953e-002
2.186973e+003;5.931580e-002
2.188902e+003;5.925773e-002
2.190831e+003;5.931098e-002
2.192759e+003;5.918687e-002
2.194688e+003;5.932024e-002
2.196616e+003;5.951180e-002
2.198545e+003;5.950405e-002
2.200473e+003;5.949755e-002
2.202402e+003;5.944401e-002
2.204330e+003;5.942350e-002
2.206259e+003;5.928158e-002
2.208188e+003;5.917274e-002
2.210116e+003;5.937259e-002
2.212044e+003;5.949672e-002
2.213973e+003;5.948281e-002
2.215902e+003;5.942996e-002
2.217830e+003;5.935002e-002
2.219759e+003;5.923669e-002
2.221687e+003;5.933817e-002
2.223616e+003;5.936655e-002
2.225544e+003;5.917848e-002
2.227473e+003;5.905509e-002
2.229401e+003;5.915926e-002
2.231330e+003;5.927140e-002
2.233259e+003;5.933575e-002
2.235187e+003;5.950709e-002
2.237116e+003;5.953559e-002
2.239044e+003;5.928777e-002
2.240973e+003;5.932754e-002
2.242901e+003;5.950150e-002
2.244830e+003;5.949231e-002
2.246758e+003;5.956603e-002
2.248687e+003;5.943812e-002
2.250615e+003;5.935576e-002
2.252544e+003;5.951397e-002
2.254473e+003;5.952571e-002
2.256401e+003;5.926301e-002
2.258330e+003;5.909848e-002
2.260258e+003;5.911636e-002
2.262187e+003;5.913424e-002
2.264115e+003;5.912771e-002
2.266044e+003;5.927729e-002
2.267972e+003;5.939755e-002
2.269901e+003;5.940443e-002
2.271830e+003;5.933054e-002
2.273758e+003;5.939014e-002
2.275687e+003;5.942973e-002
2.277615e+003;5.942019e-002
2.279544e+003;5.942274e-002
2.281472e+003;5.961753e-002
2.283401e+003;5.983222e-002
2.285329e+003;5.997946e-002
2.287258e+003;5.986744e-002
2.289187e+003;5.955657e-002
2.291115e+003;5.960069e-002
2.293043e+003;5.979652e-002
2.294972e+003;5.988954e-002
2.296901e+003;5.997660e-002
2.298829e+003;5.993354e-002
2.300758e+003;6.004132e-002
2.302686e+003;6.010608e-002
2.304615e+003;6.006076e-002
2.306543e+003;5.997755e-002
2.308472e+003;6.010090e-002
2.310400e+003;5.986425e-002
2.312329e+003;5.963121e-002
2.314258e+003;5.989345e-002
2.316186e+003;6.003926e-002
2.318115e+003;6.012175e-002
2.320043e+003;6.004348e-002
2.321972e+003;5.981713e-002
2.323900e+003;5.974808e-002
2.325829e+003;5.956721e-002
2.327757e+003;5.940796e-002
2.329686e+003;5.927455e-002
2.331615e+003;5.934714e-002
2.333543e+003;5.941180e-002
2.335472e+003;5.934163e-002
2.337400e+003;5.943053e-002
2.339329e+003;5.947908e-002
2.341257e+003;5.966516e-002
2.343186e+003;6.001914e-002
2.345114e+003;6.018063e-002
2.347043e+003;6.030666e-002
2.348971e+003;6.038726e-002
2.350900e+003;6.037150e-002
2.352829e+003;6.014702e-002
2.354757e+003;5.988489e-002
2.356686e+003;5.952324e-002
2.358614e+003;5.912293e-002
2.360543e+003;5.912821e-002
2.362471e+003;5.936317e-002
2.364400e+003;5.954695e-002
2.366328e+003;5.974918e-002
2.368257e+003;5.990182e-002
2.370186e+003;6.024019e-002
2.372114e+003;6.068036e-002
2.374042e+003;6.104306e-002
2.375971e+003;6.124075e-002
2.377900e+003;6.160606e-002
2.379828e+003;6.192352e-002
2.381757e+003;6.194014e-002
2.383685e+003;6.201749e-002
2.385614e+003;6.230087e-002
2.387542e+003;6.233770e-002
2.389471e+003;6.214650e-002
2.391399e+003;6.232971e-002
2.393328e+003;6.266589e-002
2.395257e+003;6.272418e-002
2.397185e+003;6.296647e-002
2.399114e+003;6.335435e-002
2.401042e+003;6.364554e-002
2.402971e+003;6.376526e-002
2.404899e+003;6.373851e-002
2.406828e+003;6.395237e-002
2.408756e+003;6.436657e-002
2.410685e+003;6.475437e-002
2.412614e+003;6.491805e-002
2.414542e+003;6.515182e-002
2.416471e+003;6.525727e-002
2.418399e+003;6.548753e-002
2.420328e+003;6.596968e-002
2.422256e+003;6.631054e-002
2.424185e+003;6.652324e-002
2.426113e+003;6.661138e-002
2.428042e+003;6.678202e-002
2.429970e+003;6.690005e-002
2.431899e+003;6.691126e-002
2.433828e+003;6.712422e-002
2.435756e+003;6.751138e-002
2.437685e+003;6.752206e-002
2.439613e+003;6.726636e-002
2.441542e+003;6.740034e-002
2.443470e+003;6.757385e-002
2.445399e+003;6.756418e-002
2.447327e+003;6.791055e-002
2.449256e+003;6.812000e-002
2.451185e+003;6.788018e-002
2.453113e+003;6.784977e-002
2.455042e+003;6.798684e-002
2.456970e+003;6.816582e-002
2.458899e+003;6.822905e-002
2.460827e+003;6.829628e-002
2.462756e+003;6.843850e-002
2.464684e+003;6.861100e-002
2.466613e+003;6.865442e-002
2.468542e+003;6.862648e-002
2.470470e+003;6.869509e-002
2.472398e+003;6.887428e-002
2.474327e+003;6.908347e-002
2.476256e+003;6.919152e-002
2.478184e+003;6.922738e-002
2.480113e+003;6.924161e-002
2.482041e+003;6.942642e-002
2.483970e+003;6.958916e-002
2.485898e+003;6.952596e-002
2.487827e+003;6.938351e-002
2.489755e+003;6.951255e-002
2.491684e+003;6.965525e-002
2.493613e+003;6.965898e-002
2.495541e+003;6.986367e-002
2.497470e+003;6.993937e-002
2.499398e+003;6.995798e-002
2.501327e+003;6.992209e-002
2.503255e+003;6.994451e-002
2.505184e+003;7.018248e-002
2.507112e+003;7.046384e-002
2.509041e+003;7.058681e-002
2.510969e+003;7.086506e-002
2.512898e+003;7.093880e-002
2.514827e+003;7.060906e-002
2.516755e+003;7.045070e-002
2.518684e+003;7.056046e-002
2.520612e+003;7.067784e-002
2.522541e+003;7.091109e-002
2.524469e+003;7.090150e-002
2.526398e+003;7.070482e-002
2.528326e+003;7.077087e-002
2.530255e+003;7.124430e-002
2.532184e+003;7.130185e-002
2.534112e+003;7.101012e-002
2.536041e+003;7.107767e-002
2.537969e+003;7.108918e-002
2.539898e+003;7.108778e-002
2.541826e+003;7.132946e-002
2.543755e+003;7.175881e-002
2.545683e+003;7.219133e-002
2.547612e+003;7.233154e-002
2.549541e+003;7.243464e-002
2.551469e+003;7.250335e-002
2.553397e+003;7.264743e-002
2.555326e+003;7.312270e-002
2.557255e+003;7.355792e-002
2.559183e+003;7.355274e-002
2.561112e+003;7.352915e-002
2.563040e+003;7.368295e-002
2.564969e+003;7.399428e-002
2.566897e+003;7.423475e-002
2.568826e+003;7.410968e-002
2.570754e+003;7.417563e-002
2.572683e+003;7.474515e-002
2.574612e+003;7.530138e-002
2.576540e+003;7.573792e-002
2.578469e+003;7.579882e-002
2.580397e+003;7.566293e-002
2.582326e+003;7.585584e-002
2.584254e+003;7.609249e-002
2.586183e+003;7.630758e-002
2.588111e+003;7.669010e-002
2.590040e+003;7.673604e-002
2.591969e+003;7.664938e-002
2.593897e+003;7.685308e-002
2.595826e+003;7.697728e-002
2.597754e+003;7.732867e-002
2.599683e+003;7.766858e-002
2.601611e+003;7.787384e-002
2.603540e+003;7.791265e-002
2.605468e+003;7.793830e-002
2.607397e+003;7.837725e-002
2.609325e+003;7.876220e-002
2.611254e+003;7.856216e-002
2.613183e+003;7.847978e-002
2.615111e+003;7.895056e-002
2.617040e+003;7.901332e-002
2.618968e+003;7.878964e-002
2.620897e+003;7.883148e-002
2.622825e+003;7.906598e-002
2.624754e+003;7.917260e-002
2.626682e+003;7.906312e-002
2.628611e+003;7.903021e-002
2.630540e+003;7.905545e-002
2.632468e+003;7.915650e-002
2.634396e+003;7.922489e-002
2.636325e+003;7.902750e-002
2.638254e+003;7.892791e-002
2.640182e+003;7.872137e-002
2.642111e+003;7.855207e-002
2.644039e+003;7.867815e-002
2.645968e+003;7.875918e-002
2.647896e+003;7.874901e-002
2.649825e+003;7.901220e-002
2.651753e+003;7.922557e-002
2.653682e+003;7.928339e-002
2.655611e+003;7.922588e-002
2.657539e+003;7.912744e-002
2.659468e+003;7.914883e-002
2.661396e+003;7.946876e-002
2.663325e+003;7.963622e-002
2.665253e+003;7.962372e-002
2.667182e+003;7.997706e-002
2.669110e+003;8.017815e-002
2.671039e+003;8.025726e-002
2.672968e+003;8.069673e-002
2.674896e+003;8.107739e-002
2.676825e+003;8.125545e-002
2.678753e+003;8.104093e-002
2.680682e+003;8.101385e-002
2.682610e+003;8.147927e-002
2.684539e+003;8.160020e-002
2.686467e+003;8.179153e-002
2.688396e+003;8.223756e-002
2.690324e+003;8.232346e-002
2.692253e+003;8.254784e-002
2.694182e+003;8.298827e-002
2.696110e+003;8.320192e-002
2.698039e+003;8.335327e-002
2.699967e+003;8.340141e-002
2.701896e+003;8.349095e-002
2.703824e+003;8.368672e-002
2.705753e+003;8.393089e-002
2.707681e+003;8.398774e-002
2.709610e+003;8.405585e-002
2.711539e+003;8.456102e-002
2.713467e+003;8.490732e-002
2.715396e+003;8.494036e-002
2.717324e+003;8.492666e-002
2.719253e+003;8.482272e-002
2.721181e+003;8.515682e-002
2.723110e+003;8.537061e-002
2.725038e+003;8.532721e-002
2.726967e+003;8.581407e-002
2.728896e+003;8.629001e-002
2.730824e+003;8.629882e-002
2.732752e+003;8.631422e-002
2.734681e+003;8.676707e-002
2.736610e+003;8.726227e-002
2.738538e+003;8.734496e-002
2.740467e+003;8.750033e-002
2.742395e+003;8.768866e-002
2.744324e+003;8.811592e-002
2.746252e+003;8.840402e-002
2.748181e+003;8.845707e-002
2.750109e+003;8.870223e-002
2.752038e+003;8.887541e-002
2.753967e+003;8.910437e-002
2.755895e+003;8.929760e-002
2.757824e+003;8.923819e-002
2.759752e+003;8.926167e-002
2.761681e+003;8.964311e-002
2.763609e+003;9.002626e-002
2.765538e+003;9.018181e-002
2.767466e+003;9.028259e-002
2.769395e+003;9.041771e-002
2.771323e+003;9.063790e-002
2.773252e+003;9.086028e-002
2.775181e+003;9.102720e-002
2.777109e+003;9.119754e-002
2.779038e+003;9.127247e-002
2.780966e+003;9.122403e-002
2.782895e+003;9.126647e-002
2.784823e+003;9.166513e-002
2.786752e+003;9.178104e-002
2.788680e+003;9.189913e-002
2.790609e+003;9.212090e-002
2.792538e+003;9.231232e-002
2.794466e+003;9.262869e-002
2.796395e+003;9.295464e-002
2.798323e+003;9.310526e-002
2.800252e+003;9.317411e-002
2.802180e+003;9.339866e-002
2.804109e+003;9.381121e-002
2.806037e+003;9.420585e-002
2.807966e+003;9.431189e-002
2.809895e+003;9.431444e-002
2.811823e+003;9.456170e-002
2.813751e+003;9.480214e-002
2.815680e+003;9.480700e-002
2.817609e+003;9.483783e-002
2.819537e+003;9.498744e-002
2.821466e+003;9.533025e-002
2.823394e+003;9.572411e-002
2.825323e+003;9.609205e-002
2.827251e+003;9.608353e-002
2.829180e+003;9.601660e-002
2.831108e+003;9.658939e-002
2.833037e+003;9.717227e-002
2.834966e+003;9.753525e-002
2.836894e+003;9.792348e-002
2.838823e+003;9.825394e-002
2.840751e+003;9.882698e-002
2.842680e+003;9.974325e-002
2.844608e+003;1.007033e-001
2.846537e+003;1.014942e-001
2.848465e+003;1.024381e-001
2.850394e+003;1.034738e-001
2.852323e+003;1.043978e-001
2.854251e+003;1.051731e-001
2.856180e+003;1.056549e-001
2.858108e+003;1.064466e-001
2.860037e+003;1.068727e-001
2.861965e+003;1.071096e-001
2.863894e+003;1.076234e-001
2.865822e+003;1.081790e-001
2.867751e+003;1.088466e-001
2.869679e+003;1.096430e-001
2.871608e+003;1.100570e-001
2.873536e+003;1.102228e-001
2.875465e+003;1.103424e-001
2.877394e+003;1.103605e-001
2.879322e+003;1.104016e-001
2.881251e+003;1.102614e-001
2.883179e+003;1.100432e-001
2.885108e+003;1.101311e-001
2.887036e+003;1.103767e-001
2.888965e+003;1.102087e-001
2.890893e+003;1.100942e-001
2.892822e+003;1.102068e-001
2.894750e+003;1.104177e-001
2.896679e+003;1.107102e-001
2.898608e+003;1.109105e-001
2.900536e+003;1.112491e-001
2.902465e+003;1.118660e-001
2.904393e+003;1.123236e-001
2.906322e+003;1.128674e-001
2.908250e+003;1.136338e-001
2.910179e+003;1.141963e-001
2.912107e+003;1.148049e-001
2.914036e+003;1.155246e-001
2.915965e+003;1.165568e-001
2.917893e+003;1.178730e-001
2.919822e+003;1.190948e-001
2.921750e+003;1.203351e-001
2.923679e+003;1.211927e-001
2.925607e+003;1.218345e-001
2.927536e+003;1.227190e-001
2.929464e+003;1.235762e-001
2.931393e+003;1.238905e-001
2.933322e+003;1.236061e-001
2.935250e+003;1.231815e-001
2.937178e+003;1.223360e-001
2.939107e+003;1.214396e-001
2.941036e+003;1.204933e-001
2.942964e+003;1.195064e-001
2.944893e+003;1.186173e-001
2.946821e+003;1.175884e-001
2.948750e+003;1.165217e-001
2.950678e+003;1.154929e-001
2.952607e+003;1.147885e-001
2.954535e+003;1.142014e-001
2.956464e+003;1.138894e-001
2.958393e+003;1.136187e-001
2.960321e+003;1.131909e-001
2.962250e+003;1.129535e-001
2.964178e+003;1.130455e-001
2.966107e+003;1.132785e-001
2.968035e+003;1.133293e-001
2.969964e+003;1.133389e-001
2.971892e+003;1.134183e-001
2.973821e+003;1.134880e-001
2.975750e+003;1.132382e-001
2.977678e+003;1.129823e-001
2.979607e+003;1.126576e-001
2.981535e+003;1.122925e-001
2.983464e+003;1.118286e-001
2.985392e+003;1.111587e-001
2.987321e+003;1.106233e-001
2.989249e+003;1.102194e-001
2.991178e+003;1.095411e-001
2.993106e+003;1.088888e-001
2.995035e+003;1.084215e-001
2.996964e+003;1.078229e-001
2.998892e+003;1.073542e-001
3.000821e+003;1.072778e-001
3.002749e+003;1.069711e-001
3.004678e+003;1.063962e-001
3.006606e+003;1.061615e-001
3.008535e+003;1.063819e-001
3.010463e+003;1.066918e-001
3.012392e+003;1.066858e-001
3.014321e+003;1.066760e-001
3.016249e+003;1.068581e-001
3.018177e+003;1.070201e-001
3.020106e+003;1.073275e-001
3.022035e+003;1.078160e-001
3.023963e+003;1.081261e-001
3.025892e+003;1.084192e-001
3.027820e+003;1.087361e-001
3.029749e+003;1.089907e-001
3.031677e+003;1.095422e-001
3.033606e+003;1.099196e-001
3.035534e+003;1.101888e-001
3.037463e+003;1.106703e-001
3.039392e+003;1.113063e-001
3.041320e+003;1.118110e-001
3.043249e+003;1.124981e-001
3.045177e+003;1.130989e-001
3.047106e+003;1.138080e-001
3.049034e+003;1.147160e-001
3.050963e+003;1.151511e-001
3.052891e+003;1.152771e-001
3.054820e+003;1.157684e-001
3.056749e+003;1.164305e-001
3.058677e+003;1.168394e-001
3.060606e+003;1.174339e-001
3.062534e+003;1.178735e-001
3.064463e+003;1.180259e-001
3.066391e+003;1.181034e-001
3.068320e+003;1.182331e-001
3.070248e+003;1.184208e-001
3.072177e+003;1.187279e-001
3.074105e+003;1.189412e-001
3.076034e+003;1.189009e-001
3.077963e+003;1.186919e-001
3.079891e+003;1.184963e-001
3.081820e+003;1.183467e-001
3.083748e+003;1.181184e-001
3.085677e+003;1.179638e-001
3.087605e+003;1.175792e-001
3.089534e+003;1.169404e-001
3.091462e+003;1.166029e-001
3.093391e+003;1.164900e-001
3.095320e+003;1.162801e-001
3.097248e+003;1.158558e-001
3.099177e+003;1.152907e-001
3.101105e+003;1.150954e-001
3.103034e+003;1.147312e-001
3.104962e+003;1.145652e-001
3.106891e+003;1.145687e-001
3.108819e+003;1.143764e-001
3.110748e+003;1.138759e-001
3.112677e+003;1.137817e-001
3.114605e+003;1.139373e-001
3.116533e+003;1.135109e-001
3.118462e+003;1.130698e-001
3.120391e+003;1.127011e-001
3.122319e+003;1.125038e-001
3.124248e+003;1.127842e-001
3.126176e+003;1.131348e-001
3.128105e+003;1.134567e-001
3.130033e+003;1.136616e-001
3.131962e+003;1.138910e-001
3.133890e+003;1.142009e-001
3.135819e+003;1.145706e-001
3.137748e+003;1.148217e-001
3.139676e+003;1.150306e-001
3.141605e+003;1.148646e-001
3.143533e+003;1.151250e-001
3.145462e+003;1.160043e-001
3.147390e+003;1.165716e-001
3.149319e+003;1.169402e-001
3.151247e+003;1.175225e-001
3.153176e+003;1.183039e-001
3.155104e+003;1.190379e-001
3.157033e+003;1.194490e-001
3.158962e+003;1.197977e-001
3.160890e+003;1.206843e-001
3.162819e+003;1.216080e-001
3.164747e+003;1.223700e-001
3.166676e+003;1.230277e-001
3.168604e+003;1.239796e-001
3.170533e+003;1.247714e-001
3.172461e+003;1.254961e-001
3.174390e+003;1.267419e-001
3.176319e+003;1.279033e-001
3.178247e+003;1.286319e-001
3.180176e+003;1.294632e-001
3.182104e+003;1.305915e-001
3.184033e+003;1.316639e-001
3.185961e+003;1.325116e-001
3.187890e+003;1.334002e-001
3.189818e+003;1.343852e-001
3.191747e+003;1.351511e-001
3.193676e+003;1.363723e-001
3.195604e+003;1.378413e-001
3.197532e+003;1.389711e-001
3.199461e+003;1.399257e-001
3.201390e+003;1.408692e-001
3.203318e+003;1.421196e-001
3.205247e+003;1.434178e-001
3.207175e+003;1.445369e-001
3.209104e+003;1.454851e-001
3.211032e+003;1.464122e-001
3.212961e+003;1.476264e-001
3.214889e+003;1.488600e-001
3.216818e+003;1.501272e-001
3.218747e+003;1.514295e-001
3.220675e+003;1.526357e-001
3.222604e+003;1.536353e-001
3.224532e+003;1.547689e-001
3.226461e+003;1.562874e-001
3.228389e+003;1.579169e-001
3.230318e+003;1.593605e-001
3.232246e+003;1.611586e-001
3.234175e+003;1.627660e-001
3.236104e+003;1.642532e-001
3.238032e+003;1.660265e-001
3.239961e+003;1.677156e-001
3.241889e+003;1.692090e-001
3.243818e+003;1.707936e-001
3.245746e+003;1.727771e-001
3.247675e+003;1.748438e-001
3.249603e+003;1.769315e-001
3.251532e+003;1.794274e-001
3.253460e+003;1.819760e-001
3.255389e+003;1.840090e-001
3.257318e+003;1.857187e-001
3.259246e+003;1.879762e-001
3.261175e+003;1.907433e-001
3.263103e+003;1.928911e-001
3.265032e+003;1.949005e-001
3.266960e+003;1.970098e-001
3.268889e+003;1.991133e-001
3.270817e+003;2.012180e-001
3.272746e+003;2.028507e-001
3.274675e+003;2.043730e-001
3.276603e+003;2.054641e-001
3.278531e+003;2.059084e-001
3.280460e+003;2.062657e-001
3.282389e+003;2.063019e-001
3.284317e+003;2.057959e-001
3.286246e+003;2.046814e-001
3.288174e+003;2.035084e-001
3.290103e+003;2.027238e-001
3.292031e+003;2.012235e-001
3.293960e+003;1.988989e-001
3.295888e+003;1.968459e-001
3.297817e+003;1.950202e-001
3.299746e+003;1.927031e-001
3.301674e+003;1.901494e-001
3.303603e+003;1.873274e-001
3.305531e+003;1.842877e-001
3.307460e+003;1.817484e-001
3.309388e+003;1.792035e-001
3.311317e+003;1.762320e-001
3.313245e+003;1.733190e-001
3.315174e+003;1.707293e-001
3.317103e+003;1.682873e-001
3.319031e+003;1.658032e-001
3.320960e+003;1.635149e-001
3.322888e+003;1.608843e-001
3.324817e+003;1.581599e-001
3.326745e+003;1.560435e-001
3.328674e+003;1.541311e-001
3.330602e+003;1.519218e-001
3.332531e+003;1.494712e-001
3.334459e+003;1.475893e-001
3.336388e+003;1.457744e-001
3.338317e+003;1.435076e-001
3.340245e+003;1.417440e-001
3.342174e+003;1.403639e-001
3.344102e+003;1.385240e-001
3.346031e+003;1.366338e-001
3.347959e+003;1.348978e-001
3.349888e+003;1.337430e-001
3.351816e+003;1.325663e-001
3.353745e+003;1.311412e-001
3.355674e+003;1.297684e-001
3.357602e+003;1.284449e-001
3.359531e+003;1.273616e-001
3.361459e+003;1.261461e-001
3.363388e+003;1.249358e-001
3.365316e+003;1.241397e-001
3.367245e+003;1.234259e-001
3.369173e+003;1.227301e-001
3.371102e+003;1.220150e-001
3.373031e+003;1.209388e-001
3.374959e+003;1.199629e-001
3.376887e+003;1.192574e-001
3.378816e+003;1.183985e-001
3.380745e+003;1.179009e-001
3.382673e+003;1.172148e-001
3.384602e+003;1.161509e-001
3.386530e+003;1.157660e-001
3.388459e+003;1.151781e-001
3.390387e+003;1.139942e-001
3.392316e+003;1.130868e-001
3.394244e+003;1.123243e-001
3.396173e+003;1.116646e-001
3.398102e+003;1.111454e-001
3.400030e+003;1.105363e-001
3.401959e+003;1.097945e-001
3.403887e+003;1.090816e-001
3.405816e+003;1.084035e-001
3.407744e+003;1.076902e-001
3.409673e+003;1.067904e-001
3.411601e+003;1.060376e-001
3.413530e+003;1.055090e-001
3.415458e+003;1.047389e-001
3.417387e+003;1.041120e-001
3.419316e+003;1.037072e-001
3.421244e+003;1.030350e-001
3.423173e+003;1.023275e-001
3.425101e+003;1.016468e-001
3.427030e+003;1.010149e-001
3.428958e+003;1.000064e-001
3.430887e+003;9.889122e-002
3.432815e+003;9.849185e-002
3.434744e+003;9.813064e-002
3.436673e+003;9.739831e-002
3.438601e+003;9.641051e-002
3.440530e+003;9.592853e-002
3.442458e+003;9.586539e-002
3.444387e+003;9.582119e-002
3.446315e+003;9.553341e-002
3.448244e+003;9.478948e-002
3.450172e+003;9.404667e-002
3.452101e+003;9.367352e-002
3.454030e+003;9.340301e-002
3.455958e+003;9.329374e-002
3.457886e+003;9.337088e-002
3.459815e+003;9.305139e-002
3.461744e+003;9.206675e-002
3.463672e+003;9.148749e-002
3.465601e+003;9.153139e-002
3.467529e+003;9.150226e-002
3.469458e+003;9.127522e-002
3.471386e+003;9.086645e-002
3.473315e+003;9.052417e-002
3.475243e+003;9.008317e-002
3.477172e+003;8.944369e-002
3.479101e+003;8.897576e-002
3.481029e+003;8.851434e-002
3.482958e+003;8.827209e-002
3.484886e+003;8.863128e-002
3.486815e+003;8.871703e-002
3.488743e+003;8.851020e-002
3.490672e+003;8.816268e-002
3.492600e+003;8.753522e-002
3.494529e+003;8.725535e-002
3.496458e+003;8.697347e-002
3.498386e+003;8.619116e-002
3.500315e+003;8.601914e-002
3.502243e+003;8.626519e-002
3.504172e+003;8.593715e-002
3.506100e+003;8.544482e-002
3.508029e+003;8.524334e-002
3.509957e+003;8.503429e-002
3.511886e+003;8.477886e-002
3.513814e+003;8.441036e-002
3.515743e+003;8.395586e-002
3.517672e+003;8.352039e-002
3.519600e+003;8.318069e-002
3.521529e+003;8.302301e-002
3.523457e+003;8.271757e-002
3.525386e+003;8.225082e-002
3.527314e+003;8.208551e-002
3.529243e+003;8.231193e-002
3.531171e+003;8.188642e-002
3.533100e+003;8.119002e-002
3.535029e+003;8.089791e-002
3.536957e+003;8.053318e-002
3.538885e+003;8.034464e-002
3.540814e+003;8.012506e-002
3.542743e+003;7.997113e-002
3.544671e+003;7.998957e-002
3.546600e+003;7.941907e-002
3.548528e+003;7.879489e-002
3.550457e+003;7.815883e-002
3.552385e+003;7.749135e-002
3.554314e+003;7.750802e-002
3.556242e+003;7.743464e-002
3.558171e+003;7.685486e-002
3.560100e+003;7.663262e-002
3.562028e+003;7.656883e-002
3.563957e+003;7.619017e-002
3.565885e+003;7.565157e-002
3.567814e+003;7.552890e-002
3.569742e+003;7.532156e-002
3.571671e+003;7.478438e-002
3.573599e+003;7.399055e-002
3.575528e+003;7.354356e-002
3.577457e+003;7.363854e-002
3.579385e+003;7.346624e-002
3.581314e+003;7.315133e-002
3.583242e+003;7.306601e-002
3.585171e+003;7.263277e-002
3.587099e+003;7.202175e-002
3.589028e+003;7.192051e-002
3.590956e+003;7.163731e-002
3.592885e+003;7.138858e-002
3.594813e+003;7.124207e-002
3.596742e+003;7.050452e-002
3.598671e+003;6.986041e-002
3.600599e+003;6.992108e-002
3.602528e+003;6.974371e-002
3.604456e+003;6.915099e-002
3.606385e+003;6.822731e-002
3.608313e+003;6.763592e-002
3.610242e+003;6.742101e-002
3.612170e+003;6.764598e-002
3.614099e+003;6.761114e-002
3.616028e+003;6.706857e-002
3.617956e+003;6.639443e-002
3.619885e+003;6.579145e-002
3.621813e+003;6.559476e-002
3.623742e+003;6.552012e-002
3.625670e+003;6.515878e-002
3.627599e+003;6.422472e-002
3.629527e+003;6.320091e-002
3.631456e+003;6.295620e-002
3.633385e+003;6.317125e-002
3.635313e+003;6.309511e-002
3.637241e+003;6.242396e-002
3.639170e+003;6.176111e-002
3.641099e+003;6.123984e-002
3.643027e+003;6.024506e-002
3.644956e+003;5.932902e-002
3.646884e+003;5.902373e-002
3.648813e+003;5.841327e-002
3.650741e+003;5.753596e-002
3.652670e+003;5.686183e-002
3.654598e+003;5.654789e-002
3.656527e+003;5.608338e-002
3.658456e+003;5.554643e-002
3.660384e+003;5.464873e-002
3.662313e+003;5.362127e-002
3.664241e+003;5.300364e-002
3.666170e+003;5.257814e-002
3.668098e+003;5.203247e-002
3.670027e+003;5.114333e-002
3.671955e+003;5.035147e-002
3.673884e+003;5.000231e-002
3.675813e+003;4.983527e-002
3.677741e+003;4.941476e-002
3.679669e+003;4.812036e-002
3.681598e+003;4.688581e-002
3.683527e+003;4.626621e-002
3.685455e+003;4.586372e-002
3.687384e+003;4.544736e-002
3.689312e+003;4.508175e-002
3.691241e+003;4.508826e-002
3.693169e+003;4.481273e-002
3.695098e+003;4.400603e-002
3.697026e+003;4.347457e-002
3.698955e+003;4.338357e-002
3.700884e+003;4.316748e-002
3.702812e+003;4.274635e-002
3.704741e+003;4.248586e-002
3.706669e+003;4.244450e-002
3.708598e+003;4.218969e-002
3.710526e+003;4.203359e-002
3.712455e+003;4.186152e-002
3.714383e+003;4.187013e-002
3.716312e+003;4.164918e-002
3.718240e+003;4.119287e-002
3.720169e+003;4.088739e-002
3.722098e+003;4.081019e-002
3.724026e+003;4.067866e-002
3.725955e+003;4.055161e-002
3.727883e+003;4.055034e-002
3.729812e+003;4.052568e-002
3.731740e+003;4.044824e-002
3.733669e+003;4.018909e-002
3.735597e+003;3.997045e-002
3.737526e+003;4.027266e-002
3.739455e+003;4.041788e-002
3.741383e+003;4.000634e-002
3.743312e+003;3.967629e-002
3.745240e+003;3.983714e-002
3.747169e+003;3.992279e-002
3.749097e+003;3.961254e-002
3.751026e+003;3.947474e-002
3.752954e+003;3.929131e-002
3.754883e+003;3.951491e-002
3.756812e+003;3.962474e-002
3.758740e+003;3.903698e-002
3.760668e+003;3.860205e-002
3.762597e+003;3.872947e-002
3.764526e+003;3.898924e-002
3.766454e+003;3.905692e-002
3.768383e+003;3.869114e-002
3.770311e+003;3.866162e-002
3.772240e+003;3.880779e-002
3.774168e+003;3.903893e-002
3.776097e+003;3.901359e-002
3.778025e+003;3.878844e-002
3.779954e+003;3.887254e-002
3.781883e+003;3.899993e-002
3.783811e+003;3.899790e-002
3.785740e+003;3.930959e-002
3.787668e+003;3.943308e-002
3.789597e+003;3.936118e-002
3.791525e+003;3.950468e-002
3.793454e+003;3.955008e-002
3.795382e+003;3.940994e-002
3.797311e+003;3.913552e-002
3.799240e+003;3.873229e-002
3.801168e+003;3.848781e-002
3.803097e+003;3.873552e-002
3.805025e+003;3.898416e-002
3.806954e+003;3.890062e-002
3.808882e+003;3.898043e-002
3.810811e+003;3.944734e-002
3.812739e+003;3.960920e-002
3.814668e+003;3.896006e-002
3.816596e+003;3.896785e-002
3.818525e+003;3.928188e-002
3.820454e+003;3.913302e-002
3.822382e+003;3.906206e-002
3.824311e+003;3.929991e-002
3.826239e+003;3.938523e-002
3.828168e+003;3.944041e-002
3.830096e+003;3.953164e-002
3.832025e+003;3.970152e-002
3.833953e+003;4.018094e-002
3.835882e+003;4.023983e-002
3.837811e+003;4.024419e-002
3.839739e+003;3.998312e-002
3.841667e+003;3.934797e-002
3.843596e+003;3.927252e-002
3.845525e+003;3.999337e-002
3.847453e+003;4.054623e-002
3.849382e+003;4.056617e-002
3.851310e+003;4.004038e-002
3.853239e+003;3.954855e-002
3.855167e+003;4.012658e-002
3.857096e+003;4.065090e-002
3.859024e+003;4.043733e-002
3.860953e+003;4.067873e-002
3.862882e+003;4.115279e-002
3.864810e+003;4.142583e-002
3.866739e+003;4.162960e-002
3.868667e+003;4.136879e-002
3.870596e+003;4.125885e-002
3.872524e+003;4.150275e-002
3.874453e+003;4.173562e-002
3.876381e+003;4.191246e-002
3.878310e+003;4.202892e-002
3.880239e+003;4.210886e-002
3.882167e+003;4.211266e-002
3.884096e+003;4.233614e-002
3.886024e+003;4.241370e-002
3.887953e+003;4.251684e-002
3.889881e+003;4.251761e-002
3.891810e+003;4.310999e-002
3.893738e+003;4.374034e-002
3.895667e+003;4.351137e-002
3.897595e+003;4.312661e-002
3.899524e+003;4.315782e-002
3.901453e+003;4.330712e-002
3.903381e+003;4.370315e-002
3.905310e+003;4.352851e-002
3.907238e+003;4.341909e-002
3.909167e+003;4.399961e-002
3.911095e+003;4.446318e-002
3.913024e+003;4.435326e-002
3.914952e+003;4.428156e-002
3.916881e+003;4.457809e-002
3.918810e+003;4.475208e-002
3.920738e+003;4.481670e-002
3.922667e+003;4.486875e-002
3.924595e+003;4.477552e-002
3.926524e+003;4.484487e-002
3.928452e+003;4.510149e-002
3.930381e+003;4.509373e-002
3.932309e+003;4.503834e-002
3.934238e+003;4.556900e-002
3.936167e+003;4.576290e-002
3.938095e+003;4.545924e-002
3.940023e+003;4.521995e-002
3.941952e+003;4.521822e-002
3.943881e+003;4.556491e-002
3.945809e+003;4.610296e-002
3.947738e+003;4.620463e-002
3.949666e+003;4.604910e-002
3.951595e+003;4.608656e-002
3.953523e+003;4.644903e-002
3.955452e+003;4.674844e-002
3.957380e+003;4.677490e-002
3.959309e+003;4.651066e-002
3.961238e+003;4.650166e-002
3.963166e+003;4.700837e-002
3.965095e+003;4.740720e-002
3.967023e+003;4.771918e-002
3.968952e+003;4.754791e-002
3.970880e+003;4.724067e-002
3.972809e+003;4.692671e-002
3.974737e+003;4.698563e-002
3.976666e+003;4.722113e-002
3.978594e+003;4.707786e-002
3.980523e+003;4.711863e-002
3.982452e+003;4.739142e-002
3.984380e+003;4.732021e-002
3.986309e+003;4.737442e-002
3.988237e+003;4.775753e-002
3.990166e+003;4.807554e-002
3.992094e+003;4.782267e-002
3.994023e+003;4.742534e-002
3.995951e+003;4.761631e-002
3.997880e+003;4.770198e-002
3.999809e+003;4.746740e-002
4.001737e+003;0.000000e+000
