3.992094e+002;0.000000e+000
4.011380e+002;0.000000e+000
4.030665e+002;0.000000e+000
4.049951e+002;0.000000e+000
4.069236e+002;0.000000e+000
4.088522e+002;0.000000e+000
4.107807e+002;0.000000e+000
4.127093e+002;0.000000e+000
4.146378e+002;0.000000e+000
4.165664e+002;0.000000e+000
4.184949e+002;0.000000e+000
4.204235e+002;0.000000e+000
4.223520e+002;0.000000e+000
4.242806e+002;0.000000e+000
4.262091e+002;0.000000e+000
4.281377e+002;0.000000e+000
4.300662e+002;0.000000e+000
4.319948e+002;0.000000e+000
4.339233e+002;0.000000e+000
4.358519e+002;0.000000e+000
4.377804e+002;0.000000e+000
4.397090e+002;0.000000e+000
4.416375e+002;0.000000e+000
4.435660e+002;0.000000e+000
4.454946e+002;0.000000e+000
4.474232e+002;0.000000e+000
4.493517e+002;0.000000e+000
4.512802e+002;0.000000e+000
4.532088e+002;0.000000e+000
4.551373e+002;0.000000e+000
4.570659e+002;0.000000e+000
4.589944e+002;0.000000e+000
4.609230e+002;0.000000e+000
4.628515e+002;0.000000e+000
4.647801e+002;0.000000e+000
4.667086e+002;0.000000e+000
4.686372e+002;0.000000e+000
4.705657e+002;0.000000e+000
4.724943e+002;0.000000e+000
4.744228e+002;0.000000e+000
4.763513e+002;0.000000e+000
4.782799e+002;0.000000e+000
4.802085e+002;0.000000e+000
4.821370e+002;0.000000e+000
4.840656e+002;0.000000e+000
4.859941e+002;0.000000e+000
4.879226e+002;0.000000e+000
4.898512e+002;0.000000e+000
4.917798e+002;0.000000e+000
4.937083e+002;0.000000e+000
4.956368e+002;0.000000e+000
4.975654e+002;0.000000e+000
4.994939e+002;0.000000e+000
5.014225e+002;0.000000e+000
5.033510e+002;0.000000e+000
5.052796e+002;0.000000e+000
5.072081e+002;0.000000e+000
5.091367e+002;0.000000e+000
5.110652e+002;0.000000e+000
5.129938e+002;0.000000e+000
5.149223e+002;0.000000e+000
5.168509e+002;0.000000e+000
5.187794e+002;0.000000e+000
5.207079e+002;0.000000e+000
5.226365e+002;0.000000e+000
5.245651e+002;0.000000e+000
5.264936e+002;0.000000e+000
5.284222e+002;0.000000e+000
5.303507e+002;0.000000e+000
5.322792e+002;0.000000e+000
5.342078e+002;0.000000e+000
5.361364e+002;0.000000e+000
5.380649e+002;0.000000e+000
5.399935e+002;0.000000e+000
5.419220e+002;0.000000e+000
5.438505e+002;0.000000e+000
5.457791e+002;0.000000e+000
5.477076e+002;0.000000e+000
5.496362e+002;0.000000e+000
5.515648e+002;0.000000e+000
5.534933e+002;0.000000e+000
5.554218e+002;0.000000e+000
5.573504e+002;0.000000e+000
5.592789e+002;0.000000e+000
5.612075e+002;0.000000e+000
5.631360e+002;0.000000e+000
5.650646e+002;0.000000e+000
5.669931e+002;0.000000e+000
5.689217e+002;0.000000e+000
5.708502e+002;0.000000e+000
5.727787e+002;0.000000e+000
5.747073e+002;0.000000e+000
5.766359e+002;0.000000e+000
5.785644e+002;0.000000e+000
5.804930e+002;0.000000e+000
5.824215e+002;0.000000e+000
5.843500e+002;0.000000e+000
5.862786e+002;0.000000e+000
5.882072e+002;0.000000e+000
5.901357e+002;0.000000e+000
5.920643e+002;0.000000e+000
5.939928e+002;0.000000e+000
5.959213e+002;0.000000e+000
5.978499e+002;0.000000e+000
5.997784e+002;2.954143e-001
6.017070e+002;3.017441e-001
6.036355e+002;3.076140e-001
6.055641e+002;3.087382e-001
6.074926e+002;3.097701e-001
6.094211e+002;3.108252e-001
6.113497e+002;3.074626e-001
6.132783e+002;3.042759e-001
6.152068e+002;3.039016e-001
6.171354e+002;3.037008e-001
6.190639e+002;3.031462e-001
6.209924e+002;3.024886e-001
6.229210e+002;2.992988e-001
6.248495e+002;2.972854e-001
6.267781e+002;2.970662e-001
6.287067e+002;2.966194e-001
6.306352e+002;2.948097e-001
6.325637e+002;2.907449e-001
6.344923e+002;2.864931e-001
6.364208e+002;2.865777e-001
6.383494e+002;2.895817e-001
6.402780e+002;2.888925e-001
6.422065e+002;2.847932e-001
6.441350e+002;2.780844e-001
6.460636e+002;2.758734e-001
6.479921e+002;2.765338e-001
6.499207e+002;2.763839e-001
6.518492e+002;2.732404e-001
6.537778e+002;2.740279e-001
6.557063e+002;2.723812e-001
6.576349e+002;2.698701e-001
6.595634e+002;2.729798e-001
6.614919e+002;2.754908e-001
6.634205e+002;2.761041e-001
6.653491e+002;2.760810e-001
6.672776e+002;2.749250e-001
6.692062e+002;2.750952e-001
6.711347e+002;2.765273e-001
6.730632e+002;2.773763e-001
6.749918e+002;2.747488e-001
6.769203e+002;2.727578e-001
6.788489e+002;2.713912e-001
6.807775e+002;2.712858e-001
6.827060e+002;2.727323e-001
6.846345e+002;2.725075e-001
6.865631e+002;2.708173e-001
6.884916e+002;2.694400e-001
6.904202e+002;2.681197e-001
6.923488e+002;2.652300e-001
6.942773e+002;2.629618e-001
6.962058e+002;2.620364e-001
6.981344e+002;2.609656e-001
7.000629e+002;2.585586e-001
7.019915e+002;2.545944e-001
7.039200e+002;2.522277e-001
7.058486e+002;2.502018e-001
7.077771e+002;2.458924e-001
7.097057e+002;2.417507e-001
7.116342e+002;2.384429e-001
7.135627e+002;2.359342e-001
7.154913e+002;2.334803e-001
7.174199e+002;2.307231e-001
7.193484e+002;2.276175e-001
7.212770e+002;2.241068e-001
7.232055e+002;2.211040e-001
7.251340e+002;2.184016e-001
7.270626e+002;2.145425e-001
7.289911e+002;2.101672e-001
7.309197e+002;2.075022e-001
7.328483e+002;2.050138e-001
7.347768e+002;2.011530e-001
7.367053e+002;1.962480e-001
7.386339e+002;1.918808e-001
7.405624e+002;1.888995e-001
7.424910e+002;1.864817e-001
7.444196e+002;1.830258e-001
7.463481e+002;1.794601e-001
7.482766e+002;1.777086e-001
7.502052e+002;1.758517e-001
7.521337e+002;1.724608e-001
7.540623e+002;1.700999e-001
7.559908e+002;1.692712e-001
7.579194e+002;1.678000e-001
7.598479e+002;1.658269e-001
7.617765e+002;1.641394e-001
7.637050e+002;1.626727e-001
7.656335e+002;1.605832e-001
7.675621e+002;1.589776e-001
7.694907e+002;1.571518e-001
7.714192e+002;1.545170e-001
7.733478e+002;1.524286e-001
7.752763e+002;1.507828e-001
7.772048e+002;1.492470e-001
7.791334e+002;1.474036e-001
7.810620e+002;1.458348e-001
7.829905e+002;1.445765e-001
7.849191e+002;1.428171e-001
7.868476e+002;1.406340e-001
7.887761e+002;1.391469e-001
7.907047e+002;1.381227e-001
7.926332e+002;1.367996e-001
7.945618e+002;1.352247e-001
7.964903e+002;1.344118e-001
7.984189e+002;1.343073e-001
8.003474e+002;1.336939e-001
8.022759e+002;1.330864e-001
8.042045e+002;1.331441e-001
8.061331e+002;1.326873e-001
8.080616e+002;1.331498e-001
8.099902e+002;1.336680e-001
8.119187e+002;1.338972e-001
8.138472e+002;1.339171e-001
8.157758e+002;1.343032e-001
8.177043e+002;1.344950e-001
8.196329e+002;1.349886e-001
8.215615e+002;1.358279e-001
8.234900e+002;1.363525e-001
8.254185e+002;1.365846e-001
8.273471e+002;1.364612e-001
8.292756e+002;1.359379e-001
8.312042e+002;1.349680e-001
8.331328e+002;1.332776e-001
8.350613e+002;1.315675e-001
8.369898e+002;1.298891e-001
8.389184e+002;1.279996e-001
8.408469e+002;1.268634e-001
8.427755e+002;1.263886e-001
8.447040e+002;1.263875e-001
8.466326e+002;1.270290e-001
8.485611e+002;1.274792e-001
8.504897e+002;1.279325e-001
8.524182e+002;1.281312e-001
8.543467e+002;1.271552e-001
8.562753e+002;1.245840e-001
8.582039e+002;1.218140e-001
8.601324e+002;1.198400e-001
8.620610e+002;1.183373e-001
8.639895e+002;1.169085e-001
8.659180e+002;1.155385e-001
8.678466e+002;1.148016e-001
8.697751e+002;1.149330e-001
8.717037e+002;1.152153e-001
8.736323e+002;1.155228e-001
8.755608e+002;1.154805e-001
8.774893e+002;1.154003e-001
8.794179e+002;1.154615e-001
8.813464e+002;1.153287e-001
8.832750e+002;1.155648e-001
8.852036e+002;1.154867e-001
8.871321e+002;1.152861e-001
8.890606e+002;1.154276e-001
8.909892e+002;1.153318e-001
8.929177e+002;1.151250e-001
8.948463e+002;1.149202e-001
8.967748e+002;1.148323e-001
8.987034e+002;1.148762e-001
9.006319e+002;1.147647e-001
9.025605e+002;1.144949e-001
9.044890e+002;1.144764e-001
9.064175e+002;1.145324e-001
9.083461e+002;1.143802e-001
9.102747e+002;1.146201e-001
9.122032e+002;1.158487e-001
9.141318e+002;1.171450e-001
9.160603e+002;1.181375e-001
9.179888e+002;1.193715e-001
9.199174e+002;1.207684e-001
9.218459e+002;1.223614e-001
9.237745e+002;1.240073e-001
9.257031e+002;1.252094e-001
9.276316e+002;1.260970e-001
9.295601e+002;1.270758e-001
9.314887e+002;1.274335e-001
9.334172e+002;1.275887e-001
9.353458e+002;1.280988e-001
9.372744e+002;1.283197e-001
9.392029e+002;1.284896e-001
9.411314e+002;1.292999e-001
9.430600e+002;1.302826e-001
9.449885e+002;1.310406e-001
9.469171e+002;1.316635e-001
9.488456e+002;1.328889e-001
9.507742e+002;1.343507e-001
9.527027e+002;1.355785e-001
9.546313e+002;1.366017e-001
9.565598e+002;1.380232e-001
9.584883e+002;1.396547e-001
9.604169e+002;1.414094e-001
9.623455e+002;1.433816e-001
9.642740e+002;1.454744e-001
9.662026e+002;1.477393e-001
9.681311e+002;1.501251e-001
9.700596e+002;1.522592e-001
9.719882e+002;1.541081e-001
9.739167e+002;1.556378e-001
9.758453e+002;1.567713e-001
9.777739e+002;1.567133e-001
9.797024e+002;1.561031e-001
9.816309e+002;1.558503e-001
9.835595e+002;1.558752e-001
9.854880e+002;1.564681e-001
9.874166e+002;1.579544e-001
9.893452e+002;1.603044e-001
9.912737e+002;1.629830e-001
9.932022e+002;1.650998e-001
9.951307e+002;1.662520e-001
9.970593e+002;1.663564e-001
9.989879e+002;1.660644e-001
1.000916e+003;1.654810e-001
1.002845e+003;1.646679e-001
1.004773e+003;1.640288e-001
1.006702e+003;1.637438e-001
1.008631e+003;1.632744e-001
1.010559e+003;1.625835e-001
1.012488e+003;1.620783e-001
1.014416e+003;1.613417e-001
1.016345e+003;1.605793e-001
1.018273e+003;1.601258e-001
1.020202e+003;1.601909e-001
1.022130e+003;1.615625e-001
1.024059e+003;1.641461e-001
1.025988e+003;1.671165e-001
1.027916e+003;1.701027e-001
1.029845e+003;1.730085e-001
1.031773e+003;1.761115e-001
1.033702e+003;1.793068e-001
1.035630e+003;1.812849e-001
1.037559e+003;1.824858e-001
1.039487e+003;1.838333e-001
1.041416e+003;1.848536e-001
1.043344e+003;1.856166e-001
1.045273e+003;1.861380e-001
1.047202e+003;1.862980e-001
1.049130e+003;1.867291e-001
1.051059e+003;1.878875e-001
1.052987e+003;1.895616e-001
1.054916e+003;1.914777e-001
1.056844e+003;1.938580e-001
1.058773e+003;1.955495e-001
1.060701e+003;1.968268e-001
1.062630e+003;1.982529e-001
1.064558e+003;1.992339e-001
1.066487e+003;1.996944e-001
1.068416e+003;1.998899e-001
1.070344e+003;1.991207e-001
1.072273e+003;1.968147e-001
1.074201e+003;1.942669e-001
1.076130e+003;1.915090e-001
1.078058e+003;1.884085e-001
1.079987e+003;1.850234e-001
1.081915e+003;1.808035e-001
1.083844e+003;1.766534e-001
1.085773e+003;1.732680e-001
1.087701e+003;1.698897e-001
1.089630e+003;1.667013e-001
1.091558e+003;1.642342e-001
1.093487e+003;1.635281e-001
1.095415e+003;1.630932e-001
1.097344e+003;1.621277e-001
1.099272e+003;1.618882e-001
1.101201e+003;1.618743e-001
1.103129e+003;1.616487e-001
1.105058e+003;1.612864e-001
1.106987e+003;1.604909e-001
1.108915e+003;1.594592e-001
1.110844e+003;1.582503e-001
1.112772e+003;1.576758e-001
1.114701e+003;1.573976e-001
1.116629e+003;1.571556e-001
1.118558e+003;1.572420e-001
1.120486e+003;1.574786e-001
1.122415e+003;1.577549e-001
1.124344e+003;1.582566e-001
1.126272e+003;1.587442e-001
1.128201e+003;1.590918e-001
1.130129e+003;1.600210e-001
1.132058e+003;1.611025e-001
1.133986e+003;1.622805e-001
1.135915e+003;1.634431e-001
1.137843e+003;1.646962e-001
1.139772e+003;1.666889e-001
1.141700e+003;1.690580e-001
1.143629e+003;1.714548e-001
1.145557e+003;1.737360e-001
1.147486e+003;1.760694e-001
1.149415e+003;1.779125e-001
1.151343e+003;1.796813e-001
1.153272e+003;1.818741e-001
1.155200e+003;1.836377e-001
1.157129e+003;1.851599e-001
1.159057e+003;1.865705e-001
1.160986e+003;1.878626e-001
1.162914e+003;1.893387e-001
1.164843e+003;1.906367e-001
1.166771e+003;1.915599e-001
1.168700e+003;1.927502e-001
1.170629e+003;1.935812e-001
1.172557e+003;1.931606e-001
1.174486e+003;1.918544e-001
1.176414e+003;1.904971e-001
1.178343e+003;1.887590e-001
1.180271e+003;1.872835e-001
1.182200e+003;1.864519e-001
1.184128e+003;1.863041e-001
1.186057e+003;1.869394e-001
1.187986e+003;1.878807e-001
1.189914e+003;1.893953e-001
1.191843e+003;1.915886e-001
1.193771e+003;1.944337e-001
1.195700e+003;1.980538e-001
1.197628e+003;2.021791e-001
1.199557e+003;2.064177e-001
1.201485e+003;2.111345e-001
1.203414e+003;2.168622e-001
1.205343e+003;2.226067e-001
1.207271e+003;2.280215e-001
1.209200e+003;2.336407e-001
1.211128e+003;2.391015e-001
1.213057e+003;2.441654e-001
1.214985e+003;2.490027e-001
1.216914e+003;2.534756e-001
1.218842e+003;2.576357e-001
1.220771e+003;2.610571e-001
1.222699e+003;2.640257e-001
1.224628e+003;2.667062e-001
1.226557e+003;2.686951e-001
1.228485e+003;2.696162e-001
1.230414e+003;2.697352e-001
1.232342e+003;2.692575e-001
1.234271e+003;2.675640e-001
1.236199e+003;2.650139e-001
1.238128e+003;2.622105e-001
1.240056e+003;2.595924e-001
1.241985e+003;2.573052e-001
1.243913e+003;2.550060e-001
1.245842e+003;2.528561e-001
1.247771e+003;2.510256e-001
1.249699e+003;2.491535e-001
1.251628e+003;2.477012e-001
1.253556e+003;2.468248e-001
1.255485e+003;2.457206e-001
1.257413e+003;2.439948e-001
1.259342e+003;2.416513e-001
1.261270e+003;2.390336e-001
1.263199e+003;2.357489e-001
1.265127e+003;2.319212e-001
1.267056e+003;2.283338e-001
1.268985e+003;2.246808e-001
1.270913e+003;2.203576e-001
1.272842e+003;2.163306e-001
1.274770e+003;2.127990e-001
1.276699e+003;2.093668e-001
1.278627e+003;2.064778e-001
1.280556e+003;2.041098e-001
1.282484e+003;2.019350e-001
1.284413e+003;2.005378e-001
1.286342e+003;1.998210e-001
1.288270e+003;1.987441e-001
1.290199e+003;1.977286e-001
1.292127e+003;1.972766e-001
1.294056e+003;1.970108e-001
1.295984e+003;1.968153e-001
1.297913e+003;1.966602e-001
1.299841e+003;1.964545e-001
1.301770e+003;1.962344e-001
1.303698e+003;1.960002e-001
1.305627e+003;1.957446e-001
1.307556e+003;1.954346e-001
1.309484e+003;1.950344e-001
1.311413e+003;1.946975e-001
1.313341e+003;1.943103e-001
1.315270e+003;1.938036e-001
1.317198e+003;1.935584e-001
1.319127e+003;1.937210e-001
1.321055e+003;1.943903e-001
1.322984e+003;1.952224e-001
1.324912e+003;1.960554e-001
1.326841e+003;1.969473e-001
1.328770e+003;1.978224e-001
1.330698e+003;1.987619e-001
1.332627e+003;1.995489e-001
1.334555e+003;1.994775e-001
1.336484e+003;1.990389e-001
1.338412e+003;1.989785e-001
1.340341e+003;1.990974e-001
1.342269e+003;1.992268e-001
1.344198e+003;1.992040e-001
1.346126e+003;1.990669e-001
1.348055e+003;1.990800e-001
1.349984e+003;1.993325e-001
1.351912e+003;1.996161e-001
1.353841e+003;2.003313e-001
1.355769e+003;2.018774e-001
1.357698e+003;2.038723e-001
1.359626e+003;2.064281e-001
1.361555e+003;2.097832e-001
1.363483e+003;2.135279e-001
1.365412e+003;2.171844e-001
1.367341e+003;2.197575e-001
1.369269e+003;2.207631e-001
1.371198e+003;2.206968e-001
1.373126e+003;2.203013e-001
1.375055e+003;2.196599e-001
1.376983e+003;2.190633e-001
1.378912e+003;2.187513e-001
1.380840e+003;2.189203e-001
1.382769e+003;2.192224e-001
1.384698e+003;2.194273e-001
1.386626e+003;2.200146e-001
1.388555e+003;2.207349e-001
1.390483e+003;2.209406e-001
1.392412e+003;2.207376e-001
1.394340e+003;2.207469e-001
1.396269e+003;2.211880e-001
1.398197e+003;2.219922e-001
1.400126e+003;2.229820e-001
1.402054e+003;2.241553e-001
1.403983e+003;2.254363e-001
1.405911e+003;2.268051e-001
1.407840e+003;2.280813e-001
1.409769e+003;2.291706e-001
1.411697e+003;2.298425e-001
1.413626e+003;2.303663e-001
1.415554e+003;2.312040e-001
1.417483e+003;2.320609e-001
1.419411e+003;2.331746e-001
1.421340e+003;2.353622e-001
1.423268e+003;2.382883e-001
1.425197e+003;2.423165e-001
1.427125e+003;2.476858e-001
1.429054e+003;2.541359e-001
1.430983e+003;2.613146e-001
1.432911e+003;2.688138e-001
1.434840e+003;2.758703e-001
1.436768e+003;2.814805e-001
1.438697e+003;2.855508e-001
1.440625e+003;2.885096e-001
1.442554e+003;2.905541e-001
1.444482e+003;2.911166e-001
1.446411e+003;2.898509e-001
1.448340e+003;2.869174e-001
1.450268e+003;2.824473e-001
1.452197e+003;2.765774e-001
1.454125e+003;2.699186e-001
1.456054e+003;2.631443e-001
1.457982e+003;2.581311e-001
1.459911e+003;2.549683e-001
1.461839e+003;2.524376e-001
1.463768e+003;2.506320e-001
1.465697e+003;2.499106e-001
1.467625e+003;2.504342e-001
1.469554e+003;2.519442e-001
1.471482e+003;2.539434e-001
1.473411e+003;2.566013e-001
1.475339e+003;2.601681e-001
1.477268e+003;2.645437e-001
1.479196e+003;2.700609e-001
1.481125e+003;2.770429e-001
1.483053e+003;2.852471e-001
1.484982e+003;2.943870e-001
1.486911e+003;3.042259e-001
1.488839e+003;3.152574e-001
1.490768e+003;3.272922e-001
1.492696e+003;3.395889e-001
1.494625e+003;3.518074e-001
1.496553e+003;3.639865e-001
1.498482e+003;3.761165e-001
1.500410e+003;3.874112e-001
1.502339e+003;3.979655e-001
1.504267e+003;4.078381e-001
1.506196e+003;4.170832e-001
1.508125e+003;4.259444e-001
1.510053e+003;4.334686e-001
1.511982e+003;4.393209e-001
1.513910e+003;4.425131e-001
1.515839e+003;4.402683e-001
1.517767e+003;4.322785e-001
1.519696e+003;4.217054e-001
1.521624e+003;4.110098e-001
1.523553e+003;4.014758e-001
1.525481e+003;3.927774e-001
1.527410e+003;3.847459e-001
1.529339e+003;3.773758e-001
1.531267e+003;3.698063e-001
1.533196e+003;3.620269e-001
1.535124e+003;3.546217e-001
1.537053e+003;3.473668e-001
1.538981e+003;3.398228e-001
1.540910e+003;3.327348e-001
1.542838e+003;3.261751e-001
1.544767e+003;3.194591e-001
1.546695e+003;3.128182e-001
1.548624e+003;3.063865e-001
1.550553e+003;3.000512e-001
1.552481e+003;2.930738e-001
1.554410e+003;2.858833e-001
1.556338e+003;2.789316e-001
1.558267e+003;2.711804e-001
1.560195e+003;2.643131e-001
1.562124e+003;2.585742e-001
1.564052e+003;2.523078e-001
1.565981e+003;2.458567e-001
1.567910e+003;2.399516e-001
1.569838e+003;2.348816e-001
1.571767e+003;2.308460e-001
1.573695e+003;2.273644e-001
1.575624e+003;2.249186e-001
1.577552e+003;2.241182e-001
1.579481e+003;2.243339e-001
1.581409e+003;2.252862e-001
1.583338e+003;2.274321e-001
1.585266e+003;2.307954e-001
1.587195e+003;2.354449e-001
1.589124e+003;2.415744e-001
1.591052e+003;2.495029e-001
1.592981e+003;2.586668e-001
1.594909e+003;2.687192e-001
1.596838e+003;2.798073e-001
1.598766e+003;2.918760e-001
1.600695e+003;3.055784e-001
1.602623e+003;3.214872e-001
1.604552e+003;3.397240e-001
1.606480e+003;3.592378e-001
1.608409e+003;3.794096e-001
1.610338e+003;3.997627e-001
1.612266e+003;4.191076e-001
1.614195e+003;4.362410e-001
1.616123e+003;4.504496e-001
1.618052e+003;4.613784e-001
1.619980e+003;4.679546e-001
1.621909e+003;4.698539e-001
1.623837e+003;4.675237e-001
1.625766e+003;4.619770e-001
1.627694e+003;4.536595e-001
1.629623e+003;4.426453e-001
1.631552e+003;4.304927e-001
1.633480e+003;4.178113e-001
1.635409e+003;4.048542e-001
1.637337e+003;3.928578e-001
1.639266e+003;3.817406e-001
1.641194e+003;3.707479e-001
1.643123e+003;3.605486e-001
1.645051e+003;3.504182e-001
1.646980e+003;3.406187e-001
1.648909e+003;3.320681e-001
1.650837e+003;3.233190e-001
1.652766e+003;3.131343e-001
1.654694e+003;3.038324e-001
1.656623e+003;2.952383e-001
1.658551e+003;2.861458e-001
1.660480e+003;2.772559e-001
1.662408e+003;2.687521e-001
1.664337e+003;2.606273e-001
1.666266e+003;2.527061e-001
1.668194e+003;2.448867e-001
1.670123e+003;2.376203e-001
1.672051e+003;2.313632e-001
1.673980e+003;2.251774e-001
1.675908e+003;2.190873e-001
1.677837e+003;2.133937e-001
1.679765e+003;2.077835e-001
1.681694e+003;2.021448e-001
1.683622e+003;1.968579e-001
1.685551e+003;1.926699e-001
1.687479e+003;1.892195e-001
1.689408e+003;1.860080e-001
1.691337e+003;1.832829e-001
1.693265e+003;1.810074e-001
1.695194e+003;1.788513e-001
1.697122e+003;1.771410e-001
1.699051e+003;1.737467e-001
1.700979e+003;1.667927e-001
1.702908e+003;1.564565e-001
1.704836e+003;1.432291e-001
1.706765e+003;1.300418e-001
1.708693e+003;1.185678e-001
1.710622e+003;1.090359e-001
1.712551e+003;1.012911e-001
1.714479e+003;9.511641e-002
1.716408e+003;8.999381e-002
1.718336e+003;8.615766e-002
1.720265e+003;8.345662e-002
1.722193e+003;8.127131e-002
1.724122e+003;7.913166e-002
1.726050e+003;7.721035e-002
1.727979e+003;7.556635e-002
1.729908e+003;7.394580e-002
1.731836e+003;7.257732e-002
1.733765e+003;7.144533e-002
1.735693e+003;7.080013e-002
1.737622e+003;7.002365e-002
1.739550e+003;6.880289e-002
1.741479e+003;6.806954e-002
1.743407e+003;6.729874e-002
1.745336e+003;6.683809e-002
1.747265e+003;6.646350e-002
1.749193e+003;6.595568e-002
1.751122e+003;6.573378e-002
1.753050e+003;6.587797e-002
1.754979e+003;6.576627e-002
1.756907e+003;6.555171e-002
1.758836e+003;6.550228e-002
1.760764e+003;6.530160e-002
1.762693e+003;6.508318e-002
1.764621e+003;6.511829e-002
1.766550e+003;6.478817e-002
1.768479e+003;6.448387e-002
1.770407e+003;6.432726e-002
1.772336e+003;6.391221e-002
1.774264e+003;6.389202e-002
1.776193e+003;6.416276e-002
1.778121e+003;6.410980e-002
1.780050e+003;6.386346e-002
1.781978e+003;6.372297e-002
1.783907e+003;6.363354e-002
1.785835e+003;6.356691e-002
1.787764e+003;6.340427e-002
1.789693e+003;6.303028e-002
1.791621e+003;6.286156e-002
1.793550e+003;6.271836e-002
1.795478e+003;6.258096e-002
1.797407e+003;6.246999e-002
1.799335e+003;6.237928e-002
1.801264e+003;6.206558e-002
1.803192e+003;6.174133e-002
1.805121e+003;6.153867e-002
1.807049e+003;6.133351e-002
1.808978e+003;6.110926e-002
1.810907e+003;6.089840e-002
1.812835e+003;6.078744e-002
1.814764e+003;6.096893e-002
1.816692e+003;6.101106e-002
1.818621e+003;6.071671e-002
1.820549e+003;6.029135e-002
1.822478e+003;5.996116e-002
1.824406e+003;5.973747e-002
1.826335e+003;5.967048e-002
1.828264e+003;5.947779e-002
1.830192e+003;5.908310e-002
1.832121e+003;5.866245e-002
1.834049e+003;5.861592e-002
1.835978e+003;5.861471e-002
1.837906e+003;5.855131e-002
1.839835e+003;5.847036e-002
1.841763e+003;5.817019e-002
1.843692e+003;5.766486e-002
1.845620e+003;5.754538e-002
1.847549e+003;5.759717e-002
1.849478e+003;5.765521e-002
1.851406e+003;5.745747e-002
1.853335e+003;5.719258e-002
1.855263e+003;5.710358e-002
1.857192e+003;5.715290e-002
1.859120e+003;5.721072e-002
1.861049e+003;5.711608e-002
1.862977e+003;5.690632e-002
1.864906e+003;5.686262e-002
1.866834e+003;5.693714e-002
1.868763e+003;5.696635e-002
1.870692e+003;5.700798e-002
1.872620e+003;5.702060e-002
1.874549e+003;5.706911e-002
1.876477e+003;5.717032e-002
1.878406e+003;5.733563e-002
1.880334e+003;5.733401e-002
1.882263e+003;5.716284e-002
1.884191e+003;5.700605e-002
1.886120e+003;5.692192e-002
1.888048e+003;5.703624e-002
1.889977e+003;5.716688e-002
1.891906e+003;5.712383e-002
1.893834e+003;5.697152e-002
1.895763e+003;5.683274e-002
1.897691e+003;5.674310e-002
1.899620e+003;5.689076e-002
1.901548e+003;5.699543e-002
1.903477e+003;5.692596e-002
1.905405e+003;5.676141e-002
1.907334e+003;5.663349e-002
1.909262e+003;5.658937e-002
1.911191e+003;5.670685e-002
1.913120e+003;5.662546e-002
1.915048e+003;5.631361e-002
1.916977e+003;5.624361e-002
1.918905e+003;5.637427e-002
1.920834e+003;5.650366e-002
1.922762e+003;5.652664e-002
1.924691e+003;5.640151e-002
1.926619e+003;5.639616e-002
1.928548e+003;5.634737e-002
1.930477e+003;5.627906e-002
1.932405e+003;5.640838e-002
1.934334e+003;5.643517e-002
1.936262e+003;5.623976e-002
1.938191e+003;5.623705e-002
1.940119e+003;5.630328e-002
1.942048e+003;5.635432e-002
1.943976e+003;5.654034e-002
1.945905e+003;5.656136e-002
1.947833e+003;5.663153e-002
1.949762e+003;5.683089e-002
1.951691e+003;5.672139e-002
1.953619e+003;5.651162e-002
1.955548e+003;5.647913e-002
1.957476e+003;5.682832e-002
1.959405e+003;5.716057e-002
1.961333e+003;5.724652e-002
1.963262e+003;5.719315e-002
1.965190e+003;5.714171e-002
1.967119e+003;5.680302e-002
1.969047e+003;5.667140e-002
1.970976e+003;5.695633e-002
1.972905e+003;5.682345e-002
1.974833e+003;5.650192e-002
1.976762e+003;5.664527e-002
1.978690e+003;5.695958e-002
1.980619e+003;5.686923e-002
1.982547e+003;5.676258e-002
1.984476e+003;5.682878e-002
1.986404e+003;5.700050e-002
1.988333e+003;5.709560e-002
1.990261e+003;5.675140e-002
1.992190e+003;5.630264e-002
1.994119e+003;5.615838e-002
1.996047e+003;5.617067e-002
1.997976e+003;5.628099e-002
1.999904e+003;5.644675e-002
2.001833e+003;5.634077e-002
2.003761e+003;5.626510e-002
2.005690e+003;5.631456e-002
2.007618e+003;5.622988e-002
2.009547e+003;5.616603e-002
2.011476e+003;5.624893e-002
2.013404e+003;5.622000e-002
2.015333e+003;5.625537e-002
2.017261e+003;5.626194e-002
2.019190e+003;5.625368e-002
2.021118e+003;5.638710e-002
2.023047e+003;5.650781e-002
2.024975e+003;5.657310e-002
2.026904e+003;5.663357e-002
2.028833e+003;5.670168e-002
2.030761e+003;5.679585e-002
2.032690e+003;5.664947e-002
2.034618e+003;5.637378e-002
2.036547e+003;5.630897e-002
2.038475e+003;5.637510e-002
2.040404e+003;5.637654e-002
2.042332e+003;5.640332e-002
2.044261e+003;5.648237e-002
2.046189e+003;5.659209e-002
2.048118e+003;5.640864e-002
2.050047e+003;5.620163e-002
2.051975e+003;5.644045e-002
2.053904e+003;5.674630e-002
2.055832e+003;5.673955e-002
2.057761e+003;5.663497e-002
2.059689e+003;5.674098e-002
2.061618e+003;5.675960e-002
2.063546e+003;5.685522e-002
2.065475e+003;5.697575e-002
2.067404e+003;5.688981e-002
2.069332e+003;5.684279e-002
2.071260e+003;5.726119e-002
2.073189e+003;5.757526e-002
2.075118e+003;5.732315e-002
2.077046e+003;5.724482e-002
2.078975e+003;5.723688e-002
2.080903e+003;5.711284e-002
2.082832e+003;5.703148e-002
2.084760e+003;5.703677e-002
2.086689e+003;5.709711e-002
2.088617e+003;5.715418e-002
2.090546e+003;5.723363e-002
2.092475e+003;5.745044e-002
2.094403e+003;5.746141e-002
2.096332e+003;5.736524e-002
2.098260e+003;5.727771e-002
2.100189e+003;5.726732e-002
2.102117e+003;5.734331e-002
2.104046e+003;5.752223e-002
2.105974e+003;5.746315e-002
2.107903e+003;5.730833e-002
2.109832e+003;5.737779e-002
2.111760e+003;5.746031e-002
2.113688e+003;5.744530e-002
2.115617e+003;5.737152e-002
2.117546e+003;5.724803e-002
2.119474e+003;5.704096e-002
2.121403e+003;5.681111e-002
2.123331e+003;5.699154e-002
2.125260e+003;5.713490e-002
2.127188e+003;5.700802e-002
2.129117e+003;5.708532e-002
2.131045e+003;5.715634e-002
2.132974e+003;5.717285e-002
2.134903e+003;5.729612e-002
2.136831e+003;5.738944e-002
2.138760e+003;5.724599e-002
2.140688e+003;5.704489e-002
2.142617e+003;5.685722e-002
2.144545e+003;5.687705e-002
2.146474e+003;5.715161e-002
2.148402e+003;5.720264e-002
2.150331e+003;5.701538e-002
2.152260e+003;5.678448e-002
2.154188e+003;5.682632e-002
2.156117e+003;5.697167e-002
2.158045e+003;5.683603e-002
2.159974e+003;5.676390e-002
2.161902e+003;5.677085e-002
2.163831e+003;5.685692e-002
2.165759e+003;5.700144e-002
2.167688e+003;5.718616e-002
2.169616e+003;5.716038e-002
2.171545e+003;5.704678e-002
2.173474e+003;5.695142e-002
2.175402e+003;5.669265e-002
2.177331e+003;5.658435e-002
2.179259e+003;5.651962e-002
2.181188e+003;5.652660e-002
2.183116e+003;5.653940e-002
2.185045e+003;5.657457e-002
2.186973e+003;5.656038e-002
2.188902e+003;5.652577e-002
2.190831e+003;5.650113e-002
2.192759e+003;5.640166e-002
2.194688e+003;5.643385e-002
2.196616e+003;5.665226e-002
2.198545e+003;5.675563e-002
2.200473e+003;5.674162e-002
2.202402e+003;5.673603e-002
2.204330e+003;5.676647e-002
2.206259e+003;5.655657e-002
2.208188e+003;5.659801e-002
2.210116e+003;5.679566e-002
2.212044e+003;5.676590e-002
2.213973e+003;5.673203e-002
2.215902e+003;5.672814e-002
2.217830e+003;5.668778e-002
2.219759e+003;5.665584e-002
2.221687e+003;5.664659e-002
2.223616e+003;5.660439e-002
2.225544e+003;5.663765e-002
2.227473e+003;5.670942e-002
2.229401e+003;5.672742e-002
2.231330e+003;5.662432e-002
2.233259e+003;5.643306e-002
2.235187e+003;5.640940e-002
2.237116e+003;5.657601e-002
2.239044e+003;5.670084e-002
2.240973e+003;5.682296e-002
2.242901e+003;5.695599e-002
2.244830e+003;5.695565e-002
2.246758e+003;5.680498e-002
2.248687e+003;5.659533e-002
2.250615e+003;5.666875e-002
2.252544e+003;5.694179e-002
2.254473e+003;5.697836e-002
2.256401e+003;5.675737e-002
2.258330e+003;5.650226e-002
2.260258e+003;5.639382e-002
2.262187e+003;5.645324e-002
2.264115e+003;5.646792e-002
2.266044e+003;5.663636e-002
2.267972e+003;5.677617e-002
2.269901e+003;5.674876e-002
2.271830e+003;5.666283e-002
2.273758e+003;5.658359e-002
2.275687e+003;5.663346e-002
2.277615e+003;5.656110e-002
2.279544e+003;5.654774e-002
2.281472e+003;5.689087e-002
2.283401e+003;5.720970e-002
2.285329e+003;5.726406e-002
2.287258e+003;5.717470e-002
2.289187e+003;5.709847e-002
2.291115e+003;5.722501e-002
2.293043e+003;5.721265e-002
2.294972e+003;5.722112e-002
2.296901e+003;5.741364e-002
2.298829e+003;5.747340e-002
2.300758e+003;5.747041e-002
2.302686e+003;5.764389e-002
2.304615e+003;5.762626e-002
2.306543e+003;5.753346e-002
2.308472e+003;5.772548e-002
2.310400e+003;5.772431e-002
2.312329e+003;5.742695e-002
2.314258e+003;5.718688e-002
2.316186e+003;5.707062e-002
2.318115e+003;5.710048e-002
2.320043e+003;5.709625e-002
2.321972e+003;5.712519e-002
2.323900e+003;5.715274e-002
2.325829e+003;5.702634e-002
2.327757e+003;5.701274e-002
2.329686e+003;5.709371e-002
2.331615e+003;5.709617e-002
2.333543e+003;5.708846e-002
2.335472e+003;5.710116e-002
2.337400e+003;5.716594e-002
2.339329e+003;5.722872e-002
2.341257e+003;5.720426e-002
2.343186e+003;5.735790e-002
2.345114e+003;5.761881e-002
2.347043e+003;5.788559e-002
2.348971e+003;5.803595e-002
2.350900e+003;5.796991e-002
2.352829e+003;5.779103e-002
2.354757e+003;5.760269e-002
2.356686e+003;5.707145e-002
2.358614e+003;5.676945e-002
2.360543e+003;5.709005e-002
2.362471e+003;5.722683e-002
2.364400e+003;5.736157e-002
2.366328e+003;5.750873e-002
2.368257e+003;5.753732e-002
2.370186e+003;5.794499e-002
2.372114e+003;5.820754e-002
2.374042e+003;5.835832e-002
2.375971e+003;5.864394e-002
2.377900e+003;5.896684e-002
2.379828e+003;5.918858e-002
2.381757e+003;5.917817e-002
2.383685e+003;5.922895e-002
2.385614e+003;5.944132e-002
2.387542e+003;5.943824e-002
2.389471e+003;5.947392e-002
2.391399e+003;5.970333e-002
2.393328e+003;5.996629e-002
2.395257e+003;6.004409e-002
2.397185e+003;6.007092e-002
2.399114e+003;6.035002e-002
2.401042e+003;6.052588e-002
2.402971e+003;6.058123e-002
2.404899e+003;6.076682e-002
2.406828e+003;6.105397e-002
2.408756e+003;6.152103e-002
2.410685e+003;6.201088e-002
2.412614e+003;6.212089e-002
2.414542e+003;6.219315e-002
2.416471e+003;6.230412e-002
2.418399e+003;6.257644e-002
2.420328e+003;6.302055e-002
2.422256e+003;6.333061e-002
2.424185e+003;6.346358e-002
2.426113e+003;6.349523e-002
2.428042e+003;6.360899e-002
2.429970e+003;6.384036e-002
2.431899e+003;6.404567e-002
2.433828e+003;6.422607e-002
2.435756e+003;6.441000e-002
2.437685e+003;6.434479e-002
2.439613e+003;6.412321e-002
2.441542e+003;6.429768e-002
2.443470e+003;6.457955e-002
2.445399e+003;6.465022e-002
2.447327e+003;6.493255e-002
2.449256e+003;6.516214e-002
2.451185e+003;6.500478e-002
2.453113e+003;6.497846e-002
2.455042e+003;6.506590e-002
2.456970e+003;6.517176e-002
2.458899e+003;6.540766e-002
2.460827e+003;6.541067e-002
2.462756e+003;6.532786e-002
2.464684e+003;6.557298e-002
2.466613e+003;6.565480e-002
2.468542e+003;6.557846e-002
2.470470e+003;6.568656e-002
2.472398e+003;6.568667e-002
2.474327e+003;6.588738e-002
2.476256e+003;6.629908e-002
2.478184e+003;6.619125e-002
2.480113e+003;6.603657e-002
2.482041e+003;6.634613e-002
2.483970e+003;6.641126e-002
2.485898e+003;6.644393e-002
2.487827e+003;6.665383e-002
2.489755e+003;6.685359e-002
2.491684e+003;6.684037e-002
2.493613e+003;6.686005e-002
2.495541e+003;6.706625e-002
2.497470e+003;6.701799e-002
2.499398e+003;6.688362e-002
2.501327e+003;6.692053e-002
2.503255e+003;6.698938e-002
2.505184e+003;6.709970e-002
2.507112e+003;6.731518e-002
2.509041e+003;6.742252e-002
2.510969e+003;6.763038e-002
2.512898e+003;6.768660e-002
2.514827e+003;6.746280e-002
2.516755e+003;6.742945e-002
2.518684e+003;6.741401e-002
2.520612e+003;6.728616e-002
2.522541e+003;6.744717e-002
2.524469e+003;6.768826e-002
2.526398e+003;6.785747e-002
2.528326e+003;6.807528e-002
2.530255e+003;6.832556e-002
2.532184e+003;6.831963e-002
2.534112e+003;6.824689e-002
2.536041e+003;6.837412e-002
2.537969e+003;6.835154e-002
2.539898e+003;6.817857e-002
2.541826e+003;6.849308e-002
2.543755e+003;6.915752e-002
2.545683e+003;6.932256e-002
2.547612e+003;6.940474e-002
2.549541e+003;6.941488e-002
2.551469e+003;6.938172e-002
2.553397e+003;6.959838e-002
2.555326e+003;6.982818e-002
2.557255e+003;7.016199e-002
2.559183e+003;7.034616e-002
2.561112e+003;7.044369e-002
2.563040e+003;7.056493e-002
2.564969e+003;7.082637e-002
2.566897e+003;7.115205e-002
2.568826e+003;7.126191e-002
2.570754e+003;7.127865e-002
2.572683e+003;7.150213e-002
2.574612e+003;7.186452e-002
2.576540e+003;7.235867e-002
2.578469e+003;7.264923e-002
2.580397e+003;7.262909e-002
2.582326e+003;7.280201e-002
2.584254e+003;7.316584e-002
2.586183e+003;7.351165e-002
2.588111e+003;7.370053e-002
2.590040e+003;7.366163e-002
2.591969e+003;7.354175e-002
2.593897e+003;7.383931e-002
2.595826e+003;7.402810e-002
2.597754e+003;7.399475e-002
2.599683e+003;7.436925e-002
2.601611e+003;7.463925e-002
2.603540e+003;7.454274e-002
2.605468e+003;7.472543e-002
2.607397e+003;7.502849e-002
2.609325e+003;7.518218e-002
2.611254e+003;7.531954e-002
2.613183e+003;7.529491e-002
2.615111e+003;7.548742e-002
2.617040e+003;7.564333e-002
2.618968e+003;7.558603e-002
2.620897e+003;7.551269e-002
2.622825e+003;7.564191e-002
2.624754e+003;7.572864e-002
2.626682e+003;7.568703e-002
2.628611e+003;7.567484e-002
2.630540e+003;7.570218e-002
2.632468e+003;7.576481e-002
2.634396e+003;7.603927e-002
2.636325e+003;7.605103e-002
2.638254e+003;7.572450e-002
2.640182e+003;7.543322e-002
2.642111e+003;7.535726e-002
2.644039e+003;7.558240e-002
2.645968e+003;7.560354e-002
2.647896e+003;7.552972e-002
2.649825e+003;7.568873e-002
2.651753e+003;7.587896e-002
2.653682e+003;7.608882e-002
2.655611e+003;7.599392e-002
2.657539e+003;7.579156e-002
2.659468e+003;7.583918e-002
2.661396e+003;7.616135e-002
2.663325e+003;7.634123e-002
2.665253e+003;7.644735e-002
2.667182e+003;7.668887e-002
2.669110e+003;7.697728e-002
2.671039e+003;7.707734e-002
2.672968e+003;7.723299e-002
2.674896e+003;7.746688e-002
2.676825e+003;7.767057e-002
2.678753e+003;7.772204e-002
2.680682e+003;7.781795e-002
2.682610e+003;7.807209e-002
2.684539e+003;7.815257e-002
2.686467e+003;7.830562e-002
2.688396e+003;7.853997e-002
2.690324e+003;7.858376e-002
2.692253e+003;7.893006e-002
2.694182e+003;7.940570e-002
2.696110e+003;7.953421e-002
2.698039e+003;7.962284e-002
2.699967e+003;7.976500e-002
2.701896e+003;7.971682e-002
2.703824e+003;7.969759e-002
2.705753e+003;7.992994e-002
2.707681e+003;8.023749e-002
2.709610e+003;8.059476e-002
2.711539e+003;8.103290e-002
2.713467e+003;8.107319e-002
2.715396e+003;8.109576e-002
2.717324e+003;8.120085e-002
2.719253e+003;8.128430e-002
2.721181e+003;8.145265e-002
2.723110e+003;8.167554e-002
2.725038e+003;8.197893e-002
2.726967e+003;8.234889e-002
2.728896e+003;8.266630e-002
2.730824e+003;8.283968e-002
2.732752e+003;8.296617e-002
2.734681e+003;8.304559e-002
2.736610e+003;8.316632e-002
2.738538e+003;8.315894e-002
2.740467e+003;8.332846e-002
2.742395e+003;8.381932e-002
2.744324e+003;8.406281e-002
2.746252e+003;8.417621e-002
2.748181e+003;8.457865e-002
2.750109e+003;8.504175e-002
2.752038e+003;8.521580e-002
2.753967e+003;8.537097e-002
2.755895e+003;8.555774e-002
2.757824e+003;8.544369e-002
2.759752e+003;8.539113e-002
2.761681e+003;8.577052e-002
2.763609e+003;8.599765e-002
2.765538e+003;8.604947e-002
2.767466e+003;8.624078e-002
2.769395e+003;8.649764e-002
2.771323e+003;8.668651e-002
2.773252e+003;8.674020e-002
2.775181e+003;8.693101e-002
2.777109e+003;8.707298e-002
2.779038e+003;8.729545e-002
2.780966e+003;8.750203e-002
2.782895e+003;8.745704e-002
2.784823e+003;8.748934e-002
2.786752e+003;8.754300e-002
2.788680e+003;8.739476e-002
2.790609e+003;8.759213e-002
2.792538e+003;8.810078e-002
2.794466e+003;8.828512e-002
2.796395e+003;8.840435e-002
2.798323e+003;8.864380e-002
2.800252e+003;8.863872e-002
2.802180e+003;8.863896e-002
2.804109e+003;8.911601e-002
2.806037e+003;8.985630e-002
2.807966e+003;9.011077e-002
2.809895e+003;9.010026e-002
2.811823e+003;9.010156e-002
2.813751e+003;9.015763e-002
2.815680e+003;9.042925e-002
2.817609e+003;9.074438e-002
2.819537e+003;9.085595e-002
2.821466e+003;9.093858e-002
2.823394e+003;9.114056e-002
2.825323e+003;9.153106e-002
2.827251e+003;9.180969e-002
2.829180e+003;9.186217e-002
2.831108e+003;9.197075e-002
2.833037e+003;9.212364e-002
2.834966e+003;9.267437e-002
2.836894e+003;9.312550e-002
2.838823e+003;9.315453e-002
2.840751e+003;9.328200e-002
2.842680e+003;9.350890e-002
2.844608e+003;9.340005e-002
2.846537e+003;9.301499e-002
2.848465e+003;9.263845e-002
2.850394e+003;9.280216e-002
2.852323e+003;9.398520e-002
2.854251e+003;9.564110e-002
2.856180e+003;9.688313e-002
2.858108e+003;9.791750e-002
2.860037e+003;9.870157e-002
2.861965e+003;9.942953e-002
2.863894e+003;1.002789e-001
2.865822e+003;1.010328e-001
2.867751e+003;1.019388e-001
2.869679e+003;1.028198e-001
2.871608e+003;1.032476e-001
2.873536e+003;1.036375e-001
2.875465e+003;1.043281e-001
2.877394e+003;1.046812e-001
2.879322e+003;1.046409e-001
2.881251e+003;1.043450e-001
2.883179e+003;1.039909e-001
2.885108e+003;1.040196e-001
2.887036e+003;1.041422e-001
2.888965e+003;1.038472e-001
2.890893e+003;1.036803e-001
2.892822e+003;1.037558e-001
2.894750e+003;1.038766e-001
2.896679e+003;1.040341e-001
2.898608e+003;1.042755e-001
2.900536e+003;1.046323e-001
2.902465e+003;1.048991e-001
2.904393e+003;1.049185e-001
2.906322e+003;1.051635e-001
2.908250e+003;1.054771e-001
2.910179e+003;1.055545e-001
2.912107e+003;1.054777e-001
2.914036e+003;1.052911e-001
2.915965e+003;1.051333e-001
2.917893e+003;1.056406e-001
2.919822e+003;1.070057e-001
2.921750e+003;1.084482e-001
2.923679e+003;1.097083e-001
2.925607e+003;1.108446e-001
2.927536e+003;1.120987e-001
2.929464e+003;1.133703e-001
2.931393e+003;1.142657e-001
2.933322e+003;1.149156e-001
2.935250e+003;1.152342e-001
2.937178e+003;1.151256e-001
2.939107e+003;1.148465e-001
2.941036e+003;1.147475e-001
2.942964e+003;1.143689e-001
2.944893e+003;1.134427e-001
2.946821e+003;1.125844e-001
2.948750e+003;1.116399e-001
2.950678e+003;1.104937e-001
2.952607e+003;1.096844e-001
2.954535e+003;1.093238e-001
2.956464e+003;1.091188e-001
2.958393e+003;1.091649e-001
2.960321e+003;1.092664e-001
2.962250e+003;1.090253e-001
2.964178e+003;1.084669e-001
2.966107e+003;1.085929e-001
2.968035e+003;1.093935e-001
2.969964e+003;1.100030e-001
2.971892e+003;1.102179e-001
2.973821e+003;1.101094e-001
2.975750e+003;1.098199e-001
2.977678e+003;1.097316e-001
2.979607e+003;1.097401e-001
2.981535e+003;1.094221e-001
2.983464e+003;1.087047e-001
2.985392e+003;1.079177e-001
2.987321e+003;1.072322e-001
2.989249e+003;1.070969e-001
2.991178e+003;1.070248e-001
2.993106e+003;1.066760e-001
2.995035e+003;1.061286e-001
2.996964e+003;1.056202e-001
2.998892e+003;1.053075e-001
3.000821e+003;1.050968e-001
3.002749e+003;1.046621e-001
3.004678e+003;1.043672e-001
3.006606e+003;1.043610e-001
3.008535e+003;1.042811e-001
3.010463e+003;1.043824e-001
3.012392e+003;1.045174e-001
3.014321e+003;1.046151e-001
3.016249e+003;1.049093e-001
3.018177e+003;1.049218e-001
3.020106e+003;1.050905e-001
3.022035e+003;1.055735e-001
3.023963e+003;1.058896e-001
3.025892e+003;1.062799e-001
3.027820e+003;1.067096e-001
3.029749e+003;1.071863e-001
3.031677e+003;1.076499e-001
3.033606e+003;1.080219e-001
3.035534e+003;1.084089e-001
3.037463e+003;1.088837e-001
3.039392e+003;1.095906e-001
3.041320e+003;1.102835e-001
3.043249e+003;1.109696e-001
3.045177e+003;1.115933e-001
3.047106e+003;1.119104e-001
3.049034e+003;1.125501e-001
3.050963e+003;1.132156e-001
3.052891e+003;1.135368e-001
3.054820e+003;1.143096e-001
3.056749e+003;1.150377e-001
3.058677e+003;1.153492e-001
3.060606e+003;1.158121e-001
3.062534e+003;1.159429e-001
3.064463e+003;1.159163e-001
3.066391e+003;1.164643e-001
3.068320e+003;1.171982e-001
3.070248e+003;1.174895e-001
3.072177e+003;1.174174e-001
3.074105e+003;1.173309e-001
3.076034e+003;1.173454e-001
3.077963e+003;1.174637e-001
3.079891e+003;1.175362e-001
3.081820e+003;1.170790e-001
3.083748e+003;1.166606e-001
3.085677e+003;1.166855e-001
3.087605e+003;1.165514e-001
3.089534e+003;1.159871e-001
3.091462e+003;1.153820e-001
3.093391e+003;1.152476e-001
3.095320e+003;1.149872e-001
3.097248e+003;1.145069e-001
3.099177e+003;1.143508e-001
3.101105e+003;1.142802e-001
3.103034e+003;1.138698e-001
3.104962e+003;1.134801e-001
3.106891e+003;1.133389e-001
3.108819e+003;1.131518e-001
3.110748e+003;1.125891e-001
3.112677e+003;1.124181e-001
3.114605e+003;1.125150e-001
3.116533e+003;1.123801e-001
3.118462e+003;1.122260e-001
3.120391e+003;1.119491e-001
3.122319e+003;1.115458e-001
3.124248e+003;1.118439e-001
3.126176e+003;1.123059e-001
3.128105e+003;1.122967e-001
3.130033e+003;1.124319e-001
3.131962e+003;1.125233e-001
3.133890e+003;1.126525e-001
3.135819e+003;1.131109e-001
3.137748e+003;1.133866e-001
3.139676e+003;1.135558e-001
3.141605e+003;1.138301e-001
3.143533e+003;1.144937e-001
3.145462e+003;1.151907e-001
3.147390e+003;1.156521e-001
3.149319e+003;1.163212e-001
3.151247e+003;1.171126e-001
3.153176e+003;1.176222e-001
3.155104e+003;1.180299e-001
3.157033e+003;1.185030e-001
3.158962e+003;1.191112e-001
3.160890e+003;1.199968e-001
3.162819e+003;1.209584e-001
3.164747e+003;1.217748e-001
3.166676e+003;1.224804e-001
3.168604e+003;1.235467e-001
3.170533e+003;1.245421e-001
3.172461e+003;1.254584e-001
3.174390e+003;1.268748e-001
3.176319e+003;1.280003e-001
3.178247e+003;1.289353e-001
3.180176e+003;1.298610e-001
3.182104e+003;1.308705e-001
3.184033e+003;1.319492e-001
3.185961e+003;1.326255e-001
3.187890e+003;1.335649e-001
3.189818e+003;1.350449e-001
3.191747e+003;1.363070e-001
3.193676e+003;1.371954e-001
3.195604e+003;1.384630e-001
3.197532e+003;1.406113e-001
3.199461e+003;1.417368e-001
3.201390e+003;1.422144e-001
3.203318e+003;1.434831e-001
3.205247e+003;1.449734e-001
3.207175e+003;1.464052e-001
3.209104e+003;1.481683e-001
3.211032e+003;1.495614e-001
3.212961e+003;1.504575e-001
3.214889e+003;1.517838e-001
3.216818e+003;1.534963e-001
3.218747e+003;1.551659e-001
3.220675e+003;1.565565e-001
3.222604e+003;1.575089e-001
3.224532e+003;1.589808e-001
3.226461e+003;1.609055e-001
3.228389e+003;1.627565e-001
3.230318e+003;1.646589e-001
3.232246e+003;1.662592e-001
3.234175e+003;1.679325e-001
3.236104e+003;1.697222e-001
3.238032e+003;1.714374e-001
3.239961e+003;1.730156e-001
3.241889e+003;1.748176e-001
3.243818e+003;1.769198e-001
3.245746e+003;1.794281e-001
3.247675e+003;1.816913e-001
3.249603e+003;1.837540e-001
3.251532e+003;1.862991e-001
3.253460e+003;1.888620e-001
3.255389e+003;1.911115e-001
3.257318e+003;1.934283e-001
3.259246e+003;1.962745e-001
3.261175e+003;1.996114e-001
3.263103e+003;2.024488e-001
3.265032e+003;2.049739e-001
3.266960e+003;2.072125e-001
3.268889e+003;2.094675e-001
3.270817e+003;2.115119e-001
3.272746e+003;2.129827e-001
3.274675e+003;2.146815e-001
3.276603e+003;2.163751e-001
3.278531e+003;2.168765e-001
3.280460e+003;2.167446e-001
3.282389e+003;2.166318e-001
3.284317e+003;2.164672e-001
3.286246e+003;2.154521e-001
3.288174e+003;2.137276e-001
3.290103e+003;2.124272e-001
3.292031e+003;2.108559e-001
3.293960e+003;2.088829e-001
3.295888e+003;2.067417e-001
3.297817e+003;2.046291e-001
3.299746e+003;2.024104e-001
3.301674e+003;1.995856e-001
3.303603e+003;1.961088e-001
3.305531e+003;1.927380e-001
3.307460e+003;1.900775e-001
3.309388e+003;1.875450e-001
3.311317e+003;1.844776e-001
3.313245e+003;1.811662e-001
3.315174e+003;1.781081e-001
3.317103e+003;1.754417e-001
3.319031e+003;1.727592e-001
3.320960e+003;1.702104e-001
3.322888e+003;1.670190e-001
3.324817e+003;1.640739e-001
3.326745e+003;1.616626e-001
3.328674e+003;1.587461e-001
3.330602e+003;1.564351e-001
3.332531e+003;1.543743e-001
3.334459e+003;1.520883e-001
3.336388e+003;1.501708e-001
3.338317e+003;1.483043e-001
3.340245e+003;1.461059e-001
3.342174e+003;1.441238e-001
3.344102e+003;1.420338e-001
3.346031e+003;1.397881e-001
3.347959e+003;1.381009e-001
3.349888e+003;1.367529e-001
3.351816e+003;1.354195e-001
3.353745e+003;1.338602e-001
3.355674e+003;1.322789e-001
3.357602e+003;1.308802e-001
3.359531e+003;1.294289e-001
3.361459e+003;1.278684e-001
3.363388e+003;1.266786e-001
3.365316e+003;1.258901e-001
3.367245e+003;1.249874e-001
3.369173e+003;1.242801e-001
3.371102e+003;1.236769e-001
3.373031e+003;1.225402e-001
3.374959e+003;1.209382e-001
3.376887e+003;1.199676e-001
3.378816e+003;1.193417e-001
3.380745e+003;1.186736e-001
3.382673e+003;1.178002e-001
3.384602e+003;1.170122e-001
3.386530e+003;1.164243e-001
3.388459e+003;1.156757e-001
3.390387e+003;1.149455e-001
3.392316e+003;1.137945e-001
3.394244e+003;1.127368e-001
3.396173e+003;1.123039e-001
3.398102e+003;1.117352e-001
3.400030e+003;1.107920e-001
3.401959e+003;1.097016e-001
3.403887e+003;1.087146e-001
3.405816e+003;1.081127e-001
3.407744e+003;1.073386e-001
3.409673e+003;1.063786e-001
3.411601e+003;1.054736e-001
3.413530e+003;1.043295e-001
3.415458e+003;1.037564e-001
3.417387e+003;1.030733e-001
3.419316e+003;1.023371e-001
3.421244e+003;1.016888e-001
3.423173e+003;1.007881e-001
3.425101e+003;9.985711e-002
3.427030e+003;9.925156e-002
3.428958e+003;9.862988e-002
3.430887e+003;9.764074e-002
3.432815e+003;9.701266e-002
3.434744e+003;9.654768e-002
3.436673e+003;9.586738e-002
3.438601e+003;9.499326e-002
3.440530e+003;9.418987e-002
3.442458e+003;9.374580e-002
3.444387e+003;9.353319e-002
3.446315e+003;9.329230e-002
3.448244e+003;9.261692e-002
3.450172e+003;9.213310e-002
3.452101e+003;9.159689e-002
3.454030e+003;9.098769e-002
3.455958e+003;9.090742e-002
3.457886e+003;9.076798e-002
3.459815e+003;9.027639e-002
3.461744e+003;8.950578e-002
3.463672e+003;8.878519e-002
3.465601e+003;8.872564e-002
3.467529e+003;8.901863e-002
3.469458e+003;8.850748e-002
3.471386e+003;8.783194e-002
3.473315e+003;8.787920e-002
3.475243e+003;8.767237e-002
3.477172e+003;8.737831e-002
3.479101e+003;8.709760e-002
3.481029e+003;8.636863e-002
3.482958e+003;8.616764e-002
3.484886e+003;8.626123e-002
3.486815e+003;8.603457e-002
3.488743e+003;8.559386e-002
3.490672e+003;8.518112e-002
3.492600e+003;8.486047e-002
3.494529e+003;8.457519e-002
3.496458e+003;8.398452e-002
3.498386e+003;8.321857e-002
3.500315e+003;8.313041e-002
3.502243e+003;8.314189e-002
3.504172e+003;8.290806e-002
3.506100e+003;8.271460e-002
3.508029e+003;8.263644e-002
3.509957e+003;8.257845e-002
3.511886e+003;8.214087e-002
3.513814e+003;8.151265e-002
3.515743e+003;8.088961e-002
3.517672e+003;8.059037e-002
3.519600e+003;8.075380e-002
3.521529e+003;8.052572e-002
3.523457e+003;8.006343e-002
3.525386e+003;7.936592e-002
3.527314e+003;7.868526e-002
3.529243e+003;7.884543e-002
3.531171e+003;7.894460e-002
3.533100e+003;7.821020e-002
3.535029e+003;7.741392e-002
3.536957e+003;7.694326e-002
3.538885e+003;7.667673e-002
3.540814e+003;7.652571e-002
3.542743e+003;7.613043e-002
3.544671e+003;7.603004e-002
3.546600e+003;7.559758e-002
3.548528e+003;7.503491e-002
3.550457e+003;7.468131e-002
3.552385e+003;7.465047e-002
3.554314e+003;7.419961e-002
3.556242e+003;7.354434e-002
3.558171e+003;7.308981e-002
3.560100e+003;7.277035e-002
3.562028e+003;7.271931e-002
3.563957e+003;7.230943e-002
3.565885e+003;7.184540e-002
3.567814e+003;7.174611e-002
3.569742e+003;7.150853e-002
3.571671e+003;7.107943e-002
3.573599e+003;7.041271e-002
3.575528e+003;7.022065e-002
3.577457e+003;7.003140e-002
3.579385e+003;6.976950e-002
3.581314e+003;6.960235e-002
3.583242e+003;6.897343e-002
3.585171e+003;6.810229e-002
3.587099e+003;6.747480e-002
3.589028e+003;6.728496e-002
3.590956e+003;6.754072e-002
3.592885e+003;6.751881e-002
3.594813e+003;6.694639e-002
3.596742e+003;6.655221e-002
3.598671e+003;6.624361e-002
3.600599e+003;6.586402e-002
3.602528e+003;6.564605e-002
3.604456e+003;6.523513e-002
3.606385e+003;6.446907e-002
3.608313e+003;6.401530e-002
3.610242e+003;6.386124e-002
3.612170e+003;6.365997e-002
3.614099e+003;6.359050e-002
3.616028e+003;6.330980e-002
3.617956e+003;6.264904e-002
3.619885e+003;6.210002e-002
3.621813e+003;6.184408e-002
3.623742e+003;6.155894e-002
3.625670e+003;6.109019e-002
3.627599e+003;6.002153e-002
3.629527e+003;5.938539e-002
3.631456e+003;5.963608e-002
3.633385e+003;5.974412e-002
3.635313e+003;5.980150e-002
3.637241e+003;5.952943e-002
3.639170e+003;5.880842e-002
3.641099e+003;5.797703e-002
3.643027e+003;5.703488e-002
3.644956e+003;5.610525e-002
3.646884e+003;5.565877e-002
3.648813e+003;5.502436e-002
3.650741e+003;5.433714e-002
3.652670e+003;5.403647e-002
3.654598e+003;5.352145e-002
3.656527e+003;5.269989e-002
3.658456e+003;5.218466e-002
3.660384e+003;5.156821e-002
3.662313e+003;5.081983e-002
3.664241e+003;5.020078e-002
3.666170e+003;4.993771e-002
3.668098e+003;4.923413e-002
3.670027e+003;4.782711e-002
3.671955e+003;4.716354e-002
3.673884e+003;4.684897e-002
3.675813e+003;4.624742e-002
3.677741e+003;4.600323e-002
3.679669e+003;4.540292e-002
3.681598e+003;4.440148e-002
3.683527e+003;4.340217e-002
3.685455e+003;4.282163e-002
3.687384e+003;4.253935e-002
3.689312e+003;4.205728e-002
3.691241e+003;4.157118e-002
3.693169e+003;4.128217e-002
3.695098e+003;4.060753e-002
3.697026e+003;3.992747e-002
3.698955e+003;3.980972e-002
3.700884e+003;3.985138e-002
3.702812e+003;3.986213e-002
3.704741e+003;3.971528e-002
3.706669e+003;3.946062e-002
3.708598e+003;3.920985e-002
3.710526e+003;3.904252e-002
3.712455e+003;3.900221e-002
3.714383e+003;3.895234e-002
3.716312e+003;3.832785e-002
3.718240e+003;3.788137e-002
3.720169e+003;3.767126e-002
3.722098e+003;3.768936e-002
3.724026e+003;3.766670e-002
3.725955e+003;3.756604e-002
3.727883e+003;3.742614e-002
3.729812e+003;3.747555e-002
3.731740e+003;3.751391e-002
3.733669e+003;3.697435e-002
3.735597e+003;3.625013e-002
3.737526e+003;3.653153e-002
3.739455e+003;3.720066e-002
3.741383e+003;3.717849e-002
3.743312e+003;3.633634e-002
3.745240e+003;3.605391e-002
3.747169e+003;3.633853e-002
3.749097e+003;3.621671e-002
3.751026e+003;3.584393e-002
3.752954e+003;3.561196e-002
3.754883e+003;3.592681e-002
3.756812e+003;3.607415e-002
3.758740e+003;3.569581e-002
3.760668e+003;3.549595e-002
3.762597e+003;3.595179e-002
3.764526e+003;3.637179e-002
3.766454e+003;3.640349e-002
3.768383e+003;3.589384e-002
3.770311e+003;3.568854e-002
3.772240e+003;3.590385e-002
3.774168e+003;3.601723e-002
3.776097e+003;3.569494e-002
3.778025e+003;3.554115e-002
3.779954e+003;3.566232e-002
3.781883e+003;3.577675e-002
3.783811e+003;3.575624e-002
3.785740e+003;3.607671e-002
3.787668e+003;3.589614e-002
3.789597e+003;3.557675e-002
3.791525e+003;3.605561e-002
3.793454e+003;3.639218e-002
3.795382e+003;3.606792e-002
3.797311e+003;3.568473e-002
3.799240e+003;3.540118e-002
3.801168e+003;3.501671e-002
3.803097e+003;3.543904e-002
3.805025e+003;3.607807e-002
3.806954e+003;3.595298e-002
3.808882e+003;3.570314e-002
3.810811e+003;3.600226e-002
3.812739e+003;3.622849e-002
3.814668e+003;3.551519e-002
3.816596e+003;3.558740e-002
3.818525e+003;3.619716e-002
3.820454e+003;3.599995e-002
3.822382e+003;3.594355e-002
3.824311e+003;3.640266e-002
3.826239e+003;3.624365e-002
3.828168e+003;3.589370e-002
3.830096e+003;3.609795e-002
3.832025e+003;3.647171e-002
3.833953e+003;3.653286e-002
3.835882e+003;3.629192e-002
3.837811e+003;3.632946e-002
3.839739e+003;3.682158e-002
3.841667e+003;3.695613e-002
3.843596e+003;3.677917e-002
3.845525e+003;3.684369e-002
3.847453e+003;3.686649e-002
3.849382e+003;3.673525e-002
3.851310e+003;3.631486e-002
3.853239e+003;3.574167e-002
3.855167e+003;3.636109e-002
3.857096e+003;3.717311e-002
3.859024e+003;3.712009e-002
3.860953e+003;3.722888e-002
3.862882e+003;3.765341e-002
3.864810e+003;3.775438e-002
3.866739e+003;3.783875e-002
3.868667e+003;3.789196e-002
3.870596e+003;3.787385e-002
3.872524e+003;3.802236e-002
3.874453e+003;3.834258e-002
3.876381e+003;3.882413e-002
3.878310e+003;3.895209e-002
3.880239e+003;3.890667e-002
3.882167e+003;3.880641e-002
3.884096e+003;3.858865e-002
3.886024e+003;3.841211e-002
3.887953e+003;3.881254e-002
3.889881e+003;3.930959e-002
3.891810e+003;3.959105e-002
3.893738e+003;4.010710e-002
3.895667e+003;4.044359e-002
3.897595e+003;3.999533e-002
3.899524e+003;3.962075e-002
3.901453e+003;3.962303e-002
3.903381e+003;3.989155e-002
3.905310e+003;4.026069e-002
3.907238e+003;4.021627e-002
3.909167e+003;4.021082e-002
3.911095e+003;4.070464e-002
3.913024e+003;4.087607e-002
3.914952e+003;4.064355e-002
3.916881e+003;4.081703e-002
3.918810e+003;4.161308e-002
3.920738e+003;4.164667e-002
3.922667e+003;4.115953e-002
3.924595e+003;4.148047e-002
3.926524e+003;4.214194e-002
3.928452e+003;4.240435e-002
3.930381e+003;4.214033e-002
3.932309e+003;4.160929e-002
3.934238e+003;4.162996e-002
3.936167e+003;4.200413e-002
3.938095e+003;4.220755e-002
3.940023e+003;4.228008e-002
3.941952e+003;4.247161e-002
3.943881e+003;4.276902e-002
3.945809e+003;4.258836e-002
3.947738e+003;4.214234e-002
3.949666e+003;4.209784e-002
3.951595e+003;4.246309e-002
3.953523e+003;4.304490e-002
3.955452e+003;4.321978e-002
3.957380e+003;4.282730e-002
3.959309e+003;4.251045e-002
3.961238e+003;4.288878e-002
3.963166e+003;4.339170e-002
3.965095e+003;4.362518e-002
3.967023e+003;4.350101e-002
3.968952e+003;4.351965e-002
3.970880e+003;4.374602e-002
3.972809e+003;4.368153e-002
3.974737e+003;4.385146e-002
3.976666e+003;4.415371e-002
3.978594e+003;4.424289e-002
3.980523e+003;4.431712e-002
3.982452e+003;4.400071e-002
3.984380e+003;4.369744e-002
3.986309e+003;4.391026e-002
3.988237e+003;4.386536e-002
3.990166e+003;4.384087e-002
3.992094e+003;4.407365e-002
3.994023e+003;4.405132e-002
3.995951e+003;4.438420e-002
3.997880e+003;4.455635e-002
3.999809e+003;4.417007e-002
4.001737e+003;0.000000e+000
