3.992094e+002;0.000000e+000
4.011380e+002;0.000000e+000
4.030665e+002;0.000000e+000
4.049951e+002;0.000000e+000
4.069236e+002;0.000000e+000
4.088522e+002;0.000000e+000
4.107807e+002;0.000000e+000
4.127093e+002;0.000000e+000
4.146378e+002;0.000000e+000
4.165664e+002;0.000000e+000
4.184949e+002;0.000000e+000
4.204235e+002;0.000000e+000
4.223520e+002;0.000000e+000
4.242806e+002;0.000000e+000
4.262091e+002;0.000000e+000
4.281377e+002;0.000000e+000
4.300662e+002;0.000000e+000
4.319948e+002;0.000000e+000
4.339233e+002;0.000000e+000
4.358519e+002;0.000000e+000
4.377804e+002;0.000000e+000
4.397090e+002;0.000000e+000
4.416375e+002;0.000000e+000
4.435660e+002;0.000000e+000
4.454946e+002;0.000000e+000
4.474232e+002;0.000000e+000
4.493517e+002;0.000000e+000
4.512802e+002;0.000000e+000
4.532088e+002;0.000000e+000
4.551373e+002;0.000000e+000
4.570659e+002;0.000000e+000
4.589944e+002;0.000000e+000
4.609230e+002;0.000000e+000
4.628515e+002;0.000000e+000
4.647801e+002;0.000000e+000
4.667086e+002;0.000000e+000
4.686372e+002;0.000000e+000
4.705657e+002;0.000000e+000
4.724943e+002;0.000000e+000
4.744228e+002;0.000000e+000
4.763513e+002;0.000000e+000
4.782799e+002;0.000000e+000
4.802085e+002;0.000000e+000
4.821370e+002;0.000000e+000
4.840656e+002;0.000000e+000
4.859941e+002;0.000000e+000
4.879226e+002;0.000000e+000
4.898512e+002;0.000000e+000
4.917798e+002;0.000000e+000
4.937083e+002;0.000000e+000
4.956368e+002;0.000000e+000
4.975654e+002;0.000000e+000
4.994939e+002;0.000000e+000
5.014225e+002;0.000000e+000
5.033510e+002;0.000000e+000
5.052796e+002;0.000000e+000
5.072081e+002;0.000000e+000
5.091367e+002;0.000000e+000
5.110652e+002;0.000000e+000
5.129938e+002;0.000000e+000
5.149223e+002;0.000000e+000
5.168509e+002;0.000000e+000
5.187794e+002;0.000000e+000
5.207079e+002;0.000000e+000
5.226365e+002;0.000000e+000
5.245651e+002;0.000000e+000
5.264936e+002;0.000000e+000
5.284222e+002;0.000000e+000
5.303507e+002;0.000000e+000
5.322792e+002;0.000000e+000
5.342078e+002;0.000000e+000
5.361364e+002;0.000000e+000
5.380649e+002;0.000000e+000
5.399935e+002;0.000000e+000
5.419220e+002;0.000000e+000
5.438505e+002;0.000000e+000
5.457791e+002;0.000000e+000
5.477076e+002;0.000000e+000
5.496362e+002;0.000000e+000
5.515648e+002;0.000000e+000
5.534933e+002;0.000000e+000
5.554218e+002;0.000000e+000
5.573504e+002;0.000000e+000
5.592789e+002;0.000000e+000
5.612075e+002;0.000000e+000
5.631360e+002;0.000000e+000
5.650646e+002;0.000000e+000
5.669931e+002;0.000000e+000
5.689217e+002;0.000000e+000
5.708502e+002;0.000000e+000
5.727787e+002;0.000000e+000
5.747073e+002;0.000000e+000
5.766359e+002;0.000000e+000
5.785644e+002;0.000000e+000
5.804930e+002;0.000000e+000
5.824215e+002;0.000000e+000
5.843500e+002;0.000000e+000
5.862786e+002;0.000000e+000
5.882072e+002;0.000000e+000
5.901357e+002;0.000000e+000
5.920643e+002;0.000000e+000
5.939928e+002;0.000000e+000
5.959213e+002;0.000000e+000
5.978499e+002;0.000000e+000
5.997784e+002;2.477748e-001
6.017070e+002;2.450460e-001
6.036355e+002;2.438907e-001
6.055641e+002;2.422167e-001
6.074926e+002;2.470170e-001
6.094211e+002;2.498280e-001
6.113497e+002;2.448305e-001
6.132783e+002;2.443949e-001
6.152068e+002;2.496214e-001
6.171354e+002;2.510885e-001
6.190639e+002;2.501475e-001
6.209924e+002;2.470411e-001
6.229210e+002;2.385792e-001
6.248495e+002;2.350223e-001
6.267781e+002;2.421978e-001
6.287067e+002;2.476711e-001
6.306352e+002;2.446198e-001
6.325637e+002;2.396028e-001
6.344923e+002;2.369343e-001
6.364208e+002;2.387202e-001
6.383494e+002;2.368669e-001
6.402780e+002;2.338497e-001
6.422065e+002;2.323579e-001
6.441350e+002;2.339128e-001
6.460636e+002;2.320078e-001
6.479921e+002;2.291477e-001
6.499207e+002;2.269017e-001
6.518492e+002;2.240319e-001
6.537778e+002;2.243349e-001
6.557063e+002;2.243312e-001
6.576349e+002;2.230256e-001
6.595634e+002;2.231569e-001
6.614919e+002;2.252288e-001
6.634205e+002;2.256648e-001
6.653491e+002;2.248284e-001
6.672776e+002;2.265355e-001
6.692062e+002;2.276555e-001
6.711347e+002;2.258610e-001
6.730632e+002;2.239717e-001
6.749918e+002;2.244644e-001
6.769203e+002;2.253766e-001
6.788489e+002;2.271950e-001
6.807775e+002;2.270873e-001
6.827060e+002;2.269993e-001
6.846345e+002;2.271711e-001
6.865631e+002;2.268735e-001
6.884916e+002;2.265666e-001
6.904202e+002;2.256879e-001
6.923488e+002;2.248065e-001
6.942773e+002;2.229476e-001
6.962058e+002;2.211549e-001
6.981344e+002;2.203517e-001
7.000629e+002;2.178591e-001
7.019915e+002;2.155316e-001
7.039200e+002;2.135041e-001
7.058486e+002;2.100542e-001
7.077771e+002;2.075925e-001
7.097057e+002;2.052822e-001
7.116342e+002;2.021775e-001
7.135627e+002;2.002940e-001
7.154913e+002;1.987626e-001
7.174199e+002;1.956495e-001
7.193484e+002;1.921658e-001
7.212770e+002;1.888835e-001
7.232055e+002;1.858132e-001
7.251340e+002;1.837502e-001
7.270626e+002;1.813195e-001
7.289911e+002;1.778682e-001
7.309197e+002;1.746133e-001
7.328483e+002;1.714803e-001
7.347768e+002;1.684825e-001
7.367053e+002;1.652092e-001
7.386339e+002;1.614055e-001
7.405624e+002;1.574033e-001
7.424910e+002;1.539277e-001
7.444196e+002;1.512544e-001
7.463481e+002;1.498965e-001
7.482766e+002;1.472451e-001
7.502052e+002;1.444157e-001
7.521337e+002;1.423626e-001
7.540623e+002;1.403025e-001
7.559908e+002;1.384736e-001
7.579194e+002;1.362028e-001
7.598479e+002;1.345582e-001
7.617765e+002;1.337916e-001
7.637050e+002;1.335350e-001
7.656335e+002;1.331550e-001
7.675621e+002;1.320374e-001
7.694907e+002;1.308052e-001
7.714192e+002;1.289335e-001
7.733478e+002;1.266823e-001
7.752763e+002;1.246740e-001
7.772048e+002;1.233329e-001
7.791334e+002;1.214154e-001
7.810620e+002;1.195314e-001
7.829905e+002;1.178630e-001
7.849191e+002;1.167156e-001
7.868476e+002;1.156965e-001
7.887761e+002;1.141982e-001
7.907047e+002;1.126385e-001
7.926332e+002;1.116236e-001
7.945618e+002;1.101625e-001
7.964903e+002;1.096544e-001
7.984189e+002;1.096898e-001
8.003474e+002;1.089164e-001
8.022759e+002;1.079714e-001
8.042045e+002;1.079794e-001
8.061331e+002;1.084416e-001
8.080616e+002;1.086213e-001
8.099902e+002;1.080552e-001
8.119187e+002;1.076215e-001
8.138472e+002;1.080996e-001
8.157758e+002;1.082377e-001
8.177043e+002;1.071898e-001
8.196329e+002;1.071734e-001
8.215615e+002;1.078725e-001
8.234900e+002;1.078448e-001
8.254185e+002;1.083862e-001
8.273471e+002;1.084100e-001
8.292756e+002;1.075646e-001
8.312042e+002;1.070966e-001
8.331328e+002;1.058983e-001
8.350613e+002;1.039011e-001
8.369898e+002;1.028305e-001
8.389184e+002;1.018867e-001
8.408469e+002;1.009877e-001
8.427755e+002;1.007791e-001
8.447040e+002;1.010702e-001
8.466326e+002;1.018371e-001
8.485611e+002;1.026162e-001
8.504897e+002;1.029728e-001
8.524182e+002;1.021329e-001
8.543467e+002;1.013339e-001
8.562753e+002;1.005099e-001
8.582039e+002;9.887587e-002
8.601324e+002;9.753637e-002
8.620610e+002;9.633134e-002
8.639895e+002;9.537134e-002
8.659180e+002;9.512639e-002
8.678466e+002;9.586622e-002
8.697751e+002;9.755777e-002
8.717037e+002;1.000889e-001
8.736323e+002;1.023879e-001
8.755608e+002;1.035943e-001
8.774893e+002;1.025688e-001
8.794179e+002;9.961395e-002
8.813464e+002;9.705860e-002
8.832750e+002;9.548535e-002
8.852036e+002;9.446425e-002
8.871321e+002;9.372639e-002
8.890606e+002;9.344472e-002
8.909892e+002;9.374386e-002
8.929177e+002;9.399154e-002
8.948463e+002;9.380607e-002
8.967748e+002;9.358177e-002
8.987034e+002;9.361292e-002
9.006319e+002;9.370427e-002
9.025605e+002;9.358033e-002
9.044890e+002;9.351967e-002
9.064175e+002;9.332981e-002
9.083461e+002;9.315994e-002
9.102747e+002;9.377470e-002
9.122032e+002;9.470998e-002
9.141318e+002;9.535822e-002
9.160603e+002;9.660963e-002
9.179888e+002;9.796720e-002
9.199174e+002;9.888427e-002
9.218459e+002;1.002632e-001
9.237745e+002;1.015667e-001
9.257031e+002;1.027620e-001
9.276316e+002;1.038210e-001
9.295601e+002;1.043597e-001
9.314887e+002;1.044197e-001
9.334172e+002;1.043356e-001
9.353458e+002;1.042371e-001
9.372744e+002;1.042858e-001
9.392029e+002;1.044257e-001
9.411314e+002;1.048826e-001
9.430600e+002;1.055796e-001
9.449885e+002;1.061835e-001
9.469171e+002;1.068230e-001
9.488456e+002;1.073028e-001
9.507742e+002;1.080997e-001
9.527027e+002;1.095549e-001
9.546313e+002;1.108573e-001
9.565598e+002;1.117694e-001
9.584883e+002;1.129779e-001
9.604169e+002;1.146816e-001
9.623455e+002;1.167309e-001
9.642740e+002;1.187081e-001
9.662026e+002;1.206490e-001
9.681311e+002;1.228253e-001
9.700596e+002;1.251725e-001
9.719882e+002;1.274608e-001
9.739167e+002;1.289929e-001
9.758453e+002;1.294877e-001
9.777739e+002;1.289870e-001
9.797024e+002;1.281740e-001
9.816309e+002;1.275207e-001
9.835595e+002;1.271536e-001
9.854880e+002;1.272988e-001
9.874166e+002;1.288079e-001
9.893452e+002;1.315026e-001
9.912737e+002;1.345818e-001
9.932022e+002;1.372348e-001
9.951307e+002;1.389716e-001
9.970593e+002;1.402776e-001
9.989879e+002;1.404022e-001
1.000916e+003;1.396036e-001
1.002845e+003;1.391364e-001
1.004773e+003;1.385956e-001
1.006702e+003;1.381842e-001
1.008631e+003;1.381713e-001
1.010559e+003;1.382861e-001
1.012488e+003;1.390046e-001
1.014416e+003;1.392663e-001
1.016345e+003;1.387867e-001
1.018273e+003;1.381900e-001
1.020202e+003;1.380065e-001
1.022130e+003;1.386342e-001
1.024059e+003;1.395857e-001
1.025988e+003;1.408127e-001
1.027916e+003;1.427938e-001
1.029845e+003;1.448464e-001
1.031773e+003;1.469168e-001
1.033702e+003;1.490047e-001
1.035630e+003;1.507233e-001
1.037559e+003;1.521398e-001
1.039487e+003;1.533069e-001
1.041416e+003;1.539942e-001
1.043344e+003;1.544415e-001
1.045273e+003;1.548048e-001
1.047202e+003;1.550515e-001
1.049130e+003;1.558874e-001
1.051059e+003;1.568649e-001
1.052987e+003;1.571449e-001
1.054916e+003;1.577120e-001
1.056844e+003;1.588046e-001
1.058773e+003;1.598088e-001
1.060701e+003;1.606784e-001
1.062630e+003;1.612769e-001
1.064558e+003;1.614863e-001
1.066487e+003;1.611741e-001
1.068416e+003;1.606330e-001
1.070344e+003;1.596232e-001
1.072273e+003;1.576709e-001
1.074201e+003;1.552175e-001
1.076130e+003;1.525072e-001
1.078058e+003;1.493236e-001
1.079987e+003;1.460405e-001
1.081915e+003;1.421669e-001
1.083844e+003;1.383788e-001
1.085773e+003;1.359274e-001
1.087701e+003;1.334610e-001
1.089630e+003;1.305215e-001
1.091558e+003;1.283168e-001
1.093487e+003;1.272222e-001
1.095415e+003;1.269511e-001
1.097344e+003;1.268311e-001
1.099272e+003;1.268690e-001
1.101201e+003;1.271019e-001
1.103129e+003;1.267267e-001
1.105058e+003;1.256232e-001
1.106987e+003;1.249174e-001
1.108915e+003;1.242446e-001
1.110844e+003;1.231141e-001
1.112772e+003;1.224260e-001
1.114701e+003;1.221342e-001
1.116629e+003;1.220746e-001
1.118558e+003;1.220102e-001
1.120486e+003;1.220310e-001
1.122415e+003;1.223777e-001
1.124344e+003;1.226052e-001
1.126272e+003;1.228551e-001
1.128201e+003;1.232232e-001
1.130129e+003;1.236790e-001
1.132058e+003;1.246646e-001
1.133986e+003;1.258761e-001
1.135915e+003;1.268283e-001
1.137843e+003;1.280784e-001
1.139772e+003;1.299315e-001
1.141700e+003;1.318602e-001
1.143629e+003;1.334906e-001
1.145557e+003;1.350996e-001
1.147486e+003;1.372741e-001
1.149415e+003;1.398089e-001
1.151343e+003;1.424398e-001
1.153272e+003;1.445994e-001
1.155200e+003;1.465093e-001
1.157129e+003;1.484042e-001
1.159057e+003;1.493981e-001
1.160986e+003;1.502751e-001
1.162914e+003;1.514197e-001
1.164843e+003;1.519848e-001
1.166771e+003;1.523294e-001
1.168700e+003;1.526398e-001
1.170629e+003;1.523233e-001
1.172557e+003;1.511756e-001
1.174486e+003;1.495776e-001
1.176414e+003;1.476270e-001
1.178343e+003;1.452547e-001
1.180271e+003;1.432158e-001
1.182200e+003;1.426520e-001
1.184128e+003;1.431225e-001
1.186057e+003;1.439850e-001
1.187986e+003;1.451716e-001
1.189914e+003;1.460378e-001
1.191843e+003;1.474603e-001
1.193771e+003;1.498761e-001
1.195700e+003;1.526772e-001
1.197628e+003;1.560290e-001
1.199557e+003;1.598507e-001
1.201485e+003;1.640288e-001
1.203414e+003;1.687532e-001
1.205343e+003;1.737731e-001
1.207271e+003;1.786902e-001
1.209200e+003;1.835509e-001
1.211128e+003;1.885735e-001
1.213057e+003;1.931800e-001
1.214985e+003;1.973469e-001
1.216914e+003;2.012092e-001
1.218842e+003;2.043640e-001
1.220771e+003;2.069842e-001
1.222699e+003;2.093795e-001
1.224628e+003;2.115044e-001
1.226557e+003;2.127534e-001
1.228485e+003;2.128146e-001
1.230414e+003;2.123370e-001
1.232342e+003;2.110411e-001
1.234271e+003;2.084961e-001
1.236199e+003;2.055356e-001
1.238128e+003;2.028093e-001
1.240056e+003;2.002520e-001
1.241985e+003;1.975902e-001
1.243913e+003;1.954499e-001
1.245842e+003;1.938992e-001
1.247771e+003;1.924541e-001
1.249699e+003;1.914224e-001
1.251628e+003;1.909374e-001
1.253556e+003;1.908914e-001
1.255485e+003;1.908604e-001
1.257413e+003;1.906524e-001
1.259342e+003;1.902953e-001
1.261270e+003;1.895407e-001
1.263199e+003;1.880017e-001
1.265127e+003;1.854278e-001
1.267056e+003;1.817730e-001
1.268985e+003;1.777948e-001
1.270913e+003;1.739025e-001
1.272842e+003;1.700051e-001
1.274770e+003;1.662988e-001
1.276699e+003;1.631094e-001
1.278627e+003;1.604262e-001
1.280556e+003;1.580971e-001
1.282484e+003;1.564444e-001
1.284413e+003;1.553647e-001
1.286342e+003;1.544022e-001
1.288270e+003;1.535124e-001
1.290199e+003;1.529391e-001
1.292127e+003;1.523453e-001
1.294056e+003;1.521907e-001
1.295984e+003;1.523248e-001
1.297913e+003;1.522035e-001
1.299841e+003;1.521979e-001
1.301770e+003;1.524721e-001
1.303698e+003;1.525621e-001
1.305627e+003;1.526636e-001
1.307556e+003;1.528696e-001
1.309484e+003;1.529376e-001
1.311413e+003;1.526463e-001
1.313341e+003;1.524667e-001
1.315270e+003;1.524820e-001
1.317198e+003;1.526857e-001
1.319127e+003;1.529503e-001
1.321055e+003;1.535534e-001
1.322984e+003;1.545244e-001
1.324912e+003;1.555539e-001
1.326841e+003;1.565105e-001
1.328770e+003;1.572049e-001
1.330698e+003;1.578941e-001
1.332627e+003;1.584454e-001
1.334555e+003;1.585124e-001
1.336484e+003;1.582323e-001
1.338412e+003;1.579172e-001
1.340341e+003;1.577416e-001
1.342269e+003;1.576519e-001
1.344198e+003;1.573592e-001
1.346126e+003;1.571769e-001
1.348055e+003;1.572017e-001
1.349984e+003;1.575169e-001
1.351912e+003;1.578903e-001
1.353841e+003;1.581504e-001
1.355769e+003;1.591193e-001
1.357698e+003;1.612546e-001
1.359626e+003;1.642409e-001
1.361555e+003;1.678434e-001
1.363483e+003;1.714677e-001
1.365412e+003;1.742980e-001
1.367341e+003;1.761502e-001
1.369269e+003;1.770536e-001
1.371198e+003;1.767848e-001
1.373126e+003;1.759890e-001
1.375055e+003;1.755509e-001
1.376983e+003;1.755980e-001
1.378912e+003;1.759445e-001
1.380840e+003;1.766164e-001
1.382769e+003;1.774212e-001
1.384698e+003;1.782410e-001
1.386626e+003;1.792433e-001
1.388555e+003;1.802876e-001
1.390483e+003;1.812598e-001
1.392412e+003;1.822272e-001
1.394340e+003;1.837606e-001
1.396269e+003;1.856652e-001
1.398197e+003;1.877141e-001
1.400126e+003;1.899888e-001
1.402054e+003;1.922442e-001
1.403983e+003;1.943128e-001
1.405911e+003;1.963656e-001
1.407840e+003;1.979676e-001
1.409769e+003;1.989909e-001
1.411697e+003;1.993076e-001
1.413626e+003;1.990893e-001
1.415554e+003;1.989139e-001
1.417483e+003;1.989715e-001
1.419411e+003;1.989232e-001
1.421340e+003;1.993355e-001
1.423268e+003;2.008637e-001
1.425197e+003;2.030823e-001
1.427125e+003;2.063124e-001
1.429054e+003;2.109190e-001
1.430983e+003;2.167049e-001
1.432911e+003;2.234573e-001
1.434840e+003;2.299225e-001
1.436768e+003;2.352059e-001
1.438697e+003;2.388720e-001
1.440625e+003;2.409751e-001
1.442554e+003;2.420300e-001
1.444482e+003;2.421196e-001
1.446411e+003;2.404681e-001
1.448340e+003;2.369994e-001
1.450268e+003;2.323915e-001
1.452197e+003;2.264554e-001
1.454125e+003;2.199461e-001
1.456054e+003;2.138628e-001
1.457982e+003;2.085955e-001
1.459911e+003;2.047861e-001
1.461839e+003;2.024109e-001
1.463768e+003;2.010762e-001
1.465697e+003;2.004244e-001
1.467625e+003;2.006479e-001
1.469554e+003;2.014152e-001
1.471482e+003;2.028161e-001
1.473411e+003;2.048327e-001
1.475339e+003;2.072843e-001
1.477268e+003;2.106562e-001
1.479196e+003;2.150269e-001
1.481125e+003;2.203073e-001
1.483053e+003;2.263070e-001
1.484982e+003;2.332000e-001
1.486911e+003;2.408304e-001
1.488839e+003;2.491975e-001
1.490768e+003;2.577944e-001
1.492696e+003;2.666079e-001
1.494625e+003;2.756646e-001
1.496553e+003;2.846619e-001
1.498482e+003;2.933205e-001
1.500410e+003;3.012823e-001
1.502339e+003;3.088099e-001
1.504267e+003;3.159926e-001
1.506196e+003;3.223572e-001
1.508125e+003;3.280020e-001
1.510053e+003;3.328697e-001
1.511982e+003;3.363549e-001
1.513910e+003;3.372674e-001
1.515839e+003;3.341994e-001
1.517767e+003;3.277740e-001
1.519696e+003;3.200559e-001
1.521624e+003;3.125507e-001
1.523553e+003;3.062209e-001
1.525481e+003;3.002209e-001
1.527410e+003;2.939989e-001
1.529339e+003;2.879816e-001
1.531267e+003;2.824646e-001
1.533196e+003;2.766224e-001
1.535124e+003;2.704104e-001
1.537053e+003;2.643547e-001
1.538981e+003;2.582250e-001
1.540910e+003;2.524296e-001
1.542838e+003;2.471374e-001
1.544767e+003;2.421445e-001
1.546695e+003;2.372334e-001
1.548624e+003;2.323038e-001
1.550553e+003;2.272225e-001
1.552481e+003;2.221581e-001
1.554410e+003;2.172764e-001
1.556338e+003;2.127812e-001
1.558267e+003;2.081134e-001
1.560195e+003;2.030783e-001
1.562124e+003;1.980301e-001
1.564052e+003;1.927271e-001
1.565981e+003;1.874128e-001
1.567910e+003;1.827622e-001
1.569838e+003;1.787402e-001
1.571767e+003;1.752916e-001
1.573695e+003;1.724188e-001
1.575624e+003;1.703473e-001
1.577552e+003;1.692530e-001
1.579481e+003;1.694254e-001
1.581409e+003;1.704772e-001
1.583338e+003;1.719737e-001
1.585266e+003;1.742847e-001
1.587195e+003;1.777658e-001
1.589124e+003;1.819559e-001
1.591052e+003;1.869501e-001
1.592981e+003;1.928781e-001
1.594909e+003;1.993331e-001
1.596838e+003;2.063923e-001
1.598766e+003;2.141049e-001
1.600695e+003;2.231788e-001
1.602623e+003;2.344124e-001
1.604552e+003;2.472883e-001
1.606480e+003;2.608745e-001
1.608409e+003;2.750361e-001
1.610338e+003;2.895196e-001
1.612266e+003;3.035747e-001
1.614195e+003;3.168730e-001
1.616123e+003;3.298924e-001
1.618052e+003;3.409318e-001
1.619980e+003;3.483146e-001
1.621909e+003;3.522558e-001
1.623837e+003;3.526954e-001
1.625766e+003;3.493279e-001
1.627694e+003;3.431017e-001
1.629623e+003;3.351381e-001
1.631552e+003;3.260207e-001
1.633480e+003;3.164567e-001
1.635409e+003;3.063928e-001
1.637337e+003;2.965738e-001
1.639266e+003;2.874684e-001
1.641194e+003;2.789687e-001
1.643123e+003;2.711088e-001
1.645051e+003;2.635868e-001
1.646980e+003;2.563364e-001
1.648909e+003;2.494062e-001
1.650837e+003;2.430470e-001
1.652766e+003;2.365244e-001
1.654694e+003;2.297383e-001
1.656623e+003;2.234104e-001
1.658551e+003;2.169494e-001
1.660480e+003;2.101479e-001
1.662408e+003;2.034213e-001
1.664337e+003;1.974415e-001
1.666266e+003;1.919259e-001
1.668194e+003;1.866348e-001
1.670123e+003;1.812500e-001
1.672051e+003;1.759861e-001
1.673980e+003;1.710392e-001
1.675908e+003;1.662525e-001
1.677837e+003;1.619781e-001
1.679765e+003;1.579397e-001
1.681694e+003;1.539851e-001
1.683622e+003;1.501373e-001
1.685551e+003;1.464998e-001
1.687479e+003;1.435971e-001
1.689408e+003;1.413470e-001
1.691337e+003;1.396117e-001
1.693265e+003;1.386439e-001
1.695194e+003;1.383174e-001
1.697122e+003;1.377356e-001
1.699051e+003;1.352328e-001
1.700979e+003;1.289961e-001
1.702908e+003;1.194448e-001
1.704836e+003;1.084531e-001
1.706765e+003;9.826183e-002
1.708693e+003;8.997416e-002
1.710622e+003;8.329290e-002
1.712551e+003;7.815605e-002
1.714479e+003;7.429596e-002
1.716408e+003;7.127830e-002
1.718336e+003;6.882160e-002
1.720265e+003;6.686348e-002
1.722193e+003;6.529597e-002
1.724122e+003;6.381142e-002
1.726050e+003;6.267063e-002
1.727979e+003;6.164237e-002
1.729908e+003;6.074773e-002
1.731836e+003;5.999292e-002
1.733765e+003;5.906970e-002
1.735693e+003;5.815121e-002
1.737622e+003;5.764087e-002
1.739550e+003;5.737915e-002
1.741479e+003;5.705362e-002
1.743407e+003;5.665286e-002
1.745336e+003;5.642807e-002
1.747265e+003;5.632855e-002
1.749193e+003;5.650947e-002
1.751122e+003;5.672123e-002
1.753050e+003;5.704946e-002
1.754979e+003;5.720472e-002
1.756907e+003;5.707894e-002
1.758836e+003;5.714156e-002
1.760764e+003;5.716726e-002
1.762693e+003;5.712500e-002
1.764621e+003;5.735605e-002
1.766550e+003;5.759392e-002
1.768479e+003;5.762403e-002
1.770407e+003;5.756418e-002
1.772336e+003;5.727779e-002
1.774264e+003;5.711076e-002
1.776193e+003;5.732561e-002
1.778121e+003;5.750592e-002
1.780050e+003;5.750029e-002
1.781978e+003;5.747219e-002
1.783907e+003;5.749688e-002
1.785835e+003;5.748330e-002
1.787764e+003;5.736978e-002
1.789693e+003;5.722342e-002
1.791621e+003;5.703650e-002
1.793550e+003;5.694376e-002
1.795478e+003;5.698093e-002
1.797407e+003;5.698826e-002
1.799335e+003;5.697228e-002
1.801264e+003;5.694323e-002
1.803192e+003;5.700586e-002
1.805121e+003;5.701436e-002
1.807049e+003;5.677428e-002
1.808978e+003;5.653574e-002
1.810907e+003;5.642468e-002
1.812835e+003;5.633926e-002
1.814764e+003;5.635688e-002
1.816692e+003;5.633051e-002
1.818621e+003;5.634383e-002
1.820549e+003;5.620729e-002
1.822478e+003;5.598662e-002
1.824406e+003;5.605726e-002
1.826335e+003;5.609892e-002
1.828264e+003;5.607000e-002
1.830192e+003;5.610431e-002
1.832121e+003;5.604652e-002
1.834049e+003;5.579748e-002
1.835978e+003;5.562179e-002
1.837906e+003;5.562250e-002
1.839835e+003;5.564329e-002
1.841763e+003;5.578512e-002
1.843692e+003;5.587773e-002
1.845620e+003;5.572684e-002
1.847549e+003;5.556078e-002
1.849478e+003;5.551688e-002
1.851406e+003;5.550980e-002
1.853335e+003;5.557197e-002
1.855263e+003;5.562887e-002
1.857192e+003;5.553092e-002
1.859120e+003;5.541609e-002
1.861049e+003;5.546349e-002
1.862977e+003;5.559957e-002
1.864906e+003;5.562627e-002
1.866834e+003;5.566536e-002
1.868763e+003;5.578007e-002
1.870692e+003;5.589526e-002
1.872620e+003;5.597278e-002
1.874549e+003;5.596264e-002
1.876477e+003;5.598850e-002
1.878406e+003;5.605258e-002
1.880334e+003;5.607422e-002
1.882263e+003;5.608188e-002
1.884191e+003;5.609813e-002
1.886120e+003;5.606744e-002
1.888048e+003;5.598911e-002
1.889977e+003;5.596291e-002
1.891906e+003;5.588030e-002
1.893834e+003;5.584808e-002
1.895763e+003;5.617214e-002
1.897691e+003;5.620891e-002
1.899620e+003;5.596114e-002
1.901548e+003;5.584118e-002
1.903477e+003;5.585015e-002
1.905405e+003;5.596988e-002
1.907334e+003;5.590091e-002
1.909262e+003;5.572755e-002
1.911191e+003;5.563855e-002
1.913120e+003;5.564585e-002
1.915048e+003;5.586835e-002
1.916977e+003;5.595439e-002
1.918905e+003;5.603935e-002
1.920834e+003;5.616064e-002
1.922762e+003;5.616392e-002
1.924691e+003;5.606465e-002
1.926619e+003;5.597832e-002
1.928548e+003;5.610883e-002
1.930477e+003;5.629747e-002
1.932405e+003;5.631388e-002
1.934334e+003;5.632173e-002
1.936262e+003;5.637299e-002
1.938191e+003;5.625141e-002
1.940119e+003;5.605319e-002
1.942048e+003;5.594942e-002
1.943976e+003;5.604538e-002
1.945905e+003;5.616189e-002
1.947833e+003;5.628932e-002
1.949762e+003;5.653340e-002
1.951691e+003;5.641178e-002
1.953619e+003;5.620559e-002
1.955548e+003;5.634911e-002
1.957476e+003;5.653249e-002
1.959405e+003;5.658688e-002
1.961333e+003;5.679502e-002
1.963262e+003;5.691840e-002
1.965190e+003;5.679551e-002
1.967119e+003;5.667045e-002
1.969047e+003;5.663686e-002
1.970976e+003;5.673860e-002
1.972905e+003;5.688740e-002
1.974833e+003;5.683037e-002
1.976762e+003;5.683037e-002
1.978690e+003;5.704236e-002
1.980619e+003;5.691497e-002
1.982547e+003;5.663429e-002
1.984476e+003;5.658439e-002
1.986404e+003;5.675910e-002
1.988333e+003;5.687539e-002
1.990261e+003;5.693964e-002
1.992190e+003;5.692940e-002
1.994119e+003;5.678924e-002
1.996047e+003;5.665180e-002
1.997976e+003;5.674555e-002
1.999904e+003;5.703326e-002
2.001833e+003;5.705985e-002
2.003761e+003;5.719428e-002
2.005690e+003;5.729488e-002
2.007618e+003;5.709481e-002
2.009547e+003;5.687724e-002
2.011476e+003;5.669012e-002
2.013404e+003;5.663187e-002
2.015333e+003;5.668620e-002
2.017261e+003;5.682043e-002
2.019190e+003;5.686772e-002
2.021118e+003;5.686273e-002
2.023047e+003;5.709579e-002
2.024975e+003;5.732134e-002
2.026904e+003;5.736785e-002
2.028833e+003;5.738207e-002
2.030761e+003;5.732130e-002
2.032690e+003;5.729382e-002
2.034618e+003;5.720362e-002
2.036547e+003;5.720007e-002
2.038475e+003;5.740112e-002
2.040404e+003;5.745490e-002
2.042332e+003;5.749499e-002
2.044261e+003;5.741640e-002
2.046189e+003;5.722437e-002
2.048118e+003;5.707361e-002
2.050047e+003;5.712924e-002
2.051975e+003;5.733355e-002
2.053904e+003;5.739870e-002
2.055832e+003;5.757016e-002
2.057761e+003;5.760322e-002
2.059689e+003;5.745989e-002
2.061618e+003;5.744821e-002
2.063546e+003;5.750680e-002
2.065475e+003;5.761257e-002
2.067404e+003;5.785648e-002
2.069332e+003;5.798971e-002
2.071260e+003;5.793871e-002
2.073189e+003;5.771027e-002
2.075118e+003;5.762248e-002
2.077046e+003;5.770198e-002
2.078975e+003;5.768726e-002
2.080903e+003;5.763984e-002
2.082832e+003;5.769812e-002
2.084760e+003;5.780575e-002
2.086689e+003;5.802304e-002
2.088617e+003;5.820872e-002
2.090546e+003;5.795253e-002
2.092475e+003;5.777718e-002
2.094403e+003;5.794969e-002
2.096332e+003;5.802137e-002
2.098260e+003;5.797536e-002
2.100189e+003;5.803020e-002
2.102117e+003;5.804326e-002
2.104046e+003;5.799645e-002
2.105974e+003;5.818057e-002
2.107903e+003;5.827976e-002
2.109832e+003;5.803504e-002
2.111760e+003;5.781632e-002
2.113688e+003;5.780030e-002
2.115617e+003;5.790634e-002
2.117546e+003;5.782014e-002
2.119474e+003;5.775000e-002
2.121403e+003;5.782237e-002
2.123331e+003;5.789676e-002
2.125260e+003;5.805409e-002
2.127188e+003;5.812549e-002
2.129117e+003;5.817375e-002
2.131045e+003;5.805178e-002
2.132974e+003;5.796510e-002
2.134903e+003;5.788396e-002
2.136831e+003;5.783642e-002
2.138760e+003;5.782919e-002
2.140688e+003;5.773229e-002
2.142617e+003;5.757424e-002
2.144545e+003;5.768484e-002
2.146474e+003;5.814647e-002
2.148402e+003;5.804470e-002
2.150331e+003;5.774433e-002
2.152260e+003;5.773369e-002
2.154188e+003;5.771216e-002
2.156117e+003;5.771322e-002
2.158045e+003;5.783986e-002
2.159974e+003;5.794424e-002
2.161902e+003;5.789471e-002
2.163831e+003;5.785201e-002
2.165759e+003;5.781632e-002
2.167688e+003;5.777971e-002
2.169616e+003;5.785247e-002
2.171545e+003;5.783944e-002
2.173474e+003;5.769180e-002
2.175402e+003;5.757568e-002
2.177331e+003;5.769880e-002
2.179259e+003;5.782960e-002
2.181188e+003;5.784788e-002
2.183116e+003;5.789680e-002
2.185045e+003;5.782941e-002
2.186973e+003;5.767106e-002
2.188902e+003;5.752083e-002
2.190831e+003;5.756634e-002
2.192759e+003;5.751413e-002
2.194688e+003;5.755453e-002
2.196616e+003;5.756304e-002
2.198545e+003;5.761809e-002
2.200473e+003;5.779750e-002
2.202402e+003;5.784864e-002
2.204330e+003;5.789400e-002
2.206259e+003;5.784168e-002
2.208188e+003;5.763194e-002
2.210116e+003;5.768635e-002
2.212044e+003;5.787241e-002
2.213973e+003;5.778255e-002
2.215902e+003;5.765074e-002
2.217830e+003;5.761752e-002
2.219759e+003;5.773812e-002
2.221687e+003;5.781779e-002
2.223616e+003;5.774751e-002
2.225544e+003;5.774497e-002
2.227473e+003;5.772279e-002
2.229401e+003;5.757795e-002
2.231330e+003;5.748172e-002
2.233259e+003;5.749284e-002
2.235187e+003;5.751160e-002
2.237116e+003;5.771999e-002
2.239044e+003;5.775818e-002
2.240973e+003;5.739727e-002
2.242901e+003;5.731574e-002
2.244830e+003;5.752786e-002
2.246758e+003;5.748474e-002
2.248687e+003;5.737677e-002
2.250615e+003;5.764851e-002
2.252544e+003;5.770936e-002
2.254473e+003;5.745271e-002
2.256401e+003;5.725529e-002
2.258330e+003;5.722301e-002
2.260258e+003;5.729045e-002
2.262187e+003;5.738732e-002
2.264115e+003;5.725113e-002
2.266044e+003;5.704289e-002
2.267972e+003;5.705275e-002
2.269901e+003;5.746420e-002
2.271830e+003;5.746931e-002
2.273758e+003;5.728799e-002
2.275687e+003;5.736441e-002
2.277615e+003;5.741319e-002
2.279544e+003;5.744106e-002
2.281472e+003;5.724781e-002
2.283401e+003;5.716525e-002
2.285329e+003;5.717788e-002
2.287258e+003;5.718086e-002
2.289187e+003;5.731162e-002
2.291115e+003;5.714889e-002
2.293043e+003;5.685914e-002
2.294972e+003;5.697707e-002
2.296901e+003;5.713736e-002
2.298829e+003;5.718268e-002
2.300758e+003;5.734928e-002
2.302686e+003;5.742476e-002
2.304615e+003;5.713623e-002
2.306543e+003;5.685665e-002
2.308472e+003;5.693268e-002
2.310400e+003;5.702143e-002
2.312329e+003;5.713513e-002
2.314258e+003;5.713733e-002
2.316186e+003;5.702910e-002
2.318115e+003;5.706752e-002
2.320043e+003;5.713275e-002
2.321972e+003;5.709334e-002
2.323900e+003;5.710777e-002
2.325829e+003;5.718037e-002
2.327757e+003;5.708049e-002
2.329686e+003;5.680861e-002
2.331615e+003;5.678573e-002
2.333543e+003;5.711019e-002
2.335472e+003;5.725786e-002
2.337400e+003;5.736524e-002
2.339329e+003;5.748236e-002
2.341257e+003;5.741054e-002
2.343186e+003;5.736116e-002
2.345114e+003;5.717425e-002
2.347043e+003;5.709768e-002
2.348971e+003;5.710906e-002
2.350900e+003;5.707660e-002
2.352829e+003;5.709912e-002
2.354757e+003;5.709787e-002
2.356686e+003;5.712599e-002
2.358614e+003;5.715184e-002
2.360543e+003;5.728705e-002
2.362471e+003;5.726901e-002
2.364400e+003;5.715528e-002
2.366328e+003;5.717826e-002
2.368257e+003;5.706197e-002
2.370186e+003;5.702116e-002
2.372114e+003;5.707187e-002
2.374042e+003;5.722694e-002
2.375971e+003;5.746005e-002
2.377900e+003;5.747710e-002
2.379828e+003;5.752654e-002
2.381757e+003;5.746420e-002
2.383685e+003;5.737745e-002
2.385614e+003;5.771481e-002
2.387542e+003;5.797960e-002
2.389471e+003;5.787382e-002
2.391399e+003;5.777710e-002
2.393328e+003;5.784213e-002
2.395257e+003;5.806310e-002
2.397185e+003;5.819656e-002
2.399114e+003;5.817769e-002
2.401042e+003;5.832019e-002
2.402971e+003;5.840619e-002
2.404899e+003;5.819694e-002
2.406828e+003;5.811825e-002
2.408756e+003;5.827082e-002
2.410685e+003;5.845164e-002
2.412614e+003;5.826953e-002
2.414542e+003;5.829950e-002
2.416471e+003;5.867683e-002
2.418399e+003;5.901903e-002
2.420328e+003;5.911553e-002
2.422256e+003;5.916219e-002
2.424185e+003;5.952928e-002
2.426113e+003;5.978020e-002
2.428042e+003;5.969017e-002
2.429970e+003;5.955908e-002
2.431899e+003;5.975385e-002
2.433828e+003;6.000239e-002
2.435756e+003;5.982621e-002
2.437685e+003;5.963015e-002
2.439613e+003;5.956656e-002
2.441542e+003;5.947715e-002
2.443470e+003;5.976150e-002
2.445399e+003;5.975792e-002
2.447327e+003;5.947224e-002
2.449256e+003;5.959070e-002
2.451185e+003;5.987147e-002
2.453113e+003;6.016628e-002
2.455042e+003;6.028770e-002
2.456970e+003;6.021979e-002
2.458899e+003;6.012461e-002
2.460827e+003;5.994339e-002
2.462756e+003;5.970082e-002
2.464684e+003;5.997520e-002
2.466613e+003;6.044807e-002
2.468542e+003;6.044320e-002
2.470470e+003;6.021351e-002
2.472398e+003;6.025298e-002
2.474327e+003;6.035824e-002
2.476256e+003;6.040652e-002
2.478184e+003;6.044030e-002
2.480113e+003;6.033776e-002
2.482041e+003;6.036201e-002
2.483970e+003;6.037344e-002
2.485898e+003;6.057045e-002
2.487827e+003;6.061746e-002
2.489755e+003;6.055887e-002
2.491684e+003;6.076705e-002
2.493613e+003;6.093187e-002
2.495541e+003;6.094689e-002
2.497470e+003;6.081340e-002
2.499398e+003;6.072052e-002
2.501327e+003;6.092577e-002
2.503255e+003;6.103471e-002
2.505184e+003;6.115053e-002
2.507112e+003;6.122953e-002
2.509041e+003;6.130455e-002
2.510969e+003;6.137682e-002
2.512898e+003;6.144613e-002
2.514827e+003;6.150129e-002
2.516755e+003;6.150561e-002
2.518684e+003;6.155375e-002
2.520612e+003;6.148499e-002
2.522541e+003;6.149996e-002
2.524469e+003;6.167120e-002
2.526398e+003;6.169641e-002
2.528326e+003;6.183774e-002
2.530255e+003;6.178491e-002
2.532184e+003;6.173571e-002
2.534112e+003;6.188844e-002
2.536041e+003;6.207854e-002
2.537969e+003;6.188936e-002
2.539898e+003;6.170065e-002
2.541826e+003;6.202632e-002
2.543755e+003;6.233055e-002
2.545683e+003;6.241180e-002
2.547612e+003;6.256592e-002
2.549541e+003;6.268965e-002
2.551469e+003;6.255145e-002
2.553397e+003;6.263813e-002
2.555326e+003;6.279260e-002
2.557255e+003;6.281377e-002
2.559183e+003;6.284441e-002
2.561112e+003;6.291966e-002
2.563040e+003;6.301975e-002
2.564969e+003;6.316205e-002
2.566897e+003;6.312595e-002
2.568826e+003;6.312243e-002
2.570754e+003;6.348698e-002
2.572683e+003;6.370164e-002
2.574612e+003;6.354596e-002
2.576540e+003;6.360845e-002
2.578469e+003;6.373483e-002
2.580397e+003;6.384320e-002
2.582326e+003;6.392124e-002
2.584254e+003;6.408729e-002
2.586183e+003;6.440988e-002
2.588111e+003;6.451420e-002
2.590040e+003;6.454964e-002
2.591969e+003;6.446938e-002
2.593897e+003;6.425764e-002
2.595826e+003;6.434959e-002
2.597754e+003;6.447841e-002
2.599683e+003;6.466910e-002
2.601611e+003;6.513553e-002
2.603540e+003;6.542200e-002
2.605468e+003;6.544469e-002
2.607397e+003;6.543054e-002
2.609325e+003;6.560470e-002
2.611254e+003;6.548922e-002
2.613183e+003;6.512421e-002
2.615111e+003;6.520887e-002
2.617040e+003;6.531689e-002
2.618968e+003;6.540651e-002
2.620897e+003;6.557249e-002
2.622825e+003;6.547381e-002
2.624754e+003;6.532081e-002
2.626682e+003;6.531461e-002
2.628611e+003;6.546895e-002
2.630540e+003;6.575976e-002
2.632468e+003;6.579877e-002
2.634396e+003;6.559819e-002
2.636325e+003;6.536187e-002
2.638254e+003;6.516244e-002
2.640182e+003;6.516772e-002
2.642111e+003;6.534504e-002
2.644039e+003;6.567269e-002
2.645968e+003;6.585715e-002
2.647896e+003;6.571932e-002
2.649825e+003;6.555946e-002
2.651753e+003;6.576655e-002
2.653682e+003;6.598485e-002
2.655611e+003;6.595919e-002
2.657539e+003;6.586298e-002
2.659468e+003;6.590686e-002
2.661396e+003;6.606392e-002
2.663325e+003;6.636439e-002
2.665253e+003;6.644176e-002
2.667182e+003;6.634999e-002
2.669110e+003;6.628580e-002
2.671039e+003;6.615385e-002
2.672968e+003;6.623694e-002
2.674896e+003;6.630004e-002
2.676825e+003;6.649315e-002
2.678753e+003;6.687590e-002
2.680682e+003;6.697075e-002
2.682610e+003;6.697218e-002
2.684539e+003;6.700218e-002
2.686467e+003;6.683876e-002
2.688396e+003;6.695436e-002
2.690324e+003;6.711435e-002
2.692253e+003;6.706640e-002
2.694182e+003;6.718091e-002
2.696110e+003;6.750526e-002
2.698039e+003;6.770093e-002
2.699967e+003;6.779736e-002
2.701896e+003;6.783242e-002
2.703824e+003;6.787297e-002
2.705753e+003;6.792457e-002
2.707681e+003;6.793813e-002
2.709610e+003;6.794484e-002
2.711539e+003;6.814698e-002
2.713467e+003;6.838478e-002
2.715396e+003;6.869129e-002
2.717324e+003;6.879540e-002
2.719253e+003;6.884132e-002
2.721181e+003;6.893824e-002
2.723110e+003;6.901409e-002
2.725038e+003;6.917143e-002
2.726967e+003;6.904525e-002
2.728896e+003;6.915184e-002
2.730824e+003;6.946931e-002
2.732752e+003;6.957139e-002
2.734681e+003;6.973670e-002
2.736610e+003;6.998601e-002
2.738538e+003;7.002205e-002
2.740467e+003;7.003167e-002
2.742395e+003;7.044135e-002
2.744324e+003;7.081627e-002
2.746252e+003;7.086366e-002
2.748181e+003;7.079443e-002
2.750109e+003;7.080843e-002
2.752038e+003;7.112466e-002
2.753967e+003;7.122533e-002
2.755895e+003;7.117395e-002
2.757824e+003;7.132375e-002
2.759752e+003;7.175420e-002
2.761681e+003;7.222232e-002
2.763609e+003;7.231538e-002
2.765538e+003;7.218272e-002
2.767466e+003;7.207952e-002
2.769395e+003;7.198503e-002
2.771323e+003;7.208426e-002
2.773252e+003;7.238974e-002
2.775181e+003;7.252128e-002
2.777109e+003;7.274230e-002
2.779038e+003;7.273047e-002
2.780966e+003;7.279182e-002
2.782895e+003;7.313447e-002
2.784823e+003;7.326823e-002
2.786752e+003;7.344211e-002
2.788680e+003;7.350031e-002
2.790609e+003;7.344517e-002
2.792538e+003;7.340594e-002
2.794466e+003;7.333300e-002
2.796395e+003;7.350756e-002
2.798323e+003;7.392227e-002
2.800252e+003;7.424348e-002
2.802180e+003;7.430300e-002
2.804109e+003;7.447280e-002
2.806037e+003;7.455116e-002
2.807966e+003;7.454612e-002
2.809895e+003;7.444492e-002
2.811823e+003;7.452866e-002
2.813751e+003;7.458244e-002
2.815680e+003;7.455749e-002
2.817609e+003;7.453775e-002
2.819537e+003;7.492331e-002
2.821466e+003;7.525689e-002
2.823394e+003;7.546179e-002
2.825323e+003;7.548052e-002
2.827251e+003;7.526532e-002
2.829180e+003;7.538903e-002
2.831108e+003;7.566908e-002
2.833037e+003;7.599716e-002
2.834966e+003;7.625766e-002
2.836894e+003;7.627026e-002
2.838823e+003;7.651176e-002
2.840751e+003;7.660183e-002
2.842680e+003;7.666626e-002
2.844608e+003;7.712965e-002
2.846537e+003;7.731427e-002
2.848465e+003;7.729202e-002
2.850394e+003;7.757168e-002
2.852323e+003;7.800503e-002
2.854251e+003;7.850558e-002
2.856180e+003;7.901864e-002
2.858108e+003;7.969449e-002
2.860037e+003;8.025909e-002
2.861965e+003;8.076333e-002
2.863894e+003;8.133197e-002
2.865822e+003;8.156103e-002
2.867751e+003;8.200435e-002
2.869679e+003;8.267356e-002
2.871608e+003;8.293781e-002
2.873536e+003;8.300949e-002
2.875465e+003;8.343614e-002
2.877394e+003;8.363237e-002
2.879322e+003;8.351067e-002
2.881251e+003;8.329872e-002
2.883179e+003;8.325814e-002
2.885108e+003;8.323651e-002
2.887036e+003;8.297215e-002
2.888965e+003;8.282998e-002
2.890893e+003;8.304290e-002
2.892822e+003;8.322836e-002
2.894750e+003;8.323518e-002
2.896679e+003;8.322282e-002
2.898608e+003;8.358517e-002
2.900536e+003;8.371380e-002
2.902465e+003;8.382451e-002
2.904393e+003;8.406012e-002
2.906322e+003;8.422509e-002
2.908250e+003;8.485531e-002
2.910179e+003;8.551937e-002
2.912107e+003;8.563732e-002
2.914036e+003;8.587880e-002
2.915965e+003;8.625456e-002
2.917893e+003;8.666981e-002
2.919822e+003;8.747224e-002
2.921750e+003;8.850167e-002
2.923679e+003;8.908843e-002
2.925607e+003;8.979994e-002
2.927536e+003;9.086616e-002
2.929464e+003;9.121896e-002
2.931393e+003;9.123687e-002
2.933322e+003;9.120269e-002
2.935250e+003;9.115507e-002
2.937178e+003;9.104812e-002
2.939107e+003;9.061001e-002
2.941036e+003;8.996198e-002
2.942964e+003;8.932857e-002
2.944893e+003;8.892619e-002
2.946821e+003;8.841503e-002
2.948750e+003;8.780684e-002
2.950678e+003;8.733013e-002
2.952607e+003;8.723441e-002
2.954535e+003;8.722550e-002
2.956464e+003;8.717855e-002
2.958393e+003;8.718345e-002
2.960321e+003;8.747005e-002
2.962250e+003;8.784610e-002
2.964178e+003;8.787522e-002
2.966107e+003;8.801495e-002
2.968035e+003;8.837511e-002
2.969964e+003;8.865696e-002
2.971892e+003;8.874267e-002
2.973821e+003;8.879755e-002
2.975750e+003;8.913635e-002
2.977678e+003;8.917613e-002
2.979607e+003;8.867785e-002
2.981535e+003;8.832289e-002
2.983464e+003;8.803403e-002
2.985392e+003;8.776490e-002
2.987321e+003;8.745558e-002
2.989249e+003;8.697898e-002
2.991178e+003;8.648045e-002
2.993106e+003;8.588275e-002
2.995035e+003;8.549395e-002
2.996964e+003;8.516875e-002
2.998892e+003;8.482619e-002
3.000821e+003;8.460816e-002
3.002749e+003;8.438678e-002
3.004678e+003;8.414247e-002
3.006606e+003;8.377801e-002
3.008535e+003;8.365463e-002
3.010463e+003;8.413990e-002
3.012392e+003;8.432972e-002
3.014321e+003;8.427058e-002
3.016249e+003;8.433978e-002
3.018177e+003;8.459069e-002
3.020106e+003;8.490901e-002
3.022035e+003;8.514977e-002
3.023963e+003;8.528244e-002
3.025892e+003;8.560633e-002
3.027820e+003;8.588752e-002
3.029749e+003;8.621888e-002
3.031677e+003;8.660695e-002
3.033606e+003;8.692882e-002
3.035534e+003;8.718196e-002
3.037463e+003;8.766908e-002
3.039392e+003;8.835419e-002
3.041320e+003;8.896372e-002
3.043249e+003;8.952370e-002
3.045177e+003;8.991136e-002
3.047106e+003;9.016509e-002
3.049034e+003;9.054548e-002
3.050963e+003;9.108371e-002
3.052891e+003;9.162135e-002
3.054820e+003;9.230642e-002
3.056749e+003;9.301330e-002
3.058677e+003;9.361847e-002
3.060606e+003;9.399269e-002
3.062534e+003;9.435257e-002
3.064463e+003;9.448138e-002
3.066391e+003;9.450585e-002
3.068320e+003;9.483952e-002
3.070248e+003;9.505232e-002
3.072177e+003;9.493475e-002
3.074105e+003;9.498650e-002
3.076034e+003;9.520419e-002
3.077963e+003;9.498031e-002
3.079891e+003;9.469803e-002
3.081820e+003;9.456982e-002
3.083748e+003;9.421622e-002
3.085677e+003;9.396776e-002
3.087605e+003;9.370053e-002
3.089534e+003;9.353068e-002
3.091462e+003;9.343399e-002
3.093391e+003;9.317198e-002
3.095320e+003;9.287331e-002
3.097248e+003;9.245041e-002
3.099177e+003;9.204504e-002
3.101105e+003;9.158935e-002
3.103034e+003;9.112229e-002
3.104962e+003;9.112119e-002
3.106891e+003;9.116071e-002
3.108819e+003;9.102312e-002
3.110748e+003;9.073605e-002
3.112677e+003;9.030988e-002
3.114605e+003;9.020277e-002
3.116533e+003;9.041396e-002
3.118462e+003;9.043044e-002
3.120391e+003;9.032493e-002
3.122319e+003;9.010229e-002
3.124248e+003;8.967740e-002
3.126176e+003;8.967161e-002
3.128105e+003;9.012729e-002
3.130033e+003;9.047757e-002
3.131962e+003;9.037805e-002
3.133890e+003;9.033725e-002
3.135819e+003;9.047762e-002
3.137748e+003;9.064525e-002
3.139676e+003;9.090350e-002
3.141605e+003;9.100796e-002
3.143533e+003;9.130751e-002
3.145462e+003;9.168863e-002
3.147390e+003;9.202898e-002
3.149319e+003;9.255528e-002
3.151247e+003;9.319312e-002
3.153176e+003;9.380402e-002
3.155104e+003;9.399474e-002
3.157033e+003;9.414518e-002
3.158962e+003;9.482778e-002
3.160890e+003;9.554270e-002
3.162819e+003;9.574711e-002
3.164747e+003;9.587130e-002
3.166676e+003;9.662189e-002
3.168604e+003;9.769438e-002
3.170533e+003;9.827483e-002
3.172461e+003;9.888377e-002
3.174390e+003;9.996597e-002
3.176319e+003;1.005533e-001
3.178247e+003;1.011967e-001
3.180176e+003;1.021046e-001
3.182104e+003;1.027024e-001
3.184033e+003;1.032474e-001
3.185961e+003;1.039483e-001
3.187890e+003;1.047203e-001
3.189818e+003;1.054314e-001
3.191747e+003;1.064025e-001
3.193676e+003;1.075579e-001
3.195604e+003;1.085131e-001
3.197532e+003;1.092108e-001
3.199461e+003;1.101014e-001
3.201390e+003;1.110376e-001
3.203318e+003;1.116862e-001
3.205247e+003;1.125994e-001
3.207175e+003;1.136717e-001
3.209104e+003;1.147131e-001
3.211032e+003;1.158382e-001
3.212961e+003;1.167432e-001
3.214889e+003;1.177921e-001
3.216818e+003;1.189600e-001
3.218747e+003;1.197835e-001
3.220675e+003;1.208783e-001
3.222604e+003;1.222933e-001
3.224532e+003;1.232961e-001
3.226461e+003;1.241940e-001
3.228389e+003;1.253396e-001
3.230318e+003;1.267837e-001
3.232246e+003;1.281300e-001
3.234175e+003;1.291530e-001
3.236104e+003;1.302007e-001
3.238032e+003;1.317518e-001
3.239961e+003;1.335606e-001
3.241889e+003;1.350298e-001
3.243818e+003;1.365774e-001
3.245746e+003;1.384129e-001
3.247675e+003;1.402337e-001
3.249603e+003;1.422110e-001
3.251532e+003;1.441704e-001
3.253460e+003;1.456689e-001
3.255389e+003;1.476429e-001
3.257318e+003;1.498689e-001
3.259246e+003;1.519185e-001
3.261175e+003;1.539517e-001
3.263103e+003;1.560339e-001
3.265032e+003;1.582084e-001
3.266960e+003;1.604703e-001
3.268889e+003;1.626512e-001
3.270817e+003;1.647347e-001
3.272746e+003;1.661794e-001
3.274675e+003;1.670312e-001
3.276603e+003;1.679539e-001
3.278531e+003;1.686845e-001
3.280460e+003;1.688422e-001
3.282389e+003;1.689878e-001
3.284317e+003;1.689780e-001
3.286246e+003;1.681064e-001
3.288174e+003;1.667589e-001
3.290103e+003;1.653134e-001
3.292031e+003;1.640292e-001
3.293960e+003;1.623543e-001
3.295888e+003;1.600955e-001
3.297817e+003;1.575737e-001
3.299746e+003;1.554524e-001
3.301674e+003;1.529568e-001
3.303603e+003;1.504417e-001
3.305531e+003;1.482041e-001
3.307460e+003;1.457344e-001
3.309388e+003;1.427817e-001
3.311317e+003;1.399201e-001
3.313245e+003;1.376430e-001
3.315174e+003;1.353357e-001
3.317103e+003;1.327632e-001
3.319031e+003;1.301838e-001
3.320960e+003;1.279203e-001
3.322888e+003;1.259760e-001
3.324817e+003;1.241421e-001
3.326745e+003;1.221757e-001
3.328674e+003;1.201196e-001
3.330602e+003;1.179554e-001
3.332531e+003;1.159300e-001
3.334459e+003;1.144145e-001
3.336388e+003;1.128099e-001
3.338317e+003;1.109743e-001
3.340245e+003;1.095250e-001
3.342174e+003;1.082560e-001
3.344102e+003;1.069648e-001
3.346031e+003;1.057474e-001
3.347959e+003;1.042953e-001
3.349888e+003;1.028333e-001
3.351816e+003;1.020474e-001
3.353745e+003;1.015935e-001
3.355674e+003;1.003636e-001
3.357602e+003;9.908327e-002
3.359531e+003;9.850719e-002
3.361459e+003;9.772024e-002
3.363388e+003;9.679816e-002
3.365316e+003;9.643260e-002
3.367245e+003;9.585812e-002
3.369173e+003;9.497495e-002
3.371102e+003;9.408527e-002
3.373031e+003;9.288890e-002
3.374959e+003;9.235593e-002
3.376887e+003;9.229765e-002
3.378816e+003;9.156898e-002
3.380745e+003;9.089386e-002
3.382673e+003;9.062333e-002
3.384602e+003;9.037279e-002
3.386530e+003;8.983482e-002
3.388459e+003;8.935296e-002
3.390387e+003;8.891127e-002
3.392316e+003;8.826189e-002
3.394244e+003;8.758411e-002
3.396173e+003;8.717868e-002
3.398102e+003;8.661201e-002
3.400030e+003;8.595556e-002
3.401959e+003;8.592810e-002
3.403887e+003;8.592455e-002
3.405816e+003;8.506734e-002
3.407744e+003;8.409847e-002
3.409673e+003;8.370697e-002
3.411601e+003;8.376089e-002
3.413530e+003;8.375265e-002
3.415458e+003;8.316837e-002
3.417387e+003;8.221991e-002
3.419316e+003;8.133224e-002
3.421244e+003;8.078281e-002
3.423173e+003;8.015759e-002
3.425101e+003;7.962957e-002
3.427030e+003;7.942937e-002
3.428958e+003;7.926808e-002
3.430887e+003;7.905060e-002
3.432815e+003;7.868192e-002
3.434744e+003;7.845037e-002
3.436673e+003;7.817351e-002
3.438601e+003;7.779040e-002
3.440530e+003;7.732266e-002
3.442458e+003;7.668563e-002
3.444387e+003;7.636873e-002
3.446315e+003;7.674506e-002
3.448244e+003;7.680405e-002
3.450172e+003;7.587951e-002
3.452101e+003;7.534457e-002
3.454030e+003;7.531316e-002
3.455958e+003;7.530843e-002
3.457886e+003;7.538032e-002
3.459815e+003;7.496516e-002
3.461744e+003;7.427619e-002
3.463672e+003;7.360443e-002
3.465601e+003;7.329342e-002
3.467529e+003;7.359140e-002
3.469458e+003;7.357401e-002
3.471386e+003;7.328514e-002
3.473315e+003;7.323251e-002
3.475243e+003;7.284272e-002
3.477172e+003;7.262765e-002
3.479101e+003;7.226019e-002
3.481029e+003;7.186002e-002
3.482958e+003;7.189255e-002
3.484886e+003;7.199418e-002
3.486815e+003;7.189341e-002
3.488743e+003;7.157006e-002
3.490672e+003;7.139362e-002
3.492600e+003;7.137151e-002
3.494529e+003;7.122896e-002
3.496458e+003;7.051929e-002
3.498386e+003;7.001380e-002
3.500315e+003;7.027993e-002
3.502243e+003;7.035898e-002
3.504172e+003;6.997047e-002
3.506100e+003;6.961557e-002
3.508029e+003;6.951251e-002
3.509957e+003;6.955902e-002
3.511886e+003;6.938405e-002
3.513814e+003;6.885569e-002
3.515743e+003;6.847966e-002
3.517672e+003;6.860234e-002
3.519600e+003;6.844168e-002
3.521529e+003;6.790830e-002
3.523457e+003;6.751487e-002
3.525386e+003;6.712336e-002
3.527314e+003;6.707874e-002
3.529243e+003;6.727792e-002
3.531171e+003;6.700203e-002
3.533100e+003;6.634107e-002
3.535029e+003;6.612874e-002
3.536957e+003;6.606647e-002
3.538885e+003;6.553060e-002
3.540814e+003;6.534939e-002
3.542743e+003;6.514262e-002
3.544671e+003;6.482148e-002
3.546600e+003;6.494741e-002
3.548528e+003;6.495899e-002
3.550457e+003;6.463496e-002
3.552385e+003;6.405642e-002
3.554314e+003;6.357634e-002
3.556242e+003;6.349668e-002
3.558171e+003;6.341331e-002
3.560100e+003;6.307587e-002
3.562028e+003;6.249183e-002
3.563957e+003;6.213450e-002
3.565885e+003;6.188565e-002
3.567814e+003;6.162477e-002
3.569742e+003;6.185184e-002
3.571671e+003;6.178621e-002
3.573599e+003;6.158639e-002
3.575528e+003;6.168598e-002
3.577457e+003;6.150847e-002
3.579385e+003;6.054614e-002
3.581314e+003;5.998844e-002
3.583242e+003;5.995641e-002
3.585171e+003;5.970295e-002
3.587099e+003;5.969926e-002
3.589028e+003;5.937571e-002
3.590956e+003;5.907916e-002
3.592885e+003;5.898168e-002
3.594813e+003;5.887466e-002
3.596742e+003;5.882253e-002
3.598671e+003;5.861767e-002
3.600599e+003;5.806943e-002
3.602528e+003;5.783536e-002
3.604456e+003;5.800865e-002
3.606385e+003;5.783520e-002
3.608313e+003;5.763012e-002
3.610242e+003;5.750827e-002
3.612170e+003;5.755847e-002
3.614099e+003;5.735749e-002
3.616028e+003;5.679268e-002
3.617956e+003;5.626688e-002
3.619885e+003;5.596585e-002
3.621813e+003;5.601956e-002
3.623742e+003;5.566529e-002
3.625670e+003;5.517483e-002
3.627599e+003;5.504193e-002
3.629527e+003;5.509128e-002
3.631456e+003;5.509406e-002
3.633385e+003;5.491651e-002
3.635313e+003;5.459699e-002
3.637241e+003;5.408454e-002
3.639170e+003;5.399677e-002
3.641099e+003;5.416576e-002
3.643027e+003;5.376574e-002
3.644956e+003;5.327214e-002
3.646884e+003;5.275866e-002
3.648813e+003;5.215365e-002
3.650741e+003;5.194937e-002
3.652670e+003;5.222117e-002
3.654598e+003;5.237276e-002
3.656527e+003;5.181200e-002
3.658456e+003;5.130070e-002
3.660384e+003;5.161389e-002
3.662313e+003;5.137170e-002
3.664241e+003;5.079908e-002
3.666170e+003;5.071779e-002
3.668098e+003;5.078058e-002
3.670027e+003;5.033097e-002
3.671955e+003;4.985140e-002
3.673884e+003;4.988912e-002
3.675813e+003;4.968561e-002
3.677741e+003;4.945671e-002
3.679669e+003;4.925789e-002
3.681598e+003;4.900637e-002
3.683527e+003;4.860670e-002
3.685455e+003;4.822143e-002
3.687384e+003;4.787020e-002
3.689312e+003;4.741222e-002
3.691241e+003;4.723062e-002
3.693169e+003;4.703292e-002
3.695098e+003;4.662478e-002
3.697026e+003;4.658486e-002
3.698955e+003;4.664248e-002
3.700884e+003;4.658648e-002
3.702812e+003;4.653038e-002
3.704741e+003;4.604254e-002
3.706669e+003;4.625648e-002
3.708598e+003;4.650863e-002
3.710526e+003;4.607496e-002
3.712455e+003;4.554894e-002
3.714383e+003;4.542951e-002
3.716312e+003;4.535241e-002
3.718240e+003;4.531100e-002
3.720169e+003;4.534675e-002
3.722098e+003;4.521734e-002
3.724026e+003;4.468839e-002
3.725955e+003;4.428428e-002
3.727883e+003;4.430655e-002
3.729812e+003;4.450683e-002
3.731740e+003;4.447636e-002
3.733669e+003;4.466544e-002
3.735597e+003;4.448036e-002
3.737526e+003;4.403085e-002
3.739455e+003;4.420543e-002
3.741383e+003;4.477621e-002
3.743312e+003;4.483201e-002
3.745240e+003;4.404332e-002
3.747169e+003;4.425621e-002
3.749097e+003;4.472182e-002
3.751026e+003;4.422190e-002
3.752954e+003;4.379667e-002
3.754883e+003;4.385392e-002
3.756812e+003;4.422539e-002
3.758740e+003;4.438823e-002
3.760668e+003;4.399587e-002
3.762597e+003;4.372726e-002
3.764526e+003;4.383512e-002
3.766454e+003;4.390641e-002
3.768383e+003;4.364526e-002
3.770311e+003;4.386308e-002
3.772240e+003;4.435143e-002
3.774168e+003;4.429748e-002
3.776097e+003;4.412264e-002
3.778025e+003;4.390121e-002
3.779954e+003;4.409672e-002
3.781883e+003;4.409026e-002
3.783811e+003;4.400937e-002
3.785740e+003;4.441091e-002
3.787668e+003;4.457078e-002
3.789597e+003;4.422102e-002
3.791525e+003;4.410669e-002
3.793454e+003;4.437304e-002
3.795382e+003;4.448340e-002
3.797311e+003;4.449119e-002
3.799240e+003;4.436177e-002
3.801168e+003;4.360961e-002
3.803097e+003;4.328325e-002
3.805025e+003;4.372297e-002
3.806954e+003;4.386715e-002
3.808882e+003;4.410878e-002
3.810811e+003;4.411036e-002
3.812739e+003;4.386107e-002
3.814668e+003;4.402865e-002
3.816596e+003;4.433818e-002
3.818525e+003;4.442538e-002
3.820454e+003;4.402729e-002
3.822382e+003;4.374540e-002
3.824311e+003;4.416769e-002
3.826239e+003;4.429301e-002
3.828168e+003;4.435366e-002
3.830096e+003;4.452210e-002
3.832025e+003;4.422212e-002
3.833953e+003;4.414300e-002
3.835882e+003;4.449937e-002
3.837811e+003;4.462630e-002
3.839739e+003;4.428593e-002
3.841667e+003;4.380118e-002
3.843596e+003;4.380484e-002
3.845525e+003;4.430453e-002
3.847453e+003;4.488705e-002
3.849382e+003;4.481467e-002
3.851310e+003;4.431690e-002
3.853239e+003;4.397812e-002
3.855167e+003;4.408421e-002
3.857096e+003;4.450297e-002
3.859024e+003;4.512983e-002
3.860953e+003;4.546487e-002
3.862882e+003;4.535558e-002
3.864810e+003;4.520535e-002
3.866739e+003;4.513627e-002
3.868667e+003;4.513998e-002
3.870596e+003;4.481578e-002
3.872524e+003;4.456087e-002
3.874453e+003;4.510208e-002
3.876381e+003;4.549931e-002
3.878310e+003;4.538567e-002
3.880239e+003;4.535116e-002
3.882167e+003;4.534112e-002
3.884096e+003;4.510767e-002
3.886024e+003;4.491501e-002
3.887953e+003;4.503051e-002
3.889881e+003;4.525863e-002
3.891810e+003;4.529721e-002
3.893738e+003;4.555332e-002
3.895667e+003;4.599789e-002
3.897595e+003;4.593262e-002
3.899524e+003;4.571887e-002
3.901453e+003;4.577207e-002
3.903381e+003;4.604965e-002
3.905310e+003;4.622445e-002
3.907238e+003;4.611199e-002
3.909167e+003;4.592294e-002
3.911095e+003;4.610624e-002
3.913024e+003;4.603252e-002
3.914952e+003;4.574567e-002
3.916881e+003;4.583610e-002
3.918810e+003;4.608015e-002
3.920738e+003;4.595568e-002
3.922667e+003;4.626109e-002
3.924595e+003;4.645770e-002
3.926524e+003;4.633732e-002
3.928452e+003;4.625187e-002
3.930381e+003;4.615805e-002
3.932309e+003;4.623949e-002
3.934238e+003;4.675988e-002
3.936167e+003;4.681446e-002
3.938095e+003;4.628604e-002
3.940023e+003;4.636305e-002
3.941952e+003;4.683509e-002
3.943881e+003;4.678162e-002
3.945809e+003;4.667687e-002
3.947738e+003;4.699608e-002
3.949666e+003;4.714438e-002
3.951595e+003;4.690795e-002
3.953523e+003;4.680907e-002
3.955452e+003;4.690072e-002
3.957380e+003;4.718028e-002
3.959309e+003;4.719527e-002
3.961238e+003;4.692652e-002
3.963166e+003;4.700110e-002
3.965095e+003;4.739825e-002
3.967023e+003;4.771733e-002
3.968952e+003;4.770749e-002
3.970880e+003;4.754961e-002
3.972809e+003;4.752665e-002
3.974737e+003;4.728238e-002
3.976666e+003;4.718763e-002
3.978594e+003;4.744840e-002
3.980523e+003;4.767824e-002
3.982452e+003;4.783709e-002
3.984380e+003;4.792048e-002
3.986309e+003;4.794390e-002
3.988237e+003;4.824372e-002
3.990166e+003;4.843404e-002
3.992094e+003;4.849857e-002
3.994023e+003;4.846223e-002
3.995951e+003;4.802232e-002
3.997880e+003;4.783805e-002
3.999809e+003;4.723801e-002
4.001737e+003;0.000000e+000
