3.992094e+002;0.000000e+000
4.011380e+002;0.000000e+000
4.030665e+002;0.000000e+000
4.049951e+002;0.000000e+000
4.069236e+002;0.000000e+000
4.088522e+002;0.000000e+000
4.107807e+002;0.000000e+000
4.127093e+002;0.000000e+000
4.146378e+002;0.000000e+000
4.165664e+002;0.000000e+000
4.184949e+002;0.000000e+000
4.204235e+002;0.000000e+000
4.223520e+002;0.000000e+000
4.242806e+002;0.000000e+000
4.262091e+002;0.000000e+000
4.281377e+002;0.000000e+000
4.300662e+002;0.000000e+000
4.319948e+002;0.000000e+000
4.339233e+002;0.000000e+000
4.358519e+002;0.000000e+000
4.377804e+002;0.000000e+000
4.397090e+002;0.000000e+000
4.416375e+002;0.000000e+000
4.435660e+002;0.000000e+000
4.454946e+002;0.000000e+000
4.474232e+002;0.000000e+000
4.493517e+002;0.000000e+000
4.512802e+002;0.000000e+000
4.532088e+002;0.000000e+000
4.551373e+002;0.000000e+000
4.570659e+002;0.000000e+000
4.589944e+002;0.000000e+000
4.609230e+002;0.000000e+000
4.628515e+002;0.000000e+000
4.647801e+002;0.000000e+000
4.667086e+002;0.000000e+000
4.686372e+002;0.000000e+000
4.705657e+002;0.000000e+000
4.724943e+002;0.000000e+000
4.744228e+002;0.000000e+000
4.763513e+002;0.000000e+000
4.782799e+002;0.000000e+000
4.802085e+002;0.000000e+000
4.821370e+002;0.000000e+000
4.840656e+002;0.000000e+000
4.859941e+002;0.000000e+000
4.879226e+002;0.000000e+000
4.898512e+002;0.000000e+000
4.917798e+002;0.000000e+000
4.937083e+002;0.000000e+000
4.956368e+002;0.000000e+000
4.975654e+002;0.000000e+000
4.994939e+002;0.000000e+000
5.014225e+002;0.000000e+000
5.033510e+002;0.000000e+000
5.052796e+002;0.000000e+000
5.072081e+002;0.000000e+000
5.091367e+002;0.000000e+000
5.110652e+002;0.000000e+000
5.129938e+002;0.000000e+000
5.149223e+002;0.000000e+000
5.168509e+002;0.000000e+000
5.187794e+002;0.000000e+000
5.207079e+002;0.000000e+000
5.226365e+002;0.000000e+000
5.245651e+002;0.000000e+000
5.264936e+002;0.000000e+000
5.284222e+002;0.000000e+000
5.303507e+002;0.000000e+000
5.322792e+002;0.000000e+000
5.342078e+002;0.000000e+000
5.361364e+002;0.000000e+000
5.380649e+002;0.000000e+000
5.399935e+002;0.000000e+000
5.419220e+002;0.000000e+000
5.438505e+002;0.000000e+000
5.457791e+002;0.000000e+000
5.477076e+002;0.000000e+000
5.496362e+002;0.000000e+000
5.515648e+002;0.000000e+000
5.534933e+002;0.000000e+000
5.554218e+002;0.000000e+000
5.573504e+002;0.000000e+000
5.592789e+002;0.000000e+000
5.612075e+002;0.000000e+000
5.631360e+002;0.000000e+000
5.650646e+002;0.000000e+000
5.669931e+002;0.000000e+000
5.689217e+002;0.000000e+000
5.708502e+002;0.000000e+000
5.727787e+002;0.000000e+000
5.747073e+002;0.000000e+000
5.766359e+002;0.000000e+000
5.785644e+002;0.000000e+000
5.804930e+002;0.000000e+000
5.824215e+002;0.000000e+000
5.843500e+002;0.000000e+000
5.862786e+002;0.000000e+000
5.882072e+002;0.000000e+000
5.901357e+002;0.000000e+000
5.920643e+002;0.000000e+000
5.939928e+002;0.000000e+000
5.959213e+002;0.000000e+000
5.978499e+002;0.000000e+000
5.997784e+002;1.871636e-001
6.017070e+002;1.944571e-001
6.036355e+002;1.906870e-001
6.055641e+002;1.873893e-001
6.074926e+002;1.912079e-001
6.094211e+002;1.916560e-001
6.113497e+002;1.837126e-001
6.132783e+002;1.827696e-001
6.152068e+002;1.910744e-001
6.171354e+002;1.963560e-001
6.190639e+002;1.933676e-001
6.209924e+002;1.867476e-001
6.229210e+002;1.857698e-001
6.248495e+002;1.859968e-001
6.267781e+002;1.859130e-001
6.287067e+002;1.872686e-001
6.306352e+002;1.880477e-001
6.325637e+002;1.838862e-001
6.344923e+002;1.772548e-001
6.364208e+002;1.782024e-001
6.383494e+002;1.803451e-001
6.402780e+002;1.810043e-001
6.422065e+002;1.796181e-001
6.441350e+002;1.771572e-001
6.460636e+002;1.772784e-001
6.479921e+002;1.788016e-001
6.499207e+002;1.778710e-001
6.518492e+002;1.774329e-001
6.537778e+002;1.758612e-001
6.557063e+002;1.723317e-001
6.576349e+002;1.713144e-001
6.595634e+002;1.735880e-001
6.614919e+002;1.757003e-001
6.634205e+002;1.764245e-001
6.653491e+002;1.777148e-001
6.672776e+002;1.771444e-001
6.692062e+002;1.758739e-001
6.711347e+002;1.742813e-001
6.730632e+002;1.738121e-001
6.749918e+002;1.739385e-001
6.769203e+002;1.738998e-001
6.788489e+002;1.741569e-001
6.807775e+002;1.746105e-001
6.827060e+002;1.761766e-001
6.846345e+002;1.774385e-001
6.865631e+002;1.760492e-001
6.884916e+002;1.743193e-001
6.904202e+002;1.734210e-001
6.923488e+002;1.736286e-001
6.942773e+002;1.724868e-001
6.962058e+002;1.706630e-001
6.981344e+002;1.704600e-001
7.000629e+002;1.693937e-001
7.019915e+002;1.679968e-001
7.039200e+002;1.666799e-001
7.058486e+002;1.639328e-001
7.077771e+002;1.617370e-001
7.097057e+002;1.610851e-001
7.116342e+002;1.603520e-001
7.135627e+002;1.587660e-001
7.154913e+002;1.572769e-001
7.174199e+002;1.565242e-001
7.193484e+002;1.547509e-001
7.212770e+002;1.512982e-001
7.232055e+002;1.490579e-001
7.251340e+002;1.486479e-001
7.270626e+002;1.470897e-001
7.289911e+002;1.446915e-001
7.309197e+002;1.426739e-001
7.328483e+002;1.406484e-001
7.347768e+002;1.391868e-001
7.367053e+002;1.381843e-001
7.386339e+002;1.356370e-001
7.405624e+002;1.328392e-001
7.424910e+002;1.314468e-001
7.444196e+002;1.301433e-001
7.463481e+002;1.295059e-001
7.482766e+002;1.278117e-001
7.502052e+002;1.252104e-001
7.521337e+002;1.242040e-001
7.540623e+002;1.235545e-001
7.559908e+002;1.226707e-001
7.579194e+002;1.218217e-001
7.598479e+002;1.202212e-001
7.617765e+002;1.189488e-001
7.637050e+002;1.189810e-001
7.656335e+002;1.193252e-001
7.675621e+002;1.182329e-001
7.694907e+002;1.172948e-001
7.714192e+002;1.166327e-001
7.733478e+002;1.147581e-001
7.752763e+002;1.128201e-001
7.772048e+002;1.121339e-001
7.791334e+002;1.113840e-001
7.810620e+002;1.109222e-001
7.829905e+002;1.105840e-001
7.849191e+002;1.098779e-001
7.868476e+002;1.089963e-001
7.887761e+002;1.085175e-001
7.907047e+002;1.080015e-001
7.926332e+002;1.072371e-001
7.945618e+002;1.067272e-001
7.964903e+002;1.061823e-001
7.984189e+002;1.059767e-001
8.003474e+002;1.059900e-001
8.022759e+002;1.054916e-001
8.042045e+002;1.053287e-001
8.061331e+002;1.055837e-001
8.080616e+002;1.058625e-001
8.099902e+002;1.053478e-001
8.119187e+002;1.051525e-001
8.138472e+002;1.049560e-001
8.157758e+002;1.047518e-001
8.177043e+002;1.043492e-001
8.196329e+002;1.050907e-001
8.215615e+002;1.062002e-001
8.234900e+002;1.061746e-001
8.254185e+002;1.059630e-001
8.273471e+002;1.061092e-001
8.292756e+002;1.056874e-001
8.312042e+002;1.051361e-001
8.331328e+002;1.047114e-001
8.350613e+002;1.037284e-001
8.369898e+002;1.034641e-001
8.389184e+002;1.027906e-001
8.408469e+002;1.016409e-001
8.427755e+002;1.013651e-001
8.447040e+002;1.017997e-001
8.466326e+002;1.025394e-001
8.485611e+002;1.033625e-001
8.504897e+002;1.037725e-001
8.524182e+002;1.033734e-001
8.543467e+002;1.031133e-001
8.562753e+002;1.026143e-001
8.582039e+002;1.013851e-001
8.601324e+002;1.005826e-001
8.620610e+002;9.978323e-002
8.639895e+002;9.895176e-002
8.659180e+002;9.866223e-002
8.678466e+002;9.892476e-002
8.697751e+002;9.949011e-002
8.717037e+002;1.009769e-001
8.736323e+002;1.027444e-001
8.755608e+002;1.036980e-001
8.774893e+002;1.033162e-001
8.794179e+002;1.020167e-001
8.813464e+002;1.006074e-001
8.832750e+002;9.959716e-002
8.852036e+002;9.884458e-002
8.871321e+002;9.833782e-002
8.890606e+002;9.833463e-002
8.909892e+002;9.836064e-002
8.929177e+002;9.800337e-002
8.948463e+002;9.757511e-002
8.967748e+002;9.782917e-002
8.987034e+002;9.792826e-002
9.006319e+002;9.760850e-002
9.025605e+002;9.746445e-002
9.044890e+002;9.771061e-002
9.064175e+002;9.758834e-002
9.083461e+002;9.725881e-002
9.102747e+002;9.762472e-002
9.122032e+002;9.805045e-002
9.141318e+002;9.841928e-002
9.160603e+002;9.942237e-002
9.179888e+002;1.003502e-001
9.199174e+002;1.009141e-001
9.218459e+002;1.016424e-001
9.237745e+002;1.023541e-001
9.257031e+002;1.028907e-001
9.276316e+002;1.035662e-001
9.295601e+002;1.041665e-001
9.314887e+002;1.042351e-001
9.334172e+002;1.041973e-001
9.353458e+002;1.042342e-001
9.372744e+002;1.038522e-001
9.392029e+002;1.038661e-001
9.411314e+002;1.047351e-001
9.430600e+002;1.052329e-001
9.449885e+002;1.053094e-001
9.469171e+002;1.056254e-001
9.488456e+002;1.063765e-001
9.507742e+002;1.075553e-001
9.527027e+002;1.085010e-001
9.546313e+002;1.093707e-001
9.565598e+002;1.101607e-001
9.584883e+002;1.110926e-001
9.604169e+002;1.121325e-001
9.623455e+002;1.134215e-001
9.642740e+002;1.148505e-001
9.662026e+002;1.163543e-001
9.681311e+002;1.181977e-001
9.700596e+002;1.200861e-001
9.719882e+002;1.217323e-001
9.739167e+002;1.225136e-001
9.758453e+002;1.228364e-001
9.777739e+002;1.228686e-001
9.797024e+002;1.221961e-001
9.816309e+002;1.217219e-001
9.835595e+002;1.217168e-001
9.854880e+002;1.220550e-001
9.874166e+002;1.230539e-001
9.893452e+002;1.245310e-001
9.912737e+002;1.261554e-001
9.932022e+002;1.274651e-001
9.951307e+002;1.279599e-001
9.970593e+002;1.282863e-001
9.989879e+002;1.281066e-001
1.000916e+003;1.275630e-001
1.002845e+003;1.271657e-001
1.004773e+003;1.263669e-001
1.006702e+003;1.259331e-001
1.008631e+003;1.262414e-001
1.010559e+003;1.265129e-001
1.012488e+003;1.266826e-001
1.014416e+003;1.262931e-001
1.016345e+003;1.258048e-001
1.018273e+003;1.250717e-001
1.020202e+003;1.246388e-001
1.022130e+003;1.250827e-001
1.024059e+003;1.254256e-001
1.025988e+003;1.257040e-001
1.027916e+003;1.263359e-001
1.029845e+003;1.271130e-001
1.031773e+003;1.283108e-001
1.033702e+003;1.292044e-001
1.035630e+003;1.299708e-001
1.037559e+003;1.310979e-001
1.039487e+003;1.316361e-001
1.041416e+003;1.316611e-001
1.043344e+003;1.316981e-001
1.045273e+003;1.317828e-001
1.047202e+003;1.318950e-001
1.049130e+003;1.323348e-001
1.051059e+003;1.329570e-001
1.052987e+003;1.332929e-001
1.054916e+003;1.337968e-001
1.056844e+003;1.342290e-001
1.058773e+003;1.345095e-001
1.060701e+003;1.350108e-001
1.062630e+003;1.355656e-001
1.064558e+003;1.360462e-001
1.066487e+003;1.356265e-001
1.068416e+003;1.349005e-001
1.070344e+003;1.345853e-001
1.072273e+003;1.336634e-001
1.074201e+003;1.319166e-001
1.076130e+003;1.300686e-001
1.078058e+003;1.283454e-001
1.079987e+003;1.268820e-001
1.081915e+003;1.250795e-001
1.083844e+003;1.231742e-001
1.085773e+003;1.213117e-001
1.087701e+003;1.192581e-001
1.089630e+003;1.175930e-001
1.091558e+003;1.167215e-001
1.093487e+003;1.164489e-001
1.095415e+003;1.162002e-001
1.097344e+003;1.159674e-001
1.099272e+003;1.157573e-001
1.101201e+003;1.157940e-001
1.103129e+003;1.156392e-001
1.105058e+003;1.151526e-001
1.106987e+003;1.149961e-001
1.108915e+003;1.148240e-001
1.110844e+003;1.143708e-001
1.112772e+003;1.141298e-001
1.114701e+003;1.134501e-001
1.116629e+003;1.125755e-001
1.118558e+003;1.123628e-001
1.120486e+003;1.125592e-001
1.122415e+003;1.133654e-001
1.124344e+003;1.139528e-001
1.126272e+003;1.142924e-001
1.128201e+003;1.148622e-001
1.130129e+003;1.154549e-001
1.132058e+003;1.160586e-001
1.133986e+003;1.163616e-001
1.135915e+003;1.169752e-001
1.137843e+003;1.179873e-001
1.139772e+003;1.190012e-001
1.141700e+003;1.205520e-001
1.143629e+003;1.221927e-001
1.145557e+003;1.234275e-001
1.147486e+003;1.248328e-001
1.149415e+003;1.261988e-001
1.151343e+003;1.276275e-001
1.153272e+003;1.291328e-001
1.155200e+003;1.303753e-001
1.157129e+003;1.314522e-001
1.159057e+003;1.324944e-001
1.160986e+003;1.332197e-001
1.162914e+003;1.339178e-001
1.164843e+003;1.346263e-001
1.166771e+003;1.347848e-001
1.168700e+003;1.347183e-001
1.170629e+003;1.343750e-001
1.172557e+003;1.336533e-001
1.174486e+003;1.326061e-001
1.176414e+003;1.314963e-001
1.178343e+003;1.303610e-001
1.180271e+003;1.297645e-001
1.182200e+003;1.294514e-001
1.184128e+003;1.295494e-001
1.186057e+003;1.303441e-001
1.187986e+003;1.313777e-001
1.189914e+003;1.320754e-001
1.191843e+003;1.330397e-001
1.193771e+003;1.347495e-001
1.195700e+003;1.368288e-001
1.197628e+003;1.387007e-001
1.199557e+003;1.406911e-001
1.201485e+003;1.432674e-001
1.203414e+003;1.461588e-001
1.205343e+003;1.490207e-001
1.207271e+003;1.517225e-001
1.209200e+003;1.546996e-001
1.211128e+003;1.577233e-001
1.213057e+003;1.605899e-001
1.214985e+003;1.631535e-001
1.216914e+003;1.651981e-001
1.218842e+003;1.670735e-001
1.220771e+003;1.686348e-001
1.222699e+003;1.699179e-001
1.224628e+003;1.710936e-001
1.226557e+003;1.719991e-001
1.228485e+003;1.721675e-001
1.230414e+003;1.719516e-001
1.232342e+003;1.712086e-001
1.234271e+003;1.696952e-001
1.236199e+003;1.678083e-001
1.238128e+003;1.660721e-001
1.240056e+003;1.645352e-001
1.241985e+003;1.629706e-001
1.243913e+003;1.620137e-001
1.245842e+003;1.612881e-001
1.247771e+003;1.603253e-001
1.249699e+003;1.596553e-001
1.251628e+003;1.592901e-001
1.253556e+003;1.590039e-001
1.255485e+003;1.587131e-001
1.257413e+003;1.580965e-001
1.259342e+003;1.573860e-001
1.261270e+003;1.563849e-001
1.263199e+003;1.549567e-001
1.265127e+003;1.532401e-001
1.267056e+003;1.510491e-001
1.268985e+003;1.485741e-001
1.270913e+003;1.461220e-001
1.272842e+003;1.438594e-001
1.274770e+003;1.415780e-001
1.276699e+003;1.396851e-001
1.278627e+003;1.381060e-001
1.280556e+003;1.367540e-001
1.282484e+003;1.357959e-001
1.284413e+003;1.350576e-001
1.286342e+003;1.344335e-001
1.288270e+003;1.338651e-001
1.290199e+003;1.334297e-001
1.292127e+003;1.332054e-001
1.294056e+003;1.330678e-001
1.295984e+003;1.328671e-001
1.297913e+003;1.326126e-001
1.299841e+003;1.323762e-001
1.301770e+003;1.321468e-001
1.303698e+003;1.318799e-001
1.305627e+003;1.317984e-001
1.307556e+003;1.317048e-001
1.309484e+003;1.314311e-001
1.311413e+003;1.312652e-001
1.313341e+003;1.311193e-001
1.315270e+003;1.308197e-001
1.317198e+003;1.308828e-001
1.319127e+003;1.310392e-001
1.321055e+003;1.310747e-001
1.322984e+003;1.313546e-001
1.324912e+003;1.317468e-001
1.326841e+003;1.321086e-001
1.328770e+003;1.322632e-001
1.330698e+003;1.323743e-001
1.332627e+003;1.325817e-001
1.334555e+003;1.326293e-001
1.336484e+003;1.325027e-001
1.338412e+003;1.322129e-001
1.340341e+003;1.319407e-001
1.342269e+003;1.318366e-001
1.344198e+003;1.315786e-001
1.346126e+003;1.313699e-001
1.348055e+003;1.315025e-001
1.349984e+003;1.315780e-001
1.351912e+003;1.315665e-001
1.353841e+003;1.319617e-001
1.355769e+003;1.328095e-001
1.357698e+003;1.339830e-001
1.359626e+003;1.353752e-001
1.361555e+003;1.373180e-001
1.363483e+003;1.393679e-001
1.365412e+003;1.409090e-001
1.367341e+003;1.420730e-001
1.369269e+003;1.423435e-001
1.371198e+003;1.418896e-001
1.373126e+003;1.416815e-001
1.375055e+003;1.417999e-001
1.376983e+003;1.419318e-001
1.378912e+003;1.422238e-001
1.380840e+003;1.428946e-001
1.382769e+003;1.432892e-001
1.384698e+003;1.435776e-001
1.386626e+003;1.442221e-001
1.388555e+003;1.447489e-001
1.390483e+003;1.452367e-001
1.392412e+003;1.460138e-001
1.394340e+003;1.469611e-001
1.396269e+003;1.479867e-001
1.398197e+003;1.491833e-001
1.400126e+003;1.503722e-001
1.402054e+003;1.515353e-001
1.403983e+003;1.529144e-001
1.405911e+003;1.541708e-001
1.407840e+003;1.546610e-001
1.409769e+003;1.551591e-001
1.411697e+003;1.557074e-001
1.413626e+003;1.557201e-001
1.415554e+003;1.558344e-001
1.417483e+003;1.561944e-001
1.419411e+003;1.562684e-001
1.421340e+003;1.566318e-001
1.423268e+003;1.577778e-001
1.425197e+003;1.593716e-001
1.427125e+003;1.616537e-001
1.429054e+003;1.644002e-001
1.430983e+003;1.678081e-001
1.432911e+003;1.720539e-001
1.434840e+003;1.760263e-001
1.436768e+003;1.790521e-001
1.438697e+003;1.812458e-001
1.440625e+003;1.826256e-001
1.442554e+003;1.834152e-001
1.444482e+003;1.836804e-001
1.446411e+003;1.831599e-001
1.448340e+003;1.812968e-001
1.450268e+003;1.786878e-001
1.452197e+003;1.755926e-001
1.454125e+003;1.719898e-001
1.456054e+003;1.683949e-001
1.457982e+003;1.655224e-001
1.459911e+003;1.639294e-001
1.461839e+003;1.631581e-001
1.463768e+003;1.625923e-001
1.465697e+003;1.622917e-001
1.467625e+003;1.627335e-001
1.469554e+003;1.637393e-001
1.471482e+003;1.652292e-001
1.473411e+003;1.668814e-001
1.475339e+003;1.688147e-001
1.477268e+003;1.712560e-001
1.479196e+003;1.742014e-001
1.481125e+003;1.778273e-001
1.483053e+003;1.818647e-001
1.484982e+003;1.862144e-001
1.486911e+003;1.909230e-001
1.488839e+003;1.957437e-001
1.490768e+003;2.005736e-001
1.492696e+003;2.055286e-001
1.494625e+003;2.105182e-001
1.496553e+003;2.152050e-001
1.498482e+003;2.197699e-001
1.500410e+003;2.238889e-001
1.502339e+003;2.275257e-001
1.504267e+003;2.305228e-001
1.506196e+003;2.331522e-001
1.508125e+003;2.356404e-001
1.510053e+003;2.375217e-001
1.511982e+003;2.386078e-001
1.513910e+003;2.383489e-001
1.515839e+003;2.356091e-001
1.517767e+003;2.308756e-001
1.519696e+003;2.257292e-001
1.521624e+003;2.207945e-001
1.523553e+003;2.164899e-001
1.525481e+003;2.123726e-001
1.527410e+003;2.082075e-001
1.529339e+003;2.044508e-001
1.531267e+003;2.009602e-001
1.533196e+003;1.972215e-001
1.535124e+003;1.937053e-001
1.537053e+003;1.900458e-001
1.538981e+003;1.861608e-001
1.540910e+003;1.824315e-001
1.542838e+003;1.791091e-001
1.544767e+003;1.762394e-001
1.546695e+003;1.733295e-001
1.548624e+003;1.703832e-001
1.550553e+003;1.675373e-001
1.552481e+003;1.646323e-001
1.554410e+003;1.616239e-001
1.556338e+003;1.585357e-001
1.558267e+003;1.552971e-001
1.560195e+003;1.521111e-001
1.562124e+003;1.492654e-001
1.564052e+003;1.460915e-001
1.565981e+003;1.430565e-001
1.567910e+003;1.406977e-001
1.569838e+003;1.386447e-001
1.571767e+003;1.367547e-001
1.573695e+003;1.352751e-001
1.575624e+003;1.344802e-001
1.577552e+003;1.340843e-001
1.579481e+003;1.340005e-001
1.581409e+003;1.344597e-001
1.583338e+003;1.356399e-001
1.585266e+003;1.372786e-001
1.587195e+003;1.392379e-001
1.589124e+003;1.419422e-001
1.591052e+003;1.449635e-001
1.592981e+003;1.481087e-001
1.594909e+003;1.519835e-001
1.596838e+003;1.565052e-001
1.598766e+003;1.611305e-001
1.600695e+003;1.666459e-001
1.602623e+003;1.732081e-001
1.604552e+003;1.801700e-001
1.606480e+003;1.879095e-001
1.608409e+003;1.960963e-001
1.610338e+003;2.041397e-001
1.612266e+003;2.117559e-001
1.614195e+003;2.188158e-001
1.616123e+003;2.253757e-001
1.618052e+003;2.303089e-001
1.619980e+003;2.333041e-001
1.621909e+003;2.348156e-001
1.623837e+003;2.348067e-001
1.625766e+003;2.330271e-001
1.627694e+003;2.299339e-001
1.629623e+003;2.261272e-001
1.631552e+003;2.216763e-001
1.633480e+003;2.169138e-001
1.635409e+003;2.118239e-001
1.637337e+003;2.069054e-001
1.639266e+003;2.020412e-001
1.641194e+003;1.973803e-001
1.643123e+003;1.931041e-001
1.645051e+003;1.889321e-001
1.646980e+003;1.849383e-001
1.648909e+003;1.808600e-001
1.650837e+003;1.768965e-001
1.652766e+003;1.728447e-001
1.654694e+003;1.688760e-001
1.656623e+003;1.651286e-001
1.658551e+003;1.610603e-001
1.660480e+003;1.570369e-001
1.662408e+003;1.531531e-001
1.664337e+003;1.494627e-001
1.666266e+003;1.460367e-001
1.668194e+003;1.427476e-001
1.670123e+003;1.394189e-001
1.672051e+003;1.362442e-001
1.673980e+003;1.331844e-001
1.675908e+003;1.301493e-001
1.677837e+003;1.274903e-001
1.679765e+003;1.251131e-001
1.681694e+003;1.227503e-001
1.683622e+003;1.203128e-001
1.685551e+003;1.181694e-001
1.687479e+003;1.166873e-001
1.689408e+003;1.157181e-001
1.691337e+003;1.148439e-001
1.693265e+003;1.144381e-001
1.695194e+003;1.145766e-001
1.697122e+003;1.144505e-001
1.699051e+003;1.126149e-001
1.700979e+003;1.080506e-001
1.702908e+003;1.015605e-001
1.704836e+003;9.405309e-002
1.706765e+003;8.677986e-002
1.708693e+003;8.082894e-002
1.710622e+003;7.608140e-002
1.712551e+003;7.254921e-002
1.714479e+003;7.008711e-002
1.716408e+003;6.811233e-002
1.718336e+003;6.663266e-002
1.720265e+003;6.552925e-002
1.722193e+003;6.443755e-002
1.724122e+003;6.334798e-002
1.726050e+003;6.283189e-002
1.727979e+003;6.245591e-002
1.729908e+003;6.195061e-002
1.731836e+003;6.117899e-002
1.733765e+003;6.038631e-002
1.735693e+003;5.993712e-002
1.737622e+003;5.967398e-002
1.739550e+003;5.947327e-002
1.741479e+003;5.948528e-002
1.743407e+003;5.938547e-002
1.745336e+003;5.905721e-002
1.747265e+003;5.896441e-002
1.749193e+003;5.924015e-002
1.751122e+003;5.955026e-002
1.753050e+003;5.996823e-002
1.754979e+003;6.042751e-002
1.756907e+003;6.060664e-002
1.758836e+003;6.065441e-002
1.760764e+003;6.068341e-002
1.762693e+003;6.062458e-002
1.764621e+003;6.082879e-002
1.766550e+003;6.100534e-002
1.768479e+003;6.104451e-002
1.770407e+003;6.103409e-002
1.772336e+003;6.088334e-002
1.774264e+003;6.086790e-002
1.776193e+003;6.101774e-002
1.778121e+003;6.116018e-002
1.780050e+003;6.132183e-002
1.781978e+003;6.144365e-002
1.783907e+003;6.140281e-002
1.785835e+003;6.129779e-002
1.787764e+003;6.128295e-002
1.789693e+003;6.119948e-002
1.791621e+003;6.107261e-002
1.793550e+003;6.109587e-002
1.795478e+003;6.109157e-002
1.797407e+003;6.102163e-002
1.799335e+003;6.106556e-002
1.801264e+003;6.095433e-002
1.803192e+003;6.083318e-002
1.805121e+003;6.083173e-002
1.807049e+003;6.077753e-002
1.808978e+003;6.080547e-002
1.810907e+003;6.080170e-002
1.812835e+003;6.060869e-002
1.814764e+003;6.055487e-002
1.816692e+003;6.060927e-002
1.818621e+003;6.076488e-002
1.820549e+003;6.080303e-002
1.822478e+003;6.066005e-002
1.824406e+003;6.061304e-002
1.826335e+003;6.054012e-002
1.828264e+003;6.050546e-002
1.830192e+003;6.040858e-002
1.832121e+003;6.034240e-002
1.834049e+003;6.024739e-002
1.835978e+003;6.016525e-002
1.837906e+003;6.017324e-002
1.839835e+003;6.004253e-002
1.841763e+003;5.991399e-002
1.843692e+003;5.994127e-002
1.845620e+003;5.991274e-002
1.847549e+003;5.973998e-002
1.849478e+003;5.959096e-002
1.851406e+003;5.960681e-002
1.853335e+003;5.976226e-002
1.855263e+003;5.992297e-002
1.857192e+003;5.974747e-002
1.859120e+003;5.958792e-002
1.861049e+003;5.971709e-002
1.862977e+003;5.994263e-002
1.864906e+003;6.001674e-002
1.866834e+003;5.993875e-002
1.868763e+003;5.995732e-002
1.870692e+003;6.003443e-002
1.872620e+003;5.997782e-002
1.874549e+003;5.999966e-002
1.876477e+003;6.007803e-002
1.878406e+003;6.021621e-002
1.880334e+003;6.030502e-002
1.882263e+003;6.017031e-002
1.884191e+003;6.016601e-002
1.886120e+003;6.020872e-002
1.888048e+003;5.997904e-002
1.889977e+003;5.973971e-002
1.891906e+003;5.959461e-002
1.893834e+003;5.954410e-002
1.895763e+003;5.975363e-002
1.897691e+003;5.983789e-002
1.899620e+003;5.976313e-002
1.901548e+003;5.977112e-002
1.903477e+003;5.983279e-002
1.905405e+003;5.980477e-002
1.907334e+003;5.973401e-002
1.909262e+003;5.966797e-002
1.911191e+003;5.935086e-002
1.913120e+003;5.923202e-002
1.915048e+003;5.950261e-002
1.916977e+003;5.955592e-002
1.918905e+003;5.942186e-002
1.920834e+003;5.947692e-002
1.922762e+003;5.953456e-002
1.924691e+003;5.955531e-002
1.926619e+003;5.956265e-002
1.928548e+003;5.961981e-002
1.930477e+003;5.961784e-002
1.932405e+003;5.953798e-002
1.934334e+003;5.973629e-002
1.936262e+003;5.993274e-002
1.938191e+003;5.993468e-002
1.940119e+003;5.980420e-002
1.942048e+003;5.968611e-002
1.943976e+003;5.949223e-002
1.945905e+003;5.921801e-002
1.947833e+003;5.916587e-002
1.949762e+003;5.944652e-002
1.951691e+003;5.962384e-002
1.953619e+003;5.931618e-002
1.955548e+003;5.915995e-002
1.957476e+003;5.945564e-002
1.959405e+003;5.953673e-002
1.961333e+003;5.952940e-002
1.963262e+003;5.963330e-002
1.965190e+003;5.965098e-002
1.967119e+003;5.961172e-002
1.969047e+003;5.958663e-002
1.970976e+003;5.971557e-002
1.972905e+003;5.970055e-002
1.974833e+003;5.942821e-002
1.976762e+003;5.939189e-002
1.978690e+003;5.949987e-002
1.980619e+003;5.961666e-002
1.982547e+003;5.969014e-002
1.984476e+003;5.968709e-002
1.986404e+003;5.978264e-002
1.988333e+003;5.974245e-002
1.990261e+003;5.952491e-002
1.992190e+003;5.957831e-002
1.994119e+003;5.960830e-002
1.996047e+003;5.951343e-002
1.997976e+003;5.949558e-002
1.999904e+003;5.948988e-002
2.001833e+003;5.950014e-002
2.003761e+003;5.961103e-002
2.005690e+003;5.974363e-002
2.007618e+003;5.973789e-002
2.009547e+003;5.962551e-002
2.011476e+003;5.952377e-002
2.013404e+003;5.953555e-002
2.015333e+003;5.948475e-002
2.017261e+003;5.950549e-002
2.019190e+003;5.948186e-002
2.021118e+003;5.942741e-002
2.023047e+003;5.949307e-002
2.024975e+003;5.966136e-002
2.026904e+003;5.972979e-002
2.028833e+003;5.963346e-002
2.030761e+003;5.963844e-002
2.032690e+003;5.966314e-002
2.034618e+003;5.955535e-002
2.036547e+003;5.960799e-002
2.038475e+003;5.965277e-002
2.040404e+003;5.953407e-002
2.042332e+003;5.952293e-002
2.044261e+003;5.955782e-002
2.046189e+003;5.957192e-002
2.048118e+003;5.953171e-002
2.050047e+003;5.951343e-002
2.051975e+003;5.961324e-002
2.053904e+003;5.950732e-002
2.055832e+003;5.942114e-002
2.057761e+003;5.957686e-002
2.059689e+003;5.963144e-002
2.061618e+003;5.944508e-002
2.063546e+003;5.931500e-002
2.065475e+003;5.951522e-002
2.067404e+003;5.990836e-002
2.069332e+003;6.000403e-002
2.071260e+003;5.982070e-002
2.073189e+003;5.950492e-002
2.075118e+003;5.948015e-002
2.077046e+003;5.963600e-002
2.078975e+003;5.956303e-002
2.080903e+003;5.948976e-002
2.082832e+003;5.958416e-002
2.084760e+003;5.959051e-002
2.086689e+003;5.968299e-002
2.088617e+003;5.978686e-002
2.090546e+003;5.961126e-002
2.092475e+003;5.955623e-002
2.094403e+003;5.977013e-002
2.096332e+003;5.982188e-002
2.098260e+003;5.970485e-002
2.100189e+003;5.962338e-002
2.102117e+003;5.960894e-002
2.104046e+003;5.959933e-002
2.105974e+003;5.965851e-002
2.107903e+003;5.959651e-002
2.109832e+003;5.948304e-002
2.111760e+003;5.948839e-002
2.113688e+003;5.955334e-002
2.115617e+003;5.960122e-002
2.117546e+003;5.937909e-002
2.119474e+003;5.909480e-002
2.121403e+003;5.913375e-002
2.123331e+003;5.927907e-002
2.125260e+003;5.951682e-002
2.127188e+003;5.964547e-002
2.129117e+003;5.962605e-002
2.131045e+003;5.928732e-002
2.132974e+003;5.906093e-002
2.134903e+003;5.912156e-002
2.136831e+003;5.912642e-002
2.138760e+003;5.919868e-002
2.140688e+003;5.913933e-002
2.142617e+003;5.894536e-002
2.144545e+003;5.904936e-002
2.146474e+003;5.934843e-002
2.148402e+003;5.933540e-002
2.150331e+003;5.912992e-002
2.152260e+003;5.904807e-002
2.154188e+003;5.905589e-002
2.156117e+003;5.920145e-002
2.158045e+003;5.922993e-002
2.159974e+003;5.915087e-002
2.161902e+003;5.904006e-002
2.163831e+003;5.893170e-002
2.165759e+003;5.889371e-002
2.167688e+003;5.895432e-002
2.169616e+003;5.919815e-002
2.171545e+003;5.917134e-002
2.173474e+003;5.898168e-002
2.175402e+003;5.887307e-002
2.177331e+003;5.877443e-002
2.179259e+003;5.873820e-002
2.181188e+003;5.888301e-002
2.183116e+003;5.908925e-002
2.185045e+003;5.889091e-002
2.186973e+003;5.853834e-002
2.188902e+003;5.851245e-002
2.190831e+003;5.868566e-002
2.192759e+003;5.874412e-002
2.194688e+003;5.867436e-002
2.196616e+003;5.860015e-002
2.198545e+003;5.862946e-002
2.200473e+003;5.865900e-002
2.202402e+003;5.875167e-002
2.204330e+003;5.884241e-002
2.206259e+003;5.865585e-002
2.208188e+003;5.847783e-002
2.210116e+003;5.841001e-002
2.212044e+003;5.850665e-002
2.213973e+003;5.859438e-002
2.215902e+003;5.834085e-002
2.217830e+003;5.812981e-002
2.219759e+003;5.819182e-002
2.221687e+003;5.819030e-002
2.223616e+003;5.801770e-002
2.225544e+003;5.810901e-002
2.227473e+003;5.817314e-002
2.229401e+003;5.787885e-002
2.231330e+003;5.758797e-002
2.233259e+003;5.761620e-002
2.235187e+003;5.784213e-002
2.237116e+003;5.784580e-002
2.239044e+003;5.771458e-002
2.240973e+003;5.756240e-002
2.242901e+003;5.757859e-002
2.244830e+003;5.764810e-002
2.246758e+003;5.756304e-002
2.248687e+003;5.756255e-002
2.250615e+003;5.776284e-002
2.252544e+003;5.770107e-002
2.254473e+003;5.749624e-002
2.256401e+003;5.733268e-002
2.258330e+003;5.726066e-002
2.260258e+003;5.726561e-002
2.262187e+003;5.729733e-002
2.264115e+003;5.721900e-002
2.266044e+003;5.711582e-002
2.267972e+003;5.717864e-002
2.269901e+003;5.722581e-002
2.271830e+003;5.726459e-002
2.273758e+003;5.743837e-002
2.275687e+003;5.758321e-002
2.277615e+003;5.750608e-002
2.279544e+003;5.746417e-002
2.281472e+003;5.724864e-002
2.283401e+003;5.695520e-002
2.285329e+003;5.694440e-002
2.287258e+003;5.712682e-002
2.289187e+003;5.730493e-002
2.291115e+003;5.730724e-002
2.293043e+003;5.715486e-002
2.294972e+003;5.685144e-002
2.296901e+003;5.668186e-002
2.298829e+003;5.675038e-002
2.300758e+003;5.704217e-002
2.302686e+003;5.738101e-002
2.304615e+003;5.736429e-002
2.306543e+003;5.705313e-002
2.308472e+003;5.699955e-002
2.310400e+003;5.718854e-002
2.312329e+003;5.731865e-002
2.314258e+003;5.716053e-002
2.316186e+003;5.687070e-002
2.318115e+003;5.692369e-002
2.320043e+003;5.710199e-002
2.321972e+003;5.708230e-002
2.323900e+003;5.699751e-002
2.325829e+003;5.696729e-002
2.327757e+003;5.686088e-002
2.329686e+003;5.674257e-002
2.331615e+003;5.662285e-002
2.333543e+003;5.657510e-002
2.335472e+003;5.666672e-002
2.337400e+003;5.677950e-002
2.339329e+003;5.669503e-002
2.341257e+003;5.658152e-002
2.343186e+003;5.662632e-002
2.345114e+003;5.663433e-002
2.347043e+003;5.654302e-002
2.348971e+003;5.638687e-002
2.350900e+003;5.639268e-002
2.352829e+003;5.657706e-002
2.354757e+003;5.662983e-002
2.356686e+003;5.667649e-002
2.358614e+003;5.692237e-002
2.360543e+003;5.710327e-002
2.362471e+003;5.700174e-002
2.364400e+003;5.667687e-002
2.366328e+003;5.662342e-002
2.368257e+003;5.657774e-002
2.370186e+003;5.649868e-002
2.372114e+003;5.643113e-002
2.374042e+003;5.638540e-002
2.375971e+003;5.647169e-002
2.377900e+003;5.653657e-002
2.379828e+003;5.672048e-002
2.381757e+003;5.680072e-002
2.383685e+003;5.675525e-002
2.385614e+003;5.686239e-002
2.387542e+003;5.699733e-002
2.389471e+003;5.709942e-002
2.391399e+003;5.712663e-002
2.393328e+003;5.717304e-002
2.395257e+003;5.728622e-002
2.397185e+003;5.724357e-002
2.399114e+003;5.725964e-002
2.401042e+003;5.735393e-002
2.402971e+003;5.735026e-002
2.404899e+003;5.743108e-002
2.406828e+003;5.742192e-002
2.408756e+003;5.743803e-002
2.410685e+003;5.768779e-002
2.412614e+003;5.761567e-002
2.414542e+003;5.755476e-002
2.416471e+003;5.780628e-002
2.418399e+003;5.813579e-002
2.420328e+003;5.823296e-002
2.422256e+003;5.823342e-002
2.424185e+003;5.830928e-002
2.426113e+003;5.848845e-002
2.428042e+003;5.868828e-002
2.429970e+003;5.857497e-002
2.431899e+003;5.854365e-002
2.433828e+003;5.859195e-002
2.435756e+003;5.872739e-002
2.437685e+003;5.889269e-002
2.439613e+003;5.878349e-002
2.441542e+003;5.875671e-002
2.443470e+003;5.881521e-002
2.445399e+003;5.863905e-002
2.447327e+003;5.852886e-002
2.449256e+003;5.874324e-002
2.451185e+003;5.895614e-002
2.453113e+003;5.920027e-002
2.455042e+003;5.921250e-002
2.456970e+003;5.889227e-002
2.458899e+003;5.889105e-002
2.460827e+003;5.900627e-002
2.462756e+003;5.885816e-002
2.464684e+003;5.903846e-002
2.466613e+003;5.929400e-002
2.468542e+003;5.925579e-002
2.470470e+003;5.909468e-002
2.472398e+003;5.910186e-002
2.474327e+003;5.919484e-002
2.476256e+003;5.921672e-002
2.478184e+003;5.906625e-002
2.480113e+003;5.882959e-002
2.482041e+003;5.879563e-002
2.483970e+003;5.878584e-002
2.485898e+003;5.886844e-002
2.487827e+003;5.885508e-002
2.489755e+003;5.903341e-002
2.491684e+003;5.944299e-002
2.493613e+003;5.976804e-002
2.495541e+003;5.958819e-002
2.497470e+003;5.924645e-002
2.499398e+003;5.925382e-002
2.501327e+003;5.951735e-002
2.503255e+003;5.949280e-002
2.505184e+003;5.927258e-002
2.507112e+003;5.916428e-002
2.509041e+003;5.929810e-002
2.510969e+003;5.951507e-002
2.512898e+003;5.955090e-002
2.514827e+003;5.935888e-002
2.516755e+003;5.953418e-002
2.518684e+003;5.974614e-002
2.520612e+003;5.974093e-002
2.522541e+003;5.975575e-002
2.524469e+003;5.968690e-002
2.526398e+003;5.949900e-002
2.528326e+003;5.959009e-002
2.530255e+003;5.966828e-002
2.532184e+003;5.978176e-002
2.534112e+003;5.991506e-002
2.536041e+003;5.988246e-002
2.537969e+003;5.979446e-002
2.539898e+003;5.977222e-002
2.541826e+003;5.996382e-002
2.543755e+003;5.997702e-002
2.545683e+003;5.993906e-002
2.547612e+003;6.012967e-002
2.549541e+003;6.019003e-002
2.551469e+003;6.021754e-002
2.553397e+003;6.041170e-002
2.555326e+003;6.056999e-002
2.557255e+003;6.041376e-002
2.559183e+003;6.040051e-002
2.561112e+003;6.057369e-002
2.563040e+003;6.057936e-002
2.564969e+003;6.067613e-002
2.566897e+003;6.060012e-002
2.568826e+003;6.069408e-002
2.570754e+003;6.095128e-002
2.572683e+003;6.105820e-002
2.574612e+003;6.100416e-002
2.576540e+003;6.084519e-002
2.578469e+003;6.080741e-002
2.580397e+003;6.101785e-002
2.582326e+003;6.113875e-002
2.584254e+003;6.131168e-002
2.586183e+003;6.153157e-002
2.588111e+003;6.155444e-002
2.590040e+003;6.143625e-002
2.591969e+003;6.156207e-002
2.593897e+003;6.162377e-002
2.595826e+003;6.157658e-002
2.597754e+003;6.154600e-002
2.599683e+003;6.176719e-002
2.601611e+003;6.206435e-002
2.603540e+003;6.209000e-002
2.605468e+003;6.218730e-002
2.607397e+003;6.215958e-002
2.609325e+003;6.219560e-002
2.611254e+003;6.236368e-002
2.613183e+003;6.234279e-002
2.615111e+003;6.216341e-002
2.617040e+003;6.191993e-002
2.618968e+003;6.186024e-002
2.620897e+003;6.203255e-002
2.622825e+003;6.199250e-002
2.624754e+003;6.192100e-002
2.626682e+003;6.220390e-002
2.628611e+003;6.251969e-002
2.630540e+003;6.233732e-002
2.632468e+003;6.208022e-002
2.634396e+003;6.193411e-002
2.636325e+003;6.180790e-002
2.638254e+003;6.177032e-002
2.640182e+003;6.173946e-002
2.642111e+003;6.179977e-002
2.644039e+003;6.217059e-002
2.645968e+003;6.213981e-002
2.647896e+003;6.197140e-002
2.649825e+003;6.189074e-002
2.651753e+003;6.210961e-002
2.653682e+003;6.240518e-002
2.655611e+003;6.230210e-002
2.657539e+003;6.202070e-002
2.659468e+003;6.201971e-002
2.661396e+003;6.213584e-002
2.663325e+003;6.225781e-002
2.665253e+003;6.223831e-002
2.667182e+003;6.225307e-002
2.669110e+003;6.221778e-002
2.671039e+003;6.223946e-002
2.672968e+003;6.252222e-002
2.674896e+003;6.255578e-002
2.676825e+003;6.233025e-002
2.678753e+003;6.222053e-002
2.680682e+003;6.234708e-002
2.682610e+003;6.256190e-002
2.684539e+003;6.253729e-002
2.686467e+003;6.252057e-002
2.688396e+003;6.255180e-002
2.690324e+003;6.262244e-002
2.692253e+003;6.281887e-002
2.694182e+003;6.292552e-002
2.696110e+003;6.301151e-002
2.698039e+003;6.299680e-002
2.699967e+003;6.298228e-002
2.701896e+003;6.303197e-002
2.703824e+003;6.306564e-002
2.705753e+003;6.316504e-002
2.707681e+003;6.343643e-002
2.709610e+003;6.358156e-002
2.711539e+003;6.359905e-002
2.713467e+003;6.371687e-002
2.715396e+003;6.388792e-002
2.717324e+003;6.379511e-002
2.719253e+003;6.377964e-002
2.721181e+003;6.381158e-002
2.723110e+003;6.381775e-002
2.725038e+003;6.392892e-002
2.726967e+003;6.417198e-002
2.728896e+003;6.448806e-002
2.730824e+003;6.446999e-002
2.732752e+003;6.413419e-002
2.734681e+003;6.404509e-002
2.736610e+003;6.429261e-002
2.738538e+003;6.429549e-002
2.740467e+003;6.450024e-002
2.742395e+003;6.504993e-002
2.744324e+003;6.532035e-002
2.746252e+003;6.512164e-002
2.748181e+003;6.498670e-002
2.750109e+003;6.520756e-002
2.752038e+003;6.538849e-002
2.753967e+003;6.522154e-002
2.755895e+003;6.512529e-002
2.757824e+003;6.522866e-002
2.759752e+003;6.562929e-002
2.761681e+003;6.595248e-002
2.763609e+003;6.599291e-002
2.765538e+003;6.589830e-002
2.767466e+003;6.587705e-002
2.769395e+003;6.595071e-002
2.771323e+003;6.596930e-002
2.773252e+003;6.591041e-002
2.775181e+003;6.595804e-002
2.777109e+003;6.611060e-002
2.779038e+003;6.598774e-002
2.780966e+003;6.601840e-002
2.782895e+003;6.629514e-002
2.784823e+003;6.642392e-002
2.786752e+003;6.655035e-002
2.788680e+003;6.663977e-002
2.790609e+003;6.661373e-002
2.792538e+003;6.654703e-002
2.794466e+003;6.649014e-002
2.796395e+003;6.670958e-002
2.798323e+003;6.683586e-002
2.800252e+003;6.692355e-002
2.802180e+003;6.724501e-002
2.804109e+003;6.741424e-002
2.806037e+003;6.713229e-002
2.807966e+003;6.717388e-002
2.809895e+003;6.743386e-002
2.811823e+003;6.753631e-002
2.813751e+003;6.753302e-002
2.815680e+003;6.743710e-002
2.817609e+003;6.730702e-002
2.819537e+003;6.760363e-002
2.821466e+003;6.799273e-002
2.823394e+003;6.800471e-002
2.825323e+003;6.782990e-002
2.827251e+003;6.768223e-002
2.829180e+003;6.767235e-002
2.831108e+003;6.771600e-002
2.833037e+003;6.792950e-002
2.834966e+003;6.823277e-002
2.836894e+003;6.821238e-002
2.838823e+003;6.817276e-002
2.840751e+003;6.819458e-002
2.842680e+003;6.860587e-002
2.844608e+003;6.902649e-002
2.846537e+003;6.866995e-002
2.848465e+003;6.820703e-002
2.850394e+003;6.822855e-002
2.852323e+003;6.865966e-002
2.854251e+003;6.906167e-002
2.856180e+003;6.939101e-002
2.858108e+003;6.983884e-002
2.860037e+003;7.027639e-002
2.861965e+003;7.064801e-002
2.863894e+003;7.108696e-002
2.865822e+003;7.149419e-002
2.867751e+003;7.176256e-002
2.869679e+003;7.206634e-002
2.871608e+003;7.224318e-002
2.873536e+003;7.242172e-002
2.875465e+003;7.283786e-002
2.877394e+003;7.278743e-002
2.879322e+003;7.270575e-002
2.881251e+003;7.253425e-002
2.883179e+003;7.250006e-002
2.885108e+003;7.275836e-002
2.887036e+003;7.276247e-002
2.888965e+003;7.244756e-002
2.890893e+003;7.229710e-002
2.892822e+003;7.218800e-002
2.894750e+003;7.235166e-002
2.896679e+003;7.251322e-002
2.898608e+003;7.254208e-002
2.900536e+003;7.245617e-002
2.902465e+003;7.252144e-002
2.904393e+003;7.266153e-002
2.906322e+003;7.266016e-002
2.908250e+003;7.307511e-002
2.910179e+003;7.342261e-002
2.912107e+003;7.324518e-002
2.914036e+003;7.307327e-002
2.915965e+003;7.291517e-002
2.917893e+003;7.294363e-002
2.919822e+003;7.326683e-002
2.921750e+003;7.408335e-002
2.923679e+003;7.489433e-002
2.925607e+003;7.539032e-002
2.927536e+003;7.582407e-002
2.929464e+003;7.601776e-002
2.931393e+003;7.617588e-002
2.933322e+003;7.638655e-002
2.935250e+003;7.657902e-002
2.937178e+003;7.637770e-002
2.939107e+003;7.626852e-002
2.941036e+003;7.620111e-002
2.942964e+003;7.559908e-002
2.944893e+003;7.530906e-002
2.946821e+003;7.501927e-002
2.948750e+003;7.467707e-002
2.950678e+003;7.487823e-002
2.952607e+003;7.498033e-002
2.954535e+003;7.440693e-002
2.956464e+003;7.414309e-002
2.958393e+003;7.454514e-002
2.960321e+003;7.488441e-002
2.962250e+003;7.505751e-002
2.964178e+003;7.525543e-002
2.966107e+003;7.561915e-002
2.968035e+003;7.573949e-002
2.969964e+003;7.574825e-002
2.971892e+003;7.594249e-002
2.973821e+003;7.592335e-002
2.975750e+003;7.619996e-002
2.977678e+003;7.642068e-002
2.979607e+003;7.594088e-002
2.981535e+003;7.556296e-002
2.983464e+003;7.527032e-002
2.985392e+003;7.496938e-002
2.987321e+003;7.499738e-002
2.989249e+003;7.497552e-002
2.991178e+003;7.445176e-002
2.993106e+003;7.387199e-002
2.995035e+003;7.372358e-002
2.996964e+003;7.359795e-002
2.998892e+003;7.362461e-002
3.000821e+003;7.342516e-002
3.002749e+003;7.314309e-002
3.004678e+003;7.302120e-002
3.006606e+003;7.263622e-002
3.008535e+003;7.222905e-002
3.010463e+003;7.256079e-002
3.012392e+003;7.291165e-002
3.014321e+003;7.299533e-002
3.016249e+003;7.305072e-002
3.018177e+003;7.305202e-002
3.020106e+003;7.300635e-002
3.022035e+003;7.301607e-002
3.023963e+003;7.320407e-002
3.025892e+003;7.342971e-002
3.027820e+003;7.332916e-002
3.029749e+003;7.327314e-002
3.031677e+003;7.387521e-002
3.033606e+003;7.424179e-002
3.035534e+003;7.419296e-002
3.037463e+003;7.476128e-002
3.039392e+003;7.542694e-002
3.041320e+003;7.528549e-002
3.043249e+003;7.546858e-002
3.045177e+003;7.574292e-002
3.047106e+003;7.594135e-002
3.049034e+003;7.604583e-002
3.050963e+003;7.621276e-002
3.052891e+003;7.656839e-002
3.054820e+003;7.710096e-002
3.056749e+003;7.750787e-002
3.058677e+003;7.756958e-002
3.060606e+003;7.768285e-002
3.062534e+003;7.801403e-002
3.064463e+003;7.781359e-002
3.066391e+003;7.760222e-002
3.068320e+003;7.808569e-002
3.070248e+003;7.869797e-002
3.072177e+003;7.875127e-002
3.074105e+003;7.849701e-002
3.076034e+003;7.808895e-002
3.077963e+003;7.755350e-002
3.079891e+003;7.758356e-002
3.081820e+003;7.791380e-002
3.083748e+003;7.777332e-002
3.085677e+003;7.731090e-002
3.087605e+003;7.739801e-002
3.089534e+003;7.758978e-002
3.091462e+003;7.727836e-002
3.093391e+003;7.679179e-002
3.095320e+003;7.673762e-002
3.097248e+003;7.667112e-002
3.099177e+003;7.653274e-002
3.101105e+003;7.637924e-002
3.103034e+003;7.602092e-002
3.104962e+003;7.561785e-002
3.106891e+003;7.521807e-002
3.108819e+003;7.513070e-002
3.110748e+003;7.522891e-002
3.112677e+003;7.523073e-002
3.114605e+003;7.532478e-002
3.116533e+003;7.540582e-002
3.118462e+003;7.530035e-002
3.120391e+003;7.531911e-002
3.122319e+003;7.528057e-002
3.124248e+003;7.490059e-002
3.126176e+003;7.472539e-002
3.128105e+003;7.532597e-002
3.130033e+003;7.566380e-002
3.131962e+003;7.525023e-002
3.133890e+003;7.518246e-002
3.135819e+003;7.531686e-002
3.137748e+003;7.532609e-002
3.139676e+003;7.517486e-002
3.141605e+003;7.543171e-002
3.143533e+003;7.611547e-002
3.145462e+003;7.615305e-002
3.147390e+003;7.600493e-002
3.149319e+003;7.649156e-002
3.151247e+003;7.706171e-002
3.153176e+003;7.755833e-002
3.155104e+003;7.754949e-002
3.157033e+003;7.731399e-002
3.158962e+003;7.741337e-002
3.160890e+003;7.781466e-002
3.162819e+003;7.809652e-002
3.164747e+003;7.826107e-002
3.166676e+003;7.885762e-002
3.168604e+003;7.922322e-002
3.170533e+003;7.941620e-002
3.172461e+003;7.995930e-002
3.174390e+003;8.047631e-002
3.176319e+003;8.083245e-002
3.178247e+003;8.153088e-002
3.180176e+003;8.214375e-002
3.182104e+003;8.259448e-002
3.184033e+003;8.282413e-002
3.185961e+003;8.294628e-002
3.187890e+003;8.324362e-002
3.189818e+003;8.367712e-002
3.191747e+003;8.449959e-002
3.193676e+003;8.513284e-002
3.195604e+003;8.561956e-002
3.197532e+003;8.609209e-002
3.199461e+003;8.645178e-002
3.201390e+003;8.704416e-002
3.203318e+003;8.733475e-002
3.205247e+003;8.772013e-002
3.207175e+003;8.839753e-002
3.209104e+003;8.890362e-002
3.211032e+003;8.962103e-002
3.212961e+003;9.002377e-002
3.214889e+003;9.015836e-002
3.216818e+003;9.103823e-002
3.218747e+003;9.189545e-002
3.220675e+003;9.250350e-002
3.222604e+003;9.299976e-002
3.224532e+003;9.352887e-002
3.226461e+003;9.412699e-002
3.228389e+003;9.487902e-002
3.230318e+003;9.573320e-002
3.232246e+003;9.635082e-002
3.234175e+003;9.667628e-002
3.236104e+003;9.766360e-002
3.238032e+003;9.904902e-002
3.239961e+003;9.977210e-002
3.241889e+003;1.002813e-001
3.243818e+003;1.013252e-001
3.245746e+003;1.020551e-001
3.247675e+003;1.027773e-001
3.249603e+003;1.039897e-001
3.251532e+003;1.054096e-001
3.253460e+003;1.065861e-001
3.255389e+003;1.078924e-001
3.257318e+003;1.091836e-001
3.259246e+003;1.103761e-001
3.261175e+003;1.115645e-001
3.263103e+003;1.127571e-001
3.265032e+003;1.139137e-001
3.266960e+003;1.153764e-001
3.268889e+003;1.167255e-001
3.270817e+003;1.180791e-001
3.272746e+003;1.191322e-001
3.274675e+003;1.195850e-001
3.276603e+003;1.204965e-001
3.278531e+003;1.215949e-001
3.280460e+003;1.221199e-001
3.282389e+003;1.220502e-001
3.284317e+003;1.218141e-001
3.286246e+003;1.210734e-001
3.288174e+003;1.203150e-001
3.290103e+003;1.198451e-001
3.292031e+003;1.192523e-001
3.293960e+003;1.183333e-001
3.295888e+003;1.173384e-001
3.297817e+003;1.157212e-001
3.299746e+003;1.141938e-001
3.301674e+003;1.129766e-001
3.303603e+003;1.117888e-001
3.305531e+003;1.102739e-001
3.307460e+003;1.084148e-001
3.309388e+003;1.068006e-001
3.311317e+003;1.053191e-001
3.313245e+003;1.039788e-001
3.315174e+003;1.025363e-001
3.317103e+003;1.011653e-001
3.319031e+003;9.984077e-002
3.320960e+003;9.839235e-002
3.322888e+003;9.706494e-002
3.324817e+003;9.599350e-002
3.326745e+003;9.477258e-002
3.328674e+003;9.355193e-002
3.330602e+003;9.257521e-002
3.332531e+003;9.147567e-002
3.334459e+003;9.022361e-002
3.336388e+003;8.908525e-002
3.338317e+003;8.784801e-002
3.340245e+003;8.686034e-002
3.342174e+003;8.608029e-002
3.344102e+003;8.516528e-002
3.346031e+003;8.448417e-002
3.347959e+003;8.369600e-002
3.349888e+003;8.272663e-002
3.351816e+003;8.194124e-002
3.353745e+003;8.149131e-002
3.355674e+003;8.079873e-002
3.357602e+003;8.014707e-002
3.359531e+003;8.019819e-002
3.361459e+003;8.001546e-002
3.363388e+003;7.935244e-002
3.365316e+003;7.855207e-002
3.367245e+003;7.827932e-002
3.369173e+003;7.819220e-002
3.371102e+003;7.731240e-002
3.373031e+003;7.654140e-002
3.374959e+003;7.649465e-002
3.376887e+003;7.641891e-002
3.378816e+003;7.609256e-002
3.380745e+003;7.580671e-002
3.382673e+003;7.528885e-002
3.384602e+003;7.480092e-002
3.386530e+003;7.443552e-002
3.388459e+003;7.407699e-002
3.390387e+003;7.402869e-002
3.392316e+003;7.392573e-002
3.394244e+003;7.297789e-002
3.396173e+003;7.223781e-002
3.398102e+003;7.216121e-002
3.400030e+003;7.211602e-002
3.401959e+003;7.182315e-002
3.403887e+003;7.150560e-002
3.405816e+003;7.133664e-002
3.407744e+003;7.105289e-002
3.409673e+003;7.038610e-002
3.411601e+003;7.023268e-002
3.413530e+003;7.017972e-002
3.415458e+003;6.955700e-002
3.417387e+003;6.891013e-002
3.419316e+003;6.875014e-002
3.421244e+003;6.870239e-002
3.423173e+003;6.862543e-002
3.425101e+003;6.843199e-002
3.427030e+003;6.793232e-002
3.428958e+003;6.742039e-002
3.430887e+003;6.744353e-002
3.432815e+003;6.749017e-002
3.434744e+003;6.724296e-002
3.436673e+003;6.682678e-002
3.438601e+003;6.653266e-002
3.440530e+003;6.627476e-002
3.442458e+003;6.604317e-002
3.444387e+003;6.599892e-002
3.446315e+003;6.595156e-002
3.448244e+003;6.579427e-002
3.450172e+003;6.537500e-002
3.452101e+003;6.516695e-002
3.454030e+003;6.502996e-002
3.455958e+003;6.499431e-002
3.457886e+003;6.516918e-002
3.459815e+003;6.491666e-002
3.461744e+003;6.407401e-002
3.463672e+003;6.356300e-002
3.465601e+003;6.380655e-002
3.467529e+003;6.404974e-002
3.469458e+003;6.347482e-002
3.471386e+003;6.318270e-002
3.473315e+003;6.355563e-002
3.475243e+003;6.368391e-002
3.477172e+003;6.353277e-002
3.479101e+003;6.326123e-002
3.481029e+003;6.277426e-002
3.482958e+003;6.269811e-002
3.484886e+003;6.254885e-002
3.486815e+003;6.244087e-002
3.488743e+003;6.274371e-002
3.490672e+003;6.272736e-002
3.492600e+003;6.258601e-002
3.494529e+003;6.244516e-002
3.496458e+003;6.209551e-002
3.498386e+003;6.174385e-002
3.500315e+003;6.140587e-002
3.502243e+003;6.174881e-002
3.504172e+003;6.190514e-002
3.506100e+003;6.123595e-002
3.508029e+003;6.090881e-002
3.509957e+003;6.101808e-002
3.511886e+003;6.062869e-002
3.513814e+003;6.015695e-002
3.515743e+003;6.002058e-002
3.517672e+003;6.029942e-002
3.519600e+003;6.039727e-002
3.521529e+003;6.001925e-002
3.523457e+003;5.998482e-002
3.525386e+003;5.997676e-002
3.527314e+003;5.961403e-002
3.529243e+003;5.943410e-002
3.531171e+003;5.944937e-002
3.533100e+003;5.902427e-002
3.535029e+003;5.858771e-002
3.536957e+003;5.868517e-002
3.538885e+003;5.851381e-002
3.540814e+003;5.820398e-002
3.542743e+003;5.804163e-002
3.544671e+003;5.787734e-002
3.546600e+003;5.778183e-002
3.548528e+003;5.757292e-002
3.550457e+003;5.766898e-002
3.552385e+003;5.777824e-002
3.554314e+003;5.744537e-002
3.556242e+003;5.729884e-002
3.558171e+003;5.739708e-002
3.560100e+003;5.684940e-002
3.562028e+003;5.596675e-002
3.563957e+003;5.605997e-002
3.565885e+003;5.606766e-002
3.567814e+003;5.556669e-002
3.569742e+003;5.567591e-002
3.571671e+003;5.548035e-002
3.573599e+003;5.523149e-002
3.575528e+003;5.550580e-002
3.577457e+003;5.591685e-002
3.579385e+003;5.570503e-002
3.581314e+003;5.534638e-002
3.583242e+003;5.480639e-002
3.585171e+003;5.403752e-002
3.587099e+003;5.395681e-002
3.589028e+003;5.385583e-002
3.590956e+003;5.358765e-002
3.592885e+003;5.362247e-002
3.594813e+003;5.371545e-002
3.596742e+003;5.389934e-002
3.598671e+003;5.397429e-002
3.600599e+003;5.358772e-002
3.602528e+003;5.311136e-002
3.604456e+003;5.282991e-002
3.606385e+003;5.283372e-002
3.608313e+003;5.300301e-002
3.610242e+003;5.299140e-002
3.612170e+003;5.279836e-002
3.614099e+003;5.251416e-002
3.616028e+003;5.242154e-002
3.617956e+003;5.245291e-002
3.619885e+003;5.227065e-002
3.621813e+003;5.190318e-002
3.623742e+003;5.158818e-002
3.625670e+003;5.138557e-002
3.627599e+003;5.125853e-002
3.629527e+003;5.105601e-002
3.631456e+003;5.069388e-002
3.633385e+003;5.032584e-002
3.635313e+003;4.997536e-002
3.637241e+003;4.995997e-002
3.639170e+003;5.005080e-002
3.641099e+003;4.983862e-002
3.643027e+003;4.937733e-002
3.644956e+003;4.883611e-002
3.646884e+003;4.861933e-002
3.648813e+003;4.833966e-002
3.650741e+003;4.825268e-002
3.652670e+003;4.835993e-002
3.654598e+003;4.831526e-002
3.656527e+003;4.771570e-002
3.658456e+003;4.713883e-002
3.660384e+003;4.763154e-002
3.662313e+003;4.772022e-002
3.664241e+003;4.693365e-002
3.666170e+003;4.644354e-002
3.668098e+003;4.635380e-002
3.670027e+003;4.611209e-002
3.671955e+003;4.586530e-002
3.673884e+003;4.575484e-002
3.675813e+003;4.514829e-002
3.677741e+003;4.458616e-002
3.679669e+003;4.429668e-002
3.681598e+003;4.416218e-002
3.683527e+003;4.395598e-002
3.685455e+003;4.373558e-002
3.687384e+003;4.357525e-002
3.689312e+003;4.296782e-002
3.691241e+003;4.286965e-002
3.693169e+003;4.279958e-002
3.695098e+003;4.206633e-002
3.697026e+003;4.182934e-002
3.698955e+003;4.208583e-002
3.700884e+003;4.215625e-002
3.702812e+003;4.211215e-002
3.704741e+003;4.160619e-002
3.706669e+003;4.131110e-002
3.708598e+003;4.158500e-002
3.710526e+003;4.141242e-002
3.712455e+003;4.066585e-002
3.714383e+003;4.017302e-002
3.716312e+003;4.007886e-002
3.718240e+003;4.025390e-002
3.720169e+003;4.047985e-002
3.722098e+003;4.047083e-002
3.724026e+003;4.023074e-002
3.725955e+003;3.993601e-002
3.727883e+003;3.982617e-002
3.729812e+003;4.004064e-002
3.731740e+003;4.010946e-002
3.733669e+003;4.022562e-002
3.735597e+003;4.039067e-002
3.737526e+003;4.002200e-002
3.739455e+003;3.975696e-002
3.741383e+003;4.003860e-002
3.743312e+003;3.991814e-002
3.745240e+003;3.930107e-002
3.747169e+003;3.947031e-002
3.749097e+003;3.980823e-002
3.751026e+003;3.965124e-002
3.752954e+003;3.913515e-002
3.754883e+003;3.901776e-002
3.756812e+003;3.937445e-002
3.758740e+003;3.948138e-002
3.760668e+003;3.909966e-002
3.762597e+003;3.934238e-002
3.764526e+003;4.000467e-002
3.766454e+003;3.986583e-002
3.768383e+003;3.910111e-002
3.770311e+003;3.903672e-002
3.772240e+003;3.959033e-002
3.774168e+003;3.968921e-002
3.776097e+003;3.948113e-002
3.778025e+003;3.897891e-002
3.779954e+003;3.913961e-002
3.781883e+003;3.944495e-002
3.783811e+003;3.922062e-002
3.785740e+003;3.897057e-002
3.787668e+003;3.881478e-002
3.789597e+003;3.890972e-002
3.791525e+003;3.923154e-002
3.793454e+003;3.939829e-002
3.795382e+003;3.951567e-002
3.797311e+003;3.955244e-002
3.799240e+003;3.916336e-002
3.801168e+003;3.879526e-002
3.803097e+003;3.913791e-002
3.805025e+003;3.937166e-002
3.806954e+003;3.880598e-002
3.808882e+003;3.871863e-002
3.810811e+003;3.900787e-002
3.812739e+003;3.916380e-002
3.814668e+003;3.952264e-002
3.816596e+003;3.966122e-002
3.818525e+003;3.950827e-002
3.820454e+003;3.919045e-002
3.822382e+003;3.873475e-002
3.824311e+003;3.926842e-002
3.826239e+003;3.985944e-002
3.828168e+003;3.961392e-002
3.830096e+003;3.951277e-002
3.832025e+003;3.948809e-002
3.833953e+003;3.945903e-002
3.835882e+003;3.984401e-002
3.837811e+003;4.007294e-002
3.839739e+003;3.979915e-002
3.841667e+003;3.967893e-002
3.843596e+003;3.957501e-002
3.845525e+003;3.945645e-002
3.847453e+003;3.993441e-002
3.849382e+003;4.016394e-002
3.851310e+003;3.978078e-002
3.853239e+003;3.957962e-002
3.855167e+003;3.983743e-002
3.857096e+003;4.013464e-002
3.859024e+003;4.036704e-002
3.860953e+003;4.036966e-002
3.862882e+003;4.010822e-002
3.864810e+003;4.017778e-002
3.866739e+003;4.006309e-002
3.868667e+003;3.960985e-002
3.870596e+003;3.940689e-002
3.872524e+003;3.962579e-002
3.874453e+003;3.998701e-002
3.876381e+003;4.054590e-002
3.878310e+003;4.077139e-002
3.880239e+003;4.050964e-002
3.882167e+003;4.024256e-002
3.884096e+003;4.017564e-002
3.886024e+003;4.011778e-002
3.887953e+003;4.039213e-002
3.889881e+003;4.061415e-002
3.891810e+003;4.079235e-002
3.893738e+003;4.083614e-002
3.895667e+003;4.045137e-002
3.897595e+003;4.024801e-002
3.899524e+003;4.069860e-002
3.901453e+003;4.125094e-002
3.903381e+003;4.163157e-002
3.905310e+003;4.151875e-002
3.907238e+003;4.115553e-002
3.909167e+003;4.116332e-002
3.911095e+003;4.143891e-002
3.913024e+003;4.149342e-002
3.914952e+003;4.146713e-002
3.916881e+003;4.157986e-002
3.918810e+003;4.138300e-002
3.920738e+003;4.119265e-002
3.922667e+003;4.131117e-002
3.924595e+003;4.140921e-002
3.926524e+003;4.165465e-002
3.928452e+003;4.164557e-002
3.930381e+003;4.143870e-002
3.932309e+003;4.150118e-002
3.934238e+003;4.197286e-002
3.936167e+003;4.198048e-002
3.938095e+003;4.151387e-002
3.940023e+003;4.140757e-002
3.941952e+003;4.180731e-002
3.943881e+003;4.246251e-002
3.945809e+003;4.258218e-002
3.947738e+003;4.241972e-002
3.949666e+003;4.213956e-002
3.951595e+003;4.192851e-002
3.953523e+003;4.230338e-002
3.955452e+003;4.264205e-002
3.957380e+003;4.239002e-002
3.959309e+003;4.201640e-002
3.961238e+003;4.216228e-002
3.963166e+003;4.239777e-002
3.965095e+003;4.210630e-002
3.967023e+003;4.218375e-002
3.968952e+003;4.235404e-002
3.970880e+003;4.210287e-002
3.972809e+003;4.235255e-002
3.974737e+003;4.287155e-002
3.976666e+003;4.260071e-002
3.978594e+003;4.219174e-002
3.980523e+003;4.209597e-002
3.982452e+003;4.209054e-002
3.984380e+003;4.189947e-002
3.986309e+003;4.196253e-002
3.988237e+003;4.263924e-002
3.990166e+003;4.320946e-002
3.992094e+003;4.311486e-002
3.994023e+003;4.269473e-002
3.995951e+003;4.261033e-002
3.997880e+003;4.300550e-002
3.999809e+003;4.260408e-002
4.001737e+003;0.000000e+000
