3.992094e+002;0.000000e+000
4.011380e+002;0.000000e+000
4.030665e+002;0.000000e+000
4.049951e+002;0.000000e+000
4.069236e+002;0.000000e+000
4.088522e+002;0.000000e+000
4.107807e+002;0.000000e+000
4.127093e+002;0.000000e+000
4.146378e+002;0.000000e+000
4.165664e+002;0.000000e+000
4.184949e+002;0.000000e+000
4.204235e+002;0.000000e+000
4.223520e+002;0.000000e+000
4.242806e+002;0.000000e+000
4.262091e+002;0.000000e+000
4.281377e+002;0.000000e+000
4.300662e+002;0.000000e+000
4.319948e+002;0.000000e+000
4.339233e+002;0.000000e+000
4.358519e+002;0.000000e+000
4.377804e+002;0.000000e+000
4.397090e+002;0.000000e+000
4.416375e+002;0.000000e+000
4.435660e+002;0.000000e+000
4.454946e+002;0.000000e+000
4.474232e+002;0.000000e+000
4.493517e+002;0.000000e+000
4.512802e+002;0.000000e+000
4.532088e+002;0.000000e+000
4.551373e+002;0.000000e+000
4.570659e+002;0.000000e+000
4.589944e+002;0.000000e+000
4.609230e+002;0.000000e+000
4.628515e+002;0.000000e+000
4.647801e+002;0.000000e+000
4.667086e+002;0.000000e+000
4.686372e+002;0.000000e+000
4.705657e+002;0.000000e+000
4.724943e+002;0.000000e+000
4.744228e+002;0.000000e+000
4.763513e+002;0.000000e+000
4.782799e+002;0.000000e+000
4.802085e+002;0.000000e+000
4.821370e+002;0.000000e+000
4.840656e+002;0.000000e+000
4.859941e+002;0.000000e+000
4.879226e+002;0.000000e+000
4.898512e+002;0.000000e+000
4.917798e+002;0.000000e+000
4.937083e+002;0.000000e+000
4.956368e+002;0.000000e+000
4.975654e+002;0.000000e+000
4.994939e+002;0.000000e+000
5.014225e+002;0.000000e+000
5.033510e+002;0.000000e+000
5.052796e+002;0.000000e+000
5.072081e+002;0.000000e+000
5.091367e+002;0.000000e+000
5.110652e+002;0.000000e+000
5.129938e+002;0.000000e+000
5.149223e+002;0.000000e+000
5.168509e+002;0.000000e+000
5.187794e+002;0.000000e+000
5.207079e+002;0.000000e+000
5.226365e+002;0.000000e+000
5.245651e+002;0.000000e+000
5.264936e+002;0.000000e+000
5.284222e+002;0.000000e+000
5.303507e+002;0.000000e+000
5.322792e+002;0.000000e+000
5.342078e+002;0.000000e+000
5.361364e+002;0.000000e+000
5.380649e+002;0.000000e+000
5.399935e+002;0.000000e+000
5.419220e+002;0.000000e+000
5.438505e+002;0.000000e+000
5.457791e+002;0.000000e+000
5.477076e+002;0.000000e+000
5.496362e+002;0.000000e+000
5.515648e+002;0.000000e+000
5.534933e+002;0.000000e+000
5.554218e+002;0.000000e+000
5.573504e+002;0.000000e+000
5.592789e+002;0.000000e+000
5.612075e+002;0.000000e+000
5.631360e+002;0.000000e+000
5.650646e+002;0.000000e+000
5.669931e+002;0.000000e+000
5.689217e+002;0.000000e+000
5.708502e+002;0.000000e+000
5.727787e+002;0.000000e+000
5.747073e+002;0.000000e+000
5.766359e+002;0.000000e+000
5.785644e+002;0.000000e+000
5.804930e+002;0.000000e+000
5.824215e+002;0.000000e+000
5.843500e+002;0.000000e+000
5.862786e+002;0.000000e+000
5.882072e+002;0.000000e+000
5.901357e+002;0.000000e+000
5.920643e+002;0.000000e+000
5.939928e+002;0.000000e+000
5.959213e+002;0.000000e+000
5.978499e+002;0.000000e+000
5.997784e+002;6.603070e-002
6.017070e+002;7.241824e-002
6.036355e+002;7.558126e-002
6.055641e+002;7.393185e-002
6.074926e+002;7.530488e-002
6.094211e+002;7.543203e-002
6.113497e+002;7.465192e-002
6.132783e+002;7.518380e-002
6.152068e+002;7.404909e-002
6.171354e+002;7.366382e-002
6.190639e+002;7.615483e-002
6.209924e+002;7.778850e-002
6.229210e+002;7.683885e-002
6.248495e+002;7.457917e-002
6.267781e+002;7.272522e-002
6.287067e+002;7.399601e-002
6.306352e+002;7.593105e-002
6.325637e+002;7.395244e-002
6.344923e+002;7.184345e-002
6.364208e+002;7.354689e-002
6.383494e+002;7.541985e-002
6.402780e+002;7.779860e-002
6.422065e+002;7.653856e-002
6.441350e+002;7.392749e-002
6.460636e+002;7.453704e-002
6.479921e+002;7.632702e-002
6.499207e+002;7.522005e-002
6.518492e+002;7.373670e-002
6.537778e+002;7.282148e-002
6.557063e+002;7.466089e-002
6.576349e+002;7.369363e-002
6.595634e+002;7.236481e-002
6.614919e+002;7.503148e-002
6.634205e+002;7.785116e-002
6.653491e+002;7.667832e-002
6.672776e+002;7.356616e-002
6.692062e+002;7.364243e-002
6.711347e+002;7.350815e-002
6.730632e+002;7.185357e-002
6.749918e+002;7.053465e-002
6.769203e+002;6.931859e-002
6.788489e+002;7.013135e-002
6.807775e+002;7.127940e-002
6.827060e+002;7.050257e-002
6.846345e+002;6.956544e-002
6.865631e+002;7.022551e-002
6.884916e+002;6.997550e-002
6.904202e+002;6.906521e-002
6.923488e+002;6.828159e-002
6.942773e+002;6.764521e-002
6.962058e+002;6.713741e-002
6.981344e+002;6.573316e-002
7.000629e+002;6.485464e-002
7.019915e+002;6.473475e-002
7.039200e+002;6.409394e-002
7.058486e+002;6.350125e-002
7.077771e+002;6.329263e-002
7.097057e+002;6.252187e-002
7.116342e+002;6.115675e-002
7.135627e+002;6.029158e-002
7.154913e+002;5.946236e-002
7.174199e+002;5.820493e-002
7.193484e+002;5.768510e-002
7.212770e+002;5.757515e-002
7.232055e+002;5.683206e-002
7.251340e+002;5.612618e-002
7.270626e+002;5.563226e-002
7.289911e+002;5.412259e-002
7.309197e+002;5.321007e-002
7.328483e+002;5.221019e-002
7.347768e+002;5.079197e-002
7.367053e+002;4.977771e-002
7.386339e+002;4.885580e-002
7.405624e+002;4.739648e-002
7.424910e+002;4.608630e-002
7.444196e+002;4.561184e-002
7.463481e+002;4.537573e-002
7.482766e+002;4.468630e-002
7.502052e+002;4.315596e-002
7.521337e+002;4.132247e-002
7.540623e+002;3.975769e-002
7.559908e+002;3.892773e-002
7.579194e+002;3.910604e-002
7.598479e+002;3.829890e-002
7.617765e+002;3.649322e-002
7.637050e+002;3.572268e-002
7.656335e+002;3.514577e-002
7.675621e+002;3.374616e-002
7.694907e+002;3.295306e-002
7.714192e+002;3.279877e-002
7.733478e+002;3.202152e-002
7.752763e+002;3.050262e-002
7.772048e+002;2.988246e-002
7.791334e+002;2.959657e-002
7.810620e+002;2.912478e-002
7.829905e+002;2.865991e-002
7.849191e+002;2.795974e-002
7.868476e+002;2.736305e-002
7.887761e+002;2.703319e-002
7.907047e+002;2.690860e-002
7.926332e+002;2.589062e-002
7.945618e+002;2.538680e-002
7.964903e+002;2.540236e-002
7.984189e+002;2.528437e-002
8.003474e+002;2.457180e-002
8.022759e+002;2.405795e-002
8.042045e+002;2.402920e-002
8.061331e+002;2.376145e-002
8.080616e+002;2.385834e-002
8.099902e+002;2.415073e-002
8.119187e+002;2.419995e-002
8.138472e+002;2.428624e-002
8.157758e+002;2.439407e-002
8.177043e+002;2.463401e-002
8.196329e+002;2.531619e-002
8.215615e+002;2.580109e-002
8.234900e+002;2.582932e-002
8.254185e+002;2.593750e-002
8.273471e+002;2.582894e-002
8.292756e+002;2.605602e-002
8.312042e+002;2.649497e-002
8.331328e+002;2.614117e-002
8.350613e+002;2.574230e-002
8.369898e+002;2.553580e-002
8.389184e+002;2.522193e-002
8.408469e+002;2.459445e-002
8.427755e+002;2.466340e-002
8.447040e+002;2.547382e-002
8.466326e+002;2.586931e-002
8.485611e+002;2.575636e-002
8.504897e+002;2.587803e-002
8.524182e+002;2.579184e-002
8.543467e+002;2.525031e-002
8.562753e+002;2.467725e-002
8.582039e+002;2.394078e-002
8.601324e+002;2.267495e-002
8.620610e+002;2.221194e-002
8.639895e+002;2.198355e-002
8.659180e+002;2.099680e-002
8.678466e+002;2.089996e-002
8.697751e+002;2.171463e-002
8.717037e+002;2.192263e-002
8.736323e+002;2.161296e-002
8.755608e+002;2.152953e-002
8.774893e+002;2.157417e-002
8.794179e+002;2.158483e-002
8.813464e+002;2.179831e-002
8.832750e+002;2.178071e-002
8.852036e+002;2.166214e-002
8.871321e+002;2.190615e-002
8.890606e+002;2.218788e-002
8.909892e+002;2.199070e-002
8.929177e+002;2.211037e-002
8.948463e+002;2.196017e-002
8.967748e+002;2.199098e-002
8.987034e+002;2.222425e-002
9.006319e+002;2.242360e-002
9.025605e+002;2.281807e-002
9.044890e+002;2.329575e-002
9.064175e+002;2.370084e-002
9.083461e+002;2.373381e-002
9.102747e+002;2.406068e-002
9.122032e+002;2.485861e-002
9.141318e+002;2.515708e-002
9.160603e+002;2.534858e-002
9.179888e+002;2.597901e-002
9.199174e+002;2.681304e-002
9.218459e+002;2.759214e-002
9.237745e+002;2.805127e-002
9.257031e+002;2.834480e-002
9.276316e+002;2.892255e-002
9.295601e+002;2.897865e-002
9.314887e+002;2.903696e-002
9.334172e+002;2.956110e-002
9.353458e+002;2.963900e-002
9.372744e+002;3.005680e-002
9.392029e+002;3.098566e-002
9.411314e+002;3.133767e-002
9.430600e+002;3.141624e-002
9.449885e+002;3.146180e-002
9.469171e+002;3.165036e-002
9.488456e+002;3.215573e-002
9.507742e+002;3.274067e-002
9.527027e+002;3.314427e-002
9.546313e+002;3.341782e-002
9.565598e+002;3.365750e-002
9.584883e+002;3.410582e-002
9.604169e+002;3.456164e-002
9.623455e+002;3.475033e-002
9.642740e+002;3.452899e-002
9.662026e+002;3.456411e-002
9.681311e+002;3.481552e-002
9.700596e+002;3.505945e-002
9.719882e+002;3.550034e-002
9.739167e+002;3.564994e-002
9.758453e+002;3.542405e-002
9.777739e+002;3.509738e-002
9.797024e+002;3.500776e-002
9.816309e+002;3.474598e-002
9.835595e+002;3.442686e-002
9.854880e+002;3.467115e-002
9.874166e+002;3.488348e-002
9.893452e+002;3.539734e-002
9.912737e+002;3.622507e-002
9.932022e+002;3.681321e-002
9.951307e+002;3.748895e-002
9.970593e+002;3.820312e-002
9.989879e+002;3.892904e-002
1.000916e+003;3.933411e-002
1.002845e+003;3.965875e-002
1.004773e+003;4.028698e-002
1.006702e+003;4.068889e-002
1.008631e+003;4.090035e-002
1.010559e+003;4.126522e-002
1.012488e+003;4.128967e-002
1.014416e+003;4.144836e-002
1.016345e+003;4.156035e-002
1.018273e+003;4.139499e-002
1.020202e+003;4.134237e-002
1.022130e+003;4.149589e-002
1.024059e+003;4.181836e-002
1.025988e+003;4.239214e-002
1.027916e+003;4.296738e-002
1.029845e+003;4.390256e-002
1.031773e+003;4.507918e-002
1.033702e+003;4.568806e-002
1.035630e+003;4.614850e-002
1.037559e+003;4.683720e-002
1.039487e+003;4.766105e-002
1.041416e+003;4.816175e-002
1.043344e+003;4.864391e-002
1.045273e+003;4.905941e-002
1.047202e+003;4.927151e-002
1.049130e+003;4.938498e-002
1.051059e+003;4.963932e-002
1.052987e+003;5.011319e-002
1.054916e+003;5.083913e-002
1.056844e+003;5.154288e-002
1.058773e+003;5.224479e-002
1.060701e+003;5.246286e-002
1.062630e+003;5.221332e-002
1.064558e+003;5.245351e-002
1.066487e+003;5.266095e-002
1.068416e+003;5.247938e-002
1.070344e+003;5.195624e-002
1.072273e+003;5.129216e-002
1.074201e+003;5.131930e-002
1.076130e+003;5.114188e-002
1.078058e+003;4.986326e-002
1.079987e+003;4.880041e-002
1.081915e+003;4.842293e-002
1.083844e+003;4.795360e-002
1.085773e+003;4.755834e-002
1.087701e+003;4.682960e-002
1.089630e+003;4.541958e-002
1.091558e+003;4.408615e-002
1.093487e+003;4.347076e-002
1.095415e+003;4.362115e-002
1.097344e+003;4.386272e-002
1.099272e+003;4.382673e-002
1.101201e+003;4.355034e-002
1.103129e+003;4.363650e-002
1.105058e+003;4.378861e-002
1.106987e+003;4.336848e-002
1.108915e+003;4.258321e-002
1.110844e+003;4.175200e-002
1.112772e+003;4.140411e-002
1.114701e+003;4.096461e-002
1.116629e+003;4.030098e-002
1.118558e+003;4.007040e-002
1.120486e+003;4.010503e-002
1.122415e+003;3.995094e-002
1.124344e+003;3.990836e-002
1.126272e+003;3.978245e-002
1.128201e+003;3.947078e-002
1.130129e+003;3.957044e-002
1.132058e+003;3.990005e-002
1.133986e+003;4.028745e-002
1.135915e+003;4.095031e-002
1.137843e+003;4.149086e-002
1.139772e+003;4.200227e-002
1.141700e+003;4.283787e-002
1.143629e+003;4.379378e-002
1.145557e+003;4.467389e-002
1.147486e+003;4.548613e-002
1.149415e+003;4.654152e-002
1.151343e+003;4.734793e-002
1.153272e+003;4.818970e-002
1.155200e+003;4.936159e-002
1.157129e+003;5.046732e-002
1.159057e+003;5.140650e-002
1.160986e+003;5.227121e-002
1.162914e+003;5.294446e-002
1.164843e+003;5.333267e-002
1.166771e+003;5.333690e-002
1.168700e+003;5.357809e-002
1.170629e+003;5.426193e-002
1.172557e+003;5.448019e-002
1.174486e+003;5.426152e-002
1.176414e+003;5.369577e-002
1.178343e+003;5.276978e-002
1.180271e+003;5.216400e-002
1.182200e+003;5.166176e-002
1.184128e+003;5.116432e-002
1.186057e+003;5.073890e-002
1.187986e+003;5.077499e-002
1.189914e+003;5.128198e-002
1.191843e+003;5.167557e-002
1.193771e+003;5.230664e-002
1.195700e+003;5.329618e-002
1.197628e+003;5.437458e-002
1.199557e+003;5.537427e-002
1.201485e+003;5.679573e-002
1.203414e+003;5.856564e-002
1.205343e+003;6.021066e-002
1.207271e+003;6.172880e-002
1.209200e+003;6.356737e-002
1.211128e+003;6.533938e-002
1.213057e+003;6.687079e-002
1.214985e+003;6.821983e-002
1.216914e+003;6.962880e-002
1.218842e+003;7.130763e-002
1.220771e+003;7.281102e-002
1.222699e+003;7.405271e-002
1.224628e+003;7.504483e-002
1.226557e+003;7.594182e-002
1.228485e+003;7.643005e-002
1.230414e+003;7.662807e-002
1.232342e+003;7.669970e-002
1.234271e+003;7.653539e-002
1.236199e+003;7.639868e-002
1.238128e+003;7.610291e-002
1.240056e+003;7.564881e-002
1.241985e+003;7.519782e-002
1.243913e+003;7.442136e-002
1.245842e+003;7.382140e-002
1.247771e+003;7.347527e-002
1.249699e+003;7.292752e-002
1.251628e+003;7.243903e-002
1.253556e+003;7.222322e-002
1.255485e+003;7.195820e-002
1.257413e+003;7.164309e-002
1.259342e+003;7.119636e-002
1.261270e+003;7.029937e-002
1.263199e+003;6.929543e-002
1.265127e+003;6.855508e-002
1.267056e+003;6.771487e-002
1.268985e+003;6.657410e-002
1.270913e+003;6.557719e-002
1.272842e+003;6.435566e-002
1.274770e+003;6.311569e-002
1.276699e+003;6.229498e-002
1.278627e+003;6.162679e-002
1.280556e+003;6.072422e-002
1.282484e+003;5.990369e-002
1.284413e+003;5.927064e-002
1.286342e+003;5.868472e-002
1.288270e+003;5.815837e-002
1.290199e+003;5.773343e-002
1.292127e+003;5.697904e-002
1.294056e+003;5.642276e-002
1.295984e+003;5.608165e-002
1.297913e+003;5.562740e-002
1.299841e+003;5.543454e-002
1.301770e+003;5.508811e-002
1.303698e+003;5.480098e-002
1.305627e+003;5.442475e-002
1.307556e+003;5.396259e-002
1.309484e+003;5.366255e-002
1.311413e+003;5.322865e-002
1.313341e+003;5.268912e-002
1.315270e+003;5.250941e-002
1.317198e+003;5.223552e-002
1.319127e+003;5.172655e-002
1.321055e+003;5.167524e-002
1.322984e+003;5.169270e-002
1.324912e+003;5.158795e-002
1.326841e+003;5.188462e-002
1.328770e+003;5.204300e-002
1.330698e+003;5.178475e-002
1.332627e+003;5.170614e-002
1.334555e+003;5.179882e-002
1.336484e+003;5.174011e-002
1.338412e+003;5.173428e-002
1.340341e+003;5.173264e-002
1.342269e+003;5.171349e-002
1.344198e+003;5.157038e-002
1.346126e+003;5.143731e-002
1.348055e+003;5.140139e-002
1.349984e+003;5.130003e-002
1.351912e+003;5.104807e-002
1.353841e+003;5.086896e-002
1.355769e+003;5.091795e-002
1.357698e+003;5.141806e-002
1.359626e+003;5.245519e-002
1.361555e+003;5.342694e-002
1.363483e+003;5.434559e-002
1.365412e+003;5.552218e-002
1.367341e+003;5.671742e-002
1.369269e+003;5.732977e-002
1.371198e+003;5.743841e-002
1.373126e+003;5.773873e-002
1.375055e+003;5.812227e-002
1.376983e+003;5.816072e-002
1.378912e+003;5.804803e-002
1.380840e+003;5.789937e-002
1.382769e+003;5.784664e-002
1.384698e+003;5.785667e-002
1.386626e+003;5.781227e-002
1.388555e+003;5.751557e-002
1.390483e+003;5.735824e-002
1.392412e+003;5.731461e-002
1.394340e+003;5.692600e-002
1.396269e+003;5.658627e-002
1.398197e+003;5.660613e-002
1.400126e+003;5.681719e-002
1.402054e+003;5.719466e-002
1.403983e+003;5.746125e-002
1.405911e+003;5.774497e-002
1.407840e+003;5.844167e-002
1.409769e+003;5.918668e-002
1.411697e+003;5.988219e-002
1.413626e+003;6.027323e-002
1.415554e+003;6.022040e-002
1.417483e+003;6.006061e-002
1.419411e+003;5.993993e-002
1.421340e+003;6.003956e-002
1.423268e+003;6.037134e-002
1.425197e+003;6.066919e-002
1.427125e+003;6.103871e-002
1.429054e+003;6.196387e-002
1.430983e+003;6.311859e-002
1.432911e+003;6.417686e-002
1.434840e+003;6.546734e-002
1.436768e+003;6.696182e-002
1.438697e+003;6.849180e-002
1.440625e+003;6.982997e-002
1.442554e+003;7.086191e-002
1.444482e+003;7.174455e-002
1.446411e+003;7.217322e-002
1.448340e+003;7.204913e-002
1.450268e+003;7.179888e-002
1.452197e+003;7.127398e-002
1.454125e+003;7.074171e-002
1.456054e+003;7.017586e-002
1.457982e+003;6.927814e-002
1.459911e+003;6.841279e-002
1.461839e+003;6.791652e-002
1.463768e+003;6.742426e-002
1.465697e+003;6.695749e-002
1.467625e+003;6.662949e-002
1.469554e+003;6.610701e-002
1.471482e+003;6.550132e-002
1.473411e+003;6.521049e-002
1.475339e+003;6.555310e-002
1.477268e+003;6.623477e-002
1.479196e+003;6.720493e-002
1.481125e+003;6.826344e-002
1.483053e+003;6.985138e-002
1.484982e+003;7.195985e-002
1.486911e+003;7.419246e-002
1.488839e+003;7.647410e-002
1.490768e+003;7.891893e-002
1.492696e+003;8.120728e-002
1.494625e+003;8.346445e-002
1.496553e+003;8.572324e-002
1.498482e+003;8.762493e-002
1.500410e+003;8.929610e-002
1.502339e+003;9.098843e-002
1.504267e+003;9.251720e-002
1.506196e+003;9.350270e-002
1.508125e+003;9.433618e-002
1.510053e+003;9.534312e-002
1.511982e+003;9.637759e-002
1.513910e+003;9.681278e-002
1.515839e+003;9.644303e-002
1.517767e+003;9.563833e-002
1.519696e+003;9.443377e-002
1.521624e+003;9.289858e-002
1.523553e+003;9.176086e-002
1.525481e+003;9.062990e-002
1.527410e+003;8.947150e-002
1.529339e+003;8.858963e-002
1.531267e+003;8.780927e-002
1.533196e+003;8.678766e-002
1.535124e+003;8.586019e-002
1.537053e+003;8.504827e-002
1.538981e+003;8.363812e-002
1.540910e+003;8.235069e-002
1.542838e+003;8.152057e-002
1.544767e+003;8.059485e-002
1.546695e+003;7.933724e-002
1.548624e+003;7.802688e-002
1.550553e+003;7.708170e-002
1.552481e+003;7.601085e-002
1.554410e+003;7.458940e-002
1.556338e+003;7.310420e-002
1.558267e+003;7.154901e-002
1.560195e+003;7.009950e-002
1.562124e+003;6.889009e-002
1.564052e+003;6.758717e-002
1.565981e+003;6.612245e-002
1.567910e+003;6.462958e-002
1.569838e+003;6.310641e-002
1.571767e+003;6.188902e-002
1.573695e+003;6.089356e-002
1.575624e+003;5.983998e-002
1.577552e+003;5.891781e-002
1.579481e+003;5.835517e-002
1.581409e+003;5.771742e-002
1.583338e+003;5.709288e-002
1.585266e+003;5.681133e-002
1.587195e+003;5.686205e-002
1.589124e+003;5.720143e-002
1.591052e+003;5.779981e-002
1.592981e+003;5.868305e-002
1.594909e+003;5.951473e-002
1.596838e+003;6.030715e-002
1.598766e+003;6.143056e-002
1.600695e+003;6.274240e-002
1.602623e+003;6.439747e-002
1.604552e+003;6.645384e-002
1.606480e+003;6.892981e-002
1.608409e+003;7.193223e-002
1.610338e+003;7.513901e-002
1.612266e+003;7.851305e-002
1.614195e+003;8.172961e-002
1.616123e+003;8.463981e-002
1.618052e+003;8.762830e-002
1.619980e+003;9.055503e-002
1.621909e+003;9.327185e-002
1.623837e+003;9.553762e-002
1.625766e+003;9.752998e-002
1.627694e+003;9.890503e-002
1.629623e+003;9.967026e-002
1.631552e+003;1.003877e-001
1.633480e+003;1.006525e-001
1.635409e+003;1.003287e-001
1.637337e+003;9.992284e-002
1.639266e+003;9.946844e-002
1.641194e+003;9.861895e-002
1.643123e+003;9.774248e-002
1.645051e+003;9.661029e-002
1.646980e+003;9.514900e-002
1.648909e+003;9.368659e-002
1.650837e+003;9.207474e-002
1.652766e+003;9.031384e-002
1.654694e+003;8.909538e-002
1.656623e+003;8.792192e-002
1.658551e+003;8.635876e-002
1.660480e+003;8.466811e-002
1.662408e+003;8.299337e-002
1.664337e+003;8.139922e-002
1.666266e+003;7.975532e-002
1.668194e+003;7.794841e-002
1.670123e+003;7.619025e-002
1.672051e+003;7.468607e-002
1.673980e+003;7.315098e-002
1.675908e+003;7.169499e-002
1.677837e+003;7.049322e-002
1.679765e+003;6.906179e-002
1.681694e+003;6.753778e-002
1.683622e+003;6.616342e-002
1.685551e+003;6.483864e-002
1.687479e+003;6.349795e-002
1.689408e+003;6.229456e-002
1.691337e+003;6.136556e-002
1.693265e+003;6.065559e-002
1.695194e+003;5.965459e-002
1.697122e+003;5.848526e-002
1.699051e+003;5.734618e-002
1.700979e+003;5.560507e-002
1.702908e+003;5.330203e-002
1.704836e+003;5.065728e-002
1.706765e+003;4.774229e-002
1.708693e+003;4.466500e-002
1.710622e+003;4.175525e-002
1.712551e+003;3.916884e-002
1.714479e+003;3.662662e-002
1.716408e+003;3.416482e-002
1.718336e+003;3.221382e-002
1.720265e+003;3.066787e-002
1.722193e+003;2.918148e-002
1.724122e+003;2.804859e-002
1.726050e+003;2.750388e-002
1.727979e+003;2.709886e-002
1.729908e+003;2.675510e-002
1.731836e+003;2.654741e-002
1.733765e+003;2.666320e-002
1.735693e+003;2.708553e-002
1.737622e+003;2.729590e-002
1.739550e+003;2.695252e-002
1.741479e+003;2.655851e-002
1.743407e+003;2.576818e-002
1.745336e+003;2.487254e-002
1.747265e+003;2.386975e-002
1.749193e+003;2.268347e-002
1.751122e+003;2.157995e-002
1.753050e+003;2.046183e-002
1.754979e+003;1.912291e-002
1.756907e+003;1.771196e-002
1.758836e+003;1.667356e-002
1.760764e+003;1.573014e-002
1.762693e+003;1.517709e-002
1.764621e+003;1.478867e-002
1.766550e+003;1.423401e-002
1.768479e+003;1.380026e-002
1.770407e+003;1.370956e-002
1.772336e+003;1.345121e-002
1.774264e+003;1.302104e-002
1.776193e+003;1.276682e-002
1.778121e+003;1.258437e-002
1.780050e+003;1.250058e-002
1.781978e+003;1.238103e-002
1.783907e+003;1.210310e-002
1.785835e+003;1.195519e-002
1.787764e+003;1.182282e-002
1.789693e+003;1.154116e-002
1.791621e+003;1.132723e-002
1.793550e+003;1.134743e-002
1.795478e+003;1.128982e-002
1.797407e+003;1.125221e-002
1.799335e+003;1.125299e-002
1.801264e+003;1.102186e-002
1.803192e+003;1.085122e-002
1.805121e+003;1.094975e-002
1.807049e+003;1.094224e-002
1.808978e+003;1.089922e-002
1.810907e+003;1.093799e-002
1.812835e+003;1.082006e-002
1.814764e+003;1.057884e-002
1.816692e+003;1.038567e-002
1.818621e+003;1.026016e-002
1.820549e+003;1.023119e-002
1.822478e+003;1.028197e-002
1.824406e+003;1.016155e-002
1.826335e+003;9.966221e-003
1.828264e+003;9.866456e-003
1.830192e+003;9.866320e-003
1.832121e+003;9.858185e-003
1.834049e+003;9.749566e-003
1.835978e+003;9.771050e-003
1.837906e+003;9.866693e-003
1.839835e+003;9.725981e-003
1.841763e+003;9.657066e-003
1.843692e+003;9.697757e-003
1.845620e+003;9.628778e-003
1.847549e+003;9.474259e-003
1.849478e+003;9.387337e-003
1.851406e+003;9.544907e-003
1.853335e+003;9.675497e-003
1.855263e+003;9.733334e-003
1.857192e+003;9.699417e-003
1.859120e+003;9.599475e-003
1.861049e+003;9.602491e-003
1.862977e+003;9.626238e-003
1.864906e+003;9.453331e-003
1.866834e+003;9.183966e-003
1.868763e+003;9.150801e-003
1.870692e+003;9.163830e-003
1.872620e+003;9.223258e-003
1.874549e+003;9.250132e-003
1.876477e+003;9.178754e-003
1.878406e+003;9.267429e-003
1.880334e+003;9.411242e-003
1.882263e+003;9.304765e-003
1.884191e+003;9.336418e-003
1.886120e+003;9.264382e-003
1.888048e+003;9.008191e-003
1.889977e+003;9.101669e-003
1.891906e+003;9.349959e-003
1.893834e+003;9.321657e-003
1.895763e+003;9.220110e-003
1.897691e+003;9.154863e-003
1.899620e+003;9.194389e-003
1.901548e+003;9.272099e-003
1.903477e+003;9.252874e-003
1.905405e+003;9.244006e-003
1.907334e+003;9.311129e-003
1.909262e+003;9.155945e-003
1.911191e+003;9.052983e-003
1.913120e+003;9.291225e-003
1.915048e+003;9.601575e-003
1.916977e+003;9.701450e-003
1.918905e+003;9.572478e-003
1.920834e+003;9.537862e-003
1.922762e+003;9.545348e-003
1.924691e+003;9.507888e-003
1.926619e+003;9.437755e-003
1.928548e+003;9.346913e-003
1.930477e+003;9.271863e-003
1.932405e+003;9.301143e-003
1.934334e+003;9.529768e-003
1.936262e+003;9.498812e-003
1.938191e+003;9.343188e-003
1.940119e+003;9.422246e-003
1.942048e+003;9.294779e-003
1.943976e+003;9.170564e-003
1.945905e+003;9.270475e-003
1.947833e+003;9.426716e-003
1.949762e+003;9.477409e-003
1.951691e+003;9.410768e-003
1.953619e+003;9.411851e-003
1.955548e+003;9.363874e-003
1.957476e+003;9.466267e-003
1.959405e+003;9.528108e-003
1.961333e+003;9.438262e-003
1.963262e+003;9.367429e-003
1.965190e+003;9.484148e-003
1.967119e+003;9.741027e-003
1.969047e+003;9.789350e-003
1.970976e+003;9.711344e-003
1.972905e+003;9.630065e-003
1.974833e+003;9.712835e-003
1.976762e+003;9.848423e-003
1.978690e+003;9.772914e-003
1.980619e+003;9.556524e-003
1.982547e+003;9.493765e-003
1.984476e+003;9.523096e-003
1.986404e+003;9.541452e-003
1.988333e+003;9.501826e-003
1.990261e+003;9.440633e-003
1.992190e+003;9.543620e-003
1.994119e+003;9.657913e-003
1.996047e+003;9.530851e-003
1.997976e+003;9.435046e-003
1.999904e+003;9.633826e-003
2.001833e+003;9.760207e-003
2.003761e+003;9.630438e-003
2.005690e+003;9.586535e-003
2.007618e+003;9.556491e-003
2.009547e+003;9.463220e-003
2.011476e+003;9.626203e-003
2.013404e+003;9.672176e-003
2.015333e+003;9.602491e-003
2.017261e+003;9.772372e-003
2.019190e+003;9.902318e-003
2.021118e+003;9.981885e-003
2.023047e+003;1.004780e-002
2.024975e+003;9.846796e-003
2.026904e+003;9.847305e-003
2.028833e+003;9.944286e-003
2.030761e+003;9.952490e-003
2.032690e+003;1.002244e-002
2.034618e+003;9.991819e-003
2.036547e+003;9.873913e-003
2.038475e+003;9.622071e-003
2.040404e+003;9.594259e-003
2.042332e+003;9.694640e-003
2.044261e+003;9.648732e-003
2.046189e+003;9.565535e-003
2.048118e+003;9.542333e-003
2.050047e+003;9.723508e-003
2.051975e+003;9.839171e-003
2.053904e+003;9.782606e-003
2.055832e+003;9.794705e-003
2.057761e+003;9.853677e-003
2.059689e+003;9.910386e-003
2.061618e+003;9.963034e-003
2.063546e+003;1.004780e-002
2.065475e+003;1.010487e-002
2.067404e+003;1.023977e-002
2.069332e+003;1.031051e-002
2.071260e+003;1.008242e-002
2.073189e+003;9.933336e-003
2.075118e+003;1.004136e-002
2.077046e+003;1.006058e-002
2.078975e+003;9.966425e-003
2.080903e+003;9.984936e-003
2.082832e+003;1.001667e-002
2.084760e+003;9.982766e-003
2.086689e+003;1.000518e-002
2.088617e+003;1.005204e-002
2.090546e+003;9.974459e-003
2.092475e+003;9.953643e-003
2.094403e+003;9.958220e-003
2.096332e+003;9.746380e-003
2.098260e+003;9.821953e-003
2.100189e+003;1.018407e-002
2.102117e+003;1.008897e-002
2.104046e+003;9.871438e-003
2.105974e+003;9.754208e-003
2.107903e+003;9.562012e-003
2.109832e+003;9.586570e-003
2.111760e+003;9.787215e-003
2.113688e+003;9.915200e-003
2.115617e+003;1.001762e-002
2.117546e+003;1.005299e-002
2.119474e+003;9.860253e-003
2.121403e+003;9.633250e-003
2.123331e+003;9.594563e-003
2.125260e+003;9.669940e-003
2.127188e+003;9.735470e-003
2.129117e+003;9.810260e-003
2.131045e+003;9.882827e-003
2.132974e+003;9.927946e-003
2.134903e+003;9.888183e-003
2.136831e+003;9.903979e-003
2.138760e+003;9.752209e-003
2.140688e+003;9.547074e-003
2.142617e+003;9.621359e-003
2.144545e+003;9.771728e-003
2.146474e+003;9.753124e-003
2.148402e+003;9.482183e-003
2.150331e+003;9.546364e-003
2.152260e+003;9.792231e-003
2.154188e+003;9.641550e-003
2.156117e+003;9.399255e-003
2.158045e+003;9.445577e-003
2.159974e+003;9.673870e-003
2.161902e+003;9.713004e-003
2.163831e+003;9.780132e-003
2.165759e+003;9.788842e-003
2.167688e+003;9.708125e-003
2.169616e+003;9.843780e-003
2.171545e+003;9.745737e-003
2.173474e+003;9.661200e-003
2.175402e+003;9.587518e-003
2.177331e+003;9.546838e-003
2.179259e+003;9.594124e-003
2.181188e+003;9.535254e-003
2.183116e+003;9.503045e-003
2.185045e+003;9.622613e-003
2.186973e+003;9.603913e-003
2.188902e+003;9.433183e-003
2.190831e+003;9.554018e-003
2.192759e+003;9.603574e-003
2.194688e+003;9.707617e-003
2.196616e+003;9.659098e-003
2.198545e+003;9.415813e-003
2.200473e+003;9.325551e-003
2.202402e+003;9.270948e-003
2.204330e+003;9.347759e-003
2.206259e+003;9.426513e-003
2.208188e+003;9.588331e-003
2.210116e+003;9.630268e-003
2.212044e+003;9.454957e-003
2.213973e+003;9.487061e-003
2.215902e+003;9.404131e-003
2.217830e+003;9.354056e-003
2.219759e+003;9.617464e-003
2.221687e+003;9.702771e-003
2.223616e+003;9.566924e-003
2.225544e+003;9.783385e-003
2.227473e+003;9.777218e-003
2.229401e+003;9.659404e-003
2.231330e+003;9.727642e-003
2.233259e+003;9.589585e-003
2.235187e+003;9.475715e-003
2.237116e+003;9.533797e-003
2.239044e+003;9.495899e-003
2.240973e+003;9.381142e-003
2.242901e+003;9.354631e-003
2.244830e+003;9.284928e-003
2.246758e+003;9.388048e-003
2.248687e+003;9.537998e-003
2.250615e+003;9.538980e-003
2.252544e+003;9.507854e-003
2.254473e+003;9.509785e-003
2.256401e+003;9.512528e-003
2.258330e+003;9.606962e-003
2.260258e+003;9.646767e-003
2.262187e+003;9.538980e-003
2.264115e+003;9.426648e-003
2.266044e+003;9.474902e-003
2.267972e+003;9.570818e-003
2.269901e+003;9.545246e-003
2.271830e+003;9.461695e-003
2.273758e+003;9.471754e-003
2.275687e+003;9.488516e-003
2.277615e+003;9.444188e-003
2.279544e+003;9.461154e-003
2.281472e+003;9.484182e-003
2.283401e+003;9.643989e-003
2.285329e+003;9.768847e-003
2.287258e+003;9.659539e-003
2.289187e+003;9.320100e-003
2.291115e+003;9.402134e-003
2.293043e+003;9.708599e-003
2.294972e+003;9.647207e-003
2.296901e+003;9.462914e-003
2.298829e+003;9.545923e-003
2.300758e+003;9.647851e-003
2.302686e+003;9.543823e-003
2.304615e+003;9.495392e-003
2.306543e+003;9.384628e-003
2.308472e+003;9.301617e-003
2.310400e+003;9.412731e-003
2.312329e+003;9.549141e-003
2.314258e+003;9.561606e-003
2.316186e+003;9.420790e-003
2.318115e+003;9.312009e-003
2.320043e+003;9.451401e-003
2.321972e+003;9.456616e-003
2.323900e+003;9.335977e-003
2.325829e+003;9.340513e-003
2.327757e+003;9.191817e-003
2.329686e+003;9.047670e-003
2.331615e+003;9.194355e-003
2.333543e+003;9.394921e-003
2.335472e+003;9.414966e-003
2.337400e+003;9.254430e-003
2.339329e+003;9.180345e-003
2.341257e+003;9.258966e-003
2.343186e+003;9.463592e-003
2.345114e+003;9.664079e-003
2.347043e+003;9.738620e-003
2.348971e+003;9.744043e-003
2.350900e+003;9.700129e-003
2.352829e+003;9.790638e-003
2.354757e+003;9.788435e-003
2.356686e+003;9.784436e-003
2.358614e+003;9.904929e-003
2.360543e+003;9.763866e-003
2.362471e+003;9.607030e-003
2.364400e+003;9.778540e-003
2.366328e+003;1.000338e-002
2.368257e+003;1.004210e-002
2.370186e+003;9.838052e-003
2.372114e+003;9.401828e-003
2.374042e+003;9.433183e-003
2.375971e+003;9.751904e-003
2.377900e+003;9.904725e-003
2.379828e+003;9.828867e-003
2.381757e+003;9.683188e-003
2.383685e+003;9.730794e-003
2.385614e+003;9.850559e-003
2.387542e+003;9.932692e-003
2.389471e+003;1.003268e-002
2.391399e+003;1.010776e-002
2.393328e+003;1.014723e-002
2.395257e+003;1.018539e-002
2.397185e+003;1.014242e-002
2.399114e+003;1.015012e-002
2.401042e+003;1.006242e-002
2.402971e+003;1.001281e-002
2.404899e+003;1.026430e-002
2.406828e+003;1.063215e-002
2.408756e+003;1.066590e-002
2.410685e+003;1.046685e-002
2.412614e+003;1.050049e-002
2.414542e+003;1.057765e-002
2.416471e+003;1.066172e-002
2.418399e+003;1.085560e-002
2.420328e+003;1.084017e-002
2.422256e+003;1.058777e-002
2.424185e+003;1.055661e-002
2.426113e+003;1.075458e-002
2.428042e+003;1.109578e-002
2.429970e+003;1.102563e-002
2.431899e+003;1.079714e-002
2.433828e+003;1.071256e-002
2.435756e+003;1.079720e-002
2.437685e+003;1.099807e-002
2.439613e+003;1.119893e-002
2.441542e+003;1.127706e-002
2.443470e+003;1.130117e-002
2.445399e+003;1.116965e-002
2.447327e+003;1.111788e-002
2.449256e+003;1.138505e-002
2.451185e+003;1.148502e-002
2.453113e+003;1.138117e-002
2.455042e+003;1.141695e-002
2.456970e+003;1.148326e-002
2.458899e+003;1.133573e-002
2.460827e+003;1.118709e-002
2.462756e+003;1.143352e-002
2.464684e+003;1.150071e-002
2.466613e+003;1.138868e-002
2.468542e+003;1.156580e-002
2.470470e+003;1.163339e-002
2.472398e+003;1.143359e-002
2.474327e+003;1.143029e-002
2.476256e+003;1.174139e-002
2.478184e+003;1.194031e-002
2.480113e+003;1.182228e-002
2.482041e+003;1.173931e-002
2.483970e+003;1.175521e-002
2.485898e+003;1.180464e-002
2.487827e+003;1.186178e-002
2.489755e+003;1.202110e-002
2.491684e+003;1.195727e-002
2.493613e+003;1.182963e-002
2.495541e+003;1.198813e-002
2.497470e+003;1.197770e-002
2.499398e+003;1.167729e-002
2.501327e+003;1.148271e-002
2.503255e+003;1.154300e-002
2.505184e+003;1.163866e-002
2.507112e+003;1.168563e-002
2.509041e+003;1.203544e-002
2.510969e+003;1.217734e-002
2.512898e+003;1.196990e-002
2.514827e+003;1.199044e-002
2.516755e+003;1.209921e-002
2.518684e+003;1.217929e-002
2.520612e+003;1.235638e-002
2.522541e+003;1.251568e-002
2.524469e+003;1.242249e-002
2.526398e+003;1.227877e-002
2.528326e+003;1.229411e-002
2.530255e+003;1.247602e-002
2.532184e+003;1.257151e-002
2.534112e+003;1.249597e-002
2.536041e+003;1.238652e-002
2.537969e+003;1.238451e-002
2.539898e+003;1.256114e-002
2.541826e+003;1.252111e-002
2.543755e+003;1.257301e-002
2.545683e+003;1.268070e-002
2.547612e+003;1.262445e-002
2.549541e+003;1.266726e-002
2.551469e+003;1.297099e-002
2.553397e+003;1.313017e-002
2.555326e+003;1.307693e-002
2.557255e+003;1.281149e-002
2.559183e+003;1.281630e-002
2.561112e+003;1.304566e-002
2.563040e+003;1.292252e-002
2.564969e+003;1.277293e-002
2.566897e+003;1.303152e-002
2.568826e+003;1.324466e-002
2.570754e+003;1.323838e-002
2.572683e+003;1.318960e-002
2.574612e+003;1.331097e-002
2.576540e+003;1.361549e-002
2.578469e+003;1.363067e-002
2.580397e+003;1.326779e-002
2.582326e+003;1.317406e-002
2.584254e+003;1.342366e-002
2.586183e+003;1.357994e-002
2.588111e+003;1.371342e-002
2.590040e+003;1.381982e-002
2.591969e+003;1.389320e-002
2.593897e+003;1.380128e-002
2.595826e+003;1.366907e-002
2.597754e+003;1.352186e-002
2.599683e+003;1.356438e-002
2.601611e+003;1.393165e-002
2.603540e+003;1.421987e-002
2.605468e+003;1.418186e-002
2.607397e+003;1.410926e-002
2.609325e+003;1.421048e-002
2.611254e+003;1.438797e-002
2.613183e+003;1.442290e-002
2.615111e+003;1.461435e-002
2.617040e+003;1.477606e-002
2.618968e+003;1.462357e-002
2.620897e+003;1.455798e-002
2.622825e+003;1.472166e-002
2.624754e+003;1.482793e-002
2.626682e+003;1.467066e-002
2.628611e+003;1.445993e-002
2.630540e+003;1.443842e-002
2.632468e+003;1.458714e-002
2.634396e+003;1.468378e-002
2.636325e+003;1.469191e-002
2.638254e+003;1.464718e-002
2.640182e+003;1.453845e-002
2.642111e+003;1.444277e-002
2.644039e+003;1.447295e-002
2.645968e+003;1.467055e-002
2.647896e+003;1.492301e-002
2.649825e+003;1.494314e-002
2.651753e+003;1.486650e-002
2.653682e+003;1.489232e-002
2.655611e+003;1.489818e-002
2.657539e+003;1.483142e-002
2.659468e+003;1.501393e-002
2.661396e+003;1.514353e-002
2.663325e+003;1.521820e-002
2.665253e+003;1.541724e-002
2.667182e+003;1.526703e-002
2.669110e+003;1.513025e-002
2.671039e+003;1.544227e-002
2.672968e+003;1.559202e-002
2.674896e+003;1.551939e-002
2.676825e+003;1.553693e-002
2.678753e+003;1.557718e-002
2.680682e+003;1.549892e-002
2.682610e+003;1.539444e-002
2.684539e+003;1.548477e-002
2.686467e+003;1.580553e-002
2.688396e+003;1.606693e-002
2.690324e+003;1.596950e-002
2.692253e+003;1.576096e-002
2.694182e+003;1.568981e-002
2.696110e+003;1.571204e-002
2.698039e+003;1.579982e-002
2.699967e+003;1.600439e-002
2.701896e+003;1.624662e-002
2.703824e+003;1.636830e-002
2.705753e+003;1.627073e-002
2.707681e+003;1.624094e-002
2.709610e+003;1.617209e-002
2.711539e+003;1.628294e-002
2.713467e+003;1.664064e-002
2.715396e+003;1.661389e-002
2.717324e+003;1.629743e-002
2.719253e+003;1.623547e-002
2.721181e+003;1.654191e-002
2.723110e+003;1.674917e-002
2.725038e+003;1.692921e-002
2.726967e+003;1.707624e-002
2.728896e+003;1.698610e-002
2.730824e+003;1.714710e-002
2.732752e+003;1.738358e-002
2.734681e+003;1.768048e-002
2.736610e+003;1.780357e-002
2.738538e+003;1.761768e-002
2.740467e+003;1.771400e-002
2.742395e+003;1.808469e-002
2.744324e+003;1.825174e-002
2.746252e+003;1.838684e-002
2.748181e+003;1.849913e-002
2.750109e+003;1.822330e-002
2.752038e+003;1.805156e-002
2.753967e+003;1.829611e-002
2.755895e+003;1.826311e-002
2.757824e+003;1.837515e-002
2.759752e+003;1.877831e-002
2.761681e+003;1.892898e-002
2.763609e+003;1.896622e-002
2.765538e+003;1.911359e-002
2.767466e+003;1.896148e-002
2.769395e+003;1.883734e-002
2.771323e+003;1.900731e-002
2.773252e+003;1.913316e-002
2.775181e+003;1.924238e-002
2.777109e+003;1.932468e-002
2.779038e+003;1.958364e-002
2.780966e+003;1.986377e-002
2.782895e+003;2.002033e-002
2.784823e+003;2.004618e-002
2.786752e+003;2.020159e-002
2.788680e+003;2.031039e-002
2.790609e+003;2.021988e-002
2.792538e+003;2.037594e-002
2.794466e+003;2.071128e-002
2.796395e+003;2.089036e-002
2.798323e+003;2.104740e-002
2.800252e+003;2.111307e-002
2.802180e+003;2.103060e-002
2.804109e+003;2.099116e-002
2.806037e+003;2.110239e-002
2.807966e+003;2.129343e-002
2.809895e+003;2.146697e-002
2.811823e+003;2.172132e-002
2.813751e+003;2.203315e-002
2.815680e+003;2.213924e-002
2.817609e+003;2.221651e-002
2.819537e+003;2.243969e-002
2.821466e+003;2.277477e-002
2.823394e+003;2.299844e-002
2.825323e+003;2.309607e-002
2.827251e+003;2.324016e-002
2.829180e+003;2.322101e-002
2.831108e+003;2.323394e-002
2.833037e+003;2.360431e-002
2.834966e+003;2.419035e-002
2.836894e+003;2.473919e-002
2.838823e+003;2.506482e-002
2.840751e+003;2.555123e-002
2.842680e+003;2.685861e-002
2.844608e+003;2.813968e-002
2.846537e+003;2.938263e-002
2.848465e+003;3.108645e-002
2.850394e+003;3.266879e-002
2.852323e+003;3.365979e-002
2.854251e+003;3.407930e-002
2.856180e+003;3.392468e-002
2.858108e+003;3.342917e-002
2.860037e+003;3.276147e-002
2.861965e+003;3.232221e-002
2.863894e+003;3.196752e-002
2.865822e+003;3.191416e-002
2.867751e+003;3.218388e-002
2.869679e+003;3.239685e-002
2.871608e+003;3.262764e-002
2.873536e+003;3.263379e-002
2.875465e+003;3.230643e-002
2.877394e+003;3.213796e-002
2.879322e+003;3.194198e-002
2.881251e+003;3.194701e-002
2.883179e+003;3.227056e-002
2.885108e+003;3.271331e-002
2.887036e+003;3.294083e-002
2.888965e+003;3.311352e-002
2.890893e+003;3.333038e-002
2.892822e+003;3.368421e-002
2.894750e+003;3.427262e-002
2.896679e+003;3.473956e-002
2.898608e+003;3.513830e-002
2.900536e+003;3.583572e-002
2.902465e+003;3.630723e-002
2.904393e+003;3.722127e-002
2.906322e+003;3.814096e-002
2.908250e+003;3.859198e-002
2.910179e+003;3.936662e-002
2.912107e+003;4.067120e-002
2.914036e+003;4.199577e-002
2.915965e+003;4.328029e-002
2.917893e+003;4.467345e-002
2.919822e+003;4.589947e-002
2.921750e+003;4.721935e-002
2.923679e+003;4.805755e-002
2.925607e+003;4.857194e-002
2.927536e+003;4.883822e-002
2.929464e+003;4.889321e-002
2.931393e+003;4.881869e-002
2.933322e+003;4.854400e-002
2.935250e+003;4.806743e-002
2.937178e+003;4.747557e-002
2.939107e+003;4.638141e-002
2.941036e+003;4.533182e-002
2.942964e+003;4.484057e-002
2.944893e+003;4.436900e-002
2.946821e+003;4.359130e-002
2.948750e+003;4.308471e-002
2.950678e+003;4.286201e-002
2.952607e+003;4.269250e-002
2.954535e+003;4.214577e-002
2.956464e+003;4.182879e-002
2.958393e+003;4.173278e-002
2.960321e+003;4.141708e-002
2.962250e+003;4.107186e-002
2.964178e+003;4.078675e-002
2.966107e+003;4.050051e-002
2.968035e+003;4.013915e-002
2.969964e+003;3.954685e-002
2.971892e+003;3.926853e-002
2.973821e+003;3.909226e-002
2.975750e+003;3.844715e-002
2.977678e+003;3.790003e-002
2.979607e+003;3.766371e-002
2.981535e+003;3.746179e-002
2.983464e+003;3.711836e-002
2.985392e+003;3.693232e-002
2.987321e+003;3.666710e-002
2.989249e+003;3.604801e-002
2.991178e+003;3.559722e-002
2.993106e+003;3.533720e-002
2.995035e+003;3.506394e-002
2.996964e+003;3.478267e-002
2.998892e+003;3.459680e-002
3.000821e+003;3.397255e-002
3.002749e+003;3.341053e-002
3.004678e+003;3.328094e-002
3.006606e+003;3.330333e-002
3.008535e+003;3.329729e-002
3.010463e+003;3.339342e-002
3.012392e+003;3.326144e-002
3.014321e+003;3.332837e-002
3.016249e+003;3.358998e-002
3.018177e+003;3.351174e-002
3.020106e+003;3.364816e-002
3.022035e+003;3.381930e-002
3.023963e+003;3.377045e-002
3.025892e+003;3.396857e-002
3.027820e+003;3.414862e-002
3.029749e+003;3.445656e-002
3.031677e+003;3.485781e-002
3.033606e+003;3.485716e-002
3.035534e+003;3.473026e-002
3.037463e+003;3.490161e-002
3.039392e+003;3.535927e-002
3.041320e+003;3.576311e-002
3.043249e+003;3.592775e-002
3.045177e+003;3.618484e-002
3.047106e+003;3.660243e-002
3.049034e+003;3.666599e-002
3.050963e+003;3.681498e-002
3.052891e+003;3.724141e-002
3.054820e+003;3.756481e-002
3.056749e+003;3.790227e-002
3.058677e+003;3.810678e-002
3.060606e+003;3.820402e-002
3.062534e+003;3.842047e-002
3.064463e+003;3.840987e-002
3.066391e+003;3.870581e-002
3.068320e+003;3.903890e-002
3.070248e+003;3.908965e-002
3.072177e+003;3.914904e-002
3.074105e+003;3.912246e-002
3.076034e+003;3.912761e-002
3.077963e+003;3.922294e-002
3.079891e+003;3.907294e-002
3.081820e+003;3.877961e-002
3.083748e+003;3.887587e-002
3.085677e+003;3.925007e-002
3.087605e+003;3.912409e-002
3.089534e+003;3.856507e-002
3.091462e+003;3.847430e-002
3.093391e+003;3.870186e-002
3.095320e+003;3.862780e-002
3.097248e+003;3.840433e-002
3.099177e+003;3.823054e-002
3.101105e+003;3.802869e-002
3.103034e+003;3.806825e-002
3.104962e+003;3.784316e-002
3.106891e+003;3.760716e-002
3.108819e+003;3.778752e-002
3.110748e+003;3.763534e-002
3.112677e+003;3.716874e-002
3.114605e+003;3.702991e-002
3.116533e+003;3.724051e-002
3.118462e+003;3.735615e-002
3.120391e+003;3.726419e-002
3.122319e+003;3.710313e-002
3.124248e+003;3.703669e-002
3.126176e+003;3.685253e-002
3.128105e+003;3.693477e-002
3.130033e+003;3.704431e-002
3.131962e+003;3.709122e-002
3.133890e+003;3.728553e-002
3.135819e+003;3.741834e-002
3.137748e+003;3.748538e-002
3.139676e+003;3.783600e-002
3.141605e+003;3.793300e-002
3.143533e+003;3.762110e-002
3.145462e+003;3.745764e-002
3.147390e+003;3.773298e-002
3.149319e+003;3.825167e-002
3.151247e+003;3.847289e-002
3.153176e+003;3.887091e-002
3.155104e+003;3.922117e-002
3.157033e+003;3.915093e-002
3.158962e+003;3.938748e-002
3.160890e+003;3.998065e-002
3.162819e+003;4.005503e-002
3.164747e+003;4.022398e-002
3.166676e+003;4.069092e-002
3.168604e+003;4.102648e-002
3.170533e+003;4.139215e-002
3.172461e+003;4.181960e-002
3.174390e+003;4.209068e-002
3.176319e+003;4.237570e-002
3.178247e+003;4.264615e-002
3.180176e+003;4.342388e-002
3.182104e+003;4.384784e-002
3.184033e+003;4.414117e-002
3.185961e+003;4.460011e-002
3.187890e+003;4.505150e-002
3.189818e+003;4.562976e-002
3.191747e+003;4.612790e-002
3.193676e+003;4.629751e-002
3.195604e+003;4.645139e-002
3.197532e+003;4.711331e-002
3.199461e+003;4.770413e-002
3.201390e+003;4.804826e-002
3.203318e+003;4.846412e-002
3.205247e+003;4.883800e-002
3.207175e+003;4.909354e-002
3.209104e+003;4.945166e-002
3.211032e+003;5.001057e-002
3.212961e+003;5.060054e-002
3.214889e+003;5.107930e-002
3.216818e+003;5.152269e-002
3.218747e+003;5.174626e-002
3.220675e+003;5.203284e-002
3.222604e+003;5.221553e-002
3.224532e+003;5.252104e-002
3.226461e+003;5.310510e-002
3.228389e+003;5.345759e-002
3.230318e+003;5.375111e-002
3.232246e+003;5.430320e-002
3.234175e+003;5.455108e-002
3.236104e+003;5.480437e-002
3.238032e+003;5.524154e-002
3.239961e+003;5.573053e-002
3.241889e+003;5.619058e-002
3.243818e+003;5.704058e-002
3.245746e+003;5.783362e-002
3.247675e+003;5.795995e-002
3.249603e+003;5.786140e-002
3.251532e+003;5.817651e-002
3.253460e+003;5.878364e-002
3.255389e+003;5.920722e-002
3.257318e+003;5.994016e-002
3.259246e+003;6.071263e-002
3.261175e+003;6.105297e-002
3.263103e+003;6.108840e-002
3.265032e+003;6.120474e-002
3.266960e+003;6.214991e-002
3.268889e+003;6.347164e-002
3.270817e+003;6.392373e-002
3.272746e+003;6.420498e-002
3.274675e+003;6.484561e-002
3.276603e+003;6.521877e-002
3.278531e+003;6.525947e-002
3.280460e+003;6.523918e-002
3.282389e+003;6.547088e-002
3.284317e+003;6.543752e-002
3.286246e+003;6.520764e-002
3.288174e+003;6.549319e-002
3.290103e+003;6.591280e-002
3.292031e+003;6.543143e-002
3.293960e+003;6.478898e-002
3.295888e+003;6.500348e-002
3.297817e+003;6.536561e-002
3.299746e+003;6.525411e-002
3.301674e+003;6.502172e-002
3.303603e+003;6.471179e-002
3.305531e+003;6.436642e-002
3.307460e+003;6.390101e-002
3.309388e+003;6.349918e-002
3.311317e+003;6.324326e-002
3.313245e+003;6.291050e-002
3.315174e+003;6.247205e-002
3.317103e+003;6.232110e-002
3.319031e+003;6.200889e-002
3.320960e+003;6.155997e-002
3.322888e+003;6.090042e-002
3.324817e+003;6.030635e-002
3.326745e+003;6.021313e-002
3.328674e+003;6.004166e-002
3.330602e+003;5.953323e-002
3.332531e+003;5.905323e-002
3.334459e+003;5.844314e-002
3.336388e+003;5.787598e-002
3.338317e+003;5.755873e-002
3.340245e+003;5.699831e-002
3.342174e+003;5.651487e-002
3.344102e+003;5.627095e-002
3.346031e+003;5.582947e-002
3.347959e+003;5.525783e-002
3.349888e+003;5.477298e-002
3.351816e+003;5.422980e-002
3.353745e+003;5.355297e-002
3.355674e+003;5.335242e-002
3.357602e+003;5.339520e-002
3.359531e+003;5.340656e-002
3.361459e+003;5.330472e-002
3.363388e+003;5.278665e-002
3.365316e+003;5.217256e-002
3.367245e+003;5.162967e-002
3.369173e+003;5.093423e-002
3.371102e+003;5.068122e-002
3.373031e+003;5.078765e-002
3.374959e+003;5.032127e-002
3.376887e+003;4.972187e-002
3.378816e+003;4.923451e-002
3.380745e+003;4.905440e-002
3.382673e+003;4.898222e-002
3.384602e+003;4.856749e-002
3.386530e+003;4.805914e-002
3.388459e+003;4.780462e-002
3.390387e+003;4.764866e-002
3.392316e+003;4.717263e-002
3.394244e+003;4.654156e-002
3.396173e+003;4.665554e-002
3.398102e+003;4.669443e-002
3.400030e+003;4.610399e-002
3.401959e+003;4.582115e-002
3.403887e+003;4.571648e-002
3.405816e+003;4.527051e-002
3.407744e+003;4.471660e-002
3.409673e+003;4.432981e-002
3.411601e+003;4.396830e-002
3.413530e+003;4.366442e-002
3.415458e+003;4.327355e-002
3.417387e+003;4.302591e-002
3.419316e+003;4.233384e-002
3.421244e+003;4.170608e-002
3.423173e+003;4.129740e-002
3.425101e+003;4.086097e-002
3.427030e+003;4.060807e-002
3.428958e+003;4.039195e-002
3.430887e+003;3.992195e-002
3.432815e+003;3.962129e-002
3.434744e+003;3.939281e-002
3.436673e+003;3.909621e-002
3.438601e+003;3.885116e-002
3.440530e+003;3.848748e-002
3.442458e+003;3.805415e-002
3.444387e+003;3.797010e-002
3.446315e+003;3.772496e-002
3.448244e+003;3.711125e-002
3.450172e+003;3.650129e-002
3.452101e+003;3.642154e-002
3.454030e+003;3.640980e-002
3.455958e+003;3.597947e-002
3.457886e+003;3.552691e-002
3.459815e+003;3.534148e-002
3.461744e+003;3.519927e-002
3.463672e+003;3.475489e-002
3.465601e+003;3.442098e-002
3.467529e+003;3.476580e-002
3.469458e+003;3.506692e-002
3.471386e+003;3.459368e-002
3.473315e+003;3.408177e-002
3.475243e+003;3.402999e-002
3.477172e+003;3.374323e-002
3.479101e+003;3.329260e-002
3.481029e+003;3.320872e-002
3.482958e+003;3.316101e-002
3.484886e+003;3.275693e-002
3.486815e+003;3.251757e-002
3.488743e+003;3.248740e-002
3.490672e+003;3.196702e-002
3.492600e+003;3.141378e-002
3.494529e+003;3.135597e-002
3.496458e+003;3.162584e-002
3.498386e+003;3.163278e-002
3.500315e+003;3.152436e-002
3.502243e+003;3.135779e-002
3.504172e+003;3.100534e-002
3.506100e+003;3.075436e-002
3.508029e+003;3.090205e-002
3.509957e+003;3.110642e-002
3.511886e+003;3.096257e-002
3.513814e+003;3.075076e-002
3.515743e+003;3.023839e-002
3.517672e+003;2.983120e-002
3.519600e+003;2.986372e-002
3.521529e+003;2.973837e-002
3.523457e+003;2.945088e-002
3.525386e+003;2.912492e-002
3.527314e+003;2.904064e-002
3.529243e+003;2.885661e-002
3.531171e+003;2.854256e-002
3.533100e+003;2.826237e-002
3.535029e+003;2.799229e-002
3.536957e+003;2.775222e-002
3.538885e+003;2.736672e-002
3.540814e+003;2.710845e-002
3.542743e+003;2.707752e-002
3.544671e+003;2.693299e-002
3.546600e+003;2.641471e-002
3.548528e+003;2.616545e-002
3.550457e+003;2.615940e-002
3.552385e+003;2.590895e-002
3.554314e+003;2.595210e-002
3.556242e+003;2.581051e-002
3.558171e+003;2.532578e-002
3.560100e+003;2.495587e-002
3.562028e+003;2.465947e-002
3.563957e+003;2.436418e-002
3.565885e+003;2.410470e-002
3.567814e+003;2.403487e-002
3.569742e+003;2.413458e-002
3.571671e+003;2.409983e-002
3.573599e+003;2.360560e-002
3.575528e+003;2.312766e-002
3.577457e+003;2.296058e-002
3.579385e+003;2.261896e-002
3.581314e+003;2.244841e-002
3.583242e+003;2.245602e-002
3.585171e+003;2.219890e-002
3.587099e+003;2.210818e-002
3.589028e+003;2.230381e-002
3.590956e+003;2.205372e-002
3.592885e+003;2.137257e-002
3.594813e+003;2.094512e-002
3.596742e+003;2.092819e-002
3.598671e+003;2.077203e-002
3.600599e+003;2.072445e-002
3.602528e+003;2.068942e-002
3.604456e+003;2.017878e-002
3.606385e+003;1.968982e-002
3.608313e+003;1.966611e-002
3.610242e+003;1.956932e-002
3.612170e+003;1.908271e-002
3.614099e+003;1.869930e-002
3.616028e+003;1.853412e-002
3.617956e+003;1.838169e-002
3.619885e+003;1.843620e-002
3.621813e+003;1.808890e-002
3.623742e+003;1.818190e-002
3.625670e+003;1.816546e-002
3.627599e+003;1.747281e-002
3.629527e+003;1.701232e-002
3.631456e+003;1.694906e-002
3.633385e+003;1.692002e-002
3.635313e+003;1.670878e-002
3.637241e+003;1.616620e-002
3.639170e+003;1.603860e-002
3.641099e+003;1.619496e-002
3.643027e+003;1.590416e-002
3.644956e+003;1.570122e-002
3.646884e+003;1.583058e-002
3.648813e+003;1.565711e-002
3.650741e+003;1.513804e-002
3.652670e+003;1.507385e-002
3.654598e+003;1.514432e-002
3.656527e+003;1.470942e-002
3.658456e+003;1.407363e-002
3.660384e+003;1.399044e-002
3.662313e+003;1.385396e-002
3.664241e+003;1.383795e-002
3.666170e+003;1.418553e-002
3.668098e+003;1.401484e-002
3.670027e+003;1.317461e-002
3.671955e+003;1.290303e-002
3.673884e+003;1.291842e-002
3.675813e+003;1.273031e-002
3.677741e+003;1.267862e-002
3.679669e+003;1.270851e-002
3.681598e+003;1.265471e-002
3.683527e+003;1.269950e-002
3.685455e+003;1.290023e-002
3.687384e+003;1.280002e-002
3.689312e+003;1.257718e-002
3.691241e+003;1.246624e-002
3.693169e+003;1.216808e-002
3.695098e+003;1.219558e-002
3.697026e+003;1.241588e-002
3.698955e+003;1.252891e-002
3.700884e+003;1.247289e-002
3.702812e+003;1.203077e-002
3.704741e+003;1.166548e-002
3.706669e+003;1.140413e-002
3.708598e+003;1.131964e-002
3.710526e+003;1.175868e-002
3.712455e+003;1.215220e-002
3.714383e+003;1.215383e-002
3.716312e+003;1.207871e-002
3.718240e+003;1.175589e-002
3.720169e+003;1.165884e-002
3.722098e+003;1.183501e-002
3.724026e+003;1.166473e-002
3.725955e+003;1.136039e-002
3.727883e+003;1.117166e-002
3.729812e+003;1.099787e-002
3.731740e+003;1.081677e-002
3.733669e+003;1.114280e-002
3.735597e+003;1.172236e-002
3.737526e+003;1.158625e-002
3.739455e+003;1.124772e-002
3.741383e+003;1.113535e-002
3.743312e+003;1.087826e-002
3.745240e+003;1.091808e-002
3.747169e+003;1.138403e-002
3.749097e+003;1.141869e-002
3.751026e+003;1.110081e-002
3.752954e+003;1.107100e-002
3.754883e+003;1.126914e-002
3.756812e+003;1.145628e-002
3.758740e+003;1.122823e-002
3.760668e+003;1.116850e-002
3.762597e+003;1.120080e-002
3.764526e+003;1.089131e-002
3.766454e+003;1.114773e-002
3.768383e+003;1.142369e-002
3.770311e+003;1.155804e-002
3.772240e+003;1.171436e-002
3.774168e+003;1.143672e-002
3.776097e+003;1.127152e-002
3.778025e+003;1.121790e-002
3.779954e+003;1.108314e-002
3.781883e+003;1.097754e-002
3.783811e+003;1.118706e-002
3.785740e+003;1.151214e-002
3.787668e+003;1.153480e-002
3.789597e+003;1.126013e-002
3.791525e+003;1.119916e-002
3.793454e+003;1.098271e-002
3.795382e+003;1.076741e-002
3.797311e+003;1.126669e-002
3.799240e+003;1.138188e-002
3.801168e+003;1.098577e-002
3.803097e+003;1.113800e-002
3.805025e+003;1.144546e-002
3.806954e+003;1.142590e-002
3.808882e+003;1.132906e-002
3.810811e+003;1.103012e-002
3.812739e+003;1.093333e-002
3.814668e+003;1.082091e-002
3.816596e+003;1.107733e-002
3.818525e+003;1.140175e-002
3.820454e+003;1.154726e-002
3.822382e+003;1.159003e-002
3.824311e+003;1.150102e-002
3.826239e+003;1.184785e-002
3.828168e+003;1.195614e-002
3.830096e+003;1.163454e-002
3.832025e+003;1.143723e-002
3.833953e+003;1.139817e-002
3.835882e+003;1.124802e-002
3.837811e+003;1.111411e-002
3.839739e+003;1.135501e-002
3.841667e+003;1.164230e-002
3.843596e+003;1.161858e-002
3.845525e+003;1.130328e-002
3.847453e+003;1.115439e-002
3.849382e+003;1.100592e-002
3.851310e+003;1.068146e-002
3.853239e+003;1.065616e-002
3.855167e+003;1.100789e-002
3.857096e+003;1.120396e-002
3.859024e+003;1.138828e-002
3.860953e+003;1.149499e-002
3.862882e+003;1.179780e-002
3.864810e+003;1.195226e-002
3.866739e+003;1.171800e-002
3.868667e+003;1.190560e-002
3.870596e+003;1.200710e-002
3.872524e+003;1.184148e-002
3.874453e+003;1.157982e-002
3.876381e+003;1.171198e-002
3.878310e+003;1.154954e-002
3.880239e+003;1.139947e-002
3.882167e+003;1.166569e-002
3.884096e+003;1.188756e-002
3.886024e+003;1.186767e-002
3.887953e+003;1.181448e-002
3.889881e+003;1.178786e-002
3.891810e+003;1.182398e-002
3.893738e+003;1.159343e-002
3.895667e+003;1.141481e-002
3.897595e+003;1.137375e-002
3.899524e+003;1.155746e-002
3.901453e+003;1.196575e-002
3.903381e+003;1.179354e-002
3.905310e+003;1.200696e-002
3.907238e+003;1.230123e-002
3.909167e+003;1.220089e-002
3.911095e+003;1.206961e-002
3.913024e+003;1.170173e-002
3.914952e+003;1.128907e-002
3.916881e+003;1.119648e-002
3.918810e+003;1.175841e-002
3.920738e+003;1.193350e-002
3.922667e+003;1.180270e-002
3.924595e+003;1.150823e-002
3.926524e+003;1.121066e-002
3.928452e+003;1.157414e-002
3.930381e+003;1.199228e-002
3.932309e+003;1.212109e-002
3.934238e+003;1.228872e-002
3.936167e+003;1.228797e-002
3.938095e+003;1.216160e-002
3.940023e+003;1.221848e-002
3.941952e+003;1.216218e-002
3.943881e+003;1.228725e-002
3.945809e+003;1.252175e-002
3.947738e+003;1.229036e-002
3.949666e+003;1.191773e-002
3.951595e+003;1.165966e-002
3.953523e+003;1.169414e-002
3.955452e+003;1.144747e-002
3.957380e+003;1.155433e-002
3.959309e+003;1.198901e-002
3.961238e+003;1.226663e-002
3.963166e+003;1.227451e-002
3.965095e+003;1.233119e-002
3.967023e+003;1.245263e-002
3.968952e+003;1.202229e-002
3.970880e+003;1.176481e-002
3.972809e+003;1.185977e-002
3.974737e+003;1.207455e-002
3.976666e+003;1.223480e-002
3.978594e+003;1.191960e-002
3.980523e+003;1.187124e-002
3.982452e+003;1.198554e-002
3.984380e+003;1.169332e-002
3.986309e+003;1.154637e-002
3.988237e+003;1.207407e-002
3.990166e+003;1.238969e-002
3.992094e+003;1.206937e-002
3.994023e+003;1.212576e-002
3.995951e+003;1.218770e-002
3.997880e+003;1.168726e-002
3.999809e+003;1.149088e-002
4.001737e+003;0.000000e+000
