3.992094e+002;0.000000e+000
4.011380e+002;0.000000e+000
4.030665e+002;0.000000e+000
4.049951e+002;0.000000e+000
4.069236e+002;0.000000e+000
4.088522e+002;0.000000e+000
4.107807e+002;0.000000e+000
4.127093e+002;0.000000e+000
4.146378e+002;0.000000e+000
4.165664e+002;0.000000e+000
4.184949e+002;0.000000e+000
4.204235e+002;0.000000e+000
4.223520e+002;0.000000e+000
4.242806e+002;0.000000e+000
4.262091e+002;0.000000e+000
4.281377e+002;0.000000e+000
4.300662e+002;0.000000e+000
4.319948e+002;0.000000e+000
4.339233e+002;0.000000e+000
4.358519e+002;0.000000e+000
4.377804e+002;0.000000e+000
4.397090e+002;0.000000e+000
4.416375e+002;0.000000e+000
4.435660e+002;0.000000e+000
4.454946e+002;0.000000e+000
4.474232e+002;0.000000e+000
4.493517e+002;0.000000e+000
4.512802e+002;0.000000e+000
4.532088e+002;0.000000e+000
4.551373e+002;0.000000e+000
4.570659e+002;0.000000e+000
4.589944e+002;0.000000e+000
4.609230e+002;0.000000e+000
4.628515e+002;0.000000e+000
4.647801e+002;0.000000e+000
4.667086e+002;0.000000e+000
4.686372e+002;0.000000e+000
4.705657e+002;0.000000e+000
4.724943e+002;0.000000e+000
4.744228e+002;0.000000e+000
4.763513e+002;0.000000e+000
4.782799e+002;0.000000e+000
4.802085e+002;0.000000e+000
4.821370e+002;0.000000e+000
4.840656e+002;0.000000e+000
4.859941e+002;0.000000e+000
4.879226e+002;0.000000e+000
4.898512e+002;0.000000e+000
4.917798e+002;0.000000e+000
4.937083e+002;0.000000e+000
4.956368e+002;0.000000e+000
4.975654e+002;0.000000e+000
4.994939e+002;0.000000e+000
5.014225e+002;0.000000e+000
5.033510e+002;0.000000e+000
5.052796e+002;0.000000e+000
5.072081e+002;0.000000e+000
5.091367e+002;0.000000e+000
5.110652e+002;0.000000e+000
5.129938e+002;0.000000e+000
5.149223e+002;0.000000e+000
5.168509e+002;0.000000e+000
5.187794e+002;0.000000e+000
5.207079e+002;0.000000e+000
5.226365e+002;0.000000e+000
5.245651e+002;0.000000e+000
5.264936e+002;0.000000e+000
5.284222e+002;0.000000e+000
5.303507e+002;0.000000e+000
5.322792e+002;0.000000e+000
5.342078e+002;0.000000e+000
5.361364e+002;0.000000e+000
5.380649e+002;0.000000e+000
5.399935e+002;0.000000e+000
5.419220e+002;0.000000e+000
5.438505e+002;0.000000e+000
5.457791e+002;0.000000e+000
5.477076e+002;0.000000e+000
5.496362e+002;0.000000e+000
5.515648e+002;0.000000e+000
5.534933e+002;0.000000e+000
5.554218e+002;0.000000e+000
5.573504e+002;0.000000e+000
5.592789e+002;0.000000e+000
5.612075e+002;0.000000e+000
5.631360e+002;0.000000e+000
5.650646e+002;0.000000e+000
5.669931e+002;0.000000e+000
5.689217e+002;0.000000e+000
5.708502e+002;0.000000e+000
5.727787e+002;0.000000e+000
5.747073e+002;0.000000e+000
5.766359e+002;0.000000e+000
5.785644e+002;0.000000e+000
5.804930e+002;0.000000e+000
5.824215e+002;0.000000e+000
5.843500e+002;0.000000e+000
5.862786e+002;0.000000e+000
5.882072e+002;0.000000e+000
5.901357e+002;0.000000e+000
5.920643e+002;0.000000e+000
5.939928e+002;0.000000e+000
5.959213e+002;0.000000e+000
5.978499e+002;0.000000e+000
5.997784e+002;2.717310e-001
6.017070e+002;2.742151e-001
6.036355e+002;2.729788e-001
6.055641e+002;2.757794e-001
6.074926e+002;2.847932e-001
6.094211e+002;2.880865e-001
6.113497e+002;2.890841e-001
6.132783e+002;2.893160e-001
6.152068e+002;2.821950e-001
6.171354e+002;2.764166e-001
6.190639e+002;2.750969e-001
6.209924e+002;2.773396e-001
6.229210e+002;2.753689e-001
6.248495e+002;2.736848e-001
6.267781e+002;2.726578e-001
6.287067e+002;2.708391e-001
6.306352e+002;2.685139e-001
6.325637e+002;2.663924e-001
6.344923e+002;2.631975e-001
6.364208e+002;2.599937e-001
6.383494e+002;2.594406e-001
6.402780e+002;2.559040e-001
6.422065e+002;2.526070e-001
6.441350e+002;2.557227e-001
6.460636e+002;2.546498e-001
6.479921e+002;2.524101e-001
6.499207e+002;2.524497e-001
6.518492e+002;2.540337e-001
6.537778e+002;2.532577e-001
6.557063e+002;2.539578e-001
6.576349e+002;2.533425e-001
6.595634e+002;2.530654e-001
6.614919e+002;2.562732e-001
6.634205e+002;2.570000e-001
6.653491e+002;2.535768e-001
6.672776e+002;2.519014e-001
6.692062e+002;2.518407e-001
6.711347e+002;2.515056e-001
6.730632e+002;2.521768e-001
6.749918e+002;2.517398e-001
6.769203e+002;2.512542e-001
6.788489e+002;2.520693e-001
6.807775e+002;2.523358e-001
6.827060e+002;2.510819e-001
6.846345e+002;2.497382e-001
6.865631e+002;2.499047e-001
6.884916e+002;2.491984e-001
6.904202e+002;2.474501e-001
6.923488e+002;2.448172e-001
6.942773e+002;2.426038e-001
6.962058e+002;2.417203e-001
6.981344e+002;2.395817e-001
7.000629e+002;2.367789e-001
7.019915e+002;2.341401e-001
7.039200e+002;2.322087e-001
7.058486e+002;2.300380e-001
7.077771e+002;2.277554e-001
7.097057e+002;2.258354e-001
7.116342e+002;2.237436e-001
7.135627e+002;2.209186e-001
7.154913e+002;2.183165e-001
7.174199e+002;2.159560e-001
7.193484e+002;2.128891e-001
7.212770e+002;2.105323e-001
7.232055e+002;2.086364e-001
7.251340e+002;2.054603e-001
7.270626e+002;2.025213e-001
7.289911e+002;1.991596e-001
7.309197e+002;1.953060e-001
7.328483e+002;1.914956e-001
7.347768e+002;1.886683e-001
7.367053e+002;1.859045e-001
7.386339e+002;1.825018e-001
7.405624e+002;1.791015e-001
7.424910e+002;1.762157e-001
7.444196e+002;1.746194e-001
7.463481e+002;1.732509e-001
7.482766e+002;1.704449e-001
7.502052e+002;1.678340e-001
7.521337e+002;1.652266e-001
7.540623e+002;1.627590e-001
7.559908e+002;1.610703e-001
7.579194e+002;1.602959e-001
7.598479e+002;1.588485e-001
7.617765e+002;1.566220e-001
7.637050e+002;1.553274e-001
7.656335e+002;1.542552e-001
7.675621e+002;1.524128e-001
7.694907e+002;1.513865e-001
7.714192e+002;1.504907e-001
7.733478e+002;1.483044e-001
7.752763e+002;1.457164e-001
7.772048e+002;1.452294e-001
7.791334e+002;1.454049e-001
7.810620e+002;1.445772e-001
7.829905e+002;1.436872e-001
7.849191e+002;1.423222e-001
7.868476e+002;1.407847e-001
7.887761e+002;1.396543e-001
7.907047e+002;1.389348e-001
7.926332e+002;1.370907e-001
7.945618e+002;1.358589e-001
7.964903e+002;1.362548e-001
7.984189e+002;1.365376e-001
8.003474e+002;1.354398e-001
8.022759e+002;1.348034e-001
8.042045e+002;1.349602e-001
8.061331e+002;1.348393e-001
8.080616e+002;1.354612e-001
8.099902e+002;1.359960e-001
8.119187e+002;1.361965e-001
8.138472e+002;1.363917e-001
8.157758e+002;1.359408e-001
8.177043e+002;1.354591e-001
8.196329e+002;1.352634e-001
8.215615e+002;1.351969e-001
8.234900e+002;1.353136e-001
8.254185e+002;1.361901e-001
8.273471e+002;1.369943e-001
8.292756e+002;1.367470e-001
8.312042e+002;1.355735e-001
8.331328e+002;1.340837e-001
8.350613e+002;1.327004e-001
8.369898e+002;1.306410e-001
8.389184e+002;1.286615e-001
8.408469e+002;1.277364e-001
8.427755e+002;1.280898e-001
8.447040e+002;1.288293e-001
8.466326e+002;1.291680e-001
8.485611e+002;1.294631e-001
8.504897e+002;1.297755e-001
8.524182e+002;1.297823e-001
8.543467e+002;1.287767e-001
8.562753e+002;1.274346e-001
8.582039e+002;1.259732e-001
8.601324e+002;1.236354e-001
8.620610e+002;1.217519e-001
8.639895e+002;1.208680e-001
8.659180e+002;1.199402e-001
8.678466e+002;1.194825e-001
8.697751e+002;1.201547e-001
8.717037e+002;1.213123e-001
8.736323e+002;1.224087e-001
8.755608e+002;1.227711e-001
8.774893e+002;1.222751e-001
8.794179e+002;1.219171e-001
8.813464e+002;1.220838e-001
8.832750e+002;1.223106e-001
8.852036e+002;1.225693e-001
8.871321e+002;1.229970e-001
8.890606e+002;1.229953e-001
8.909892e+002;1.231037e-001
8.929177e+002;1.236027e-001
8.948463e+002;1.234809e-001
8.967748e+002;1.232131e-001
8.987034e+002;1.234355e-001
9.006319e+002;1.240331e-001
9.025605e+002;1.246055e-001
9.044890e+002;1.248615e-001
9.064175e+002;1.251138e-001
9.083461e+002;1.251177e-001
9.102747e+002;1.255278e-001
9.122032e+002;1.270386e-001
9.141318e+002;1.288400e-001
9.160603e+002;1.301134e-001
9.179888e+002;1.314288e-001
9.199174e+002;1.331253e-001
9.218459e+002;1.351746e-001
9.237745e+002;1.367327e-001
9.257031e+002;1.376725e-001
9.276316e+002;1.389406e-001
9.295601e+002;1.399070e-001
9.314887e+002;1.404211e-001
9.334172e+002;1.408939e-001
9.353458e+002;1.410454e-001
9.372744e+002;1.412808e-001
9.392029e+002;1.420050e-001
9.411314e+002;1.430054e-001
9.430600e+002;1.443836e-001
9.449885e+002;1.452030e-001
9.469171e+002;1.459128e-001
9.488456e+002;1.472191e-001
9.507742e+002;1.488159e-001
9.527027e+002;1.502712e-001
9.546313e+002;1.515955e-001
9.565598e+002;1.529677e-001
9.584883e+002;1.547204e-001
9.604169e+002;1.564915e-001
9.623455e+002;1.582949e-001
9.642740e+002;1.604813e-001
9.662026e+002;1.629690e-001
9.681311e+002;1.655145e-001
9.700596e+002;1.680819e-001
9.719882e+002;1.704516e-001
9.739167e+002;1.725441e-001
9.758453e+002;1.740446e-001
9.777739e+002;1.747845e-001
9.797024e+002;1.751501e-001
9.816309e+002;1.755427e-001
9.835595e+002;1.767382e-001
9.854880e+002;1.791187e-001
9.874166e+002;1.823768e-001
9.893452e+002;1.863480e-001
9.912737e+002;1.903057e-001
9.932022e+002;1.938834e-001
9.951307e+002;1.969175e-001
9.970593e+002;1.989800e-001
9.989879e+002;2.008293e-001
1.000916e+003;2.025405e-001
1.002845e+003;2.038277e-001
1.004773e+003;2.056741e-001
1.006702e+003;2.079560e-001
1.008631e+003;2.105830e-001
1.010559e+003;2.132752e-001
1.012488e+003;2.155299e-001
1.014416e+003;2.179120e-001
1.016345e+003;2.200108e-001
1.018273e+003;2.212888e-001
1.020202e+003;2.226270e-001
1.022130e+003;2.249497e-001
1.024059e+003;2.276620e-001
1.025988e+003;2.303108e-001
1.027916e+003;2.323745e-001
1.029845e+003;2.342509e-001
1.031773e+003;2.358856e-001
1.033702e+003;2.375298e-001
1.035630e+003;2.389382e-001
1.037559e+003;2.395187e-001
1.039487e+003;2.398170e-001
1.041416e+003;2.402699e-001
1.043344e+003;2.403626e-001
1.045273e+003;2.403943e-001
1.047202e+003;2.405397e-001
1.049130e+003;2.397895e-001
1.051059e+003;2.393445e-001
1.052987e+003;2.397918e-001
1.054916e+003;2.403425e-001
1.056844e+003;2.406816e-001
1.058773e+003;2.404379e-001
1.060701e+003;2.397089e-001
1.062630e+003;2.389671e-001
1.064558e+003;2.378091e-001
1.066487e+003;2.360205e-001
1.068416e+003;2.337811e-001
1.070344e+003;2.315228e-001
1.072273e+003;2.294202e-001
1.074201e+003;2.277175e-001
1.076130e+003;2.257391e-001
1.078058e+003;2.225335e-001
1.079987e+003;2.186980e-001
1.081915e+003;2.150656e-001
1.083844e+003;2.122121e-001
1.085773e+003;2.093615e-001
1.087701e+003;2.061676e-001
1.089630e+003;2.031141e-001
1.091558e+003;2.007672e-001
1.093487e+003;1.992467e-001
1.095415e+003;1.986263e-001
1.097344e+003;1.986519e-001
1.099272e+003;1.989170e-001
1.101201e+003;1.984320e-001
1.103129e+003;1.980423e-001
1.105058e+003;1.974027e-001
1.106987e+003;1.961622e-001
1.108915e+003;1.951319e-001
1.110844e+003;1.934910e-001
1.112772e+003;1.917946e-001
1.114701e+003;1.905835e-001
1.116629e+003;1.895710e-001
1.118558e+003;1.887947e-001
1.120486e+003;1.883160e-001
1.122415e+003;1.879305e-001
1.124344e+003;1.874119e-001
1.126272e+003;1.868855e-001
1.128201e+003;1.868172e-001
1.130129e+003;1.868017e-001
1.132058e+003;1.868900e-001
1.133986e+003;1.868866e-001
1.135915e+003;1.871892e-001
1.137843e+003;1.881005e-001
1.139772e+003;1.894158e-001
1.141700e+003;1.910467e-001
1.143629e+003;1.923817e-001
1.145557e+003;1.935919e-001
1.147486e+003;1.955300e-001
1.149415e+003;1.972116e-001
1.151343e+003;1.979823e-001
1.153272e+003;1.992511e-001
1.155200e+003;2.005526e-001
1.157129e+003;2.007999e-001
1.159057e+003;2.007658e-001
1.160986e+003;2.008576e-001
1.162914e+003;2.005530e-001
1.164843e+003;1.999625e-001
1.166771e+003;1.994300e-001
1.168700e+003;1.988787e-001
1.170629e+003;1.979818e-001
1.172557e+003;1.967612e-001
1.174486e+003;1.952844e-001
1.176414e+003;1.932989e-001
1.178343e+003;1.910133e-001
1.180271e+003;1.892913e-001
1.182200e+003;1.883428e-001
1.184128e+003;1.881170e-001
1.186057e+003;1.882782e-001
1.187986e+003;1.891618e-001
1.189914e+003;1.908080e-001
1.191843e+003;1.925513e-001
1.193771e+003;1.942787e-001
1.195700e+003;1.964268e-001
1.197628e+003;1.990964e-001
1.199557e+003;2.018578e-001
1.201485e+003;2.051498e-001
1.203414e+003;2.086904e-001
1.205343e+003;2.121618e-001
1.207271e+003;2.159466e-001
1.209200e+003;2.196149e-001
1.211128e+003;2.230420e-001
1.213057e+003;2.265644e-001
1.214985e+003;2.294774e-001
1.216914e+003;2.320451e-001
1.218842e+003;2.346912e-001
1.220771e+003;2.368116e-001
1.222699e+003;2.385698e-001
1.224628e+003;2.398897e-001
1.226557e+003;2.404973e-001
1.228485e+003;2.406820e-001
1.230414e+003;2.400787e-001
1.232342e+003;2.383849e-001
1.234271e+003;2.362131e-001
1.236199e+003;2.341668e-001
1.238128e+003;2.318636e-001
1.240056e+003;2.292507e-001
1.241985e+003;2.269113e-001
1.243913e+003;2.245763e-001
1.245842e+003;2.223996e-001
1.247771e+003;2.205495e-001
1.249699e+003;2.187897e-001
1.251628e+003;2.172218e-001
1.253556e+003;2.154978e-001
1.255485e+003;2.137324e-001
1.257413e+003;2.122279e-001
1.259342e+003;2.102653e-001
1.261270e+003;2.074711e-001
1.263199e+003;2.045040e-001
1.265127e+003;2.017018e-001
1.267056e+003;1.987132e-001
1.268985e+003;1.954549e-001
1.270913e+003;1.919802e-001
1.272842e+003;1.884244e-001
1.274770e+003;1.852634e-001
1.276699e+003;1.826997e-001
1.278627e+003;1.805209e-001
1.280556e+003;1.786579e-001
1.282484e+003;1.773164e-001
1.284413e+003;1.761576e-001
1.286342e+003;1.753890e-001
1.288270e+003;1.748826e-001
1.290199e+003;1.743994e-001
1.292127e+003;1.739419e-001
1.294056e+003;1.736268e-001
1.295984e+003;1.736359e-001
1.297913e+003;1.737018e-001
1.299841e+003;1.738714e-001
1.301770e+003;1.738104e-001
1.303698e+003;1.736769e-001
1.305627e+003;1.736501e-001
1.307556e+003;1.736498e-001
1.309484e+003;1.738059e-001
1.311413e+003;1.736115e-001
1.313341e+003;1.733458e-001
1.315270e+003;1.732533e-001
1.317198e+003;1.731993e-001
1.319127e+003;1.733100e-001
1.321055e+003;1.739754e-001
1.322984e+003;1.749918e-001
1.324912e+003;1.753551e-001
1.326841e+003;1.757966e-001
1.328770e+003;1.768062e-001
1.330698e+003;1.775596e-001
1.332627e+003;1.776925e-001
1.334555e+003;1.778715e-001
1.336484e+003;1.779256e-001
1.338412e+003;1.778636e-001
1.340341e+003;1.781241e-001
1.342269e+003;1.781196e-001
1.344198e+003;1.778465e-001
1.346126e+003;1.779597e-001
1.348055e+003;1.781215e-001
1.349984e+003;1.783248e-001
1.351912e+003;1.791846e-001
1.353841e+003;1.804209e-001
1.355769e+003;1.819028e-001
1.357698e+003;1.840392e-001
1.359626e+003;1.869705e-001
1.361555e+003;1.899241e-001
1.363483e+003;1.931707e-001
1.365412e+003;1.964840e-001
1.367341e+003;1.986554e-001
1.369269e+003;1.994013e-001
1.371198e+003;1.993175e-001
1.373126e+003;1.993116e-001
1.375055e+003;1.992637e-001
1.376983e+003;1.991176e-001
1.378912e+003;1.990477e-001
1.380840e+003;1.989138e-001
1.382769e+003;1.986833e-001
1.384698e+003;1.986545e-001
1.386626e+003;1.990088e-001
1.388555e+003;1.991437e-001
1.390483e+003;1.994530e-001
1.392412e+003;1.999058e-001
1.394340e+003;2.004068e-001
1.396269e+003;2.012182e-001
1.398197e+003;2.020476e-001
1.400126e+003;2.030713e-001
1.402054e+003;2.044825e-001
1.403983e+003;2.057665e-001
1.405911e+003;2.068511e-001
1.407840e+003;2.080391e-001
1.409769e+003;2.089495e-001
1.411697e+003;2.097209e-001
1.413626e+003;2.103712e-001
1.415554e+003;2.108742e-001
1.417483e+003;2.115453e-001
1.419411e+003;2.127239e-001
1.421340e+003;2.145629e-001
1.423268e+003;2.169865e-001
1.425197e+003;2.200518e-001
1.427125e+003;2.240886e-001
1.429054e+003;2.291687e-001
1.430983e+003;2.347043e-001
1.432911e+003;2.404326e-001
1.434840e+003;2.458804e-001
1.436768e+003;2.502114e-001
1.438697e+003;2.527557e-001
1.440625e+003;2.543273e-001
1.442554e+003;2.551933e-001
1.444482e+003;2.551788e-001
1.446411e+003;2.539554e-001
1.448340e+003;2.509026e-001
1.450268e+003;2.466337e-001
1.452197e+003;2.419515e-001
1.454125e+003;2.370494e-001
1.456054e+003;2.322037e-001
1.457982e+003;2.279667e-001
1.459911e+003;2.248451e-001
1.461839e+003;2.227872e-001
1.463768e+003;2.214511e-001
1.465697e+003;2.209115e-001
1.467625e+003;2.210486e-001
1.469554e+003;2.213062e-001
1.471482e+003;2.219278e-001
1.473411e+003;2.229210e-001
1.475339e+003;2.244181e-001
1.477268e+003;2.268528e-001
1.479196e+003;2.301324e-001
1.481125e+003;2.342404e-001
1.483053e+003;2.394332e-001
1.484982e+003;2.457369e-001
1.486911e+003;2.528146e-001
1.488839e+003;2.604589e-001
1.490768e+003;2.685792e-001
1.492696e+003;2.767133e-001
1.494625e+003;2.848168e-001
1.496553e+003;2.931637e-001
1.498482e+003;3.010897e-001
1.500410e+003;3.085781e-001
1.502339e+003;3.156548e-001
1.504267e+003;3.225422e-001
1.506196e+003;3.286741e-001
1.508125e+003;3.341469e-001
1.510053e+003;3.388948e-001
1.511982e+003;3.421116e-001
1.513910e+003;3.434908e-001
1.515839e+003;3.415958e-001
1.517767e+003;3.360754e-001
1.519696e+003;3.287303e-001
1.521624e+003;3.210413e-001
1.523553e+003;3.147044e-001
1.525481e+003;3.093984e-001
1.527410e+003;3.045767e-001
1.529339e+003;2.998461e-001
1.531267e+003;2.953231e-001
1.533196e+003;2.910107e-001
1.535124e+003;2.863110e-001
1.537053e+003;2.815426e-001
1.538981e+003;2.765842e-001
1.540910e+003;2.717825e-001
1.542838e+003;2.672039e-001
1.544767e+003;2.625732e-001
1.546695e+003;2.577528e-001
1.548624e+003;2.529520e-001
1.550553e+003;2.482913e-001
1.552481e+003;2.435158e-001
1.554410e+003;2.383149e-001
1.556338e+003;2.332052e-001
1.558267e+003;2.279503e-001
1.560195e+003;2.228330e-001
1.562124e+003;2.181885e-001
1.564052e+003;2.135224e-001
1.565981e+003;2.089905e-001
1.567910e+003;2.050389e-001
1.569838e+003;2.015660e-001
1.571767e+003;1.988638e-001
1.573695e+003;1.969136e-001
1.575624e+003;1.956701e-001
1.577552e+003;1.953565e-001
1.579481e+003;1.959403e-001
1.581409e+003;1.971699e-001
1.583338e+003;1.989220e-001
1.585266e+003;2.016936e-001
1.587195e+003;2.057374e-001
1.589124e+003;2.107155e-001
1.591052e+003;2.167248e-001
1.592981e+003;2.237226e-001
1.594909e+003;2.314951e-001
1.596838e+003;2.399157e-001
1.598766e+003;2.493200e-001
1.600695e+003;2.602497e-001
1.602623e+003;2.729450e-001
1.604552e+003;2.873808e-001
1.606480e+003;3.025905e-001
1.608409e+003;3.182304e-001
1.610338e+003;3.339138e-001
1.612266e+003;3.489057e-001
1.614195e+003;3.617550e-001
1.616123e+003;3.721941e-001
1.618052e+003;3.800273e-001
1.619980e+003;3.841144e-001
1.621909e+003;3.846974e-001
1.623837e+003;3.820182e-001
1.625766e+003;3.764630e-001
1.627694e+003;3.689082e-001
1.629623e+003;3.599940e-001
1.631552e+003;3.505650e-001
1.633480e+003;3.412518e-001
1.635409e+003;3.316250e-001
1.637337e+003;3.222413e-001
1.639266e+003;3.138888e-001
1.641194e+003;3.061506e-001
1.643123e+003;2.985133e-001
1.645051e+003;2.907326e-001
1.646980e+003;2.833323e-001
1.648909e+003;2.763742e-001
1.650837e+003;2.695415e-001
1.652766e+003;2.625185e-001
1.654694e+003;2.557671e-001
1.656623e+003;2.488861e-001
1.658551e+003;2.414965e-001
1.660480e+003;2.343910e-001
1.662408e+003;2.278602e-001
1.664337e+003;2.216394e-001
1.666266e+003;2.152971e-001
1.668194e+003;2.092193e-001
1.670123e+003;2.036920e-001
1.672051e+003;1.985248e-001
1.673980e+003;1.932589e-001
1.675908e+003;1.879814e-001
1.677837e+003;1.830689e-001
1.679765e+003;1.781857e-001
1.681694e+003;1.735737e-001
1.683622e+003;1.693349e-001
1.685551e+003;1.652884e-001
1.687479e+003;1.617823e-001
1.689408e+003;1.587668e-001
1.691337e+003;1.561326e-001
1.693265e+003;1.541136e-001
1.695194e+003;1.520882e-001
1.697122e+003;1.497647e-001
1.699051e+003;1.461752e-001
1.700979e+003;1.400290e-001
1.702908e+003;1.315356e-001
1.704836e+003;1.216557e-001
1.706765e+003;1.116974e-001
1.708693e+003;1.028404e-001
1.710622e+003;9.576934e-002
1.712551e+003;9.016533e-002
1.714479e+003;8.562368e-002
1.716408e+003;8.197189e-002
1.718336e+003;7.929580e-002
1.720265e+003;7.751242e-002
1.722193e+003;7.612545e-002
1.724122e+003;7.499907e-002
1.726050e+003;7.444889e-002
1.727979e+003;7.411122e-002
1.729908e+003;7.382379e-002
1.731836e+003;7.344266e-002
1.733765e+003;7.305582e-002
1.735693e+003;7.280785e-002
1.737622e+003;7.240920e-002
1.739550e+003;7.163989e-002
1.741479e+003;7.076530e-002
1.743407e+003;6.953576e-002
1.745336e+003;6.846151e-002
1.747265e+003;6.731325e-002
1.749193e+003;6.602862e-002
1.751122e+003;6.505331e-002
1.753050e+003;6.424724e-002
1.754979e+003;6.320605e-002
1.756907e+003;6.204639e-002
1.758836e+003;6.102624e-002
1.760764e+003;6.029223e-002
1.762693e+003;5.996774e-002
1.764621e+003;5.970416e-002
1.766550e+003;5.923229e-002
1.768479e+003;5.886017e-002
1.770407e+003;5.875500e-002
1.772336e+003;5.846824e-002
1.774264e+003;5.812068e-002
1.776193e+003;5.790925e-002
1.778121e+003;5.755518e-002
1.780050e+003;5.723545e-002
1.781978e+003;5.698149e-002
1.783907e+003;5.683512e-002
1.785835e+003;5.685000e-002
1.787764e+003;5.664565e-002
1.789693e+003;5.609617e-002
1.791621e+003;5.569331e-002
1.793550e+003;5.551492e-002
1.795478e+003;5.543296e-002
1.797407e+003;5.548525e-002
1.799335e+003;5.547305e-002
1.801264e+003;5.516064e-002
1.803192e+003;5.489775e-002
1.805121e+003;5.465910e-002
1.807049e+003;5.441221e-002
1.808978e+003;5.418708e-002
1.810907e+003;5.397433e-002
1.812835e+003;5.370372e-002
1.814764e+003;5.344567e-002
1.816692e+003;5.321314e-002
1.818621e+003;5.297830e-002
1.820549e+003;5.285082e-002
1.822478e+003;5.268234e-002
1.824406e+003;5.242644e-002
1.826335e+003;5.244192e-002
1.828264e+003;5.234977e-002
1.830192e+003;5.205036e-002
1.832121e+003;5.184665e-002
1.834049e+003;5.176620e-002
1.835978e+003;5.155269e-002
1.837906e+003;5.139278e-002
1.839835e+003;5.131151e-002
1.841763e+003;5.131666e-002
1.843692e+003;5.135078e-002
1.845620e+003;5.115280e-002
1.847549e+003;5.077711e-002
1.849478e+003;5.058535e-002
1.851406e+003;5.077368e-002
1.853335e+003;5.084900e-002
1.855263e+003;5.069999e-002
1.857192e+003;5.064477e-002
1.859120e+003;5.046292e-002
1.861049e+003;5.035345e-002
1.862977e+003;5.044904e-002
1.864906e+003;5.034013e-002
1.866834e+003;5.017031e-002
1.868763e+003;5.014979e-002
1.870692e+003;5.007259e-002
1.872620e+003;5.010639e-002
1.874549e+003;5.030493e-002
1.876477e+003;5.026598e-002
1.878406e+003;5.029299e-002
1.880334e+003;5.051842e-002
1.882263e+003;5.037603e-002
1.884191e+003;5.011331e-002
1.886120e+003;4.993090e-002
1.888048e+003;4.991002e-002
1.889977e+003;5.013030e-002
1.891906e+003;5.016091e-002
1.893834e+003;4.994009e-002
1.895763e+003;4.978815e-002
1.897691e+003;4.978370e-002
1.899620e+003;4.992548e-002
1.901548e+003;4.997756e-002
1.903477e+003;4.997425e-002
1.905405e+003;4.992284e-002
1.907334e+003;4.989905e-002
1.909262e+003;4.961495e-002
1.911191e+003;4.936104e-002
1.913120e+003;4.933869e-002
1.915048e+003;4.948504e-002
1.916977e+003;4.966751e-002
1.918905e+003;4.957291e-002
1.920834e+003;4.936260e-002
1.922762e+003;4.931720e-002
1.924691e+003;4.934188e-002
1.926619e+003;4.939942e-002
1.928548e+003;4.925102e-002
1.930477e+003;4.916919e-002
1.932405e+003;4.923640e-002
1.934334e+003;4.930246e-002
1.936262e+003;4.937834e-002
1.938191e+003;4.946573e-002
1.940119e+003;4.950302e-002
1.942048e+003;4.931486e-002
1.943976e+003;4.913409e-002
1.945905e+003;4.922801e-002
1.947833e+003;4.957740e-002
1.949762e+003;4.978321e-002
1.951691e+003;4.966525e-002
1.953619e+003;4.977961e-002
1.955548e+003;4.997057e-002
1.957476e+003;4.989637e-002
1.959405e+003;4.981320e-002
1.961333e+003;4.985192e-002
1.963262e+003;4.979042e-002
1.965190e+003;4.983925e-002
1.967119e+003;4.992455e-002
1.969047e+003;4.982257e-002
1.970976e+003;4.993663e-002
1.972905e+003;5.003488e-002
1.974833e+003;4.993432e-002
1.976762e+003;4.995548e-002
1.978690e+003;5.005838e-002
1.980619e+003;5.002626e-002
1.982547e+003;4.999540e-002
1.984476e+003;4.989203e-002
1.986404e+003;4.975304e-002
1.988333e+003;4.963605e-002
1.990261e+003;4.966276e-002
1.992190e+003;4.989050e-002
1.994119e+003;4.988846e-002
1.996047e+003;4.972729e-002
1.997976e+003;4.965611e-002
1.999904e+003;4.975022e-002
2.001833e+003;4.984252e-002
2.003761e+003;4.972488e-002
2.005690e+003;4.954650e-002
2.007618e+003;4.945708e-002
2.009547e+003;4.947636e-002
2.011476e+003;4.947858e-002
2.013404e+003;4.937875e-002
2.015333e+003;4.942790e-002
2.017261e+003;4.961388e-002
2.019190e+003;4.966190e-002
2.021118e+003;4.983304e-002
2.023047e+003;4.995659e-002
2.024975e+003;4.977649e-002
2.026904e+003;4.973840e-002
2.028833e+003;4.972034e-002
2.030761e+003;4.966005e-002
2.032690e+003;4.974862e-002
2.034618e+003;4.972406e-002
2.036547e+003;4.952422e-002
2.038475e+003;4.936423e-002
2.040404e+003;4.943065e-002
2.042332e+003;4.964530e-002
2.044261e+003;4.969044e-002
2.046189e+003;4.966361e-002
2.048118e+003;4.960173e-002
2.050047e+003;4.966473e-002
2.051975e+003;4.973714e-002
2.053904e+003;4.970968e-002
2.055832e+003;4.962435e-002
2.057761e+003;4.981922e-002
2.059689e+003;4.997860e-002
2.061618e+003;4.989213e-002
2.063546e+003;4.982086e-002
2.065475e+003;4.992748e-002
2.067404e+003;5.029150e-002
2.069332e+003;5.046285e-002
2.071260e+003;5.026717e-002
2.073189e+003;5.025575e-002
2.075118e+003;5.050338e-002
2.077046e+003;5.054954e-002
2.078975e+003;5.038776e-002
2.080903e+003;5.033983e-002
2.082832e+003;5.037041e-002
2.084760e+003;5.045816e-002
2.086689e+003;5.055981e-002
2.088617e+003;5.038976e-002
2.090546e+003;5.009412e-002
2.092475e+003;5.021766e-002
2.094403e+003;5.047346e-002
2.096332e+003;5.021703e-002
2.098260e+003;5.018125e-002
2.100189e+003;5.048961e-002
2.102117e+003;5.060259e-002
2.104046e+003;5.048474e-002
2.105974e+003;5.017909e-002
2.107903e+003;5.000704e-002
2.109832e+003;5.008389e-002
2.111760e+003;5.014614e-002
2.113688e+003;5.023239e-002
2.115617e+003;5.029623e-002
2.117546e+003;5.037540e-002
2.119474e+003;5.027636e-002
2.121403e+003;5.003515e-002
2.123331e+003;4.993752e-002
2.125260e+003;4.987957e-002
2.127188e+003;4.990611e-002
2.129117e+003;5.000213e-002
2.131045e+003;5.010148e-002
2.132974e+003;5.018887e-002
2.134903e+003;5.005113e-002
2.136831e+003;4.996886e-002
2.138760e+003;5.016146e-002
2.140688e+003;5.010977e-002
2.142617e+003;5.000555e-002
2.144545e+003;5.010628e-002
2.146474e+003;5.027580e-002
2.148402e+003;5.022380e-002
2.150331e+003;5.017087e-002
2.152260e+003;5.024526e-002
2.154188e+003;5.028190e-002
2.156117e+003;5.041644e-002
2.158045e+003;5.020409e-002
2.159974e+003;5.016299e-002
2.161902e+003;5.038928e-002
2.163831e+003;5.060437e-002
2.165759e+003;5.064294e-002
2.167688e+003;5.045798e-002
2.169616e+003;5.043275e-002
2.171545e+003;5.051131e-002
2.173474e+003;5.043408e-002
2.175402e+003;5.022659e-002
2.177331e+003;5.012479e-002
2.179259e+003;5.015031e-002
2.181188e+003;5.032030e-002
2.183116e+003;5.040948e-002
2.185045e+003;5.036859e-002
2.186973e+003;5.041853e-002
2.188902e+003;5.036197e-002
2.190831e+003;5.039947e-002
2.192759e+003;5.038545e-002
2.194688e+003;5.038690e-002
2.196616e+003;5.038891e-002
2.198545e+003;5.019282e-002
2.200473e+003;5.007616e-002
2.202402e+003;5.014179e-002
2.204330e+003;5.013618e-002
2.206259e+003;5.008129e-002
2.208188e+003;5.030717e-002
2.210116e+003;5.044804e-002
2.212044e+003;5.019806e-002
2.213973e+003;5.021201e-002
2.215902e+003;5.021082e-002
2.217830e+003;5.012271e-002
2.219759e+003;5.029410e-002
2.221687e+003;5.032409e-002
2.223616e+003;5.007816e-002
2.225544e+003;5.016790e-002
2.227473e+003;5.023451e-002
2.229401e+003;5.011550e-002
2.231330e+003;5.006764e-002
2.233259e+003;4.999544e-002
2.235187e+003;5.005388e-002
2.237116e+003;5.016901e-002
2.239044e+003;4.998733e-002
2.240973e+003;4.983241e-002
2.242901e+003;4.982249e-002
2.244830e+003;4.980484e-002
2.246758e+003;4.976686e-002
2.248687e+003;4.979083e-002
2.250615e+003;4.985073e-002
2.252544e+003;4.982814e-002
2.254473e+003;5.001377e-002
2.256401e+003;5.013030e-002
2.258330e+003;5.008753e-002
2.260258e+003;5.006578e-002
2.262187e+003;5.007270e-002
2.264115e+003;4.998112e-002
2.266044e+003;4.994031e-002
2.267972e+003;4.993882e-002
2.269901e+003;5.001912e-002
2.271830e+003;5.023823e-002
2.273758e+003;5.026773e-002
2.275687e+003;5.025125e-002
2.277615e+003;5.021420e-002
2.279544e+003;5.027368e-002
2.281472e+003;5.046181e-002
2.283401e+003;5.062042e-002
2.285329e+003;5.084870e-002
2.287258e+003;5.088979e-002
2.289187e+003;5.061416e-002
2.291115e+003;5.050189e-002
2.293043e+003;5.051109e-002
2.294972e+003;5.051864e-002
2.296901e+003;5.067969e-002
2.298829e+003;5.065020e-002
2.300758e+003;5.035293e-002
2.302686e+003;5.025854e-002
2.304615e+003;5.053431e-002
2.306543e+003;5.067370e-002
2.308472e+003;5.072642e-002
2.310400e+003;5.069812e-002
2.312329e+003;5.078664e-002
2.314258e+003;5.093438e-002
2.316186e+003;5.087578e-002
2.318115e+003;5.082024e-002
2.320043e+003;5.108180e-002
2.321972e+003;5.113957e-002
2.323900e+003;5.087828e-002
2.325829e+003;5.062574e-002
2.327757e+003;5.050621e-002
2.329686e+003;5.049467e-002
2.331615e+003;5.061695e-002
2.333543e+003;5.073432e-002
2.335472e+003;5.083831e-002
2.337400e+003;5.083380e-002
2.339329e+003;5.063397e-002
2.341257e+003;5.030962e-002
2.343186e+003;5.047952e-002
2.345114e+003;5.087243e-002
2.347043e+003;5.086553e-002
2.348971e+003;5.070311e-002
2.350900e+003;5.070643e-002
2.352829e+003;5.084483e-002
2.354757e+003;5.097947e-002
2.356686e+003;5.104874e-002
2.358614e+003;5.125092e-002
2.360543e+003;5.124589e-002
2.362471e+003;5.095283e-002
2.364400e+003;5.095290e-002
2.366328e+003;5.112242e-002
2.368257e+003;5.137457e-002
2.370186e+003;5.149930e-002
2.372114e+003;5.121737e-002
2.374042e+003;5.125305e-002
2.375971e+003;5.163340e-002
2.377900e+003;5.175447e-002
2.379828e+003;5.187611e-002
2.381757e+003;5.207161e-002
2.383685e+003;5.208876e-002
2.385614e+003;5.196367e-002
2.387542e+003;5.211584e-002
2.389471e+003;5.217450e-002
2.391399e+003;5.207741e-002
2.393328e+003;5.206605e-002
2.395257e+003;5.222304e-002
2.397185e+003;5.260937e-002
2.399114e+003;5.270546e-002
2.401042e+003;5.272619e-002
2.402971e+003;5.288469e-002
2.404899e+003;5.307874e-002
2.406828e+003;5.340907e-002
2.408756e+003;5.366776e-002
2.410685e+003;5.361423e-002
2.412614e+003;5.367699e-002
2.414542e+003;5.407272e-002
2.416471e+003;5.442539e-002
2.418399e+003;5.477877e-002
2.420328e+003;5.493806e-002
2.422256e+003;5.470863e-002
2.424185e+003;5.479722e-002
2.426113e+003;5.521836e-002
2.428042e+003;5.556345e-002
2.429970e+003;5.550585e-002
2.431899e+003;5.546793e-002
2.433828e+003;5.566559e-002
2.435756e+003;5.593302e-002
2.437685e+003;5.592526e-002
2.439613e+003;5.576180e-002
2.441542e+003;5.595737e-002
2.443470e+003;5.639318e-002
2.445399e+003;5.649981e-002
2.447327e+003;5.651966e-002
2.449256e+003;5.662149e-002
2.451185e+003;5.675673e-002
2.453113e+003;5.660541e-002
2.455042e+003;5.658899e-002
2.456970e+003;5.677387e-002
2.458899e+003;5.673951e-002
2.460827e+003;5.669722e-002
2.462756e+003;5.679422e-002
2.464684e+003;5.695663e-002
2.466613e+003;5.704198e-002
2.468542e+003;5.704236e-002
2.470470e+003;5.710981e-002
2.472398e+003;5.718071e-002
2.474327e+003;5.732727e-002
2.476256e+003;5.768264e-002
2.478184e+003;5.801857e-002
2.480113e+003;5.795620e-002
2.482041e+003;5.779974e-002
2.483970e+003;5.791815e-002
2.485898e+003;5.813685e-002
2.487827e+003;5.822084e-002
2.489755e+003;5.833247e-002
2.491684e+003;5.812556e-002
2.493613e+003;5.797173e-002
2.495541e+003;5.818182e-002
2.497470e+003;5.852947e-002
2.499398e+003;5.853534e-002
2.501327e+003;5.831159e-002
2.503255e+003;5.827665e-002
2.505184e+003;5.851499e-002
2.507112e+003;5.863208e-002
2.509041e+003;5.868088e-002
2.510969e+003;5.873201e-002
2.512898e+003;5.868703e-002
2.514827e+003;5.863860e-002
2.516755e+003;5.861440e-002
2.518684e+003;5.883368e-002
2.520612e+003;5.920912e-002
2.522541e+003;5.940503e-002
2.524469e+003;5.928530e-002
2.526398e+003;5.919040e-002
2.528326e+003;5.923654e-002
2.530255e+003;5.935428e-002
2.532184e+003;5.941480e-002
2.534112e+003;5.959290e-002
2.536041e+003;5.983941e-002
2.537969e+003;5.980538e-002
2.539898e+003;5.984987e-002
2.541826e+003;5.989026e-002
2.543755e+003;6.006791e-002
2.545683e+003;6.023304e-002
2.547612e+003;6.016574e-002
2.549541e+003;6.040222e-002
2.551469e+003;6.076187e-002
2.553397e+003;6.109946e-002
2.555326e+003;6.133580e-002
2.557255e+003;6.132248e-002
2.559183e+003;6.139179e-002
2.561112e+003;6.146407e-002
2.563040e+003;6.143488e-002
2.564969e+003;6.139304e-002
2.566897e+003;6.164875e-002
2.568826e+003;6.202950e-002
2.570754e+003;6.212639e-002
2.572683e+003;6.218642e-002
2.574612e+003;6.237626e-002
2.576540e+003;6.253473e-002
2.578469e+003;6.271794e-002
2.580397e+003;6.288768e-002
2.582326e+003;6.305277e-002
2.584254e+003;6.342796e-002
2.586183e+003;6.362744e-002
2.588111e+003;6.377063e-002
2.590040e+003;6.394097e-002
2.591969e+003;6.417794e-002
2.593897e+003;6.438006e-002
2.595826e+003;6.444828e-002
2.597754e+003;6.437857e-002
2.599683e+003;6.464668e-002
2.601611e+003;6.518577e-002
2.603540e+003;6.533730e-002
2.605468e+003;6.513007e-002
2.607397e+003;6.503715e-002
2.609325e+003;6.524753e-002
2.611254e+003;6.569693e-002
2.613183e+003;6.591542e-002
2.615111e+003;6.618307e-002
2.617040e+003;6.649640e-002
2.618968e+003;6.647539e-002
2.620897e+003;6.641937e-002
2.622825e+003;6.651007e-002
2.624754e+003;6.661122e-002
2.626682e+003;6.640979e-002
2.628611e+003;6.627689e-002
2.630540e+003;6.643779e-002
2.632468e+003;6.653923e-002
2.634396e+003;6.643230e-002
2.636325e+003;6.635760e-002
2.638254e+003;6.649161e-002
2.640182e+003;6.660153e-002
2.642111e+003;6.641230e-002
2.644039e+003;6.630784e-002
2.645968e+003;6.662737e-002
2.647896e+003;6.692263e-002
2.649825e+003;6.686299e-002
2.651753e+003;6.676027e-002
2.653682e+003;6.679914e-002
2.655611e+003;6.691296e-002
2.657539e+003;6.704205e-002
2.659468e+003;6.726910e-002
2.661396e+003;6.754301e-002
2.663325e+003;6.759278e-002
2.665253e+003;6.770511e-002
2.667182e+003;6.772815e-002
2.669110e+003;6.773133e-002
2.671039e+003;6.806493e-002
2.672968e+003;6.824530e-002
2.674896e+003;6.825728e-002
2.676825e+003;6.840914e-002
2.678753e+003;6.854507e-002
2.680682e+003;6.854022e-002
2.682610e+003;6.849921e-002
2.684539e+003;6.876151e-002
2.686467e+003;6.915510e-002
2.688396e+003;6.958380e-002
2.690324e+003;6.988309e-002
2.692253e+003;6.982258e-002
2.694182e+003;6.970130e-002
2.696110e+003;6.968115e-002
2.698039e+003;6.982581e-002
2.699967e+003;7.013497e-002
2.701896e+003;7.070380e-002
2.703824e+003;7.126155e-002
2.705753e+003;7.119726e-002
2.707681e+003;7.105850e-002
2.709610e+003;7.145014e-002
2.711539e+003;7.196121e-002
2.713467e+003;7.229143e-002
2.715396e+003;7.222862e-002
2.717324e+003;7.227241e-002
2.719253e+003;7.253484e-002
2.721181e+003;7.285718e-002
2.723110e+003;7.318553e-002
2.725038e+003;7.336909e-002
2.726967e+003;7.345612e-002
2.728896e+003;7.373513e-002
2.730824e+003;7.424612e-002
2.732752e+003;7.443725e-002
2.734681e+003;7.461651e-002
2.736610e+003;7.478797e-002
2.738538e+003;7.473893e-002
2.740467e+003;7.483748e-002
2.742395e+003;7.537673e-002
2.744324e+003;7.595102e-002
2.746252e+003;7.608511e-002
2.748181e+003;7.606205e-002
2.750109e+003;7.609438e-002
2.752038e+003;7.624546e-002
2.753967e+003;7.647964e-002
2.755895e+003;7.653760e-002
2.757824e+003;7.673509e-002
2.759752e+003;7.721249e-002
2.761681e+003;7.733905e-002
2.763609e+003;7.736371e-002
2.765538e+003;7.764944e-002
2.767466e+003;7.777966e-002
2.769395e+003;7.809236e-002
2.771323e+003;7.827365e-002
2.773252e+003;7.845096e-002
2.775181e+003;7.861576e-002
2.777109e+003;7.846208e-002
2.779038e+003;7.858904e-002
2.780966e+003;7.905187e-002
2.782895e+003;7.958674e-002
2.784823e+003;7.968641e-002
2.786752e+003;7.961667e-002
2.788680e+003;7.988656e-002
2.790609e+003;7.995392e-002
2.792538e+003;7.992767e-002
2.794466e+003;8.049114e-002
2.796395e+003;8.105107e-002
2.798323e+003;8.113925e-002
2.800252e+003;8.114289e-002
2.802180e+003;8.098906e-002
2.804109e+003;8.095253e-002
2.806037e+003;8.138108e-002
2.807966e+003;8.177961e-002
2.809895e+003;8.206105e-002
2.811823e+003;8.212470e-002
2.813751e+003;8.217474e-002
2.815680e+003;8.232034e-002
2.817609e+003;8.255713e-002
2.819537e+003;8.291443e-002
2.821466e+003;8.320950e-002
2.823394e+003;8.340876e-002
2.825323e+003;8.380477e-002
2.827251e+003;8.438602e-002
2.829180e+003;8.445033e-002
2.831108e+003;8.427908e-002
2.833037e+003;8.494519e-002
2.834966e+003;8.590291e-002
2.836894e+003;8.672985e-002
2.838823e+003;8.715324e-002
2.840751e+003;8.763089e-002
2.842680e+003;8.891366e-002
2.844608e+003;9.031506e-002
2.846537e+003;9.196817e-002
2.848465e+003;9.416934e-002
2.850394e+003;9.616113e-002
2.852323e+003;9.758166e-002
2.854251e+003;9.828211e-002
2.856180e+003;9.798455e-002
2.858108e+003;9.754977e-002
2.860037e+003;9.714189e-002
2.861965e+003;9.670769e-002
2.863894e+003;9.658314e-002
2.865822e+003;9.703574e-002
2.867751e+003;9.736659e-002
2.869679e+003;9.755001e-002
2.871608e+003;9.793606e-002
2.873536e+003;9.827774e-002
2.875465e+003;9.808700e-002
2.877394e+003;9.778352e-002
2.879322e+003;9.769687e-002
2.881251e+003;9.780755e-002
2.883179e+003;9.776783e-002
2.885108e+003;9.811632e-002
2.887036e+003;9.837490e-002
2.888965e+003;9.833978e-002
2.890893e+003;9.870373e-002
2.892822e+003;9.932727e-002
2.894750e+003;9.963425e-002
2.896679e+003;1.002897e-001
2.898608e+003;1.011439e-001
2.900536e+003;1.017693e-001
2.902465e+003;1.022839e-001
2.904393e+003;1.029949e-001
2.906322e+003;1.035606e-001
2.908250e+003;1.043538e-001
2.910179e+003;1.055321e-001
2.912107e+003;1.068657e-001
2.914036e+003;1.086251e-001
2.915965e+003;1.103998e-001
2.917893e+003;1.119264e-001
2.919822e+003;1.138223e-001
2.921750e+003;1.158270e-001
2.923679e+003;1.169543e-001
2.925607e+003;1.178544e-001
2.927536e+003;1.184222e-001
2.929464e+003;1.185073e-001
2.931393e+003;1.182911e-001
2.933322e+003;1.177025e-001
2.935250e+003;1.170146e-001
2.937178e+003;1.158476e-001
2.939107e+003;1.141446e-001
2.941036e+003;1.128357e-001
2.942964e+003;1.119190e-001
2.944893e+003;1.108918e-001
2.946821e+003;1.095694e-001
2.948750e+003;1.081514e-001
2.950678e+003;1.073815e-001
2.952607e+003;1.070600e-001
2.954535e+003;1.063513e-001
2.956464e+003;1.057756e-001
2.958393e+003;1.053253e-001
2.960321e+003;1.050061e-001
2.962250e+003;1.050803e-001
2.964178e+003;1.051956e-001
2.966107e+003;1.051222e-001
2.968035e+003;1.052729e-001
2.969964e+003;1.049730e-001
2.971892e+003;1.044346e-001
2.973821e+003;1.040866e-001
2.975750e+003;1.035146e-001
2.977678e+003;1.031217e-001
2.979607e+003;1.029514e-001
2.981535e+003;1.025995e-001
2.983464e+003;1.020021e-001
2.985392e+003;1.014519e-001
2.987321e+003;1.006907e-001
2.989249e+003;9.995136e-002
2.991178e+003;9.920834e-002
2.993106e+003;9.850640e-002
2.995035e+003;9.790833e-002
2.996964e+003;9.746296e-002
2.998892e+003;9.720376e-002
3.000821e+003;9.694912e-002
3.002749e+003;9.664494e-002
3.004678e+003;9.617022e-002
3.006606e+003;9.612181e-002
3.008535e+003;9.634288e-002
3.010463e+003;9.645180e-002
3.012392e+003;9.648619e-002
3.014321e+003;9.670467e-002
3.016249e+003;9.709411e-002
3.018177e+003;9.708475e-002
3.020106e+003;9.720024e-002
3.022035e+003;9.722391e-002
3.023963e+003;9.718379e-002
3.025892e+003;9.770840e-002
3.027820e+003;9.808201e-002
3.029749e+003;9.854294e-002
3.031677e+003;9.924902e-002
3.033606e+003;9.974821e-002
3.035534e+003;9.993948e-002
3.037463e+003;9.995679e-002
3.039392e+003;1.002664e-001
3.041320e+003;1.007817e-001
3.043249e+003;1.014842e-001
3.045177e+003;1.023944e-001
3.047106e+003;1.029766e-001
3.049034e+003;1.033196e-001
3.050963e+003;1.035107e-001
3.052891e+003;1.038191e-001
3.054820e+003;1.044792e-001
3.056749e+003;1.048430e-001
3.058677e+003;1.051724e-001
3.060606e+003;1.055776e-001
3.062534e+003;1.061870e-001
3.064463e+003;1.065569e-001
3.066391e+003;1.067500e-001
3.068320e+003;1.068550e-001
3.070248e+003;1.069315e-001
3.072177e+003;1.069800e-001
3.074105e+003;1.067590e-001
3.076034e+003;1.069084e-001
3.077963e+003;1.070470e-001
3.079891e+003;1.067468e-001
3.081820e+003;1.066997e-001
3.083748e+003;1.068611e-001
3.085677e+003;1.068617e-001
3.087605e+003;1.066431e-001
3.089534e+003;1.062961e-001
3.091462e+003;1.058443e-001
3.093391e+003;1.058192e-001
3.095320e+003;1.060464e-001
3.097248e+003;1.057818e-001
3.099177e+003;1.051076e-001
3.101105e+003;1.050206e-001
3.103034e+003;1.050874e-001
3.104962e+003;1.043967e-001
3.106891e+003;1.039890e-001
3.108819e+003;1.042498e-001
3.110748e+003;1.041501e-001
3.112677e+003;1.039616e-001
3.114605e+003;1.040177e-001
3.116533e+003;1.040643e-001
3.118462e+003;1.037671e-001
3.120391e+003;1.036282e-001
3.122319e+003;1.036645e-001
3.124248e+003;1.037292e-001
3.126176e+003;1.039954e-001
3.128105e+003;1.042417e-001
3.130033e+003;1.045758e-001
3.131962e+003;1.050945e-001
3.133890e+003;1.052614e-001
3.135819e+003;1.052532e-001
3.137748e+003;1.054431e-001
3.139676e+003;1.060135e-001
3.141605e+003;1.062533e-001
3.143533e+003;1.064302e-001
3.145462e+003;1.068688e-001
3.147390e+003;1.073295e-001
3.149319e+003;1.077645e-001
3.151247e+003;1.083810e-001
3.153176e+003;1.093847e-001
3.155104e+003;1.100339e-001
3.157033e+003;1.103671e-001
3.158962e+003;1.110102e-001
3.160890e+003;1.119049e-001
3.162819e+003;1.124676e-001
3.164747e+003;1.130087e-001
3.166676e+003;1.138958e-001
3.168604e+003;1.143536e-001
3.170533e+003;1.148377e-001
3.172461e+003;1.158039e-001
3.174390e+003;1.168742e-001
3.176319e+003;1.179024e-001
3.178247e+003;1.184191e-001
3.180176e+003;1.191800e-001
3.182104e+003;1.201741e-001
3.184033e+003;1.212904e-001
3.185961e+003;1.219946e-001
3.187890e+003;1.227041e-001
3.189818e+003;1.239518e-001
3.191747e+003;1.251811e-001
3.193676e+003;1.259645e-001
3.195604e+003;1.266676e-001
3.197532e+003;1.277937e-001
3.199461e+003;1.287583e-001
3.201390e+003;1.293188e-001
3.203318e+003;1.302959e-001
3.205247e+003;1.314976e-001
3.207175e+003;1.325599e-001
3.209104e+003;1.334309e-001
3.211032e+003;1.345720e-001
3.212961e+003;1.360541e-001
3.214889e+003;1.370697e-001
3.216818e+003;1.379479e-001
3.218747e+003;1.390655e-001
3.220675e+003;1.400735e-001
3.222604e+003;1.412998e-001
3.224532e+003;1.425834e-001
3.226461e+003;1.433134e-001
3.228389e+003;1.443963e-001
3.230318e+003;1.459592e-001
3.232246e+003;1.473408e-001
3.234175e+003;1.486173e-001
3.236104e+003;1.498621e-001
3.238032e+003;1.508972e-001
3.239961e+003;1.523560e-001
3.241889e+003;1.543390e-001
3.243818e+003;1.564103e-001
3.245746e+003;1.582745e-001
3.247675e+003;1.598480e-001
3.249603e+003;1.615098e-001
3.251532e+003;1.628812e-001
3.253460e+003;1.644551e-001
3.255389e+003;1.668540e-001
3.257318e+003;1.690911e-001
3.259246e+003;1.710705e-001
3.261175e+003;1.729876e-001
3.263103e+003;1.747330e-001
3.265032e+003;1.767823e-001
3.266960e+003;1.788525e-001
3.268889e+003;1.804053e-001
3.270817e+003;1.815630e-001
3.272746e+003;1.827197e-001
3.274675e+003;1.837352e-001
3.276603e+003;1.847484e-001
3.278531e+003;1.854542e-001
3.280460e+003;1.854987e-001
3.282389e+003;1.853280e-001
3.284317e+003;1.849481e-001
3.286246e+003;1.841036e-001
3.288174e+003;1.828611e-001
3.290103e+003;1.816310e-001
3.292031e+003;1.797423e-001
3.293960e+003;1.778593e-001
3.295888e+003;1.763015e-001
3.297817e+003;1.744963e-001
3.299746e+003;1.722813e-001
3.301674e+003;1.703097e-001
3.303603e+003;1.682826e-001
3.305531e+003;1.658985e-001
3.307460e+003;1.630817e-001
3.309388e+003;1.605532e-001
3.311317e+003;1.583327e-001
3.313245e+003;1.560657e-001
3.315174e+003;1.539902e-001
3.317103e+003;1.522146e-001
3.319031e+003;1.499022e-001
3.320960e+003;1.473653e-001
3.322888e+003;1.451562e-001
3.324817e+003;1.434937e-001
3.326745e+003;1.420372e-001
3.328674e+003;1.400588e-001
3.330602e+003;1.377558e-001
3.332531e+003;1.357610e-001
3.334459e+003;1.338180e-001
3.336388e+003;1.318409e-001
3.338317e+003;1.302440e-001
3.340245e+003;1.289157e-001
3.342174e+003;1.277221e-001
3.344102e+003;1.264587e-001
3.346031e+003;1.250451e-001
3.347959e+003;1.239273e-001
3.349888e+003;1.229991e-001
3.351816e+003;1.218083e-001
3.353745e+003;1.203959e-001
3.355674e+003;1.193089e-001
3.357602e+003;1.184796e-001
3.359531e+003;1.177241e-001
3.361459e+003;1.171148e-001
3.363388e+003;1.163977e-001
3.365316e+003;1.155216e-001
3.367245e+003;1.145268e-001
3.369173e+003;1.134990e-001
3.371102e+003;1.130107e-001
3.373031e+003;1.128599e-001
3.374959e+003;1.123031e-001
3.376887e+003;1.111996e-001
3.378816e+003;1.101152e-001
3.380745e+003;1.098145e-001
3.382673e+003;1.095155e-001
3.384602e+003;1.087991e-001
3.386530e+003;1.081802e-001
3.388459e+003;1.076732e-001
3.390387e+003;1.070758e-001
3.392316e+003;1.063628e-001
3.394244e+003;1.057269e-001
3.396173e+003;1.053208e-001
3.398102e+003;1.046646e-001
3.400030e+003;1.037153e-001
3.401959e+003;1.030305e-001
3.403887e+003;1.030511e-001
3.405816e+003;1.024991e-001
3.407744e+003;1.015396e-001
3.409673e+003;1.012555e-001
3.411601e+003;1.009631e-001
3.413530e+003;1.005201e-001
3.415458e+003;9.972357e-002
3.417387e+003;9.875419e-002
3.419316e+003;9.758299e-002
3.421244e+003;9.676801e-002
3.423173e+003;9.660069e-002
3.425101e+003;9.666029e-002
3.427030e+003;9.624813e-002
3.428958e+003;9.526315e-002
3.430887e+003;9.451454e-002
3.432815e+003;9.396784e-002
3.434744e+003;9.332020e-002
3.436673e+003;9.279063e-002
3.438601e+003;9.248190e-002
3.440530e+003;9.192215e-002
3.442458e+003;9.141535e-002
3.444387e+003;9.117633e-002
3.446315e+003;9.078031e-002
3.448244e+003;9.015281e-002
3.450172e+003;8.958303e-002
3.452101e+003;8.927388e-002
3.454030e+003;8.909977e-002
3.455958e+003;8.902310e-002
3.457886e+003;8.884203e-002
3.459815e+003;8.815099e-002
3.461744e+003;8.758901e-002
3.463672e+003;8.715292e-002
3.465601e+003;8.671945e-002
3.467529e+003;8.657197e-002
3.469458e+003;8.659413e-002
3.471386e+003;8.619900e-002
3.473315e+003;8.582962e-002
3.475243e+003;8.585251e-002
3.477172e+003;8.565459e-002
3.479101e+003;8.508761e-002
3.481029e+003;8.467657e-002
3.482958e+003;8.459769e-002
3.484886e+003;8.423334e-002
3.486815e+003;8.342072e-002
3.488743e+003;8.290625e-002
3.490672e+003;8.281042e-002
3.492600e+003;8.281122e-002
3.494529e+003;8.238871e-002
3.496458e+003;8.189911e-002
3.498386e+003;8.160248e-002
3.500315e+003;8.169106e-002
3.502243e+003;8.139714e-002
3.504172e+003;8.067535e-002
3.506100e+003;8.026910e-002
3.508029e+003;8.030780e-002
3.509957e+003;8.022693e-002
3.511886e+003;7.997033e-002
3.513814e+003;7.978430e-002
3.515743e+003;7.913742e-002
3.517672e+003;7.893435e-002
3.519600e+003;7.868073e-002
3.521529e+003;7.799535e-002
3.523457e+003;7.756875e-002
3.525386e+003;7.738086e-002
3.527314e+003;7.732963e-002
3.529243e+003;7.718985e-002
3.531171e+003;7.675399e-002
3.533100e+003;7.618543e-002
3.535029e+003;7.541642e-002
3.536957e+003;7.478281e-002
3.538885e+003;7.431924e-002
3.540814e+003;7.394784e-002
3.542743e+003;7.390051e-002
3.544671e+003;7.356993e-002
3.546600e+003;7.271343e-002
3.548528e+003;7.235871e-002
3.550457e+003;7.236920e-002
3.552385e+003;7.219027e-002
3.554314e+003;7.162969e-002
3.556242e+003;7.088368e-002
3.558171e+003;7.042611e-002
3.560100e+003;7.007921e-002
3.562028e+003;6.960752e-002
3.563957e+003;6.968252e-002
3.565885e+003;6.952912e-002
3.567814e+003;6.895874e-002
3.569742e+003;6.864802e-002
3.571671e+003;6.845479e-002
3.573599e+003;6.797909e-002
3.575528e+003;6.736510e-002
3.577457e+003;6.708732e-002
3.579385e+003;6.671850e-002
3.581314e+003;6.634119e-002
3.583242e+003;6.620089e-002
3.585171e+003;6.608930e-002
3.587099e+003;6.602608e-002
3.589028e+003;6.572137e-002
3.590956e+003;6.512587e-002
3.592885e+003;6.451962e-002
3.594813e+003;6.399979e-002
3.596742e+003;6.406871e-002
3.598671e+003;6.399740e-002
3.600599e+003;6.357266e-002
3.602528e+003;6.290415e-002
3.604456e+003;6.240005e-002
3.606385e+003;6.195780e-002
3.608313e+003;6.150507e-002
3.610242e+003;6.132695e-002
3.612170e+003;6.086268e-002
3.614099e+003;6.054584e-002
3.616028e+003;6.023620e-002
3.617956e+003;5.957443e-002
3.619885e+003;5.930262e-002
3.621813e+003;5.894214e-002
3.623742e+003;5.867095e-002
3.625670e+003;5.824774e-002
3.627599e+003;5.725801e-002
3.629527e+003;5.680631e-002
3.631456e+003;5.704844e-002
3.633385e+003;5.624040e-002
3.635313e+003;5.542765e-002
3.637241e+003;5.481027e-002
3.639170e+003;5.409268e-002
3.641099e+003;5.370649e-002
3.643027e+003;5.334874e-002
3.644956e+003;5.302951e-002
3.646884e+003;5.250761e-002
3.648813e+003;5.193003e-002
3.650741e+003;5.116998e-002
3.652670e+003;5.055918e-002
3.654598e+003;5.017258e-002
3.656527e+003;4.967914e-002
3.658456e+003;4.912526e-002
3.660384e+003;4.863601e-002
3.662313e+003;4.785171e-002
3.664241e+003;4.690855e-002
3.666170e+003;4.646769e-002
3.668098e+003;4.590489e-002
3.670027e+003;4.514704e-002
3.671955e+003;4.490807e-002
3.673884e+003;4.442163e-002
3.675813e+003;4.409847e-002
3.677741e+003;4.415771e-002
3.679669e+003;4.362295e-002
3.681598e+003;4.286300e-002
3.683527e+003;4.245016e-002
3.685455e+003;4.201169e-002
3.687384e+003;4.130487e-002
3.689312e+003;4.067495e-002
3.691241e+003;4.023438e-002
3.693169e+003;3.941520e-002
3.695098e+003;3.884384e-002
3.697026e+003;3.858075e-002
3.698955e+003;3.854849e-002
3.700884e+003;3.829383e-002
3.702812e+003;3.769330e-002
3.704741e+003;3.723293e-002
3.706669e+003;3.656725e-002
3.708598e+003;3.587884e-002
3.710526e+003;3.557071e-002
3.712455e+003;3.572890e-002
3.714383e+003;3.592980e-002
3.716312e+003;3.564530e-002
3.718240e+003;3.517003e-002
3.720169e+003;3.516047e-002
3.722098e+003;3.534565e-002
3.724026e+003;3.533123e-002
3.725955e+003;3.488032e-002
3.727883e+003;3.442701e-002
3.729812e+003;3.407389e-002
3.731740e+003;3.346685e-002
3.733669e+003;3.344130e-002
3.735597e+003;3.398778e-002
3.737526e+003;3.398907e-002
3.739455e+003;3.391981e-002
3.741383e+003;3.376650e-002
3.743312e+003;3.331016e-002
3.745240e+003;3.300836e-002
3.747169e+003;3.310708e-002
3.749097e+003;3.330430e-002
3.751026e+003;3.323379e-002
3.752954e+003;3.298309e-002
3.754883e+003;3.308430e-002
3.756812e+003;3.326602e-002
3.758740e+003;3.309675e-002
3.760668e+003;3.295985e-002
3.762597e+003;3.304858e-002
3.764526e+003;3.281935e-002
3.766454e+003;3.268354e-002
3.768383e+003;3.252903e-002
3.770311e+003;3.246586e-002
3.772240e+003;3.258764e-002
3.774168e+003;3.242966e-002
3.776097e+003;3.219052e-002
3.778025e+003;3.202879e-002
3.779954e+003;3.206714e-002
3.781883e+003;3.236433e-002
3.783811e+003;3.235587e-002
3.785740e+003;3.215202e-002
3.787668e+003;3.216004e-002
3.789597e+003;3.236911e-002
3.791525e+003;3.232788e-002
3.793454e+003;3.240785e-002
3.795382e+003;3.229690e-002
3.797311e+003;3.223683e-002
3.799240e+003;3.239749e-002
3.801168e+003;3.219540e-002
3.803097e+003;3.212329e-002
3.805025e+003;3.252903e-002
3.806954e+003;3.280052e-002
3.808882e+003;3.262775e-002
3.810811e+003;3.242423e-002
3.812739e+003;3.243969e-002
3.814668e+003;3.211056e-002
3.816596e+003;3.198845e-002
3.818525e+003;3.204470e-002
3.820454e+003;3.206942e-002
3.822382e+003;3.225204e-002
3.824311e+003;3.267822e-002
3.826239e+003;3.304021e-002
3.828168e+003;3.298831e-002
3.830096e+003;3.286006e-002
3.832025e+003;3.274918e-002
3.833953e+003;3.284494e-002
3.835882e+003;3.261457e-002
3.837811e+003;3.236590e-002
3.839739e+003;3.249364e-002
3.841667e+003;3.262418e-002
3.843596e+003;3.273463e-002
3.845525e+003;3.258964e-002
3.847453e+003;3.243216e-002
3.849382e+003;3.267736e-002
3.851310e+003;3.304172e-002
3.853239e+003;3.294123e-002
3.855167e+003;3.300035e-002
3.857096e+003;3.343332e-002
3.859024e+003;3.358909e-002
3.860953e+003;3.351800e-002
3.862882e+003;3.369471e-002
3.864810e+003;3.382076e-002
3.866739e+003;3.359324e-002
3.868667e+003;3.379967e-002
3.870596e+003;3.434846e-002
3.872524e+003;3.458324e-002
3.874453e+003;3.422755e-002
3.876381e+003;3.418425e-002
3.878310e+003;3.426208e-002
3.880239e+003;3.421562e-002
3.882167e+003;3.435485e-002
3.884096e+003;3.420429e-002
3.886024e+003;3.409091e-002
3.887953e+003;3.439350e-002
3.889881e+003;3.446208e-002
3.891810e+003;3.437762e-002
3.893738e+003;3.443117e-002
3.895667e+003;3.440480e-002
3.897595e+003;3.481656e-002
3.899524e+003;3.555251e-002
3.901453e+003;3.565329e-002
3.903381e+003;3.522557e-002
3.905310e+003;3.539698e-002
3.907238e+003;3.559189e-002
3.909167e+003;3.579028e-002
3.911095e+003;3.618405e-002
3.913024e+003;3.602644e-002
3.914952e+003;3.565217e-002
3.916881e+003;3.588704e-002
3.918810e+003;3.638339e-002
3.920738e+003;3.658228e-002
3.922667e+003;3.651199e-002
3.924595e+003;3.640972e-002
3.926524e+003;3.658278e-002
3.928452e+003;3.679371e-002
3.930381e+003;3.667370e-002
3.932309e+003;3.660484e-002
3.934238e+003;3.677957e-002
3.936167e+003;3.690223e-002
3.938095e+003;3.673629e-002
3.940023e+003;3.655860e-002
3.941952e+003;3.680041e-002
3.943881e+003;3.727636e-002
3.945809e+003;3.747895e-002
3.947738e+003;3.748292e-002
3.949666e+003;3.732456e-002
3.951595e+003;3.718214e-002
3.953523e+003;3.702082e-002
3.955452e+003;3.708054e-002
3.957380e+003;3.733709e-002
3.959309e+003;3.732077e-002
3.961238e+003;3.726585e-002
3.963166e+003;3.733879e-002
3.965095e+003;3.778308e-002
3.967023e+003;3.813029e-002
3.968952e+003;3.768239e-002
3.970880e+003;3.763584e-002
3.972809e+003;3.812772e-002
3.974737e+003;3.826774e-002
3.976666e+003;3.831428e-002
3.978594e+003;3.808616e-002
3.980523e+003;3.804084e-002
3.982452e+003;3.823698e-002
3.984380e+003;3.830849e-002
3.986309e+003;3.842815e-002
3.988237e+003;3.827389e-002
3.990166e+003;3.813991e-002
3.992094e+003;3.847716e-002
3.994023e+003;3.869393e-002
3.995951e+003;3.824339e-002
3.997880e+003;3.787103e-002
3.999809e+003;3.772771e-002
4.001737e+003;0.000000e+000
