3.992094e+002;0.000000e+000
4.011380e+002;0.000000e+000
4.030665e+002;0.000000e+000
4.049951e+002;0.000000e+000
4.069236e+002;0.000000e+000
4.088522e+002;0.000000e+000
4.107807e+002;0.000000e+000
4.127093e+002;0.000000e+000
4.146378e+002;0.000000e+000
4.165664e+002;0.000000e+000
4.184949e+002;0.000000e+000
4.204235e+002;0.000000e+000
4.223520e+002;0.000000e+000
4.242806e+002;0.000000e+000
4.262091e+002;0.000000e+000
4.281377e+002;0.000000e+000
4.300662e+002;0.000000e+000
4.319948e+002;0.000000e+000
4.339233e+002;0.000000e+000
4.358519e+002;0.000000e+000
4.377804e+002;0.000000e+000
4.397090e+002;0.000000e+000
4.416375e+002;0.000000e+000
4.435660e+002;0.000000e+000
4.454946e+002;0.000000e+000
4.474232e+002;0.000000e+000
4.493517e+002;0.000000e+000
4.512802e+002;0.000000e+000
4.532088e+002;0.000000e+000
4.551373e+002;0.000000e+000
4.570659e+002;0.000000e+000
4.589944e+002;0.000000e+000
4.609230e+002;0.000000e+000
4.628515e+002;0.000000e+000
4.647801e+002;0.000000e+000
4.667086e+002;0.000000e+000
4.686372e+002;0.000000e+000
4.705657e+002;0.000000e+000
4.724943e+002;0.000000e+000
4.744228e+002;0.000000e+000
4.763513e+002;0.000000e+000
4.782799e+002;0.000000e+000
4.802085e+002;0.000000e+000
4.821370e+002;0.000000e+000
4.840656e+002;0.000000e+000
4.859941e+002;0.000000e+000
4.879226e+002;0.000000e+000
4.898512e+002;0.000000e+000
4.917798e+002;0.000000e+000
4.937083e+002;0.000000e+000
4.956368e+002;0.000000e+000
4.975654e+002;0.000000e+000
4.994939e+002;0.000000e+000
5.014225e+002;0.000000e+000
5.033510e+002;0.000000e+000
5.052796e+002;0.000000e+000
5.072081e+002;0.000000e+000
5.091367e+002;0.000000e+000
5.110652e+002;0.000000e+000
5.129938e+002;0.000000e+000
5.149223e+002;0.000000e+000
5.168509e+002;0.000000e+000
5.187794e+002;0.000000e+000
5.207079e+002;0.000000e+000
5.226365e+002;0.000000e+000
5.245651e+002;0.000000e+000
5.264936e+002;0.000000e+000
5.284222e+002;0.000000e+000
5.303507e+002;0.000000e+000
5.322792e+002;0.000000e+000
5.342078e+002;0.000000e+000
5.361364e+002;0.000000e+000
5.380649e+002;0.000000e+000
5.399935e+002;0.000000e+000
5.419220e+002;0.000000e+000
5.438505e+002;0.000000e+000
5.457791e+002;0.000000e+000
5.477076e+002;0.000000e+000
5.496362e+002;0.000000e+000
5.515648e+002;0.000000e+000
5.534933e+002;0.000000e+000
5.554218e+002;0.000000e+000
5.573504e+002;0.000000e+000
5.592789e+002;0.000000e+000
5.612075e+002;0.000000e+000
5.631360e+002;0.000000e+000
5.650646e+002;0.000000e+000
5.669931e+002;0.000000e+000
5.689217e+002;0.000000e+000
5.708502e+002;0.000000e+000
5.727787e+002;0.000000e+000
5.747073e+002;0.000000e+000
5.766359e+002;0.000000e+000
5.785644e+002;0.000000e+000
5.804930e+002;0.000000e+000
5.824215e+002;0.000000e+000
5.843500e+002;0.000000e+000
5.862786e+002;0.000000e+000
5.882072e+002;0.000000e+000
5.901357e+002;0.000000e+000
5.920643e+002;0.000000e+000
5.939928e+002;0.000000e+000
5.959213e+002;0.000000e+000
5.978499e+002;0.000000e+000
5.997784e+002;1.858714e-001
6.017070e+002;1.904562e-001
6.036355e+002;1.945536e-001
6.055641e+002;1.922276e-001
6.074926e+002;1.932946e-001
6.094211e+002;1.941166e-001
6.113497e+002;1.942876e-001
6.132783e+002;1.966814e-001
6.152068e+002;1.954614e-001
6.171354e+002;1.929535e-001
6.190639e+002;1.944316e-001
6.209924e+002;1.964405e-001
6.229210e+002;1.900481e-001
6.248495e+002;1.859683e-001
6.267781e+002;1.851850e-001
6.287067e+002;1.864889e-001
6.306352e+002;1.878018e-001
6.325637e+002;1.856488e-001
6.344923e+002;1.845622e-001
6.364208e+002;1.856384e-001
6.383494e+002;1.868637e-001
6.402780e+002;1.849830e-001
6.422065e+002;1.838064e-001
6.441350e+002;1.832279e-001
6.460636e+002;1.814688e-001
6.479921e+002;1.800010e-001
6.499207e+002;1.788844e-001
6.518492e+002;1.787584e-001
6.537778e+002;1.790983e-001
6.557063e+002;1.769618e-001
6.576349e+002;1.752493e-001
6.595634e+002;1.745269e-001
6.614919e+002;1.765119e-001
6.634205e+002;1.792061e-001
6.653491e+002;1.789927e-001
6.672776e+002;1.767278e-001
6.692062e+002;1.760304e-001
6.711347e+002;1.751628e-001
6.730632e+002;1.731773e-001
6.749918e+002;1.724460e-001
6.769203e+002;1.724287e-001
6.788489e+002;1.739890e-001
6.807775e+002;1.751875e-001
6.827060e+002;1.728908e-001
6.846345e+002;1.702009e-001
6.865631e+002;1.701527e-001
6.884916e+002;1.701010e-001
6.904202e+002;1.701902e-001
6.923488e+002;1.693400e-001
6.942773e+002;1.683526e-001
6.962058e+002;1.675064e-001
6.981344e+002;1.648757e-001
7.000629e+002;1.627287e-001
7.019915e+002;1.621232e-001
7.039200e+002;1.603546e-001
7.058486e+002;1.572198e-001
7.077771e+002;1.552082e-001
7.097057e+002;1.543948e-001
7.116342e+002;1.532694e-001
7.135627e+002;1.511389e-001
7.154913e+002;1.492298e-001
7.174199e+002;1.473312e-001
7.193484e+002;1.444811e-001
7.212770e+002;1.427208e-001
7.232055e+002;1.418997e-001
7.251340e+002;1.403899e-001
7.270626e+002;1.380839e-001
7.289911e+002;1.356264e-001
7.309197e+002;1.339260e-001
7.328483e+002;1.311810e-001
7.347768e+002;1.291993e-001
7.367053e+002;1.275985e-001
7.386339e+002;1.255558e-001
7.405624e+002;1.226764e-001
7.424910e+002;1.204905e-001
7.444196e+002;1.192211e-001
7.463481e+002;1.180590e-001
7.482766e+002;1.164942e-001
7.502052e+002;1.145487e-001
7.521337e+002;1.121800e-001
7.540623e+002;1.104754e-001
7.559908e+002;1.094828e-001
7.579194e+002;1.089092e-001
7.598479e+002;1.078097e-001
7.617765e+002;1.062198e-001
7.637050e+002;1.052937e-001
7.656335e+002;1.043193e-001
7.675621e+002;1.031461e-001
7.694907e+002;1.024294e-001
7.714192e+002;1.013569e-001
7.733478e+002;9.960715e-002
7.752763e+002;9.770496e-002
7.772048e+002;9.652628e-002
7.791334e+002;9.584267e-002
7.810620e+002;9.494201e-002
7.829905e+002;9.411667e-002
7.849191e+002;9.314377e-002
7.868476e+002;9.139968e-002
7.887761e+002;8.978067e-002
7.907047e+002;8.886849e-002
7.926332e+002;8.753883e-002
7.945618e+002;8.599029e-002
7.964903e+002;8.555653e-002
7.984189e+002;8.594134e-002
8.003474e+002;8.529269e-002
8.022759e+002;8.405895e-002
8.042045e+002;8.322471e-002
8.061331e+002;8.300792e-002
8.080616e+002;8.326661e-002
8.099902e+002;8.266807e-002
8.119187e+002;8.237273e-002
8.138472e+002;8.297391e-002
8.157758e+002;8.278331e-002
8.177043e+002;8.245969e-002
8.196329e+002;8.254227e-002
8.215615e+002;8.256118e-002
8.234900e+002;8.261380e-002
8.254185e+002;8.311813e-002
8.273471e+002;8.425091e-002
8.292756e+002;8.477181e-002
8.312042e+002;8.400793e-002
8.331328e+002;8.270098e-002
8.350613e+002;8.157434e-002
8.369898e+002;8.015814e-002
8.389184e+002;7.980585e-002
8.408469e+002;7.943816e-002
8.427755e+002;7.880688e-002
8.447040e+002;7.872466e-002
8.466326e+002;7.898538e-002
8.485611e+002;7.919877e-002
8.504897e+002;7.930984e-002
8.524182e+002;7.911615e-002
8.543467e+002;7.845136e-002
8.562753e+002;7.695133e-002
8.582039e+002;7.518010e-002
8.601324e+002;7.296044e-002
8.620610e+002;7.096458e-002
8.639895e+002;6.968154e-002
8.659180e+002;6.862985e-002
8.678466e+002;6.840643e-002
8.697751e+002;6.874951e-002
8.717037e+002;6.856618e-002
8.736323e+002;6.847718e-002
8.755608e+002;6.850519e-002
8.774893e+002;6.820060e-002
8.794179e+002;6.741745e-002
8.813464e+002;6.704077e-002
8.832750e+002;6.723069e-002
8.852036e+002;6.694806e-002
8.871321e+002;6.668199e-002
8.890606e+002;6.642300e-002
8.909892e+002;6.600386e-002
8.929177e+002;6.601886e-002
8.948463e+002;6.584509e-002
8.967748e+002;6.556227e-002
8.987034e+002;6.552213e-002
9.006319e+002;6.556933e-002
9.025605e+002;6.590369e-002
9.044890e+002;6.589109e-002
9.064175e+002;6.562104e-002
9.083461e+002;6.558166e-002
9.102747e+002;6.600317e-002
9.122032e+002;6.659172e-002
9.141318e+002;6.725332e-002
9.160603e+002;6.817086e-002
9.179888e+002;6.923037e-002
9.199174e+002;7.036525e-002
9.218459e+002;7.165676e-002
9.237745e+002;7.288488e-002
9.257031e+002;7.355686e-002
9.276316e+002;7.407306e-002
9.295601e+002;7.431267e-002
9.314887e+002;7.451784e-002
9.334172e+002;7.482088e-002
9.353458e+002;7.475019e-002
9.372744e+002;7.501112e-002
9.392029e+002;7.555551e-002
9.411314e+002;7.542553e-002
9.430600e+002;7.560066e-002
9.449885e+002;7.627378e-002
9.469171e+002;7.686689e-002
9.488456e+002;7.739203e-002
9.507742e+002;7.823806e-002
9.527027e+002;7.944330e-002
9.546313e+002;8.049469e-002
9.565598e+002;8.140697e-002
9.584883e+002;8.245032e-002
9.604169e+002;8.354706e-002
9.623455e+002;8.457515e-002
9.642740e+002;8.549161e-002
9.662026e+002;8.694659e-002
9.681311e+002;8.877072e-002
9.700596e+002;9.034513e-002
9.719882e+002;9.190249e-002
9.739167e+002;9.343576e-002
9.758453e+002;9.455273e-002
9.777739e+002;9.521128e-002
9.797024e+002;9.540358e-002
9.816309e+002;9.535442e-002
9.835595e+002;9.552272e-002
9.854880e+002;9.669801e-002
9.874166e+002;9.880706e-002
9.893452e+002;1.013499e-001
9.912737e+002;1.041874e-001
9.932022e+002;1.071105e-001
9.951307e+002;1.098612e-001
9.970593e+002;1.121945e-001
9.989879e+002;1.139313e-001
1.000916e+003;1.149543e-001
1.002845e+003;1.158234e-001
1.004773e+003;1.171310e-001
1.006702e+003;1.180251e-001
1.008631e+003;1.189115e-001
1.010559e+003;1.202402e-001
1.012488e+003;1.207436e-001
1.014416e+003;1.211351e-001
1.016345e+003;1.213337e-001
1.018273e+003;1.209225e-001
1.020202e+003;1.207100e-001
1.022130e+003;1.206273e-001
1.024059e+003;1.212575e-001
1.025988e+003;1.225768e-001
1.027916e+003;1.237052e-001
1.029845e+003;1.251947e-001
1.031773e+003;1.267124e-001
1.033702e+003;1.279983e-001
1.035630e+003;1.293960e-001
1.037559e+003;1.301287e-001
1.039487e+003;1.308852e-001
1.041416e+003;1.316610e-001
1.043344e+003;1.319926e-001
1.045273e+003;1.319667e-001
1.047202e+003;1.317138e-001
1.049130e+003;1.315696e-001
1.051059e+003;1.315935e-001
1.052987e+003;1.323507e-001
1.054916e+003;1.332308e-001
1.056844e+003;1.334674e-001
1.058773e+003;1.333596e-001
1.060701e+003;1.333040e-001
1.062630e+003;1.329776e-001
1.064558e+003;1.322709e-001
1.066487e+003;1.317569e-001
1.068416e+003;1.310381e-001
1.070344e+003;1.296054e-001
1.072273e+003;1.285829e-001
1.074201e+003;1.282374e-001
1.076130e+003;1.271510e-001
1.078058e+003;1.249394e-001
1.079987e+003;1.223817e-001
1.081915e+003;1.196858e-001
1.083844e+003;1.172075e-001
1.085773e+003;1.143632e-001
1.087701e+003;1.117994e-001
1.089630e+003;1.094517e-001
1.091558e+003;1.072408e-001
1.093487e+003;1.056440e-001
1.095415e+003;1.050655e-001
1.097344e+003;1.046529e-001
1.099272e+003;1.042791e-001
1.101201e+003;1.038262e-001
1.103129e+003;1.035500e-001
1.105058e+003;1.030770e-001
1.106987e+003;1.022719e-001
1.108915e+003;1.011430e-001
1.110844e+003;9.987930e-002
1.112772e+003;9.882253e-002
1.114701e+003;9.791136e-002
1.116629e+003;9.741485e-002
1.118558e+003;9.725677e-002
1.120486e+003;9.730059e-002
1.122415e+003;9.731883e-002
1.124344e+003;9.693640e-002
1.126272e+003;9.670008e-002
1.128201e+003;9.705935e-002
1.130129e+003;9.750277e-002
1.132058e+003;9.801611e-002
1.133986e+003;9.875090e-002
1.135915e+003;9.989715e-002
1.137843e+003;1.012716e-001
1.139772e+003;1.026191e-001
1.141700e+003;1.043642e-001
1.143629e+003;1.061736e-001
1.145557e+003;1.084117e-001
1.147486e+003;1.107524e-001
1.149415e+003;1.124903e-001
1.151343e+003;1.146201e-001
1.153272e+003;1.171198e-001
1.155200e+003;1.188437e-001
1.157129e+003;1.199150e-001
1.159057e+003;1.208997e-001
1.160986e+003;1.216385e-001
1.162914e+003;1.223095e-001
1.164843e+003;1.225788e-001
1.166771e+003;1.221152e-001
1.168700e+003;1.219812e-001
1.170629e+003;1.219908e-001
1.172557e+003;1.208796e-001
1.174486e+003;1.191293e-001
1.176414e+003;1.171554e-001
1.178343e+003;1.151574e-001
1.180271e+003;1.137499e-001
1.182200e+003;1.127576e-001
1.184128e+003;1.120281e-001
1.186057e+003;1.119157e-001
1.187986e+003;1.126779e-001
1.189914e+003;1.140318e-001
1.191843e+003;1.155660e-001
1.193771e+003;1.175418e-001
1.195700e+003;1.204301e-001
1.197628e+003;1.236252e-001
1.199557e+003;1.269799e-001
1.201485e+003;1.308962e-001
1.203414e+003;1.348212e-001
1.205343e+003;1.387833e-001
1.207271e+003;1.429263e-001
1.209200e+003;1.469346e-001
1.211128e+003;1.507529e-001
1.213057e+003;1.545551e-001
1.214985e+003;1.580341e-001
1.216914e+003;1.607450e-001
1.218842e+003;1.631052e-001
1.220771e+003;1.655779e-001
1.222699e+003;1.679348e-001
1.224628e+003;1.698084e-001
1.226557e+003;1.709718e-001
1.228485e+003;1.714043e-001
1.230414e+003;1.714899e-001
1.232342e+003;1.708797e-001
1.234271e+003;1.697564e-001
1.236199e+003;1.687842e-001
1.238128e+003;1.674296e-001
1.240056e+003;1.653021e-001
1.241985e+003;1.632951e-001
1.243913e+003;1.613971e-001
1.245842e+003;1.594158e-001
1.247771e+003;1.579548e-001
1.249699e+003;1.567836e-001
1.251628e+003;1.556681e-001
1.253556e+003;1.544577e-001
1.255485e+003;1.532449e-001
1.257413e+003;1.522319e-001
1.259342e+003;1.508959e-001
1.261270e+003;1.491777e-001
1.263199e+003;1.475576e-001
1.265127e+003;1.458681e-001
1.267056e+003;1.436325e-001
1.268985e+003;1.411775e-001
1.270913e+003;1.391677e-001
1.272842e+003;1.368672e-001
1.274770e+003;1.342536e-001
1.276699e+003;1.318501e-001
1.278627e+003;1.300477e-001
1.280556e+003;1.282991e-001
1.282484e+003;1.265441e-001
1.284413e+003;1.251776e-001
1.286342e+003;1.241949e-001
1.288270e+003;1.232080e-001
1.290199e+003;1.223768e-001
1.292127e+003;1.215836e-001
1.294056e+003;1.210863e-001
1.295984e+003;1.207360e-001
1.297913e+003;1.202632e-001
1.299841e+003;1.198758e-001
1.301770e+003;1.193834e-001
1.303698e+003;1.190187e-001
1.305627e+003;1.185394e-001
1.307556e+003;1.179432e-001
1.309484e+003;1.175774e-001
1.311413e+003;1.172054e-001
1.313341e+003;1.165788e-001
1.315270e+003;1.161406e-001
1.317198e+003;1.157897e-001
1.319127e+003;1.155143e-001
1.321055e+003;1.157766e-001
1.322984e+003;1.163814e-001
1.324912e+003;1.168486e-001
1.326841e+003;1.172874e-001
1.328770e+003;1.178174e-001
1.330698e+003;1.182950e-001
1.332627e+003;1.184782e-001
1.334555e+003;1.185957e-001
1.336484e+003;1.185749e-001
1.338412e+003;1.184012e-001
1.340341e+003;1.183343e-001
1.342269e+003;1.183424e-001
1.344198e+003;1.181168e-001
1.346126e+003;1.178187e-001
1.348055e+003;1.175476e-001
1.349984e+003;1.174816e-001
1.351912e+003;1.177333e-001
1.353841e+003;1.181400e-001
1.355769e+003;1.188990e-001
1.357698e+003;1.202131e-001
1.359626e+003;1.220020e-001
1.361555e+003;1.242257e-001
1.363483e+003;1.266925e-001
1.365412e+003;1.290839e-001
1.367341e+003;1.310526e-001
1.369269e+003;1.325607e-001
1.371198e+003;1.331991e-001
1.373126e+003;1.331844e-001
1.375055e+003;1.330771e-001
1.376983e+003;1.328438e-001
1.378912e+003;1.326658e-001
1.380840e+003;1.326747e-001
1.382769e+003;1.325418e-001
1.384698e+003;1.324723e-001
1.386626e+003;1.326870e-001
1.388555e+003;1.326811e-001
1.390483e+003;1.326475e-001
1.392412e+003;1.327724e-001
1.394340e+003;1.327933e-001
1.396269e+003;1.330210e-001
1.398197e+003;1.334781e-001
1.400126e+003;1.342642e-001
1.402054e+003;1.353298e-001
1.403983e+003;1.362135e-001
1.405911e+003;1.369930e-001
1.407840e+003;1.379657e-001
1.409769e+003;1.389614e-001
1.411697e+003;1.398893e-001
1.413626e+003;1.405129e-001
1.415554e+003;1.406716e-001
1.417483e+003;1.407468e-001
1.419411e+003;1.408718e-001
1.421340e+003;1.413304e-001
1.423268e+003;1.421603e-001
1.425197e+003;1.433681e-001
1.427125e+003;1.453776e-001
1.429054e+003;1.480443e-001
1.430983e+003;1.507602e-001
1.432911e+003;1.534498e-001
1.434840e+003;1.566317e-001
1.436768e+003;1.598451e-001
1.438697e+003;1.626658e-001
1.440625e+003;1.648414e-001
1.442554e+003;1.661728e-001
1.444482e+003;1.668929e-001
1.446411e+003;1.668049e-001
1.448340e+003;1.655456e-001
1.450268e+003;1.636352e-001
1.452197e+003;1.611800e-001
1.454125e+003;1.583976e-001
1.456054e+003;1.554390e-001
1.457982e+003;1.525481e-001
1.459911e+003;1.501247e-001
1.461839e+003;1.485656e-001
1.463768e+003;1.475261e-001
1.465697e+003;1.468553e-001
1.467625e+003;1.469760e-001
1.469554e+003;1.474592e-001
1.471482e+003;1.481539e-001
1.473411e+003;1.491428e-001
1.475339e+003;1.507878e-001
1.477268e+003;1.534215e-001
1.479196e+003;1.568227e-001
1.481125e+003;1.606600e-001
1.483053e+003;1.649515e-001
1.484982e+003;1.702093e-001
1.486911e+003;1.762151e-001
1.488839e+003;1.824059e-001
1.490768e+003;1.889679e-001
1.492696e+003;1.953065e-001
1.494625e+003;2.015104e-001
1.496553e+003;2.075475e-001
1.498482e+003;2.131065e-001
1.500410e+003;2.184545e-001
1.502339e+003;2.232279e-001
1.504267e+003;2.275347e-001
1.506196e+003;2.314719e-001
1.508125e+003;2.347428e-001
1.510053e+003;2.375486e-001
1.511982e+003;2.396904e-001
1.513910e+003;2.401800e-001
1.515839e+003;2.387693e-001
1.517767e+003;2.355609e-001
1.519696e+003;2.312557e-001
1.521624e+003;2.266759e-001
1.523553e+003;2.228168e-001
1.525481e+003;2.192540e-001
1.527410e+003;2.159234e-001
1.529339e+003;2.128077e-001
1.531267e+003;2.095627e-001
1.533196e+003;2.061539e-001
1.535124e+003;2.028850e-001
1.537053e+003;1.996288e-001
1.538981e+003;1.958062e-001
1.540910e+003;1.920934e-001
1.542838e+003;1.888766e-001
1.544767e+003;1.854924e-001
1.546695e+003;1.818110e-001
1.548624e+003;1.780557e-001
1.550553e+003;1.746839e-001
1.552481e+003;1.714285e-001
1.554410e+003;1.679481e-001
1.556338e+003;1.643615e-001
1.558267e+003;1.605324e-001
1.560195e+003;1.568957e-001
1.562124e+003;1.534829e-001
1.564052e+003;1.499758e-001
1.565981e+003;1.465217e-001
1.567910e+003;1.431876e-001
1.569838e+003;1.401767e-001
1.571767e+003;1.377476e-001
1.573695e+003;1.356530e-001
1.575624e+003;1.338208e-001
1.577552e+003;1.325620e-001
1.579481e+003;1.320597e-001
1.581409e+003;1.317243e-001
1.583338e+003;1.318124e-001
1.585266e+003;1.326771e-001
1.587195e+003;1.344111e-001
1.589124e+003;1.367156e-001
1.591052e+003;1.398271e-001
1.592981e+003;1.436374e-001
1.594909e+003;1.477810e-001
1.596838e+003;1.523229e-001
1.598766e+003;1.574363e-001
1.600695e+003;1.633951e-001
1.602623e+003;1.704118e-001
1.604552e+003;1.784240e-001
1.606480e+003;1.873959e-001
1.608409e+003;1.974113e-001
1.610338e+003;2.077513e-001
1.612266e+003;2.176061e-001
1.614195e+003;2.266259e-001
1.616123e+003;2.349399e-001
1.618052e+003;2.423803e-001
1.619980e+003;2.485273e-001
1.621909e+003;2.531574e-001
1.623837e+003;2.557754e-001
1.625766e+003;2.563762e-001
1.627694e+003;2.548668e-001
1.629623e+003;2.520295e-001
1.631552e+003;2.481672e-001
1.633480e+003;2.437216e-001
1.635409e+003;2.389349e-001
1.637337e+003;2.341111e-001
1.639266e+003;2.296262e-001
1.641194e+003;2.250866e-001
1.643123e+003;2.204052e-001
1.645051e+003;2.151995e-001
1.646980e+003;2.099749e-001
1.648909e+003;2.053130e-001
1.650837e+003;2.007197e-001
1.652766e+003;1.956746e-001
1.654694e+003;1.907907e-001
1.656623e+003;1.859977e-001
1.658551e+003;1.809652e-001
1.660480e+003;1.760570e-001
1.662408e+003;1.711594e-001
1.664337e+003;1.664405e-001
1.666266e+003;1.620022e-001
1.668194e+003;1.575905e-001
1.670123e+003;1.531467e-001
1.672051e+003;1.491718e-001
1.673980e+003;1.454423e-001
1.675908e+003;1.416099e-001
1.677837e+003;1.380501e-001
1.679765e+003;1.348012e-001
1.681694e+003;1.315165e-001
1.683622e+003;1.281672e-001
1.685551e+003;1.249215e-001
1.687479e+003;1.220503e-001
1.689408e+003;1.194141e-001
1.691337e+003;1.171359e-001
1.693265e+003;1.153438e-001
1.695194e+003;1.133891e-001
1.697122e+003;1.112232e-001
1.699051e+003;1.084437e-001
1.700979e+003;1.038227e-001
1.702908e+003;9.755814e-002
1.704836e+003;9.050214e-002
1.706765e+003;8.327548e-002
1.708693e+003;7.645889e-002
1.710622e+003;7.047572e-002
1.712551e+003;6.522624e-002
1.714479e+003;6.078698e-002
1.716408e+003;5.688630e-002
1.718336e+003;5.340543e-002
1.720265e+003;5.071592e-002
1.722193e+003;4.837359e-002
1.724122e+003;4.629098e-002
1.726050e+003;4.469354e-002
1.727979e+003;4.324134e-002
1.729908e+003;4.198724e-002
1.731836e+003;4.098588e-002
1.733765e+003;3.999693e-002
1.735693e+003;3.909824e-002
1.737622e+003;3.837284e-002
1.739550e+003;3.754693e-002
1.741479e+003;3.675750e-002
1.743407e+003;3.582766e-002
1.745336e+003;3.503075e-002
1.747265e+003;3.399423e-002
1.749193e+003;3.284698e-002
1.751122e+003;3.206304e-002
1.753050e+003;3.158560e-002
1.754979e+003;3.081806e-002
1.756907e+003;2.976921e-002
1.758836e+003;2.885501e-002
1.760764e+003;2.805212e-002
1.762693e+003;2.750208e-002
1.764621e+003;2.723183e-002
1.766550e+003;2.685759e-002
1.768479e+003;2.640021e-002
1.770407e+003;2.622757e-002
1.772336e+003;2.591921e-002
1.774264e+003;2.534819e-002
1.776193e+003;2.500655e-002
1.778121e+003;2.459039e-002
1.780050e+003;2.409539e-002
1.781978e+003;2.372782e-002
1.783907e+003;2.347404e-002
1.785835e+003;2.315649e-002
1.787764e+003;2.272963e-002
1.789693e+003;2.236482e-002
1.791621e+003;2.213499e-002
1.793550e+003;2.199704e-002
1.795478e+003;2.182165e-002
1.797407e+003;2.172010e-002
1.799335e+003;2.150819e-002
1.801264e+003;2.113300e-002
1.803192e+003;2.080033e-002
1.805121e+003;2.063952e-002
1.807049e+003;2.066694e-002
1.808978e+003;2.050289e-002
1.810907e+003;2.012811e-002
1.812835e+003;1.967890e-002
1.814764e+003;1.935358e-002
1.816692e+003;1.902576e-002
1.818621e+003;1.876596e-002
1.820549e+003;1.875797e-002
1.822478e+003;1.869529e-002
1.824406e+003;1.843772e-002
1.826335e+003;1.815129e-002
1.828264e+003;1.782349e-002
1.830192e+003;1.757852e-002
1.832121e+003;1.744570e-002
1.834049e+003;1.741180e-002
1.835978e+003;1.725948e-002
1.837906e+003;1.714993e-002
1.839835e+003;1.692787e-002
1.841763e+003;1.678702e-002
1.843692e+003;1.677490e-002
1.845620e+003;1.664605e-002
1.847549e+003;1.641905e-002
1.849478e+003;1.610187e-002
1.851406e+003;1.609389e-002
1.853335e+003;1.616617e-002
1.855263e+003;1.600484e-002
1.857192e+003;1.581848e-002
1.859120e+003;1.569799e-002
1.861049e+003;1.566896e-002
1.862977e+003;1.563870e-002
1.864906e+003;1.545239e-002
1.866834e+003;1.532685e-002
1.868763e+003;1.528381e-002
1.870692e+003;1.518155e-002
1.872620e+003;1.505327e-002
1.874549e+003;1.498539e-002
1.876477e+003;1.492013e-002
1.878406e+003;1.495720e-002
1.880334e+003;1.506511e-002
1.882263e+003;1.482429e-002
1.884191e+003;1.465013e-002
1.886120e+003;1.459321e-002
1.888048e+003;1.462919e-002
1.889977e+003;1.458968e-002
1.891906e+003;1.442633e-002
1.893834e+003;1.444400e-002
1.895763e+003;1.443027e-002
1.897691e+003;1.425479e-002
1.899620e+003;1.412634e-002
1.901548e+003;1.403246e-002
1.903477e+003;1.399752e-002
1.905405e+003;1.400474e-002
1.907334e+003;1.391739e-002
1.909262e+003;1.364469e-002
1.911191e+003;1.347332e-002
1.913120e+003;1.340569e-002
1.915048e+003;1.344222e-002
1.916977e+003;1.357084e-002
1.918905e+003;1.342930e-002
1.920834e+003;1.322560e-002
1.922762e+003;1.317597e-002
1.924691e+003;1.310951e-002
1.926619e+003;1.295348e-002
1.928548e+003;1.285036e-002
1.930477e+003;1.285507e-002
1.932405e+003;1.280135e-002
1.934334e+003;1.277248e-002
1.936262e+003;1.273812e-002
1.938191e+003;1.267627e-002
1.940119e+003;1.275495e-002
1.942048e+003;1.255466e-002
1.943976e+003;1.225607e-002
1.945905e+003;1.228006e-002
1.947833e+003;1.246235e-002
1.949762e+003;1.251885e-002
1.951691e+003;1.246562e-002
1.953619e+003;1.253850e-002
1.955548e+003;1.248445e-002
1.957476e+003;1.243613e-002
1.959405e+003;1.253284e-002
1.961333e+003;1.264038e-002
1.963262e+003;1.250399e-002
1.965190e+003;1.233804e-002
1.967119e+003;1.214702e-002
1.969047e+003;1.210610e-002
1.970976e+003;1.237005e-002
1.972905e+003;1.243551e-002
1.974833e+003;1.244861e-002
1.976762e+003;1.251176e-002
1.978690e+003;1.246774e-002
1.980619e+003;1.232867e-002
1.982547e+003;1.220393e-002
1.984476e+003;1.212596e-002
1.986404e+003;1.204760e-002
1.988333e+003;1.186801e-002
1.990261e+003;1.173887e-002
1.992190e+003;1.186682e-002
1.994119e+003;1.194184e-002
1.996047e+003;1.197198e-002
1.997976e+003;1.187748e-002
1.999904e+003;1.181448e-002
2.001833e+003;1.182143e-002
2.003761e+003;1.176430e-002
2.005690e+003;1.168209e-002
2.007618e+003;1.154780e-002
2.009547e+003;1.155246e-002
2.011476e+003;1.165595e-002
2.013404e+003;1.139875e-002
2.015333e+003;1.127162e-002
2.017261e+003;1.141858e-002
2.019190e+003;1.144777e-002
2.021118e+003;1.156359e-002
2.023047e+003;1.175334e-002
2.024975e+003;1.174186e-002
2.026904e+003;1.170524e-002
2.028833e+003;1.163573e-002
2.030761e+003;1.150901e-002
2.032690e+003;1.157642e-002
2.034618e+003;1.169707e-002
2.036547e+003;1.147679e-002
2.038475e+003;1.125425e-002
2.040404e+003;1.135566e-002
2.042332e+003;1.155794e-002
2.044261e+003;1.143532e-002
2.046189e+003;1.127145e-002
2.048118e+003;1.134716e-002
2.050047e+003;1.133287e-002
2.051975e+003;1.111448e-002
2.053904e+003;1.095522e-002
2.055832e+003;1.107005e-002
2.057761e+003;1.126091e-002
2.059689e+003;1.123051e-002
2.061618e+003;1.112328e-002
2.063546e+003;1.114647e-002
2.065475e+003;1.109439e-002
2.067404e+003;1.118284e-002
2.069332e+003;1.125574e-002
2.071260e+003;1.118111e-002
2.073189e+003;1.108011e-002
2.075118e+003;1.115990e-002
2.077046e+003;1.120834e-002
2.078975e+003;1.105632e-002
2.080903e+003;1.095379e-002
2.082832e+003;1.107138e-002
2.084760e+003;1.112651e-002
2.086689e+003;1.107406e-002
2.088617e+003;1.092732e-002
2.090546e+003;1.066122e-002
2.092475e+003;1.062135e-002
2.094403e+003;1.079513e-002
2.096332e+003;1.069871e-002
2.098260e+003;1.057419e-002
2.100189e+003;1.069864e-002
2.102117e+003;1.068991e-002
2.104046e+003;1.042938e-002
2.105974e+003;1.038231e-002
2.107903e+003;1.046699e-002
2.109832e+003;1.036714e-002
2.111760e+003;1.038581e-002
2.113688e+003;1.052833e-002
2.115617e+003;1.046329e-002
2.117546e+003;1.017735e-002
2.119474e+003;9.954457e-003
2.121403e+003;9.954220e-003
2.123331e+003;9.909268e-003
2.125260e+003;9.813786e-003
2.127188e+003;9.878081e-003
2.129117e+003;9.881912e-003
2.131045e+003;9.867608e-003
2.132974e+003;1.004766e-002
2.134903e+003;9.924895e-003
2.136831e+003;9.739807e-003
2.138760e+003;9.658455e-003
2.140688e+003;9.596427e-003
2.142617e+003;9.657168e-003
2.144545e+003;9.589652e-003
2.146474e+003;9.602965e-003
2.148402e+003;9.630912e-003
2.150331e+003;9.771660e-003
2.152260e+003;9.849304e-003
2.154188e+003;9.766340e-003
2.156117e+003;9.809955e-003
2.158045e+003;9.638500e-003
2.159974e+003;9.689456e-003
2.161902e+003;9.905301e-003
2.163831e+003;1.002935e-002
2.165759e+003;9.830460e-003
2.167688e+003;9.789621e-003
2.169616e+003;9.867608e-003
2.171545e+003;9.784199e-003
2.173474e+003;9.783250e-003
2.175402e+003;9.681155e-003
2.177331e+003;9.561842e-003
2.179259e+003;9.570107e-003
2.181188e+003;9.533899e-003
2.183116e+003;9.342579e-003
2.185045e+003;9.171885e-003
2.186973e+003;9.157028e-003
2.188902e+003;9.145929e-003
2.190831e+003;9.374776e-003
2.192759e+003;9.448286e-003
2.194688e+003;9.460240e-003
2.196616e+003;9.524213e-003
2.198545e+003;9.490075e-003
2.200473e+003;9.312077e-003
2.202402e+003;9.258188e-003
2.204330e+003;9.286926e-003
2.206259e+003;9.232228e-003
2.208188e+003;9.257781e-003
2.210116e+003;9.276330e-003
2.212044e+003;9.315902e-003
2.213973e+003;9.299586e-003
2.215902e+003;9.087154e-003
2.217830e+003;9.027948e-003
2.219759e+003;9.298063e-003
2.221687e+003;9.346100e-003
2.223616e+003;9.087154e-003
2.225544e+003;8.991175e-003
2.227473e+003;9.095037e-003
2.229401e+003;9.195607e-003
2.231330e+003;9.265330e-003
2.233259e+003;9.333066e-003
2.235187e+003;9.216827e-003
2.237116e+003;8.999430e-003
2.239044e+003;8.891059e-003
2.240973e+003;8.761820e-003
2.242901e+003;8.669159e-003
2.244830e+003;8.715740e-003
2.246758e+003;8.802292e-003
2.248687e+003;8.746302e-003
2.250615e+003;8.742043e-003
2.252544e+003;8.703875e-003
2.254473e+003;8.799654e-003
2.256401e+003;8.763815e-003
2.258330e+003;8.624914e-003
2.260258e+003;8.790830e-003
2.262187e+003;8.960394e-003
2.264115e+003;8.843173e-003
2.266044e+003;8.804659e-003
2.267972e+003;8.919029e-003
2.269901e+003;8.858999e-003
2.271830e+003;8.743699e-003
2.273758e+003;8.837526e-003
2.275687e+003;8.929107e-003
2.277615e+003;8.962221e-003
2.279544e+003;9.072639e-003
2.281472e+003;9.125456e-003
2.283401e+003;9.209923e-003
2.285329e+003;9.376401e-003
2.287258e+003;9.379922e-003
2.289187e+003;9.229316e-003
2.291115e+003;9.210804e-003
2.293043e+003;9.305070e-003
2.294972e+003;9.175877e-003
2.296901e+003;8.917912e-003
2.298829e+003;8.920652e-003
2.300758e+003;8.935567e-003
2.302686e+003;8.894069e-003
2.304615e+003;9.116151e-003
2.306543e+003;9.333506e-003
2.308472e+003;9.317324e-003
2.310400e+003;9.075481e-003
2.312329e+003;9.117741e-003
2.314258e+003;9.327988e-003
2.316186e+003;9.217978e-003
2.318115e+003;9.142274e-003
2.320043e+003;9.318035e-003
2.321972e+003;9.316410e-003
2.323900e+003;9.137536e-003
2.325829e+003;9.069256e-003
2.327757e+003;9.040769e-003
2.329686e+003;9.154287e-003
2.331615e+003;9.417404e-003
2.333543e+003;9.478323e-003
2.335472e+003;9.224476e-003
2.337400e+003;9.173271e-003
2.339329e+003;9.158855e-003
2.341257e+003;9.103936e-003
2.343186e+003;9.259102e-003
2.345114e+003;9.449572e-003
2.347043e+003;9.514425e-003
2.348971e+003;9.491192e-003
2.350900e+003;9.334556e-003
2.352829e+003;9.164067e-003
2.354757e+003;9.306052e-003
2.356686e+003;9.726998e-003
2.358614e+003;9.725948e-003
2.360543e+003;9.439143e-003
2.362471e+003;9.335165e-003
2.364400e+003;9.403149e-003
2.366328e+003;9.500201e-003
2.368257e+003;9.459731e-003
2.370186e+003;9.311028e-003
2.372114e+003;9.162307e-003
2.374042e+003;9.412698e-003
2.375971e+003;9.625289e-003
2.377900e+003;9.598053e-003
2.379828e+003;9.597139e-003
2.381757e+003;9.813311e-003
2.383685e+003;9.919980e-003
2.385614e+003;9.776540e-003
2.387542e+003;9.906759e-003
2.389471e+003;9.982902e-003
2.391399e+003;9.844153e-003
2.393328e+003;9.953067e-003
2.395257e+003;9.975172e-003
2.397185e+003;1.004743e-002
2.399114e+003;1.001789e-002
2.401042e+003;9.935235e-003
2.402971e+003;1.010983e-002
2.404899e+003;1.026535e-002
2.406828e+003;1.037960e-002
2.408756e+003;1.042097e-002
2.410685e+003;1.036035e-002
2.412614e+003;1.038218e-002
2.414542e+003;1.069759e-002
2.416471e+003;1.116836e-002
2.418399e+003;1.139464e-002
2.420328e+003;1.154858e-002
2.422256e+003;1.143988e-002
2.424185e+003;1.147849e-002
2.426113e+003;1.180944e-002
2.428042e+003;1.201211e-002
2.429970e+003;1.183471e-002
2.431899e+003;1.179027e-002
2.433828e+003;1.192692e-002
2.435756e+003;1.209124e-002
2.437685e+003;1.213363e-002
2.439613e+003;1.213996e-002
2.441542e+003;1.228098e-002
2.443470e+003;1.259361e-002
2.445399e+003;1.277494e-002
2.447327e+003;1.272837e-002
2.449256e+003;1.275430e-002
2.451185e+003;1.282985e-002
2.453113e+003;1.273260e-002
2.455042e+003;1.262411e-002
2.456970e+003;1.275713e-002
2.458899e+003;1.279634e-002
2.460827e+003;1.257230e-002
2.462756e+003;1.256326e-002
2.464684e+003;1.266511e-002
2.466613e+003;1.287859e-002
2.468542e+003;1.318516e-002
2.470470e+003;1.323810e-002
2.472398e+003;1.312983e-002
2.474327e+003;1.315995e-002
2.476256e+003;1.336851e-002
2.478184e+003;1.374314e-002
2.480113e+003;1.383487e-002
2.482041e+003;1.377399e-002
2.483970e+003;1.371479e-002
2.485898e+003;1.379184e-002
2.487827e+003;1.398086e-002
2.489755e+003;1.410180e-002
2.491684e+003;1.412323e-002
2.493613e+003;1.399410e-002
2.495541e+003;1.384332e-002
2.497470e+003;1.398103e-002
2.499398e+003;1.393949e-002
2.501327e+003;1.381650e-002
2.503255e+003;1.384072e-002
2.505184e+003;1.384715e-002
2.507112e+003;1.388851e-002
2.509041e+003;1.418796e-002
2.510969e+003;1.455428e-002
2.512898e+003;1.461966e-002
2.514827e+003;1.447970e-002
2.516755e+003;1.437081e-002
2.518684e+003;1.428133e-002
2.520612e+003;1.443284e-002
2.522541e+003;1.472622e-002
2.524469e+003;1.469232e-002
2.526398e+003;1.431862e-002
2.528326e+003;1.414387e-002
2.530255e+003;1.441085e-002
2.532184e+003;1.466329e-002
2.534112e+003;1.462566e-002
2.536041e+003;1.475223e-002
2.537969e+003;1.477805e-002
2.539898e+003;1.473670e-002
2.541826e+003;1.473122e-002
2.543755e+003;1.476337e-002
2.545683e+003;1.485165e-002
2.547612e+003;1.496766e-002
2.549541e+003;1.529308e-002
2.551469e+003;1.541518e-002
2.553397e+003;1.548086e-002
2.555326e+003;1.554514e-002
2.557255e+003;1.552416e-002
2.559183e+003;1.574966e-002
2.561112e+003;1.596826e-002
2.563040e+003;1.596813e-002
2.564969e+003;1.591389e-002
2.566897e+003;1.618842e-002
2.568826e+003;1.647803e-002
2.570754e+003;1.639827e-002
2.572683e+003;1.651400e-002
2.574612e+003;1.680342e-002
2.576540e+003;1.701339e-002
2.578469e+003;1.710774e-002
2.580397e+003;1.695447e-002
2.582326e+003;1.709988e-002
2.584254e+003;1.744953e-002
2.586183e+003;1.758928e-002
2.588111e+003;1.778310e-002
2.590040e+003;1.804607e-002
2.591969e+003;1.817423e-002
2.593897e+003;1.828989e-002
2.595826e+003;1.844955e-002
2.597754e+003;1.841650e-002
2.599683e+003;1.851939e-002
2.601611e+003;1.879513e-002
2.603540e+003;1.890863e-002
2.605468e+003;1.893964e-002
2.607397e+003;1.908777e-002
2.609325e+003;1.930411e-002
2.611254e+003;1.961747e-002
2.613183e+003;1.964364e-002
2.615111e+003;1.968903e-002
2.617040e+003;1.984615e-002
2.618968e+003;1.981722e-002
2.620897e+003;1.967405e-002
2.622825e+003;1.990133e-002
2.624754e+003;2.026824e-002
2.626682e+003;2.010087e-002
2.628611e+003;1.990071e-002
2.630540e+003;1.997231e-002
2.632468e+003;2.010205e-002
2.634396e+003;2.007866e-002
2.636325e+003;1.998501e-002
2.638254e+003;1.996214e-002
2.640182e+003;1.998570e-002
2.642111e+003;1.988586e-002
2.644039e+003;1.977907e-002
2.645968e+003;1.998237e-002
2.647896e+003;2.025067e-002
2.649825e+003;2.017632e-002
2.651753e+003;2.019319e-002
2.653682e+003;2.047746e-002
2.655611e+003;2.052168e-002
2.657539e+003;2.036633e-002
2.659468e+003;2.053731e-002
2.661396e+003;2.071917e-002
2.663325e+003;2.088497e-002
2.665253e+003;2.092729e-002
2.667182e+003;2.081558e-002
2.669110e+003;2.079438e-002
2.671039e+003;2.095848e-002
2.672968e+003;2.105634e-002
2.674896e+003;2.110527e-002
2.676825e+003;2.130174e-002
2.678753e+003;2.156268e-002
2.680682e+003;2.163940e-002
2.682610e+003;2.178266e-002
2.684539e+003;2.215706e-002
2.686467e+003;2.229303e-002
2.688396e+003;2.237120e-002
2.690324e+003;2.248980e-002
2.692253e+003;2.245312e-002
2.694182e+003;2.264535e-002
2.696110e+003;2.294636e-002
2.698039e+003;2.315600e-002
2.699967e+003;2.332414e-002
2.701896e+003;2.357754e-002
2.703824e+003;2.401900e-002
2.705753e+003;2.403221e-002
2.707681e+003;2.385165e-002
2.709610e+003;2.412708e-002
2.711539e+003;2.448864e-002
2.713467e+003;2.468058e-002
2.715396e+003;2.482650e-002
2.717324e+003;2.499725e-002
2.719253e+003;2.514957e-002
2.721181e+003;2.547220e-002
2.723110e+003;2.593117e-002
2.725038e+003;2.620941e-002
2.726967e+003;2.629075e-002
2.728896e+003;2.657566e-002
2.730824e+003;2.712831e-002
2.732752e+003;2.737177e-002
2.734681e+003;2.761933e-002
2.736610e+003;2.778319e-002
2.738538e+003;2.779407e-002
2.740467e+003;2.811023e-002
2.742395e+003;2.847749e-002
2.744324e+003;2.859001e-002
2.746252e+003;2.866887e-002
2.748181e+003;2.887541e-002
2.750109e+003;2.908755e-002
2.752038e+003;2.924389e-002
2.753967e+003;2.960739e-002
2.755895e+003;2.979987e-002
2.757824e+003;2.995842e-002
2.759752e+003;3.040194e-002
2.761681e+003;3.066222e-002
2.763609e+003;3.063715e-002
2.765538e+003;3.090817e-002
2.767466e+003;3.103499e-002
2.769395e+003;3.123493e-002
2.771323e+003;3.173793e-002
2.773252e+003;3.194705e-002
2.775181e+003;3.212586e-002
2.777109e+003;3.224943e-002
2.779038e+003;3.242505e-002
2.780966e+003;3.273742e-002
2.782895e+003;3.298737e-002
2.784823e+003;3.336644e-002
2.786752e+003;3.394210e-002
2.788680e+003;3.422479e-002
2.790609e+003;3.414729e-002
2.792538e+003;3.417371e-002
2.794466e+003;3.445624e-002
2.796395e+003;3.482097e-002
2.798323e+003;3.505482e-002
2.800252e+003;3.548822e-002
2.802180e+003;3.567552e-002
2.804109e+003;3.566775e-002
2.806037e+003;3.586458e-002
2.807966e+003;3.618289e-002
2.809895e+003;3.657071e-002
2.811823e+003;3.687294e-002
2.813751e+003;3.714882e-002
2.815680e+003;3.739732e-002
2.817609e+003;3.759133e-002
2.819537e+003;3.785707e-002
2.821466e+003;3.816397e-002
2.823394e+003;3.835163e-002
2.825323e+003;3.852579e-002
2.827251e+003;3.884841e-002
2.829180e+003;3.906754e-002
2.831108e+003;3.927771e-002
2.833037e+003;3.976578e-002
2.834966e+003;4.033414e-002
2.836894e+003;4.083771e-002
2.838823e+003;4.111247e-002
2.840751e+003;4.161665e-002
2.842680e+003;4.262970e-002
2.844608e+003;4.344963e-002
2.846537e+003;4.413269e-002
2.848465e+003;4.504411e-002
2.850394e+003;4.615093e-002
2.852323e+003;4.713972e-002
2.854251e+003;4.793850e-002
2.856180e+003;4.841445e-002
2.858108e+003;4.874168e-002
2.860037e+003;4.902773e-002
2.861965e+003;4.934017e-002
2.863894e+003;4.972718e-002
2.865822e+003;5.045180e-002
2.867751e+003;5.117420e-002
2.869679e+003;5.175000e-002
2.871608e+003;5.252003e-002
2.873536e+003;5.326120e-002
2.875465e+003;5.362937e-002
2.877394e+003;5.369911e-002
2.879322e+003;5.365572e-002
2.881251e+003;5.388539e-002
2.883179e+003;5.421351e-002
2.885108e+003;5.435509e-002
2.887036e+003;5.445213e-002
2.888965e+003;5.463483e-002
2.890893e+003;5.499751e-002
2.892822e+003;5.536479e-002
2.894750e+003;5.573693e-002
2.896679e+003;5.618089e-002
2.898608e+003;5.667113e-002
2.900536e+003;5.703877e-002
2.902465e+003;5.735756e-002
2.904393e+003;5.820068e-002
2.906322e+003;5.904913e-002
2.908250e+003;5.971755e-002
2.910179e+003;6.045272e-002
2.912107e+003;6.136045e-002
2.914036e+003;6.240220e-002
2.915965e+003;6.335998e-002
2.917893e+003;6.452585e-002
2.919822e+003;6.573806e-002
2.921750e+003;6.662682e-002
2.923679e+003;6.758853e-002
2.925607e+003;6.877583e-002
2.927536e+003;6.955051e-002
2.929464e+003;7.030081e-002
2.931393e+003;7.066817e-002
2.933322e+003;7.067908e-002
2.935250e+003;7.085259e-002
2.937178e+003;7.060041e-002
2.939107e+003;6.992431e-002
2.941036e+003;6.943443e-002
2.942964e+003;6.913444e-002
2.944893e+003;6.853630e-002
2.946821e+003;6.753089e-002
2.948750e+003;6.654896e-002
2.950678e+003;6.594107e-002
2.952607e+003;6.550864e-002
2.954535e+003;6.500540e-002
2.956464e+003;6.462915e-002
2.958393e+003;6.421823e-002
2.960321e+003;6.402874e-002
2.962250e+003;6.424351e-002
2.964178e+003;6.433971e-002
2.966107e+003;6.443075e-002
2.968035e+003;6.445158e-002
2.969964e+003;6.427962e-002
2.971892e+003;6.450059e-002
2.973821e+003;6.474259e-002
2.975750e+003;6.456071e-002
2.977678e+003;6.401721e-002
2.979607e+003;6.374814e-002
2.981535e+003;6.373978e-002
2.983464e+003;6.363392e-002
2.985392e+003;6.357250e-002
2.987321e+003;6.289450e-002
2.989249e+003;6.226351e-002
2.991178e+003;6.191282e-002
2.993106e+003;6.149457e-002
2.995035e+003;6.093282e-002
2.996964e+003;6.027883e-002
2.998892e+003;5.974481e-002
3.000821e+003;5.918653e-002
3.002749e+003;5.864747e-002
3.004678e+003;5.799558e-002
3.006606e+003;5.771810e-002
3.008535e+003;5.781635e-002
3.010463e+003;5.807026e-002
3.012392e+003;5.809693e-002
3.014321e+003;5.831034e-002
3.016249e+003;5.869139e-002
3.018177e+003;5.877029e-002
3.020106e+003;5.908728e-002
3.022035e+003;5.920821e-002
3.023963e+003;5.905099e-002
3.025892e+003;5.953206e-002
3.027820e+003;6.007160e-002
3.029749e+003;6.067876e-002
3.031677e+003;6.136862e-002
3.033606e+003;6.163993e-002
3.035534e+003;6.201161e-002
3.037463e+003;6.240457e-002
3.039392e+003;6.289545e-002
3.041320e+003;6.338345e-002
3.043249e+003;6.401979e-002
3.045177e+003;6.478290e-002
3.047106e+003;6.556100e-002
3.049034e+003;6.621224e-002
3.050963e+003;6.643902e-002
3.052891e+003;6.699766e-002
3.054820e+003;6.790451e-002
3.056749e+003;6.845390e-002
3.058677e+003;6.874233e-002
3.060606e+003;6.923026e-002
3.062534e+003;6.979830e-002
3.064463e+003;6.993598e-002
3.066391e+003;7.032722e-002
3.068320e+003;7.045171e-002
3.070248e+003;7.041306e-002
3.072177e+003;7.040609e-002
3.074105e+003;7.041851e-002
3.076034e+003;7.073075e-002
3.077963e+003;7.079431e-002
3.079891e+003;7.059565e-002
3.081820e+003;7.054470e-002
3.083748e+003;7.064797e-002
3.085677e+003;7.091617e-002
3.087605e+003;7.072868e-002
3.089534e+003;7.032871e-002
3.091462e+003;7.002462e-002
3.093391e+003;6.985985e-002
3.095320e+003;6.970616e-002
3.097248e+003;6.934841e-002
3.099177e+003;6.901906e-002
3.101105e+003;6.880064e-002
3.103034e+003;6.849080e-002
3.104962e+003;6.808718e-002
3.106891e+003;6.774294e-002
3.108819e+003;6.781626e-002
3.110748e+003;6.755442e-002
3.112677e+003;6.703431e-002
3.114605e+003;6.710538e-002
3.116533e+003;6.730458e-002
3.118462e+003;6.715307e-002
3.120391e+003;6.706601e-002
3.122319e+003;6.721162e-002
3.124248e+003;6.718172e-002
3.126176e+003;6.691744e-002
3.128105e+003;6.678616e-002
3.130033e+003;6.706215e-002
3.131962e+003;6.751847e-002
3.133890e+003;6.745572e-002
3.135819e+003;6.711505e-002
3.137748e+003;6.756720e-002
3.139676e+003;6.834240e-002
3.141605e+003;6.860428e-002
3.143533e+003;6.866505e-002
3.145462e+003;6.890772e-002
3.147390e+003;6.917489e-002
3.149319e+003;6.953040e-002
3.151247e+003;7.010440e-002
3.153176e+003;7.106073e-002
3.155104e+003;7.187605e-002
3.157033e+003;7.240642e-002
3.158962e+003;7.305398e-002
3.160890e+003;7.367077e-002
3.162819e+003;7.393499e-002
3.164747e+003;7.452343e-002
3.166676e+003;7.527494e-002
3.168604e+003;7.588401e-002
3.170533e+003;7.691380e-002
3.172461e+003;7.777475e-002
3.174390e+003;7.853250e-002
3.176319e+003;7.935598e-002
3.178247e+003;7.990123e-002
3.180176e+003;8.080783e-002
3.182104e+003;8.184397e-002
3.184033e+003;8.275826e-002
3.185961e+003;8.362795e-002
3.187890e+003;8.434811e-002
3.189818e+003;8.509732e-002
3.191747e+003;8.589640e-002
3.193676e+003;8.681850e-002
3.195604e+003;8.750118e-002
3.197532e+003;8.819845e-002
3.199461e+003;8.910803e-002
3.201390e+003;9.010866e-002
3.203318e+003;9.090011e-002
3.205247e+003;9.150296e-002
3.207175e+003;9.222487e-002
3.209104e+003;9.269194e-002
3.211032e+003;9.320754e-002
3.212961e+003;9.402107e-002
3.214889e+003;9.490556e-002
3.216818e+003;9.574695e-002
3.218747e+003;9.676818e-002
3.220675e+003;9.780066e-002
3.222604e+003;9.876671e-002
3.224532e+003;9.964692e-002
3.226461e+003;1.002534e-001
3.228389e+003;1.008591e-001
3.230318e+003;1.014382e-001
3.232246e+003;1.023282e-001
3.234175e+003;1.033573e-001
3.236104e+003;1.042374e-001
3.238032e+003;1.047738e-001
3.239961e+003;1.055756e-001
3.241889e+003;1.066759e-001
3.243818e+003;1.078476e-001
3.245746e+003;1.087798e-001
3.247675e+003;1.093649e-001
3.249603e+003;1.100389e-001
3.251532e+003;1.110794e-001
3.253460e+003;1.121345e-001
3.255389e+003;1.133912e-001
3.257318e+003;1.146572e-001
3.259246e+003;1.156121e-001
3.261175e+003;1.163156e-001
3.263103e+003;1.175078e-001
3.265032e+003;1.186652e-001
3.266960e+003;1.196827e-001
3.268889e+003;1.211999e-001
3.270817e+003;1.219913e-001
3.272746e+003;1.227413e-001
3.274675e+003;1.236487e-001
3.276603e+003;1.241642e-001
3.278531e+003;1.245335e-001
3.280460e+003;1.245643e-001
3.282389e+003;1.247368e-001
3.284317e+003;1.249313e-001
3.286246e+003;1.245470e-001
3.288174e+003;1.241209e-001
3.290103e+003;1.239371e-001
3.292031e+003;1.233013e-001
3.293960e+003;1.224031e-001
3.295888e+003;1.219601e-001
3.297817e+003;1.214063e-001
3.299746e+003;1.203428e-001
3.301674e+003;1.192672e-001
3.303603e+003;1.182812e-001
3.305531e+003;1.174749e-001
3.307460e+003;1.163420e-001
3.309388e+003;1.150184e-001
3.311317e+003;1.140054e-001
3.313245e+003;1.127046e-001
3.315174e+003;1.112640e-001
3.317103e+003;1.102228e-001
3.319031e+003;1.091084e-001
3.320960e+003;1.079189e-001
3.322888e+003;1.067148e-001
3.324817e+003;1.055386e-001
3.326745e+003;1.045784e-001
3.328674e+003;1.033239e-001
3.330602e+003;1.020997e-001
3.332531e+003;1.010639e-001
3.334459e+003;9.962483e-002
3.336388e+003;9.858506e-002
3.338317e+003;9.757134e-002
3.340245e+003;9.639397e-002
3.342174e+003;9.566014e-002
3.344102e+003;9.502052e-002
3.346031e+003;9.420355e-002
3.347959e+003;9.337660e-002
3.349888e+003;9.244873e-002
3.351816e+003;9.160785e-002
3.353745e+003;9.070514e-002
3.355674e+003;8.978789e-002
3.357602e+003;8.900098e-002
3.359531e+003;8.826239e-002
3.361459e+003;8.762161e-002
3.363388e+003;8.727860e-002
3.365316e+003;8.658426e-002
3.367245e+003;8.575150e-002
3.369173e+003;8.492187e-002
3.371102e+003;8.444369e-002
3.373031e+003;8.434216e-002
3.374959e+003;8.344995e-002
3.376887e+003;8.207078e-002
3.378816e+003;8.140726e-002
3.380745e+003;8.132781e-002
3.382673e+003;8.098663e-002
3.384602e+003;8.031721e-002
3.386530e+003;7.994615e-002
3.388459e+003;7.981608e-002
3.390387e+003;7.928820e-002
3.392316e+003;7.858980e-002
3.394244e+003;7.798465e-002
3.396173e+003;7.732487e-002
3.398102e+003;7.675257e-002
3.400030e+003;7.610472e-002
3.401959e+003;7.548080e-002
3.403887e+003;7.514350e-002
3.405816e+003;7.463606e-002
3.407744e+003;7.406543e-002
3.409673e+003;7.335807e-002
3.411601e+003;7.240916e-002
3.413530e+003;7.160429e-002
3.415458e+003;7.108083e-002
3.417387e+003;7.062006e-002
3.419316e+003;6.951566e-002
3.421244e+003;6.843932e-002
3.423173e+003;6.819129e-002
3.425101e+003;6.827651e-002
3.427030e+003;6.805117e-002
3.428958e+003;6.724624e-002
3.430887e+003;6.641798e-002
3.432815e+003;6.594149e-002
3.434744e+003;6.546314e-002
3.436673e+003;6.436566e-002
3.438601e+003;6.345408e-002
3.440530e+003;6.287577e-002
3.442458e+003;6.211248e-002
3.444387e+003;6.176952e-002
3.446315e+003;6.171566e-002
3.448244e+003;6.118822e-002
3.450172e+003;6.045310e-002
3.452101e+003;6.030384e-002
3.454030e+003;6.044609e-002
3.455958e+003;6.022253e-002
3.457886e+003;5.990905e-002
3.459815e+003;5.940351e-002
3.461744e+003;5.875326e-002
3.463672e+003;5.793064e-002
3.465601e+003;5.707369e-002
3.467529e+003;5.703700e-002
3.469458e+003;5.707554e-002
3.471386e+003;5.655823e-002
3.473315e+003;5.629819e-002
3.475243e+003;5.642936e-002
3.477172e+003;5.600241e-002
3.479101e+003;5.532847e-002
3.481029e+003;5.524756e-002
3.482958e+003;5.525674e-002
3.484886e+003;5.449649e-002
3.486815e+003;5.389585e-002
3.488743e+003;5.361333e-002
3.490672e+003;5.299799e-002
3.492600e+003;5.267423e-002
3.494529e+003;5.239026e-002
3.496458e+003;5.217148e-002
3.498386e+003;5.202365e-002
3.500315e+003;5.159918e-002
3.502243e+003;5.085637e-002
3.504172e+003;5.051611e-002
3.506100e+003;5.070863e-002
3.508029e+003;5.076110e-002
3.509957e+003;5.023600e-002
3.511886e+003;4.958383e-002
3.513814e+003;4.926011e-002
3.515743e+003;4.872156e-002
3.517672e+003;4.829423e-002
3.519600e+003;4.766038e-002
3.521529e+003;4.693084e-002
3.523457e+003;4.671708e-002
3.525386e+003;4.660847e-002
3.527314e+003;4.630665e-002
3.529243e+003;4.575583e-002
3.531171e+003;4.496061e-002
3.533100e+003;4.406477e-002
3.535029e+003;4.343981e-002
3.536957e+003;4.322582e-002
3.538885e+003;4.300718e-002
3.540814e+003;4.253811e-002
3.542743e+003;4.204983e-002
3.544671e+003;4.168456e-002
3.546600e+003;4.097576e-002
3.548528e+003;4.040075e-002
3.550457e+003;4.005256e-002
3.552385e+003;3.956489e-002
3.554314e+003;3.921983e-002
3.556242e+003;3.841859e-002
3.558171e+003;3.752605e-002
3.560100e+003;3.714547e-002
3.562028e+003;3.690422e-002
3.563957e+003;3.677152e-002
3.565885e+003;3.636415e-002
3.567814e+003;3.555090e-002
3.569742e+003;3.470539e-002
3.571671e+003;3.422688e-002
3.573599e+003;3.404396e-002
3.575528e+003;3.354728e-002
3.577457e+003;3.295231e-002
3.579385e+003;3.225850e-002
3.581314e+003;3.174192e-002
3.583242e+003;3.129091e-002
3.585171e+003;3.080294e-002
3.587099e+003;3.045713e-002
3.589028e+003;3.014331e-002
3.590956e+003;2.941011e-002
3.592885e+003;2.834286e-002
3.594813e+003;2.757989e-002
3.596742e+003;2.727869e-002
3.598671e+003;2.714157e-002
3.600599e+003;2.678682e-002
3.602528e+003;2.588017e-002
3.604456e+003;2.530235e-002
3.606385e+003;2.474785e-002
3.608313e+003;2.403238e-002
3.610242e+003;2.328722e-002
3.612170e+003;2.260989e-002
3.614099e+003;2.220661e-002
3.616028e+003;2.168450e-002
3.617956e+003;2.089940e-002
3.619885e+003;2.029935e-002
3.621813e+003;1.956745e-002
3.623742e+003;1.930203e-002
3.625670e+003;1.897339e-002
3.627599e+003;1.812521e-002
3.629527e+003;1.745267e-002
3.631456e+003;1.718340e-002
3.633385e+003;1.642573e-002
3.635313e+003;1.531419e-002
3.637241e+003;1.433166e-002
3.639170e+003;1.363071e-002
3.641099e+003;1.324097e-002
3.643027e+003;1.273082e-002
3.644956e+003;1.244377e-002
3.646884e+003;1.206780e-002
3.648813e+003;1.157029e-002
3.650741e+003;1.086433e-002
3.652670e+003;1.034875e-002
3.654598e+003;1.019123e-002
3.656527e+003;9.613093e-003
3.658456e+003;8.552929e-003
3.660384e+003;7.548175e-003
3.662313e+003;7.083292e-003
3.664241e+003;6.699253e-003
3.666170e+003;6.229665e-003
3.668098e+003;5.672857e-003
3.670027e+003;4.978955e-003
3.671955e+003;4.679190e-003
3.673884e+003;4.355568e-003
3.675813e+003;4.000918e-003
3.677741e+003;3.948453e-003
3.679669e+003;3.756135e-003
3.681598e+003;3.391522e-003
3.683527e+003;3.020775e-003
3.685455e+003;2.905747e-003
3.687384e+003;2.708455e-003
3.689312e+003;2.428811e-003
3.691241e+003;2.349917e-003
3.693169e+003;1.582911e-003
3.695098e+003;1.079157e-003
3.697026e+003;1.255639e-003
3.698955e+003;1.491403e-003
3.700884e+003;1.565286e-003
3.702812e+003;1.295550e-003
3.704741e+003;9.926697e-004
3.706669e+003;6.816380e-004
3.708598e+003;4.198787e-004
3.710526e+003;4.303593e-004
3.712455e+003;5.385631e-004
3.714383e+003;4.667780e-004
3.716312e+003;1.756128e-004
3.718240e+003;-4.444975e-004
3.720169e+003;-4.334750e-004
3.722098e+003;-1.548740e-004
3.724026e+003;-2.614151e-004
3.725955e+003;-5.287292e-004
3.727883e+003;-7.464314e-004
3.729812e+003;-1.220565e-003
3.731740e+003;-1.397926e-003
3.733669e+003;-9.660411e-004
3.735597e+003;-5.825032e-004
3.737526e+003;-8.096703e-004
3.739455e+003;-1.075523e-003
3.741383e+003;-9.745045e-004
3.743312e+003;-1.085604e-003
3.745240e+003;-1.286378e-003
3.747169e+003;-1.320040e-003
3.749097e+003;-1.443634e-003
3.751026e+003;-1.866763e-003
3.752954e+003;-1.967014e-003
3.754883e+003;-1.553887e-003
3.756812e+003;-1.387093e-003
3.758740e+003;-1.615061e-003
3.760668e+003;-1.725898e-003
3.762597e+003;-1.756622e-003
3.764526e+003;-1.768040e-003
3.766454e+003;-1.469590e-003
3.768383e+003;-1.675203e-003
3.770311e+003;-1.770449e-003
3.772240e+003;-1.507663e-003
3.774168e+003;-1.501752e-003
3.776097e+003;-1.678206e-003
3.778025e+003;-1.822420e-003
3.779954e+003;-1.815557e-003
3.781883e+003;-2.032714e-003
3.783811e+003;-2.295447e-003
3.785740e+003;-2.219534e-003
3.787668e+003;-2.042674e-003
3.789597e+003;-1.844064e-003
3.791525e+003;-1.991224e-003
3.793454e+003;-2.434381e-003
3.795382e+003;-2.251147e-003
3.797311e+003;-1.653946e-003
3.799240e+003;-1.426626e-003
3.801168e+003;-1.470779e-003
3.803097e+003;-1.737977e-003
3.805025e+003;-1.750385e-003
3.806954e+003;-1.645496e-003
3.808882e+003;-1.958009e-003
3.810811e+003;-2.493421e-003
3.812739e+003;-2.756073e-003
3.814668e+003;-2.637463e-003
3.816596e+003;-2.259124e-003
3.818525e+003;-2.226128e-003
3.820454e+003;-2.161314e-003
3.822382e+003;-1.900315e-003
3.824311e+003;-1.687580e-003
3.826239e+003;-1.589576e-003
3.828168e+003;-1.742267e-003
3.830096e+003;-1.694445e-003
3.832025e+003;-1.532690e-003
3.833953e+003;-1.767875e-003
3.835882e+003;-2.044619e-003
3.837811e+003;-2.012629e-003
3.839739e+003;-1.905692e-003
3.841667e+003;-1.775597e-003
3.843596e+003;-1.833044e-003
3.845525e+003;-1.983704e-003
3.847453e+003;-1.752662e-003
3.849382e+003;-1.692333e-003
3.851310e+003;-2.051050e-003
3.853239e+003;-2.297194e-003
3.855167e+003;-2.108889e-003
3.857096e+003;-1.699033e-003
3.859024e+003;-1.547713e-003
3.860953e+003;-1.598456e-003
3.862882e+003;-1.286906e-003
3.864810e+003;-7.746452e-004
3.866739e+003;-7.269485e-004
3.868667e+003;-8.788190e-004
3.870596e+003;-8.957490e-004
3.872524e+003;-9.182331e-004
3.874453e+003;-1.279869e-003
3.876381e+003;-1.284263e-003
3.878310e+003;-9.215064e-004
3.880239e+003;-7.933984e-004
3.882167e+003;-7.869821e-004
3.884096e+003;-1.005183e-003
3.886024e+003;-1.274683e-003
3.887953e+003;-1.132733e-003
3.889881e+003;-9.351947e-004
3.891810e+003;-1.117960e-003
3.893738e+003;-1.041346e-003
3.895667e+003;-9.303344e-004
3.897595e+003;-1.204209e-003
3.899524e+003;-1.000985e-003
3.901453e+003;-4.653832e-004
3.903381e+003;-5.458383e-004
3.905310e+003;-4.818991e-004
3.907238e+003;-4.882868e-004
3.909167e+003;-4.703149e-004
3.911095e+003;-1.674934e-004
3.913024e+003;-2.547933e-005
3.914952e+003;-4.467152e-004
3.916881e+003;-6.494714e-004
3.918810e+003;5.815413e-005
3.920738e+003;3.309695e-004
3.922667e+003;1.367326e-004
3.924595e+003;7.167484e-005
3.926524e+003;1.861206e-004
3.928452e+003;1.723643e-004
3.930381e+003;2.920090e-004
3.932309e+003;2.144633e-004
3.934238e+003;-1.090304e-004
3.936167e+003;-1.870014e-004
3.938095e+003;-2.137613e-004
3.940023e+003;-1.627902e-004
3.941952e+003;-1.879950e-004
3.943881e+003;-1.284417e-004
3.945809e+003;3.785225e-004
3.947738e+003;6.307667e-004
3.949666e+003;2.003083e-004
3.951595e+003;-5.301443e-007
3.953523e+003;1.465766e-004
3.955452e+003;2.799917e-005
3.957380e+003;-1.271830e-004
3.959309e+003;-1.229430e-004
3.961238e+003;-1.766008e-005
3.963166e+003;1.819108e-004
3.965095e+003;5.392930e-004
3.967023e+003;8.123776e-004
3.968952e+003;6.493159e-004
3.970880e+003;2.700269e-004
3.972809e+003;6.106255e-004
3.974737e+003;8.704083e-004
3.976666e+003;8.436494e-004
3.978594e+003;5.519993e-004
3.980523e+003;4.078064e-004
3.982452e+003;6.996252e-004
3.984380e+003;7.852241e-004
3.986309e+003;6.939502e-004
3.988237e+003;5.630139e-004
3.990166e+003;6.202480e-004
3.992094e+003;5.206821e-004
3.994023e+003;5.539235e-004
3.995951e+003;3.940099e-004
3.997880e+003;2.368736e-004
3.999809e+003;1.355394e-004
4.001737e+003;0.000000e+000
