3.992094e+002;0.000000e+000
4.011380e+002;0.000000e+000
4.030665e+002;0.000000e+000
4.049951e+002;0.000000e+000
4.069236e+002;0.000000e+000
4.088522e+002;0.000000e+000
4.107807e+002;0.000000e+000
4.127093e+002;0.000000e+000
4.146378e+002;0.000000e+000
4.165664e+002;0.000000e+000
4.184949e+002;0.000000e+000
4.204235e+002;0.000000e+000
4.223520e+002;0.000000e+000
4.242806e+002;0.000000e+000
4.262091e+002;0.000000e+000
4.281377e+002;0.000000e+000
4.300662e+002;0.000000e+000
4.319948e+002;0.000000e+000
4.339233e+002;0.000000e+000
4.358519e+002;0.000000e+000
4.377804e+002;0.000000e+000
4.397090e+002;0.000000e+000
4.416375e+002;0.000000e+000
4.435660e+002;0.000000e+000
4.454946e+002;0.000000e+000
4.474232e+002;0.000000e+000
4.493517e+002;0.000000e+000
4.512802e+002;0.000000e+000
4.532088e+002;0.000000e+000
4.551373e+002;0.000000e+000
4.570659e+002;0.000000e+000
4.589944e+002;0.000000e+000
4.609230e+002;0.000000e+000
4.628515e+002;0.000000e+000
4.647801e+002;0.000000e+000
4.667086e+002;0.000000e+000
4.686372e+002;0.000000e+000
4.705657e+002;0.000000e+000
4.724943e+002;0.000000e+000
4.744228e+002;0.000000e+000
4.763513e+002;0.000000e+000
4.782799e+002;0.000000e+000
4.802085e+002;0.000000e+000
4.821370e+002;0.000000e+000
4.840656e+002;0.000000e+000
4.859941e+002;0.000000e+000
4.879226e+002;0.000000e+000
4.898512e+002;0.000000e+000
4.917798e+002;0.000000e+000
4.937083e+002;0.000000e+000
4.956368e+002;0.000000e+000
4.975654e+002;0.000000e+000
4.994939e+002;0.000000e+000
5.014225e+002;0.000000e+000
5.033510e+002;0.000000e+000
5.052796e+002;0.000000e+000
5.072081e+002;0.000000e+000
5.091367e+002;0.000000e+000
5.110652e+002;0.000000e+000
5.129938e+002;0.000000e+000
5.149223e+002;0.000000e+000
5.168509e+002;0.000000e+000
5.187794e+002;0.000000e+000
5.207079e+002;0.000000e+000
5.226365e+002;0.000000e+000
5.245651e+002;0.000000e+000
5.264936e+002;0.000000e+000
5.284222e+002;0.000000e+000
5.303507e+002;0.000000e+000
5.322792e+002;0.000000e+000
5.342078e+002;0.000000e+000
5.361364e+002;0.000000e+000
5.380649e+002;0.000000e+000
5.399935e+002;0.000000e+000
5.419220e+002;0.000000e+000
5.438505e+002;0.000000e+000
5.457791e+002;0.000000e+000
5.477076e+002;0.000000e+000
5.496362e+002;0.000000e+000
5.515648e+002;0.000000e+000
5.534933e+002;0.000000e+000
5.554218e+002;0.000000e+000
5.573504e+002;0.000000e+000
5.592789e+002;0.000000e+000
5.612075e+002;0.000000e+000
5.631360e+002;0.000000e+000
5.650646e+002;0.000000e+000
5.669931e+002;0.000000e+000
5.689217e+002;0.000000e+000
5.708502e+002;0.000000e+000
5.727787e+002;0.000000e+000
5.747073e+002;0.000000e+000
5.766359e+002;0.000000e+000
5.785644e+002;0.000000e+000
5.804930e+002;0.000000e+000
5.824215e+002;0.000000e+000
5.843500e+002;0.000000e+000
5.862786e+002;0.000000e+000
5.882072e+002;0.000000e+000
5.901357e+002;0.000000e+000
5.920643e+002;0.000000e+000
5.939928e+002;0.000000e+000
5.959213e+002;0.000000e+000
5.978499e+002;0.000000e+000
5.997784e+002;2.821516e-001
6.017070e+002;2.815591e-001
6.036355e+002;2.766285e-001
6.055641e+002;2.783330e-001
6.074926e+002;2.843041e-001
6.094211e+002;2.882152e-001
6.113497e+002;2.852673e-001
6.132783e+002;2.843175e-001
6.152068e+002;2.853252e-001
6.171354e+002;2.851260e-001
6.190639e+002;2.864582e-001
6.209924e+002;2.895288e-001
6.229210e+002;2.893710e-001
6.248495e+002;2.837663e-001
6.267781e+002;2.816693e-001
6.287067e+002;2.814598e-001
6.306352e+002;2.790841e-001
6.325637e+002;2.807666e-001
6.344923e+002;2.813307e-001
6.364208e+002;2.790096e-001
6.383494e+002;2.772141e-001
6.402780e+002;2.713621e-001
6.422065e+002;2.680241e-001
6.441350e+002;2.687218e-001
6.460636e+002;2.710798e-001
6.479921e+002;2.719835e-001
6.499207e+002;2.695744e-001
6.518492e+002;2.672416e-001
6.537778e+002;2.677043e-001
6.557063e+002;2.678853e-001
6.576349e+002;2.661425e-001
6.595634e+002;2.647157e-001
6.614919e+002;2.639328e-001
6.634205e+002;2.631532e-001
6.653491e+002;2.625104e-001
6.672776e+002;2.630656e-001
6.692062e+002;2.650970e-001
6.711347e+002;2.655569e-001
6.730632e+002;2.644151e-001
6.749918e+002;2.629958e-001
6.769203e+002;2.621571e-001
6.788489e+002;2.626036e-001
6.807775e+002;2.619788e-001
6.827060e+002;2.618630e-001
6.846345e+002;2.630578e-001
6.865631e+002;2.631821e-001
6.884916e+002;2.613992e-001
6.904202e+002;2.604966e-001
6.923488e+002;2.599978e-001
6.942773e+002;2.588018e-001
6.962058e+002;2.575608e-001
6.981344e+002;2.556976e-001
7.000629e+002;2.531629e-001
7.019915e+002;2.502951e-001
7.039200e+002;2.487471e-001
7.058486e+002;2.471966e-001
7.077771e+002;2.429843e-001
7.097057e+002;2.387686e-001
7.116342e+002;2.359044e-001
7.135627e+002;2.334628e-001
7.154913e+002;2.321559e-001
7.174199e+002;2.300129e-001
7.193484e+002;2.261161e-001
7.212770e+002;2.227417e-001
7.232055e+002;2.202408e-001
7.251340e+002;2.169332e-001
7.270626e+002;2.130831e-001
7.289911e+002;2.095470e-001
7.309197e+002;2.059691e-001
7.328483e+002;2.021981e-001
7.347768e+002;1.977970e-001
7.367053e+002;1.942201e-001
7.386339e+002;1.915159e-001
7.405624e+002;1.878763e-001
7.424910e+002;1.835987e-001
7.444196e+002;1.797029e-001
7.463481e+002;1.772224e-001
7.482766e+002;1.757123e-001
7.502052e+002;1.734594e-001
7.521337e+002;1.710280e-001
7.540623e+002;1.688201e-001
7.559908e+002;1.667790e-001
7.579194e+002;1.657307e-001
7.598479e+002;1.647901e-001
7.617765e+002;1.634250e-001
7.637050e+002;1.616524e-001
7.656335e+002;1.597049e-001
7.675621e+002;1.586856e-001
7.694907e+002;1.578612e-001
7.714192e+002;1.553413e-001
7.733478e+002;1.527515e-001
7.752763e+002;1.506016e-001
7.772048e+002;1.490245e-001
7.791334e+002;1.473436e-001
7.810620e+002;1.459271e-001
7.829905e+002;1.443042e-001
7.849191e+002;1.428694e-001
7.868476e+002;1.413772e-001
7.887761e+002;1.400021e-001
7.907047e+002;1.384961e-001
7.926332e+002;1.366418e-001
7.945618e+002;1.351951e-001
7.964903e+002;1.352588e-001
7.984189e+002;1.353247e-001
8.003474e+002;1.345921e-001
8.022759e+002;1.343422e-001
8.042045e+002;1.345938e-001
8.061331e+002;1.346131e-001
8.080616e+002;1.345834e-001
8.099902e+002;1.351723e-001
8.119187e+002;1.356295e-001
8.138472e+002;1.351218e-001
8.157758e+002;1.346608e-001
8.177043e+002;1.345515e-001
8.196329e+002;1.346773e-001
8.215615e+002;1.358510e-001
8.234900e+002;1.367662e-001
8.254185e+002;1.370547e-001
8.273471e+002;1.365433e-001
8.292756e+002;1.355846e-001
8.312042e+002;1.345220e-001
8.331328e+002;1.332254e-001
8.350613e+002;1.317035e-001
8.369898e+002;1.301742e-001
8.389184e+002;1.287998e-001
8.408469e+002;1.277934e-001
8.427755e+002;1.269013e-001
8.447040e+002;1.266639e-001
8.466326e+002;1.272648e-001
8.485611e+002;1.278884e-001
8.504897e+002;1.287800e-001
8.524182e+002;1.288426e-001
8.543467e+002;1.273661e-001
8.562753e+002;1.251152e-001
8.582039e+002;1.227174e-001
8.601324e+002;1.204778e-001
8.620610e+002;1.186974e-001
8.639895e+002;1.175782e-001
8.659180e+002;1.166164e-001
8.678466e+002;1.162706e-001
8.697751e+002;1.165933e-001
8.717037e+002;1.169328e-001
8.736323e+002;1.173438e-001
8.755608e+002;1.169969e-001
8.774893e+002;1.166573e-001
8.794179e+002;1.167012e-001
8.813464e+002;1.169411e-001
8.832750e+002;1.170479e-001
8.852036e+002;1.167108e-001
8.871321e+002;1.164775e-001
8.890606e+002;1.165952e-001
8.909892e+002;1.165901e-001
8.929177e+002;1.164098e-001
8.948463e+002;1.163755e-001
8.967748e+002;1.163328e-001
8.987034e+002;1.160251e-001
9.006319e+002;1.157158e-001
9.025605e+002;1.154183e-001
9.044890e+002;1.153522e-001
9.064175e+002;1.153580e-001
9.083461e+002;1.153769e-001
9.102747e+002;1.157565e-001
9.122032e+002;1.168390e-001
9.141318e+002;1.182435e-001
9.160603e+002;1.196745e-001
9.179888e+002;1.208608e-001
9.199174e+002;1.220837e-001
9.218459e+002;1.236883e-001
9.237745e+002;1.252964e-001
9.257031e+002;1.264569e-001
9.276316e+002;1.274031e-001
9.295601e+002;1.279671e-001
9.314887e+002;1.280360e-001
9.334172e+002;1.278507e-001
9.353458e+002;1.276921e-001
9.372744e+002;1.275754e-001
9.392029e+002;1.281757e-001
9.411314e+002;1.287422e-001
9.430600e+002;1.288641e-001
9.449885e+002;1.292278e-001
9.469171e+002;1.297892e-001
9.488456e+002;1.303277e-001
9.507742e+002;1.310942e-001
9.527027e+002;1.321042e-001
9.546313e+002;1.328970e-001
9.565598e+002;1.338583e-001
9.584883e+002;1.349529e-001
9.604169e+002;1.361545e-001
9.623455e+002;1.377291e-001
9.642740e+002;1.395390e-001
9.662026e+002;1.414550e-001
9.681311e+002;1.438807e-001
9.700596e+002;1.461600e-001
9.719882e+002;1.477584e-001
9.739167e+002;1.490224e-001
9.758453e+002;1.495727e-001
9.777739e+002;1.493032e-001
9.797024e+002;1.488360e-001
9.816309e+002;1.481135e-001
9.835595e+002;1.476752e-001
9.854880e+002;1.482242e-001
9.874166e+002;1.497578e-001
9.893452e+002;1.522045e-001
9.912737e+002;1.551837e-001
9.932022e+002;1.576712e-001
9.951307e+002;1.590257e-001
9.970593e+002;1.594351e-001
9.989879e+002;1.595326e-001
1.000916e+003;1.589515e-001
1.002845e+003;1.578531e-001
1.004773e+003;1.568486e-001
1.006702e+003;1.563594e-001
1.008631e+003;1.562203e-001
1.010559e+003;1.558451e-001
1.012488e+003;1.553613e-001
1.014416e+003;1.547640e-001
1.016345e+003;1.542765e-001
1.018273e+003;1.541298e-001
1.020202e+003;1.545327e-001
1.022130e+003;1.561757e-001
1.024059e+003;1.587145e-001
1.025988e+003;1.616333e-001
1.027916e+003;1.646411e-001
1.029845e+003;1.677007e-001
1.031773e+003;1.703950e-001
1.033702e+003;1.727331e-001
1.035630e+003;1.743718e-001
1.037559e+003;1.759140e-001
1.039487e+003;1.775221e-001
1.041416e+003;1.786340e-001
1.043344e+003;1.791072e-001
1.045273e+003;1.797514e-001
1.047202e+003;1.803468e-001
1.049130e+003;1.803485e-001
1.051059e+003;1.807065e-001
1.052987e+003;1.821924e-001
1.054916e+003;1.840360e-001
1.056844e+003;1.862589e-001
1.058773e+003;1.884240e-001
1.060701e+003;1.902933e-001
1.062630e+003;1.914774e-001
1.064558e+003;1.924042e-001
1.066487e+003;1.931060e-001
1.068416e+003;1.930777e-001
1.070344e+003;1.925284e-001
1.072273e+003;1.908558e-001
1.074201e+003;1.884016e-001
1.076130e+003;1.856373e-001
1.078058e+003;1.822526e-001
1.079987e+003;1.786007e-001
1.081915e+003;1.752460e-001
1.083844e+003;1.720306e-001
1.085773e+003;1.687446e-001
1.087701e+003;1.656608e-001
1.089630e+003;1.631521e-001
1.091558e+003;1.615629e-001
1.093487e+003;1.607747e-001
1.095415e+003;1.603801e-001
1.097344e+003;1.602583e-001
1.099272e+003;1.604909e-001
1.101201e+003;1.606834e-001
1.103129e+003;1.605683e-001
1.105058e+003;1.600105e-001
1.106987e+003;1.592361e-001
1.108915e+003;1.583146e-001
1.110844e+003;1.571347e-001
1.112772e+003;1.565411e-001
1.114701e+003;1.563170e-001
1.116629e+003;1.558814e-001
1.118558e+003;1.556051e-001
1.120486e+003;1.555780e-001
1.122415e+003;1.552835e-001
1.124344e+003;1.553949e-001
1.126272e+003;1.559699e-001
1.128201e+003;1.563320e-001
1.130129e+003;1.566628e-001
1.132058e+003;1.573163e-001
1.133986e+003;1.583572e-001
1.135915e+003;1.595056e-001
1.137843e+003;1.610932e-001
1.139772e+003;1.626731e-001
1.141700e+003;1.645135e-001
1.143629e+003;1.664630e-001
1.145557e+003;1.681938e-001
1.147486e+003;1.699104e-001
1.149415e+003;1.716391e-001
1.151343e+003;1.736728e-001
1.153272e+003;1.757488e-001
1.155200e+003;1.774095e-001
1.157129e+003;1.787141e-001
1.159057e+003;1.797866e-001
1.160986e+003;1.811129e-001
1.162914e+003;1.823262e-001
1.164843e+003;1.833085e-001
1.166771e+003;1.840895e-001
1.168700e+003;1.852001e-001
1.170629e+003;1.859130e-001
1.172557e+003;1.850900e-001
1.174486e+003;1.833489e-001
1.176414e+003;1.813044e-001
1.178343e+003;1.791618e-001
1.180271e+003;1.775353e-001
1.182200e+003;1.767598e-001
1.184128e+003;1.769930e-001
1.186057e+003;1.777813e-001
1.187986e+003;1.787700e-001
1.189914e+003;1.803432e-001
1.191843e+003;1.822484e-001
1.193771e+003;1.841015e-001
1.195700e+003;1.868222e-001
1.197628e+003;1.904499e-001
1.199557e+003;1.942980e-001
1.201485e+003;1.985922e-001
1.203414e+003;2.035558e-001
1.205343e+003;2.087634e-001
1.207271e+003;2.139337e-001
1.209200e+003;2.194554e-001
1.211128e+003;2.249848e-001
1.213057e+003;2.299255e-001
1.214985e+003;2.346718e-001
1.216914e+003;2.391072e-001
1.218842e+003;2.428982e-001
1.220771e+003;2.462366e-001
1.222699e+003;2.491902e-001
1.224628e+003;2.515309e-001
1.226557e+003;2.534123e-001
1.228485e+003;2.545753e-001
1.230414e+003;2.547484e-001
1.232342e+003;2.536072e-001
1.234271e+003;2.514429e-001
1.236199e+003;2.488282e-001
1.238128e+003;2.459679e-001
1.240056e+003;2.431777e-001
1.241985e+003;2.407615e-001
1.243913e+003;2.384711e-001
1.245842e+003;2.367504e-001
1.247771e+003;2.353927e-001
1.249699e+003;2.341384e-001
1.251628e+003;2.333968e-001
1.253556e+003;2.332990e-001
1.255485e+003;2.330901e-001
1.257413e+003;2.326615e-001
1.259342e+003;2.316517e-001
1.261270e+003;2.299735e-001
1.263199e+003;2.274141e-001
1.265127e+003;2.241983e-001
1.267056e+003;2.204481e-001
1.268985e+003;2.161590e-001
1.270913e+003;2.114781e-001
1.272842e+003;2.070363e-001
1.274770e+003;2.031452e-001
1.276699e+003;2.000173e-001
1.278627e+003;1.971699e-001
1.280556e+003;1.947732e-001
1.282484e+003;1.928847e-001
1.284413e+003;1.913913e-001
1.286342e+003;1.902265e-001
1.288270e+003;1.892193e-001
1.290199e+003;1.884275e-001
1.292127e+003;1.878411e-001
1.294056e+003;1.878413e-001
1.295984e+003;1.880649e-001
1.297913e+003;1.881997e-001
1.299841e+003;1.882696e-001
1.301770e+003;1.882092e-001
1.303698e+003;1.880212e-001
1.305627e+003;1.878458e-001
1.307556e+003;1.875512e-001
1.309484e+003;1.871827e-001
1.311413e+003;1.867820e-001
1.313341e+003;1.865874e-001
1.315270e+003;1.864816e-001
1.317198e+003;1.864443e-001
1.319127e+003;1.863942e-001
1.321055e+003;1.868944e-001
1.322984e+003;1.879336e-001
1.324912e+003;1.888755e-001
1.326841e+003;1.898062e-001
1.328770e+003;1.907518e-001
1.330698e+003;1.913462e-001
1.332627e+003;1.917795e-001
1.334555e+003;1.918744e-001
1.336484e+003;1.916056e-001
1.338412e+003;1.912079e-001
1.340341e+003;1.909648e-001
1.342269e+003;1.908343e-001
1.344198e+003;1.908268e-001
1.346126e+003;1.906607e-001
1.348055e+003;1.905506e-001
1.349984e+003;1.905841e-001
1.351912e+003;1.905857e-001
1.353841e+003;1.911054e-001
1.355769e+003;1.924369e-001
1.357698e+003;1.943187e-001
1.359626e+003;1.966823e-001
1.361555e+003;1.996821e-001
1.363483e+003;2.031161e-001
1.365412e+003;2.062514e-001
1.367341e+003;2.082309e-001
1.369269e+003;2.087065e-001
1.371198e+003;2.082225e-001
1.373126e+003;2.074131e-001
1.375055e+003;2.066357e-001
1.376983e+003;2.061688e-001
1.378912e+003;2.059826e-001
1.380840e+003;2.061684e-001
1.382769e+003;2.064778e-001
1.384698e+003;2.067455e-001
1.386626e+003;2.071160e-001
1.388555e+003;2.076763e-001
1.390483e+003;2.083203e-001
1.392412e+003;2.084361e-001
1.394340e+003;2.085452e-001
1.396269e+003;2.095041e-001
1.398197e+003;2.107069e-001
1.400126e+003;2.117424e-001
1.402054e+003;2.127657e-001
1.403983e+003;2.140440e-001
1.405911e+003;2.151886e-001
1.407840e+003;2.160645e-001
1.409769e+003;2.165941e-001
1.411697e+003;2.166376e-001
1.413626e+003;2.169140e-001
1.415554e+003;2.172609e-001
1.417483e+003;2.171552e-001
1.419411e+003;2.173954e-001
1.421340e+003;2.187854e-001
1.423268e+003;2.207563e-001
1.425197e+003;2.237066e-001
1.427125e+003;2.280247e-001
1.429054e+003;2.335853e-001
1.430983e+003;2.402012e-001
1.432911e+003;2.477061e-001
1.434840e+003;2.550149e-001
1.436768e+003;2.608534e-001
1.438697e+003;2.650984e-001
1.440625e+003;2.677386e-001
1.442554e+003;2.691636e-001
1.444482e+003;2.692194e-001
1.446411e+003;2.676941e-001
1.448340e+003;2.645338e-001
1.450268e+003;2.597992e-001
1.452197e+003;2.539259e-001
1.454125e+003;2.470794e-001
1.456054e+003;2.399575e-001
1.457982e+003;2.344610e-001
1.459911e+003;2.311233e-001
1.461839e+003;2.288863e-001
1.463768e+003;2.273190e-001
1.465697e+003;2.269044e-001
1.467625e+003;2.273730e-001
1.469554e+003;2.283066e-001
1.471482e+003;2.296206e-001
1.473411e+003;2.313328e-001
1.475339e+003;2.338782e-001
1.477268e+003;2.372073e-001
1.479196e+003;2.414658e-001
1.481125e+003;2.466158e-001
1.483053e+003;2.528908e-001
1.484982e+003;2.606836e-001
1.486911e+003;2.691680e-001
1.488839e+003;2.781467e-001
1.490768e+003;2.880561e-001
1.492696e+003;2.985266e-001
1.494625e+003;3.092316e-001
1.496553e+003;3.200412e-001
1.498482e+003;3.307900e-001
1.500410e+003;3.409631e-001
1.502339e+003;3.506494e-001
1.504267e+003;3.598678e-001
1.506196e+003;3.686347e-001
1.508125e+003;3.770487e-001
1.510053e+003;3.845296e-001
1.511982e+003;3.905263e-001
1.513910e+003;3.936100e-001
1.515839e+003;3.918304e-001
1.517767e+003;3.855866e-001
1.519696e+003;3.775293e-001
1.521624e+003;3.694605e-001
1.523553e+003;3.624382e-001
1.525481e+003;3.559835e-001
1.527410e+003;3.501041e-001
1.529339e+003;3.446180e-001
1.531267e+003;3.386568e-001
1.533196e+003;3.320533e-001
1.535124e+003;3.252790e-001
1.537053e+003;3.187479e-001
1.538981e+003;3.123778e-001
1.540910e+003;3.061654e-001
1.542838e+003;3.001898e-001
1.544767e+003;2.945882e-001
1.546695e+003;2.887938e-001
1.548624e+003;2.828355e-001
1.550553e+003;2.769565e-001
1.552481e+003;2.710300e-001
1.554410e+003;2.648646e-001
1.556338e+003;2.587582e-001
1.558267e+003;2.522051e-001
1.560195e+003;2.457201e-001
1.562124e+003;2.399750e-001
1.564052e+003;2.337982e-001
1.565981e+003;2.275037e-001
1.567910e+003;2.220159e-001
1.569838e+003;2.172310e-001
1.571767e+003;2.132869e-001
1.573695e+003;2.104210e-001
1.575624e+003;2.083606e-001
1.577552e+003;2.072218e-001
1.579481e+003;2.071809e-001
1.581409e+003;2.080457e-001
1.583338e+003;2.098444e-001
1.585266e+003;2.125103e-001
1.587195e+003;2.166889e-001
1.589124e+003;2.224313e-001
1.591052e+003;2.292955e-001
1.592981e+003;2.368271e-001
1.594909e+003;2.450103e-001
1.596838e+003;2.538273e-001
1.598766e+003;2.639641e-001
1.600695e+003;2.759814e-001
1.602623e+003;2.895925e-001
1.604552e+003;3.047092e-001
1.606480e+003;3.210131e-001
1.608409e+003;3.382952e-001
1.610338e+003;3.556560e-001
1.612266e+003;3.716211e-001
1.614195e+003;3.858579e-001
1.616123e+003;3.981721e-001
1.618052e+003;4.079492e-001
1.619980e+003;4.135592e-001
1.621909e+003;4.146993e-001
1.623837e+003;4.122642e-001
1.625766e+003;4.067257e-001
1.627694e+003;3.985018e-001
1.629623e+003;3.882545e-001
1.631552e+003;3.770767e-001
1.633480e+003;3.657629e-001
1.635409e+003;3.540824e-001
1.637337e+003;3.431268e-001
1.639266e+003;3.331279e-001
1.641194e+003;3.238536e-001
1.643123e+003;3.154193e-001
1.645051e+003;3.070346e-001
1.646980e+003;2.990516e-001
1.648909e+003;2.918089e-001
1.650837e+003;2.847038e-001
1.652766e+003;2.768521e-001
1.654694e+003;2.693929e-001
1.656623e+003;2.624114e-001
1.658551e+003;2.547894e-001
1.660480e+003;2.471953e-001
1.662408e+003;2.400768e-001
1.664337e+003;2.334118e-001
1.666266e+003;2.269951e-001
1.668194e+003;2.207791e-001
1.670123e+003;2.147750e-001
1.672051e+003;2.091503e-001
1.673980e+003;2.038438e-001
1.675908e+003;1.986070e-001
1.677837e+003;1.934215e-001
1.679765e+003;1.884400e-001
1.681694e+003;1.837406e-001
1.683622e+003;1.792646e-001
1.685551e+003;1.754229e-001
1.687479e+003;1.723451e-001
1.689408e+003;1.695801e-001
1.691337e+003;1.673859e-001
1.693265e+003;1.659266e-001
1.695194e+003;1.650825e-001
1.697122e+003;1.646462e-001
1.699051e+003;1.621861e-001
1.700979e+003;1.558788e-001
1.702908e+003;1.459141e-001
1.704836e+003;1.332856e-001
1.706765e+003;1.211971e-001
1.708693e+003;1.112035e-001
1.710622e+003;1.033257e-001
1.712551e+003;9.739537e-002
1.714479e+003;9.270034e-002
1.716408e+003;8.887935e-002
1.718336e+003;8.609371e-002
1.720265e+003;8.408758e-002
1.722193e+003;8.248473e-002
1.724122e+003;8.091675e-002
1.726050e+003;7.968923e-002
1.727979e+003;7.859432e-002
1.729908e+003;7.728022e-002
1.731836e+003;7.603899e-002
1.733765e+003;7.502762e-002
1.735693e+003;7.454168e-002
1.737622e+003;7.402940e-002
1.739550e+003;7.310992e-002
1.741479e+003;7.261410e-002
1.743407e+003;7.196802e-002
1.745336e+003;7.113945e-002
1.747265e+003;7.043862e-002
1.749193e+003;6.990793e-002
1.751122e+003;6.965003e-002
1.753050e+003;6.951068e-002
1.754979e+003;6.922586e-002
1.756907e+003;6.902357e-002
1.758836e+003;6.880134e-002
1.760764e+003;6.861639e-002
1.762693e+003;6.854708e-002
1.764621e+003;6.875312e-002
1.766550e+003;6.861204e-002
1.768479e+003;6.827205e-002
1.770407e+003;6.799963e-002
1.772336e+003;6.755922e-002
1.774264e+003;6.750859e-002
1.776193e+003;6.771576e-002
1.778121e+003;6.761102e-002
1.780050e+003;6.739094e-002
1.781978e+003;6.723696e-002
1.783907e+003;6.695776e-002
1.785835e+003;6.666464e-002
1.787764e+003;6.656213e-002
1.789693e+003;6.624906e-002
1.791621e+003;6.593108e-002
1.793550e+003;6.589942e-002
1.795478e+003;6.590316e-002
1.797407e+003;6.574334e-002
1.799335e+003;6.560986e-002
1.801264e+003;6.540613e-002
1.803192e+003;6.521916e-002
1.805121e+003;6.506340e-002
1.807049e+003;6.490151e-002
1.808978e+003;6.467029e-002
1.810907e+003;6.433199e-002
1.812835e+003;6.405354e-002
1.814764e+003;6.411898e-002
1.816692e+003;6.397226e-002
1.818621e+003;6.362502e-002
1.820549e+003;6.326120e-002
1.822478e+003;6.296650e-002
1.824406e+003;6.275757e-002
1.826335e+003;6.275171e-002
1.828264e+003;6.271929e-002
1.830192e+003;6.234600e-002
1.832121e+003;6.200790e-002
1.834049e+003;6.184332e-002
1.835978e+003;6.157173e-002
1.837906e+003;6.144293e-002
1.839835e+003;6.149687e-002
1.841763e+003;6.129089e-002
1.843692e+003;6.108615e-002
1.845620e+003;6.111781e-002
1.847549e+003;6.104805e-002
1.849478e+003;6.098258e-002
1.851406e+003;6.096672e-002
1.853335e+003;6.083265e-002
1.855263e+003;6.060306e-002
1.857192e+003;6.035105e-002
1.859120e+003;6.035600e-002
1.861049e+003;6.044476e-002
1.862977e+003;6.040417e-002
1.864906e+003;6.031416e-002
1.866834e+003;6.030673e-002
1.868763e+003;6.037755e-002
1.870692e+003;6.040908e-002
1.872620e+003;6.038018e-002
1.874549e+003;6.047366e-002
1.876477e+003;6.055494e-002
1.878406e+003;6.054024e-002
1.880334e+003;6.045504e-002
1.882263e+003;6.012198e-002
1.884191e+003;5.994590e-002
1.886120e+003;5.997322e-002
1.888048e+003;5.995812e-002
1.889977e+003;6.005029e-002
1.891906e+003;6.014577e-002
1.893834e+003;6.012548e-002
1.895763e+003;6.002157e-002
1.897691e+003;5.981679e-002
1.899620e+003;5.981698e-002
1.901548e+003;5.976119e-002
1.903477e+003;5.967854e-002
1.905405e+003;5.967504e-002
1.907334e+003;5.950713e-002
1.909262e+003;5.932617e-002
1.911191e+003;5.956595e-002
1.913120e+003;5.968527e-002
1.915048e+003;5.933874e-002
1.916977e+003;5.901482e-002
1.918905e+003;5.903068e-002
1.920834e+003;5.922966e-002
1.922762e+003;5.929825e-002
1.924691e+003;5.913983e-002
1.926619e+003;5.904393e-002
1.928548e+003;5.887246e-002
1.930477e+003;5.880842e-002
1.932405e+003;5.895022e-002
1.934334e+003;5.886370e-002
1.936262e+003;5.865938e-002
1.938191e+003;5.878930e-002
1.940119e+003;5.889857e-002
1.942048e+003;5.888662e-002
1.943976e+003;5.892081e-002
1.945905e+003;5.885763e-002
1.947833e+003;5.893029e-002
1.949762e+003;5.915463e-002
1.951691e+003;5.917954e-002
1.953619e+003;5.914647e-002
1.955548e+003;5.909821e-002
1.957476e+003;5.915095e-002
1.959405e+003;5.927224e-002
1.961333e+003;5.933065e-002
1.963262e+003;5.932328e-002
1.965190e+003;5.927733e-002
1.967119e+003;5.911579e-002
1.969047e+003;5.903121e-002
1.970976e+003;5.921767e-002
1.972905e+003;5.923738e-002
1.974833e+003;5.907384e-002
1.976762e+003;5.902897e-002
1.978690e+003;5.925226e-002
1.980619e+003;5.923061e-002
1.982547e+003;5.910163e-002
1.984476e+003;5.889603e-002
1.986404e+003;5.884571e-002
1.988333e+003;5.899671e-002
1.990261e+003;5.890009e-002
1.992190e+003;5.874798e-002
1.994119e+003;5.868525e-002
1.996047e+003;5.861751e-002
1.997976e+003;5.866685e-002
1.999904e+003;5.874415e-002
2.001833e+003;5.865874e-002
2.003761e+003;5.871889e-002
2.005690e+003;5.876737e-002
2.007618e+003;5.862358e-002
2.009547e+003;5.859400e-002
2.011476e+003;5.869674e-002
2.013404e+003;5.860208e-002
2.015333e+003;5.851487e-002
2.017261e+003;5.857406e-002
2.019190e+003;5.860496e-002
2.021118e+003;5.874541e-002
2.023047e+003;5.888001e-002
2.024975e+003;5.897807e-002
2.026904e+003;5.898331e-002
2.028833e+003;5.876437e-002
2.030761e+003;5.864266e-002
2.032690e+003;5.860215e-002
2.034618e+003;5.851965e-002
2.036547e+003;5.859996e-002
2.038475e+003;5.875770e-002
2.040404e+003;5.861425e-002
2.042332e+003;5.858733e-002
2.044261e+003;5.890699e-002
2.046189e+003;5.902954e-002
2.048118e+003;5.868950e-002
2.050047e+003;5.867288e-002
2.051975e+003;5.902836e-002
2.053904e+003;5.918117e-002
2.055832e+003;5.909920e-002
2.057761e+003;5.897405e-002
2.059689e+003;5.890070e-002
2.061618e+003;5.875808e-002
2.063546e+003;5.881710e-002
2.065475e+003;5.912301e-002
2.067404e+003;5.925822e-002
2.069332e+003;5.927133e-002
2.071260e+003;5.934478e-002
2.073189e+003;5.946810e-002
2.075118e+003;5.945557e-002
2.077046e+003;5.933331e-002
2.078975e+003;5.939922e-002
2.080903e+003;5.946267e-002
2.082832e+003;5.936678e-002
2.084760e+003;5.922549e-002
2.086689e+003;5.929362e-002
2.088617e+003;5.928922e-002
2.090546e+003;5.934691e-002
2.092475e+003;5.962300e-002
2.094403e+003;5.956641e-002
2.096332e+003;5.944569e-002
2.098260e+003;5.951918e-002
2.100189e+003;5.947570e-002
2.102117e+003;5.937863e-002
2.104046e+003;5.945241e-002
2.105974e+003;5.926225e-002
2.107903e+003;5.916302e-002
2.109832e+003;5.929423e-002
2.111760e+003;5.921896e-002
2.113688e+003;5.914518e-002
2.115617e+003;5.902188e-002
2.117546e+003;5.879867e-002
2.119474e+003;5.862335e-002
2.121403e+003;5.849800e-002
2.123331e+003;5.861998e-002
2.125260e+003;5.879176e-002
2.127188e+003;5.895629e-002
2.129117e+003;5.893420e-002
2.131045e+003;5.893147e-002
2.132974e+003;5.909556e-002
2.134903e+003;5.911553e-002
2.136831e+003;5.898096e-002
2.138760e+003;5.901762e-002
2.140688e+003;5.892505e-002
2.142617e+003;5.865961e-002
2.144545e+003;5.868282e-002
2.146474e+003;5.891337e-002
2.148402e+003;5.895359e-002
2.150331e+003;5.882200e-002
2.152260e+003;5.861770e-002
2.154188e+003;5.861353e-002
2.156117e+003;5.885774e-002
2.158045e+003;5.890274e-002
2.159974e+003;5.865980e-002
2.161902e+003;5.855874e-002
2.163831e+003;5.871980e-002
2.165759e+003;5.879681e-002
2.167688e+003;5.867618e-002
2.169616e+003;5.853606e-002
2.171545e+003;5.861164e-002
2.173474e+003;5.867512e-002
2.175402e+003;5.861251e-002
2.177331e+003;5.858960e-002
2.179259e+003;5.847882e-002
2.181188e+003;5.848640e-002
2.183116e+003;5.868718e-002
2.185045e+003;5.866826e-002
2.186973e+003;5.824172e-002
2.188902e+003;5.802046e-002
2.190831e+003;5.812163e-002
2.192759e+003;5.822357e-002
2.194688e+003;5.840888e-002
2.196616e+003;5.839432e-002
2.198545e+003;5.837871e-002
2.200473e+003;5.833607e-002
2.202402e+003;5.819993e-002
2.204330e+003;5.800372e-002
2.206259e+003;5.783002e-002
2.208188e+003;5.780787e-002
2.210116e+003;5.790153e-002
2.212044e+003;5.789237e-002
2.213973e+003;5.800111e-002
2.215902e+003;5.821436e-002
2.217830e+003;5.820531e-002
2.219759e+003;5.803894e-002
2.221687e+003;5.802845e-002
2.223616e+003;5.799475e-002
2.225544e+003;5.791694e-002
2.227473e+003;5.801853e-002
2.229401e+003;5.810943e-002
2.231330e+003;5.804478e-002
2.233259e+003;5.782760e-002
2.235187e+003;5.780435e-002
2.237116e+003;5.803962e-002
2.239044e+003;5.806030e-002
2.240973e+003;5.804849e-002
2.242901e+003;5.805708e-002
2.244830e+003;5.801391e-002
2.246758e+003;5.817288e-002
2.248687e+003;5.812268e-002
2.250615e+003;5.792360e-002
2.252544e+003;5.784667e-002
2.254473e+003;5.776760e-002
2.256401e+003;5.766130e-002
2.258330e+003;5.768506e-002
2.260258e+003;5.770474e-002
2.262187e+003;5.751122e-002
2.264115e+003;5.742465e-002
2.266044e+003;5.768669e-002
2.267972e+003;5.800812e-002
2.269901e+003;5.812507e-002
2.271830e+003;5.799721e-002
2.273758e+003;5.790600e-002
2.275687e+003;5.792334e-002
2.277615e+003;5.785080e-002
2.279544e+003;5.777839e-002
2.281472e+003;5.789312e-002
2.283401e+003;5.802342e-002
2.285329e+003;5.810712e-002
2.287258e+003;5.798786e-002
2.289187e+003;5.791243e-002
2.291115e+003;5.829276e-002
2.293043e+003;5.835942e-002
2.294972e+003;5.836207e-002
2.296901e+003;5.834748e-002
2.298829e+003;5.821762e-002
2.300758e+003;5.833702e-002
2.302686e+003;5.841741e-002
2.304615e+003;5.831970e-002
2.306543e+003;5.823945e-002
2.308472e+003;5.838792e-002
2.310400e+003;5.843352e-002
2.312329e+003;5.832516e-002
2.314258e+003;5.813288e-002
2.316186e+003;5.793292e-002
2.318115e+003;5.801573e-002
2.320043e+003;5.805936e-002
2.321972e+003;5.800463e-002
2.323900e+003;5.785970e-002
2.325829e+003;5.771689e-002
2.327757e+003;5.768593e-002
2.329686e+003;5.757708e-002
2.331615e+003;5.729106e-002
2.333543e+003;5.727446e-002
2.335472e+003;5.750328e-002
2.337400e+003;5.744881e-002
2.339329e+003;5.737273e-002
2.341257e+003;5.767621e-002
2.343186e+003;5.805727e-002
2.345114e+003;5.810897e-002
2.347043e+003;5.839224e-002
2.348971e+003;5.862426e-002
2.350900e+003;5.839701e-002
2.352829e+003;5.790816e-002
2.354757e+003;5.763769e-002
2.356686e+003;5.750037e-002
2.358614e+003;5.727366e-002
2.360543e+003;5.699910e-002
2.362471e+003;5.701278e-002
2.364400e+003;5.736721e-002
2.366328e+003;5.774304e-002
2.368257e+003;5.791694e-002
2.370186e+003;5.817174e-002
2.372114e+003;5.835487e-002
2.374042e+003;5.869871e-002
2.375971e+003;5.890096e-002
2.377900e+003;5.898882e-002
2.379828e+003;5.917563e-002
2.381757e+003;5.925063e-002
2.383685e+003;5.956744e-002
2.385614e+003;5.993077e-002
2.387542e+003;6.007088e-002
2.389471e+003;5.996477e-002
2.391399e+003;5.995473e-002
2.393328e+003;6.034271e-002
2.395257e+003;6.049004e-002
2.397185e+003;6.044541e-002
2.399114e+003;6.060439e-002
2.401042e+003;6.090660e-002
2.402971e+003;6.110613e-002
2.404899e+003;6.120886e-002
2.406828e+003;6.142335e-002
2.408756e+003;6.182468e-002
2.410685e+003;6.211882e-002
2.412614e+003;6.207762e-002
2.414542e+003;6.216512e-002
2.416471e+003;6.244076e-002
2.418399e+003;6.272357e-002
2.420328e+003;6.294126e-002
2.422256e+003;6.324395e-002
2.424185e+003;6.353300e-002
2.426113e+003;6.366285e-002
2.428042e+003;6.381622e-002
2.429970e+003;6.397706e-002
2.431899e+003;6.410182e-002
2.433828e+003;6.424912e-002
2.435756e+003;6.448675e-002
2.437685e+003;6.446381e-002
2.439613e+003;6.432507e-002
2.441542e+003;6.443490e-002
2.443470e+003;6.468944e-002
2.445399e+003;6.467499e-002
2.447327e+003;6.488919e-002
2.449256e+003;6.519255e-002
2.451185e+003;6.499701e-002
2.453113e+003;6.484245e-002
2.455042e+003;6.478987e-002
2.456970e+003;6.488823e-002
2.458899e+003;6.514262e-002
2.460827e+003;6.534620e-002
2.462756e+003;6.555464e-002
2.464684e+003;6.557769e-002
2.466613e+003;6.546980e-002
2.468542e+003;6.547824e-002
2.470470e+003;6.563179e-002
2.472398e+003;6.580749e-002
2.474327e+003;6.598242e-002
2.476256e+003;6.610829e-002
2.478184e+003;6.598827e-002
2.480113e+003;6.592672e-002
2.482041e+003;6.619260e-002
2.483970e+003;6.657271e-002
2.485898e+003;6.652050e-002
2.487827e+003;6.640358e-002
2.489755e+003;6.688146e-002
2.491684e+003;6.717774e-002
2.493613e+003;6.690569e-002
2.495541e+003;6.670212e-002
2.497470e+003;6.681402e-002
2.499398e+003;6.684954e-002
2.501327e+003;6.677788e-002
2.503255e+003;6.680672e-002
2.505184e+003;6.680606e-002
2.507112e+003;6.687585e-002
2.509041e+003;6.698328e-002
2.510969e+003;6.712588e-002
2.512898e+003;6.732865e-002
2.514827e+003;6.733929e-002
2.516755e+003;6.732281e-002
2.518684e+003;6.735940e-002
2.520612e+003;6.748394e-002
2.522541e+003;6.749597e-002
2.524469e+003;6.753007e-002
2.526398e+003;6.748541e-002
2.528326e+003;6.750774e-002
2.530255e+003;6.770592e-002
2.532184e+003;6.755922e-002
2.534112e+003;6.747620e-002
2.536041e+003;6.769554e-002
2.537969e+003;6.780410e-002
2.539898e+003;6.787185e-002
2.541826e+003;6.826080e-002
2.543755e+003;6.863917e-002
2.545683e+003;6.878111e-002
2.547612e+003;6.887386e-002
2.549541e+003;6.882556e-002
2.551469e+003;6.885037e-002
2.553397e+003;6.917519e-002
2.555326e+003;6.950714e-002
2.557255e+003;6.971613e-002
2.559183e+003;6.961662e-002
2.561112e+003;6.971504e-002
2.563040e+003;7.002097e-002
2.564969e+003;7.039455e-002
2.566897e+003;7.057059e-002
2.568826e+003;7.073180e-002
2.570754e+003;7.094602e-002
2.572683e+003;7.111837e-002
2.574612e+003;7.119589e-002
2.576540e+003;7.136234e-002
2.578469e+003;7.175057e-002
2.580397e+003;7.196782e-002
2.582326e+003;7.210682e-002
2.584254e+003;7.235605e-002
2.586183e+003;7.262725e-002
2.588111e+003;7.296327e-002
2.590040e+003;7.290244e-002
2.591969e+003;7.276729e-002
2.593897e+003;7.308730e-002
2.595826e+003;7.328922e-002
2.597754e+003;7.350639e-002
2.599683e+003;7.396701e-002
2.601611e+003;7.435211e-002
2.603540e+003;7.433139e-002
2.605468e+003;7.435463e-002
2.607397e+003;7.443493e-002
2.609325e+003;7.440720e-002
2.611254e+003;7.435718e-002
2.613183e+003;7.443815e-002
2.615111e+003;7.478745e-002
2.617040e+003;7.506130e-002
2.618968e+003;7.502770e-002
2.620897e+003;7.498907e-002
2.622825e+003;7.522096e-002
2.624754e+003;7.514862e-002
2.626682e+003;7.508016e-002
2.628611e+003;7.509552e-002
2.630540e+003;7.498982e-002
2.632468e+003;7.489567e-002
2.634396e+003;7.489453e-002
2.636325e+003;7.482930e-002
2.638254e+003;7.478336e-002
2.640182e+003;7.482603e-002
2.642111e+003;7.490831e-002
2.644039e+003;7.489965e-002
2.645968e+003;7.476518e-002
2.647896e+003;7.478183e-002
2.649825e+003;7.501195e-002
2.651753e+003;7.508930e-002
2.653682e+003;7.508091e-002
2.655611e+003;7.509820e-002
2.657539e+003;7.503239e-002
2.659468e+003;7.516272e-002
2.661396e+003;7.541484e-002
2.663325e+003;7.547437e-002
2.665253e+003;7.556817e-002
2.667182e+003;7.575846e-002
2.669110e+003;7.588310e-002
2.671039e+003;7.612956e-002
2.672968e+003;7.647189e-002
2.674896e+003;7.660614e-002
2.676825e+003;7.659443e-002
2.678753e+003;7.651998e-002
2.680682e+003;7.666420e-002
2.682610e+003;7.710096e-002
2.684539e+003;7.714212e-002
2.686467e+003;7.727721e-002
2.688396e+003;7.754304e-002
2.690324e+003;7.771174e-002
2.692253e+003;7.804485e-002
2.694182e+003;7.832452e-002
2.696110e+003;7.834496e-002
2.698039e+003;7.835686e-002
2.699967e+003;7.856026e-002
2.701896e+003;7.893617e-002
2.703824e+003;7.914223e-002
2.705753e+003;7.929874e-002
2.707681e+003;7.933275e-002
2.709610e+003;7.942902e-002
2.711539e+003;7.968339e-002
2.713467e+003;7.984196e-002
2.715396e+003;7.999714e-002
2.717324e+003;8.026878e-002
2.719253e+003;8.048213e-002
2.721181e+003;8.086211e-002
2.723110e+003;8.094670e-002
2.725038e+003;8.088694e-002
2.726967e+003;8.123979e-002
2.728896e+003;8.156463e-002
2.730824e+003;8.148128e-002
2.732752e+003;8.153280e-002
2.734681e+003;8.193684e-002
2.736610e+003;8.218591e-002
2.738538e+003;8.241098e-002
2.740467e+003;8.288749e-002
2.742395e+003;8.309972e-002
2.744324e+003;8.325152e-002
2.746252e+003;8.346321e-002
2.748181e+003;8.346385e-002
2.750109e+003;8.362088e-002
2.752038e+003;8.380502e-002
2.753967e+003;8.398858e-002
2.755895e+003;8.437781e-002
2.757824e+003;8.453719e-002
2.759752e+003;8.457370e-002
2.761681e+003;8.484802e-002
2.763609e+003;8.486796e-002
2.765538e+003;8.483586e-002
2.767466e+003;8.489250e-002
2.769395e+003;8.511002e-002
2.771323e+003;8.546673e-002
2.773252e+003;8.566876e-002
2.775181e+003;8.584884e-002
2.777109e+003;8.583091e-002
2.779038e+003;8.594494e-002
2.780966e+003;8.623318e-002
2.782895e+003;8.644924e-002
2.784823e+003;8.675141e-002
2.786752e+003;8.673336e-002
2.788680e+003;8.653096e-002
2.790609e+003;8.638160e-002
2.792538e+003;8.674769e-002
2.794466e+003;8.726689e-002
2.796395e+003;8.753226e-002
2.798323e+003;8.780371e-002
2.800252e+003;8.786801e-002
2.802180e+003;8.792216e-002
2.804109e+003;8.821533e-002
2.806037e+003;8.859223e-002
2.807966e+003;8.866769e-002
2.809895e+003;8.856668e-002
2.811823e+003;8.851601e-002
2.813751e+003;8.866773e-002
2.815680e+003;8.928262e-002
2.817609e+003;8.967377e-002
2.819537e+003;8.954667e-002
2.821466e+003;8.963235e-002
2.823394e+003;8.990190e-002
2.825323e+003;9.010242e-002
2.827251e+003;9.023042e-002
2.829180e+003;9.021036e-002
2.831108e+003;9.045998e-002
2.833037e+003;9.078117e-002
2.834966e+003;9.124071e-002
2.836894e+003;9.156804e-002
2.838823e+003;9.176061e-002
2.840751e+003;9.218337e-002
2.842680e+003;9.282140e-002
2.844608e+003;9.339591e-002
2.846537e+003;9.370616e-002
2.848465e+003;9.396986e-002
2.850394e+003;9.442125e-002
2.852323e+003;9.545530e-002
2.854251e+003;9.672583e-002
2.856180e+003;9.741850e-002
2.858108e+003;9.807894e-002
2.860037e+003;9.843004e-002
2.861965e+003;9.866926e-002
2.863894e+003;9.959749e-002
2.865822e+003;1.005562e-001
2.867751e+003;1.011956e-001
2.869679e+003;1.018635e-001
2.871608e+003;1.022624e-001
2.873536e+003;1.024473e-001
2.875465e+003;1.027335e-001
2.877394e+003;1.027751e-001
2.879322e+003;1.027172e-001
2.881251e+003;1.026466e-001
2.883179e+003;1.022823e-001
2.885108e+003;1.019142e-001
2.887036e+003;1.017604e-001
2.888965e+003;1.015371e-001
2.890893e+003;1.013712e-001
2.892822e+003;1.015529e-001
2.894750e+003;1.020364e-001
2.896679e+003;1.024684e-001
2.898608e+003;1.027867e-001
2.900536e+003;1.031520e-001
2.902465e+003;1.034267e-001
2.904393e+003;1.037005e-001
2.906322e+003;1.040796e-001
2.908250e+003;1.043121e-001
2.910179e+003;1.045352e-001
2.912107e+003;1.050309e-001
2.914036e+003;1.054895e-001
2.915965e+003;1.060365e-001
2.917893e+003;1.071369e-001
2.919822e+003;1.084894e-001
2.921750e+003;1.095300e-001
2.923679e+003;1.103735e-001
2.925607e+003;1.111810e-001
2.927536e+003;1.121500e-001
2.929464e+003;1.129728e-001
2.931393e+003;1.129438e-001
2.933322e+003;1.125715e-001
2.935250e+003;1.125196e-001
2.937178e+003;1.121119e-001
2.939107e+003;1.111193e-001
2.941036e+003;1.101799e-001
2.942964e+003;1.094826e-001
2.944893e+003;1.086300e-001
2.946821e+003;1.081021e-001
2.948750e+003;1.075190e-001
2.950678e+003;1.067486e-001
2.952607e+003;1.061076e-001
2.954535e+003;1.055368e-001
2.956464e+003;1.052339e-001
2.958393e+003;1.049048e-001
2.960321e+003;1.046941e-001
2.962250e+003;1.049546e-001
2.964178e+003;1.051780e-001
2.966107e+003;1.055081e-001
2.968035e+003;1.060184e-001
2.969964e+003;1.059871e-001
2.971892e+003;1.054132e-001
2.973821e+003;1.053379e-001
2.975750e+003;1.053031e-001
2.977678e+003;1.052445e-001
2.979607e+003;1.051586e-001
2.981535e+003;1.048390e-001
2.983464e+003;1.042196e-001
2.985392e+003;1.033946e-001
2.987321e+003;1.028302e-001
2.989249e+003;1.026606e-001
2.991178e+003;1.022650e-001
2.993106e+003;1.017736e-001
2.995035e+003;1.013975e-001
2.996964e+003;1.007512e-001
2.998892e+003;9.997205e-002
3.000821e+003;9.949777e-002
3.002749e+003;9.913240e-002
3.004678e+003;9.893283e-002
3.006606e+003;9.897968e-002
3.008535e+003;9.898039e-002
3.010463e+003;9.910734e-002
3.012392e+003;9.905035e-002
3.014321e+003;9.913798e-002
3.016249e+003;9.938354e-002
3.018177e+003;9.939616e-002
3.020106e+003;9.965055e-002
3.022035e+003;1.003080e-001
3.023963e+003;1.008672e-001
3.025892e+003;1.011414e-001
3.027820e+003;1.015500e-001
3.029749e+003;1.020165e-001
3.031677e+003;1.024933e-001
3.033606e+003;1.031260e-001
3.035534e+003;1.036710e-001
3.037463e+003;1.040736e-001
3.039392e+003;1.044488e-001
3.041320e+003;1.047179e-001
3.043249e+003;1.050422e-001
3.045177e+003;1.055967e-001
3.047106e+003;1.064004e-001
3.049034e+003;1.071910e-001
3.050963e+003;1.078458e-001
3.052891e+003;1.083128e-001
3.054820e+003;1.086393e-001
3.056749e+003;1.090498e-001
3.058677e+003;1.095283e-001
3.060606e+003;1.103629e-001
3.062534e+003;1.108444e-001
3.064463e+003;1.110212e-001
3.066391e+003;1.114393e-001
3.068320e+003;1.119261e-001
3.070248e+003;1.121065e-001
3.072177e+003;1.119581e-001
3.074105e+003;1.117822e-001
3.076034e+003;1.117839e-001
3.077963e+003;1.116605e-001
3.079891e+003;1.113084e-001
3.081820e+003;1.108789e-001
3.083748e+003;1.105838e-001
3.085677e+003;1.106481e-001
3.087605e+003;1.104094e-001
3.089534e+003;1.101357e-001
3.091462e+003;1.099863e-001
3.093391e+003;1.098445e-001
3.095320e+003;1.096553e-001
3.097248e+003;1.089098e-001
3.099177e+003;1.081819e-001
3.101105e+003;1.077102e-001
3.103034e+003;1.072779e-001
3.104962e+003;1.071695e-001
3.106891e+003;1.073452e-001
3.108819e+003;1.072540e-001
3.110748e+003;1.067072e-001
3.112677e+003;1.066186e-001
3.114605e+003;1.066282e-001
3.116533e+003;1.062156e-001
3.118462e+003;1.060560e-001
3.120391e+003;1.058035e-001
3.122319e+003;1.055019e-001
3.124248e+003;1.056041e-001
3.126176e+003;1.057225e-001
3.128105e+003;1.057177e-001
3.130033e+003;1.060535e-001
3.131962e+003;1.063795e-001
3.133890e+003;1.062576e-001
3.135819e+003;1.065071e-001
3.137748e+003;1.070340e-001
3.139676e+003;1.075421e-001
3.141605e+003;1.077496e-001
3.143533e+003;1.079166e-001
3.145462e+003;1.081507e-001
3.147390e+003;1.085674e-001
3.149319e+003;1.092804e-001
3.151247e+003;1.097018e-001
3.153176e+003;1.100997e-001
3.155104e+003;1.106095e-001
3.157033e+003;1.112516e-001
3.158962e+003;1.120323e-001
3.160890e+003;1.128083e-001
3.162819e+003;1.134169e-001
3.164747e+003;1.141269e-001
3.166676e+003;1.149226e-001
3.168604e+003;1.157102e-001
3.170533e+003;1.165935e-001
3.172461e+003;1.172449e-001
3.174390e+003;1.183866e-001
3.176319e+003;1.194561e-001
3.178247e+003;1.199316e-001
3.180176e+003;1.206675e-001
3.182104e+003;1.216526e-001
3.184033e+003;1.228092e-001
3.185961e+003;1.236239e-001
3.187890e+003;1.244842e-001
3.189818e+003;1.254823e-001
3.191747e+003;1.266139e-001
3.193676e+003;1.277331e-001
3.195604e+003;1.286554e-001
3.197532e+003;1.296422e-001
3.199461e+003;1.305700e-001
3.201390e+003;1.315599e-001
3.203318e+003;1.329776e-001
3.205247e+003;1.346131e-001
3.207175e+003;1.357681e-001
3.209104e+003;1.367189e-001
3.211032e+003;1.376582e-001
3.212961e+003;1.387755e-001
3.214889e+003;1.400432e-001
3.216818e+003;1.414736e-001
3.218747e+003;1.429056e-001
3.220675e+003;1.442876e-001
3.222604e+003;1.454742e-001
3.224532e+003;1.467778e-001
3.226461e+003;1.481439e-001
3.228389e+003;1.494030e-001
3.230318e+003;1.510231e-001
3.232246e+003;1.528174e-001
3.234175e+003;1.543467e-001
3.236104e+003;1.560274e-001
3.238032e+003;1.577130e-001
3.239961e+003;1.592908e-001
3.241889e+003;1.612910e-001
3.243818e+003;1.629512e-001
3.245746e+003;1.647777e-001
3.247675e+003;1.672156e-001
3.249603e+003;1.695166e-001
3.251532e+003;1.718283e-001
3.253460e+003;1.743716e-001
3.255389e+003;1.766874e-001
3.257318e+003;1.787151e-001
3.259246e+003;1.812701e-001
3.261175e+003;1.844177e-001
3.263103e+003;1.871950e-001
3.265032e+003;1.891973e-001
3.266960e+003;1.911691e-001
3.268889e+003;1.935288e-001
3.270817e+003;1.958450e-001
3.272746e+003;1.978585e-001
3.274675e+003;1.993405e-001
3.276603e+003;2.004503e-001
3.278531e+003;2.012051e-001
3.280460e+003;2.014238e-001
3.282389e+003;2.008803e-001
3.284317e+003;1.999974e-001
3.286246e+003;1.986823e-001
3.288174e+003;1.973763e-001
3.290103e+003;1.964143e-001
3.292031e+003;1.946006e-001
3.293960e+003;1.918007e-001
3.295888e+003;1.891271e-001
3.297817e+003;1.868501e-001
3.299746e+003;1.845742e-001
3.301674e+003;1.818685e-001
3.303603e+003;1.786681e-001
3.305531e+003;1.752826e-001
3.307460e+003;1.721853e-001
3.309388e+003;1.694853e-001
3.311317e+003;1.662980e-001
3.313245e+003;1.632741e-001
3.315174e+003;1.608764e-001
3.317103e+003;1.584136e-001
3.319031e+003;1.557961e-001
3.320960e+003;1.535170e-001
3.322888e+003;1.506465e-001
3.324817e+003;1.477594e-001
3.326745e+003;1.457621e-001
3.328674e+003;1.434181e-001
3.330602e+003;1.408909e-001
3.332531e+003;1.387460e-001
3.334459e+003;1.369963e-001
3.336388e+003;1.351822e-001
3.338317e+003;1.333053e-001
3.340245e+003;1.316431e-001
3.342174e+003;1.299598e-001
3.344102e+003;1.281456e-001
3.346031e+003;1.264120e-001
3.347959e+003;1.248852e-001
3.349888e+003;1.235755e-001
3.351816e+003;1.222794e-001
3.353745e+003;1.210869e-001
3.355674e+003;1.201450e-001
3.357602e+003;1.189592e-001
3.359531e+003;1.176515e-001
3.361459e+003;1.165517e-001
3.363388e+003;1.158014e-001
3.365316e+003;1.150522e-001
3.367245e+003;1.142729e-001
3.369173e+003;1.134809e-001
3.371102e+003;1.129784e-001
3.373031e+003;1.122209e-001
3.374959e+003;1.108129e-001
3.376887e+003;1.096685e-001
3.378816e+003;1.093317e-001
3.380745e+003;1.091929e-001
3.382673e+003;1.083886e-001
3.384602e+003;1.075207e-001
3.386530e+003;1.070930e-001
3.388459e+003;1.065628e-001
3.390387e+003;1.060861e-001
3.392316e+003;1.054802e-001
3.394244e+003;1.045096e-001
3.396173e+003;1.038997e-001
3.398102e+003;1.033000e-001
3.400030e+003;1.023317e-001
3.401959e+003;1.015547e-001
3.403887e+003;1.010746e-001
3.405816e+003;1.007744e-001
3.407744e+003;1.002589e-001
3.409673e+003;9.959595e-002
3.411601e+003;9.910638e-002
3.413530e+003;9.854095e-002
3.415458e+003;9.793386e-002
3.417387e+003;9.736170e-002
3.419316e+003;9.652529e-002
3.421244e+003;9.563515e-002
3.423173e+003;9.489048e-002
3.425101e+003;9.446310e-002
3.427030e+003;9.415197e-002
3.428958e+003;9.342960e-002
3.430887e+003;9.257238e-002
3.432815e+003;9.208079e-002
3.434744e+003;9.172181e-002
3.436673e+003;9.125085e-002
3.438601e+003;9.081711e-002
3.440530e+003;9.019355e-002
3.442458e+003;8.968429e-002
3.444387e+003;8.954223e-002
3.446315e+003;8.913509e-002
3.448244e+003;8.877857e-002
3.450172e+003;8.865350e-002
3.452101e+003;8.819755e-002
3.454030e+003;8.764808e-002
3.455958e+003;8.740379e-002
3.457886e+003;8.735732e-002
3.459815e+003;8.707611e-002
3.461744e+003;8.625101e-002
3.463672e+003;8.583567e-002
3.465601e+003;8.605060e-002
3.467529e+003;8.585259e-002
3.469458e+003;8.561044e-002
3.471386e+003;8.553813e-002
3.473315e+003;8.524382e-002
3.475243e+003;8.480705e-002
3.477172e+003;8.439737e-002
3.479101e+003;8.399735e-002
3.481029e+003;8.370392e-002
3.482958e+003;8.374213e-002
3.484886e+003;8.379790e-002
3.486815e+003;8.340113e-002
3.488743e+003;8.298318e-002
3.490672e+003;8.320974e-002
3.492600e+003;8.316319e-002
3.494529e+003;8.253538e-002
3.496458e+003;8.192643e-002
3.498386e+003;8.113658e-002
3.500315e+003;8.078349e-002
3.502243e+003;8.084938e-002
3.504172e+003;8.068744e-002
3.506100e+003;8.057649e-002
3.508029e+003;8.046590e-002
3.509957e+003;8.017603e-002
3.511886e+003;7.973737e-002
3.513814e+003;7.960103e-002
3.515743e+003;7.930367e-002
3.517672e+003;7.895068e-002
3.519600e+003;7.885727e-002
3.521529e+003;7.838448e-002
3.523457e+003;7.776183e-002
3.525386e+003;7.740118e-002
3.527314e+003;7.750668e-002
3.529243e+003;7.774974e-002
3.531171e+003;7.728469e-002
3.533100e+003;7.663270e-002
3.535029e+003;7.620601e-002
3.536957e+003;7.582624e-002
3.538885e+003;7.555066e-002
3.540814e+003;7.543684e-002
3.542743e+003;7.541166e-002
3.544671e+003;7.535257e-002
3.546600e+003;7.494371e-002
3.548528e+003;7.436226e-002
3.550457e+003;7.377565e-002
3.552385e+003;7.336281e-002
3.554314e+003;7.303885e-002
3.556242e+003;7.269259e-002
3.558171e+003;7.217005e-002
3.560100e+003;7.194338e-002
3.562028e+003;7.178102e-002
3.563957e+003;7.115451e-002
3.565885e+003;7.092608e-002
3.567814e+003;7.076854e-002
3.569742e+003;7.047790e-002
3.571671e+003;7.023522e-002
3.573599e+003;6.964847e-002
3.575528e+003;6.938957e-002
3.577457e+003;6.960002e-002
3.579385e+003;6.951629e-002
3.581314e+003;6.941329e-002
3.583242e+003;6.911249e-002
3.585171e+003;6.856102e-002
3.587099e+003;6.807400e-002
3.589028e+003;6.769434e-002
3.590956e+003;6.735326e-002
3.592885e+003;6.689193e-002
3.594813e+003;6.659886e-002
3.596742e+003;6.632034e-002
3.598671e+003;6.613012e-002
3.600599e+003;6.615347e-002
3.602528e+003;6.592514e-002
3.604456e+003;6.566116e-002
3.606385e+003;6.519825e-002
3.608313e+003;6.468668e-002
3.610242e+003;6.426967e-002
3.612170e+003;6.428861e-002
3.614099e+003;6.435270e-002
3.616028e+003;6.400708e-002
3.617956e+003;6.325383e-002
3.619885e+003;6.262271e-002
3.621813e+003;6.230994e-002
3.623742e+003;6.219598e-002
3.625670e+003;6.198306e-002
3.627599e+003;6.117518e-002
3.629527e+003;6.042492e-002
3.631456e+003;6.032101e-002
3.633385e+003;6.030673e-002
3.635313e+003;5.999817e-002
3.637241e+003;5.948440e-002
3.639170e+003;5.923077e-002
3.641099e+003;5.882477e-002
3.643027e+003;5.793280e-002
3.644956e+003;5.708018e-002
3.646884e+003;5.663214e-002
3.648813e+003;5.598662e-002
3.650741e+003;5.540476e-002
3.652670e+003;5.497096e-002
3.654598e+003;5.471656e-002
3.656527e+003;5.429569e-002
3.658456e+003;5.341319e-002
3.660384e+003;5.249965e-002
3.662313e+003;5.168475e-002
3.664241e+003;5.125416e-002
3.666170e+003;5.081380e-002
3.668098e+003;5.000841e-002
3.670027e+003;4.913832e-002
3.671955e+003;4.842085e-002
3.673884e+003;4.794938e-002
3.675813e+003;4.768704e-002
3.677741e+003;4.733023e-002
3.679669e+003;4.637865e-002
3.681598e+003;4.565022e-002
3.683527e+003;4.502103e-002
3.685455e+003;4.455132e-002
3.687384e+003;4.449519e-002
3.689312e+003;4.413097e-002
3.691241e+003;4.376600e-002
3.693169e+003;4.310619e-002
3.695098e+003;4.231047e-002
3.697026e+003;4.215330e-002
3.698955e+003;4.221040e-002
3.700884e+003;4.180001e-002
3.702812e+003;4.135283e-002
3.704741e+003;4.087283e-002
3.706669e+003;4.069842e-002
3.708598e+003;4.093032e-002
3.710526e+003;4.061295e-002
3.712455e+003;4.021064e-002
3.714383e+003;4.024670e-002
3.716312e+003;4.013962e-002
3.718240e+003;4.004525e-002
3.720169e+003;3.971121e-002
3.722098e+003;3.924938e-002
3.724026e+003;3.896405e-002
3.725955e+003;3.910521e-002
3.727883e+003;3.924017e-002
3.729812e+003;3.933905e-002
3.731740e+003;3.923129e-002
3.733669e+003;3.867861e-002
3.735597e+003;3.828663e-002
3.737526e+003;3.861229e-002
3.739455e+003;3.909911e-002
3.741383e+003;3.900834e-002
3.743312e+003;3.833885e-002
3.745240e+003;3.801270e-002
3.747169e+003;3.816798e-002
3.749097e+003;3.796363e-002
3.751026e+003;3.780596e-002
3.752954e+003;3.772528e-002
3.754883e+003;3.791586e-002
3.756812e+003;3.809347e-002
3.758740e+003;3.781348e-002
3.760668e+003;3.755181e-002
3.762597e+003;3.785057e-002
3.764526e+003;3.810030e-002
3.766454e+003;3.808467e-002
3.768383e+003;3.768980e-002
3.770311e+003;3.750503e-002
3.772240e+003;3.765569e-002
3.774168e+003;3.777755e-002
3.776097e+003;3.732319e-002
3.778025e+003;3.724372e-002
3.779954e+003;3.793358e-002
3.781883e+003;3.825511e-002
3.783811e+003;3.807592e-002
3.785740e+003;3.793586e-002
3.787668e+003;3.786698e-002
3.789597e+003;3.780726e-002
3.791525e+003;3.785729e-002
3.793454e+003;3.811654e-002
3.795382e+003;3.816140e-002
3.797311e+003;3.790809e-002
3.799240e+003;3.748859e-002
3.801168e+003;3.695158e-002
3.803097e+003;3.726130e-002
3.805025e+003;3.766548e-002
3.806954e+003;3.775084e-002
3.808882e+003;3.786857e-002
3.810811e+003;3.796056e-002
3.812739e+003;3.803838e-002
3.814668e+003;3.785382e-002
3.816596e+003;3.782208e-002
3.818525e+003;3.819136e-002
3.820454e+003;3.824259e-002
3.822382e+003;3.810269e-002
3.824311e+003;3.816520e-002
3.826239e+003;3.807729e-002
3.828168e+003;3.793380e-002
3.830096e+003;3.823883e-002
3.832025e+003;3.857170e-002
3.833953e+003;3.870041e-002
3.835882e+003;3.866158e-002
3.837811e+003;3.842583e-002
3.839739e+003;3.829340e-002
3.841667e+003;3.835434e-002
3.843596e+003;3.864087e-002
3.845525e+003;3.909806e-002
3.847453e+003;3.923422e-002
3.849382e+003;3.919462e-002
3.851310e+003;3.914164e-002
3.853239e+003;3.883283e-002
3.855167e+003;3.881590e-002
3.857096e+003;3.881497e-002
3.859024e+003;3.871005e-002
3.860953e+003;3.917091e-002
3.862882e+003;3.954129e-002
3.864810e+003;3.935494e-002
3.866739e+003;3.958477e-002
3.868667e+003;3.984775e-002
3.870596e+003;3.977599e-002
3.872524e+003;3.980707e-002
3.874453e+003;4.011400e-002
3.876381e+003;4.059145e-002
3.878310e+003;4.081601e-002
3.880239e+003;4.059334e-002
3.882167e+003;4.042082e-002
3.884096e+003;4.063664e-002
3.886024e+003;4.078311e-002
3.887953e+003;4.093735e-002
3.889881e+003;4.113513e-002
3.891810e+003;4.144446e-002
3.893738e+003;4.180158e-002
3.895667e+003;4.177775e-002
3.897595e+003;4.174646e-002
3.899524e+003;4.194213e-002
3.901453e+003;4.198005e-002
3.903381e+003;4.184029e-002
3.905310e+003;4.169149e-002
3.907238e+003;4.189220e-002
3.909167e+003;4.236036e-002
3.911095e+003;4.268182e-002
3.913024e+003;4.234400e-002
3.914952e+003;4.195286e-002
3.916881e+003;4.216005e-002
3.918810e+003;4.278013e-002
3.920738e+003;4.331869e-002
3.922667e+003;4.357532e-002
3.924595e+003;4.361973e-002
3.926524e+003;4.359734e-002
3.928452e+003;4.341619e-002
3.930381e+003;4.339162e-002
3.932309e+003;4.324965e-002
3.934238e+003;4.307351e-002
3.936167e+003;4.327011e-002
3.938095e+003;4.318102e-002
3.940023e+003;4.305734e-002
3.941952e+003;4.359090e-002
3.943881e+003;4.421306e-002
3.945809e+003;4.442211e-002
3.947738e+003;4.444332e-002
3.949666e+003;4.472817e-002
3.951595e+003;4.488529e-002
3.953523e+003;4.483422e-002
3.955452e+003;4.497436e-002
3.957380e+003;4.521083e-002
3.959309e+003;4.508245e-002
3.961238e+003;4.502794e-002
3.963166e+003;4.514428e-002
3.965095e+003;4.490322e-002
3.967023e+003;4.474925e-002
3.968952e+003;4.489881e-002
3.970880e+003;4.513439e-002
3.972809e+003;4.515531e-002
3.974737e+003;4.545607e-002
3.976666e+003;4.555858e-002
3.978594e+003;4.542072e-002
3.980523e+003;4.585348e-002
3.982452e+003;4.575440e-002
3.984380e+003;4.532181e-002
3.986309e+003;4.521741e-002
3.988237e+003;4.516116e-002
3.990166e+003;4.549592e-002
3.992094e+003;4.571611e-002
3.994023e+003;4.558434e-002
3.995951e+003;4.565302e-002
3.997880e+003;4.565534e-002
3.999809e+003;4.536941e-002
4.001737e+003;0.000000e+000
