3.992094e+002;0.000000e+000
4.011380e+002;0.000000e+000
4.030665e+002;0.000000e+000
4.049951e+002;0.000000e+000
4.069236e+002;0.000000e+000
4.088522e+002;0.000000e+000
4.107807e+002;0.000000e+000
4.127093e+002;0.000000e+000
4.146378e+002;0.000000e+000
4.165664e+002;0.000000e+000
4.184949e+002;0.000000e+000
4.204235e+002;0.000000e+000
4.223520e+002;0.000000e+000
4.242806e+002;0.000000e+000
4.262091e+002;0.000000e+000
4.281377e+002;0.000000e+000
4.300662e+002;0.000000e+000
4.319948e+002;0.000000e+000
4.339233e+002;0.000000e+000
4.358519e+002;0.000000e+000
4.377804e+002;0.000000e+000
4.397090e+002;0.000000e+000
4.416375e+002;0.000000e+000
4.435660e+002;0.000000e+000
4.454946e+002;0.000000e+000
4.474232e+002;0.000000e+000
4.493517e+002;0.000000e+000
4.512802e+002;0.000000e+000
4.532088e+002;0.000000e+000
4.551373e+002;0.000000e+000
4.570659e+002;0.000000e+000
4.589944e+002;0.000000e+000
4.609230e+002;0.000000e+000
4.628515e+002;0.000000e+000
4.647801e+002;0.000000e+000
4.667086e+002;0.000000e+000
4.686372e+002;0.000000e+000
4.705657e+002;0.000000e+000
4.724943e+002;0.000000e+000
4.744228e+002;0.000000e+000
4.763513e+002;0.000000e+000
4.782799e+002;0.000000e+000
4.802085e+002;0.000000e+000
4.821370e+002;0.000000e+000
4.840656e+002;0.000000e+000
4.859941e+002;0.000000e+000
4.879226e+002;0.000000e+000
4.898512e+002;0.000000e+000
4.917798e+002;0.000000e+000
4.937083e+002;0.000000e+000
4.956368e+002;0.000000e+000
4.975654e+002;0.000000e+000
4.994939e+002;0.000000e+000
5.014225e+002;0.000000e+000
5.033510e+002;0.000000e+000
5.052796e+002;0.000000e+000
5.072081e+002;0.000000e+000
5.091367e+002;0.000000e+000
5.110652e+002;0.000000e+000
5.129938e+002;0.000000e+000
5.149223e+002;0.000000e+000
5.168509e+002;0.000000e+000
5.187794e+002;0.000000e+000
5.207079e+002;0.000000e+000
5.226365e+002;0.000000e+000
5.245651e+002;0.000000e+000
5.264936e+002;0.000000e+000
5.284222e+002;0.000000e+000
5.303507e+002;0.000000e+000
5.322792e+002;0.000000e+000
5.342078e+002;0.000000e+000
5.361364e+002;0.000000e+000
5.380649e+002;0.000000e+000
5.399935e+002;0.000000e+000
5.419220e+002;0.000000e+000
5.438505e+002;0.000000e+000
5.457791e+002;0.000000e+000
5.477076e+002;0.000000e+000
5.496362e+002;0.000000e+000
5.515648e+002;0.000000e+000
5.534933e+002;0.000000e+000
5.554218e+002;0.000000e+000
5.573504e+002;0.000000e+000
5.592789e+002;0.000000e+000
5.612075e+002;0.000000e+000
5.631360e+002;0.000000e+000
5.650646e+002;0.000000e+000
5.669931e+002;0.000000e+000
5.689217e+002;0.000000e+000
5.708502e+002;0.000000e+000
5.727787e+002;0.000000e+000
5.747073e+002;0.000000e+000
5.766359e+002;0.000000e+000
5.785644e+002;0.000000e+000
5.804930e+002;0.000000e+000
5.824215e+002;0.000000e+000
5.843500e+002;0.000000e+000
5.862786e+002;0.000000e+000
5.882072e+002;0.000000e+000
5.901357e+002;0.000000e+000
5.920643e+002;0.000000e+000
5.939928e+002;0.000000e+000
5.959213e+002;0.000000e+000
5.978499e+002;0.000000e+000
5.997784e+002;2.463672e-001
6.017070e+002;2.473390e-001
6.036355e+002;2.461755e-001
6.055641e+002;2.426986e-001
6.074926e+002;2.483291e-001
6.094211e+002;2.564284e-001
6.113497e+002;2.568330e-001
6.132783e+002;2.519802e-001
6.152068e+002;2.529899e-001
6.171354e+002;2.533832e-001
6.190639e+002;2.488791e-001
6.209924e+002;2.514025e-001
6.229210e+002;2.542490e-001
6.248495e+002;2.527873e-001
6.267781e+002;2.496284e-001
6.287067e+002;2.470568e-001
6.306352e+002;2.434721e-001
6.325637e+002;2.377482e-001
6.344923e+002;2.366491e-001
6.364208e+002;2.393537e-001
6.383494e+002;2.376792e-001
6.402780e+002;2.350835e-001
6.422065e+002;2.349459e-001
6.441350e+002;2.361293e-001
6.460636e+002;2.371061e-001
6.479921e+002;2.320112e-001
6.499207e+002;2.277235e-001
6.518492e+002;2.267531e-001
6.537778e+002;2.262227e-001
6.557063e+002;2.251756e-001
6.576349e+002;2.265343e-001
6.595634e+002;2.299358e-001
6.614919e+002;2.310628e-001
6.634205e+002;2.315148e-001
6.653491e+002;2.316954e-001
6.672776e+002;2.305696e-001
6.692062e+002;2.297589e-001
6.711347e+002;2.293613e-001
6.730632e+002;2.283254e-001
6.749918e+002;2.269511e-001
6.769203e+002;2.262050e-001
6.788489e+002;2.264102e-001
6.807775e+002;2.236555e-001
6.827060e+002;2.206720e-001
6.846345e+002;2.210869e-001
6.865631e+002;2.225520e-001
6.884916e+002;2.232262e-001
6.904202e+002;2.214096e-001
6.923488e+002;2.200468e-001
6.942773e+002;2.193622e-001
6.962058e+002;2.183490e-001
6.981344e+002;2.158933e-001
7.000629e+002;2.134843e-001
7.019915e+002;2.115396e-001
7.039200e+002;2.095916e-001
7.058486e+002;2.073834e-001
7.077771e+002;2.052366e-001
7.097057e+002;2.027093e-001
7.116342e+002;2.005611e-001
7.135627e+002;1.991792e-001
7.154913e+002;1.969583e-001
7.174199e+002;1.947713e-001
7.193484e+002;1.923945e-001
7.212770e+002;1.897323e-001
7.232055e+002;1.880943e-001
7.251340e+002;1.852635e-001
7.270626e+002;1.815668e-001
7.289911e+002;1.787872e-001
7.309197e+002;1.762571e-001
7.328483e+002;1.739949e-001
7.347768e+002;1.720472e-001
7.367053e+002;1.706240e-001
7.386339e+002;1.692751e-001
7.405624e+002;1.666490e-001
7.424910e+002;1.637798e-001
7.444196e+002;1.616287e-001
7.463481e+002;1.586086e-001
7.482766e+002;1.556931e-001
7.502052e+002;1.544998e-001
7.521337e+002;1.528450e-001
7.540623e+002;1.507590e-001
7.559908e+002;1.491123e-001
7.579194e+002;1.475136e-001
7.598479e+002;1.458286e-001
7.617765e+002;1.439890e-001
7.637050e+002;1.428711e-001
7.656335e+002;1.427959e-001
7.675621e+002;1.420004e-001
7.694907e+002;1.406980e-001
7.714192e+002;1.391555e-001
7.733478e+002;1.372317e-001
7.752763e+002;1.352865e-001
7.772048e+002;1.334725e-001
7.791334e+002;1.320701e-001
7.810620e+002;1.310504e-001
7.829905e+002;1.300410e-001
7.849191e+002;1.292849e-001
7.868476e+002;1.276470e-001
7.887761e+002;1.256931e-001
7.907047e+002;1.252737e-001
7.926332e+002;1.249437e-001
7.945618e+002;1.232402e-001
7.964903e+002;1.218706e-001
7.984189e+002;1.211752e-001
8.003474e+002;1.210766e-001
8.022759e+002;1.212578e-001
8.042045e+002;1.215377e-001
8.061331e+002;1.216759e-001
8.080616e+002;1.218413e-001
8.099902e+002;1.221736e-001
8.119187e+002;1.225665e-001
8.138472e+002;1.226820e-001
8.157758e+002;1.230136e-001
8.177043e+002;1.237086e-001
8.196329e+002;1.240861e-001
8.215615e+002;1.249652e-001
8.234900e+002;1.269452e-001
8.254185e+002;1.280247e-001
8.273471e+002;1.282759e-001
8.292756e+002;1.280271e-001
8.312042e+002;1.263219e-001
8.331328e+002;1.240571e-001
8.350613e+002;1.217878e-001
8.369898e+002;1.200502e-001
8.389184e+002;1.186740e-001
8.408469e+002;1.175700e-001
8.427755e+002;1.169611e-001
8.447040e+002;1.170755e-001
8.466326e+002;1.172994e-001
8.485611e+002;1.173883e-001
8.504897e+002;1.179540e-001
8.524182e+002;1.180366e-001
8.543467e+002;1.170463e-001
8.562753e+002;1.151534e-001
8.582039e+002;1.128476e-001
8.601324e+002;1.113044e-001
8.620610e+002;1.108179e-001
8.639895e+002;1.103794e-001
8.659180e+002;1.097340e-001
8.678466e+002;1.096055e-001
8.697751e+002;1.095333e-001
8.717037e+002;1.104436e-001
8.736323e+002;1.118055e-001
8.755608e+002;1.119754e-001
8.774893e+002;1.119512e-001
8.794179e+002;1.121263e-001
8.813464e+002;1.120415e-001
8.832750e+002;1.122891e-001
8.852036e+002;1.124208e-001
8.871321e+002;1.123659e-001
8.890606e+002;1.120958e-001
8.909892e+002;1.115935e-001
8.929177e+002;1.115237e-001
8.948463e+002;1.115241e-001
8.967748e+002;1.114452e-001
8.987034e+002;1.112797e-001
9.006319e+002;1.110628e-001
9.025605e+002;1.107529e-001
9.044890e+002;1.107684e-001
9.064175e+002;1.109929e-001
9.083461e+002;1.111249e-001
9.102747e+002;1.113438e-001
9.122032e+002;1.118995e-001
9.141318e+002;1.123133e-001
9.160603e+002;1.127201e-001
9.179888e+002;1.138443e-001
9.199174e+002;1.153134e-001
9.218459e+002;1.163797e-001
9.237745e+002;1.173491e-001
9.257031e+002;1.184564e-001
9.276316e+002;1.191806e-001
9.295601e+002;1.192985e-001
9.314887e+002;1.190403e-001
9.334172e+002;1.188661e-001
9.353458e+002;1.192179e-001
9.372744e+002;1.195249e-001
9.392029e+002;1.194859e-001
9.411314e+002;1.198326e-001
9.430600e+002;1.203915e-001
9.449885e+002;1.208700e-001
9.469171e+002;1.215234e-001
9.488456e+002;1.225413e-001
9.507742e+002;1.236362e-001
9.527027e+002;1.250365e-001
9.546313e+002;1.260486e-001
9.565598e+002;1.268520e-001
9.584883e+002;1.282838e-001
9.604169e+002;1.301671e-001
9.623455e+002;1.319003e-001
9.642740e+002;1.337341e-001
9.662026e+002;1.355579e-001
9.681311e+002;1.372884e-001
9.700596e+002;1.389598e-001
9.719882e+002;1.406963e-001
9.739167e+002;1.415460e-001
9.758453e+002;1.415167e-001
9.777739e+002;1.412542e-001
9.797024e+002;1.405555e-001
9.816309e+002;1.401178e-001
9.835595e+002;1.401570e-001
9.854880e+002;1.411260e-001
9.874166e+002;1.432753e-001
9.893452e+002;1.456826e-001
9.912737e+002;1.475299e-001
9.932022e+002;1.481809e-001
9.951307e+002;1.479488e-001
9.970593e+002;1.473304e-001
9.989879e+002;1.468390e-001
1.000916e+003;1.462946e-001
1.002845e+003;1.452773e-001
1.004773e+003;1.443630e-001
1.006702e+003;1.442863e-001
1.008631e+003;1.446877e-001
1.010559e+003;1.451409e-001
1.012488e+003;1.456889e-001
1.014416e+003;1.458895e-001
1.016345e+003;1.449092e-001
1.018273e+003;1.443551e-001
1.020202e+003;1.446081e-001
1.022130e+003;1.449299e-001
1.024059e+003;1.460990e-001
1.025988e+003;1.484291e-001
1.027916e+003;1.514350e-001
1.029845e+003;1.556679e-001
1.031773e+003;1.600540e-001
1.033702e+003;1.635948e-001
1.035630e+003;1.663548e-001
1.037559e+003;1.684505e-001
1.039487e+003;1.703717e-001
1.041416e+003;1.722905e-001
1.043344e+003;1.740883e-001
1.045273e+003;1.747294e-001
1.047202e+003;1.740040e-001
1.049130e+003;1.721392e-001
1.051059e+003;1.700677e-001
1.052987e+003;1.681335e-001
1.054916e+003;1.667763e-001
1.056844e+003;1.661719e-001
1.058773e+003;1.664666e-001
1.060701e+003;1.669489e-001
1.062630e+003;1.666746e-001
1.064558e+003;1.665285e-001
1.066487e+003;1.663505e-001
1.068416e+003;1.657303e-001
1.070344e+003;1.645849e-001
1.072273e+003;1.631924e-001
1.074201e+003;1.611337e-001
1.076130e+003;1.585800e-001
1.078058e+003;1.559213e-001
1.079987e+003;1.525910e-001
1.081915e+003;1.494946e-001
1.083844e+003;1.468517e-001
1.085773e+003;1.446272e-001
1.087701e+003;1.424259e-001
1.089630e+003;1.402441e-001
1.091558e+003;1.385485e-001
1.093487e+003;1.375258e-001
1.095415e+003;1.373090e-001
1.097344e+003;1.374883e-001
1.099272e+003;1.377561e-001
1.101201e+003;1.378729e-001
1.103129e+003;1.376702e-001
1.105058e+003;1.368226e-001
1.106987e+003;1.352875e-001
1.108915e+003;1.341162e-001
1.110844e+003;1.333112e-001
1.112772e+003;1.332018e-001
1.114701e+003;1.339525e-001
1.116629e+003;1.344525e-001
1.118558e+003;1.351194e-001
1.120486e+003;1.360010e-001
1.122415e+003;1.361794e-001
1.124344e+003;1.364517e-001
1.126272e+003;1.373632e-001
1.128201e+003;1.381703e-001
1.130129e+003;1.393443e-001
1.132058e+003;1.410939e-001
1.133986e+003;1.428334e-001
1.135915e+003;1.449504e-001
1.137843e+003;1.476919e-001
1.139772e+003;1.503469e-001
1.141700e+003;1.532201e-001
1.143629e+003;1.561891e-001
1.145557e+003;1.584050e-001
1.147486e+003;1.611303e-001
1.149415e+003;1.639703e-001
1.151343e+003;1.664219e-001
1.153272e+003;1.680235e-001
1.155200e+003;1.691269e-001
1.157129e+003;1.705456e-001
1.159057e+003;1.721046e-001
1.160986e+003;1.733804e-001
1.162914e+003;1.743357e-001
1.164843e+003;1.750295e-001
1.166771e+003;1.758434e-001
1.168700e+003;1.767107e-001
1.170629e+003;1.773021e-001
1.172557e+003;1.772345e-001
1.174486e+003;1.760819e-001
1.176414e+003;1.748539e-001
1.178343e+003;1.740430e-001
1.180271e+003;1.733621e-001
1.182200e+003;1.731522e-001
1.184128e+003;1.736878e-001
1.186057e+003;1.747261e-001
1.187986e+003;1.763497e-001
1.189914e+003;1.782444e-001
1.191843e+003;1.800525e-001
1.193771e+003;1.822318e-001
1.195700e+003;1.844016e-001
1.197628e+003;1.865198e-001
1.199557e+003;1.893065e-001
1.201485e+003;1.929950e-001
1.203414e+003;1.969644e-001
1.205343e+003;2.010920e-001
1.207271e+003;2.052564e-001
1.209200e+003;2.091115e-001
1.211128e+003;2.131643e-001
1.213057e+003;2.171428e-001
1.214985e+003;2.207737e-001
1.216914e+003;2.235917e-001
1.218842e+003;2.257701e-001
1.220771e+003;2.279851e-001
1.222699e+003;2.297264e-001
1.224628e+003;2.313947e-001
1.226557e+003;2.326464e-001
1.228485e+003;2.325984e-001
1.230414e+003;2.315640e-001
1.232342e+003;2.296240e-001
1.234271e+003;2.274805e-001
1.236199e+003;2.250397e-001
1.238128e+003;2.222999e-001
1.240056e+003;2.200136e-001
1.241985e+003;2.179205e-001
1.243913e+003;2.161214e-001
1.245842e+003;2.145911e-001
1.247771e+003;2.131349e-001
1.249699e+003;2.119004e-001
1.251628e+003;2.110350e-001
1.253556e+003;2.102693e-001
1.255485e+003;2.094524e-001
1.257413e+003;2.078736e-001
1.259342e+003;2.052070e-001
1.261270e+003;2.025747e-001
1.263199e+003;1.998382e-001
1.265127e+003;1.970595e-001
1.267056e+003;1.941922e-001
1.268985e+003;1.911913e-001
1.270913e+003;1.887164e-001
1.272842e+003;1.864349e-001
1.274770e+003;1.843641e-001
1.276699e+003;1.826776e-001
1.278627e+003;1.811929e-001
1.280556e+003;1.801317e-001
1.282484e+003;1.795840e-001
1.284413e+003;1.790450e-001
1.286342e+003;1.785481e-001
1.288270e+003;1.782069e-001
1.290199e+003;1.781415e-001
1.292127e+003;1.784094e-001
1.294056e+003;1.783385e-001
1.295984e+003;1.777667e-001
1.297913e+003;1.771593e-001
1.299841e+003;1.764364e-001
1.301770e+003;1.756214e-001
1.303698e+003;1.748420e-001
1.305627e+003;1.742162e-001
1.307556e+003;1.741129e-001
1.309484e+003;1.743111e-001
1.311413e+003;1.745000e-001
1.313341e+003;1.750292e-001
1.315270e+003;1.760543e-001
1.317198e+003;1.771271e-001
1.319127e+003;1.782531e-001
1.321055e+003;1.793741e-001
1.322984e+003;1.801970e-001
1.324912e+003;1.808331e-001
1.326841e+003;1.815616e-001
1.328770e+003;1.818790e-001
1.330698e+003;1.816145e-001
1.332627e+003;1.811477e-001
1.334555e+003;1.801071e-001
1.336484e+003;1.785006e-001
1.338412e+003;1.769381e-001
1.340341e+003;1.758478e-001
1.342269e+003;1.749669e-001
1.344198e+003;1.737022e-001
1.346126e+003;1.724561e-001
1.348055e+003;1.717440e-001
1.349984e+003;1.711350e-001
1.351912e+003;1.708009e-001
1.353841e+003;1.708771e-001
1.355769e+003;1.714648e-001
1.357698e+003;1.729435e-001
1.359626e+003;1.752140e-001
1.361555e+003;1.778437e-001
1.363483e+003;1.805662e-001
1.365412e+003;1.831761e-001
1.367341e+003;1.850540e-001
1.369269e+003;1.859279e-001
1.371198e+003;1.858308e-001
1.373126e+003;1.852169e-001
1.375055e+003;1.848782e-001
1.376983e+003;1.849944e-001
1.378912e+003;1.852164e-001
1.380840e+003;1.857136e-001
1.382769e+003;1.861103e-001
1.384698e+003;1.863552e-001
1.386626e+003;1.867631e-001
1.388555e+003;1.873825e-001
1.390483e+003;1.879415e-001
1.392412e+003;1.886631e-001
1.394340e+003;1.894018e-001
1.396269e+003;1.903120e-001
1.398197e+003;1.915833e-001
1.400126e+003;1.929949e-001
1.402054e+003;1.941232e-001
1.403983e+003;1.951587e-001
1.405911e+003;1.961746e-001
1.407840e+003;1.968943e-001
1.409769e+003;1.973300e-001
1.411697e+003;1.974236e-001
1.413626e+003;1.975968e-001
1.415554e+003;1.980057e-001
1.417483e+003;1.983428e-001
1.419411e+003;1.986163e-001
1.421340e+003;1.993445e-001
1.423268e+003;2.008476e-001
1.425197e+003;2.031351e-001
1.427125e+003;2.064089e-001
1.429054e+003;2.106220e-001
1.430983e+003;2.158989e-001
1.432911e+003;2.218079e-001
1.434840e+003;2.271108e-001
1.436768e+003;2.313761e-001
1.438697e+003;2.345989e-001
1.440625e+003;2.364881e-001
1.442554e+003;2.374068e-001
1.444482e+003;2.373094e-001
1.446411e+003;2.359433e-001
1.448340e+003;2.336275e-001
1.450268e+003;2.304123e-001
1.452197e+003;2.261749e-001
1.454125e+003;2.217361e-001
1.456054e+003;2.176697e-001
1.457982e+003;2.144756e-001
1.459911e+003;2.118822e-001
1.461839e+003;2.096451e-001
1.463768e+003;2.079754e-001
1.465697e+003;2.070361e-001
1.467625e+003;2.073187e-001
1.469554e+003;2.082253e-001
1.471482e+003;2.096323e-001
1.473411e+003;2.116585e-001
1.475339e+003;2.148147e-001
1.477268e+003;2.193310e-001
1.479196e+003;2.246210e-001
1.481125e+003;2.306131e-001
1.483053e+003;2.373380e-001
1.484982e+003;2.445779e-001
1.486911e+003;2.526127e-001
1.488839e+003;2.614259e-001
1.490768e+003;2.703917e-001
1.492696e+003;2.793169e-001
1.494625e+003;2.883169e-001
1.496553e+003;2.969368e-001
1.498482e+003;3.048424e-001
1.500410e+003;3.120125e-001
1.502339e+003;3.182673e-001
1.504267e+003;3.236679e-001
1.506196e+003;3.282157e-001
1.508125e+003;3.324562e-001
1.510053e+003;3.362695e-001
1.511982e+003;3.390988e-001
1.513910e+003;3.394551e-001
1.515839e+003;3.355888e-001
1.517767e+003;3.285967e-001
1.519696e+003;3.207393e-001
1.521624e+003;3.128845e-001
1.523553e+003;3.064722e-001
1.525481e+003;3.008837e-001
1.527410e+003;2.955447e-001
1.529339e+003;2.901854e-001
1.531267e+003;2.851119e-001
1.533196e+003;2.802359e-001
1.535124e+003;2.753584e-001
1.537053e+003;2.699400e-001
1.538981e+003;2.643287e-001
1.540910e+003;2.596957e-001
1.542838e+003;2.554959e-001
1.544767e+003;2.509839e-001
1.546695e+003;2.461827e-001
1.548624e+003;2.414548e-001
1.550553e+003;2.366430e-001
1.552481e+003;2.319072e-001
1.554410e+003;2.268180e-001
1.556338e+003;2.214796e-001
1.558267e+003;2.157113e-001
1.560195e+003;2.100439e-001
1.562124e+003;2.052819e-001
1.564052e+003;2.003957e-001
1.565981e+003;1.955795e-001
1.567910e+003;1.913623e-001
1.569838e+003;1.878825e-001
1.571767e+003;1.853700e-001
1.573695e+003;1.830280e-001
1.575624e+003;1.812732e-001
1.577552e+003;1.809560e-001
1.579481e+003;1.816520e-001
1.581409e+003;1.827968e-001
1.583338e+003;1.844452e-001
1.585266e+003;1.866957e-001
1.587195e+003;1.899434e-001
1.589124e+003;1.939387e-001
1.591052e+003;1.984756e-001
1.592981e+003;2.035065e-001
1.594909e+003;2.090983e-001
1.596838e+003;2.153841e-001
1.598766e+003;2.223863e-001
1.600695e+003;2.306429e-001
1.602623e+003;2.406528e-001
1.604552e+003;2.520293e-001
1.606480e+003;2.647198e-001
1.608409e+003;2.782813e-001
1.610338e+003;2.918150e-001
1.612266e+003;3.044036e-001
1.614195e+003;3.155943e-001
1.616123e+003;3.253975e-001
1.618052e+003;3.335995e-001
1.619980e+003;3.393007e-001
1.621909e+003;3.414656e-001
1.623837e+003;3.408652e-001
1.625766e+003;3.382796e-001
1.627694e+003;3.336009e-001
1.629623e+003;3.274015e-001
1.631552e+003;3.201914e-001
1.633480e+003;3.124184e-001
1.635409e+003;3.047097e-001
1.637337e+003;2.978689e-001
1.639266e+003;2.912529e-001
1.641194e+003;2.845899e-001
1.643123e+003;2.782721e-001
1.645051e+003;2.723314e-001
1.646980e+003;2.665612e-001
1.648909e+003;2.610279e-001
1.650837e+003;2.552584e-001
1.652766e+003;2.486167e-001
1.654694e+003;2.426306e-001
1.656623e+003;2.368261e-001
1.658551e+003;2.304340e-001
1.660480e+003;2.239951e-001
1.662408e+003;2.175737e-001
1.664337e+003;2.117114e-001
1.666266e+003;2.063234e-001
1.668194e+003;2.006964e-001
1.670123e+003;1.950642e-001
1.672051e+003;1.900985e-001
1.673980e+003;1.853123e-001
1.675908e+003;1.805230e-001
1.677837e+003;1.759482e-001
1.679765e+003;1.711760e-001
1.681694e+003;1.665813e-001
1.683622e+003;1.623796e-001
1.685551e+003;1.588762e-001
1.687479e+003;1.561187e-001
1.689408e+003;1.535180e-001
1.691337e+003;1.513331e-001
1.693265e+003;1.495528e-001
1.695194e+003;1.478857e-001
1.697122e+003;1.462355e-001
1.699051e+003;1.426603e-001
1.700979e+003;1.359230e-001
1.702908e+003;1.270591e-001
1.704836e+003;1.164052e-001
1.706765e+003;1.058753e-001
1.708693e+003;9.713770e-002
1.710622e+003;9.027301e-002
1.712551e+003;8.481040e-002
1.714479e+003;8.033914e-002
1.716408e+003;7.656953e-002
1.718336e+003;7.382050e-002
1.720265e+003;7.186604e-002
1.722193e+003;7.023210e-002
1.724122e+003;6.902757e-002
1.726050e+003;6.797421e-002
1.727979e+003;6.690314e-002
1.729908e+003;6.616697e-002
1.731836e+003;6.534565e-002
1.733765e+003;6.435347e-002
1.735693e+003;6.412870e-002
1.737622e+003;6.401584e-002
1.739550e+003;6.328868e-002
1.741479e+003;6.282067e-002
1.743407e+003;6.252172e-002
1.745336e+003;6.233721e-002
1.747265e+003;6.197220e-002
1.749193e+003;6.158101e-002
1.751122e+003;6.123637e-002
1.753050e+003;6.111350e-002
1.754979e+003;6.093309e-002
1.756907e+003;6.075992e-002
1.758836e+003;6.052927e-002
1.760764e+003;6.028142e-002
1.762693e+003;6.018729e-002
1.764621e+003;6.018618e-002
1.766550e+003;5.996508e-002
1.768479e+003;5.960141e-002
1.770407e+003;5.936940e-002
1.772336e+003;5.927843e-002
1.774264e+003;5.923904e-002
1.776193e+003;5.920867e-002
1.778121e+003;5.894699e-002
1.780050e+003;5.871487e-002
1.781978e+003;5.869666e-002
1.783907e+003;5.857379e-002
1.785835e+003;5.846835e-002
1.787764e+003;5.835138e-002
1.789693e+003;5.814575e-002
1.791621e+003;5.791936e-002
1.793550e+003;5.783657e-002
1.795478e+003;5.768514e-002
1.797407e+003;5.751678e-002
1.799335e+003;5.752336e-002
1.801264e+003;5.748005e-002
1.803192e+003;5.742378e-002
1.805121e+003;5.715214e-002
1.807049e+003;5.696136e-002
1.808978e+003;5.671319e-002
1.810907e+003;5.648566e-002
1.812835e+003;5.633610e-002
1.814764e+003;5.615431e-002
1.816692e+003;5.597972e-002
1.818621e+003;5.600731e-002
1.820549e+003;5.585852e-002
1.822478e+003;5.565554e-002
1.824406e+003;5.561998e-002
1.826335e+003;5.557456e-002
1.828264e+003;5.541515e-002
1.830192e+003;5.514800e-002
1.832121e+003;5.476700e-002
1.834049e+003;5.451100e-002
1.835978e+003;5.442351e-002
1.837906e+003;5.425856e-002
1.839835e+003;5.412653e-002
1.841763e+003;5.380759e-002
1.843692e+003;5.358566e-002
1.845620e+003;5.365692e-002
1.847549e+003;5.356692e-002
1.849478e+003;5.336886e-002
1.851406e+003;5.324565e-002
1.853335e+003;5.328630e-002
1.855263e+003;5.325708e-002
1.857192e+003;5.316393e-002
1.859120e+003;5.285419e-002
1.861049e+003;5.272750e-002
1.862977e+003;5.281961e-002
1.864906e+003;5.279181e-002
1.866834e+003;5.269813e-002
1.868763e+003;5.271556e-002
1.870692e+003;5.276162e-002
1.872620e+003;5.265586e-002
1.874549e+003;5.257377e-002
1.876477e+003;5.253686e-002
1.878406e+003;5.256505e-002
1.880334e+003;5.267083e-002
1.882263e+003;5.263162e-002
1.884191e+003;5.266143e-002
1.886120e+003;5.276128e-002
1.888048e+003;5.263271e-002
1.889977e+003;5.252765e-002
1.891906e+003;5.267101e-002
1.893834e+003;5.272290e-002
1.895763e+003;5.250989e-002
1.897691e+003;5.240151e-002
1.899620e+003;5.227853e-002
1.901548e+003;5.223100e-002
1.903477e+003;5.221882e-002
1.905405e+003;5.209944e-002
1.907334e+003;5.202201e-002
1.909262e+003;5.188775e-002
1.911191e+003;5.191576e-002
1.913120e+003;5.201899e-002
1.915048e+003;5.194242e-002
1.916977e+003;5.186012e-002
1.918905e+003;5.197988e-002
1.920834e+003;5.198937e-002
1.922762e+003;5.164807e-002
1.924691e+003;5.163964e-002
1.926619e+003;5.184571e-002
1.928548e+003;5.189829e-002
1.930477e+003;5.180312e-002
1.932405e+003;5.180285e-002
1.934334e+003;5.174723e-002
1.936262e+003;5.157672e-002
1.938191e+003;5.158728e-002
1.940119e+003;5.150785e-002
1.942048e+003;5.152046e-002
1.943976e+003;5.171842e-002
1.945905e+003;5.160120e-002
1.947833e+003;5.170640e-002
1.949762e+003;5.193226e-002
1.951691e+003;5.195310e-002
1.953619e+003;5.203183e-002
1.955548e+003;5.205006e-002
1.957476e+003;5.199810e-002
1.959405e+003;5.195508e-002
1.961333e+003;5.192805e-002
1.963262e+003;5.200363e-002
1.965190e+003;5.211622e-002
1.967119e+003;5.211009e-002
1.969047e+003;5.195964e-002
1.970976e+003;5.183765e-002
1.972905e+003;5.184239e-002
1.974833e+003;5.190822e-002
1.976762e+003;5.181058e-002
1.978690e+003;5.180879e-002
1.980619e+003;5.198268e-002
1.982547e+003;5.214577e-002
1.984476e+003;5.209216e-002
1.986404e+003;5.175466e-002
1.988333e+003;5.169699e-002
1.990261e+003;5.190079e-002
1.992190e+003;5.200826e-002
1.994119e+003;5.177400e-002
1.996047e+003;5.148200e-002
1.997976e+003;5.145122e-002
1.999904e+003;5.150710e-002
2.001833e+003;5.157657e-002
2.003761e+003;5.175362e-002
2.005690e+003;5.176993e-002
2.007618e+003;5.164079e-002
2.009547e+003;5.151169e-002
2.011476e+003;5.143772e-002
2.013404e+003;5.152505e-002
2.015333e+003;5.165203e-002
2.017261e+003;5.185225e-002
2.019190e+003;5.204592e-002
2.021118e+003;5.179039e-002
2.023047e+003;5.158389e-002
2.024975e+003;5.176926e-002
2.026904e+003;5.187345e-002
2.028833e+003;5.174182e-002
2.030761e+003;5.161862e-002
2.032690e+003;5.162788e-002
2.034618e+003;5.181999e-002
2.036547e+003;5.190747e-002
2.038475e+003;5.195008e-002
2.040404e+003;5.201891e-002
2.042332e+003;5.181514e-002
2.044261e+003;5.159583e-002
2.046189e+003;5.167885e-002
2.048118e+003;5.167147e-002
2.050047e+003;5.151826e-002
2.051975e+003;5.152706e-002
2.053904e+003;5.162232e-002
2.055832e+003;5.170293e-002
2.057761e+003;5.183451e-002
2.059689e+003;5.192748e-002
2.061618e+003;5.185262e-002
2.063546e+003;5.183492e-002
2.065475e+003;5.187790e-002
2.067404e+003;5.191255e-002
2.069332e+003;5.187383e-002
2.071260e+003;5.185012e-002
2.073189e+003;5.198018e-002
2.075118e+003;5.202309e-002
2.077046e+003;5.185475e-002
2.078975e+003;5.180020e-002
2.080903e+003;5.208036e-002
2.082832e+003;5.228892e-002
2.084760e+003;5.220981e-002
2.086689e+003;5.220630e-002
2.088617e+003;5.223881e-002
2.090546e+003;5.215533e-002
2.092475e+003;5.213370e-002
2.094403e+003;5.214738e-002
2.096332e+003;5.210748e-002
2.098260e+003;5.216949e-002
2.100189e+003;5.239437e-002
2.102117e+003;5.249920e-002
2.104046e+003;5.248727e-002
2.105974e+003;5.235362e-002
2.107903e+003;5.222498e-002
2.109832e+003;5.232450e-002
2.111760e+003;5.236921e-002
2.113688e+003;5.246327e-002
2.115617e+003;5.240102e-002
2.117546e+003;5.225181e-002
2.119474e+003;5.214274e-002
2.121403e+003;5.207542e-002
2.123331e+003;5.209989e-002
2.125260e+003;5.206033e-002
2.127188e+003;5.219815e-002
2.129117e+003;5.230667e-002
2.131045e+003;5.198055e-002
2.132974e+003;5.170196e-002
2.134903e+003;5.171894e-002
2.136831e+003;5.174783e-002
2.138760e+003;5.176418e-002
2.140688e+003;5.171122e-002
2.142617e+003;5.142638e-002
2.144545e+003;5.116368e-002
2.146474e+003;5.145849e-002
2.148402e+003;5.178329e-002
2.150331e+003;5.174757e-002
2.152260e+003;5.154109e-002
2.154188e+003;5.160351e-002
2.156117e+003;5.184071e-002
2.158045e+003;5.181809e-002
2.159974e+003;5.158519e-002
2.161902e+003;5.147845e-002
2.163831e+003;5.148453e-002
2.165759e+003;5.147080e-002
2.167688e+003;5.142317e-002
2.169616e+003;5.141034e-002
2.171545e+003;5.140878e-002
2.173474e+003;5.148808e-002
2.175402e+003;5.145391e-002
2.177331e+003;5.130208e-002
2.179259e+003;5.130551e-002
2.181188e+003;5.146569e-002
2.183116e+003;5.157821e-002
2.185045e+003;5.155743e-002
2.186973e+003;5.153489e-002
2.188902e+003;5.162643e-002
2.190831e+003;5.169558e-002
2.192759e+003;5.165322e-002
2.194688e+003;5.152941e-002
2.196616e+003;5.158993e-002
2.198545e+003;5.176000e-002
2.200473e+003;5.164635e-002
2.202402e+003;5.144051e-002
2.204330e+003;5.159448e-002
2.206259e+003;5.168199e-002
2.208188e+003;5.137591e-002
2.210116e+003;5.121629e-002
2.212044e+003;5.129432e-002
2.213973e+003;5.130730e-002
2.215902e+003;5.133601e-002
2.217830e+003;5.117233e-002
2.219759e+003;5.099027e-002
2.221687e+003;5.116712e-002
2.223616e+003;5.125543e-002
2.225544e+003;5.104520e-002
2.227473e+003;5.095007e-002
2.229401e+003;5.107453e-002
2.231330e+003;5.096903e-002
2.233259e+003;5.076408e-002
2.235187e+003;5.087708e-002
2.237116e+003;5.102019e-002
2.239044e+003;5.099918e-002
2.240973e+003;5.090722e-002
2.242901e+003;5.077979e-002
2.244830e+003;5.079026e-002
2.246758e+003;5.093494e-002
2.248687e+003;5.094869e-002
2.250615e+003;5.086069e-002
2.252544e+003;5.061390e-002
2.254473e+003;5.041615e-002
2.256401e+003;5.060247e-002
2.258330e+003;5.087258e-002
2.260258e+003;5.084196e-002
2.262187e+003;5.052184e-002
2.264115e+003;5.060214e-002
2.266044e+003;5.074110e-002
2.267972e+003;5.061822e-002
2.269901e+003;5.063840e-002
2.271830e+003;5.071872e-002
2.273758e+003;5.064540e-002
2.275687e+003;5.059320e-002
2.277615e+003;5.073175e-002
2.279544e+003;5.082545e-002
2.281472e+003;5.083637e-002
2.283401e+003;5.087269e-002
2.285329e+003;5.092533e-002
2.287258e+003;5.106793e-002
2.289187e+003;5.113297e-002
2.291115e+003;5.110971e-002
2.293043e+003;5.101796e-002
2.294972e+003;5.093300e-002
2.296901e+003;5.121949e-002
2.298829e+003;5.150956e-002
2.300758e+003;5.135813e-002
2.302686e+003;5.108131e-002
2.304615e+003;5.101680e-002
2.306543e+003;5.108150e-002
2.308472e+003;5.120618e-002
2.310400e+003;5.107013e-002
2.312329e+003;5.076892e-002
2.314258e+003;5.070215e-002
2.316186e+003;5.087209e-002
2.318115e+003;5.100946e-002
2.320043e+003;5.110613e-002
2.321972e+003;5.100793e-002
2.323900e+003;5.085287e-002
2.325829e+003;5.064387e-002
2.327757e+003;5.047625e-002
2.329686e+003;5.056874e-002
2.331615e+003;5.069567e-002
2.333543e+003;5.058174e-002
2.335472e+003;5.045957e-002
2.337400e+003;5.054615e-002
2.339329e+003;5.054615e-002
2.341257e+003;5.072721e-002
2.343186e+003;5.095562e-002
2.345114e+003;5.067042e-002
2.347043e+003;5.054221e-002
2.348971e+003;5.076318e-002
2.350900e+003;5.081052e-002
2.352829e+003;5.069689e-002
2.354757e+003;5.063784e-002
2.356686e+003;5.052635e-002
2.358614e+003;5.046412e-002
2.360543e+003;5.058002e-002
2.362471e+003;5.067660e-002
2.364400e+003;5.082966e-002
2.366328e+003;5.106193e-002
2.368257e+003;5.123933e-002
2.370186e+003;5.122188e-002
2.372114e+003;5.132479e-002
2.374042e+003;5.143738e-002
2.375971e+003;5.151065e-002
2.377900e+003;5.168621e-002
2.379828e+003;5.184508e-002
2.381757e+003;5.170390e-002
2.383685e+003;5.151065e-002
2.385614e+003;5.143835e-002
2.387542e+003;5.144316e-002
2.389471e+003;5.146912e-002
2.391399e+003;5.163213e-002
2.393328e+003;5.192543e-002
2.395257e+003;5.219681e-002
2.397185e+003;5.247964e-002
2.399114e+003;5.273809e-002
2.401042e+003;5.276383e-002
2.402971e+003;5.269783e-002
2.404899e+003;5.273120e-002
2.406828e+003;5.300697e-002
2.408756e+003;5.334575e-002
2.410685e+003;5.340322e-002
2.412614e+003;5.340461e-002
2.414542e+003;5.360156e-002
2.416471e+003;5.369929e-002
2.418399e+003;5.367125e-002
2.420328e+003;5.400086e-002
2.422256e+003;5.437488e-002
2.424185e+003;5.470814e-002
2.426113e+003;5.508010e-002
2.428042e+003;5.516979e-002
2.429970e+003;5.519601e-002
2.431899e+003;5.524646e-002
2.433828e+003;5.542987e-002
2.435756e+003;5.553212e-002
2.437685e+003;5.574952e-002
2.439613e+003;5.598484e-002
2.441542e+003;5.612648e-002
2.443470e+003;5.624508e-002
2.445399e+003;5.618911e-002
2.447327e+003;5.604501e-002
2.449256e+003;5.596913e-002
2.451185e+003;5.593634e-002
2.453113e+003;5.594549e-002
2.455042e+003;5.598586e-002
2.456970e+003;5.614371e-002
2.458899e+003;5.612418e-002
2.460827e+003;5.619194e-002
2.462756e+003;5.619055e-002
2.464684e+003;5.618609e-002
2.466613e+003;5.627337e-002
2.468542e+003;5.621977e-002
2.470470e+003;5.624285e-002
2.472398e+003;5.647430e-002
2.474327e+003;5.683082e-002
2.476256e+003;5.678127e-002
2.478184e+003;5.675216e-002
2.480113e+003;5.685703e-002
2.482041e+003;5.698599e-002
2.483970e+003;5.706038e-002
2.485898e+003;5.710664e-002
2.487827e+003;5.704795e-002
2.489755e+003;5.712837e-002
2.491684e+003;5.720547e-002
2.493613e+003;5.718090e-002
2.495541e+003;5.721806e-002
2.497470e+003;5.723091e-002
2.499398e+003;5.723481e-002
2.501327e+003;5.729983e-002
2.503255e+003;5.738498e-002
2.505184e+003;5.760178e-002
2.507112e+003;5.779535e-002
2.509041e+003;5.765271e-002
2.510969e+003;5.736819e-002
2.512898e+003;5.750381e-002
2.514827e+003;5.769396e-002
2.516755e+003;5.770701e-002
2.518684e+003;5.777366e-002
2.520612e+003;5.772540e-002
2.522541e+003;5.777199e-002
2.524469e+003;5.780504e-002
2.526398e+003;5.803743e-002
2.528326e+003;5.828131e-002
2.530255e+003;5.825471e-002
2.532184e+003;5.826923e-002
2.534112e+003;5.834555e-002
2.536041e+003;5.847442e-002
2.537969e+003;5.853701e-002
2.539898e+003;5.849963e-002
2.541826e+003;5.855252e-002
2.543755e+003;5.853603e-002
2.545683e+003;5.864573e-002
2.547612e+003;5.911632e-002
2.549541e+003;5.936909e-002
2.551469e+003;5.936093e-002
2.553397e+003;5.941332e-002
2.555326e+003;5.958644e-002
2.557255e+003;5.988699e-002
2.559183e+003;6.017926e-002
2.561112e+003;6.027373e-002
2.563040e+003;6.027727e-002
2.564969e+003;6.051620e-002
2.566897e+003;6.050204e-002
2.568826e+003;6.054972e-002
2.570754e+003;6.095818e-002
2.572683e+003;6.120764e-002
2.574612e+003;6.131878e-002
2.576540e+003;6.146350e-002
2.578469e+003;6.171115e-002
2.580397e+003;6.197442e-002
2.582326e+003;6.213710e-002
2.584254e+003;6.214108e-002
2.586183e+003;6.218531e-002
2.588111e+003;6.241180e-002
2.590040e+003;6.279019e-002
2.591969e+003;6.305863e-002
2.593897e+003;6.324057e-002
2.595826e+003;6.356629e-002
2.597754e+003;6.390189e-002
2.599683e+003;6.392089e-002
2.601611e+003;6.384754e-002
2.603540e+003;6.389425e-002
2.605468e+003;6.395344e-002
2.607397e+003;6.402928e-002
2.609325e+003;6.413434e-002
2.611254e+003;6.430013e-002
2.613183e+003;6.429007e-002
2.615111e+003;6.433453e-002
2.617040e+003;6.453134e-002
2.618968e+003;6.450389e-002
2.620897e+003;6.441730e-002
2.622825e+003;6.459408e-002
2.624754e+003;6.455676e-002
2.626682e+003;6.452415e-002
2.628611e+003;6.475571e-002
2.630540e+003;6.491197e-002
2.632468e+003;6.474940e-002
2.634396e+003;6.463707e-002
2.636325e+003;6.451473e-002
2.638254e+003;6.441880e-002
2.640182e+003;6.440135e-002
2.642111e+003;6.429803e-002
2.644039e+003;6.423613e-002
2.645968e+003;6.453288e-002
2.647896e+003;6.471413e-002
2.649825e+003;6.469337e-002
2.651753e+003;6.455053e-002
2.653682e+003;6.454999e-002
2.655611e+003;6.485561e-002
2.657539e+003;6.504823e-002
2.659468e+003;6.514288e-002
2.661396e+003;6.529505e-002
2.663325e+003;6.553831e-002
2.665253e+003;6.566879e-002
2.667182e+003;6.578756e-002
2.669110e+003;6.591241e-002
2.671039e+003;6.590046e-002
2.672968e+003;6.586629e-002
2.674896e+003;6.608278e-002
2.676825e+003;6.651135e-002
2.678753e+003;6.665205e-002
2.680682e+003;6.643670e-002
2.682610e+003;6.648597e-002
2.684539e+003;6.656846e-002
2.686467e+003;6.646447e-002
2.688396e+003;6.663354e-002
2.690324e+003;6.706320e-002
2.692253e+003;6.745800e-002
2.694182e+003;6.748177e-002
2.696110e+003;6.727533e-002
2.698039e+003;6.744748e-002
2.699967e+003;6.800405e-002
2.701896e+003;6.817672e-002
2.703824e+003;6.803641e-002
2.705753e+003;6.829330e-002
2.707681e+003;6.879698e-002
2.709610e+003;6.877579e-002
2.711539e+003;6.859660e-002
2.713467e+003;6.861646e-002
2.715396e+003;6.873426e-002
2.717324e+003;6.921723e-002
2.719253e+003;6.952752e-002
2.721181e+003;6.966415e-002
2.723110e+003;6.975409e-002
2.725038e+003;6.986188e-002
2.726967e+003;7.010074e-002
2.728896e+003;7.045580e-002
2.730824e+003;7.051111e-002
2.732752e+003;7.036778e-002
2.734681e+003;7.031222e-002
2.736610e+003;7.044930e-002
2.738538e+003;7.068684e-002
2.740467e+003;7.078070e-002
2.742395e+003;7.090474e-002
2.744324e+003;7.125683e-002
2.746252e+003;7.163141e-002
2.748181e+003;7.171848e-002
2.750109e+003;7.168881e-002
2.752038e+003;7.185709e-002
2.753967e+003;7.213757e-002
2.755895e+003;7.234003e-002
2.757824e+003;7.246992e-002
2.759752e+003;7.269932e-002
2.761681e+003;7.279507e-002
2.763609e+003;7.288285e-002
2.765538e+003;7.314961e-002
2.767466e+003;7.318702e-002
2.769395e+003;7.305735e-002
2.771323e+003;7.341009e-002
2.773252e+003;7.363442e-002
2.775181e+003;7.362343e-002
2.777109e+003;7.372853e-002
2.779038e+003;7.396948e-002
2.780966e+003;7.414525e-002
2.782895e+003;7.437153e-002
2.784823e+003;7.438298e-002
2.786752e+003;7.437334e-002
2.788680e+003;7.472763e-002
2.790609e+003;7.481300e-002
2.792538e+003;7.466187e-002
2.794466e+003;7.467848e-002
2.796395e+003;7.501549e-002
2.798323e+003;7.546270e-002
2.800252e+003;7.550169e-002
2.802180e+003;7.536120e-002
2.804109e+003;7.556651e-002
2.806037e+003;7.576264e-002
2.807966e+003;7.593511e-002
2.809895e+003;7.632398e-002
2.811823e+003;7.652444e-002
2.813751e+003;7.636636e-002
2.815680e+003;7.634491e-002
2.817609e+003;7.646339e-002
2.819537e+003;7.656799e-002
2.821466e+003;7.671935e-002
2.823394e+003;7.690585e-002
2.825323e+003;7.720446e-002
2.827251e+003;7.744153e-002
2.829180e+003;7.756673e-002
2.831108e+003;7.764097e-002
2.833037e+003;7.769561e-002
2.834966e+003;7.800686e-002
2.836894e+003;7.838305e-002
2.838823e+003;7.883672e-002
2.840751e+003;7.930308e-002
2.842680e+003;7.979303e-002
2.844608e+003;8.056074e-002
2.846537e+003;8.101366e-002
2.848465e+003;8.135594e-002
2.850394e+003;8.189602e-002
2.852323e+003;8.238038e-002
2.854251e+003;8.280601e-002
2.856180e+003;8.292245e-002
2.858108e+003;8.309302e-002
2.860037e+003;8.360349e-002
2.861965e+003;8.384709e-002
2.863894e+003;8.393030e-002
2.865822e+003;8.434369e-002
2.867751e+003;8.524708e-002
2.869679e+003;8.579187e-002
2.871608e+003;8.601280e-002
2.873536e+003;8.646023e-002
2.875465e+003;8.655308e-002
2.877394e+003;8.640986e-002
2.879322e+003;8.625525e-002
2.881251e+003;8.616227e-002
2.883179e+003;8.622478e-002
2.885108e+003;8.625408e-002
2.887036e+003;8.633628e-002
2.888965e+003;8.649687e-002
2.890893e+003;8.677880e-002
2.892822e+003;8.698384e-002
2.894750e+003;8.696181e-002
2.896679e+003;8.708193e-002
2.898608e+003;8.749169e-002
2.900536e+003;8.792232e-002
2.902465e+003;8.809794e-002
2.904393e+003;8.841754e-002
2.906322e+003;8.881560e-002
2.908250e+003;8.960734e-002
2.910179e+003;9.065896e-002
2.912107e+003;9.143040e-002
2.914036e+003;9.175398e-002
2.915965e+003;9.248222e-002
2.917893e+003;9.348170e-002
2.919822e+003;9.425355e-002
2.921750e+003;9.473133e-002
2.923679e+003;9.536846e-002
2.925607e+003;9.624151e-002
2.927536e+003;9.701535e-002
2.929464e+003;9.735780e-002
2.931393e+003;9.761585e-002
2.933322e+003;9.775837e-002
2.935250e+003;9.765741e-002
2.937178e+003;9.736904e-002
2.939107e+003;9.672637e-002
2.941036e+003;9.584201e-002
2.942964e+003;9.488714e-002
2.944893e+003;9.413617e-002
2.946821e+003;9.346518e-002
2.948750e+003;9.286404e-002
2.950678e+003;9.231257e-002
2.952607e+003;9.182680e-002
2.954535e+003;9.165826e-002
2.956464e+003;9.151830e-002
2.958393e+003;9.150521e-002
2.960321e+003;9.181611e-002
2.962250e+003;9.195761e-002
2.964178e+003;9.196440e-002
2.966107e+003;9.193119e-002
2.968035e+003;9.200003e-002
2.969964e+003;9.224389e-002
2.971892e+003;9.277705e-002
2.973821e+003;9.280278e-002
2.975750e+003;9.246804e-002
2.977678e+003;9.237933e-002
2.979607e+003;9.213921e-002
2.981535e+003;9.142581e-002
2.983464e+003;9.103570e-002
2.985392e+003;9.073099e-002
2.987321e+003;9.031449e-002
2.989249e+003;9.010915e-002
2.991178e+003;8.957032e-002
2.993106e+003;8.903286e-002
2.995035e+003;8.867639e-002
2.996964e+003;8.840508e-002
2.998892e+003;8.840869e-002
3.000821e+003;8.786942e-002
3.002749e+003;8.724842e-002
3.004678e+003;8.708631e-002
3.006606e+003;8.731838e-002
3.008535e+003;8.741121e-002
3.010463e+003;8.712947e-002
3.012392e+003;8.707910e-002
3.014321e+003;8.712931e-002
3.016249e+003;8.706234e-002
3.018177e+003;8.749497e-002
3.020106e+003;8.796918e-002
3.022035e+003;8.824801e-002
3.023963e+003;8.869163e-002
3.025892e+003;8.912235e-002
3.027820e+003;8.949809e-002
3.029749e+003;8.991042e-002
3.031677e+003;9.003723e-002
3.033606e+003;9.025171e-002
3.035534e+003;9.072857e-002
3.037463e+003;9.146348e-002
3.039392e+003;9.190602e-002
3.041320e+003;9.199033e-002
3.043249e+003;9.251301e-002
3.045177e+003;9.309696e-002
3.047106e+003;9.361108e-002
3.049034e+003;9.427863e-002
3.050963e+003;9.489192e-002
3.052891e+003;9.535777e-002
3.054820e+003;9.579351e-002
3.056749e+003;9.628700e-002
3.058677e+003;9.663852e-002
3.060606e+003;9.673323e-002
3.062534e+003;9.686466e-002
3.064463e+003;9.765111e-002
3.066391e+003;9.782680e-002
3.068320e+003;9.739739e-002
3.070248e+003;9.750265e-002
3.072177e+003;9.752923e-002
3.074105e+003;9.722564e-002
3.076034e+003;9.718172e-002
3.077963e+003;9.726830e-002
3.079891e+003;9.713505e-002
3.081820e+003;9.680363e-002
3.083748e+003;9.659461e-002
3.085677e+003;9.652579e-002
3.087605e+003;9.639724e-002
3.089534e+003;9.621079e-002
3.091462e+003;9.582317e-002
3.093391e+003;9.547520e-002
3.095320e+003;9.546661e-002
3.097248e+003;9.527420e-002
3.099177e+003;9.516986e-002
3.101105e+003;9.521892e-002
3.103034e+003;9.508383e-002
3.104962e+003;9.472807e-002
3.106891e+003;9.403774e-002
3.108819e+003;9.349091e-002
3.110748e+003;9.354811e-002
3.112677e+003;9.374407e-002
3.114605e+003;9.332073e-002
3.116533e+003;9.299959e-002
3.118462e+003;9.306663e-002
3.120391e+003;9.281471e-002
3.122319e+003;9.253483e-002
3.124248e+003;9.258042e-002
3.126176e+003;9.294233e-002
3.128105e+003;9.324709e-002
3.130033e+003;9.316730e-002
3.131962e+003;9.291882e-002
3.133890e+003;9.302327e-002
3.135819e+003;9.337807e-002
3.137748e+003;9.346054e-002
3.139676e+003;9.371463e-002
3.141605e+003;9.401832e-002
3.143533e+003;9.468675e-002
3.145462e+003;9.520658e-002
3.147390e+003;9.533804e-002
3.149319e+003;9.566736e-002
3.151247e+003;9.610043e-002
3.153176e+003;9.665520e-002
3.155104e+003;9.731614e-002
3.157033e+003;9.761339e-002
3.158962e+003;9.787479e-002
3.160890e+003;9.836181e-002
3.162819e+003;9.939437e-002
3.164747e+003;1.003804e-001
3.166676e+003;1.006101e-001
3.168604e+003;1.006649e-001
3.170533e+003;1.013522e-001
3.172461e+003;1.024061e-001
3.174390e+003;1.032996e-001
3.176319e+003;1.039620e-001
3.178247e+003;1.046396e-001
3.180176e+003;1.054080e-001
3.182104e+003;1.063515e-001
3.184033e+003;1.072940e-001
3.185961e+003;1.080043e-001
3.187890e+003;1.088557e-001
3.189818e+003;1.096599e-001
3.191747e+003;1.105010e-001
3.193676e+003;1.116762e-001
3.195604e+003;1.127456e-001
3.197532e+003;1.134026e-001
3.199461e+003;1.138952e-001
3.201390e+003;1.149378e-001
3.203318e+003;1.161712e-001
3.205247e+003;1.172100e-001
3.207175e+003;1.182070e-001
3.209104e+003;1.191081e-001
3.211032e+003;1.198199e-001
3.212961e+003;1.204207e-001
3.214889e+003;1.212950e-001
3.216818e+003;1.224229e-001
3.218747e+003;1.233943e-001
3.220675e+003;1.242503e-001
3.222604e+003;1.255498e-001
3.224532e+003;1.267645e-001
3.226461e+003;1.277256e-001
3.228389e+003;1.288586e-001
3.230318e+003;1.299818e-001
3.232246e+003;1.312780e-001
3.234175e+003;1.322375e-001
3.236104e+003;1.332355e-001
3.238032e+003;1.347181e-001
3.239961e+003;1.361290e-001
3.241889e+003;1.376301e-001
3.243818e+003;1.396676e-001
3.245746e+003;1.415719e-001
3.247675e+003;1.428038e-001
3.249603e+003;1.441520e-001
3.251532e+003;1.458040e-001
3.253460e+003;1.474971e-001
3.255389e+003;1.494645e-001
3.257318e+003;1.515952e-001
3.259246e+003;1.534968e-001
3.261175e+003;1.556770e-001
3.263103e+003;1.581684e-001
3.265032e+003;1.598357e-001
3.266960e+003;1.610241e-001
3.268889e+003;1.629694e-001
3.270817e+003;1.648665e-001
3.272746e+003;1.665550e-001
3.274675e+003;1.679216e-001
3.276603e+003;1.688736e-001
3.278531e+003;1.697396e-001
3.280460e+003;1.702096e-001
3.282389e+003;1.702827e-001
3.284317e+003;1.702548e-001
3.286246e+003;1.699407e-001
3.288174e+003;1.690299e-001
3.290103e+003;1.679142e-001
3.292031e+003;1.669537e-001
3.293960e+003;1.658724e-001
3.295888e+003;1.643144e-001
3.297817e+003;1.623958e-001
3.299746e+003;1.602478e-001
3.301674e+003;1.579344e-001
3.303603e+003;1.561718e-001
3.305531e+003;1.543066e-001
3.307460e+003;1.519032e-001
3.309388e+003;1.494130e-001
3.311317e+003;1.472843e-001
3.313245e+003;1.453858e-001
3.315174e+003;1.432833e-001
3.317103e+003;1.409228e-001
3.319031e+003;1.386575e-001
3.320960e+003;1.366120e-001
3.322888e+003;1.343984e-001
3.324817e+003;1.327111e-001
3.326745e+003;1.313443e-001
3.328674e+003;1.293358e-001
3.330602e+003;1.273703e-001
3.332531e+003;1.256962e-001
3.334459e+003;1.237006e-001
3.336388e+003;1.219624e-001
3.338317e+003;1.204794e-001
3.340245e+003;1.189227e-001
3.342174e+003;1.174206e-001
3.344102e+003;1.162086e-001
3.346031e+003;1.152888e-001
3.347959e+003;1.142365e-001
3.349888e+003;1.131879e-001
3.351816e+003;1.118674e-001
3.353745e+003;1.105856e-001
3.355674e+003;1.096547e-001
3.357602e+003;1.084369e-001
3.359531e+003;1.075044e-001
3.361459e+003;1.067292e-001
3.363388e+003;1.054308e-001
3.365316e+003;1.045574e-001
3.367245e+003;1.038832e-001
3.369173e+003;1.033170e-001
3.371102e+003;1.028128e-001
3.373031e+003;1.020296e-001
3.374959e+003;1.016533e-001
3.376887e+003;1.011066e-001
3.378816e+003;9.993026e-002
3.380745e+003;9.903583e-002
3.382673e+003;9.859791e-002
3.384602e+003;9.794229e-002
3.386530e+003;9.692691e-002
3.388459e+003;9.626794e-002
3.390387e+003;9.580309e-002
3.392316e+003;9.559571e-002
3.394244e+003;9.512725e-002
3.396173e+003;9.476665e-002
3.398102e+003;9.413275e-002
3.400030e+003;9.292875e-002
3.401959e+003;9.221660e-002
3.403887e+003;9.161022e-002
3.405816e+003;9.115009e-002
3.407744e+003;9.054903e-002
3.409673e+003;8.994274e-002
3.411601e+003;8.968502e-002
3.413530e+003;8.916153e-002
3.415458e+003;8.832894e-002
3.417387e+003;8.751552e-002
3.419316e+003;8.694004e-002
3.421244e+003;8.650932e-002
3.423173e+003;8.604571e-002
3.425101e+003;8.530120e-002
3.427030e+003;8.416351e-002
3.428958e+003;8.322499e-002
3.430887e+003;8.316291e-002
3.432815e+003;8.301719e-002
3.434744e+003;8.233107e-002
3.436673e+003;8.169802e-002
3.438601e+003;8.114995e-002
3.440530e+003;8.078831e-002
3.442458e+003;8.052001e-002
3.444387e+003;8.008893e-002
3.446315e+003;7.985737e-002
3.448244e+003;7.987773e-002
3.450172e+003;7.949558e-002
3.452101e+003;7.878921e-002
3.454030e+003;7.815181e-002
3.455958e+003;7.794659e-002
3.457886e+003;7.754450e-002
3.459815e+003;7.707932e-002
3.461744e+003;7.696961e-002
3.463672e+003;7.694481e-002
3.465601e+003;7.676727e-002
3.467529e+003;7.643099e-002
3.469458e+003;7.603820e-002
3.471386e+003;7.590394e-002
3.473315e+003;7.564865e-002
3.475243e+003;7.535647e-002
3.477172e+003;7.509410e-002
3.479101e+003;7.464409e-002
3.481029e+003;7.480276e-002
3.482958e+003;7.496957e-002
3.484886e+003;7.446478e-002
3.486815e+003;7.402060e-002
3.488743e+003;7.385915e-002
3.490672e+003;7.334779e-002
3.492600e+003;7.314737e-002
3.494529e+003;7.353139e-002
3.496458e+003;7.366442e-002
3.498386e+003;7.339299e-002
3.500315e+003;7.264923e-002
3.502243e+003;7.206739e-002
3.504172e+003;7.169182e-002
3.506100e+003;7.130677e-002
3.508029e+003;7.080051e-002
3.509957e+003;7.039443e-002
3.511886e+003;7.063300e-002
3.513814e+003;7.086000e-002
3.515743e+003;7.054825e-002
3.517672e+003;7.005935e-002
3.519600e+003;6.966458e-002
3.521529e+003;6.938048e-002
3.523457e+003;6.930207e-002
3.525386e+003;6.883270e-002
3.527314e+003;6.835453e-002
3.529243e+003;6.825317e-002
3.531171e+003;6.801032e-002
3.533100e+003;6.790296e-002
3.535029e+003;6.792659e-002
3.536957e+003;6.779678e-002
3.538885e+003;6.744179e-002
3.540814e+003;6.690878e-002
3.542743e+003;6.630714e-002
3.544671e+003;6.581655e-002
3.546600e+003;6.542126e-002
3.548528e+003;6.507171e-002
3.550457e+003;6.500047e-002
3.552385e+003;6.450120e-002
3.554314e+003;6.390154e-002
3.556242e+003;6.375068e-002
3.558171e+003;6.336413e-002
3.560100e+003;6.329308e-002
3.562028e+003;6.343874e-002
3.563957e+003;6.338564e-002
3.565885e+003;6.291185e-002
3.567814e+003;6.230263e-002
3.569742e+003;6.205533e-002
3.571671e+003;6.191366e-002
3.573599e+003;6.139919e-002
3.575528e+003;6.091921e-002
3.577457e+003;6.087572e-002
3.579385e+003;6.087377e-002
3.581314e+003;6.047347e-002
3.583242e+003;5.988790e-002
3.585171e+003;5.936754e-002
3.587099e+003;5.894119e-002
3.589028e+003;5.866094e-002
3.590956e+003;5.868468e-002
3.592885e+003;5.843886e-002
3.594813e+003;5.785686e-002
3.596742e+003;5.760704e-002
3.598671e+003;5.761094e-002
3.600599e+003;5.768313e-002
3.602528e+003;5.747933e-002
3.604456e+003;5.709511e-002
3.606385e+003;5.690794e-002
3.608313e+003;5.637873e-002
3.610242e+003;5.592820e-002
3.612170e+003;5.591018e-002
3.614099e+003;5.563794e-002
3.616028e+003;5.501297e-002
3.617956e+003;5.446509e-002
3.619885e+003;5.456021e-002
3.621813e+003;5.473441e-002
3.623742e+003;5.459582e-002
3.625670e+003;5.401583e-002
3.627599e+003;5.319944e-002
3.629527e+003;5.260993e-002
3.631456e+003;5.250589e-002
3.633385e+003;5.214080e-002
3.635313e+003;5.182906e-002
3.637241e+003;5.153210e-002
3.639170e+003;5.091523e-002
3.641099e+003;5.072900e-002
3.643027e+003;5.066327e-002
3.644956e+003;5.002120e-002
3.646884e+003;4.908000e-002
3.648813e+003;4.812484e-002
3.650741e+003;4.739109e-002
3.652670e+003;4.746408e-002
3.654598e+003;4.722002e-002
3.656527e+003;4.614312e-002
3.658456e+003;4.582984e-002
3.660384e+003;4.584925e-002
3.662313e+003;4.533557e-002
3.664241e+003;4.456035e-002
3.666170e+003;4.396720e-002
3.668098e+003;4.343710e-002
3.670027e+003;4.259834e-002
3.671955e+003;4.190293e-002
3.673884e+003;4.113123e-002
3.675813e+003;4.020094e-002
3.677741e+003;3.972595e-002
3.679669e+003;3.931329e-002
3.681598e+003;3.907932e-002
3.683527e+003;3.877587e-002
3.685455e+003;3.816509e-002
3.687384e+003;3.710732e-002
3.689312e+003;3.647171e-002
3.691241e+003;3.657031e-002
3.693169e+003;3.654973e-002
3.695098e+003;3.633853e-002
3.697026e+003;3.604297e-002
3.698955e+003;3.557179e-002
3.700884e+003;3.476508e-002
3.702812e+003;3.451672e-002
3.704741e+003;3.471691e-002
3.706669e+003;3.481078e-002
3.708598e+003;3.472796e-002
3.710526e+003;3.433404e-002
3.712455e+003;3.416722e-002
3.714383e+003;3.432358e-002
3.716312e+003;3.402630e-002
3.718240e+003;3.367229e-002
3.720169e+003;3.385766e-002
3.722098e+003;3.361451e-002
3.724026e+003;3.317174e-002
3.725955e+003;3.291138e-002
3.727883e+003;3.305237e-002
3.729812e+003;3.322116e-002
3.731740e+003;3.292089e-002
3.733669e+003;3.254928e-002
3.735597e+003;3.219123e-002
3.737526e+003;3.238242e-002
3.739455e+003;3.267458e-002
3.741383e+003;3.256353e-002
3.743312e+003;3.188692e-002
3.745240e+003;3.132370e-002
3.747169e+003;3.133200e-002
3.749097e+003;3.130148e-002
3.751026e+003;3.154007e-002
3.752954e+003;3.175340e-002
3.754883e+003;3.209575e-002
3.756812e+003;3.166180e-002
3.758740e+003;3.133792e-002
3.760668e+003;3.163817e-002
3.762597e+003;3.176745e-002
3.764526e+003;3.162384e-002
3.766454e+003;3.150337e-002
3.768383e+003;3.148428e-002
3.770311e+003;3.137659e-002
3.772240e+003;3.110119e-002
3.774168e+003;3.108175e-002
3.776097e+003;3.110083e-002
3.778025e+003;3.120574e-002
3.779954e+003;3.104670e-002
3.781883e+003;3.075628e-002
3.783811e+003;3.084499e-002
3.785740e+003;3.099189e-002
3.787668e+003;3.071733e-002
3.789597e+003;3.097221e-002
3.791525e+003;3.119566e-002
3.793454e+003;3.140541e-002
3.795382e+003;3.108346e-002
3.797311e+003;3.054084e-002
3.799240e+003;3.092952e-002
3.801168e+003;3.143134e-002
3.803097e+003;3.151014e-002
3.805025e+003;3.118160e-002
3.806954e+003;3.112963e-002
3.808882e+003;3.144381e-002
3.810811e+003;3.123233e-002
3.812739e+003;3.101232e-002
3.814668e+003;3.113312e-002
3.816596e+003;3.111628e-002
3.818525e+003;3.121282e-002
3.820454e+003;3.099047e-002
3.822382e+003;3.072206e-002
3.824311e+003;3.089582e-002
3.826239e+003;3.123693e-002
3.828168e+003;3.146101e-002
3.830096e+003;3.149101e-002
3.832025e+003;3.147223e-002
3.833953e+003;3.170492e-002
3.835882e+003;3.183205e-002
3.837811e+003;3.157613e-002
3.839739e+003;3.139241e-002
3.841667e+003;3.154317e-002
3.843596e+003;3.187088e-002
3.845525e+003;3.184563e-002
3.847453e+003;3.215951e-002
3.849382e+003;3.249639e-002
3.851310e+003;3.221482e-002
3.853239e+003;3.146233e-002
3.855167e+003;3.141364e-002
3.857096e+003;3.224622e-002
3.859024e+003;3.282539e-002
3.860953e+003;3.289429e-002
3.862882e+003;3.295352e-002
3.864810e+003;3.310028e-002
3.866739e+003;3.308548e-002
3.868667e+003;3.282110e-002
3.870596e+003;3.309203e-002
3.872524e+003;3.343694e-002
3.874453e+003;3.333310e-002
3.876381e+003;3.366402e-002
3.878310e+003;3.368672e-002
3.880239e+003;3.336505e-002
3.882167e+003;3.369399e-002
3.884096e+003;3.391558e-002
3.886024e+003;3.388958e-002
3.887953e+003;3.398068e-002
3.889881e+003;3.373578e-002
3.891810e+003;3.368357e-002
3.893738e+003;3.372110e-002
3.895667e+003;3.425258e-002
3.897595e+003;3.467603e-002
3.899524e+003;3.459081e-002
3.901453e+003;3.444627e-002
3.903381e+003;3.455016e-002
3.905310e+003;3.485655e-002
3.907238e+003;3.486528e-002
3.909167e+003;3.489590e-002
3.911095e+003;3.496912e-002
3.913024e+003;3.467144e-002
3.914952e+003;3.480403e-002
3.916881e+003;3.549549e-002
3.918810e+003;3.605395e-002
3.920738e+003;3.592778e-002
3.922667e+003;3.591788e-002
3.924595e+003;3.615837e-002
3.926524e+003;3.623267e-002
3.928452e+003;3.625395e-002
3.930381e+003;3.625734e-002
3.932309e+003;3.644403e-002
3.934238e+003;3.661303e-002
3.936167e+003;3.643470e-002
3.938095e+003;3.610540e-002
3.940023e+003;3.639528e-002
3.941952e+003;3.671812e-002
3.943881e+003;3.664414e-002
3.945809e+003;3.685502e-002
3.947738e+003;3.691742e-002
3.949666e+003;3.674307e-002
3.951595e+003;3.659666e-002
3.953523e+003;3.702493e-002
3.955452e+003;3.721773e-002
3.957380e+003;3.698503e-002
3.959309e+003;3.698189e-002
3.961238e+003;3.703179e-002
3.963166e+003;3.726744e-002
3.965095e+003;3.732117e-002
3.967023e+003;3.747432e-002
3.968952e+003;3.753237e-002
3.970880e+003;3.741072e-002
3.972809e+003;3.758880e-002
3.974737e+003;3.791576e-002
3.976666e+003;3.799498e-002
3.978594e+003;3.840744e-002
3.980523e+003;3.900189e-002
3.982452e+003;3.834370e-002
3.984380e+003;3.751864e-002
3.986309e+003;3.759444e-002
3.988237e+003;3.789894e-002
3.990166e+003;3.784464e-002
3.992094e+003;3.790726e-002
3.994023e+003;3.820424e-002
3.995951e+003;3.832579e-002
3.997880e+003;3.766400e-002
3.999809e+003;3.743820e-002
4.001737e+003;0.000000e+000
