3.992094e+002;0.000000e+000
4.011380e+002;0.000000e+000
4.030665e+002;0.000000e+000
4.049951e+002;0.000000e+000
4.069236e+002;0.000000e+000
4.088522e+002;0.000000e+000
4.107807e+002;0.000000e+000
4.127093e+002;0.000000e+000
4.146378e+002;0.000000e+000
4.165664e+002;0.000000e+000
4.184949e+002;0.000000e+000
4.204235e+002;0.000000e+000
4.223520e+002;0.000000e+000
4.242806e+002;0.000000e+000
4.262091e+002;0.000000e+000
4.281377e+002;0.000000e+000
4.300662e+002;0.000000e+000
4.319948e+002;0.000000e+000
4.339233e+002;0.000000e+000
4.358519e+002;0.000000e+000
4.377804e+002;0.000000e+000
4.397090e+002;0.000000e+000
4.416375e+002;0.000000e+000
4.435660e+002;0.000000e+000
4.454946e+002;0.000000e+000
4.474232e+002;0.000000e+000
4.493517e+002;0.000000e+000
4.512802e+002;0.000000e+000
4.532088e+002;0.000000e+000
4.551373e+002;0.000000e+000
4.570659e+002;0.000000e+000
4.589944e+002;0.000000e+000
4.609230e+002;0.000000e+000
4.628515e+002;0.000000e+000
4.647801e+002;0.000000e+000
4.667086e+002;0.000000e+000
4.686372e+002;0.000000e+000
4.705657e+002;0.000000e+000
4.724943e+002;0.000000e+000
4.744228e+002;0.000000e+000
4.763513e+002;0.000000e+000
4.782799e+002;0.000000e+000
4.802085e+002;0.000000e+000
4.821370e+002;0.000000e+000
4.840656e+002;0.000000e+000
4.859941e+002;0.000000e+000
4.879226e+002;0.000000e+000
4.898512e+002;0.000000e+000
4.917798e+002;0.000000e+000
4.937083e+002;0.000000e+000
4.956368e+002;0.000000e+000
4.975654e+002;0.000000e+000
4.994939e+002;0.000000e+000
5.014225e+002;0.000000e+000
5.033510e+002;0.000000e+000
5.052796e+002;0.000000e+000
5.072081e+002;0.000000e+000
5.091367e+002;0.000000e+000
5.110652e+002;0.000000e+000
5.129938e+002;0.000000e+000
5.149223e+002;0.000000e+000
5.168509e+002;0.000000e+000
5.187794e+002;0.000000e+000
5.207079e+002;0.000000e+000
5.226365e+002;0.000000e+000
5.245651e+002;0.000000e+000
5.264936e+002;0.000000e+000
5.284222e+002;0.000000e+000
5.303507e+002;0.000000e+000
5.322792e+002;0.000000e+000
5.342078e+002;0.000000e+000
5.361364e+002;0.000000e+000
5.380649e+002;0.000000e+000
5.399935e+002;0.000000e+000
5.419220e+002;0.000000e+000
5.438505e+002;0.000000e+000
5.457791e+002;0.000000e+000
5.477076e+002;0.000000e+000
5.496362e+002;0.000000e+000
5.515648e+002;0.000000e+000
5.534933e+002;0.000000e+000
5.554218e+002;0.000000e+000
5.573504e+002;0.000000e+000
5.592789e+002;0.000000e+000
5.612075e+002;0.000000e+000
5.631360e+002;0.000000e+000
5.650646e+002;0.000000e+000
5.669931e+002;0.000000e+000
5.689217e+002;0.000000e+000
5.708502e+002;0.000000e+000
5.727787e+002;0.000000e+000
5.747073e+002;0.000000e+000
5.766359e+002;0.000000e+000
5.785644e+002;0.000000e+000
5.804930e+002;0.000000e+000
5.824215e+002;0.000000e+000
5.843500e+002;0.000000e+000
5.862786e+002;0.000000e+000
5.882072e+002;0.000000e+000
5.901357e+002;0.000000e+000
5.920643e+002;0.000000e+000
5.939928e+002;0.000000e+000
5.959213e+002;0.000000e+000
5.978499e+002;0.000000e+000
5.997784e+002;2.471125e-001
6.017070e+002;2.430023e-001
6.036355e+002;2.377682e-001
6.055641e+002;2.374740e-001
6.074926e+002;2.404668e-001
6.094211e+002;2.394665e-001
6.113497e+002;2.380788e-001
6.132783e+002;2.374406e-001
6.152068e+002;2.362305e-001
6.171354e+002;2.317253e-001
6.190639e+002;2.316759e-001
6.209924e+002;2.369665e-001
6.229210e+002;2.385798e-001
6.248495e+002;2.403661e-001
6.267781e+002;2.407445e-001
6.287067e+002;2.394766e-001
6.306352e+002;2.373594e-001
6.325637e+002;2.303234e-001
6.344923e+002;2.288473e-001
6.364208e+002;2.280081e-001
6.383494e+002;2.261230e-001
6.402780e+002;2.262996e-001
6.422065e+002;2.263780e-001
6.441350e+002;2.279200e-001
6.460636e+002;2.297339e-001
6.479921e+002;2.283802e-001
6.499207e+002;2.258693e-001
6.518492e+002;2.221943e-001
6.537778e+002;2.192833e-001
6.557063e+002;2.189795e-001
6.576349e+002;2.213756e-001
6.595634e+002;2.216438e-001
6.614919e+002;2.217539e-001
6.634205e+002;2.217208e-001
6.653491e+002;2.217348e-001
6.672776e+002;2.217033e-001
6.692062e+002;2.209986e-001
6.711347e+002;2.196099e-001
6.730632e+002;2.208623e-001
6.749918e+002;2.213602e-001
6.769203e+002;2.201517e-001
6.788489e+002;2.205135e-001
6.807775e+002;2.203441e-001
6.827060e+002;2.193269e-001
6.846345e+002;2.188984e-001
6.865631e+002;2.190672e-001
6.884916e+002;2.193867e-001
6.904202e+002;2.180604e-001
6.923488e+002;2.166598e-001
6.942773e+002;2.152248e-001
6.962058e+002;2.136249e-001
6.981344e+002;2.135832e-001
7.000629e+002;2.125678e-001
7.019915e+002;2.095372e-001
7.039200e+002;2.070285e-001
7.058486e+002;2.055450e-001
7.077771e+002;2.028000e-001
7.097057e+002;1.998953e-001
7.116342e+002;1.982523e-001
7.135627e+002;1.965649e-001
7.154913e+002;1.944272e-001
7.174199e+002;1.925240e-001
7.193484e+002;1.908365e-001
7.212770e+002;1.884913e-001
7.232055e+002;1.865431e-001
7.251340e+002;1.840398e-001
7.270626e+002;1.807906e-001
7.289911e+002;1.768671e-001
7.309197e+002;1.727363e-001
7.328483e+002;1.710502e-001
7.347768e+002;1.712353e-001
7.367053e+002;1.698762e-001
7.386339e+002;1.672158e-001
7.405624e+002;1.644492e-001
7.424910e+002;1.617145e-001
7.444196e+002;1.586113e-001
7.463481e+002;1.552498e-001
7.482766e+002;1.526355e-001
7.502052e+002;1.512434e-001
7.521337e+002;1.496827e-001
7.540623e+002;1.480397e-001
7.559908e+002;1.466368e-001
7.579194e+002;1.448139e-001
7.598479e+002;1.428852e-001
7.617765e+002;1.416048e-001
7.637050e+002;1.403659e-001
7.656335e+002;1.400898e-001
7.675621e+002;1.392265e-001
7.694907e+002;1.368511e-001
7.714192e+002;1.343797e-001
7.733478e+002;1.327283e-001
7.752763e+002;1.306848e-001
7.772048e+002;1.287398e-001
7.791334e+002;1.277675e-001
7.810620e+002;1.267558e-001
7.829905e+002;1.254504e-001
7.849191e+002;1.242514e-001
7.868476e+002;1.224861e-001
7.887761e+002;1.206794e-001
7.907047e+002;1.200612e-001
7.926332e+002;1.195885e-001
7.945618e+002;1.182103e-001
7.964903e+002;1.176342e-001
7.984189e+002;1.168341e-001
8.003474e+002;1.158990e-001
8.022759e+002;1.157909e-001
8.042045e+002;1.154293e-001
8.061331e+002;1.153149e-001
8.080616e+002;1.159798e-001
8.099902e+002;1.160888e-001
8.119187e+002;1.159635e-001
8.138472e+002;1.160795e-001
8.157758e+002;1.165697e-001
8.177043e+002;1.173985e-001
8.196329e+002;1.179256e-001
8.215615e+002;1.187761e-001
8.234900e+002;1.201034e-001
8.254185e+002;1.209350e-001
8.273471e+002;1.213555e-001
8.292756e+002;1.209272e-001
8.312042e+002;1.193692e-001
8.331328e+002;1.179985e-001
8.350613e+002;1.160624e-001
8.369898e+002;1.141840e-001
8.389184e+002;1.128675e-001
8.408469e+002;1.110322e-001
8.427755e+002;1.101654e-001
8.447040e+002;1.107827e-001
8.466326e+002;1.115940e-001
8.485611e+002;1.116717e-001
8.504897e+002;1.115331e-001
8.524182e+002;1.117752e-001
8.543467e+002;1.112270e-001
8.562753e+002;1.092330e-001
8.582039e+002;1.071829e-001
8.601324e+002;1.057605e-001
8.620610e+002;1.046323e-001
8.639895e+002;1.039529e-001
8.659180e+002;1.033837e-001
8.678466e+002;1.029911e-001
8.697751e+002;1.035597e-001
8.717037e+002;1.047435e-001
8.736323e+002;1.052211e-001
8.755608e+002;1.052428e-001
8.774893e+002;1.053239e-001
8.794179e+002;1.057022e-001
8.813464e+002;1.060180e-001
8.832750e+002;1.056755e-001
8.852036e+002;1.050280e-001
8.871321e+002;1.047968e-001
8.890606e+002;1.043068e-001
8.909892e+002;1.039743e-001
8.929177e+002;1.040308e-001
8.948463e+002;1.040132e-001
8.967748e+002;1.034597e-001
8.987034e+002;1.030642e-001
9.006319e+002;1.028844e-001
9.025605e+002;1.025609e-001
9.044890e+002;1.023357e-001
9.064175e+002;1.018993e-001
9.083461e+002;1.017903e-001
9.102747e+002;1.020594e-001
9.122032e+002;1.027816e-001
9.141318e+002;1.032779e-001
9.160603e+002;1.040310e-001
9.179888e+002;1.052135e-001
9.199174e+002;1.063775e-001
9.218459e+002;1.074135e-001
9.237745e+002;1.086610e-001
9.257031e+002;1.097337e-001
9.276316e+002;1.102351e-001
9.295601e+002;1.100784e-001
9.314887e+002;1.097191e-001
9.334172e+002;1.094565e-001
9.353458e+002;1.096017e-001
9.372744e+002;1.097444e-001
9.392029e+002;1.098809e-001
9.411314e+002;1.102051e-001
9.430600e+002;1.105924e-001
9.449885e+002;1.107963e-001
9.469171e+002;1.112955e-001
9.488456e+002;1.123004e-001
9.507742e+002;1.129963e-001
9.527027e+002;1.137198e-001
9.546313e+002;1.148519e-001
9.565598e+002;1.158512e-001
9.584883e+002;1.168581e-001
9.604169e+002;1.181963e-001
9.623455e+002;1.201255e-001
9.642740e+002;1.221509e-001
9.662026e+002;1.234555e-001
9.681311e+002;1.247085e-001
9.700596e+002;1.262697e-001
9.719882e+002;1.280967e-001
9.739167e+002;1.296748e-001
9.758453e+002;1.304529e-001
9.777739e+002;1.304028e-001
9.797024e+002;1.297219e-001
9.816309e+002;1.293338e-001
9.835595e+002;1.295798e-001
9.854880e+002;1.306379e-001
9.874166e+002;1.326385e-001
9.893452e+002;1.346462e-001
9.912737e+002;1.364540e-001
9.932022e+002;1.375508e-001
9.951307e+002;1.377758e-001
9.970593e+002;1.376632e-001
9.989879e+002;1.373941e-001
1.000916e+003;1.366465e-001
1.002845e+003;1.356687e-001
1.004773e+003;1.348688e-001
1.006702e+003;1.348439e-001
1.008631e+003;1.349837e-001
1.010559e+003;1.351462e-001
1.012488e+003;1.356080e-001
1.014416e+003;1.358146e-001
1.016345e+003;1.353430e-001
1.018273e+003;1.348713e-001
1.020202e+003;1.343678e-001
1.022130e+003;1.342524e-001
1.024059e+003;1.357306e-001
1.025988e+003;1.380914e-001
1.027916e+003;1.406048e-001
1.029845e+003;1.445046e-001
1.031773e+003;1.485464e-001
1.033702e+003;1.517943e-001
1.035630e+003;1.544879e-001
1.037559e+003;1.565985e-001
1.039487e+003;1.583595e-001
1.041416e+003;1.604811e-001
1.043344e+003;1.626763e-001
1.045273e+003;1.633621e-001
1.047202e+003;1.628770e-001
1.049130e+003;1.612877e-001
1.051059e+003;1.590120e-001
1.052987e+003;1.572267e-001
1.054916e+003;1.565279e-001
1.056844e+003;1.566060e-001
1.058773e+003;1.571080e-001
1.060701e+003;1.576449e-001
1.062630e+003;1.580097e-001
1.064558e+003;1.580813e-001
1.066487e+003;1.576546e-001
1.068416e+003;1.571277e-001
1.070344e+003;1.568404e-001
1.072273e+003;1.554686e-001
1.074201e+003;1.529714e-001
1.076130e+003;1.508768e-001
1.078058e+003;1.486003e-001
1.079987e+003;1.448939e-001
1.081915e+003;1.418882e-001
1.083844e+003;1.394826e-001
1.085773e+003;1.368273e-001
1.087701e+003;1.345820e-001
1.089630e+003;1.327068e-001
1.091558e+003;1.312000e-001
1.093487e+003;1.303528e-001
1.095415e+003;1.299732e-001
1.097344e+003;1.297379e-001
1.099272e+003;1.300706e-001
1.101201e+003;1.306980e-001
1.103129e+003;1.304617e-001
1.105058e+003;1.290273e-001
1.106987e+003;1.276035e-001
1.108915e+003;1.268534e-001
1.110844e+003;1.261397e-001
1.112772e+003;1.258671e-001
1.114701e+003;1.265838e-001
1.116629e+003;1.273100e-001
1.118558e+003;1.277117e-001
1.120486e+003;1.281166e-001
1.122415e+003;1.286488e-001
1.124344e+003;1.288777e-001
1.126272e+003;1.297881e-001
1.128201e+003;1.308946e-001
1.130129e+003;1.319087e-001
1.132058e+003;1.332874e-001
1.133986e+003;1.347785e-001
1.135915e+003;1.366618e-001
1.137843e+003;1.389805e-001
1.139772e+003;1.410991e-001
1.141700e+003;1.436977e-001
1.143629e+003;1.466285e-001
1.145557e+003;1.489105e-001
1.147486e+003;1.514244e-001
1.149415e+003;1.541628e-001
1.151343e+003;1.565561e-001
1.153272e+003;1.584547e-001
1.155200e+003;1.598305e-001
1.157129e+003;1.610610e-001
1.159057e+003;1.623858e-001
1.160986e+003;1.636821e-001
1.162914e+003;1.649395e-001
1.164843e+003;1.662991e-001
1.166771e+003;1.676713e-001
1.168700e+003;1.687159e-001
1.170629e+003;1.689102e-001
1.172557e+003;1.685825e-001
1.174486e+003;1.676859e-001
1.176414e+003;1.667483e-001
1.178343e+003;1.659395e-001
1.180271e+003;1.654954e-001
1.182200e+003;1.653518e-001
1.184128e+003;1.655862e-001
1.186057e+003;1.665794e-001
1.187986e+003;1.678953e-001
1.189914e+003;1.691129e-001
1.191843e+003;1.703515e-001
1.193771e+003;1.722869e-001
1.195700e+003;1.744716e-001
1.197628e+003;1.765255e-001
1.199557e+003;1.790197e-001
1.201485e+003;1.820267e-001
1.203414e+003;1.857545e-001
1.205343e+003;1.898445e-001
1.207271e+003;1.940963e-001
1.209200e+003;1.982611e-001
1.211128e+003;2.023619e-001
1.213057e+003;2.063044e-001
1.214985e+003;2.101783e-001
1.216914e+003;2.137480e-001
1.218842e+003;2.167382e-001
1.220771e+003;2.193372e-001
1.222699e+003;2.212621e-001
1.224628e+003;2.226223e-001
1.226557e+003;2.238372e-001
1.228485e+003;2.245201e-001
1.230414e+003;2.240884e-001
1.232342e+003;2.224775e-001
1.234271e+003;2.205257e-001
1.236199e+003;2.186034e-001
1.238128e+003;2.163090e-001
1.240056e+003;2.140331e-001
1.241985e+003;2.122518e-001
1.243913e+003;2.105638e-001
1.245842e+003;2.087647e-001
1.247771e+003;2.074251e-001
1.249699e+003;2.067650e-001
1.251628e+003;2.062299e-001
1.253556e+003;2.056692e-001
1.255485e+003;2.050801e-001
1.257413e+003;2.036999e-001
1.259342e+003;2.017424e-001
1.261270e+003;1.996571e-001
1.263199e+003;1.973002e-001
1.265127e+003;1.949158e-001
1.267056e+003;1.921269e-001
1.268985e+003;1.892067e-001
1.270913e+003;1.868382e-001
1.272842e+003;1.844212e-001
1.274770e+003;1.820624e-001
1.276699e+003;1.801891e-001
1.278627e+003;1.786448e-001
1.280556e+003;1.777138e-001
1.282484e+003;1.768207e-001
1.284413e+003;1.760030e-001
1.286342e+003;1.755799e-001
1.288270e+003;1.753013e-001
1.290199e+003;1.751097e-001
1.292127e+003;1.746988e-001
1.294056e+003;1.744755e-001
1.295984e+003;1.745509e-001
1.297913e+003;1.740754e-001
1.299841e+003;1.731475e-001
1.301770e+003;1.723435e-001
1.303698e+003;1.715495e-001
1.305627e+003;1.710225e-001
1.307556e+003;1.708856e-001
1.309484e+003;1.708139e-001
1.311413e+003;1.710475e-001
1.313341e+003;1.717438e-001
1.315270e+003;1.726012e-001
1.317198e+003;1.735160e-001
1.319127e+003;1.744541e-001
1.321055e+003;1.752361e-001
1.322984e+003;1.760922e-001
1.324912e+003;1.769615e-001
1.326841e+003;1.774015e-001
1.328770e+003;1.774303e-001
1.330698e+003;1.772592e-001
1.332627e+003;1.768536e-001
1.334555e+003;1.760550e-001
1.336484e+003;1.747754e-001
1.338412e+003;1.732589e-001
1.340341e+003;1.720550e-001
1.342269e+003;1.710625e-001
1.344198e+003;1.698211e-001
1.346126e+003;1.686852e-001
1.348055e+003;1.678776e-001
1.349984e+003;1.670637e-001
1.351912e+003;1.665471e-001
1.353841e+003;1.666927e-001
1.355769e+003;1.671487e-001
1.357698e+003;1.681582e-001
1.359626e+003;1.701716e-001
1.361555e+003;1.726005e-001
1.363483e+003;1.751817e-001
1.365412e+003;1.777640e-001
1.367341e+003;1.796042e-001
1.369269e+003;1.805053e-001
1.371198e+003;1.802533e-001
1.373126e+003;1.795379e-001
1.375055e+003;1.790318e-001
1.376983e+003;1.790904e-001
1.378912e+003;1.795803e-001
1.380840e+003;1.802303e-001
1.382769e+003;1.806321e-001
1.384698e+003;1.809954e-001
1.386626e+003;1.816177e-001
1.388555e+003;1.821670e-001
1.390483e+003;1.826980e-001
1.392412e+003;1.835820e-001
1.394340e+003;1.846499e-001
1.396269e+003;1.859514e-001
1.398197e+003;1.874435e-001
1.400126e+003;1.888181e-001
1.402054e+003;1.902093e-001
1.403983e+003;1.912501e-001
1.405911e+003;1.919733e-001
1.407840e+003;1.925888e-001
1.409769e+003;1.930101e-001
1.411697e+003;1.934932e-001
1.413626e+003;1.938601e-001
1.415554e+003;1.938220e-001
1.417483e+003;1.937499e-001
1.419411e+003;1.941359e-001
1.421340e+003;1.949301e-001
1.423268e+003;1.958575e-001
1.425197e+003;1.977307e-001
1.427125e+003;2.008629e-001
1.429054e+003;2.048192e-001
1.430983e+003;2.099632e-001
1.432911e+003;2.157946e-001
1.434840e+003;2.211782e-001
1.436768e+003;2.253073e-001
1.438697e+003;2.280756e-001
1.440625e+003;2.294317e-001
1.442554e+003;2.299427e-001
1.444482e+003;2.297000e-001
1.446411e+003;2.282023e-001
1.448340e+003;2.254556e-001
1.450268e+003;2.218520e-001
1.452197e+003;2.178756e-001
1.454125e+003;2.133663e-001
1.456054e+003;2.085763e-001
1.457982e+003;2.047624e-001
1.459911e+003;2.018096e-001
1.461839e+003;1.992214e-001
1.463768e+003;1.969726e-001
1.465697e+003;1.954755e-001
1.467625e+003;1.951194e-001
1.469554e+003;1.952968e-001
1.471482e+003;1.957258e-001
1.473411e+003;1.970585e-001
1.475339e+003;1.993838e-001
1.477268e+003;2.025340e-001
1.479196e+003;2.067956e-001
1.481125e+003;2.122021e-001
1.483053e+003;2.183211e-001
1.484982e+003;2.249750e-001
1.486911e+003;2.323669e-001
1.488839e+003;2.406961e-001
1.490768e+003;2.498425e-001
1.492696e+003;2.592743e-001
1.494625e+003;2.686579e-001
1.496553e+003;2.778414e-001
1.498482e+003;2.867700e-001
1.500410e+003;2.949685e-001
1.502339e+003;3.021181e-001
1.504267e+003;3.084905e-001
1.506196e+003;3.148945e-001
1.508125e+003;3.214630e-001
1.510053e+003;3.272527e-001
1.511982e+003;3.314753e-001
1.513910e+003;3.331019e-001
1.515839e+003;3.310091e-001
1.517767e+003;3.258612e-001
1.519696e+003;3.197289e-001
1.521624e+003;3.131444e-001
1.523553e+003;3.072200e-001
1.525481e+003;3.022459e-001
1.527410e+003;2.975303e-001
1.529339e+003;2.923210e-001
1.531267e+003;2.873484e-001
1.533196e+003;2.823242e-001
1.535124e+003;2.774010e-001
1.537053e+003;2.724153e-001
1.538981e+003;2.669831e-001
1.540910e+003;2.621517e-001
1.542838e+003;2.580467e-001
1.544767e+003;2.536740e-001
1.546695e+003;2.490551e-001
1.548624e+003;2.444762e-001
1.550553e+003;2.397213e-001
1.552481e+003;2.348648e-001
1.554410e+003;2.299262e-001
1.556338e+003;2.250959e-001
1.558267e+003;2.199010e-001
1.560195e+003;2.145165e-001
1.562124e+003;2.098369e-001
1.564052e+003;2.051242e-001
1.565981e+003;2.003958e-001
1.567910e+003;1.961900e-001
1.569838e+003;1.925450e-001
1.571767e+003;1.898416e-001
1.573695e+003;1.877320e-001
1.575624e+003;1.862055e-001
1.577552e+003;1.859653e-001
1.579481e+003;1.867021e-001
1.581409e+003;1.878275e-001
1.583338e+003;1.895726e-001
1.585266e+003;1.920451e-001
1.587195e+003;1.954881e-001
1.589124e+003;1.996096e-001
1.591052e+003;2.042071e-001
1.592981e+003;2.093627e-001
1.594909e+003;2.151877e-001
1.596838e+003;2.215547e-001
1.598766e+003;2.287356e-001
1.600695e+003;2.371673e-001
1.602623e+003;2.474907e-001
1.604552e+003;2.593600e-001
1.606480e+003;2.722938e-001
1.608409e+003;2.860479e-001
1.610338e+003;2.995189e-001
1.612266e+003;3.118380e-001
1.614195e+003;3.231076e-001
1.616123e+003;3.332233e-001
1.618052e+003;3.413724e-001
1.619980e+003;3.461243e-001
1.621909e+003;3.472785e-001
1.623837e+003;3.455270e-001
1.625766e+003;3.416068e-001
1.627694e+003;3.355680e-001
1.629623e+003;3.278140e-001
1.631552e+003;3.192148e-001
1.633480e+003;3.102649e-001
1.635409e+003;3.014855e-001
1.637337e+003;2.936260e-001
1.639266e+003;2.863245e-001
1.641194e+003;2.795781e-001
1.643123e+003;2.731850e-001
1.645051e+003;2.668042e-001
1.646980e+003;2.607658e-001
1.648909e+003;2.549957e-001
1.650837e+003;2.491563e-001
1.652766e+003;2.429026e-001
1.654694e+003;2.373414e-001
1.656623e+003;2.321083e-001
1.658551e+003;2.260897e-001
1.660480e+003;2.201580e-001
1.662408e+003;2.141163e-001
1.664337e+003;2.083153e-001
1.666266e+003;2.034264e-001
1.668194e+003;1.983032e-001
1.670123e+003;1.928367e-001
1.672051e+003;1.880029e-001
1.673980e+003;1.832571e-001
1.675908e+003;1.783105e-001
1.677837e+003;1.738899e-001
1.679765e+003;1.697028e-001
1.681694e+003;1.654846e-001
1.683622e+003;1.613247e-001
1.685551e+003;1.577508e-001
1.687479e+003;1.550938e-001
1.689408e+003;1.526468e-001
1.691337e+003;1.503543e-001
1.693265e+003;1.486344e-001
1.695194e+003;1.472649e-001
1.697122e+003;1.461938e-001
1.699051e+003;1.437730e-001
1.700979e+003;1.385405e-001
1.702908e+003;1.307056e-001
1.704836e+003;1.205006e-001
1.706765e+003;1.101136e-001
1.708693e+003;1.016361e-001
1.710622e+003;9.514128e-002
1.712551e+003;9.011248e-002
1.714479e+003;8.605517e-002
1.716408e+003;8.250881e-002
1.718336e+003;7.995862e-002
1.720265e+003;7.829809e-002
1.722193e+003;7.705570e-002
1.724122e+003;7.613225e-002
1.726050e+003;7.510179e-002
1.727979e+003;7.398190e-002
1.729908e+003;7.334834e-002
1.731836e+003;7.283515e-002
1.733765e+003;7.217818e-002
1.735693e+003;7.189184e-002
1.737622e+003;7.166670e-002
1.739550e+003;7.117017e-002
1.741479e+003;7.090064e-002
1.743407e+003;7.044081e-002
1.745336e+003;7.004113e-002
1.747265e+003;6.977114e-002
1.749193e+003;6.942853e-002
1.751122e+003;6.914100e-002
1.753050e+003;6.895793e-002
1.754979e+003;6.871884e-002
1.756907e+003;6.866257e-002
1.758836e+003;6.877106e-002
1.760764e+003;6.863750e-002
1.762693e+003;6.845091e-002
1.764621e+003;6.844068e-002
1.766550e+003;6.827651e-002
1.768479e+003;6.797661e-002
1.770407e+003;6.782199e-002
1.772336e+003;6.769601e-002
1.774264e+003;6.764939e-002
1.776193e+003;6.768428e-002
1.778121e+003;6.747558e-002
1.780050e+003;6.732602e-002
1.781978e+003;6.730249e-002
1.783907e+003;6.721178e-002
1.785835e+003;6.719271e-002
1.787764e+003;6.707449e-002
1.789693e+003;6.677414e-002
1.791621e+003;6.650984e-002
1.793550e+003;6.645674e-002
1.795478e+003;6.644620e-002
1.797407e+003;6.620143e-002
1.799335e+003;6.620286e-002
1.801264e+003;6.633285e-002
1.803192e+003;6.617523e-002
1.805121e+003;6.579311e-002
1.807049e+003;6.566247e-002
1.808978e+003;6.550995e-002
1.810907e+003;6.531084e-002
1.812835e+003;6.518396e-002
1.814764e+003;6.507691e-002
1.816692e+003;6.489931e-002
1.818621e+003;6.477948e-002
1.820549e+003;6.463846e-002
1.822478e+003;6.442610e-002
1.824406e+003;6.435209e-002
1.826335e+003;6.439059e-002
1.828264e+003;6.419111e-002
1.830192e+003;6.397215e-002
1.832121e+003;6.383295e-002
1.834049e+003;6.365357e-002
1.835978e+003;6.345776e-002
1.837906e+003;6.330156e-002
1.839835e+003;6.310001e-002
1.841763e+003;6.282511e-002
1.843692e+003;6.261773e-002
1.845620e+003;6.258007e-002
1.847549e+003;6.249761e-002
1.849478e+003;6.245579e-002
1.851406e+003;6.244007e-002
1.853335e+003;6.236352e-002
1.855263e+003;6.223639e-002
1.857192e+003;6.212116e-002
1.859120e+003;6.206833e-002
1.861049e+003;6.224573e-002
1.862977e+003;6.227196e-002
1.864906e+003;6.193108e-002
1.866834e+003;6.183870e-002
1.868763e+003;6.203691e-002
1.870692e+003;6.211324e-002
1.872620e+003;6.203955e-002
1.874549e+003;6.199418e-002
1.876477e+003;6.200228e-002
1.878406e+003;6.196620e-002
1.880334e+003;6.211206e-002
1.882263e+003;6.211030e-002
1.884191e+003;6.202919e-002
1.886120e+003;6.207238e-002
1.888048e+003;6.187179e-002
1.889977e+003;6.156623e-002
1.891906e+003;6.170508e-002
1.893834e+003;6.190017e-002
1.895763e+003;6.167319e-002
1.897691e+003;6.142667e-002
1.899620e+003;6.114039e-002
1.901548e+003;6.099249e-002
1.903477e+003;6.103749e-002
1.905405e+003;6.103589e-002
1.907334e+003;6.102399e-002
1.909262e+003;6.103570e-002
1.911191e+003;6.097160e-002
1.913120e+003;6.082666e-002
1.915048e+003;6.081759e-002
1.916977e+003;6.080989e-002
1.918905e+003;6.091738e-002
1.920834e+003;6.092486e-002
1.922762e+003;6.068733e-002
1.924691e+003;6.063887e-002
1.926619e+003;6.063030e-002
1.928548e+003;6.077909e-002
1.930477e+003;6.104496e-002
1.932405e+003;6.109317e-002
1.934334e+003;6.084297e-002
1.936262e+003;6.065746e-002
1.938191e+003;6.072525e-002
1.940119e+003;6.065373e-002
1.942048e+003;6.054077e-002
1.943976e+003;6.073066e-002
1.945905e+003;6.084545e-002
1.947833e+003;6.097179e-002
1.949762e+003;6.092867e-002
1.951691e+003;6.082018e-002
1.953619e+003;6.099242e-002
1.955548e+003;6.088265e-002
1.957476e+003;6.072380e-002
1.959405e+003;6.080825e-002
1.961333e+003;6.091651e-002
1.963262e+003;6.092554e-002
1.965190e+003;6.097171e-002
1.967119e+003;6.102860e-002
1.969047e+003;6.090381e-002
1.970976e+003;6.072761e-002
1.972905e+003;6.077033e-002
1.974833e+003;6.078447e-002
1.976762e+003;6.072818e-002
1.978690e+003;6.060427e-002
1.980619e+003;6.038307e-002
1.982547e+003;6.041544e-002
1.984476e+003;6.055003e-002
1.986404e+003;6.051948e-002
1.988333e+003;6.057948e-002
1.990261e+003;6.059323e-002
1.992190e+003;6.058001e-002
1.994119e+003;6.042001e-002
1.996047e+003;6.006970e-002
1.997976e+003;6.012118e-002
1.999904e+003;6.027959e-002
2.001833e+003;6.009359e-002
2.003761e+003;6.011171e-002
2.005690e+003;6.028530e-002
2.007618e+003;6.028686e-002
2.009547e+003;6.016567e-002
2.011476e+003;6.013343e-002
2.013404e+003;6.013766e-002
2.015333e+003;6.018264e-002
2.017261e+003;6.032093e-002
2.019190e+003;6.042888e-002
2.021118e+003;6.039640e-002
2.023047e+003;6.037001e-002
2.024975e+003;6.049876e-002
2.026904e+003;6.058123e-002
2.028833e+003;6.031298e-002
2.030761e+003;6.022706e-002
2.032690e+003;6.034317e-002
2.034618e+003;6.052843e-002
2.036547e+003;6.052957e-002
2.038475e+003;6.042160e-002
2.040404e+003;6.040900e-002
2.042332e+003;6.029626e-002
2.044261e+003;6.019909e-002
2.046189e+003;6.019756e-002
2.048118e+003;6.020902e-002
2.050047e+003;6.029158e-002
2.051975e+003;6.038753e-002
2.053904e+003;6.030669e-002
2.055832e+003;6.024012e-002
2.057761e+003;6.028283e-002
2.059689e+003;6.039122e-002
2.061618e+003;6.040519e-002
2.063546e+003;6.027061e-002
2.065475e+003;6.016753e-002
2.067404e+003;6.026596e-002
2.069332e+003;6.019962e-002
2.071260e+003;6.017998e-002
2.073189e+003;6.047424e-002
2.075118e+003;6.052988e-002
2.077046e+003;6.038333e-002
2.078975e+003;6.035744e-002
2.080903e+003;6.054005e-002
2.082832e+003;6.075471e-002
2.084760e+003;6.071736e-002
2.086689e+003;6.058816e-002
2.088617e+003;6.045135e-002
2.090546e+003;6.039179e-002
2.092475e+003;6.045138e-002
2.094403e+003;6.044434e-002
2.096332e+003;6.057970e-002
2.098260e+003;6.067742e-002
2.100189e+003;6.060184e-002
2.102117e+003;6.066687e-002
2.104046e+003;6.084164e-002
2.105974e+003;6.065559e-002
2.107903e+003;6.045771e-002
2.109832e+003;6.060763e-002
2.111760e+003;6.076408e-002
2.113688e+003;6.094217e-002
2.115617e+003;6.083638e-002
2.117546e+003;6.054287e-002
2.119474e+003;6.051224e-002
2.121403e+003;6.055902e-002
2.123331e+003;6.044693e-002
2.125260e+003;6.044583e-002
2.127188e+003;6.059635e-002
2.129117e+003;6.059319e-002
2.131045e+003;6.038859e-002
2.132974e+003;6.040961e-002
2.134903e+003;6.067636e-002
2.136831e+003;6.062584e-002
2.138760e+003;6.034869e-002
2.140688e+003;6.022679e-002
2.142617e+003;6.029055e-002
2.144545e+003;6.024111e-002
2.146474e+003;6.019242e-002
2.148402e+003;6.023780e-002
2.150331e+003;6.020559e-002
2.152260e+003;6.014112e-002
2.154188e+003;6.018367e-002
2.156117e+003;6.028435e-002
2.158045e+003;6.015186e-002
2.159974e+003;5.996899e-002
2.161902e+003;6.001518e-002
2.163831e+003;5.995256e-002
2.165759e+003;5.994248e-002
2.167688e+003;6.012141e-002
2.169616e+003;6.032345e-002
2.171545e+003;6.022774e-002
2.173474e+003;6.005311e-002
2.175402e+003;6.005787e-002
2.177331e+003;6.009386e-002
2.179259e+003;6.013481e-002
2.181188e+003;6.011962e-002
2.183116e+003;6.025466e-002
2.185045e+003;6.052885e-002
2.186973e+003;6.051407e-002
2.188902e+003;6.024856e-002
2.190831e+003;6.015924e-002
2.192759e+003;6.013625e-002
2.194688e+003;5.992852e-002
2.196616e+003;6.003051e-002
2.198545e+003;6.024746e-002
2.200473e+003;6.018832e-002
2.202402e+003;5.999056e-002
2.204330e+003;5.986664e-002
2.206259e+003;5.990406e-002
2.208188e+003;5.991711e-002
2.210116e+003;5.990296e-002
2.212044e+003;5.988676e-002
2.213973e+003;5.992065e-002
2.215902e+003;5.978515e-002
2.217830e+003;5.960518e-002
2.219759e+003;5.965334e-002
2.221687e+003;5.983941e-002
2.223616e+003;5.990102e-002
2.225544e+003;5.978496e-002
2.227473e+003;5.959465e-002
2.229401e+003;5.969956e-002
2.231330e+003;5.973374e-002
2.233259e+003;5.958861e-002
2.235187e+003;5.961879e-002
2.237116e+003;5.950842e-002
2.239044e+003;5.944504e-002
2.240973e+003;5.942008e-002
2.242901e+003;5.927953e-002
2.244830e+003;5.918250e-002
2.246758e+003;5.920267e-002
2.248687e+003;5.915144e-002
2.250615e+003;5.928253e-002
2.252544e+003;5.932724e-002
2.254473e+003;5.917909e-002
2.256401e+003;5.925310e-002
2.258330e+003;5.931090e-002
2.260258e+003;5.915338e-002
2.262187e+003;5.887417e-002
2.264115e+003;5.889785e-002
2.266044e+003;5.908743e-002
2.267972e+003;5.917848e-002
2.269901e+003;5.916481e-002
2.271830e+003;5.912954e-002
2.273758e+003;5.915718e-002
2.275687e+003;5.925374e-002
2.277615e+003;5.938083e-002
2.279544e+003;5.934570e-002
2.281472e+003;5.922389e-002
2.283401e+003;5.914468e-002
2.285329e+003;5.915460e-002
2.287258e+003;5.923988e-002
2.289187e+003;5.941096e-002
2.291115e+003;5.946111e-002
2.293043e+003;5.944253e-002
2.294972e+003;5.943611e-002
2.296901e+003;5.954695e-002
2.298829e+003;5.963999e-002
2.300758e+003;5.932062e-002
2.302686e+003;5.898472e-002
2.304615e+003;5.916724e-002
2.306543e+003;5.940785e-002
2.308472e+003;5.957591e-002
2.310400e+003;5.941863e-002
2.312329e+003;5.914769e-002
2.314258e+003;5.916447e-002
2.316186e+003;5.926924e-002
2.318115e+003;5.933643e-002
2.320043e+003;5.939113e-002
2.321972e+003;5.939508e-002
2.323900e+003;5.934342e-002
2.325829e+003;5.916249e-002
2.327757e+003;5.896737e-002
2.329686e+003;5.910584e-002
2.331615e+003;5.917726e-002
2.333543e+003;5.913470e-002
2.335472e+003;5.921254e-002
2.337400e+003;5.926859e-002
2.339329e+003;5.910562e-002
2.341257e+003;5.906500e-002
2.343186e+003;5.929609e-002
2.345114e+003;5.909563e-002
2.347043e+003;5.880819e-002
2.348971e+003;5.897007e-002
2.350900e+003;5.897007e-002
2.352829e+003;5.893485e-002
2.354757e+003;5.907551e-002
2.356686e+003;5.902734e-002
2.358614e+003;5.893048e-002
2.360543e+003;5.889561e-002
2.362471e+003;5.902704e-002
2.364400e+003;5.928116e-002
2.366328e+003;5.929784e-002
2.368257e+003;5.924231e-002
2.370186e+003;5.942122e-002
2.372114e+003;5.962901e-002
2.374042e+003;5.954843e-002
2.375971e+003;5.953840e-002
2.377900e+003;5.958105e-002
2.379828e+003;5.973701e-002
2.381757e+003;5.990813e-002
2.383685e+003;5.974180e-002
2.385614e+003;5.949280e-002
2.387542e+003;5.952244e-002
2.389471e+003;5.956808e-002
2.391399e+003;5.968234e-002
2.393328e+003;6.009580e-002
2.395257e+003;6.035234e-002
2.397185e+003;6.056332e-002
2.399114e+003;6.069411e-002
2.401042e+003;6.077517e-002
2.402971e+003;6.068108e-002
2.404899e+003;6.055003e-002
2.406828e+003;6.065514e-002
2.408756e+003;6.088014e-002
2.410685e+003;6.085407e-002
2.412614e+003;6.095799e-002
2.414542e+003;6.137171e-002
2.416471e+003;6.175049e-002
2.418399e+003;6.203274e-002
2.420328e+003;6.229529e-002
2.422256e+003;6.235366e-002
2.424185e+003;6.238972e-002
2.426113e+003;6.268074e-002
2.428042e+003;6.285322e-002
2.429970e+003;6.288052e-002
2.431899e+003;6.305101e-002
2.433828e+003;6.318608e-002
2.435756e+003;6.320474e-002
2.437685e+003;6.321926e-002
2.439613e+003;6.339820e-002
2.441542e+003;6.353530e-002
2.443470e+003;6.354282e-002
2.445399e+003;6.348575e-002
2.447327e+003;6.352514e-002
2.449256e+003;6.364739e-002
2.451185e+003;6.357323e-002
2.453113e+003;6.344476e-002
2.455042e+003;6.367083e-002
2.456970e+003;6.374058e-002
2.458899e+003;6.352111e-002
2.460827e+003;6.373917e-002
2.462756e+003;6.371261e-002
2.464684e+003;6.365234e-002
2.466613e+003;6.380302e-002
2.468542e+003;6.380685e-002
2.470470e+003;6.386416e-002
2.472398e+003;6.413765e-002
2.474327e+003;6.451635e-002
2.476256e+003;6.440954e-002
2.478184e+003;6.401814e-002
2.480113e+003;6.408895e-002
2.482041e+003;6.442234e-002
2.483970e+003;6.443771e-002
2.485898e+003;6.433495e-002
2.487827e+003;6.434379e-002
2.489755e+003;6.446081e-002
2.491684e+003;6.459493e-002
2.493613e+003;6.463668e-002
2.495541e+003;6.476682e-002
2.497470e+003;6.476355e-002
2.499398e+003;6.471683e-002
2.501327e+003;6.481372e-002
2.503255e+003;6.490708e-002
2.505184e+003;6.515917e-002
2.507112e+003;6.537843e-002
2.509041e+003;6.522077e-002
2.510969e+003;6.495595e-002
2.512898e+003;6.516972e-002
2.514827e+003;6.554043e-002
2.516755e+003;6.551631e-002
2.518684e+003;6.521796e-002
2.520612e+003;6.525096e-002
2.522541e+003;6.552343e-002
2.524469e+003;6.544022e-002
2.526398e+003;6.552293e-002
2.528326e+003;6.580178e-002
2.530255e+003;6.578093e-002
2.532184e+003;6.563025e-002
2.534112e+003;6.569007e-002
2.536041e+003;6.585507e-002
2.537969e+003;6.594886e-002
2.539898e+003;6.591333e-002
2.541826e+003;6.586074e-002
2.543755e+003;6.579230e-002
2.545683e+003;6.603272e-002
2.547612e+003;6.666008e-002
2.549541e+003;6.687926e-002
2.551469e+003;6.670880e-002
2.553397e+003;6.662806e-002
2.555326e+003;6.681916e-002
2.557255e+003;6.723777e-002
2.559183e+003;6.746296e-002
2.561112e+003;6.759592e-002
2.563040e+003;6.766979e-002
2.564969e+003;6.788061e-002
2.566897e+003;6.803869e-002
2.568826e+003;6.801916e-002
2.570754e+003;6.810671e-002
2.572683e+003;6.821944e-002
2.574612e+003;6.824921e-002
2.576540e+003;6.844393e-002
2.578469e+003;6.861371e-002
2.580397e+003;6.880487e-002
2.582326e+003;6.899421e-002
2.584254e+003;6.908735e-002
2.586183e+003;6.934270e-002
2.588111e+003;6.958963e-002
2.590040e+003;6.971523e-002
2.591969e+003;6.998663e-002
2.593897e+003;7.013065e-002
2.595826e+003;7.005849e-002
2.597754e+003;7.011884e-002
2.599683e+003;7.025177e-002
2.601611e+003;7.052409e-002
2.603540e+003;7.070209e-002
2.605468e+003;7.066283e-002
2.607397e+003;7.072334e-002
2.609325e+003;7.076335e-002
2.611254e+003;7.075965e-002
2.613183e+003;7.081253e-002
2.615111e+003;7.085048e-002
2.617040e+003;7.111240e-002
2.618968e+003;7.132274e-002
2.620897e+003;7.121034e-002
2.622825e+003;7.128292e-002
2.624754e+003;7.138748e-002
2.626682e+003;7.121108e-002
2.628611e+003;7.120620e-002
2.630540e+003;7.151634e-002
2.632468e+003;7.148892e-002
2.634396e+003;7.120167e-002
2.636325e+003;7.103412e-002
2.638254e+003;7.115346e-002
2.640182e+003;7.110003e-002
2.642111e+003;7.091184e-002
2.644039e+003;7.105491e-002
2.645968e+003;7.121108e-002
2.647896e+003;7.110292e-002
2.649825e+003;7.107978e-002
2.651753e+003;7.118157e-002
2.653682e+003;7.131134e-002
2.655611e+003;7.159358e-002
2.657539e+003;7.174079e-002
2.659468e+003;7.169221e-002
2.661396e+003;7.170546e-002
2.663325e+003;7.185239e-002
2.665253e+003;7.196590e-002
2.667182e+003;7.205100e-002
2.669110e+003;7.202214e-002
2.671039e+003;7.222795e-002
2.672968e+003;7.233518e-002
2.674896e+003;7.232242e-002
2.676825e+003;7.258829e-002
2.678753e+003;7.275569e-002
2.680682e+003;7.253906e-002
2.682610e+003;7.259816e-002
2.684539e+003;7.284268e-002
2.686467e+003;7.294739e-002
2.688396e+003;7.312067e-002
2.690324e+003;7.332849e-002
2.692253e+003;7.344297e-002
2.694182e+003;7.357613e-002
2.696110e+003;7.374926e-002
2.698039e+003;7.375621e-002
2.699967e+003;7.387053e-002
2.701896e+003;7.398327e-002
2.703824e+003;7.406335e-002
2.705753e+003;7.433391e-002
2.707681e+003;7.442266e-002
2.709610e+003;7.443037e-002
2.711539e+003;7.461533e-002
2.713467e+003;7.489815e-002
2.715396e+003;7.502979e-002
2.717324e+003;7.539155e-002
2.719253e+003;7.564002e-002
2.721181e+003;7.560318e-002
2.723110e+003;7.566182e-002
2.725038e+003;7.587292e-002
2.726967e+003;7.603769e-002
2.728896e+003;7.604050e-002
2.730824e+003;7.602131e-002
2.732752e+003;7.615696e-002
2.734681e+003;7.628819e-002
2.736610e+003;7.639907e-002
2.738538e+003;7.662981e-002
2.740467e+003;7.674683e-002
2.742395e+003;7.701827e-002
2.744324e+003;7.734130e-002
2.746252e+003;7.731197e-002
2.748181e+003;7.739119e-002
2.750109e+003;7.755948e-002
2.752038e+003;7.765729e-002
2.753967e+003;7.762758e-002
2.755895e+003;7.791657e-002
2.757824e+003;7.822278e-002
2.759752e+003;7.826119e-002
2.761681e+003;7.835122e-002
2.763609e+003;7.870893e-002
2.765538e+003;7.898232e-002
2.767466e+003;7.879624e-002
2.769395e+003;7.875235e-002
2.771323e+003;7.907747e-002
2.773252e+003;7.923969e-002
2.775181e+003;7.941465e-002
2.777109e+003;7.961341e-002
2.779038e+003;7.964405e-002
2.780966e+003;7.947023e-002
2.782895e+003;7.944711e-002
2.784823e+003;7.967980e-002
2.786752e+003;7.999092e-002
2.788680e+003;8.022091e-002
2.790609e+003;8.034591e-002
2.792538e+003;8.024789e-002
2.794466e+003;8.021338e-002
2.796395e+003;8.051116e-002
2.798323e+003;8.080332e-002
2.800252e+003;8.063857e-002
2.802180e+003;8.057833e-002
2.804109e+003;8.075356e-002
2.806037e+003;8.083010e-002
2.807966e+003;8.112998e-002
2.809895e+003;8.163803e-002
2.811823e+003;8.166090e-002
2.813751e+003;8.149019e-002
2.815680e+003;8.164075e-002
2.817609e+003;8.181201e-002
2.819537e+003;8.169174e-002
2.821466e+003;8.163416e-002
2.823394e+003;8.176117e-002
2.825323e+003;8.192207e-002
2.827251e+003;8.223492e-002
2.829180e+003;8.248489e-002
2.831108e+003;8.271753e-002
2.833037e+003;8.274563e-002
2.834966e+003;8.293569e-002
2.836894e+003;8.338338e-002
2.838823e+003;8.383729e-002
2.840751e+003;8.420292e-002
2.842680e+003;8.493298e-002
2.844608e+003;8.562005e-002
2.846537e+003;8.597224e-002
2.848465e+003;8.652170e-002
2.850394e+003;8.700254e-002
2.852323e+003;8.733248e-002
2.854251e+003;8.768250e-002
2.856180e+003;8.789547e-002
2.858108e+003;8.791827e-002
2.860037e+003;8.810168e-002
2.861965e+003;8.852434e-002
2.863894e+003;8.851487e-002
2.865822e+003;8.860909e-002
2.867751e+003;8.954275e-002
2.869679e+003;9.030437e-002
2.871608e+003;9.053687e-002
2.873536e+003;9.071351e-002
2.875465e+003;9.072123e-002
2.877394e+003;9.067599e-002
2.879322e+003;9.058707e-002
2.881251e+003;9.034337e-002
2.883179e+003;9.038254e-002
2.885108e+003;9.045248e-002
2.887036e+003;9.029870e-002
2.888965e+003;9.025346e-002
2.890893e+003;9.048075e-002
2.892822e+003;9.076332e-002
2.894750e+003;9.080976e-002
2.896679e+003;9.086796e-002
2.898608e+003;9.128123e-002
2.900536e+003;9.178673e-002
2.902465e+003;9.215162e-002
2.904393e+003;9.263008e-002
2.906322e+003;9.297164e-002
2.908250e+003;9.344982e-002
2.910179e+003;9.448665e-002
2.912107e+003;9.530717e-002
2.914036e+003;9.564539e-002
2.915965e+003;9.624697e-002
2.917893e+003;9.701564e-002
2.919822e+003;9.790019e-002
2.921750e+003;9.860884e-002
2.923679e+003;9.919056e-002
2.925607e+003;9.966501e-002
2.927536e+003;1.000675e-001
2.929464e+003;1.003446e-001
2.931393e+003;1.005346e-001
2.933322e+003;1.004089e-001
2.935250e+003;1.003989e-001
2.937178e+003;1.002388e-001
2.939107e+003;9.975734e-002
2.941036e+003;9.919047e-002
2.942964e+003;9.825585e-002
2.944893e+003;9.748735e-002
2.946821e+003;9.706581e-002
2.948750e+003;9.666704e-002
2.950678e+003;9.610151e-002
2.952607e+003;9.562330e-002
2.954535e+003;9.530928e-002
2.956464e+003;9.509248e-002
2.958393e+003;9.517300e-002
2.960321e+003;9.510873e-002
2.962250e+003;9.516846e-002
2.964178e+003;9.557506e-002
2.966107e+003;9.596717e-002
2.968035e+003;9.619135e-002
2.969964e+003;9.605905e-002
2.971892e+003;9.611581e-002
2.973821e+003;9.633569e-002
2.975750e+003;9.623568e-002
2.977678e+003;9.621567e-002
2.979607e+003;9.624962e-002
2.981535e+003;9.562239e-002
2.983464e+003;9.505334e-002
2.985392e+003;9.482625e-002
2.987321e+003;9.441767e-002
2.989249e+003;9.417938e-002
2.991178e+003;9.342783e-002
2.993106e+003;9.242979e-002
2.995035e+003;9.214199e-002
2.996964e+003;9.224659e-002
2.998892e+003;9.208125e-002
3.000821e+003;9.171575e-002
3.002749e+003;9.123147e-002
3.004678e+003;9.105540e-002
3.006606e+003;9.114756e-002
3.008535e+003;9.135924e-002
3.010463e+003;9.135351e-002
3.012392e+003;9.107902e-002
3.014321e+003;9.093818e-002
3.016249e+003;9.126287e-002
3.018177e+003;9.175312e-002
3.020106e+003;9.212090e-002
3.022035e+003;9.242163e-002
3.023963e+003;9.259096e-002
3.025892e+003;9.278288e-002
3.027820e+003;9.292329e-002
3.029749e+003;9.324355e-002
3.031677e+003;9.376993e-002
3.033606e+003;9.428225e-002
3.035534e+003;9.490330e-002
3.037463e+003;9.559166e-002
3.039392e+003;9.604149e-002
3.041320e+003;9.599788e-002
3.043249e+003;9.622551e-002
3.045177e+003;9.688674e-002
3.047106e+003;9.763990e-002
3.049034e+003;9.828190e-002
3.050963e+003;9.901710e-002
3.052891e+003;9.944378e-002
3.054820e+003;9.947094e-002
3.056749e+003;9.962324e-002
3.058677e+003;9.990703e-002
3.060606e+003;1.001170e-001
3.062534e+003;1.003026e-001
3.064463e+003;1.008128e-001
3.066391e+003;1.013566e-001
3.068320e+003;1.013906e-001
3.070248e+003;1.011166e-001
3.072177e+003;1.010811e-001
3.074105e+003;1.011877e-001
3.076034e+003;1.011736e-001
3.077963e+003;1.012188e-001
3.079891e+003;1.010481e-001
3.081820e+003;1.004192e-001
3.083748e+003;1.002207e-001
3.085677e+003;1.003955e-001
3.087605e+003;1.003481e-001
3.089534e+003;9.999558e-002
3.091462e+003;9.937929e-002
3.093391e+003;9.870386e-002
3.095320e+003;9.843615e-002
3.097248e+003;9.869563e-002
3.099177e+003;9.878513e-002
3.101105e+003;9.860772e-002
3.103034e+003;9.865737e-002
3.104962e+003;9.840232e-002
3.106891e+003;9.794262e-002
3.108819e+003;9.761053e-002
3.110748e+003;9.743115e-002
3.112677e+003;9.714960e-002
3.114605e+003;9.676288e-002
3.116533e+003;9.654789e-002
3.118462e+003;9.668612e-002
3.120391e+003;9.687287e-002
3.122319e+003;9.677816e-002
3.124248e+003;9.669370e-002
3.126176e+003;9.656576e-002
3.128105e+003;9.656386e-002
3.130033e+003;9.664217e-002
3.131962e+003;9.661075e-002
3.133890e+003;9.668509e-002
3.135819e+003;9.706200e-002
3.137748e+003;9.744629e-002
3.139676e+003;9.768032e-002
3.141605e+003;9.815474e-002
3.143533e+003;9.858248e-002
3.145462e+003;9.879740e-002
3.147390e+003;9.900374e-002
3.149319e+003;9.922591e-002
3.151247e+003;9.949631e-002
3.153176e+003;1.003125e-001
3.155104e+003;1.009130e-001
3.157033e+003;1.009796e-001
3.158962e+003;1.012485e-001
3.160890e+003;1.020045e-001
3.162819e+003;1.028756e-001
3.164747e+003;1.035524e-001
3.166676e+003;1.040433e-001
3.168604e+003;1.043236e-001
3.170533e+003;1.048779e-001
3.172461e+003;1.058261e-001
3.174390e+003;1.067776e-001
3.176319e+003;1.072995e-001
3.178247e+003;1.078007e-001
3.180176e+003;1.085593e-001
3.182104e+003;1.095616e-001
3.184033e+003;1.103324e-001
3.185961e+003;1.109321e-001
3.187890e+003;1.117357e-001
3.189818e+003;1.122431e-001
3.191747e+003;1.128757e-001
3.193676e+003;1.139014e-001
3.195604e+003;1.148803e-001
3.197532e+003;1.158446e-001
3.199461e+003;1.167027e-001
3.201390e+003;1.175674e-001
3.203318e+003;1.187042e-001
3.205247e+003;1.199884e-001
3.207175e+003;1.208850e-001
3.209104e+003;1.213591e-001
3.211032e+003;1.220295e-001
3.212961e+003;1.230596e-001
3.214889e+003;1.239064e-001
3.216818e+003;1.248873e-001
3.218747e+003;1.259147e-001
3.220675e+003;1.270913e-001
3.222604e+003;1.282398e-001
3.224532e+003;1.292799e-001
3.226461e+003;1.303223e-001
3.228389e+003;1.314596e-001
3.230318e+003;1.326789e-001
3.232246e+003;1.339302e-001
3.234175e+003;1.350149e-001
3.236104e+003;1.360417e-001
3.238032e+003;1.373207e-001
3.239961e+003;1.389217e-001
3.241889e+003;1.408194e-001
3.243818e+003;1.430138e-001
3.245746e+003;1.446025e-001
3.247675e+003;1.456079e-001
3.249603e+003;1.469947e-001
3.251532e+003;1.487470e-001
3.253460e+003;1.503651e-001
3.255389e+003;1.524908e-001
3.257318e+003;1.548330e-001
3.259246e+003;1.565463e-001
3.261175e+003;1.585500e-001
3.263103e+003;1.607114e-001
3.265032e+003;1.622893e-001
3.266960e+003;1.637910e-001
3.268889e+003;1.655590e-001
3.270817e+003;1.671862e-001
3.272746e+003;1.685393e-001
3.274675e+003;1.696403e-001
3.276603e+003;1.705350e-001
3.278531e+003;1.710407e-001
3.280460e+003;1.712181e-001
3.282389e+003;1.710393e-001
3.284317e+003;1.704647e-001
3.286246e+003;1.699664e-001
3.288174e+003;1.689791e-001
3.290103e+003;1.677109e-001
3.292031e+003;1.661163e-001
3.293960e+003;1.642886e-001
3.295888e+003;1.627529e-001
3.297817e+003;1.608077e-001
3.299746e+003;1.583444e-001
3.301674e+003;1.560457e-001
3.303603e+003;1.542033e-001
3.305531e+003;1.523604e-001
3.307460e+003;1.500429e-001
3.309388e+003;1.472220e-001
3.311317e+003;1.448280e-001
3.313245e+003;1.428468e-001
3.315174e+003;1.407680e-001
3.317103e+003;1.387517e-001
3.319031e+003;1.366495e-001
3.320960e+003;1.349997e-001
3.322888e+003;1.330123e-001
3.324817e+003;1.307773e-001
3.326745e+003;1.286229e-001
3.328674e+003;1.266571e-001
3.330602e+003;1.249174e-001
3.332531e+003;1.231913e-001
3.334459e+003;1.216741e-001
3.336388e+003;1.201380e-001
3.338317e+003;1.185987e-001
3.340245e+003;1.171533e-001
3.342174e+003;1.157529e-001
3.344102e+003;1.147714e-001
3.346031e+003;1.137139e-001
3.347959e+003;1.123505e-001
3.349888e+003;1.110577e-001
3.351816e+003;1.099956e-001
3.353745e+003;1.089652e-001
3.355674e+003;1.080244e-001
3.357602e+003;1.069596e-001
3.359531e+003;1.062964e-001
3.361459e+003;1.058245e-001
3.363388e+003;1.052422e-001
3.365316e+003;1.044434e-001
3.367245e+003;1.032287e-001
3.369173e+003;1.025467e-001
3.371102e+003;1.022709e-001
3.373031e+003;1.018190e-001
3.374959e+003;1.013851e-001
3.376887e+003;1.005668e-001
3.378816e+003;9.986174e-002
3.380745e+003;9.936963e-002
3.382673e+003;9.867717e-002
3.384602e+003;9.786922e-002
3.386530e+003;9.720343e-002
3.388459e+003;9.670960e-002
3.390387e+003;9.609758e-002
3.392316e+003;9.590320e-002
3.394244e+003;9.585945e-002
3.396173e+003;9.571353e-002
3.398102e+003;9.506291e-002
3.400030e+003;9.426813e-002
3.401959e+003;9.400429e-002
3.403887e+003;9.372310e-002
3.405816e+003;9.317526e-002
3.407744e+003;9.239216e-002
3.409673e+003;9.158956e-002
3.411601e+003;9.118214e-002
3.413530e+003;9.066308e-002
3.415458e+003;8.997082e-002
3.417387e+003;8.932422e-002
3.419316e+003;8.892322e-002
3.421244e+003;8.827119e-002
3.423173e+003;8.757835e-002
3.425101e+003;8.707817e-002
3.427030e+003;8.657254e-002
3.428958e+003;8.588417e-002
3.430887e+003;8.541892e-002
3.432815e+003;8.520572e-002
3.434744e+003;8.492158e-002
3.436673e+003;8.460442e-002
3.438601e+003;8.388323e-002
3.440530e+003;8.322643e-002
3.442458e+003;8.328130e-002
3.444387e+003;8.314915e-002
3.446315e+003;8.285500e-002
3.448244e+003;8.255806e-002
3.450172e+003;8.241382e-002
3.452101e+003;8.229811e-002
3.454030e+003;8.210156e-002
3.455958e+003;8.177420e-002
3.457886e+003;8.093205e-002
3.459815e+003;8.048568e-002
3.461744e+003;8.021792e-002
3.463672e+003;7.973298e-002
3.465601e+003;7.989410e-002
3.467529e+003;8.017875e-002
3.469458e+003;7.991748e-002
3.471386e+003;7.950234e-002
3.473315e+003;7.881615e-002
3.475243e+003;7.877058e-002
3.477172e+003;7.894559e-002
3.479101e+003;7.829963e-002
3.481029e+003;7.803655e-002
3.482958e+003;7.829535e-002
3.484886e+003;7.798326e-002
3.486815e+003;7.779405e-002
3.488743e+003;7.772870e-002
3.490672e+003;7.730778e-002
3.492600e+003;7.724095e-002
3.494529e+003;7.716824e-002
3.496458e+003;7.687064e-002
3.498386e+003;7.690300e-002
3.500315e+003;7.659978e-002
3.502243e+003;7.621109e-002
3.504172e+003;7.578458e-002
3.506100e+003;7.505562e-002
3.508029e+003;7.484505e-002
3.509957e+003;7.476959e-002
3.511886e+003;7.456879e-002
3.513814e+003;7.456792e-002
3.515743e+003;7.430563e-002
3.517672e+003;7.401699e-002
3.519600e+003;7.369712e-002
3.521529e+003;7.322682e-002
3.523457e+003;7.331068e-002
3.525386e+003;7.310255e-002
3.527314e+003;7.260415e-002
3.529243e+003;7.238493e-002
3.531171e+003;7.202026e-002
3.533100e+003;7.205237e-002
3.535029e+003;7.192164e-002
3.536957e+003;7.161277e-002
3.538885e+003;7.150634e-002
3.540814e+003;7.098000e-002
3.542743e+003;7.042989e-002
3.544671e+003;7.020690e-002
3.546600e+003;7.006087e-002
3.548528e+003;6.985196e-002
3.550457e+003;6.921195e-002
3.552385e+003;6.883379e-002
3.554314e+003;6.875894e-002
3.556242e+003;6.861646e-002
3.558171e+003;6.827341e-002
3.560100e+003;6.781801e-002
3.562028e+003;6.760065e-002
3.563957e+003;6.752598e-002
3.565885e+003;6.706864e-002
3.567814e+003;6.655831e-002
3.569742e+003;6.635331e-002
3.571671e+003;6.625929e-002
3.573599e+003;6.600664e-002
3.575528e+003;6.584628e-002
3.577457e+003;6.555842e-002
3.579385e+003;6.538682e-002
3.581314e+003;6.518669e-002
3.583242e+003;6.480926e-002
3.585171e+003;6.468794e-002
3.587099e+003;6.437357e-002
3.589028e+003;6.380106e-002
3.590956e+003;6.352375e-002
3.592885e+003;6.284774e-002
3.594813e+003;6.266665e-002
3.596742e+003;6.292541e-002
3.598671e+003;6.300347e-002
3.600599e+003;6.290043e-002
3.602528e+003;6.252792e-002
3.604456e+003;6.227773e-002
3.606385e+003;6.194178e-002
3.608313e+003;6.183045e-002
3.610242e+003;6.185707e-002
3.612170e+003;6.178101e-002
3.614099e+003;6.139407e-002
3.616028e+003;6.061197e-002
3.617956e+003;6.000350e-002
3.619885e+003;5.973720e-002
3.621813e+003;5.963361e-002
3.623742e+003;5.955136e-002
3.625670e+003;5.931519e-002
3.627599e+003;5.901406e-002
3.629527e+003;5.872306e-002
3.631456e+003;5.836677e-002
3.633385e+003;5.771397e-002
3.635313e+003;5.770414e-002
3.637241e+003;5.774868e-002
3.639170e+003;5.709500e-002
3.641099e+003;5.680929e-002
3.643027e+003;5.682232e-002
3.644956e+003;5.636337e-002
3.646884e+003;5.582170e-002
3.648813e+003;5.506904e-002
3.650741e+003;5.429756e-002
3.652670e+003;5.444485e-002
3.654598e+003;5.435738e-002
3.656527e+003;5.340607e-002
3.658456e+003;5.298875e-002
3.660384e+003;5.286965e-002
3.662313e+003;5.230425e-002
3.664241e+003;5.159179e-002
3.666170e+003;5.089616e-002
3.668098e+003;5.023384e-002
3.670027e+003;4.975902e-002
3.671955e+003;4.936660e-002
3.673884e+003;4.871751e-002
3.675813e+003;4.788852e-002
3.677741e+003;4.790528e-002
3.679669e+003;4.766781e-002
3.681598e+003;4.672417e-002
3.683527e+003;4.612333e-002
3.685455e+003;4.570827e-002
3.687384e+003;4.485075e-002
3.689312e+003;4.436706e-002
3.691241e+003;4.446050e-002
3.693169e+003;4.445830e-002
3.695098e+003;4.411715e-002
3.697026e+003;4.388904e-002
3.698955e+003;4.386272e-002
3.700884e+003;4.364834e-002
3.702812e+003;4.341114e-002
3.704741e+003;4.332378e-002
3.706669e+003;4.300140e-002
3.708598e+003;4.243777e-002
3.710526e+003;4.203954e-002
3.712455e+003;4.203268e-002
3.714383e+003;4.224531e-002
3.716312e+003;4.224115e-002
3.718240e+003;4.198063e-002
3.720169e+003;4.197972e-002
3.722098e+003;4.195705e-002
3.724026e+003;4.192954e-002
3.725955e+003;4.178450e-002
3.727883e+003;4.134269e-002
3.729812e+003;4.108199e-002
3.731740e+003;4.103384e-002
3.733669e+003;4.100114e-002
3.735597e+003;4.082416e-002
3.737526e+003;4.100401e-002
3.739455e+003;4.103344e-002
3.741383e+003;4.106050e-002
3.743312e+003;4.054085e-002
3.745240e+003;3.962205e-002
3.747169e+003;3.973329e-002
3.749097e+003;3.995715e-002
3.751026e+003;4.008718e-002
3.752954e+003;4.020217e-002
3.754883e+003;4.038668e-002
3.756812e+003;4.011364e-002
3.758740e+003;3.996416e-002
3.760668e+003;4.015285e-002
3.762597e+003;4.017317e-002
3.764526e+003;4.006938e-002
3.766454e+003;4.023990e-002
3.768383e+003;4.027545e-002
3.770311e+003;3.986507e-002
3.772240e+003;3.948522e-002
3.774168e+003;3.943297e-002
3.776097e+003;3.953291e-002
3.778025e+003;3.969393e-002
3.779954e+003;3.964597e-002
3.781883e+003;3.937982e-002
3.783811e+003;3.915422e-002
3.785740e+003;3.924068e-002
3.787668e+003;3.943138e-002
3.789597e+003;3.981728e-002
3.791525e+003;3.989286e-002
3.793454e+003;3.968209e-002
3.795382e+003;3.952844e-002
3.797311e+003;3.971887e-002
3.799240e+003;4.005772e-002
3.801168e+003;3.998516e-002
3.803097e+003;3.977609e-002
3.805025e+003;3.950243e-002
3.806954e+003;3.925243e-002
3.808882e+003;3.924441e-002
3.810811e+003;3.945943e-002
3.812739e+003;3.963733e-002
3.814668e+003;3.940366e-002
3.816596e+003;3.940569e-002
3.818525e+003;3.988454e-002
3.820454e+003;3.987411e-002
3.822382e+003;3.963134e-002
3.824311e+003;3.981579e-002
3.826239e+003;4.038722e-002
3.828168e+003;4.058097e-002
3.830096e+003;4.000507e-002
3.832025e+003;3.962750e-002
3.833953e+003;3.948076e-002
3.835882e+003;3.967236e-002
3.837811e+003;3.981408e-002
3.839739e+003;3.996253e-002
3.841667e+003;4.032686e-002
3.843596e+003;4.045668e-002
3.845525e+003;4.027931e-002
3.847453e+003;4.056296e-002
3.849382e+003;4.092883e-002
3.851310e+003;4.060327e-002
3.853239e+003;4.003206e-002
3.855167e+003;4.030875e-002
3.857096e+003;4.063758e-002
3.859024e+003;4.069180e-002
3.860953e+003;4.062805e-002
3.862882e+003;4.067105e-002
3.864810e+003;4.090399e-002
3.866739e+003;4.125440e-002
3.868667e+003;4.136321e-002
3.870596e+003;4.159791e-002
3.872524e+003;4.163157e-002
3.874453e+003;4.157275e-002
3.876381e+003;4.164991e-002
3.878310e+003;4.140866e-002
3.880239e+003;4.156414e-002
3.882167e+003;4.222924e-002
3.884096e+003;4.223958e-002
3.886024e+003;4.195672e-002
3.887953e+003;4.202246e-002
3.889881e+003;4.226646e-002
3.891810e+003;4.227697e-002
3.893738e+003;4.201242e-002
3.895667e+003;4.238425e-002
3.897595e+003;4.301677e-002
3.899524e+003;4.311332e-002
3.901453e+003;4.315361e-002
3.903381e+003;4.333502e-002
3.905310e+003;4.347588e-002
3.907238e+003;4.351921e-002
3.909167e+003;4.331638e-002
3.911095e+003;4.302866e-002
3.913024e+003;4.301882e-002
3.914952e+003;4.331151e-002
3.916881e+003;4.363453e-002
3.918810e+003;4.408912e-002
3.920738e+003;4.430952e-002
3.922667e+003;4.417546e-002
3.924595e+003;4.414872e-002
3.926524e+003;4.430313e-002
3.928452e+003;4.421545e-002
3.930381e+003;4.385278e-002
3.932309e+003;4.396753e-002
3.934238e+003;4.456094e-002
3.936167e+003;4.477893e-002
3.938095e+003;4.463448e-002
3.940023e+003;4.477169e-002
3.941952e+003;4.450389e-002
3.943881e+003;4.430845e-002
3.945809e+003;4.468803e-002
3.947738e+003;4.483102e-002
3.949666e+003;4.506470e-002
3.951595e+003;4.490450e-002
3.953523e+003;4.489179e-002
3.955452e+003;4.495414e-002
3.957380e+003;4.522506e-002
3.959309e+003;4.559674e-002
3.961238e+003;4.549839e-002
3.963166e+003;4.527172e-002
3.965095e+003;4.504856e-002
3.967023e+003;4.495609e-002
3.968952e+003;4.514858e-002
3.970880e+003;4.540972e-002
3.972809e+003;4.587373e-002
3.974737e+003;4.642544e-002
3.976666e+003;4.642407e-002
3.978594e+003;4.644582e-002
3.980523e+003;4.659622e-002
3.982452e+003;4.640128e-002
3.984380e+003;4.612153e-002
3.986309e+003;4.596010e-002
3.988237e+003;4.584033e-002
3.990166e+003;4.574129e-002
3.992094e+003;4.574170e-002
3.994023e+003;4.591082e-002
3.995951e+003;4.610495e-002
3.997880e+003;4.585635e-002
3.999809e+003;4.591170e-002
4.001737e+003;0.000000e+000
