3.992094e+002;0.000000e+000
4.011380e+002;0.000000e+000
4.030665e+002;0.000000e+000
4.049951e+002;0.000000e+000
4.069236e+002;0.000000e+000
4.088522e+002;0.000000e+000
4.107807e+002;0.000000e+000
4.127093e+002;0.000000e+000
4.146378e+002;0.000000e+000
4.165664e+002;0.000000e+000
4.184949e+002;0.000000e+000
4.204235e+002;0.000000e+000
4.223520e+002;0.000000e+000
4.242806e+002;0.000000e+000
4.262091e+002;0.000000e+000
4.281377e+002;0.000000e+000
4.300662e+002;0.000000e+000
4.319948e+002;0.000000e+000
4.339233e+002;0.000000e+000
4.358519e+002;0.000000e+000
4.377804e+002;0.000000e+000
4.397090e+002;0.000000e+000
4.416375e+002;0.000000e+000
4.435660e+002;0.000000e+000
4.454946e+002;0.000000e+000
4.474232e+002;0.000000e+000
4.493517e+002;0.000000e+000
4.512802e+002;0.000000e+000
4.532088e+002;0.000000e+000
4.551373e+002;0.000000e+000
4.570659e+002;0.000000e+000
4.589944e+002;0.000000e+000
4.609230e+002;0.000000e+000
4.628515e+002;0.000000e+000
4.647801e+002;0.000000e+000
4.667086e+002;0.000000e+000
4.686372e+002;0.000000e+000
4.705657e+002;0.000000e+000
4.724943e+002;0.000000e+000
4.744228e+002;0.000000e+000
4.763513e+002;0.000000e+000
4.782799e+002;0.000000e+000
4.802085e+002;0.000000e+000
4.821370e+002;0.000000e+000
4.840656e+002;0.000000e+000
4.859941e+002;0.000000e+000
4.879226e+002;0.000000e+000
4.898512e+002;0.000000e+000
4.917798e+002;0.000000e+000
4.937083e+002;0.000000e+000
4.956368e+002;0.000000e+000
4.975654e+002;0.000000e+000
4.994939e+002;0.000000e+000
5.014225e+002;0.000000e+000
5.033510e+002;0.000000e+000
5.052796e+002;0.000000e+000
5.072081e+002;0.000000e+000
5.091367e+002;0.000000e+000
5.110652e+002;0.000000e+000
5.129938e+002;0.000000e+000
5.149223e+002;0.000000e+000
5.168509e+002;0.000000e+000
5.187794e+002;0.000000e+000
5.207079e+002;0.000000e+000
5.226365e+002;0.000000e+000
5.245651e+002;0.000000e+000
5.264936e+002;0.000000e+000
5.284222e+002;0.000000e+000
5.303507e+002;0.000000e+000
5.322792e+002;0.000000e+000
5.342078e+002;0.000000e+000
5.361364e+002;0.000000e+000
5.380649e+002;0.000000e+000
5.399935e+002;0.000000e+000
5.419220e+002;0.000000e+000
5.438505e+002;0.000000e+000
5.457791e+002;0.000000e+000
5.477076e+002;0.000000e+000
5.496362e+002;0.000000e+000
5.515648e+002;0.000000e+000
5.534933e+002;0.000000e+000
5.554218e+002;0.000000e+000
5.573504e+002;0.000000e+000
5.592789e+002;0.000000e+000
5.612075e+002;0.000000e+000
5.631360e+002;0.000000e+000
5.650646e+002;0.000000e+000
5.669931e+002;0.000000e+000
5.689217e+002;0.000000e+000
5.708502e+002;0.000000e+000
5.727787e+002;0.000000e+000
5.747073e+002;0.000000e+000
5.766359e+002;0.000000e+000
5.785644e+002;0.000000e+000
5.804930e+002;0.000000e+000
5.824215e+002;0.000000e+000
5.843500e+002;0.000000e+000
5.862786e+002;0.000000e+000
5.882072e+002;0.000000e+000
5.901357e+002;0.000000e+000
5.920643e+002;0.000000e+000
5.939928e+002;0.000000e+000
5.959213e+002;0.000000e+000
5.978499e+002;0.000000e+000
5.997784e+002;2.232089e-001
6.017070e+002;2.293431e-001
6.036355e+002;2.311433e-001
6.055641e+002;2.386827e-001
6.074926e+002;2.440234e-001
6.094211e+002;2.460721e-001
6.113497e+002;2.445814e-001
6.132783e+002;2.431606e-001
6.152068e+002;2.430653e-001
6.171354e+002;2.413470e-001
6.190639e+002;2.397960e-001
6.209924e+002;2.436948e-001
6.229210e+002;2.475529e-001
6.248495e+002;2.473986e-001
6.267781e+002;2.461013e-001
6.287067e+002;2.435848e-001
6.306352e+002;2.413846e-001
6.325637e+002;2.402094e-001
6.344923e+002;2.376016e-001
6.364208e+002;2.351608e-001
6.383494e+002;2.315563e-001
6.402780e+002;2.285804e-001
6.422065e+002;2.311241e-001
6.441350e+002;2.300541e-001
6.460636e+002;2.260298e-001
6.479921e+002;2.234229e-001
6.499207e+002;2.231775e-001
6.518492e+002;2.236351e-001
6.537778e+002;2.247081e-001
6.557063e+002;2.262472e-001
6.576349e+002;2.251124e-001
6.595634e+002;2.236157e-001
6.614919e+002;2.237493e-001
6.634205e+002;2.236430e-001
6.653491e+002;2.236983e-001
6.672776e+002;2.242448e-001
6.692062e+002;2.249500e-001
6.711347e+002;2.258243e-001
6.730632e+002;2.254692e-001
6.749918e+002;2.243154e-001
6.769203e+002;2.235506e-001
6.788489e+002;2.232230e-001
6.807775e+002;2.237089e-001
6.827060e+002;2.242423e-001
6.846345e+002;2.245719e-001
6.865631e+002;2.242729e-001
6.884916e+002;2.226493e-001
6.904202e+002;2.214977e-001
6.923488e+002;2.209214e-001
6.942773e+002;2.196973e-001
6.962058e+002;2.178003e-001
6.981344e+002;2.159943e-001
7.000629e+002;2.146576e-001
7.019915e+002;2.128335e-001
7.039200e+002;2.105050e-001
7.058486e+002;2.080643e-001
7.077771e+002;2.049461e-001
7.097057e+002;2.021147e-001
7.116342e+002;1.996626e-001
7.135627e+002;1.978500e-001
7.154913e+002;1.960775e-001
7.174199e+002;1.933365e-001
7.193484e+002;1.901051e-001
7.212770e+002;1.873943e-001
7.232055e+002;1.846564e-001
7.251340e+002;1.817523e-001
7.270626e+002;1.781162e-001
7.289911e+002;1.757106e-001
7.309197e+002;1.738320e-001
7.328483e+002;1.711373e-001
7.347768e+002;1.678205e-001
7.367053e+002;1.642155e-001
7.386339e+002;1.612967e-001
7.405624e+002;1.581517e-001
7.424910e+002;1.550148e-001
7.444196e+002;1.515077e-001
7.463481e+002;1.494237e-001
7.482766e+002;1.484300e-001
7.502052e+002;1.459219e-001
7.521337e+002;1.431337e-001
7.540623e+002;1.413092e-001
7.559908e+002;1.403239e-001
7.579194e+002;1.397116e-001
7.598479e+002;1.382684e-001
7.617765e+002;1.372332e-001
7.637050e+002;1.366423e-001
7.656335e+002;1.350222e-001
7.675621e+002;1.339097e-001
7.694907e+002;1.326363e-001
7.714192e+002;1.304868e-001
7.733478e+002;1.287224e-001
7.752763e+002;1.269336e-001
7.772048e+002;1.258896e-001
7.791334e+002;1.242048e-001
7.810620e+002;1.222523e-001
7.829905e+002;1.212181e-001
7.849191e+002;1.206386e-001
7.868476e+002;1.191625e-001
7.887761e+002;1.176593e-001
7.907047e+002;1.167548e-001
7.926332e+002;1.156653e-001
7.945618e+002;1.147661e-001
7.964903e+002;1.144221e-001
7.984189e+002;1.141591e-001
8.003474e+002;1.134853e-001
8.022759e+002;1.127947e-001
8.042045e+002;1.127732e-001
8.061331e+002;1.130462e-001
8.080616e+002;1.135443e-001
8.099902e+002;1.138094e-001
8.119187e+002;1.140703e-001
8.138472e+002;1.137445e-001
8.157758e+002;1.137684e-001
8.177043e+002;1.139484e-001
8.196329e+002;1.142319e-001
8.215615e+002;1.147891e-001
8.234900e+002;1.150142e-001
8.254185e+002;1.153333e-001
8.273471e+002;1.151253e-001
8.292756e+002;1.149085e-001
8.312042e+002;1.143440e-001
8.331328e+002;1.129862e-001
8.350613e+002;1.115088e-001
8.369898e+002;1.100499e-001
8.389184e+002;1.087929e-001
8.408469e+002;1.076695e-001
8.427755e+002;1.068095e-001
8.447040e+002;1.068318e-001
8.466326e+002;1.071467e-001
8.485611e+002;1.076382e-001
8.504897e+002;1.082559e-001
8.524182e+002;1.083729e-001
8.543467e+002;1.072105e-001
8.562753e+002;1.049824e-001
8.582039e+002;1.030425e-001
8.601324e+002;1.015329e-001
8.620610e+002;9.997318e-002
8.639895e+002;9.858622e-002
8.659180e+002;9.780618e-002
8.678466e+002;9.772019e-002
8.697751e+002;9.790629e-002
8.717037e+002;9.814950e-002
8.736323e+002;9.854897e-002
8.755608e+002;9.828801e-002
8.774893e+002;9.759767e-002
8.794179e+002;9.765762e-002
8.813464e+002;9.819815e-002
8.832750e+002;9.824176e-002
8.852036e+002;9.798542e-002
8.871321e+002;9.782133e-002
8.890606e+002;9.783926e-002
8.909892e+002;9.772911e-002
8.929177e+002;9.747043e-002
8.948463e+002;9.747652e-002
8.967748e+002;9.784785e-002
8.987034e+002;9.781365e-002
9.006319e+002;9.766156e-002
9.025605e+002;9.757905e-002
9.044890e+002;9.737787e-002
9.064175e+002;9.730001e-002
9.083461e+002;9.728368e-002
9.102747e+002;9.788558e-002
9.122032e+002;9.880760e-002
9.141318e+002;9.964941e-002
9.160603e+002;1.004841e-001
9.179888e+002;1.015890e-001
9.199174e+002;1.030743e-001
9.218459e+002;1.047397e-001
9.237745e+002;1.059815e-001
9.257031e+002;1.068344e-001
9.276316e+002;1.074807e-001
9.295601e+002;1.079644e-001
9.314887e+002;1.078106e-001
9.334172e+002;1.072978e-001
9.353458e+002;1.072960e-001
9.372744e+002;1.074935e-001
9.392029e+002;1.076668e-001
9.411314e+002;1.082469e-001
9.430600e+002;1.088378e-001
9.449885e+002;1.091380e-001
9.469171e+002;1.093282e-001
9.488456e+002;1.098097e-001
9.507742e+002;1.104289e-001
9.527027e+002;1.113117e-001
9.546313e+002;1.121303e-001
9.565598e+002;1.127420e-001
9.584883e+002;1.135227e-001
9.604169e+002;1.149966e-001
9.623455e+002;1.166161e-001
9.642740e+002;1.177731e-001
9.662026e+002;1.193067e-001
9.681311e+002;1.216635e-001
9.700596e+002;1.236976e-001
9.719882e+002;1.253709e-001
9.739167e+002;1.266636e-001
9.758453e+002;1.268818e-001
9.777739e+002;1.260618e-001
9.797024e+002;1.251000e-001
9.816309e+002;1.244617e-001
9.835595e+002;1.239899e-001
9.854880e+002;1.240566e-001
9.874166e+002;1.251698e-001
9.893452e+002;1.271065e-001
9.912737e+002;1.295472e-001
9.932022e+002;1.317951e-001
9.951307e+002;1.328906e-001
9.970593e+002;1.334209e-001
9.989879e+002;1.337830e-001
1.000916e+003;1.333948e-001
1.002845e+003;1.324693e-001
1.004773e+003;1.314191e-001
1.006702e+003;1.305201e-001
1.008631e+003;1.298002e-001
1.010559e+003;1.289254e-001
1.012488e+003;1.278387e-001
1.014416e+003;1.268542e-001
1.016345e+003;1.258903e-001
1.018273e+003;1.254521e-001
1.020202e+003;1.257751e-001
1.022130e+003;1.271426e-001
1.024059e+003;1.294724e-001
1.025988e+003;1.321146e-001
1.027916e+003;1.346280e-001
1.029845e+003;1.372888e-001
1.031773e+003;1.395629e-001
1.033702e+003;1.415107e-001
1.035630e+003;1.430144e-001
1.037559e+003;1.444997e-001
1.039487e+003;1.457005e-001
1.041416e+003;1.465622e-001
1.043344e+003;1.472477e-001
1.045273e+003;1.480013e-001
1.047202e+003;1.485915e-001
1.049130e+003;1.488760e-001
1.051059e+003;1.498031e-001
1.052987e+003;1.514476e-001
1.054916e+003;1.529737e-001
1.056844e+003;1.548426e-001
1.058773e+003;1.567759e-001
1.060701e+003;1.583689e-001
1.062630e+003;1.596242e-001
1.064558e+003;1.606186e-001
1.066487e+003;1.608043e-001
1.068416e+003;1.604968e-001
1.070344e+003;1.602689e-001
1.072273e+003;1.588416e-001
1.074201e+003;1.572586e-001
1.076130e+003;1.553018e-001
1.078058e+003;1.524267e-001
1.079987e+003;1.494527e-001
1.081915e+003;1.465935e-001
1.083844e+003;1.439018e-001
1.085773e+003;1.412411e-001
1.087701e+003;1.389941e-001
1.089630e+003;1.374189e-001
1.091558e+003;1.359158e-001
1.093487e+003;1.354512e-001
1.095415e+003;1.353449e-001
1.097344e+003;1.352365e-001
1.099272e+003;1.353908e-001
1.101201e+003;1.355712e-001
1.103129e+003;1.355634e-001
1.105058e+003;1.354744e-001
1.106987e+003;1.352921e-001
1.108915e+003;1.344136e-001
1.110844e+003;1.333496e-001
1.112772e+003;1.326771e-001
1.114701e+003;1.321899e-001
1.116629e+003;1.321365e-001
1.118558e+003;1.320061e-001
1.120486e+003;1.317028e-001
1.122415e+003;1.314268e-001
1.124344e+003;1.314426e-001
1.126272e+003;1.318767e-001
1.128201e+003;1.323504e-001
1.130129e+003;1.325422e-001
1.132058e+003;1.327766e-001
1.133986e+003;1.337195e-001
1.135915e+003;1.348360e-001
1.137843e+003;1.361952e-001
1.139772e+003;1.380023e-001
1.141700e+003;1.395300e-001
1.143629e+003;1.407188e-001
1.145557e+003;1.423286e-001
1.147486e+003;1.439919e-001
1.149415e+003;1.453229e-001
1.151343e+003;1.468277e-001
1.153272e+003;1.485727e-001
1.155200e+003;1.501341e-001
1.157129e+003;1.515877e-001
1.159057e+003;1.525759e-001
1.160986e+003;1.532378e-001
1.162914e+003;1.543332e-001
1.164843e+003;1.553861e-001
1.166771e+003;1.562407e-001
1.168700e+003;1.573242e-001
1.170629e+003;1.573666e-001
1.172557e+003;1.563015e-001
1.174486e+003;1.546871e-001
1.176414e+003;1.529138e-001
1.178343e+003;1.514083e-001
1.180271e+003;1.501916e-001
1.182200e+003;1.496850e-001
1.184128e+003;1.501377e-001
1.186057e+003;1.508515e-001
1.187986e+003;1.516758e-001
1.189914e+003;1.530063e-001
1.191843e+003;1.546535e-001
1.193771e+003;1.562667e-001
1.195700e+003;1.585725e-001
1.197628e+003;1.614514e-001
1.199557e+003;1.648556e-001
1.201485e+003;1.688844e-001
1.203414e+003;1.734400e-001
1.205343e+003;1.779017e-001
1.207271e+003;1.821600e-001
1.209200e+003;1.866707e-001
1.211128e+003;1.911145e-001
1.213057e+003;1.953333e-001
1.214985e+003;1.993392e-001
1.216914e+003;2.031796e-001
1.218842e+003;2.066671e-001
1.220771e+003;2.094040e-001
1.222699e+003;2.115337e-001
1.224628e+003;2.133478e-001
1.226557e+003;2.151348e-001
1.228485e+003;2.160739e-001
1.230414e+003;2.158302e-001
1.232342e+003;2.147709e-001
1.234271e+003;2.128474e-001
1.236199e+003;2.105161e-001
1.238128e+003;2.080003e-001
1.240056e+003;2.054001e-001
1.241985e+003;2.029312e-001
1.243913e+003;2.007511e-001
1.245842e+003;1.993825e-001
1.247771e+003;1.987609e-001
1.249699e+003;1.976682e-001
1.251628e+003;1.966859e-001
1.253556e+003;1.963730e-001
1.255485e+003;1.962143e-001
1.257413e+003;1.964340e-001
1.259342e+003;1.962523e-001
1.261270e+003;1.951253e-001
1.263199e+003;1.931745e-001
1.265127e+003;1.904522e-001
1.267056e+003;1.874130e-001
1.268985e+003;1.837265e-001
1.270913e+003;1.792800e-001
1.272842e+003;1.754656e-001
1.274770e+003;1.720271e-001
1.276699e+003;1.691318e-001
1.278627e+003;1.669031e-001
1.280556e+003;1.649647e-001
1.282484e+003;1.632780e-001
1.284413e+003;1.621079e-001
1.286342e+003;1.609491e-001
1.288270e+003;1.599061e-001
1.290199e+003;1.592404e-001
1.292127e+003;1.587528e-001
1.294056e+003;1.586985e-001
1.295984e+003;1.588119e-001
1.297913e+003;1.587003e-001
1.299841e+003;1.585181e-001
1.301770e+003;1.586251e-001
1.303698e+003;1.584112e-001
1.305627e+003;1.579506e-001
1.307556e+003;1.577058e-001
1.309484e+003;1.574874e-001
1.311413e+003;1.570867e-001
1.313341e+003;1.568039e-001
1.315270e+003;1.566063e-001
1.317198e+003;1.562548e-001
1.319127e+003;1.561535e-001
1.321055e+003;1.568422e-001
1.322984e+003;1.577343e-001
1.324912e+003;1.585481e-001
1.326841e+003;1.593330e-001
1.328770e+003;1.598304e-001
1.330698e+003;1.602971e-001
1.332627e+003;1.608240e-001
1.334555e+003;1.610759e-001
1.336484e+003;1.607682e-001
1.338412e+003;1.602341e-001
1.340341e+003;1.599778e-001
1.342269e+003;1.598687e-001
1.344198e+003;1.595513e-001
1.346126e+003;1.592664e-001
1.348055e+003;1.591578e-001
1.349984e+003;1.592227e-001
1.351912e+003;1.593137e-001
1.353841e+003;1.594757e-001
1.355769e+003;1.603698e-001
1.357698e+003;1.619173e-001
1.359626e+003;1.638572e-001
1.361555e+003;1.662032e-001
1.363483e+003;1.687887e-001
1.365412e+003;1.713820e-001
1.367341e+003;1.726581e-001
1.369269e+003;1.725139e-001
1.371198e+003;1.721762e-001
1.373126e+003;1.718171e-001
1.375055e+003;1.712843e-001
1.376983e+003;1.708046e-001
1.378912e+003;1.705945e-001
1.380840e+003;1.709532e-001
1.382769e+003;1.711697e-001
1.384698e+003;1.711327e-001
1.386626e+003;1.714971e-001
1.388555e+003;1.721760e-001
1.390483e+003;1.725878e-001
1.392412e+003;1.725666e-001
1.394340e+003;1.727549e-001
1.396269e+003;1.734490e-001
1.398197e+003;1.741713e-001
1.400126e+003;1.748974e-001
1.402054e+003;1.759682e-001
1.403983e+003;1.773025e-001
1.405911e+003;1.784012e-001
1.407840e+003;1.788168e-001
1.409769e+003;1.788169e-001
1.411697e+003;1.787596e-001
1.413626e+003;1.788662e-001
1.415554e+003;1.788180e-001
1.417483e+003;1.782321e-001
1.419411e+003;1.780103e-001
1.421340e+003;1.793019e-001
1.423268e+003;1.810127e-001
1.425197e+003;1.830083e-001
1.427125e+003;1.862389e-001
1.429054e+003;1.905481e-001
1.430983e+003;1.957465e-001
1.432911e+003;2.017694e-001
1.434840e+003;2.078330e-001
1.436768e+003;2.129608e-001
1.438697e+003;2.170089e-001
1.440625e+003;2.192979e-001
1.442554e+003;2.200877e-001
1.444482e+003;2.199115e-001
1.446411e+003;2.185087e-001
1.448340e+003;2.156858e-001
1.450268e+003;2.117105e-001
1.452197e+003;2.066541e-001
1.454125e+003;2.007547e-001
1.456054e+003;1.945119e-001
1.457982e+003;1.902095e-001
1.459911e+003;1.877988e-001
1.461839e+003;1.858740e-001
1.463768e+003;1.845580e-001
1.465697e+003;1.841911e-001
1.467625e+003;1.847162e-001
1.469554e+003;1.854082e-001
1.471482e+003;1.862127e-001
1.473411e+003;1.879032e-001
1.475339e+003;1.906022e-001
1.477268e+003;1.936018e-001
1.479196e+003;1.973561e-001
1.481125e+003;2.018563e-001
1.483053e+003;2.070567e-001
1.484982e+003;2.132264e-001
1.486911e+003;2.200938e-001
1.488839e+003;2.277247e-001
1.490768e+003;2.359215e-001
1.492696e+003;2.443378e-001
1.494625e+003;2.529521e-001
1.496553e+003;2.614855e-001
1.498482e+003;2.700931e-001
1.500410e+003;2.784312e-001
1.502339e+003;2.861500e-001
1.504267e+003;2.932138e-001
1.506196e+003;2.995888e-001
1.508125e+003;3.064449e-001
1.510053e+003;3.132061e-001
1.511982e+003;3.181484e-001
1.513910e+003;3.205904e-001
1.515839e+003;3.194098e-001
1.517767e+003;3.143665e-001
1.519696e+003;3.079118e-001
1.521624e+003;3.023899e-001
1.523553e+003;2.978556e-001
1.525481e+003;2.933062e-001
1.527410e+003;2.892691e-001
1.529339e+003;2.852361e-001
1.531267e+003;2.802378e-001
1.533196e+003;2.747884e-001
1.535124e+003;2.695749e-001
1.537053e+003;2.641103e-001
1.538981e+003;2.579880e-001
1.540910e+003;2.524458e-001
1.542838e+003;2.479309e-001
1.544767e+003;2.436286e-001
1.546695e+003;2.391296e-001
1.548624e+003;2.341359e-001
1.550553e+003;2.290737e-001
1.552481e+003;2.240344e-001
1.554410e+003;2.188586e-001
1.556338e+003;2.135060e-001
1.558267e+003;2.072454e-001
1.560195e+003;2.020269e-001
1.562124e+003;1.978671e-001
1.564052e+003;1.932616e-001
1.565981e+003;1.883405e-001
1.567910e+003;1.833923e-001
1.569838e+003;1.792209e-001
1.571767e+003;1.762715e-001
1.573695e+003;1.737217e-001
1.575624e+003;1.713831e-001
1.577552e+003;1.707464e-001
1.579481e+003;1.713782e-001
1.581409e+003;1.722685e-001
1.583338e+003;1.737412e-001
1.585266e+003;1.760698e-001
1.587195e+003;1.795519e-001
1.589124e+003;1.839362e-001
1.591052e+003;1.892046e-001
1.592981e+003;1.950573e-001
1.594909e+003;2.015477e-001
1.596838e+003;2.087130e-001
1.598766e+003;2.165025e-001
1.600695e+003;2.256942e-001
1.602623e+003;2.368726e-001
1.604552e+003;2.498454e-001
1.606480e+003;2.636087e-001
1.608409e+003;2.778061e-001
1.610338e+003;2.921366e-001
1.612266e+003;3.059483e-001
1.614195e+003;3.185273e-001
1.616123e+003;3.294251e-001
1.618052e+003;3.388481e-001
1.619980e+003;3.448253e-001
1.621909e+003;3.463738e-001
1.623837e+003;3.444388e-001
1.625766e+003;3.393920e-001
1.627694e+003;3.318056e-001
1.629623e+003;3.226503e-001
1.631552e+003;3.127685e-001
1.633480e+003;3.023741e-001
1.635409e+003;2.919047e-001
1.637337e+003;2.829252e-001
1.639266e+003;2.750852e-001
1.641194e+003;2.673638e-001
1.643123e+003;2.598645e-001
1.645051e+003;2.526150e-001
1.646980e+003;2.461113e-001
1.648909e+003;2.406135e-001
1.650837e+003;2.345935e-001
1.652766e+003;2.277807e-001
1.654694e+003;2.224500e-001
1.656623e+003;2.177134e-001
1.658551e+003;2.118637e-001
1.660480e+003;2.054644e-001
1.662408e+003;1.992088e-001
1.664337e+003;1.936492e-001
1.666266e+003;1.884336e-001
1.668194e+003;1.830728e-001
1.670123e+003;1.780520e-001
1.672051e+003;1.738237e-001
1.673980e+003;1.694634e-001
1.675908e+003;1.651569e-001
1.677837e+003;1.610574e-001
1.679765e+003;1.570326e-001
1.681694e+003;1.529996e-001
1.683622e+003;1.485701e-001
1.685551e+003;1.452977e-001
1.687479e+003;1.432320e-001
1.689408e+003;1.409082e-001
1.691337e+003;1.391219e-001
1.693265e+003;1.378216e-001
1.695194e+003;1.366869e-001
1.697122e+003;1.365771e-001
1.699051e+003;1.347018e-001
1.700979e+003;1.292657e-001
1.702908e+003;1.209390e-001
1.704836e+003;1.102676e-001
1.706765e+003;1.004588e-001
1.708693e+003;9.280708e-002
1.710622e+003;8.672187e-002
1.712551e+003;8.189714e-002
1.714479e+003;7.797842e-002
1.716408e+003;7.476974e-002
1.718336e+003;7.268910e-002
1.720265e+003;7.146642e-002
1.722193e+003;7.044785e-002
1.724122e+003;6.908098e-002
1.726050e+003;6.765113e-002
1.727979e+003;6.661771e-002
1.729908e+003;6.568818e-002
1.731836e+003;6.445105e-002
1.733765e+003;6.302124e-002
1.735693e+003;6.249405e-002
1.737622e+003;6.222190e-002
1.739550e+003;6.143152e-002
1.741479e+003;6.110568e-002
1.743407e+003;6.071972e-002
1.745336e+003;6.018611e-002
1.747265e+003;5.972188e-002
1.749193e+003;5.936078e-002
1.751122e+003;5.928644e-002
1.753050e+003;5.947901e-002
1.754979e+003;5.932093e-002
1.756907e+003;5.901250e-002
1.758836e+003;5.895682e-002
1.760764e+003;5.895663e-002
1.762693e+003;5.887698e-002
1.764621e+003;5.890028e-002
1.766550e+003;5.881449e-002
1.768479e+003;5.870804e-002
1.770407e+003;5.852298e-002
1.772336e+003;5.799918e-002
1.774264e+003;5.796699e-002
1.776193e+003;5.826176e-002
1.778121e+003;5.824073e-002
1.780050e+003;5.796336e-002
1.781978e+003;5.766013e-002
1.783907e+003;5.740740e-002
1.785835e+003;5.728830e-002
1.787764e+003;5.727321e-002
1.789693e+003;5.691036e-002
1.791621e+003;5.656967e-002
1.793550e+003;5.652377e-002
1.795478e+003;5.645720e-002
1.797407e+003;5.621117e-002
1.799335e+003;5.608150e-002
1.801264e+003;5.592473e-002
1.803192e+003;5.582920e-002
1.805121e+003;5.566691e-002
1.807049e+003;5.525964e-002
1.808978e+003;5.508040e-002
1.810907e+003;5.503264e-002
1.812835e+003;5.481053e-002
1.814764e+003;5.474716e-002
1.816692e+003;5.475587e-002
1.818621e+003;5.471344e-002
1.820549e+003;5.438877e-002
1.822478e+003;5.397910e-002
1.824406e+003;5.369116e-002
1.826335e+003;5.379169e-002
1.828264e+003;5.368538e-002
1.830192e+003;5.319981e-002
1.832121e+003;5.291564e-002
1.834049e+003;5.300252e-002
1.835978e+003;5.296157e-002
1.837906e+003;5.278002e-002
1.839835e+003;5.275406e-002
1.841763e+003;5.264232e-002
1.843692e+003;5.219576e-002
1.845620e+003;5.190923e-002
1.847549e+003;5.194410e-002
1.849478e+003;5.212291e-002
1.851406e+003;5.203142e-002
1.853335e+003;5.193324e-002
1.855263e+003;5.181013e-002
1.857192e+003;5.172614e-002
1.859120e+003;5.176825e-002
1.861049e+003;5.174309e-002
1.862977e+003;5.175989e-002
1.864906e+003;5.165318e-002
1.866834e+003;5.157873e-002
1.868763e+003;5.176933e-002
1.870692e+003;5.187988e-002
1.872620e+003;5.172245e-002
1.874549e+003;5.159008e-002
1.876477e+003;5.161877e-002
1.878406e+003;5.181133e-002
1.880334e+003;5.180173e-002
1.882263e+003;5.156736e-002
1.884191e+003;5.147920e-002
1.886120e+003;5.142858e-002
1.888048e+003;5.134985e-002
1.889977e+003;5.123679e-002
1.891906e+003;5.128340e-002
1.893834e+003;5.124026e-002
1.895763e+003;5.110792e-002
1.897691e+003;5.113752e-002
1.899620e+003;5.119887e-002
1.901548e+003;5.104136e-002
1.903477e+003;5.086844e-002
1.905405e+003;5.073469e-002
1.907334e+003;5.075517e-002
1.909262e+003;5.075707e-002
1.911191e+003;5.082981e-002
1.913120e+003;5.093770e-002
1.915048e+003;5.058788e-002
1.916977e+003;5.029530e-002
1.918905e+003;5.050446e-002
1.920834e+003;5.073257e-002
1.922762e+003;5.087127e-002
1.924691e+003;5.085950e-002
1.926619e+003;5.078150e-002
1.928548e+003;5.046174e-002
1.930477e+003;5.040863e-002
1.932405e+003;5.069291e-002
1.934334e+003;5.085786e-002
1.936262e+003;5.057105e-002
1.938191e+003;5.040152e-002
1.940119e+003;5.058580e-002
1.942048e+003;5.070397e-002
1.943976e+003;5.076117e-002
1.945905e+003;5.072818e-002
1.947833e+003;5.079059e-002
1.949762e+003;5.085678e-002
1.951691e+003;5.090130e-002
1.953619e+003;5.091136e-002
1.955548e+003;5.085309e-002
1.957476e+003;5.103093e-002
1.959405e+003;5.130044e-002
1.961333e+003;5.136100e-002
1.963262e+003;5.130439e-002
1.965190e+003;5.117949e-002
1.967119e+003;5.092872e-002
1.969047e+003;5.096400e-002
1.970976e+003;5.125648e-002
1.972905e+003;5.134157e-002
1.974833e+003;5.119723e-002
1.976762e+003;5.124350e-002
1.978690e+003;5.137681e-002
1.980619e+003;5.130808e-002
1.982547e+003;5.119686e-002
1.984476e+003;5.118352e-002
1.986404e+003;5.145674e-002
1.988333e+003;5.156762e-002
1.990261e+003;5.124783e-002
1.992190e+003;5.090845e-002
1.994119e+003;5.082300e-002
1.996047e+003;5.086699e-002
1.997976e+003;5.080750e-002
1.999904e+003;5.086203e-002
2.001833e+003;5.082635e-002
2.003761e+003;5.081816e-002
2.005690e+003;5.091974e-002
2.007618e+003;5.090301e-002
2.009547e+003;5.099299e-002
2.011476e+003;5.098204e-002
2.013404e+003;5.068479e-002
2.015333e+003;5.062764e-002
2.017261e+003;5.078914e-002
2.019190e+003;5.087340e-002
2.021118e+003;5.093189e-002
2.023047e+003;5.101222e-002
2.024975e+003;5.108601e-002
2.026904e+003;5.097805e-002
2.028833e+003;5.099206e-002
2.030761e+003;5.119571e-002
2.032690e+003;5.100387e-002
2.034618e+003;5.080907e-002
2.036547e+003;5.108273e-002
2.038475e+003;5.110900e-002
2.040404e+003;5.088900e-002
2.042332e+003;5.104047e-002
2.044261e+003;5.116164e-002
2.046189e+003;5.112000e-002
2.048118e+003;5.097242e-002
2.050047e+003;5.097734e-002
2.051975e+003;5.127814e-002
2.053904e+003;5.133810e-002
2.055832e+003;5.122810e-002
2.057761e+003;5.120271e-002
2.059689e+003;5.139953e-002
2.061618e+003;5.142123e-002
2.063546e+003;5.131923e-002
2.065475e+003;5.133344e-002
2.067404e+003;5.140575e-002
2.069332e+003;5.142388e-002
2.071260e+003;5.155072e-002
2.073189e+003;5.186401e-002
2.075118e+003;5.184881e-002
2.077046e+003;5.166311e-002
2.078975e+003;5.181372e-002
2.080903e+003;5.199011e-002
2.082832e+003;5.184807e-002
2.084760e+003;5.170890e-002
2.086689e+003;5.164083e-002
2.088617e+003;5.159493e-002
2.090546e+003;5.163631e-002
2.092475e+003;5.179938e-002
2.094403e+003;5.167654e-002
2.096332e+003;5.162594e-002
2.098260e+003;5.180226e-002
2.100189e+003;5.188439e-002
2.102117e+003;5.194123e-002
2.104046e+003;5.219229e-002
2.105974e+003;5.200371e-002
2.107903e+003;5.181308e-002
2.109832e+003;5.174122e-002
2.111760e+003;5.159183e-002
2.113688e+003;5.165419e-002
2.115617e+003;5.165042e-002
2.117546e+003;5.136957e-002
2.119474e+003;5.098788e-002
2.121403e+003;5.084825e-002
2.123331e+003;5.107345e-002
2.125260e+003;5.117435e-002
2.127188e+003;5.118810e-002
2.129117e+003;5.134142e-002
2.131045e+003;5.137062e-002
2.132974e+003;5.146141e-002
2.134903e+003;5.164191e-002
2.136831e+003;5.146696e-002
2.138760e+003;5.135022e-002
2.140688e+003;5.148468e-002
2.142617e+003;5.125323e-002
2.144545e+003;5.103484e-002
2.146474e+003;5.115097e-002
2.148402e+003;5.131159e-002
2.150331e+003;5.128522e-002
2.152260e+003;5.105999e-002
2.154188e+003;5.097429e-002
2.156117e+003;5.105388e-002
2.158045e+003;5.107826e-002
2.159974e+003;5.114874e-002
2.161902e+003;5.117736e-002
2.163831e+003;5.121211e-002
2.165759e+003;5.125372e-002
2.167688e+003;5.125964e-002
2.169616e+003;5.107997e-002
2.171545e+003;5.104751e-002
2.173474e+003;5.107997e-002
2.175402e+003;5.100652e-002
2.177331e+003;5.102064e-002
2.179259e+003;5.112100e-002
2.181188e+003;5.109927e-002
2.183116e+003;5.104557e-002
2.185045e+003;5.097466e-002
2.186973e+003;5.076125e-002
2.188902e+003;5.077368e-002
2.190831e+003;5.080590e-002
2.192759e+003;5.075551e-002
2.194688e+003;5.078530e-002
2.196616e+003;5.082866e-002
2.198545e+003;5.089120e-002
2.200473e+003;5.104371e-002
2.202402e+003;5.100167e-002
2.204330e+003;5.079044e-002
2.206259e+003;5.080940e-002
2.208188e+003;5.083726e-002
2.210116e+003;5.084740e-002
2.212044e+003;5.070211e-002
2.213973e+003;5.061308e-002
2.215902e+003;5.073417e-002
2.217830e+003;5.078255e-002
2.219759e+003;5.072136e-002
2.221687e+003;5.066942e-002
2.223616e+003;5.077368e-002
2.225544e+003;5.083849e-002
2.227473e+003;5.067991e-002
2.229401e+003;5.058248e-002
2.231330e+003;5.055203e-002
2.233259e+003;5.050513e-002
2.235187e+003;5.056670e-002
2.237116e+003;5.066536e-002
2.239044e+003;5.055665e-002
2.240973e+003;5.056700e-002
2.242901e+003;5.061383e-002
2.244830e+003;5.057764e-002
2.246758e+003;5.063590e-002
2.248687e+003;5.049847e-002
2.250615e+003;5.054142e-002
2.252544e+003;5.058475e-002
2.254473e+003;5.044242e-002
2.256401e+003;5.024846e-002
2.258330e+003;5.028670e-002
2.260258e+003;5.058937e-002
2.262187e+003;5.048094e-002
2.264115e+003;5.021684e-002
2.266044e+003;5.029627e-002
2.267972e+003;5.024515e-002
2.269901e+003;5.020453e-002
2.271830e+003;5.026051e-002
2.273758e+003;5.040405e-002
2.275687e+003;5.039899e-002
2.277615e+003;5.022771e-002
2.279544e+003;5.026706e-002
2.281472e+003;5.052341e-002
2.283401e+003;5.074650e-002
2.285329e+003;5.070159e-002
2.287258e+003;5.051347e-002
2.289187e+003;5.045850e-002
2.291115e+003;5.057232e-002
2.293043e+003;5.039237e-002
2.294972e+003;5.041347e-002
2.296901e+003;5.067210e-002
2.298829e+003;5.068908e-002
2.300758e+003;5.085559e-002
2.302686e+003;5.093274e-002
2.304615e+003;5.086837e-002
2.306543e+003;5.078150e-002
2.308472e+003;5.069585e-002
2.310400e+003;5.062675e-002
2.312329e+003;5.057411e-002
2.314258e+003;5.059082e-002
2.316186e+003;5.052463e-002
2.318115e+003;5.045176e-002
2.320043e+003;5.041760e-002
2.321972e+003;5.025508e-002
2.323900e+003;5.009095e-002
2.325829e+003;4.995956e-002
2.327757e+003;4.999570e-002
2.329686e+003;5.008229e-002
2.331615e+003;4.993053e-002
2.333543e+003;4.969709e-002
2.335472e+003;4.973168e-002
2.337400e+003;4.991180e-002
2.339329e+003;4.985304e-002
2.341257e+003;4.999845e-002
2.343186e+003;5.022588e-002
2.345114e+003;5.017385e-002
2.347043e+003;5.029749e-002
2.348971e+003;5.039073e-002
2.350900e+003;5.032335e-002
2.352829e+003;5.010163e-002
2.354757e+003;4.993403e-002
2.356686e+003;4.978622e-002
2.358614e+003;4.974620e-002
2.360543e+003;4.967729e-002
2.362471e+003;4.958524e-002
2.364400e+003;4.992722e-002
2.366328e+003;5.014689e-002
2.368257e+003;5.002663e-002
2.370186e+003;5.027580e-002
2.372114e+003;5.054660e-002
2.374042e+003;5.082851e-002
2.375971e+003;5.096642e-002
2.377900e+003;5.097667e-002
2.379828e+003;5.116130e-002
2.381757e+003;5.122445e-002
2.383685e+003;5.148599e-002
2.385614e+003;5.200042e-002
2.387542e+003;5.218765e-002
2.389471e+003;5.204830e-002
2.391399e+003;5.185161e-002
2.393328e+003;5.194668e-002
2.395257e+003;5.206112e-002
2.397185e+003;5.206306e-002
2.399114e+003;5.234110e-002
2.401042e+003;5.259591e-002
2.402971e+003;5.243284e-002
2.404899e+003;5.229532e-002
2.406828e+003;5.263764e-002
2.408756e+003;5.315255e-002
2.410685e+003;5.342694e-002
2.412614e+003;5.344778e-002
2.414542e+003;5.364306e-002
2.416471e+003;5.359496e-002
2.418399e+003;5.374077e-002
2.420328e+003;5.420022e-002
2.422256e+003;5.447865e-002
2.424185e+003;5.454912e-002
2.426113e+003;5.459222e-002
2.428042e+003;5.488933e-002
2.429970e+003;5.537785e-002
2.431899e+003;5.541173e-002
2.433828e+003;5.526814e-002
2.435756e+003;5.538519e-002
2.437685e+003;5.551722e-002
2.439613e+003;5.553149e-002
2.441542e+003;5.568307e-002
2.443470e+003;5.583293e-002
2.445399e+003;5.585290e-002
2.447327e+003;5.604802e-002
2.449256e+003;5.621453e-002
2.451185e+003;5.602608e-002
2.453113e+003;5.594090e-002
2.455042e+003;5.602457e-002
2.456970e+003;5.620174e-002
2.458899e+003;5.625523e-002
2.460827e+003;5.610767e-002
2.462756e+003;5.620243e-002
2.464684e+003;5.651445e-002
2.466613e+003;5.652064e-002
2.468542e+003;5.630992e-002
2.470470e+003;5.636492e-002
2.472398e+003;5.657661e-002
2.474327e+003;5.665124e-002
2.476256e+003;5.667982e-002
2.478184e+003;5.667015e-002
2.480113e+003;5.668703e-002
2.482041e+003;5.695448e-002
2.483970e+003;5.698161e-002
2.485898e+003;5.685650e-002
2.487827e+003;5.709802e-002
2.489755e+003;5.731854e-002
2.491684e+003;5.732301e-002
2.493613e+003;5.721734e-002
2.495541e+003;5.728376e-002
2.497470e+003;5.742835e-002
2.499398e+003;5.750691e-002
2.501327e+003;5.731117e-002
2.503255e+003;5.720641e-002
2.505184e+003;5.743781e-002
2.507112e+003;5.755537e-002
2.509041e+003;5.764794e-002
2.510969e+003;5.790278e-002
2.512898e+003;5.775299e-002
2.514827e+003;5.741440e-002
2.516755e+003;5.751311e-002
2.518684e+003;5.776696e-002
2.520612e+003;5.778649e-002
2.522541e+003;5.800596e-002
2.524469e+003;5.815174e-002
2.526398e+003;5.809579e-002
2.528326e+003;5.799403e-002
2.530255e+003;5.805110e-002
2.532184e+003;5.816723e-002
2.534112e+003;5.810969e-002
2.536041e+003;5.810155e-002
2.537969e+003;5.813647e-002
2.539898e+003;5.828233e-002
2.541826e+003;5.864030e-002
2.543755e+003;5.887808e-002
2.545683e+003;5.880618e-002
2.547612e+003;5.880868e-002
2.549541e+003;5.896874e-002
2.551469e+003;5.905737e-002
2.553397e+003;5.938205e-002
2.555326e+003;5.968059e-002
2.557255e+003;5.964463e-002
2.559183e+003;5.950800e-002
2.561112e+003;5.965110e-002
2.563040e+003;5.989950e-002
2.564969e+003;6.012160e-002
2.566897e+003;6.026855e-002
2.568826e+003;6.033837e-002
2.570754e+003;6.057711e-002
2.572683e+003;6.085582e-002
2.574612e+003;6.098689e-002
2.576540e+003;6.123774e-002
2.578469e+003;6.138610e-002
2.580397e+003;6.133591e-002
2.582326e+003;6.147301e-002
2.584254e+003;6.196555e-002
2.586183e+003;6.226791e-002
2.588111e+003;6.260338e-002
2.590040e+003;6.290051e-002
2.591969e+003;6.291985e-002
2.593897e+003;6.296654e-002
2.595826e+003;6.275894e-002
2.597754e+003;6.265540e-002
2.599683e+003;6.307063e-002
2.601611e+003;6.361876e-002
2.603540e+003;6.375486e-002
2.605468e+003;6.364604e-002
2.607397e+003;6.378660e-002
2.609325e+003;6.408606e-002
2.611254e+003;6.400052e-002
2.613183e+003;6.395137e-002
2.615111e+003;6.415005e-002
2.617040e+003;6.413677e-002
2.618968e+003;6.417794e-002
2.620897e+003;6.433606e-002
2.622825e+003;6.439271e-002
2.624754e+003;6.434386e-002
2.626682e+003;6.416477e-002
2.628611e+003;6.404179e-002
2.630540e+003;6.394976e-002
2.632468e+003;6.398815e-002
2.634396e+003;6.426687e-002
2.636325e+003;6.427006e-002
2.638254e+003;6.413173e-002
2.640182e+003;6.383307e-002
2.642111e+003;6.359698e-002
2.644039e+003;6.389801e-002
2.645968e+003;6.412175e-002
2.647896e+003;6.421270e-002
2.649825e+003;6.421857e-002
2.651753e+003;6.403518e-002
2.653682e+003;6.424059e-002
2.655611e+003;6.446876e-002
2.657539e+003;6.452066e-002
2.659468e+003;6.454914e-002
2.661396e+003;6.459381e-002
2.663325e+003;6.460769e-002
2.665253e+003;6.457525e-002
2.667182e+003;6.480967e-002
2.669110e+003;6.504320e-002
2.671039e+003;6.518535e-002
2.672968e+003;6.522859e-002
2.674896e+003;6.533456e-002
2.676825e+003;6.564898e-002
2.678753e+003;6.566960e-002
2.680682e+003;6.573309e-002
2.682610e+003;6.602700e-002
2.684539e+003;6.614417e-002
2.686467e+003;6.642477e-002
2.688396e+003;6.660068e-002
2.690324e+003;6.665649e-002
2.692253e+003;6.726063e-002
2.694182e+003;6.777184e-002
2.696110e+003;6.762709e-002
2.698039e+003;6.734211e-002
2.699967e+003;6.719568e-002
2.701896e+003;6.737956e-002
2.703824e+003;6.781022e-002
2.705753e+003;6.827988e-002
2.707681e+003;6.841698e-002
2.709610e+003;6.838358e-002
2.711539e+003;6.865058e-002
2.713467e+003;6.880518e-002
2.715396e+003;6.885204e-002
2.717324e+003;6.869820e-002
2.719253e+003;6.868337e-002
2.721181e+003;6.918413e-002
2.723110e+003;6.960764e-002
2.725038e+003;6.979576e-002
2.726967e+003;7.021473e-002
2.728896e+003;7.045853e-002
2.730824e+003;7.026038e-002
2.732752e+003;7.019883e-002
2.734681e+003;7.053831e-002
2.736610e+003;7.079416e-002
2.738538e+003;7.091102e-002
2.740467e+003;7.108551e-002
2.742395e+003;7.121561e-002
2.744324e+003;7.136550e-002
2.746252e+003;7.159722e-002
2.748181e+003;7.193094e-002
2.750109e+003;7.223476e-002
2.752038e+003;7.245547e-002
2.753967e+003;7.255375e-002
2.755895e+003;7.272828e-002
2.757824e+003;7.274301e-002
2.759752e+003;7.266662e-002
2.761681e+003;7.277431e-002
2.763609e+003;7.294097e-002
2.765538e+003;7.318635e-002
2.767466e+003;7.337078e-002
2.769395e+003;7.354948e-002
2.771323e+003;7.388279e-002
2.773252e+003;7.401663e-002
2.775181e+003;7.429454e-002
2.777109e+003;7.446132e-002
2.779038e+003;7.428582e-002
2.780966e+003;7.410202e-002
2.782895e+003;7.421946e-002
2.784823e+003;7.465161e-002
2.786752e+003;7.479107e-002
2.788680e+003;7.473724e-002
2.790609e+003;7.478990e-002
2.792538e+003;7.491186e-002
2.794466e+003;7.506866e-002
2.796395e+003;7.544173e-002
2.798323e+003;7.586823e-002
2.800252e+003;7.589806e-002
2.802180e+003;7.578675e-002
2.804109e+003;7.589912e-002
2.806037e+003;7.627500e-002
2.807966e+003;7.627855e-002
2.809895e+003;7.614969e-002
2.811823e+003;7.612246e-002
2.813751e+003;7.628937e-002
2.815680e+003;7.657108e-002
2.817609e+003;7.667195e-002
2.819537e+003;7.704909e-002
2.821466e+003;7.730140e-002
2.823394e+003;7.733362e-002
2.825323e+003;7.752711e-002
2.827251e+003;7.748663e-002
2.829180e+003;7.737167e-002
2.831108e+003;7.772861e-002
2.833037e+003;7.800971e-002
2.834966e+003;7.816562e-002
2.836894e+003;7.841203e-002
2.838823e+003;7.841440e-002
2.840751e+003;7.852798e-002
2.842680e+003;7.888193e-002
2.844608e+003;7.899352e-002
2.846537e+003;7.856510e-002
2.848465e+003;7.827607e-002
2.850394e+003;7.860266e-002
2.852323e+003;7.939970e-002
2.854251e+003;8.049509e-002
2.856180e+003;8.141769e-002
2.858108e+003;8.241426e-002
2.860037e+003;8.312086e-002
2.861965e+003;8.355605e-002
2.863894e+003;8.446159e-002
2.865822e+003;8.517016e-002
2.867751e+003;8.562396e-002
2.869679e+003;8.637138e-002
2.871608e+003;8.693870e-002
2.873536e+003;8.716519e-002
2.875465e+003;8.731867e-002
2.877394e+003;8.730959e-002
2.879322e+003;8.702201e-002
2.881251e+003;8.664000e-002
2.883179e+003;8.627211e-002
2.885108e+003;8.641876e-002
2.887036e+003;8.662070e-002
2.888965e+003;8.606619e-002
2.890893e+003;8.554350e-002
2.892822e+003;8.553922e-002
2.894750e+003;8.590855e-002
2.896679e+003;8.601470e-002
2.898608e+003;8.596275e-002
2.900536e+003;8.652461e-002
2.902465e+003;8.687026e-002
2.904393e+003;8.678941e-002
2.906322e+003;8.698647e-002
2.908250e+003;8.717677e-002
2.910179e+003;8.717281e-002
2.912107e+003;8.719382e-002
2.914036e+003;8.698161e-002
2.915965e+003;8.690927e-002
2.917893e+003;8.739240e-002
2.919822e+003;8.820319e-002
2.921750e+003;8.926505e-002
2.923679e+003;9.006479e-002
2.925607e+003;9.095309e-002
2.927536e+003;9.191342e-002
2.929464e+003;9.249780e-002
2.931393e+003;9.271880e-002
2.933322e+003;9.265875e-002
2.935250e+003;9.267959e-002
2.937178e+003;9.281550e-002
2.939107e+003;9.258301e-002
2.941036e+003;9.209263e-002
2.942964e+003;9.175058e-002
2.944893e+003;9.109348e-002
2.946821e+003;9.054916e-002
2.948750e+003;9.010829e-002
2.950678e+003;8.959134e-002
2.952607e+003;8.928413e-002
2.954535e+003;8.910482e-002
2.956464e+003;8.899349e-002
2.958393e+003;8.893656e-002
2.960321e+003;8.883332e-002
2.962250e+003;8.895392e-002
2.964178e+003;8.938915e-002
2.966107e+003;8.994111e-002
2.968035e+003;9.017247e-002
2.969964e+003;9.006821e-002
2.971892e+003;8.976120e-002
2.973821e+003;8.989485e-002
2.975750e+003;8.986428e-002
2.977678e+003;8.960168e-002
2.979607e+003;8.962213e-002
2.981535e+003;8.985418e-002
2.983464e+003;8.966991e-002
2.985392e+003;8.892086e-002
2.987321e+003;8.821768e-002
2.989249e+003;8.795916e-002
2.991178e+003;8.780412e-002
2.993106e+003;8.735683e-002
2.995035e+003;8.683109e-002
2.996964e+003;8.648090e-002
2.998892e+003;8.586179e-002
3.000821e+003;8.567211e-002
3.002749e+003;8.588623e-002
3.004678e+003;8.562133e-002
3.006606e+003;8.522229e-002
3.008535e+003;8.517254e-002
3.010463e+003;8.553805e-002
3.012392e+003;8.574044e-002
3.014321e+003;8.563748e-002
3.016249e+003;8.573334e-002
3.018177e+003;8.595322e-002
3.020106e+003;8.605997e-002
3.022035e+003;8.627958e-002
3.023963e+003;8.678079e-002
3.025892e+003;8.716669e-002
3.027820e+003;8.749096e-002
3.029749e+003;8.775983e-002
3.031677e+003;8.813629e-002
3.033606e+003;8.855030e-002
3.035534e+003;8.893237e-002
3.037463e+003;8.931009e-002
3.039392e+003;8.959582e-002
3.041320e+003;8.995015e-002
3.043249e+003;9.068611e-002
3.045177e+003;9.132370e-002
3.047106e+003;9.164701e-002
3.049034e+003;9.225040e-002
3.050963e+003;9.292316e-002
3.052891e+003;9.311252e-002
3.054820e+003;9.353101e-002
3.056749e+003;9.397776e-002
3.058677e+003;9.424125e-002
3.060606e+003;9.486607e-002
3.062534e+003;9.533586e-002
3.064463e+003;9.554423e-002
3.066391e+003;9.585284e-002
3.068320e+003;9.597808e-002
3.070248e+003;9.585709e-002
3.072177e+003;9.599664e-002
3.074105e+003;9.618912e-002
3.076034e+003;9.607137e-002
3.077963e+003;9.578710e-002
3.079891e+003;9.555500e-002
3.081820e+003;9.534823e-002
3.083748e+003;9.511538e-002
3.085677e+003;9.526756e-002
3.087605e+003;9.511406e-002
3.089534e+003;9.470298e-002
3.091462e+003;9.444617e-002
3.093391e+003;9.410843e-002
3.095320e+003;9.384605e-002
3.097248e+003;9.370028e-002
3.099177e+003;9.338925e-002
3.101105e+003;9.293880e-002
3.103034e+003;9.244365e-002
3.104962e+003;9.243401e-002
3.106891e+003;9.257817e-002
3.108819e+003;9.227233e-002
3.110748e+003;9.199450e-002
3.112677e+003;9.190208e-002
3.114605e+003;9.166984e-002
3.116533e+003;9.121066e-002
3.118462e+003;9.128163e-002
3.120391e+003;9.139980e-002
3.122319e+003;9.131917e-002
3.124248e+003;9.130886e-002
3.126176e+003;9.118164e-002
3.128105e+003;9.115348e-002
3.130033e+003;9.149572e-002
3.131962e+003;9.172186e-002
3.133890e+003;9.181046e-002
3.135819e+003;9.215764e-002
3.137748e+003;9.254450e-002
3.139676e+003;9.285410e-002
3.141605e+003;9.280437e-002
3.143533e+003;9.269911e-002
3.145462e+003;9.325304e-002
3.147390e+003;9.368647e-002
3.149319e+003;9.389898e-002
3.151247e+003;9.433050e-002
3.153176e+003;9.471707e-002
3.155104e+003;9.507636e-002
3.157033e+003;9.558217e-002
3.158962e+003;9.599829e-002
3.160890e+003;9.687737e-002
3.162819e+003;9.739209e-002
3.164747e+003;9.726212e-002
3.166676e+003;9.776277e-002
3.168604e+003;9.889055e-002
3.170533e+003;9.949490e-002
3.172461e+003;9.989815e-002
3.174390e+003;1.008869e-001
3.176319e+003;1.018322e-001
3.178247e+003;1.025123e-001
3.180176e+003;1.030550e-001
3.182104e+003;1.036179e-001
3.184033e+003;1.045732e-001
3.185961e+003;1.051951e-001
3.187890e+003;1.058509e-001
3.189818e+003;1.066172e-001
3.191747e+003;1.072938e-001
3.193676e+003;1.080908e-001
3.195604e+003;1.089308e-001
3.197532e+003;1.099061e-001
3.199461e+003;1.106149e-001
3.201390e+003;1.108356e-001
3.203318e+003;1.116341e-001
3.205247e+003;1.127665e-001
3.207175e+003;1.137634e-001
3.209104e+003;1.151377e-001
3.211032e+003;1.162141e-001
3.212961e+003;1.169617e-001
3.214889e+003;1.177647e-001
3.216818e+003;1.186266e-001
3.218747e+003;1.192680e-001
3.220675e+003;1.201618e-001
3.222604e+003;1.212432e-001
3.224532e+003;1.223572e-001
3.226461e+003;1.232595e-001
3.228389e+003;1.241798e-001
3.230318e+003;1.254236e-001
3.232246e+003;1.268086e-001
3.234175e+003;1.282526e-001
3.236104e+003;1.294914e-001
3.238032e+003;1.304360e-001
3.239961e+003;1.319015e-001
3.241889e+003;1.336994e-001
3.243818e+003;1.351066e-001
3.245746e+003;1.362932e-001
3.247675e+003;1.377984e-001
3.249603e+003;1.398173e-001
3.251532e+003;1.417281e-001
3.253460e+003;1.434125e-001
3.255389e+003;1.452508e-001
3.257318e+003;1.471954e-001
3.259246e+003;1.494950e-001
3.261175e+003;1.518677e-001
3.263103e+003;1.537546e-001
3.265032e+003;1.557219e-001
3.266960e+003;1.577746e-001
3.268889e+003;1.597061e-001
3.270817e+003;1.614004e-001
3.272746e+003;1.628788e-001
3.274675e+003;1.639776e-001
3.276603e+003;1.654614e-001
3.278531e+003;1.667086e-001
3.280460e+003;1.667227e-001
3.282389e+003;1.663683e-001
3.284317e+003;1.655461e-001
3.286246e+003;1.645614e-001
3.288174e+003;1.638289e-001
3.290103e+003;1.629052e-001
3.292031e+003;1.611553e-001
3.293960e+003;1.588213e-001
3.295888e+003;1.566419e-001
3.297817e+003;1.548470e-001
3.299746e+003;1.530035e-001
3.301674e+003;1.506281e-001
3.303603e+003;1.481584e-001
3.305531e+003;1.457871e-001
3.307460e+003;1.435931e-001
3.309388e+003;1.412487e-001
3.311317e+003;1.385669e-001
3.313245e+003;1.360186e-001
3.315174e+003;1.342621e-001
3.317103e+003;1.325411e-001
3.319031e+003;1.305771e-001
3.320960e+003;1.285662e-001
3.322888e+003;1.261910e-001
3.324817e+003;1.239614e-001
3.326745e+003;1.221778e-001
3.328674e+003;1.201834e-001
3.330602e+003;1.183947e-001
3.332531e+003;1.168381e-001
3.334459e+003;1.155519e-001
3.336388e+003;1.143046e-001
3.338317e+003;1.126986e-001
3.340245e+003;1.111253e-001
3.342174e+003;1.098458e-001
3.344102e+003;1.083166e-001
3.346031e+003;1.067463e-001
3.347959e+003;1.054581e-001
3.349888e+003;1.044422e-001
3.351816e+003;1.037081e-001
3.353745e+003;1.030603e-001
3.355674e+003;1.021018e-001
3.357602e+003;1.008615e-001
3.359531e+003;9.993168e-002
3.361459e+003;9.909602e-002
3.363388e+003;9.840079e-002
3.365316e+003;9.778398e-002
3.367245e+003;9.719788e-002
3.369173e+003;9.675564e-002
3.371102e+003;9.629920e-002
3.373031e+003;9.556751e-002
3.374959e+003;9.453703e-002
3.376887e+003;9.387953e-002
3.378816e+003;9.344221e-002
3.380745e+003;9.318007e-002
3.382673e+003;9.298272e-002
3.384602e+003;9.267569e-002
3.386530e+003;9.240868e-002
3.388459e+003;9.181157e-002
3.390387e+003;9.101270e-002
3.392316e+003;9.043892e-002
3.394244e+003;9.002235e-002
3.396173e+003;8.979473e-002
3.398102e+003;8.942236e-002
3.400030e+003;8.892493e-002
3.401959e+003;8.843172e-002
3.403887e+003;8.776466e-002
3.405816e+003;8.696198e-002
3.407744e+003;8.644883e-002
3.409673e+003;8.629049e-002
3.411601e+003;8.615620e-002
3.413530e+003;8.554854e-002
3.415458e+003;8.475872e-002
3.417387e+003;8.399249e-002
3.419316e+003;8.360590e-002
3.421244e+003;8.348593e-002
3.423173e+003;8.336275e-002
3.425101e+003;8.303183e-002
3.427030e+003;8.265936e-002
3.428958e+003;8.206394e-002
3.430887e+003;8.142048e-002
3.432815e+003;8.090790e-002
3.434744e+003;8.050151e-002
3.436673e+003;8.014232e-002
3.438601e+003;7.982249e-002
3.440530e+003;7.954667e-002
3.442458e+003;7.923523e-002
3.444387e+003;7.897953e-002
3.446315e+003;7.897449e-002
3.448244e+003;7.862180e-002
3.450172e+003;7.825365e-002
3.452101e+003;7.772521e-002
3.454030e+003;7.739884e-002
3.455958e+003;7.782627e-002
3.457886e+003;7.784268e-002
3.459815e+003;7.710425e-002
3.461744e+003;7.630438e-002
3.463672e+003;7.578470e-002
3.465601e+003;7.613781e-002
3.467529e+003;7.642226e-002
3.469458e+003;7.597280e-002
3.471386e+003;7.544678e-002
3.473315e+003;7.544945e-002
3.475243e+003;7.541326e-002
3.477172e+003;7.522907e-002
3.479101e+003;7.521071e-002
3.481029e+003;7.491560e-002
3.482958e+003;7.456363e-002
3.484886e+003;7.471201e-002
3.486815e+003;7.457992e-002
3.488743e+003;7.415378e-002
3.490672e+003;7.386119e-002
3.492600e+003;7.348163e-002
3.494529e+003;7.350160e-002
3.496458e+003;7.312847e-002
3.498386e+003;7.217877e-002
3.500315e+003;7.204788e-002
3.502243e+003;7.267680e-002
3.504172e+003;7.268053e-002
3.506100e+003;7.216410e-002
3.508029e+003;7.191437e-002
3.509957e+003;7.187007e-002
3.511886e+003;7.188254e-002
3.513814e+003;7.164168e-002
3.515743e+003;7.111045e-002
3.517672e+003;7.082969e-002
3.519600e+003;7.081810e-002
3.521529e+003;7.087455e-002
3.523457e+003;7.062474e-002
3.525386e+003;7.017177e-002
3.527314e+003;7.006792e-002
3.529243e+003;7.021029e-002
3.531171e+003;6.982495e-002
3.533100e+003;6.926224e-002
3.535029e+003;6.881729e-002
3.536957e+003;6.859489e-002
3.538885e+003;6.871601e-002
3.540814e+003;6.855489e-002
3.542743e+003;6.852870e-002
3.544671e+003;6.879268e-002
3.546600e+003;6.815458e-002
3.548528e+003;6.748010e-002
3.550457e+003;6.706501e-002
3.552385e+003;6.680895e-002
3.554314e+003;6.650265e-002
3.556242e+003;6.624651e-002
3.558171e+003;6.622783e-002
3.560100e+003;6.631714e-002
3.562028e+003;6.604455e-002
3.563957e+003;6.533025e-002
3.565885e+003;6.465876e-002
3.567814e+003;6.467110e-002
3.569742e+003;6.495599e-002
3.571671e+003;6.493544e-002
3.573599e+003;6.454538e-002
3.575528e+003;6.418942e-002
3.577457e+003;6.411982e-002
3.579385e+003;6.400612e-002
3.581314e+003;6.398162e-002
3.583242e+003;6.345649e-002
3.585171e+003;6.276197e-002
3.587099e+003;6.243712e-002
3.589028e+003;6.258792e-002
3.590956e+003;6.226504e-002
3.592885e+003;6.197473e-002
3.594813e+003;6.190361e-002
3.596742e+003;6.164275e-002
3.598671e+003;6.144159e-002
3.600599e+003;6.118952e-002
3.602528e+003;6.115385e-002
3.604456e+003;6.078416e-002
3.606385e+003;5.998151e-002
3.608313e+003;5.947365e-002
3.610242e+003;5.926365e-002
3.612170e+003;5.920954e-002
3.614099e+003;5.920494e-002
3.616028e+003;5.909332e-002
3.617956e+003;5.881798e-002
3.619885e+003;5.819390e-002
3.621813e+003;5.785220e-002
3.623742e+003;5.781851e-002
3.625670e+003;5.768714e-002
3.627599e+003;5.661383e-002
3.629527e+003;5.579759e-002
3.631456e+003;5.587566e-002
3.633385e+003;5.619556e-002
3.635313e+003;5.662123e-002
3.637241e+003;5.635684e-002
3.639170e+003;5.576067e-002
3.641099e+003;5.526050e-002
3.643027e+003;5.464073e-002
3.644956e+003;5.393257e-002
3.646884e+003;5.326344e-002
3.648813e+003;5.237751e-002
3.650741e+003;5.182522e-002
3.652670e+003;5.173652e-002
3.654598e+003;5.165020e-002
3.656527e+003;5.108388e-002
3.658456e+003;5.034098e-002
3.660384e+003;4.977192e-002
3.662313e+003;4.910857e-002
3.664241e+003;4.843234e-002
3.666170e+003;4.807002e-002
3.668098e+003;4.745443e-002
3.670027e+003;4.664687e-002
3.671955e+003;4.640147e-002
3.673884e+003;4.584762e-002
3.675813e+003;4.492952e-002
3.677741e+003;4.481475e-002
3.679669e+003;4.475340e-002
3.681598e+003;4.417690e-002
3.683527e+003;4.332733e-002
3.685455e+003;4.272405e-002
3.687384e+003;4.225079e-002
3.689312e+003;4.178425e-002
3.691241e+003;4.173135e-002
3.693169e+003;4.147136e-002
3.695098e+003;4.082325e-002
3.697026e+003;4.061546e-002
3.698955e+003;4.067498e-002
3.700884e+003;4.057191e-002
3.702812e+003;4.043886e-002
3.704741e+003;4.026135e-002
3.706669e+003;3.998494e-002
3.708598e+003;3.958543e-002
3.710526e+003;3.907530e-002
3.712455e+003;3.880221e-002
3.714383e+003;3.893020e-002
3.716312e+003;3.876355e-002
3.718240e+003;3.862211e-002
3.720169e+003;3.850381e-002
3.722098e+003;3.825808e-002
3.724026e+003;3.789630e-002
3.725955e+003;3.793141e-002
3.727883e+003;3.821328e-002
3.729812e+003;3.809694e-002
3.731740e+003;3.788343e-002
3.733669e+003;3.772268e-002
3.735597e+003;3.749087e-002
3.737526e+003;3.769312e-002
3.739455e+003;3.783513e-002
3.741383e+003;3.767184e-002
3.743312e+003;3.704182e-002
3.745240e+003;3.680391e-002
3.747169e+003;3.679850e-002
3.749097e+003;3.657842e-002
3.751026e+003;3.664472e-002
3.752954e+003;3.675364e-002
3.754883e+003;3.684665e-002
3.756812e+003;3.697673e-002
3.758740e+003;3.721542e-002
3.760668e+003;3.744857e-002
3.762597e+003;3.749040e-002
3.764526e+003;3.727405e-002
3.766454e+003;3.721394e-002
3.768383e+003;3.683038e-002
3.770311e+003;3.692016e-002
3.772240e+003;3.702335e-002
3.774168e+003;3.719755e-002
3.776097e+003;3.724358e-002
3.778025e+003;3.699199e-002
3.779954e+003;3.717517e-002
3.781883e+003;3.739895e-002
3.783811e+003;3.721816e-002
3.785740e+003;3.710901e-002
3.787668e+003;3.681210e-002
3.789597e+003;3.679421e-002
3.791525e+003;3.724419e-002
3.793454e+003;3.742636e-002
3.795382e+003;3.719961e-002
3.797311e+003;3.689498e-002
3.799240e+003;3.638191e-002
3.801168e+003;3.585149e-002
3.803097e+003;3.636505e-002
3.805025e+003;3.695512e-002
3.806954e+003;3.673951e-002
3.808882e+003;3.672032e-002
3.810811e+003;3.720351e-002
3.812739e+003;3.750922e-002
3.814668e+003;3.664720e-002
3.816596e+003;3.644684e-002
3.818525e+003;3.708123e-002
3.820454e+003;3.691872e-002
3.822382e+003;3.699827e-002
3.824311e+003;3.746331e-002
3.826239e+003;3.725935e-002
3.828168e+003;3.712666e-002
3.830096e+003;3.735785e-002
3.832025e+003;3.768770e-002
3.833953e+003;3.778319e-002
3.835882e+003;3.731622e-002
3.837811e+003;3.708090e-002
3.839739e+003;3.731943e-002
3.841667e+003;3.718892e-002
3.843596e+003;3.740415e-002
3.845525e+003;3.797422e-002
3.847453e+003;3.821599e-002
3.849382e+003;3.794327e-002
3.851310e+003;3.720047e-002
3.853239e+003;3.662716e-002
3.855167e+003;3.743748e-002
3.857096e+003;3.832676e-002
3.859024e+003;3.804956e-002
3.860953e+003;3.802142e-002
3.862882e+003;3.822562e-002
3.864810e+003;3.833313e-002
3.866739e+003;3.871780e-002
3.868667e+003;3.831402e-002
3.870596e+003;3.762136e-002
3.872524e+003;3.774758e-002
3.874453e+003;3.846771e-002
3.876381e+003;3.918233e-002
3.878310e+003;3.950613e-002
3.880239e+003;3.932091e-002
3.882167e+003;3.915909e-002
3.884096e+003;3.932693e-002
3.886024e+003;3.914730e-002
3.887953e+003;3.933067e-002
3.889881e+003;3.960844e-002
3.891810e+003;3.995250e-002
3.893738e+003;4.059927e-002
3.895667e+003;4.057362e-002
3.897595e+003;3.990230e-002
3.899524e+003;3.969426e-002
3.901453e+003;4.006796e-002
3.903381e+003;4.036260e-002
3.905310e+003;4.045577e-002
3.907238e+003;4.074737e-002
3.909167e+003;4.102284e-002
3.911095e+003;4.111885e-002
3.913024e+003;4.099666e-002
3.914952e+003;4.093337e-002
3.916881e+003;4.075239e-002
3.918810e+003;4.088055e-002
3.920738e+003;4.120926e-002
3.922667e+003;4.142218e-002
3.924595e+003;4.141399e-002
3.926524e+003;4.176637e-002
3.928452e+003;4.196173e-002
3.930381e+003;4.179089e-002
3.932309e+003;4.148040e-002
3.934238e+003;4.165319e-002
3.936167e+003;4.199654e-002
3.938095e+003;4.164032e-002
3.940023e+003;4.116303e-002
3.941952e+003;4.135552e-002
3.943881e+003;4.219481e-002
3.945809e+003;4.237775e-002
3.947738e+003;4.227500e-002
3.949666e+003;4.209116e-002
3.951595e+003;4.215391e-002
3.953523e+003;4.286449e-002
3.955452e+003;4.314293e-002
3.957380e+003;4.296003e-002
3.959309e+003;4.260295e-002
3.961238e+003;4.229279e-002
3.963166e+003;4.240263e-002
3.965095e+003;4.273779e-002
3.967023e+003;4.301567e-002
3.968952e+003;4.322784e-002
3.970880e+003;4.313667e-002
3.972809e+003;4.300071e-002
3.974737e+003;4.362994e-002
3.976666e+003;4.390073e-002
3.978594e+003;4.327754e-002
3.980523e+003;4.313528e-002
3.982452e+003;4.284522e-002
3.984380e+003;4.251330e-002
3.986309e+003;4.278141e-002
3.988237e+003;4.317370e-002
3.990166e+003;4.377127e-002
3.992094e+003;4.377409e-002
3.994023e+003;4.343080e-002
3.995951e+003;4.357250e-002
3.997880e+003;4.368798e-002
3.999809e+003;4.375211e-002
4.001737e+003;0.000000e+000
