3.992094e+002;0.000000e+000
4.011380e+002;0.000000e+000
4.030665e+002;0.000000e+000
4.049951e+002;0.000000e+000
4.069236e+002;0.000000e+000
4.088522e+002;0.000000e+000
4.107807e+002;0.000000e+000
4.127093e+002;0.000000e+000
4.146378e+002;0.000000e+000
4.165664e+002;0.000000e+000
4.184949e+002;0.000000e+000
4.204235e+002;0.000000e+000
4.223520e+002;0.000000e+000
4.242806e+002;0.000000e+000
4.262091e+002;0.000000e+000
4.281377e+002;0.000000e+000
4.300662e+002;0.000000e+000
4.319948e+002;0.000000e+000
4.339233e+002;0.000000e+000
4.358519e+002;0.000000e+000
4.377804e+002;0.000000e+000
4.397090e+002;0.000000e+000
4.416375e+002;0.000000e+000
4.435660e+002;0.000000e+000
4.454946e+002;0.000000e+000
4.474232e+002;0.000000e+000
4.493517e+002;0.000000e+000
4.512802e+002;0.000000e+000
4.532088e+002;0.000000e+000
4.551373e+002;0.000000e+000
4.570659e+002;0.000000e+000
4.589944e+002;0.000000e+000
4.609230e+002;0.000000e+000
4.628515e+002;0.000000e+000
4.647801e+002;0.000000e+000
4.667086e+002;0.000000e+000
4.686372e+002;0.000000e+000
4.705657e+002;0.000000e+000
4.724943e+002;0.000000e+000
4.744228e+002;0.000000e+000
4.763513e+002;0.000000e+000
4.782799e+002;0.000000e+000
4.802085e+002;0.000000e+000
4.821370e+002;0.000000e+000
4.840656e+002;0.000000e+000
4.859941e+002;0.000000e+000
4.879226e+002;0.000000e+000
4.898512e+002;0.000000e+000
4.917798e+002;0.000000e+000
4.937083e+002;0.000000e+000
4.956368e+002;0.000000e+000
4.975654e+002;0.000000e+000
4.994939e+002;0.000000e+000
5.014225e+002;0.000000e+000
5.033510e+002;0.000000e+000
5.052796e+002;0.000000e+000
5.072081e+002;0.000000e+000
5.091367e+002;0.000000e+000
5.110652e+002;0.000000e+000
5.129938e+002;0.000000e+000
5.149223e+002;0.000000e+000
5.168509e+002;0.000000e+000
5.187794e+002;0.000000e+000
5.207079e+002;0.000000e+000
5.226365e+002;0.000000e+000
5.245651e+002;0.000000e+000
5.264936e+002;0.000000e+000
5.284222e+002;0.000000e+000
5.303507e+002;0.000000e+000
5.322792e+002;0.000000e+000
5.342078e+002;0.000000e+000
5.361364e+002;0.000000e+000
5.380649e+002;0.000000e+000
5.399935e+002;0.000000e+000
5.419220e+002;0.000000e+000
5.438505e+002;0.000000e+000
5.457791e+002;0.000000e+000
5.477076e+002;0.000000e+000
5.496362e+002;0.000000e+000
5.515648e+002;0.000000e+000
5.534933e+002;0.000000e+000
5.554218e+002;0.000000e+000
5.573504e+002;0.000000e+000
5.592789e+002;0.000000e+000
5.612075e+002;0.000000e+000
5.631360e+002;0.000000e+000
5.650646e+002;0.000000e+000
5.669931e+002;0.000000e+000
5.689217e+002;0.000000e+000
5.708502e+002;0.000000e+000
5.727787e+002;0.000000e+000
5.747073e+002;0.000000e+000
5.766359e+002;0.000000e+000
5.785644e+002;0.000000e+000
5.804930e+002;0.000000e+000
5.824215e+002;0.000000e+000
5.843500e+002;0.000000e+000
5.862786e+002;0.000000e+000
5.882072e+002;0.000000e+000
5.901357e+002;0.000000e+000
5.920643e+002;0.000000e+000
5.939928e+002;0.000000e+000
5.959213e+002;0.000000e+000
5.978499e+002;0.000000e+000
5.997784e+002;2.830600e-001
6.017070e+002;2.862257e-001
6.036355e+002;2.873337e-001
6.055641e+002;2.889127e-001
6.074926e+002;2.896996e-001
6.094211e+002;2.855420e-001
6.113497e+002;2.804100e-001
6.132783e+002;2.782058e-001
6.152068e+002;2.819258e-001
6.171354e+002;2.846371e-001
6.190639e+002;2.836731e-001
6.209924e+002;2.831230e-001
6.229210e+002;2.815983e-001
6.248495e+002;2.839766e-001
6.267781e+002;2.850068e-001
6.287067e+002;2.781106e-001
6.306352e+002;2.716965e-001
6.325637e+002;2.708800e-001
6.344923e+002;2.717447e-001
6.364208e+002;2.708919e-001
6.383494e+002;2.663085e-001
6.402780e+002;2.622868e-001
6.422065e+002;2.612292e-001
6.441350e+002;2.639292e-001
6.460636e+002;2.637202e-001
6.479921e+002;2.597787e-001
6.499207e+002;2.578465e-001
6.518492e+002;2.571917e-001
6.537778e+002;2.548619e-001
6.557063e+002;2.524888e-001
6.576349e+002;2.526378e-001
6.595634e+002;2.564591e-001
6.614919e+002;2.594038e-001
6.634205e+002;2.582603e-001
6.653491e+002;2.558623e-001
6.672776e+002;2.555862e-001
6.692062e+002;2.570114e-001
6.711347e+002;2.576796e-001
6.730632e+002;2.570902e-001
6.749918e+002;2.558883e-001
6.769203e+002;2.548040e-001
6.788489e+002;2.551560e-001
6.807775e+002;2.542317e-001
6.827060e+002;2.534409e-001
6.846345e+002;2.532183e-001
6.865631e+002;2.530976e-001
6.884916e+002;2.529023e-001
6.904202e+002;2.507927e-001
6.923488e+002;2.482447e-001
6.942773e+002;2.461058e-001
6.962058e+002;2.451956e-001
6.981344e+002;2.445123e-001
7.000629e+002;2.421740e-001
7.019915e+002;2.390421e-001
7.039200e+002;2.360684e-001
7.058486e+002;2.334057e-001
7.077771e+002;2.309577e-001
7.097057e+002;2.279494e-001
7.116342e+002;2.256892e-001
7.135627e+002;2.237683e-001
7.154913e+002;2.212901e-001
7.174199e+002;2.186043e-001
7.193484e+002;2.169371e-001
7.212770e+002;2.144621e-001
7.232055e+002;2.109750e-001
7.251340e+002;2.076869e-001
7.270626e+002;2.043505e-001
7.289911e+002;2.011214e-001
7.309197e+002;1.979215e-001
7.328483e+002;1.947575e-001
7.347768e+002;1.922568e-001
7.367053e+002;1.901710e-001
7.386339e+002;1.872493e-001
7.405624e+002;1.835633e-001
7.424910e+002;1.799139e-001
7.444196e+002;1.765386e-001
7.463481e+002;1.742058e-001
7.482766e+002;1.725272e-001
7.502052e+002;1.701549e-001
7.521337e+002;1.676108e-001
7.540623e+002;1.656761e-001
7.559908e+002;1.641633e-001
7.579194e+002;1.625185e-001
7.598479e+002;1.609585e-001
7.617765e+002;1.592605e-001
7.637050e+002;1.577928e-001
7.656335e+002;1.571481e-001
7.675621e+002;1.559247e-001
7.694907e+002;1.539536e-001
7.714192e+002;1.519010e-001
7.733478e+002;1.496141e-001
7.752763e+002;1.472942e-001
7.772048e+002;1.456320e-001
7.791334e+002;1.447130e-001
7.810620e+002;1.434090e-001
7.829905e+002;1.414358e-001
7.849191e+002;1.402731e-001
7.868476e+002;1.384528e-001
7.887761e+002;1.359330e-001
7.907047e+002;1.346181e-001
7.926332e+002;1.333799e-001
7.945618e+002;1.312710e-001
7.964903e+002;1.305648e-001
7.984189e+002;1.304106e-001
8.003474e+002;1.299460e-001
8.022759e+002;1.300248e-001
8.042045e+002;1.298890e-001
8.061331e+002;1.294062e-001
8.080616e+002;1.293450e-001
8.099902e+002;1.299737e-001
8.119187e+002;1.303595e-001
8.138472e+002;1.300265e-001
8.157758e+002;1.295915e-001
8.177043e+002;1.294665e-001
8.196329e+002;1.292657e-001
8.215615e+002;1.296646e-001
8.234900e+002;1.308410e-001
8.254185e+002;1.316750e-001
8.273471e+002;1.323810e-001
8.292756e+002;1.324214e-001
8.312042e+002;1.309306e-001
8.331328e+002;1.291345e-001
8.350613e+002;1.277481e-001
8.369898e+002;1.265468e-001
8.389184e+002;1.253736e-001
8.408469e+002;1.243649e-001
8.427755e+002;1.241390e-001
8.447040e+002;1.247526e-001
8.466326e+002;1.248128e-001
8.485611e+002;1.245950e-001
8.504897e+002;1.248908e-001
8.524182e+002;1.249824e-001
8.543467e+002;1.240917e-001
8.562753e+002;1.219419e-001
8.582039e+002;1.198053e-001
8.601324e+002;1.180833e-001
8.620610e+002;1.165063e-001
8.639895e+002;1.155162e-001
8.659180e+002;1.147044e-001
8.678466e+002;1.142548e-001
8.697751e+002;1.142679e-001
8.717037e+002;1.149702e-001
8.736323e+002;1.160518e-001
8.755608e+002;1.164211e-001
8.774893e+002;1.162094e-001
8.794179e+002;1.158774e-001
8.813464e+002;1.156942e-001
8.832750e+002;1.155787e-001
8.852036e+002;1.152800e-001
8.871321e+002;1.149916e-001
8.890606e+002;1.149894e-001
8.909892e+002;1.153577e-001
8.929177e+002;1.155059e-001
8.948463e+002;1.154483e-001
8.967748e+002;1.154589e-001
8.987034e+002;1.152363e-001
9.006319e+002;1.150251e-001
9.025605e+002;1.146722e-001
9.044890e+002;1.143687e-001
9.064175e+002;1.144490e-001
9.083461e+002;1.148363e-001
9.102747e+002;1.155326e-001
9.122032e+002;1.162997e-001
9.141318e+002;1.168631e-001
9.160603e+002;1.178457e-001
9.179888e+002;1.192149e-001
9.199174e+002;1.205656e-001
9.218459e+002;1.216665e-001
9.237745e+002;1.229552e-001
9.257031e+002;1.242584e-001
9.276316e+002;1.250559e-001
9.295601e+002;1.252201e-001
9.314887e+002;1.254596e-001
9.334172e+002;1.255889e-001
9.353458e+002;1.255016e-001
9.372744e+002;1.255951e-001
9.392029e+002;1.258831e-001
9.411314e+002;1.265295e-001
9.430600e+002;1.271311e-001
9.449885e+002;1.276392e-001
9.469171e+002;1.281717e-001
9.488456e+002;1.291428e-001
9.507742e+002;1.301911e-001
9.527027e+002;1.313418e-001
9.546313e+002;1.325506e-001
9.565598e+002;1.337468e-001
9.584883e+002;1.351535e-001
9.604169e+002;1.368654e-001
9.623455e+002;1.384987e-001
9.642740e+002;1.402896e-001
9.662026e+002;1.420826e-001
9.681311e+002;1.440188e-001
9.700596e+002;1.460382e-001
9.719882e+002;1.479445e-001
9.739167e+002;1.490922e-001
9.758453e+002;1.488988e-001
9.777739e+002;1.481368e-001
9.797024e+002;1.473632e-001
9.816309e+002;1.467500e-001
9.835595e+002;1.464557e-001
9.854880e+002;1.468575e-001
9.874166e+002;1.483018e-001
9.893452e+002;1.502244e-001
9.912737e+002;1.523143e-001
9.932022e+002;1.543959e-001
9.951307e+002;1.557088e-001
9.970593e+002;1.559664e-001
9.989879e+002;1.554902e-001
1.000916e+003;1.551778e-001
1.002845e+003;1.544562e-001
1.004773e+003;1.535164e-001
1.006702e+003;1.533521e-001
1.008631e+003;1.538092e-001
1.010559e+003;1.542256e-001
1.012488e+003;1.544829e-001
1.014416e+003;1.541383e-001
1.016345e+003;1.532845e-001
1.018273e+003;1.530179e-001
1.020202e+003;1.528321e-001
1.022130e+003;1.526537e-001
1.024059e+003;1.535208e-001
1.025988e+003;1.549965e-001
1.027916e+003;1.567293e-001
1.029845e+003;1.593878e-001
1.031773e+003;1.622409e-001
1.033702e+003;1.644339e-001
1.035630e+003;1.665247e-001
1.037559e+003;1.685775e-001
1.039487e+003;1.700515e-001
1.041416e+003;1.714668e-001
1.043344e+003;1.729891e-001
1.045273e+003;1.737970e-001
1.047202e+003;1.738350e-001
1.049130e+003;1.741326e-001
1.051059e+003;1.750795e-001
1.052987e+003;1.763181e-001
1.054916e+003;1.777651e-001
1.056844e+003;1.791834e-001
1.058773e+003;1.804299e-001
1.060701e+003;1.818710e-001
1.062630e+003;1.829278e-001
1.064558e+003;1.837079e-001
1.066487e+003;1.837170e-001
1.068416e+003;1.829022e-001
1.070344e+003;1.817770e-001
1.072273e+003;1.797529e-001
1.074201e+003;1.770235e-001
1.076130e+003;1.744535e-001
1.078058e+003;1.711188e-001
1.079987e+003;1.667801e-001
1.081915e+003;1.628796e-001
1.083844e+003;1.594359e-001
1.085773e+003;1.561316e-001
1.087701e+003;1.529933e-001
1.089630e+003;1.502101e-001
1.091558e+003;1.479691e-001
1.093487e+003;1.462388e-001
1.095415e+003;1.453304e-001
1.097344e+003;1.448421e-001
1.099272e+003;1.448313e-001
1.101201e+003;1.450761e-001
1.103129e+003;1.448637e-001
1.105058e+003;1.441900e-001
1.106987e+003;1.430649e-001
1.108915e+003;1.418889e-001
1.110844e+003;1.412568e-001
1.112772e+003;1.410027e-001
1.114701e+003;1.413055e-001
1.116629e+003;1.420009e-001
1.118558e+003;1.421978e-001
1.120486e+003;1.425642e-001
1.122415e+003;1.431241e-001
1.124344e+003;1.435911e-001
1.126272e+003;1.446995e-001
1.128201e+003;1.460271e-001
1.130129e+003;1.474612e-001
1.132058e+003;1.486795e-001
1.133986e+003;1.497360e-001
1.135915e+003;1.517752e-001
1.137843e+003;1.542885e-001
1.139772e+003;1.562263e-001
1.141700e+003;1.587060e-001
1.143629e+003;1.616772e-001
1.145557e+003;1.637739e-001
1.147486e+003;1.659547e-001
1.149415e+003;1.684648e-001
1.151343e+003;1.709226e-001
1.153272e+003;1.735940e-001
1.155200e+003;1.760349e-001
1.157129e+003;1.779114e-001
1.159057e+003;1.799282e-001
1.160986e+003;1.815195e-001
1.162914e+003;1.823118e-001
1.164843e+003;1.832385e-001
1.166771e+003;1.845488e-001
1.168700e+003;1.853840e-001
1.170629e+003;1.854385e-001
1.172557e+003;1.848423e-001
1.174486e+003;1.834644e-001
1.176414e+003;1.817484e-001
1.178343e+003;1.799528e-001
1.180271e+003;1.783173e-001
1.182200e+003;1.771316e-001
1.184128e+003;1.771622e-001
1.186057e+003;1.781910e-001
1.187986e+003;1.797749e-001
1.189914e+003;1.818068e-001
1.191843e+003;1.843213e-001
1.193771e+003;1.874250e-001
1.195700e+003;1.905137e-001
1.197628e+003;1.938753e-001
1.199557e+003;1.981226e-001
1.201485e+003;2.029530e-001
1.203414e+003;2.083204e-001
1.205343e+003;2.139696e-001
1.207271e+003;2.192709e-001
1.209200e+003;2.245064e-001
1.211128e+003;2.296116e-001
1.213057e+003;2.342318e-001
1.214985e+003;2.385795e-001
1.216914e+003;2.423102e-001
1.218842e+003;2.455760e-001
1.220771e+003;2.490560e-001
1.222699e+003;2.521042e-001
1.224628e+003;2.544682e-001
1.226557e+003;2.559531e-001
1.228485e+003;2.565457e-001
1.230414e+003;2.560131e-001
1.232342e+003;2.545146e-001
1.234271e+003;2.522708e-001
1.236199e+003;2.497664e-001
1.238128e+003;2.473336e-001
1.240056e+003;2.449423e-001
1.241985e+003;2.425206e-001
1.243913e+003;2.402593e-001
1.245842e+003;2.383907e-001
1.247771e+003;2.366350e-001
1.249699e+003;2.349419e-001
1.251628e+003;2.334329e-001
1.253556e+003;2.322984e-001
1.255485e+003;2.311576e-001
1.257413e+003;2.294042e-001
1.259342e+003;2.272119e-001
1.261270e+003;2.247175e-001
1.263199e+003;2.218858e-001
1.265127e+003;2.189108e-001
1.267056e+003;2.156673e-001
1.268985e+003;2.125061e-001
1.270913e+003;2.093159e-001
1.272842e+003;2.060740e-001
1.274770e+003;2.028853e-001
1.276699e+003;1.997363e-001
1.278627e+003;1.968786e-001
1.280556e+003;1.947350e-001
1.282484e+003;1.932802e-001
1.284413e+003;1.924351e-001
1.286342e+003;1.916191e-001
1.288270e+003;1.907062e-001
1.290199e+003;1.900106e-001
1.292127e+003;1.896509e-001
1.294056e+003;1.895235e-001
1.295984e+003;1.894121e-001
1.297913e+003;1.893713e-001
1.299841e+003;1.894868e-001
1.301770e+003;1.896185e-001
1.303698e+003;1.894494e-001
1.305627e+003;1.893902e-001
1.307556e+003;1.893475e-001
1.309484e+003;1.889791e-001
1.311413e+003;1.885957e-001
1.313341e+003;1.883818e-001
1.315270e+003;1.883058e-001
1.317198e+003;1.884293e-001
1.319127e+003;1.888852e-001
1.321055e+003;1.894733e-001
1.322984e+003;1.900546e-001
1.324912e+003;1.908387e-001
1.326841e+003;1.918680e-001
1.328770e+003;1.927793e-001
1.330698e+003;1.933748e-001
1.332627e+003;1.938826e-001
1.334555e+003;1.940006e-001
1.336484e+003;1.937539e-001
1.338412e+003;1.935343e-001
1.340341e+003;1.932619e-001
1.342269e+003;1.928888e-001
1.344198e+003;1.924565e-001
1.346126e+003;1.923014e-001
1.348055e+003;1.923360e-001
1.349984e+003;1.921560e-001
1.351912e+003;1.923672e-001
1.353841e+003;1.932475e-001
1.355769e+003;1.945136e-001
1.357698e+003;1.965795e-001
1.359626e+003;1.994766e-001
1.361555e+003;2.028159e-001
1.363483e+003;2.064923e-001
1.365412e+003;2.101153e-001
1.367341e+003;2.125336e-001
1.369269e+003;2.134402e-001
1.371198e+003;2.132939e-001
1.373126e+003;2.126546e-001
1.375055e+003;2.122679e-001
1.376983e+003;2.121789e-001
1.378912e+003;2.120907e-001
1.380840e+003;2.123372e-001
1.382769e+003;2.125278e-001
1.384698e+003;2.127394e-001
1.386626e+003;2.131480e-001
1.388555e+003;2.136003e-001
1.390483e+003;2.139687e-001
1.392412e+003;2.143644e-001
1.394340e+003;2.147483e-001
1.396269e+003;2.153141e-001
1.398197e+003;2.162466e-001
1.400126e+003;2.175124e-001
1.402054e+003;2.187850e-001
1.403983e+003;2.201321e-001
1.405911e+003;2.217170e-001
1.407840e+003;2.228877e-001
1.409769e+003;2.234884e-001
1.411697e+003;2.241236e-001
1.413626e+003;2.247372e-001
1.415554e+003;2.250854e-001
1.417483e+003;2.255825e-001
1.419411e+003;2.264899e-001
1.421340e+003;2.277111e-001
1.423268e+003;2.297356e-001
1.425197e+003;2.329646e-001
1.427125e+003;2.372894e-001
1.429054e+003;2.427195e-001
1.430983e+003;2.491718e-001
1.432911e+003;2.560856e-001
1.434840e+003;2.627774e-001
1.436768e+003;2.685253e-001
1.438697e+003;2.728115e-001
1.440625e+003;2.753111e-001
1.442554e+003;2.768688e-001
1.444482e+003;2.776642e-001
1.446411e+003;2.763051e-001
1.448340e+003;2.732099e-001
1.450268e+003;2.686720e-001
1.452197e+003;2.629718e-001
1.454125e+003;2.566696e-001
1.456054e+003;2.503216e-001
1.457982e+003;2.455502e-001
1.459911e+003;2.423169e-001
1.461839e+003;2.399974e-001
1.463768e+003;2.387697e-001
1.465697e+003;2.384697e-001
1.467625e+003;2.390267e-001
1.469554e+003;2.403069e-001
1.471482e+003;2.420770e-001
1.473411e+003;2.444753e-001
1.475339e+003;2.481524e-001
1.477268e+003;2.530246e-001
1.479196e+003;2.589612e-001
1.481125e+003;2.658456e-001
1.483053e+003;2.738641e-001
1.484982e+003;2.828627e-001
1.486911e+003;2.925736e-001
1.488839e+003;3.028126e-001
1.490768e+003;3.134751e-001
1.492696e+003;3.242386e-001
1.494625e+003;3.349841e-001
1.496553e+003;3.454107e-001
1.498482e+003;3.556772e-001
1.500410e+003;3.651476e-001
1.502339e+003;3.733934e-001
1.504267e+003;3.808237e-001
1.506196e+003;3.872307e-001
1.508125e+003;3.932272e-001
1.510053e+003;3.988030e-001
1.511982e+003;4.027417e-001
1.513910e+003;4.035744e-001
1.515839e+003;3.996302e-001
1.517767e+003;3.912450e-001
1.519696e+003;3.810584e-001
1.521624e+003;3.712108e-001
1.523553e+003;3.632048e-001
1.525481e+003;3.564611e-001
1.527410e+003;3.500453e-001
1.529339e+003;3.436835e-001
1.531267e+003;3.371847e-001
1.533196e+003;3.307143e-001
1.535124e+003;3.247637e-001
1.537053e+003;3.187921e-001
1.538981e+003;3.123849e-001
1.540910e+003;3.061919e-001
1.542838e+003;3.006332e-001
1.544767e+003;2.953400e-001
1.546695e+003;2.896951e-001
1.548624e+003;2.840775e-001
1.550553e+003;2.786433e-001
1.552481e+003;2.729711e-001
1.554410e+003;2.669516e-001
1.556338e+003;2.605603e-001
1.558267e+003;2.538888e-001
1.560195e+003;2.478093e-001
1.562124e+003;2.422608e-001
1.564052e+003;2.363680e-001
1.565981e+003;2.306725e-001
1.567910e+003;2.257330e-001
1.569838e+003;2.212523e-001
1.571767e+003;2.172679e-001
1.573695e+003;2.139893e-001
1.575624e+003;2.115159e-001
1.577552e+003;2.103758e-001
1.579481e+003;2.103105e-001
1.581409e+003;2.109780e-001
1.583338e+003;2.126159e-001
1.585266e+003;2.153581e-001
1.587195e+003;2.192332e-001
1.589124e+003;2.242791e-001
1.591052e+003;2.303233e-001
1.592981e+003;2.372096e-001
1.594909e+003;2.445128e-001
1.596838e+003;2.524790e-001
1.598766e+003;2.613748e-001
1.600695e+003;2.719186e-001
1.602623e+003;2.842455e-001
1.604552e+003;2.980422e-001
1.606480e+003;3.138561e-001
1.608409e+003;3.314494e-001
1.610338e+003;3.495213e-001
1.612266e+003;3.671436e-001
1.614195e+003;3.833333e-001
1.616123e+003;3.983462e-001
1.618052e+003;4.112809e-001
1.619980e+003;4.204788e-001
1.621909e+003;4.253111e-001
1.623837e+003;4.265220e-001
1.625766e+003;4.245693e-001
1.627694e+003;4.194640e-001
1.629623e+003;4.119589e-001
1.631552e+003;4.028025e-001
1.633480e+003;3.927538e-001
1.635409e+003;3.824169e-001
1.637337e+003;3.725877e-001
1.639266e+003;3.631876e-001
1.641194e+003;3.540896e-001
1.643123e+003;3.452583e-001
1.645051e+003;3.364870e-001
1.646980e+003;3.280919e-001
1.648909e+003;3.202068e-001
1.650837e+003;3.118502e-001
1.652766e+003;3.029571e-001
1.654694e+003;2.949307e-001
1.656623e+003;2.869944e-001
1.658551e+003;2.781856e-001
1.660480e+003;2.695337e-001
1.662408e+003;2.612958e-001
1.664337e+003;2.537375e-001
1.666266e+003;2.467466e-001
1.668194e+003;2.396453e-001
1.670123e+003;2.325313e-001
1.672051e+003;2.262937e-001
1.673980e+003;2.204113e-001
1.675908e+003;2.143083e-001
1.677837e+003;2.085649e-001
1.679765e+003;2.030804e-001
1.681694e+003;1.978146e-001
1.683622e+003;1.926749e-001
1.685551e+003;1.881401e-001
1.687479e+003;1.846933e-001
1.689408e+003;1.815784e-001
1.691337e+003;1.785971e-001
1.693265e+003;1.760078e-001
1.695194e+003;1.734380e-001
1.697122e+003;1.709879e-001
1.699051e+003;1.668378e-001
1.700979e+003;1.593178e-001
1.702908e+003;1.493885e-001
1.704836e+003;1.376816e-001
1.706765e+003;1.258743e-001
1.708693e+003;1.155658e-001
1.710622e+003;1.071874e-001
1.712551e+003;1.005966e-001
1.714479e+003;9.528980e-002
1.716408e+003;9.069673e-002
1.718336e+003;8.711077e-002
1.720265e+003;8.461714e-002
1.722193e+003;8.268546e-002
1.724122e+003;8.106621e-002
1.726050e+003;7.961564e-002
1.727979e+003;7.843108e-002
1.729908e+003;7.768182e-002
1.731836e+003;7.683109e-002
1.733765e+003;7.600161e-002
1.735693e+003;7.564562e-002
1.737622e+003;7.540815e-002
1.739550e+003;7.478888e-002
1.741479e+003;7.429761e-002
1.743407e+003;7.383303e-002
1.745336e+003;7.338329e-002
1.747265e+003;7.309589e-002
1.749193e+003;7.284048e-002
1.751122e+003;7.241014e-002
1.753050e+003;7.214329e-002
1.754979e+003;7.202582e-002
1.756907e+003;7.190158e-002
1.758836e+003;7.196336e-002
1.760764e+003;7.170194e-002
1.762693e+003;7.133945e-002
1.764621e+003;7.138190e-002
1.766550e+003;7.132575e-002
1.768479e+003;7.094722e-002
1.770407e+003;7.064247e-002
1.772336e+003;7.062357e-002
1.774264e+003;7.066283e-002
1.776193e+003;7.067893e-002
1.778121e+003;7.041313e-002
1.780050e+003;7.025882e-002
1.781978e+003;7.024086e-002
1.783907e+003;7.006138e-002
1.785835e+003;6.995627e-002
1.787764e+003;7.002594e-002
1.789693e+003;6.987730e-002
1.791621e+003;6.949987e-002
1.793550e+003;6.936279e-002
1.795478e+003;6.940684e-002
1.797407e+003;6.936193e-002
1.799335e+003;6.938553e-002
1.801264e+003;6.928980e-002
1.803192e+003;6.914955e-002
1.805121e+003;6.889898e-002
1.807049e+003;6.885623e-002
1.808978e+003;6.880534e-002
1.810907e+003;6.853316e-002
1.812835e+003;6.825022e-002
1.814764e+003;6.799285e-002
1.816692e+003;6.793109e-002
1.818621e+003;6.805838e-002
1.820549e+003;6.785329e-002
1.822478e+003;6.751339e-002
1.824406e+003;6.749780e-002
1.826335e+003;6.751459e-002
1.828264e+003;6.731487e-002
1.830192e+003;6.728937e-002
1.832121e+003;6.728106e-002
1.834049e+003;6.694539e-002
1.835978e+003;6.662088e-002
1.837906e+003;6.653316e-002
1.839835e+003;6.659724e-002
1.841763e+003;6.646509e-002
1.843692e+003;6.609575e-002
1.845620e+003;6.604116e-002
1.847549e+003;6.612962e-002
1.849478e+003;6.596968e-002
1.851406e+003;6.578740e-002
1.853335e+003;6.567211e-002
1.855263e+003;6.545585e-002
1.857192e+003;6.528219e-002
1.859120e+003;6.523529e-002
1.861049e+003;6.546087e-002
1.862977e+003;6.547978e-002
1.864906e+003;6.535470e-002
1.866834e+003;6.536992e-002
1.868763e+003;6.528184e-002
1.870692e+003;6.543887e-002
1.872620e+003;6.563908e-002
1.874549e+003;6.557199e-002
1.876477e+003;6.535547e-002
1.878406e+003;6.537585e-002
1.880334e+003;6.545127e-002
1.882263e+003;6.538244e-002
1.884191e+003;6.542149e-002
1.886120e+003;6.555730e-002
1.888048e+003;6.562848e-002
1.889977e+003;6.548313e-002
1.891906e+003;6.545702e-002
1.893834e+003;6.577314e-002
1.895763e+003;6.572441e-002
1.897691e+003;6.545470e-002
1.899620e+003;6.512075e-002
1.901548e+003;6.496342e-002
1.903477e+003;6.514589e-002
1.905405e+003;6.507494e-002
1.907334e+003;6.490512e-002
1.909262e+003;6.482368e-002
1.911191e+003;6.485726e-002
1.913120e+003;6.487361e-002
1.915048e+003;6.481468e-002
1.916977e+003;6.475367e-002
1.918905e+003;6.481068e-002
1.920834e+003;6.473721e-002
1.922762e+003;6.464238e-002
1.924691e+003;6.485680e-002
1.926619e+003;6.515544e-002
1.928548e+003;6.510836e-002
1.930477e+003;6.499813e-002
1.932405e+003;6.503534e-002
1.934334e+003;6.495953e-002
1.936262e+003;6.477436e-002
1.938191e+003;6.464069e-002
1.940119e+003;6.449068e-002
1.942048e+003;6.455702e-002
1.943976e+003;6.477113e-002
1.945905e+003;6.470579e-002
1.947833e+003;6.487858e-002
1.949762e+003;6.515089e-002
1.951691e+003;6.508180e-002
1.953619e+003;6.520799e-002
1.955548e+003;6.529713e-002
1.957476e+003;6.507471e-002
1.959405e+003;6.487888e-002
1.961333e+003;6.508773e-002
1.963262e+003;6.542088e-002
1.965190e+003;6.536379e-002
1.967119e+003;6.523367e-002
1.969047e+003;6.521372e-002
1.970976e+003;6.515063e-002
1.972905e+003;6.518358e-002
1.974833e+003;6.521203e-002
1.976762e+003;6.501779e-002
1.978690e+003;6.482879e-002
1.980619e+003;6.488958e-002
1.982547e+003;6.515690e-002
1.984476e+003;6.520980e-002
1.986404e+003;6.506190e-002
1.988333e+003;6.517465e-002
1.990261e+003;6.522470e-002
1.992190e+003;6.519359e-002
1.994119e+003;6.497038e-002
1.996047e+003;6.463899e-002
1.997976e+003;6.480206e-002
1.999904e+003;6.509211e-002
2.001833e+003;6.494971e-002
2.003761e+003;6.481248e-002
2.005690e+003;6.487938e-002
2.007618e+003;6.503099e-002
2.009547e+003;6.504573e-002
2.011476e+003;6.482991e-002
2.013404e+003;6.464707e-002
2.015333e+003;6.483341e-002
2.017261e+003;6.498066e-002
2.019190e+003;6.499863e-002
2.021118e+003;6.501810e-002
2.023047e+003;6.493706e-002
2.024975e+003;6.509323e-002
2.026904e+003;6.535690e-002
2.028833e+003;6.527676e-002
2.030761e+003;6.506243e-002
2.032690e+003;6.500071e-002
2.034618e+003;6.512976e-002
2.036547e+003;6.527668e-002
2.038475e+003;6.527587e-002
2.040404e+003;6.517465e-002
2.042332e+003;6.519678e-002
2.044261e+003;6.509250e-002
2.046189e+003;6.507060e-002
2.048118e+003;6.517395e-002
2.050047e+003;6.532289e-002
2.051975e+003;6.539122e-002
2.053904e+003;6.529578e-002
2.055832e+003;6.532278e-002
2.057761e+003;6.532028e-002
2.059689e+003;6.531099e-002
2.061618e+003;6.528631e-002
2.063546e+003;6.534419e-002
2.065475e+003;6.551919e-002
2.067404e+003;6.540331e-002
2.069332e+003;6.513430e-002
2.071260e+003;6.510586e-002
2.073189e+003;6.524722e-002
2.075118e+003;6.531496e-002
2.077046e+003;6.535328e-002
2.078975e+003;6.552994e-002
2.080903e+003;6.575849e-002
2.082832e+003;6.576157e-002
2.084760e+003;6.566987e-002
2.086689e+003;6.575888e-002
2.088617e+003;6.576624e-002
2.090546e+003;6.565199e-002
2.092475e+003;6.564517e-002
2.094403e+003;6.562516e-002
2.096332e+003;6.566814e-002
2.098260e+003;6.574889e-002
2.100189e+003;6.580649e-002
2.102117e+003;6.585603e-002
2.104046e+003;6.598037e-002
2.105974e+003;6.599672e-002
2.107903e+003;6.602693e-002
2.109832e+003;6.606022e-002
2.111760e+003;6.601134e-002
2.113688e+003;6.615297e-002
2.115617e+003;6.612630e-002
2.117546e+003;6.601454e-002
2.119474e+003;6.607576e-002
2.121403e+003;6.594377e-002
2.123331e+003;6.575526e-002
2.125260e+003;6.565322e-002
2.127188e+003;6.564675e-002
2.129117e+003;6.567977e-002
2.131045e+003;6.561480e-002
2.132974e+003;6.572638e-002
2.134903e+003;6.593841e-002
2.136831e+003;6.571081e-002
2.138760e+003;6.549800e-002
2.140688e+003;6.563511e-002
2.142617e+003;6.567469e-002
2.144545e+003;6.548575e-002
2.146474e+003;6.544434e-002
2.148402e+003;6.556328e-002
2.150331e+003;6.564458e-002
2.152260e+003;6.556185e-002
2.154188e+003;6.554151e-002
2.156117e+003;6.570907e-002
2.158045e+003;6.566232e-002
2.159974e+003;6.558019e-002
2.161902e+003;6.570020e-002
2.163831e+003;6.559803e-002
2.165759e+003;6.543875e-002
2.167688e+003;6.540024e-002
2.169616e+003;6.545301e-002
2.171545e+003;6.538344e-002
2.173474e+003;6.531561e-002
2.175402e+003;6.544754e-002
2.177331e+003;6.549623e-002
2.179259e+003;6.550101e-002
2.181188e+003;6.553407e-002
2.183116e+003;6.554236e-002
2.185045e+003;6.545567e-002
2.186973e+003;6.552236e-002
2.188902e+003;6.569130e-002
2.190831e+003;6.572179e-002
2.192759e+003;6.567573e-002
2.194688e+003;6.569447e-002
2.196616e+003;6.579176e-002
2.198545e+003;6.575552e-002
2.200473e+003;6.558540e-002
2.202402e+003;6.560289e-002
2.204330e+003;6.572464e-002
2.206259e+003;6.574319e-002
2.208188e+003;6.553445e-002
2.210116e+003;6.530483e-002
2.212044e+003;6.519513e-002
2.213973e+003;6.523267e-002
2.215902e+003;6.525754e-002
2.217830e+003;6.525058e-002
2.219759e+003;6.526297e-002
2.221687e+003;6.530533e-002
2.223616e+003;6.530637e-002
2.225544e+003;6.537982e-002
2.227473e+003;6.543490e-002
2.229401e+003;6.541375e-002
2.231330e+003;6.517788e-002
2.233259e+003;6.482603e-002
2.235187e+003;6.484884e-002
2.237116e+003;6.492978e-002
2.239044e+003;6.502106e-002
2.240973e+003;6.503554e-002
2.242901e+003;6.495588e-002
2.244830e+003;6.497584e-002
2.246758e+003;6.502276e-002
2.248687e+003;6.488711e-002
2.250615e+003;6.491163e-002
2.252544e+003;6.500359e-002
2.254473e+003;6.501933e-002
2.256401e+003;6.504311e-002
2.258330e+003;6.509465e-002
2.260258e+003;6.502957e-002
2.262187e+003;6.493775e-002
2.264115e+003;6.495880e-002
2.266044e+003;6.498039e-002
2.267972e+003;6.484541e-002
2.269901e+003;6.480683e-002
2.271830e+003;6.495691e-002
2.273758e+003;6.516541e-002
2.275687e+003;6.520426e-002
2.277615e+003;6.501833e-002
2.279544e+003;6.500879e-002
2.281472e+003;6.525785e-002
2.283401e+003;6.527545e-002
2.285329e+003;6.513695e-002
2.287258e+003;6.539827e-002
2.289187e+003;6.562702e-002
2.291115e+003;6.549966e-002
2.293043e+003;6.528427e-002
2.294972e+003;6.527695e-002
2.296901e+003;6.551865e-002
2.298829e+003;6.569685e-002
2.300758e+003;6.552609e-002
2.302686e+003;6.532805e-002
2.304615e+003;6.531820e-002
2.306543e+003;6.551280e-002
2.308472e+003;6.575221e-002
2.310400e+003;6.558366e-002
2.312329e+003;6.537970e-002
2.314258e+003;6.541914e-002
2.316186e+003;6.545821e-002
2.318115e+003;6.537481e-002
2.320043e+003;6.531500e-002
2.321972e+003;6.542812e-002
2.323900e+003;6.537993e-002
2.325829e+003;6.521973e-002
2.327757e+003;6.520810e-002
2.329686e+003;6.543925e-002
2.331615e+003;6.542646e-002
2.333543e+003;6.513619e-002
2.335472e+003;6.499989e-002
2.337400e+003;6.511783e-002
2.339329e+003;6.513157e-002
2.341257e+003;6.521719e-002
2.343186e+003;6.544430e-002
2.345114e+003;6.539276e-002
2.347043e+003;6.525677e-002
2.348971e+003;6.529178e-002
2.350900e+003;6.535756e-002
2.352829e+003;6.524557e-002
2.354757e+003;6.520660e-002
2.356686e+003;6.530629e-002
2.358614e+003;6.540447e-002
2.360543e+003;6.544080e-002
2.362471e+003;6.535274e-002
2.364400e+003;6.540620e-002
2.366328e+003;6.566659e-002
2.368257e+003;6.582172e-002
2.370186e+003;6.585839e-002
2.372114e+003;6.579962e-002
2.374042e+003;6.573921e-002
2.375971e+003;6.580799e-002
2.377900e+003;6.591222e-002
2.379828e+003;6.616651e-002
2.381757e+003;6.626859e-002
2.383685e+003;6.612920e-002
2.385614e+003;6.610046e-002
2.387542e+003;6.622316e-002
2.389471e+003;6.620221e-002
2.391399e+003;6.617774e-002
2.393328e+003;6.636570e-002
2.395257e+003;6.668416e-002
2.397185e+003;6.680181e-002
2.399114e+003;6.675100e-002
2.401042e+003;6.680471e-002
2.402971e+003;6.690500e-002
2.404899e+003;6.705581e-002
2.406828e+003;6.728493e-002
2.408756e+003;6.762256e-002
2.410685e+003;6.759983e-002
2.412614e+003;6.753793e-002
2.414542e+003;6.769485e-002
2.416471e+003;6.801389e-002
2.418399e+003;6.833576e-002
2.420328e+003;6.861942e-002
2.422256e+003;6.869362e-002
2.424185e+003;6.884684e-002
2.426113e+003;6.912340e-002
2.428042e+003;6.916381e-002
2.429970e+003;6.916261e-002
2.431899e+003;6.929352e-002
2.433828e+003;6.935867e-002
2.435756e+003;6.957123e-002
2.437685e+003;6.968807e-002
2.439613e+003;6.982164e-002
2.441542e+003;7.009190e-002
2.443470e+003;7.020016e-002
2.445399e+003;7.002918e-002
2.447327e+003;6.995926e-002
2.449256e+003;7.010475e-002
2.451185e+003;7.001746e-002
2.453113e+003;6.987111e-002
2.455042e+003;7.005293e-002
2.456970e+003;7.002524e-002
2.458899e+003;6.989314e-002
2.460827e+003;6.992030e-002
2.462756e+003;6.989574e-002
2.464684e+003;7.015090e-002
2.466613e+003;7.041836e-002
2.468542e+003;7.038524e-002
2.470470e+003;7.035746e-002
2.472398e+003;7.069211e-002
2.474327e+003;7.108574e-002
2.476256e+003;7.087974e-002
2.478184e+003;7.061316e-002
2.480113e+003;7.063861e-002
2.482041e+003;7.084163e-002
2.483970e+003;7.097618e-002
2.485898e+003;7.099779e-002
2.487827e+003;7.096876e-002
2.489755e+003;7.124079e-002
2.491684e+003;7.124777e-002
2.493613e+003;7.121967e-002
2.495541e+003;7.138971e-002
2.497470e+003;7.143553e-002
2.499398e+003;7.146388e-002
2.501327e+003;7.136265e-002
2.503255e+003;7.147165e-002
2.505184e+003;7.189231e-002
2.507112e+003;7.201753e-002
2.509041e+003;7.180931e-002
2.510969e+003;7.151631e-002
2.512898e+003;7.167333e-002
2.514827e+003;7.201901e-002
2.516755e+003;7.197885e-002
2.518684e+003;7.180224e-002
2.520612e+003;7.199453e-002
2.522541e+003;7.226458e-002
2.524469e+003;7.220408e-002
2.526398e+003;7.229217e-002
2.528326e+003;7.243805e-002
2.530255e+003;7.243073e-002
2.532184e+003;7.241828e-002
2.534112e+003;7.247798e-002
2.536041e+003;7.264700e-002
2.537969e+003;7.271119e-002
2.539898e+003;7.276051e-002
2.541826e+003;7.302414e-002
2.543755e+003;7.312949e-002
2.545683e+003;7.318047e-002
2.547612e+003;7.356922e-002
2.549541e+003;7.371601e-002
2.551469e+003;7.376803e-002
2.553397e+003;7.376709e-002
2.555326e+003;7.385962e-002
2.557255e+003;7.401298e-002
2.559183e+003;7.407337e-002
2.561112e+003;7.410257e-002
2.563040e+003;7.434822e-002
2.564969e+003;7.495772e-002
2.566897e+003;7.510155e-002
2.568826e+003;7.486953e-002
2.570754e+003;7.512341e-002
2.572683e+003;7.552026e-002
2.574612e+003;7.545556e-002
2.576540e+003;7.551742e-002
2.578469e+003;7.581910e-002
2.580397e+003;7.599254e-002
2.582326e+003;7.605929e-002
2.584254e+003;7.613903e-002
2.586183e+003;7.629403e-002
2.588111e+003;7.646885e-002
2.590040e+003;7.675486e-002
2.591969e+003;7.715015e-002
2.593897e+003;7.720671e-002
2.595826e+003;7.713318e-002
2.597754e+003;7.726102e-002
2.599683e+003;7.734927e-002
2.601611e+003;7.746782e-002
2.603540e+003;7.771253e-002
2.605468e+003;7.774558e-002
2.607397e+003;7.770084e-002
2.609325e+003;7.782683e-002
2.611254e+003;7.792819e-002
2.613183e+003;7.798992e-002
2.615111e+003;7.807963e-002
2.617040e+003;7.827999e-002
2.618968e+003;7.834607e-002
2.620897e+003;7.834349e-002
2.622825e+003;7.847776e-002
2.624754e+003;7.868550e-002
2.626682e+003;7.862764e-002
2.628611e+003;7.842739e-002
2.630540e+003;7.852659e-002
2.632468e+003;7.852384e-002
2.634396e+003;7.848594e-002
2.636325e+003;7.835134e-002
2.638254e+003;7.822829e-002
2.640182e+003;7.821964e-002
2.642111e+003;7.815550e-002
2.644039e+003;7.827071e-002
2.645968e+003;7.860167e-002
2.647896e+003;7.847653e-002
2.649825e+003;7.806059e-002
2.651753e+003;7.822762e-002
2.653682e+003;7.873292e-002
2.655611e+003;7.895298e-002
2.657539e+003;7.911973e-002
2.659468e+003;7.908033e-002
2.661396e+003;7.901375e-002
2.663325e+003;7.918668e-002
2.665253e+003;7.921086e-002
2.667182e+003;7.935331e-002
2.669110e+003;7.958173e-002
2.671039e+003;7.948057e-002
2.672968e+003;7.941553e-002
2.674896e+003;7.970158e-002
2.676825e+003;8.000398e-002
2.678753e+003;8.008418e-002
2.680682e+003;8.005590e-002
2.682610e+003;8.017871e-002
2.684539e+003;8.016463e-002
2.686467e+003;8.019106e-002
2.688396e+003;8.033858e-002
2.690324e+003;8.056046e-002
2.692253e+003;8.096415e-002
2.694182e+003;8.128513e-002
2.696110e+003;8.123915e-002
2.698039e+003;8.121710e-002
2.699967e+003;8.140206e-002
2.701896e+003;8.178621e-002
2.703824e+003;8.199650e-002
2.705753e+003;8.212506e-002
2.707681e+003;8.229703e-002
2.709610e+003;8.225430e-002
2.711539e+003;8.218435e-002
2.713467e+003;8.238178e-002
2.715396e+003;8.272851e-002
2.717324e+003;8.318526e-002
2.719253e+003;8.340864e-002
2.721181e+003;8.339290e-002
2.723110e+003;8.346269e-002
2.725038e+003;8.368753e-002
2.726967e+003;8.398895e-002
2.728896e+003;8.416966e-002
2.730824e+003;8.410905e-002
2.732752e+003;8.400306e-002
2.734681e+003;8.384907e-002
2.736610e+003;8.410475e-002
2.738538e+003;8.459625e-002
2.740467e+003;8.470891e-002
2.742395e+003;8.487283e-002
2.744324e+003;8.503755e-002
2.746252e+003;8.494966e-002
2.748181e+003;8.495781e-002
2.750109e+003;8.532959e-002
2.752038e+003;8.551724e-002
2.753967e+003;8.556356e-002
2.755895e+003;8.583277e-002
2.757824e+003;8.600015e-002
2.759752e+003;8.612280e-002
2.761681e+003;8.633103e-002
2.763609e+003;8.639911e-002
2.765538e+003;8.653027e-002
2.767466e+003;8.656076e-002
2.769395e+003;8.664598e-002
2.771323e+003;8.712056e-002
2.773252e+003;8.732292e-002
2.775181e+003;8.736696e-002
2.777109e+003;8.761293e-002
2.779038e+003;8.786841e-002
2.780966e+003;8.795048e-002
2.782895e+003;8.787388e-002
2.784823e+003;8.771376e-002
2.786752e+003;8.793088e-002
2.788680e+003;8.838055e-002
2.790609e+003;8.857224e-002
2.792538e+003;8.861689e-002
2.794466e+003;8.864956e-002
2.796395e+003;8.873776e-002
2.798323e+003;8.909937e-002
2.800252e+003;8.925088e-002
2.802180e+003;8.913948e-002
2.804109e+003;8.920547e-002
2.806037e+003;8.929443e-002
2.807966e+003;8.945794e-002
2.809895e+003;8.977497e-002
2.811823e+003;9.014429e-002
2.813751e+003;9.023584e-002
2.815680e+003;9.015286e-002
2.817609e+003;9.037283e-002
2.819537e+003;9.036234e-002
2.821466e+003;9.016354e-002
2.823394e+003;9.021933e-002
2.825323e+003;9.062549e-002
2.827251e+003;9.102054e-002
2.829180e+003;9.114914e-002
2.831108e+003;9.130224e-002
2.833037e+003;9.168498e-002
2.834966e+003;9.211463e-002
2.836894e+003;9.217554e-002
2.838823e+003;9.233379e-002
2.840751e+003;9.255963e-002
2.842680e+003;9.317181e-002
2.844608e+003;9.404148e-002
2.846537e+003;9.432852e-002
2.848465e+003;9.460282e-002
2.850394e+003;9.534270e-002
2.852323e+003;9.593531e-002
2.854251e+003;9.641738e-002
2.856180e+003;9.667122e-002
2.858108e+003;9.695740e-002
2.860037e+003;9.746640e-002
2.861965e+003;9.794225e-002
2.863894e+003;9.827546e-002
2.865822e+003;9.858984e-002
2.867751e+003;9.949315e-002
2.869679e+003;1.002837e-001
2.871608e+003;1.006467e-001
2.873536e+003;1.010167e-001
2.875465e+003;1.010281e-001
2.877394e+003;1.010152e-001
2.879322e+003;1.009253e-001
2.881251e+003;1.009254e-001
2.883179e+003;1.010854e-001
2.885108e+003;1.009754e-001
2.887036e+003;1.008292e-001
2.888965e+003;1.008751e-001
2.890893e+003;1.011161e-001
2.892822e+003;1.013877e-001
2.894750e+003;1.014874e-001
2.896679e+003;1.016251e-001
2.898608e+003;1.022057e-001
2.900536e+003;1.028742e-001
2.902465e+003;1.029257e-001
2.904393e+003;1.029778e-001
2.906322e+003;1.035263e-001
2.908250e+003;1.043620e-001
2.910179e+003;1.051305e-001
2.912107e+003;1.058155e-001
2.914036e+003;1.066050e-001
2.915965e+003;1.073741e-001
2.917893e+003;1.082823e-001
2.919822e+003;1.091225e-001
2.921750e+003;1.096855e-001
2.923679e+003;1.105188e-001
2.925607e+003;1.115713e-001
2.927536e+003;1.124438e-001
2.929464e+003;1.128789e-001
2.931393e+003;1.133358e-001
2.933322e+003;1.135445e-001
2.935250e+003;1.135352e-001
2.937178e+003;1.133929e-001
2.939107e+003;1.129703e-001
2.941036e+003;1.125484e-001
2.942964e+003;1.117919e-001
2.944893e+003;1.104849e-001
2.946821e+003;1.096194e-001
2.948750e+003;1.092065e-001
2.950678e+003;1.083788e-001
2.952607e+003;1.077937e-001
2.954535e+003;1.078814e-001
2.956464e+003;1.077510e-001
2.958393e+003;1.075167e-001
2.960321e+003;1.073400e-001
2.962250e+003;1.073722e-001
2.964178e+003;1.076900e-001
2.966107e+003;1.079936e-001
2.968035e+003;1.081233e-001
2.969964e+003;1.084916e-001
2.971892e+003;1.092120e-001
2.973821e+003;1.094423e-001
2.975750e+003;1.090350e-001
2.977678e+003;1.087604e-001
2.979607e+003;1.085068e-001
2.981535e+003;1.079810e-001
2.983464e+003;1.075195e-001
2.985392e+003;1.072840e-001
2.987321e+003;1.070703e-001
2.989249e+003;1.067778e-001
2.991178e+003;1.060392e-001
2.993106e+003;1.052739e-001
2.995035e+003;1.046526e-001
2.996964e+003;1.043423e-001
2.998892e+003;1.042263e-001
3.000821e+003;1.038700e-001
3.002749e+003;1.033071e-001
3.004678e+003;1.030570e-001
3.006606e+003;1.031839e-001
3.008535e+003;1.032063e-001
3.010463e+003;1.032067e-001
3.012392e+003;1.031412e-001
3.014321e+003;1.029421e-001
3.016249e+003;1.031806e-001
3.018177e+003;1.038808e-001
3.020106e+003;1.042177e-001
3.022035e+003;1.042838e-001
3.023963e+003;1.045520e-001
3.025892e+003;1.049483e-001
3.027820e+003;1.051898e-001
3.029749e+003;1.057634e-001
3.031677e+003;1.063202e-001
3.033606e+003;1.066927e-001
3.035534e+003;1.070941e-001
3.037463e+003;1.077943e-001
3.039392e+003;1.086368e-001
3.041320e+003;1.091439e-001
3.043249e+003;1.095850e-001
3.045177e+003;1.099720e-001
3.047106e+003;1.104359e-001
3.049034e+003;1.110395e-001
3.050963e+003;1.119226e-001
3.052891e+003;1.129391e-001
3.054820e+003;1.134304e-001
3.056749e+003;1.137003e-001
3.058677e+003;1.139402e-001
3.060606e+003;1.140357e-001
3.062534e+003;1.144018e-001
3.064463e+003;1.150878e-001
3.066391e+003;1.154536e-001
3.068320e+003;1.154581e-001
3.070248e+003;1.155142e-001
3.072177e+003;1.156550e-001
3.074105e+003;1.155058e-001
3.076034e+003;1.152876e-001
3.077963e+003;1.153515e-001
3.079891e+003;1.154176e-001
3.081820e+003;1.151657e-001
3.083748e+003;1.149802e-001
3.085677e+003;1.149221e-001
3.087605e+003;1.144554e-001
3.089534e+003;1.140100e-001
3.091462e+003;1.136961e-001
3.093391e+003;1.133349e-001
3.095320e+003;1.131743e-001
3.097248e+003;1.131719e-001
3.099177e+003;1.126534e-001
3.101105e+003;1.120974e-001
3.103034e+003;1.120351e-001
3.104962e+003;1.121265e-001
3.106891e+003;1.117436e-001
3.108819e+003;1.108811e-001
3.110748e+003;1.103608e-001
3.112677e+003;1.103755e-001
3.114605e+003;1.101206e-001
3.116533e+003;1.098608e-001
3.118462e+003;1.098198e-001
3.120391e+003;1.096327e-001
3.122319e+003;1.096219e-001
3.124248e+003;1.100410e-001
3.126176e+003;1.101915e-001
3.128105e+003;1.100594e-001
3.130033e+003;1.098403e-001
3.131962e+003;1.098773e-001
3.133890e+003;1.100006e-001
3.135819e+003;1.103513e-001
3.137748e+003;1.108038e-001
3.139676e+003;1.113304e-001
3.141605e+003;1.114603e-001
3.143533e+003;1.117378e-001
3.145462e+003;1.122457e-001
3.147390e+003;1.127951e-001
3.149319e+003;1.132105e-001
3.151247e+003;1.135902e-001
3.153176e+003;1.141826e-001
3.155104e+003;1.147207e-001
3.157033e+003;1.151120e-001
3.158962e+003;1.158401e-001
3.160890e+003;1.167159e-001
3.162819e+003;1.175876e-001
3.164747e+003;1.182090e-001
3.166676e+003;1.187619e-001
3.168604e+003;1.194549e-001
3.170533e+003;1.204479e-001
3.172461e+003;1.215549e-001
3.174390e+003;1.225118e-001
3.176319e+003;1.233002e-001
3.178247e+003;1.239606e-001
3.180176e+003;1.245698e-001
3.182104e+003;1.257033e-001
3.184033e+003;1.270464e-001
3.185961e+003;1.279382e-001
3.187890e+003;1.290784e-001
3.189818e+003;1.302809e-001
3.191747e+003;1.312952e-001
3.193676e+003;1.323009e-001
3.195604e+003;1.330607e-001
3.197532e+003;1.337900e-001
3.199461e+003;1.349163e-001
3.201390e+003;1.365419e-001
3.203318e+003;1.380131e-001
3.205247e+003;1.390629e-001
3.207175e+003;1.401291e-001
3.209104e+003;1.412147e-001
3.211032e+003;1.422749e-001
3.212961e+003;1.434794e-001
3.214889e+003;1.444904e-001
3.216818e+003;1.455948e-001
3.218747e+003;1.468214e-001
3.220675e+003;1.484968e-001
3.222604e+003;1.502053e-001
3.224532e+003;1.515949e-001
3.226461e+003;1.528277e-001
3.228389e+003;1.540483e-001
3.230318e+003;1.552164e-001
3.232246e+003;1.565363e-001
3.234175e+003;1.577698e-001
3.236104e+003;1.591803e-001
3.238032e+003;1.608859e-001
3.239961e+003;1.630350e-001
3.241889e+003;1.652279e-001
3.243818e+003;1.670889e-001
3.245746e+003;1.688287e-001
3.247675e+003;1.704650e-001
3.249603e+003;1.725107e-001
3.251532e+003;1.747021e-001
3.253460e+003;1.767327e-001
3.255389e+003;1.791089e-001
3.257318e+003;1.817849e-001
3.259246e+003;1.842078e-001
3.261175e+003;1.866899e-001
3.263103e+003;1.891974e-001
3.265032e+003;1.913858e-001
3.266960e+003;1.933355e-001
3.268889e+003;1.955303e-001
3.270817e+003;1.980107e-001
3.272746e+003;2.002820e-001
3.274675e+003;2.021813e-001
3.276603e+003;2.037314e-001
3.278531e+003;2.045868e-001
3.280460e+003;2.050530e-001
3.282389e+003;2.051896e-001
3.284317e+003;2.047629e-001
3.286246e+003;2.043690e-001
3.288174e+003;2.038866e-001
3.290103e+003;2.031026e-001
3.292031e+003;2.017458e-001
3.293960e+003;2.000137e-001
3.295888e+003;1.982250e-001
3.297817e+003;1.964775e-001
3.299746e+003;1.945572e-001
3.301674e+003;1.920051e-001
3.303603e+003;1.895881e-001
3.305531e+003;1.872874e-001
3.307460e+003;1.847061e-001
3.309388e+003;1.819419e-001
3.311317e+003;1.791224e-001
3.313245e+003;1.764966e-001
3.315174e+003;1.742058e-001
3.317103e+003;1.716284e-001
3.319031e+003;1.686018e-001
3.320960e+003;1.660051e-001
3.322888e+003;1.634373e-001
3.324817e+003;1.604236e-001
3.326745e+003;1.580361e-001
3.328674e+003;1.560152e-001
3.330602e+003;1.540720e-001
3.332531e+003;1.517460e-001
3.334459e+003;1.492639e-001
3.336388e+003;1.476872e-001
3.338317e+003;1.457582e-001
3.340245e+003;1.432743e-001
3.342174e+003;1.414864e-001
3.344102e+003;1.402029e-001
3.346031e+003;1.384948e-001
3.347959e+003;1.368802e-001
3.349888e+003;1.351130e-001
3.351816e+003;1.333076e-001
3.353745e+003;1.319656e-001
3.355674e+003;1.308141e-001
3.357602e+003;1.298784e-001
3.359531e+003;1.291134e-001
3.361459e+003;1.281161e-001
3.363388e+003;1.269873e-001
3.365316e+003;1.258994e-001
3.367245e+003;1.244520e-001
3.369173e+003;1.232043e-001
3.371102e+003;1.224040e-001
3.373031e+003;1.218971e-001
3.374959e+003;1.211230e-001
3.376887e+003;1.198946e-001
3.378816e+003;1.189599e-001
3.380745e+003;1.182539e-001
3.382673e+003;1.177779e-001
3.384602e+003;1.170862e-001
3.386530e+003;1.162518e-001
3.388459e+003;1.153642e-001
3.390387e+003;1.140565e-001
3.392316e+003;1.133229e-001
3.394244e+003;1.130770e-001
3.396173e+003;1.124644e-001
3.398102e+003;1.111713e-001
3.400030e+003;1.102031e-001
3.401959e+003;1.098156e-001
3.403887e+003;1.093422e-001
3.405816e+003;1.084353e-001
3.407744e+003;1.072847e-001
3.409673e+003;1.064824e-001
3.411601e+003;1.058991e-001
3.413530e+003;1.052881e-001
3.415458e+003;1.047777e-001
3.417387e+003;1.039623e-001
3.419316e+003;1.030987e-001
3.421244e+003;1.021427e-001
3.423173e+003;1.014931e-001
3.425101e+003;1.009935e-001
3.427030e+003;1.000084e-001
3.428958e+003;9.908739e-002
3.430887e+003;9.846488e-002
3.432815e+003;9.823387e-002
3.434744e+003;9.741950e-002
3.436673e+003;9.643174e-002
3.438601e+003;9.581854e-002
3.440530e+003;9.528766e-002
3.442458e+003;9.500770e-002
3.444387e+003;9.478751e-002
3.446315e+003;9.444020e-002
3.448244e+003;9.388586e-002
3.450172e+003;9.327760e-002
3.452101e+003;9.253819e-002
3.454030e+003;9.217895e-002
3.455958e+003;9.225433e-002
3.457886e+003;9.185550e-002
3.459815e+003;9.114232e-002
3.461744e+003;9.100183e-002
3.463672e+003;9.093356e-002
3.465601e+003;9.104919e-002
3.467529e+003;9.092609e-002
3.469458e+003;9.037181e-002
3.471386e+003;8.986612e-002
3.473315e+003;8.929052e-002
3.475243e+003;8.893900e-002
3.477172e+003;8.886837e-002
3.479101e+003;8.858374e-002
3.481029e+003;8.835923e-002
3.482958e+003;8.822731e-002
3.484886e+003;8.779625e-002
3.486815e+003;8.750879e-002
3.488743e+003;8.739443e-002
3.490672e+003;8.685447e-002
3.492600e+003;8.657937e-002
3.494529e+003;8.657455e-002
3.496458e+003;8.635221e-002
3.498386e+003;8.617730e-002
3.500315e+003;8.578912e-002
3.502243e+003;8.525523e-002
3.504172e+003;8.467706e-002
3.506100e+003;8.405392e-002
3.508029e+003;8.385907e-002
3.509957e+003;8.379364e-002
3.511886e+003;8.364768e-002
3.513814e+003;8.346907e-002
3.515743e+003;8.316367e-002
3.517672e+003;8.289005e-002
3.519600e+003;8.248121e-002
3.521529e+003;8.219432e-002
3.523457e+003;8.244138e-002
3.525386e+003;8.215652e-002
3.527314e+003;8.143603e-002
3.529243e+003;8.070547e-002
3.531171e+003;8.010100e-002
3.533100e+003;7.994977e-002
3.535029e+003;7.971694e-002
3.536957e+003;7.946029e-002
3.538885e+003;7.936147e-002
3.540814e+003;7.921324e-002
3.542743e+003;7.875954e-002
3.544671e+003;7.830328e-002
3.546600e+003;7.784760e-002
3.548528e+003;7.738324e-002
3.550457e+003;7.700185e-002
3.552385e+003;7.679962e-002
3.554314e+003;7.634526e-002
3.556242e+003;7.574915e-002
3.558171e+003;7.543093e-002
3.560100e+003;7.548489e-002
3.562028e+003;7.548663e-002
3.563957e+003;7.501478e-002
3.565885e+003;7.441731e-002
3.567814e+003;7.412163e-002
3.569742e+003;7.425134e-002
3.571671e+003;7.390314e-002
3.573599e+003;7.310757e-002
3.575528e+003;7.279378e-002
3.577457e+003;7.284346e-002
3.579385e+003;7.265738e-002
3.581314e+003;7.184973e-002
3.583242e+003;7.165552e-002
3.585171e+003;7.158776e-002
3.587099e+003;7.092971e-002
3.589028e+003;7.019728e-002
3.590956e+003;6.998857e-002
3.592885e+003;6.971189e-002
3.594813e+003;6.954553e-002
3.596742e+003;6.957030e-002
3.598671e+003;6.938829e-002
3.600599e+003;6.944054e-002
3.602528e+003;6.940711e-002
3.604456e+003;6.921864e-002
3.606385e+003;6.878639e-002
3.608313e+003;6.824817e-002
3.610242e+003;6.816210e-002
3.612170e+003;6.822409e-002
3.614099e+003;6.761129e-002
3.616028e+003;6.679969e-002
3.617956e+003;6.606296e-002
3.619885e+003;6.562886e-002
3.621813e+003;6.564251e-002
3.623742e+003;6.573019e-002
3.625670e+003;6.551585e-002
3.627599e+003;6.518674e-002
3.629527e+003;6.472567e-002
3.631456e+003;6.447726e-002
3.633385e+003;6.393440e-002
3.635313e+003;6.389897e-002
3.637241e+003;6.423748e-002
3.639170e+003;6.361178e-002
3.641099e+003;6.312025e-002
3.643027e+003;6.288695e-002
3.644956e+003;6.218252e-002
3.646884e+003;6.178999e-002
3.648813e+003;6.118658e-002
3.650741e+003;6.037268e-002
3.652670e+003;6.020498e-002
3.654598e+003;5.995994e-002
3.656527e+003;5.927072e-002
3.658456e+003;5.901971e-002
3.660384e+003;5.904419e-002
3.662313e+003;5.862487e-002
3.664241e+003;5.789142e-002
3.666170e+003;5.734293e-002
3.668098e+003;5.692868e-002
3.670027e+003;5.618282e-002
3.671955e+003;5.576285e-002
3.673884e+003;5.524902e-002
3.675813e+003;5.433109e-002
3.677741e+003;5.401313e-002
3.679669e+003;5.368396e-002
3.681598e+003;5.323734e-002
3.683527e+003;5.257780e-002
3.685455e+003;5.224045e-002
3.687384e+003;5.198093e-002
3.689312e+003;5.154381e-002
3.691241e+003;5.141138e-002
3.693169e+003;5.135738e-002
3.695098e+003;5.099891e-002
3.697026e+003;5.064730e-002
3.698955e+003;5.048083e-002
3.700884e+003;5.005269e-002
3.702812e+003;4.964983e-002
3.704741e+003;4.952838e-002
3.706669e+003;4.936022e-002
3.708598e+003;4.895800e-002
3.710526e+003;4.863964e-002
3.712455e+003;4.878450e-002
3.714383e+003;4.870213e-002
3.716312e+003;4.847120e-002
3.718240e+003;4.838293e-002
3.720169e+003;4.861600e-002
3.722098e+003;4.846768e-002
3.724026e+003;4.821621e-002
3.725955e+003;4.793188e-002
3.727883e+003;4.768390e-002
3.729812e+003;4.781190e-002
3.731740e+003;4.768800e-002
3.733669e+003;4.738495e-002
3.735597e+003;4.710172e-002
3.737526e+003;4.704965e-002
3.739455e+003;4.716218e-002
3.741383e+003;4.740081e-002
3.743312e+003;4.702949e-002
3.745240e+003;4.632678e-002
3.747169e+003;4.645777e-002
3.749097e+003;4.663418e-002
3.751026e+003;4.675343e-002
3.752954e+003;4.691397e-002
3.754883e+003;4.700017e-002
3.756812e+003;4.633510e-002
3.758740e+003;4.605830e-002
3.760668e+003;4.639262e-002
3.762597e+003;4.632615e-002
3.764526e+003;4.619747e-002
3.766454e+003;4.627926e-002
3.768383e+003;4.648646e-002
3.770311e+003;4.677789e-002
3.772240e+003;4.679376e-002
3.774168e+003;4.656004e-002
3.776097e+003;4.634827e-002
3.778025e+003;4.629282e-002
3.779954e+003;4.596437e-002
3.781883e+003;4.551881e-002
3.783811e+003;4.551943e-002
3.785740e+003;4.579773e-002
3.787668e+003;4.576942e-002
3.789597e+003;4.572072e-002
3.791525e+003;4.569815e-002
3.793454e+003;4.608288e-002
3.795382e+003;4.623562e-002
3.797311e+003;4.587583e-002
3.799240e+003;4.592942e-002
3.801168e+003;4.622099e-002
3.803097e+003;4.583334e-002
3.805025e+003;4.555807e-002
3.806954e+003;4.571398e-002
3.808882e+003;4.587082e-002
3.810811e+003;4.627439e-002
3.812739e+003;4.638049e-002
3.814668e+003;4.588850e-002
3.816596e+003;4.565184e-002
3.818525e+003;4.604651e-002
3.820454e+003;4.639833e-002
3.822382e+003;4.644911e-002
3.824311e+003;4.645069e-002
3.826239e+003;4.649188e-002
3.828168e+003;4.655856e-002
3.830096e+003;4.643771e-002
3.832025e+003;4.649218e-002
3.833953e+003;4.640003e-002
3.835882e+003;4.622128e-002
3.837811e+003;4.623529e-002
3.839739e+003;4.642377e-002
3.841667e+003;4.678125e-002
3.843596e+003;4.671789e-002
3.845525e+003;4.617780e-002
3.847453e+003;4.662522e-002
3.849382e+003;4.754832e-002
3.851310e+003;4.739068e-002
3.853239e+003;4.692006e-002
3.855167e+003;4.694413e-002
3.857096e+003;4.730274e-002
3.859024e+003;4.769344e-002
3.860953e+003;4.778398e-002
3.862882e+003;4.783636e-002
3.864810e+003;4.800045e-002
3.866739e+003;4.801199e-002
3.868667e+003;4.781124e-002
3.870596e+003;4.782696e-002
3.872524e+003;4.784024e-002
3.874453e+003;4.798017e-002
3.876381e+003;4.857390e-002
3.878310e+003;4.867919e-002
3.880239e+003;4.830056e-002
3.882167e+003;4.844908e-002
3.884096e+003;4.878795e-002
3.886024e+003;4.888257e-002
3.887953e+003;4.856175e-002
3.889881e+003;4.839315e-002
3.891810e+003;4.844386e-002
3.893738e+003;4.837471e-002
3.895667e+003;4.879618e-002
3.897595e+003;4.943525e-002
3.899524e+003;4.970697e-002
3.901453e+003;4.991180e-002
3.903381e+003;4.993960e-002
3.905310e+003;4.985813e-002
3.907238e+003;4.989414e-002
3.909167e+003;4.983401e-002
3.911095e+003;4.974854e-002
3.913024e+003;4.980766e-002
3.914952e+003;4.998548e-002
3.916881e+003;5.052300e-002
3.918810e+003;5.113360e-002
3.920738e+003;5.094668e-002
3.922667e+003;5.097444e-002
3.924595e+003;5.142153e-002
3.926524e+003;5.133948e-002
3.928452e+003;5.132270e-002
3.930381e+003;5.137495e-002
3.932309e+003;5.111232e-002
3.934238e+003;5.126762e-002
3.936167e+003;5.140396e-002
3.938095e+003;5.125528e-002
3.940023e+003;5.168042e-002
3.941952e+003;5.183687e-002
3.943881e+003;5.178807e-002
3.945809e+003;5.218171e-002
3.947738e+003;5.202388e-002
3.949666e+003;5.191815e-002
3.951595e+003;5.218082e-002
3.953523e+003;5.251046e-002
3.955452e+003;5.226224e-002
3.957380e+003;5.203982e-002
3.959309e+003;5.246854e-002
3.961238e+003;5.268444e-002
3.963166e+003;5.243661e-002
3.965095e+003;5.216617e-002
3.967023e+003;5.237725e-002
3.968952e+003;5.283679e-002
3.970880e+003;5.262800e-002
3.972809e+003;5.238368e-002
3.974737e+003;5.298380e-002
3.976666e+003;5.336744e-002
3.978594e+003;5.342057e-002
3.980523e+003;5.340232e-002
3.982452e+003;5.289689e-002
3.984380e+003;5.265051e-002
3.986309e+003;5.260219e-002
3.988237e+003;5.232708e-002
3.990166e+003;5.233770e-002
3.992094e+003;5.248720e-002
3.994023e+003;5.242517e-002
3.995951e+003;5.262198e-002
3.997880e+003;5.262856e-002
3.999809e+003;5.275889e-002
4.001737e+003;0.000000e+000
