3.992094e+002;0.000000e+000
4.011380e+002;0.000000e+000
4.030665e+002;0.000000e+000
4.049951e+002;0.000000e+000
4.069236e+002;0.000000e+000
4.088522e+002;0.000000e+000
4.107807e+002;0.000000e+000
4.127093e+002;0.000000e+000
4.146378e+002;0.000000e+000
4.165664e+002;0.000000e+000
4.184949e+002;0.000000e+000
4.204235e+002;0.000000e+000
4.223520e+002;0.000000e+000
4.242806e+002;0.000000e+000
4.262091e+002;0.000000e+000
4.281377e+002;0.000000e+000
4.300662e+002;0.000000e+000
4.319948e+002;0.000000e+000
4.339233e+002;0.000000e+000
4.358519e+002;0.000000e+000
4.377804e+002;0.000000e+000
4.397090e+002;0.000000e+000
4.416375e+002;0.000000e+000
4.435660e+002;0.000000e+000
4.454946e+002;0.000000e+000
4.474232e+002;0.000000e+000
4.493517e+002;0.000000e+000
4.512802e+002;0.000000e+000
4.532088e+002;0.000000e+000
4.551373e+002;0.000000e+000
4.570659e+002;0.000000e+000
4.589944e+002;0.000000e+000
4.609230e+002;0.000000e+000
4.628515e+002;0.000000e+000
4.647801e+002;0.000000e+000
4.667086e+002;0.000000e+000
4.686372e+002;0.000000e+000
4.705657e+002;0.000000e+000
4.724943e+002;0.000000e+000
4.744228e+002;0.000000e+000
4.763513e+002;0.000000e+000
4.782799e+002;0.000000e+000
4.802085e+002;0.000000e+000
4.821370e+002;0.000000e+000
4.840656e+002;0.000000e+000
4.859941e+002;0.000000e+000
4.879226e+002;0.000000e+000
4.898512e+002;0.000000e+000
4.917798e+002;0.000000e+000
4.937083e+002;0.000000e+000
4.956368e+002;0.000000e+000
4.975654e+002;0.000000e+000
4.994939e+002;0.000000e+000
5.014225e+002;0.000000e+000
5.033510e+002;0.000000e+000
5.052796e+002;0.000000e+000
5.072081e+002;0.000000e+000
5.091367e+002;0.000000e+000
5.110652e+002;0.000000e+000
5.129938e+002;0.000000e+000
5.149223e+002;0.000000e+000
5.168509e+002;0.000000e+000
5.187794e+002;0.000000e+000
5.207079e+002;0.000000e+000
5.226365e+002;0.000000e+000
5.245651e+002;0.000000e+000
5.264936e+002;0.000000e+000
5.284222e+002;0.000000e+000
5.303507e+002;0.000000e+000
5.322792e+002;0.000000e+000
5.342078e+002;0.000000e+000
5.361364e+002;0.000000e+000
5.380649e+002;0.000000e+000
5.399935e+002;0.000000e+000
5.419220e+002;0.000000e+000
5.438505e+002;0.000000e+000
5.457791e+002;0.000000e+000
5.477076e+002;0.000000e+000
5.496362e+002;0.000000e+000
5.515648e+002;0.000000e+000
5.534933e+002;0.000000e+000
5.554218e+002;0.000000e+000
5.573504e+002;0.000000e+000
5.592789e+002;0.000000e+000
5.612075e+002;0.000000e+000
5.631360e+002;0.000000e+000
5.650646e+002;0.000000e+000
5.669931e+002;0.000000e+000
5.689217e+002;0.000000e+000
5.708502e+002;0.000000e+000
5.727787e+002;0.000000e+000
5.747073e+002;0.000000e+000
5.766359e+002;0.000000e+000
5.785644e+002;0.000000e+000
5.804930e+002;0.000000e+000
5.824215e+002;0.000000e+000
5.843500e+002;0.000000e+000
5.862786e+002;0.000000e+000
5.882072e+002;0.000000e+000
5.901357e+002;0.000000e+000
5.920643e+002;0.000000e+000
5.939928e+002;0.000000e+000
5.959213e+002;0.000000e+000
5.978499e+002;0.000000e+000
5.997784e+002;2.236081e-001
6.017070e+002;2.278306e-001
6.036355e+002;2.321345e-001
6.055641e+002;2.319252e-001
6.074926e+002;2.355181e-001
6.094211e+002;2.373329e-001
6.113497e+002;2.332187e-001
6.132783e+002;2.350458e-001
6.152068e+002;2.379973e-001
6.171354e+002;2.385471e-001
6.190639e+002;2.368300e-001
6.209924e+002;2.351693e-001
6.229210e+002;2.333694e-001
6.248495e+002;2.294087e-001
6.267781e+002;2.293326e-001
6.287067e+002;2.315605e-001
6.306352e+002;2.300123e-001
6.325637e+002;2.287224e-001
6.344923e+002;2.294585e-001
6.364208e+002;2.308166e-001
6.383494e+002;2.302550e-001
6.402780e+002;2.265208e-001
6.422065e+002;2.232162e-001
6.441350e+002;2.220853e-001
6.460636e+002;2.215806e-001
6.479921e+002;2.217230e-001
6.499207e+002;2.217564e-001
6.518492e+002;2.190173e-001
6.537778e+002;2.156235e-001
6.557063e+002;2.155631e-001
6.576349e+002;2.161040e-001
6.595634e+002;2.164564e-001
6.614919e+002;2.183283e-001
6.634205e+002;2.189209e-001
6.653491e+002;2.177531e-001
6.672776e+002;2.176147e-001
6.692062e+002;2.196586e-001
6.711347e+002;2.187579e-001
6.730632e+002;2.163080e-001
6.749918e+002;2.163565e-001
6.769203e+002;2.173818e-001
6.788489e+002;2.178079e-001
6.807775e+002;2.171480e-001
6.827060e+002;2.173924e-001
6.846345e+002;2.183461e-001
6.865631e+002;2.180826e-001
6.884916e+002;2.175108e-001
6.904202e+002;2.169093e-001
6.923488e+002;2.163850e-001
6.942773e+002;2.151204e-001
6.962058e+002;2.137984e-001
6.981344e+002;2.130282e-001
7.000629e+002;2.111367e-001
7.019915e+002;2.085275e-001
7.039200e+002;2.065846e-001
7.058486e+002;2.035797e-001
7.077771e+002;2.004129e-001
7.097057e+002;1.993498e-001
7.116342e+002;1.986070e-001
7.135627e+002;1.964064e-001
7.154913e+002;1.935041e-001
7.174199e+002;1.900263e-001
7.193484e+002;1.865810e-001
7.212770e+002;1.844798e-001
7.232055e+002;1.829760e-001
7.251340e+002;1.806829e-001
7.270626e+002;1.773443e-001
7.289911e+002;1.744702e-001
7.309197e+002;1.721912e-001
7.328483e+002;1.692899e-001
7.347768e+002;1.664861e-001
7.367053e+002;1.637638e-001
7.386339e+002;1.605478e-001
7.405624e+002;1.573564e-001
7.424910e+002;1.549163e-001
7.444196e+002;1.523763e-001
7.463481e+002;1.497286e-001
7.482766e+002;1.468506e-001
7.502052e+002;1.449136e-001
7.521337e+002;1.434881e-001
7.540623e+002;1.413841e-001
7.559908e+002;1.393959e-001
7.579194e+002;1.383068e-001
7.598479e+002;1.370831e-001
7.617765e+002;1.355367e-001
7.637050e+002;1.347845e-001
7.656335e+002;1.339164e-001
7.675621e+002;1.328061e-001
7.694907e+002;1.314181e-001
7.714192e+002;1.300689e-001
7.733478e+002;1.288429e-001
7.752763e+002;1.267999e-001
7.772048e+002;1.247115e-001
7.791334e+002;1.231651e-001
7.810620e+002;1.218006e-001
7.829905e+002;1.202318e-001
7.849191e+002;1.189061e-001
7.868476e+002;1.176134e-001
7.887761e+002;1.165269e-001
7.907047e+002;1.154145e-001
7.926332e+002;1.141018e-001
7.945618e+002;1.127450e-001
7.964903e+002;1.126616e-001
7.984189e+002;1.123951e-001
8.003474e+002;1.115394e-001
8.022759e+002;1.111174e-001
8.042045e+002;1.115076e-001
8.061331e+002;1.118540e-001
8.080616e+002;1.117941e-001
8.099902e+002;1.113821e-001
8.119187e+002;1.107467e-001
8.138472e+002;1.105155e-001
8.157758e+002;1.106628e-001
8.177043e+002;1.104817e-001
8.196329e+002;1.107874e-001
8.215615e+002;1.114214e-001
8.234900e+002;1.117856e-001
8.254185e+002;1.125228e-001
8.273471e+002;1.126161e-001
8.292756e+002;1.118668e-001
8.312042e+002;1.112134e-001
8.331328e+002;1.105575e-001
8.350613e+002;1.093573e-001
8.369898e+002;1.077513e-001
8.389184e+002;1.062465e-001
8.408469e+002;1.054563e-001
8.427755e+002;1.056756e-001
8.447040e+002;1.057554e-001
8.466326e+002;1.061291e-001
8.485611e+002;1.072121e-001
8.504897e+002;1.077164e-001
8.524182e+002;1.070783e-001
8.543467e+002;1.068639e-001
8.562753e+002;1.056029e-001
8.582039e+002;1.039167e-001
8.601324e+002;1.030550e-001
8.620610e+002;1.018658e-001
8.639895e+002;1.005792e-001
8.659180e+002;1.005416e-001
8.678466e+002;1.017553e-001
8.697751e+002;1.037945e-001
8.717037e+002;1.066467e-001
8.736323e+002;1.091639e-001
8.755608e+002;1.099613e-001
8.774893e+002;1.086987e-001
8.794179e+002;1.058000e-001
8.813464e+002;1.029132e-001
8.832750e+002;1.006012e-001
8.852036e+002;9.925856e-002
8.871321e+002;9.862618e-002
8.890606e+002;9.853563e-002
8.909892e+002;9.865096e-002
8.929177e+002;9.837186e-002
8.948463e+002;9.819636e-002
8.967748e+002;9.841783e-002
8.987034e+002;9.843457e-002
9.006319e+002;9.857097e-002
9.025605e+002;9.877490e-002
9.044890e+002;9.878431e-002
9.064175e+002;9.844193e-002
9.083461e+002;9.839297e-002
9.102747e+002;9.887878e-002
9.122032e+002;9.926035e-002
9.141318e+002;9.985945e-002
9.160603e+002;1.012251e-001
9.179888e+002;1.022590e-001
9.199174e+002;1.030606e-001
9.218459e+002;1.041788e-001
9.237745e+002;1.053888e-001
9.257031e+002;1.064188e-001
9.276316e+002;1.071540e-001
9.295601e+002;1.077162e-001
9.314887e+002;1.078810e-001
9.334172e+002;1.076627e-001
9.353458e+002;1.075214e-001
9.372744e+002;1.075389e-001
9.392029e+002;1.073885e-001
9.411314e+002;1.074791e-001
9.430600e+002;1.081174e-001
9.449885e+002;1.087602e-001
9.469171e+002;1.093014e-001
9.488456e+002;1.099951e-001
9.507742e+002;1.110896e-001
9.527027e+002;1.121421e-001
9.546313e+002;1.130586e-001
9.565598e+002;1.135470e-001
9.584883e+002;1.142281e-001
9.604169e+002;1.154054e-001
9.623455e+002;1.170197e-001
9.642740e+002;1.187412e-001
9.662026e+002;1.203528e-001
9.681311e+002;1.219090e-001
9.700596e+002;1.237358e-001
9.719882e+002;1.255259e-001
9.739167e+002;1.261738e-001
9.758453e+002;1.262854e-001
9.777739e+002;1.261661e-001
9.797024e+002;1.250264e-001
9.816309e+002;1.235828e-001
9.835595e+002;1.227757e-001
9.854880e+002;1.227325e-001
9.874166e+002;1.236464e-001
9.893452e+002;1.255440e-001
9.912737e+002;1.277639e-001
9.932022e+002;1.296051e-001
9.951307e+002;1.310699e-001
9.970593e+002;1.322648e-001
9.989879e+002;1.325147e-001
1.000916e+003;1.319376e-001
1.002845e+003;1.314977e-001
1.004773e+003;1.306529e-001
1.006702e+003;1.301767e-001
1.008631e+003;1.301060e-001
1.010559e+003;1.298047e-001
1.012488e+003;1.299818e-001
1.014416e+003;1.298375e-001
1.016345e+003;1.293342e-001
1.018273e+003;1.284646e-001
1.020202e+003;1.280228e-001
1.022130e+003;1.284589e-001
1.024059e+003;1.291379e-001
1.025988e+003;1.305791e-001
1.027916e+003;1.325150e-001
1.029845e+003;1.344083e-001
1.031773e+003;1.362101e-001
1.033702e+003;1.378691e-001
1.035630e+003;1.395455e-001
1.037559e+003;1.411556e-001
1.039487e+003;1.425615e-001
1.041416e+003;1.435699e-001
1.043344e+003;1.437916e-001
1.045273e+003;1.444343e-001
1.047202e+003;1.455233e-001
1.049130e+003;1.464446e-001
1.051059e+003;1.472242e-001
1.052987e+003;1.475836e-001
1.054916e+003;1.483415e-001
1.056844e+003;1.493217e-001
1.058773e+003;1.503402e-001
1.060701e+003;1.518037e-001
1.062630e+003;1.528545e-001
1.064558e+003;1.533863e-001
1.066487e+003;1.533980e-001
1.068416e+003;1.526849e-001
1.070344e+003;1.514321e-001
1.072273e+003;1.501026e-001
1.074201e+003;1.485935e-001
1.076130e+003;1.464465e-001
1.078058e+003;1.431003e-001
1.079987e+003;1.397357e-001
1.081915e+003;1.363693e-001
1.083844e+003;1.334241e-001
1.085773e+003;1.309347e-001
1.087701e+003;1.282964e-001
1.089630e+003;1.261532e-001
1.091558e+003;1.245509e-001
1.093487e+003;1.230881e-001
1.095415e+003;1.228134e-001
1.097344e+003;1.235061e-001
1.099272e+003;1.240003e-001
1.101201e+003;1.239041e-001
1.103129e+003;1.233860e-001
1.105058e+003;1.227511e-001
1.106987e+003;1.217424e-001
1.108915e+003;1.208534e-001
1.110844e+003;1.203449e-001
1.112772e+003;1.201952e-001
1.114701e+003;1.196953e-001
1.116629e+003;1.193761e-001
1.118558e+003;1.197289e-001
1.120486e+003;1.199979e-001
1.122415e+003;1.206299e-001
1.124344e+003;1.214048e-001
1.126272e+003;1.218001e-001
1.128201e+003;1.220207e-001
1.130129e+003;1.226856e-001
1.132058e+003;1.236215e-001
1.133986e+003;1.245329e-001
1.135915e+003;1.253236e-001
1.137843e+003;1.266038e-001
1.139772e+003;1.284872e-001
1.141700e+003;1.303038e-001
1.143629e+003;1.318450e-001
1.145557e+003;1.334859e-001
1.147486e+003;1.354127e-001
1.149415e+003;1.374103e-001
1.151343e+003;1.399550e-001
1.153272e+003;1.426229e-001
1.155200e+003;1.447442e-001
1.157129e+003;1.463807e-001
1.159057e+003;1.474682e-001
1.160986e+003;1.482264e-001
1.162914e+003;1.491269e-001
1.164843e+003;1.498480e-001
1.166771e+003;1.503029e-001
1.168700e+003;1.505659e-001
1.170629e+003;1.503049e-001
1.172557e+003;1.494627e-001
1.174486e+003;1.481506e-001
1.176414e+003;1.463055e-001
1.178343e+003;1.442100e-001
1.180271e+003;1.427430e-001
1.182200e+003;1.423454e-001
1.184128e+003;1.425352e-001
1.186057e+003;1.430658e-001
1.187986e+003;1.441458e-001
1.189914e+003;1.453095e-001
1.191843e+003;1.468585e-001
1.193771e+003;1.487991e-001
1.195700e+003;1.511654e-001
1.197628e+003;1.540679e-001
1.199557e+003;1.573235e-001
1.201485e+003;1.610793e-001
1.203414e+003;1.655209e-001
1.205343e+003;1.702494e-001
1.207271e+003;1.745581e-001
1.209200e+003;1.788275e-001
1.211128e+003;1.831885e-001
1.213057e+003;1.873729e-001
1.214985e+003;1.915665e-001
1.216914e+003;1.954496e-001
1.218842e+003;1.984623e-001
1.220771e+003;2.008121e-001
1.222699e+003;2.028699e-001
1.224628e+003;2.048887e-001
1.226557e+003;2.062958e-001
1.228485e+003;2.070750e-001
1.230414e+003;2.071042e-001
1.232342e+003;2.059382e-001
1.234271e+003;2.038267e-001
1.236199e+003;2.015214e-001
1.238128e+003;1.991284e-001
1.240056e+003;1.968806e-001
1.241985e+003;1.943942e-001
1.243913e+003;1.921746e-001
1.245842e+003;1.906493e-001
1.247771e+003;1.894869e-001
1.249699e+003;1.886085e-001
1.251628e+003;1.876523e-001
1.253556e+003;1.871501e-001
1.255485e+003;1.871775e-001
1.257413e+003;1.868970e-001
1.259342e+003;1.863677e-001
1.261270e+003;1.857655e-001
1.263199e+003;1.842974e-001
1.265127e+003;1.820074e-001
1.267056e+003;1.790558e-001
1.268985e+003;1.755919e-001
1.270913e+003;1.721777e-001
1.272842e+003;1.688362e-001
1.274770e+003;1.657701e-001
1.276699e+003;1.629207e-001
1.278627e+003;1.601661e-001
1.280556e+003;1.579111e-001
1.282484e+003;1.562979e-001
1.284413e+003;1.553151e-001
1.286342e+003;1.544736e-001
1.288270e+003;1.537378e-001
1.290199e+003;1.532356e-001
1.292127e+003;1.527531e-001
1.294056e+003;1.523382e-001
1.295984e+003;1.520994e-001
1.297913e+003;1.520347e-001
1.299841e+003;1.522478e-001
1.301770e+003;1.524630e-001
1.303698e+003;1.523078e-001
1.305627e+003;1.521386e-001
1.307556e+003;1.521123e-001
1.309484e+003;1.521036e-001
1.311413e+003;1.518410e-001
1.313341e+003;1.514604e-001
1.315270e+003;1.512065e-001
1.317198e+003;1.512203e-001
1.319127e+003;1.515697e-001
1.321055e+003;1.523224e-001
1.322984e+003;1.529775e-001
1.324912e+003;1.538858e-001
1.326841e+003;1.548594e-001
1.328770e+003;1.553948e-001
1.330698e+003;1.557103e-001
1.332627e+003;1.560899e-001
1.334555e+003;1.562137e-001
1.336484e+003;1.561437e-001
1.338412e+003;1.559732e-001
1.340341e+003;1.556817e-001
1.342269e+003;1.554434e-001
1.344198e+003;1.551200e-001
1.346126e+003;1.547172e-001
1.348055e+003;1.545773e-001
1.349984e+003;1.548410e-001
1.351912e+003;1.551223e-001
1.353841e+003;1.556032e-001
1.355769e+003;1.567080e-001
1.357698e+003;1.584501e-001
1.359626e+003;1.608228e-001
1.361555e+003;1.636208e-001
1.363483e+003;1.667460e-001
1.365412e+003;1.696222e-001
1.367341e+003;1.715802e-001
1.369269e+003;1.724174e-001
1.371198e+003;1.721776e-001
1.373126e+003;1.716933e-001
1.375055e+003;1.715304e-001
1.376983e+003;1.712478e-001
1.378912e+003;1.712657e-001
1.380840e+003;1.720876e-001
1.382769e+003;1.730307e-001
1.384698e+003;1.739292e-001
1.386626e+003;1.748551e-001
1.388555e+003;1.757345e-001
1.390483e+003;1.766379e-001
1.392412e+003;1.778063e-001
1.394340e+003;1.793363e-001
1.396269e+003;1.810116e-001
1.398197e+003;1.829996e-001
1.400126e+003;1.852652e-001
1.402054e+003;1.873327e-001
1.403983e+003;1.895426e-001
1.405911e+003;1.918038e-001
1.407840e+003;1.934017e-001
1.409769e+003;1.944854e-001
1.411697e+003;1.950293e-001
1.413626e+003;1.949016e-001
1.415554e+003;1.945447e-001
1.417483e+003;1.942986e-001
1.419411e+003;1.942232e-001
1.421340e+003;1.945775e-001
1.423268e+003;1.957566e-001
1.425197e+003;1.979730e-001
1.427125e+003;2.011005e-001
1.429054e+003;2.048657e-001
1.430983e+003;2.095870e-001
1.432911e+003;2.153599e-001
1.434840e+003;2.209715e-001
1.436768e+003;2.254068e-001
1.438697e+003;2.286630e-001
1.440625e+003;2.306000e-001
1.442554e+003;2.313959e-001
1.444482e+003;2.314357e-001
1.446411e+003;2.299848e-001
1.448340e+003;2.267666e-001
1.450268e+003;2.224716e-001
1.452197e+003;2.172111e-001
1.454125e+003;2.112363e-001
1.456054e+003;2.056649e-001
1.457982e+003;2.011316e-001
1.459911e+003;1.979693e-001
1.461839e+003;1.955769e-001
1.463768e+003;1.938636e-001
1.465697e+003;1.931645e-001
1.467625e+003;1.933326e-001
1.469554e+003;1.940387e-001
1.471482e+003;1.952281e-001
1.473411e+003;1.966789e-001
1.475339e+003;1.985659e-001
1.477268e+003;2.014207e-001
1.479196e+003;2.051868e-001
1.481125e+003;2.095418e-001
1.483053e+003;2.146575e-001
1.484982e+003;2.206840e-001
1.486911e+003;2.274304e-001
1.488839e+003;2.347738e-001
1.490768e+003;2.424083e-001
1.492696e+003;2.502953e-001
1.494625e+003;2.584810e-001
1.496553e+003;2.663735e-001
1.498482e+003;2.738783e-001
1.500410e+003;2.813605e-001
1.502339e+003;2.886916e-001
1.504267e+003;2.950488e-001
1.506196e+003;3.008456e-001
1.508125e+003;3.065363e-001
1.510053e+003;3.114317e-001
1.511982e+003;3.153401e-001
1.513910e+003;3.172389e-001
1.515839e+003;3.156247e-001
1.517767e+003;3.105751e-001
1.519696e+003;3.041392e-001
1.521624e+003;2.978190e-001
1.523553e+003;2.922462e-001
1.525481e+003;2.873657e-001
1.527410e+003;2.824898e-001
1.529339e+003;2.772842e-001
1.531267e+003;2.723759e-001
1.533196e+003;2.673540e-001
1.535124e+003;2.617746e-001
1.537053e+003;2.561610e-001
1.538981e+003;2.507561e-001
1.540910e+003;2.457076e-001
1.542838e+003;2.407821e-001
1.544767e+003;2.356805e-001
1.546695e+003;2.306664e-001
1.548624e+003;2.259800e-001
1.550553e+003;2.216024e-001
1.552481e+003;2.172146e-001
1.554410e+003;2.124242e-001
1.556338e+003;2.077730e-001
1.558267e+003;2.032794e-001
1.560195e+003;1.981826e-001
1.562124e+003;1.932295e-001
1.564052e+003;1.885007e-001
1.565981e+003;1.837098e-001
1.567910e+003;1.793167e-001
1.569838e+003;1.753831e-001
1.571767e+003;1.721019e-001
1.573695e+003;1.692325e-001
1.575624e+003;1.671042e-001
1.577552e+003;1.659939e-001
1.579481e+003;1.658341e-001
1.581409e+003;1.665320e-001
1.583338e+003;1.679015e-001
1.585266e+003;1.697851e-001
1.587195e+003;1.726264e-001
1.589124e+003;1.764098e-001
1.591052e+003;1.810214e-001
1.592981e+003;1.862518e-001
1.594909e+003;1.917870e-001
1.596838e+003;1.982886e-001
1.598766e+003;2.058526e-001
1.600695e+003;2.144511e-001
1.602623e+003;2.244432e-001
1.604552e+003;2.360489e-001
1.606480e+003;2.491161e-001
1.608409e+003;2.627996e-001
1.610338e+003;2.764188e-001
1.612266e+003;2.895746e-001
1.614195e+003;3.017583e-001
1.616123e+003;3.131557e-001
1.618052e+003;3.230720e-001
1.619980e+003;3.300179e-001
1.621909e+003;3.336041e-001
1.623837e+003;3.336791e-001
1.625766e+003;3.304299e-001
1.627694e+003;3.248504e-001
1.629623e+003;3.176763e-001
1.631552e+003;3.092992e-001
1.633480e+003;3.005419e-001
1.635409e+003;2.915738e-001
1.637337e+003;2.828778e-001
1.639266e+003;2.745641e-001
1.641194e+003;2.666813e-001
1.643123e+003;2.595670e-001
1.645051e+003;2.529697e-001
1.646980e+003;2.466082e-001
1.648909e+003;2.405192e-001
1.650837e+003;2.347236e-001
1.652766e+003;2.284584e-001
1.654694e+003;2.221151e-001
1.656623e+003;2.162969e-001
1.658551e+003;2.101984e-001
1.660480e+003;2.039958e-001
1.662408e+003;1.981511e-001
1.664337e+003;1.927186e-001
1.666266e+003;1.875487e-001
1.668194e+003;1.823192e-001
1.670123e+003;1.772008e-001
1.672051e+003;1.723203e-001
1.673980e+003;1.676463e-001
1.675908e+003;1.631731e-001
1.677837e+003;1.591151e-001
1.679765e+003;1.551730e-001
1.681694e+003;1.512828e-001
1.683622e+003;1.473182e-001
1.685551e+003;1.440125e-001
1.687479e+003;1.415848e-001
1.689408e+003;1.393080e-001
1.691337e+003;1.371980e-001
1.693265e+003;1.360094e-001
1.695194e+003;1.354597e-001
1.697122e+003;1.346325e-001
1.699051e+003;1.320789e-001
1.700979e+003;1.263270e-001
1.702908e+003;1.180129e-001
1.704836e+003;1.081984e-001
1.706765e+003;9.864697e-002
1.708693e+003;9.068962e-002
1.710622e+003;8.449754e-002
1.712551e+003;7.976969e-002
1.714479e+003;7.619981e-002
1.716408e+003;7.324435e-002
1.718336e+003;7.084775e-002
1.720265e+003;6.920484e-002
1.722193e+003;6.778567e-002
1.724122e+003;6.635030e-002
1.726050e+003;6.549373e-002
1.727979e+003;6.465495e-002
1.729908e+003;6.370896e-002
1.731836e+003;6.296558e-002
1.733765e+003;6.219510e-002
1.735693e+003;6.140213e-002
1.737622e+003;6.111323e-002
1.739550e+003;6.093172e-002
1.741479e+003;6.071362e-002
1.743407e+003;6.059456e-002
1.745336e+003;6.039267e-002
1.747265e+003;6.018059e-002
1.749193e+003;6.030076e-002
1.751122e+003;6.052051e-002
1.753050e+003;6.065677e-002
1.754979e+003;6.073851e-002
1.756907e+003;6.086886e-002
1.758836e+003;6.089619e-002
1.760764e+003;6.085555e-002
1.762693e+003;6.091986e-002
1.764621e+003;6.094643e-002
1.766550e+003;6.085448e-002
1.768479e+003;6.092596e-002
1.770407e+003;6.095646e-002
1.772336e+003;6.062725e-002
1.774264e+003;6.033278e-002
1.776193e+003;6.043219e-002
1.778121e+003;6.065213e-002
1.780050e+003;6.086409e-002
1.781978e+003;6.090088e-002
1.783907e+003;6.083158e-002
1.785835e+003;6.079594e-002
1.787764e+003;6.071199e-002
1.789693e+003;6.054630e-002
1.791621e+003;6.058774e-002
1.793550e+003;6.062008e-002
1.795478e+003;6.047412e-002
1.797407e+003;6.048227e-002
1.799335e+003;6.056584e-002
1.801264e+003;6.043901e-002
1.803192e+003;6.036826e-002
1.805121e+003;6.023087e-002
1.807049e+003;5.993027e-002
1.808978e+003;5.985040e-002
1.810907e+003;5.988855e-002
1.812835e+003;5.968474e-002
1.814764e+003;5.962027e-002
1.816692e+003;5.970892e-002
1.818621e+003;5.982640e-002
1.820549e+003;5.975264e-002
1.822478e+003;5.958454e-002
1.824406e+003;5.956063e-002
1.826335e+003;5.950705e-002
1.828264e+003;5.949983e-002
1.830192e+003;5.953525e-002
1.832121e+003;5.938866e-002
1.834049e+003;5.917506e-002
1.835978e+003;5.923365e-002
1.837906e+003;5.927869e-002
1.839835e+003;5.898927e-002
1.841763e+003;5.891849e-002
1.843692e+003;5.919530e-002
1.845620e+003;5.920897e-002
1.847549e+003;5.901201e-002
1.849478e+003;5.888430e-002
1.851406e+003;5.887580e-002
1.853335e+003;5.902377e-002
1.855263e+003;5.916033e-002
1.857192e+003;5.901667e-002
1.859120e+003;5.886290e-002
1.861049e+003;5.883740e-002
1.862977e+003;5.890464e-002
1.864906e+003;5.904249e-002
1.866834e+003;5.901998e-002
1.868763e+003;5.897371e-002
1.870692e+003;5.911078e-002
1.872620e+003;5.902487e-002
1.874549e+003;5.888286e-002
1.876477e+003;5.906553e-002
1.878406e+003;5.923202e-002
1.880334e+003;5.911735e-002
1.882263e+003;5.888741e-002
1.884191e+003;5.886871e-002
1.886120e+003;5.900905e-002
1.888048e+003;5.898407e-002
1.889977e+003;5.890802e-002
1.891906e+003;5.876832e-002
1.893834e+003;5.885489e-002
1.895763e+003;5.910937e-002
1.897691e+003;5.907756e-002
1.899620e+003;5.889610e-002
1.901548e+003;5.867971e-002
1.903477e+003;5.862199e-002
1.905405e+003;5.858748e-002
1.907334e+003;5.846991e-002
1.909262e+003;5.860102e-002
1.911191e+003;5.866602e-002
1.913120e+003;5.864823e-002
1.915048e+003;5.856973e-002
1.916977e+003;5.854717e-002
1.918905e+003;5.854338e-002
1.920834e+003;5.846100e-002
1.922762e+003;5.852534e-002
1.924691e+003;5.867865e-002
1.926619e+003;5.866052e-002
1.928548e+003;5.864910e-002
1.930477e+003;5.872822e-002
1.932405e+003;5.876096e-002
1.934334e+003;5.891944e-002
1.936262e+003;5.895212e-002
1.938191e+003;5.887796e-002
1.940119e+003;5.887011e-002
1.942048e+003;5.883577e-002
1.943976e+003;5.871263e-002
1.945905e+003;5.865123e-002
1.947833e+003;5.867440e-002
1.949762e+003;5.891545e-002
1.951691e+003;5.910376e-002
1.953619e+003;5.901106e-002
1.955548e+003;5.887831e-002
1.957476e+003;5.898866e-002
1.959405e+003;5.909077e-002
1.961333e+003;5.920669e-002
1.963262e+003;5.935086e-002
1.965190e+003;5.912266e-002
1.967119e+003;5.906948e-002
1.969047e+003;5.921216e-002
1.970976e+003;5.932013e-002
1.972905e+003;5.929814e-002
1.974833e+003;5.924915e-002
1.976762e+003;5.925291e-002
1.978690e+003;5.936431e-002
1.980619e+003;5.928861e-002
1.982547e+003;5.913307e-002
1.984476e+003;5.921524e-002
1.986404e+003;5.923582e-002
1.988333e+003;5.909127e-002
1.990261e+003;5.908470e-002
1.992190e+003;5.918201e-002
1.994119e+003;5.916128e-002
1.996047e+003;5.902825e-002
1.997976e+003;5.897136e-002
1.999904e+003;5.906222e-002
2.001833e+003;5.922845e-002
2.003761e+003;5.931136e-002
2.005690e+003;5.930616e-002
2.007618e+003;5.926305e-002
2.009547e+003;5.911025e-002
2.011476e+003;5.900172e-002
2.013404e+003;5.902191e-002
2.015333e+003;5.917453e-002
2.017261e+003;5.928846e-002
2.019190e+003;5.910877e-002
2.021118e+003;5.914040e-002
2.023047e+003;5.950587e-002
2.024975e+003;5.961696e-002
2.026904e+003;5.930904e-002
2.028833e+003;5.906428e-002
2.030761e+003;5.902161e-002
2.032690e+003;5.913755e-002
2.034618e+003;5.933513e-002
2.036547e+003;5.956785e-002
2.038475e+003;5.962928e-002
2.040404e+003;5.960864e-002
2.042332e+003;5.971458e-002
2.044261e+003;5.965828e-002
2.046189e+003;5.959762e-002
2.048118e+003;5.952700e-002
2.050047e+003;5.946909e-002
2.051975e+003;5.968291e-002
2.053904e+003;5.978264e-002
2.055832e+003;5.963019e-002
2.057761e+003;5.940769e-002
2.059689e+003;5.934399e-002
2.061618e+003;5.948478e-002
2.063546e+003;5.959678e-002
2.065475e+003;5.961776e-002
2.067404e+003;5.980066e-002
2.069332e+003;5.999395e-002
2.071260e+003;5.996694e-002
2.073189e+003;5.959051e-002
2.075118e+003;5.944599e-002
2.077046e+003;5.962460e-002
2.078975e+003;5.967124e-002
2.080903e+003;5.968573e-002
2.082832e+003;5.974488e-002
2.084760e+003;5.978853e-002
2.086689e+003;5.969546e-002
2.088617e+003;5.972295e-002
2.090546e+003;5.976914e-002
2.092475e+003;5.985527e-002
2.094403e+003;5.989460e-002
2.096332e+003;5.973842e-002
2.098260e+003;5.956257e-002
2.100189e+003;5.956789e-002
2.102117e+003;5.981332e-002
2.104046e+003;5.988611e-002
2.105974e+003;5.968063e-002
2.107903e+003;5.959412e-002
2.109832e+003;5.957903e-002
2.111760e+003;5.947547e-002
2.113688e+003;5.952483e-002
2.115617e+003;5.962620e-002
2.117546e+003;5.945401e-002
2.119474e+003;5.930422e-002
2.121403e+003;5.937597e-002
2.123331e+003;5.957587e-002
2.125260e+003;5.968679e-002
2.127188e+003;5.975123e-002
2.129117e+003;5.987839e-002
2.131045e+003;5.966687e-002
2.132974e+003;5.953472e-002
2.134903e+003;5.965581e-002
2.136831e+003;5.963403e-002
2.138760e+003;5.969694e-002
2.140688e+003;5.978633e-002
2.142617e+003;5.957223e-002
2.144545e+003;5.933221e-002
2.146474e+003;5.938490e-002
2.148402e+003;5.946233e-002
2.150331e+003;5.917555e-002
2.152260e+003;5.910641e-002
2.154188e+003;5.941275e-002
2.156117e+003;5.945705e-002
2.158045e+003;5.911803e-002
2.159974e+003;5.918307e-002
2.161902e+003;5.932340e-002
2.163831e+003;5.930711e-002
2.165759e+003;5.931212e-002
2.167688e+003;5.927364e-002
2.169616e+003;5.947179e-002
2.171545e+003;5.947517e-002
2.173474e+003;5.926305e-002
2.175402e+003;5.916318e-002
2.177331e+003;5.921087e-002
2.179259e+003;5.941206e-002
2.181188e+003;5.950884e-002
2.183116e+003;5.952807e-002
2.185045e+003;5.931839e-002
2.186973e+003;5.905061e-002
2.188902e+003;5.901052e-002
2.190831e+003;5.913998e-002
2.192759e+003;5.916166e-002
2.194688e+003;5.908986e-002
2.196616e+003;5.901614e-002
2.198545e+003;5.898946e-002
2.200473e+003;5.911067e-002
2.202402e+003;5.929362e-002
2.204330e+003;5.943095e-002
2.206259e+003;5.937016e-002
2.208188e+003;5.917563e-002
2.210116e+003;5.894570e-002
2.212044e+003;5.890844e-002
2.213973e+003;5.907897e-002
2.215902e+003;5.896236e-002
2.217830e+003;5.870816e-002
2.219759e+003;5.893424e-002
2.221687e+003;5.922947e-002
2.223616e+003;5.919169e-002
2.225544e+003;5.909161e-002
2.227473e+003;5.889322e-002
2.229401e+003;5.864971e-002
2.231330e+003;5.864793e-002
2.233259e+003;5.873001e-002
2.235187e+003;5.872477e-002
2.237116e+003;5.897694e-002
2.239044e+003;5.901444e-002
2.240973e+003;5.876414e-002
2.242901e+003;5.871939e-002
2.244830e+003;5.880857e-002
2.246758e+003;5.872412e-002
2.248687e+003;5.836162e-002
2.250615e+003;5.837617e-002
2.252544e+003;5.854759e-002
2.254473e+003;5.836798e-002
2.256401e+003;5.821697e-002
2.258330e+003;5.819451e-002
2.260258e+003;5.828821e-002
2.262187e+003;5.845539e-002
2.264115e+003;5.835093e-002
2.266044e+003;5.807469e-002
2.267972e+003;5.812572e-002
2.269901e+003;5.824066e-002
2.271830e+003;5.826066e-002
2.273758e+003;5.830090e-002
2.275687e+003;5.849853e-002
2.277615e+003;5.853614e-002
2.279544e+003;5.855972e-002
2.281472e+003;5.832463e-002
2.283401e+003;5.816935e-002
2.285329e+003;5.828207e-002
2.287258e+003;5.822766e-002
2.289187e+003;5.825176e-002
2.291115e+003;5.836294e-002
2.293043e+003;5.839387e-002
2.294972e+003;5.812693e-002
2.296901e+003;5.793977e-002
2.298829e+003;5.810340e-002
2.300758e+003;5.833452e-002
2.302686e+003;5.837818e-002
2.304615e+003;5.814212e-002
2.306543e+003;5.795673e-002
2.308472e+003;5.797339e-002
2.310400e+003;5.807614e-002
2.312329e+003;5.814935e-002
2.314258e+003;5.804277e-002
2.316186e+003;5.803072e-002
2.318115e+003;5.818250e-002
2.320043e+003;5.825062e-002
2.321972e+003;5.832428e-002
2.323900e+003;5.824770e-002
2.325829e+003;5.817314e-002
2.327757e+003;5.819906e-002
2.329686e+003;5.807632e-002
2.331615e+003;5.785553e-002
2.333543e+003;5.791243e-002
2.335472e+003;5.797336e-002
2.337400e+003;5.812053e-002
2.339329e+003;5.825831e-002
2.341257e+003;5.816435e-002
2.343186e+003;5.808314e-002
2.345114e+003;5.796525e-002
2.347043e+003;5.790812e-002
2.348971e+003;5.793568e-002
2.350900e+003;5.786106e-002
2.352829e+003;5.790906e-002
2.354757e+003;5.806072e-002
2.356686e+003;5.809715e-002
2.358614e+003;5.800096e-002
2.360543e+003;5.805235e-002
2.362471e+003;5.822940e-002
2.364400e+003;5.823293e-002
2.366328e+003;5.827097e-002
2.368257e+003;5.821997e-002
2.370186e+003;5.807663e-002
2.372114e+003;5.783187e-002
2.374042e+003;5.787022e-002
2.375971e+003;5.813606e-002
2.377900e+003;5.835168e-002
2.379828e+003;5.842798e-002
2.381757e+003;5.839099e-002
2.383685e+003;5.859408e-002
2.385614e+003;5.882549e-002
2.387542e+003;5.879377e-002
2.389471e+003;5.876008e-002
2.391399e+003;5.894756e-002
2.393328e+003;5.897269e-002
2.395257e+003;5.882359e-002
2.397185e+003;5.893743e-002
2.399114e+003;5.916158e-002
2.401042e+003;5.925469e-002
2.402971e+003;5.926407e-002
2.404899e+003;5.917677e-002
2.406828e+003;5.926381e-002
2.408756e+003;5.948805e-002
2.410685e+003;5.960518e-002
2.412614e+003;5.948034e-002
2.414542e+003;5.958940e-002
2.416471e+003;5.980477e-002
2.418399e+003;6.013477e-002
2.420328e+003;6.040310e-002
2.422256e+003;6.059113e-002
2.424185e+003;6.069404e-002
2.426113e+003;6.079293e-002
2.428042e+003;6.082590e-002
2.429970e+003;6.068436e-002
2.431899e+003;6.073508e-002
2.433828e+003;6.058774e-002
2.435756e+003;6.059128e-002
2.437685e+003;6.080402e-002
2.439613e+003;6.081019e-002
2.441542e+003;6.068108e-002
2.443470e+003;6.069994e-002
2.445399e+003;6.065285e-002
2.447327e+003;6.062637e-002
2.449256e+003;6.074544e-002
2.451185e+003;6.087217e-002
2.453113e+003;6.118773e-002
2.455042e+003;6.129020e-002
2.456970e+003;6.108867e-002
2.458899e+003;6.093629e-002
2.460827e+003;6.102125e-002
2.462756e+003;6.091307e-002
2.464684e+003;6.090705e-002
2.466613e+003;6.110900e-002
2.468542e+003;6.122633e-002
2.470470e+003;6.117930e-002
2.472398e+003;6.124480e-002
2.474327e+003;6.128898e-002
2.476256e+003;6.133569e-002
2.478184e+003;6.145102e-002
2.480113e+003;6.137011e-002
2.482041e+003;6.131043e-002
2.483970e+003;6.129688e-002
2.485898e+003;6.150714e-002
2.487827e+003;6.155482e-002
2.489755e+003;6.152011e-002
2.491684e+003;6.171937e-002
2.493613e+003;6.200037e-002
2.495541e+003;6.206382e-002
2.497470e+003;6.186453e-002
2.499398e+003;6.176466e-002
2.501327e+003;6.185975e-002
2.503255e+003;6.182132e-002
2.505184e+003;6.171310e-002
2.507112e+003;6.171486e-002
2.509041e+003;6.192172e-002
2.510969e+003;6.216088e-002
2.512898e+003;6.219934e-002
2.514827e+003;6.214425e-002
2.516755e+003;6.212120e-002
2.518684e+003;6.208683e-002
2.520612e+003;6.206118e-002
2.522541e+003;6.226099e-002
2.524469e+003;6.241807e-002
2.526398e+003;6.234677e-002
2.528326e+003;6.238422e-002
2.530255e+003;6.228175e-002
2.532184e+003;6.252930e-002
2.534112e+003;6.275604e-002
2.536041e+003;6.246069e-002
2.537969e+003;6.206779e-002
2.539898e+003;6.231323e-002
2.541826e+003;6.278494e-002
2.543755e+003;6.284341e-002
2.545683e+003;6.286566e-002
2.547612e+003;6.291744e-002
2.549541e+003;6.301389e-002
2.551469e+003;6.310530e-002
2.553397e+003;6.315170e-002
2.555326e+003;6.332812e-002
2.557255e+003;6.335542e-002
2.559183e+003;6.337344e-002
2.561112e+003;6.353565e-002
2.563040e+003;6.360657e-002
2.564969e+003;6.345580e-002
2.566897e+003;6.324291e-002
2.568826e+003;6.337374e-002
2.570754e+003;6.375144e-002
2.572683e+003;6.399091e-002
2.574612e+003;6.383502e-002
2.576540e+003;6.372312e-002
2.578469e+003;6.371342e-002
2.580397e+003;6.387368e-002
2.582326e+003;6.415939e-002
2.584254e+003;6.434701e-002
2.586183e+003;6.450697e-002
2.588111e+003;6.445600e-002
2.590040e+003;6.455072e-002
2.591969e+003;6.476175e-002
2.593897e+003;6.476936e-002
2.595826e+003;6.463757e-002
2.597754e+003;6.470917e-002
2.599683e+003;6.498639e-002
2.601611e+003;6.519598e-002
2.603540e+003;6.529054e-002
2.605468e+003;6.544145e-002
2.607397e+003;6.545127e-002
2.609325e+003;6.548136e-002
2.611254e+003;6.551138e-002
2.613183e+003;6.539357e-002
2.615111e+003;6.536110e-002
2.617040e+003;6.538197e-002
2.618968e+003;6.548730e-002
2.620897e+003;6.548075e-002
2.622825e+003;6.530803e-002
2.624754e+003;6.543151e-002
2.626682e+003;6.566752e-002
2.628611e+003;6.597497e-002
2.630540e+003;6.608066e-002
2.632468e+003;6.586182e-002
2.634396e+003;6.573524e-002
2.636325e+003;6.549793e-002
2.638254e+003;6.518923e-002
2.640182e+003;6.526455e-002
2.642111e+003;6.552412e-002
2.644039e+003;6.558925e-002
2.645968e+003;6.563607e-002
2.647896e+003;6.553272e-002
2.649825e+003;6.538066e-002
2.651753e+003;6.558979e-002
2.653682e+003;6.600729e-002
2.655611e+003;6.604957e-002
2.657539e+003;6.586379e-002
2.659468e+003;6.585993e-002
2.661396e+003;6.588160e-002
2.663325e+003;6.608657e-002
2.665253e+003;6.629089e-002
2.667182e+003;6.630549e-002
2.669110e+003;6.623547e-002
2.671039e+003;6.623814e-002
2.672968e+003;6.634088e-002
2.674896e+003;6.626588e-002
2.676825e+003;6.631969e-002
2.678753e+003;6.643265e-002
2.680682e+003;6.624269e-002
2.682610e+003;6.631675e-002
2.684539e+003;6.661462e-002
2.686467e+003;6.675331e-002
2.688396e+003;6.679501e-002
2.690324e+003;6.678979e-002
2.692253e+003;6.677314e-002
2.694182e+003;6.694110e-002
2.696110e+003;6.716447e-002
2.698039e+003;6.722458e-002
2.699967e+003;6.717201e-002
2.701896e+003;6.735116e-002
2.703824e+003;6.778295e-002
2.705753e+003;6.796584e-002
2.707681e+003;6.785581e-002
2.709610e+003;6.775185e-002
2.711539e+003;6.764765e-002
2.713467e+003;6.795476e-002
2.715396e+003;6.829175e-002
2.717324e+003;6.835659e-002
2.719253e+003;6.842733e-002
2.721181e+003;6.857172e-002
2.723110e+003;6.866024e-002
2.725038e+003;6.867084e-002
2.726967e+003;6.852330e-002
2.728896e+003;6.862792e-002
2.730824e+003;6.899530e-002
2.732752e+003;6.915033e-002
2.734681e+003;6.909505e-002
2.736610e+003;6.939182e-002
2.738538e+003;6.971823e-002
2.740467e+003;7.005176e-002
2.742395e+003;7.030825e-002
2.744324e+003;7.038683e-002
2.746252e+003;7.034616e-002
2.748181e+003;7.042093e-002
2.750109e+003;7.032641e-002
2.752038e+003;7.030202e-002
2.753967e+003;7.045811e-002
2.755895e+003;7.049221e-002
2.757824e+003;7.055656e-002
2.759752e+003;7.105503e-002
2.761681e+003;7.155620e-002
2.763609e+003;7.173344e-002
2.765538e+003;7.161898e-002
2.767466e+003;7.153057e-002
2.769395e+003;7.145040e-002
2.771323e+003;7.130256e-002
2.773252e+003;7.126632e-002
2.775181e+003;7.138987e-002
2.777109e+003;7.151697e-002
2.779038e+003;7.155670e-002
2.780966e+003;7.174747e-002
2.782895e+003;7.204045e-002
2.784823e+003;7.231792e-002
2.786752e+003;7.285620e-002
2.788680e+003;7.313482e-002
2.790609e+003;7.298471e-002
2.792538e+003;7.282900e-002
2.794466e+003;7.285236e-002
2.796395e+003;7.280209e-002
2.798323e+003;7.311314e-002
2.800252e+003;7.352299e-002
2.802180e+003;7.358170e-002
2.804109e+003;7.364094e-002
2.806037e+003;7.345852e-002
2.807966e+003;7.336254e-002
2.809895e+003;7.341728e-002
2.811823e+003;7.367038e-002
2.813751e+003;7.393830e-002
2.815680e+003;7.404359e-002
2.817609e+003;7.401255e-002
2.819537e+003;7.413173e-002
2.821466e+003;7.421175e-002
2.823394e+003;7.418676e-002
2.825323e+003;7.422598e-002
2.827251e+003;7.417555e-002
2.829180e+003;7.416832e-002
2.831108e+003;7.437602e-002
2.833037e+003;7.477081e-002
2.834966e+003;7.500076e-002
2.836894e+003;7.481155e-002
2.838823e+003;7.498229e-002
2.840751e+003;7.526579e-002
2.842680e+003;7.576336e-002
2.844608e+003;7.635649e-002
2.846537e+003;7.642443e-002
2.848465e+003;7.650255e-002
2.850394e+003;7.683687e-002
2.852323e+003;7.716852e-002
2.854251e+003;7.750402e-002
2.856180e+003;7.772485e-002
2.858108e+003;7.793763e-002
2.860037e+003;7.828769e-002
2.861965e+003;7.863546e-002
2.863894e+003;7.904420e-002
2.865822e+003;7.955375e-002
2.867751e+003;8.009833e-002
2.869679e+003;8.059584e-002
2.871608e+003;8.077155e-002
2.873536e+003;8.091296e-002
2.875465e+003;8.134851e-002
2.877394e+003;8.148295e-002
2.879322e+003;8.128146e-002
2.881251e+003;8.101285e-002
2.883179e+003;8.085904e-002
2.885108e+003;8.085077e-002
2.887036e+003;8.096235e-002
2.888965e+003;8.110941e-002
2.890893e+003;8.123336e-002
2.892822e+003;8.118155e-002
2.894750e+003;8.117372e-002
2.896679e+003;8.108238e-002
2.898608e+003;8.138691e-002
2.900536e+003;8.176757e-002
2.902465e+003;8.205281e-002
2.904393e+003;8.227856e-002
2.906322e+003;8.236499e-002
2.908250e+003;8.278327e-002
2.910179e+003;8.330338e-002
2.912107e+003;8.368753e-002
2.914036e+003;8.413825e-002
2.915965e+003;8.457543e-002
2.917893e+003;8.516242e-002
2.919822e+003;8.580317e-002
2.921750e+003;8.644705e-002
2.923679e+003;8.695363e-002
2.925607e+003;8.742567e-002
2.927536e+003;8.795855e-002
2.929464e+003;8.827615e-002
2.931393e+003;8.833921e-002
2.933322e+003;8.832711e-002
2.935250e+003;8.838855e-002
2.937178e+003;8.800809e-002
2.939107e+003;8.752549e-002
2.941036e+003;8.709943e-002
2.942964e+003;8.650039e-002
2.944893e+003;8.600988e-002
2.946821e+003;8.524810e-002
2.948750e+003;8.445093e-002
2.950678e+003;8.423985e-002
2.952607e+003;8.436727e-002
2.954535e+003;8.447154e-002
2.956464e+003;8.456396e-002
2.958393e+003;8.457982e-002
2.960321e+003;8.449371e-002
2.962250e+003;8.476887e-002
2.964178e+003;8.534225e-002
2.966107e+003;8.561528e-002
2.968035e+003;8.559491e-002
2.969964e+003;8.564942e-002
2.971892e+003;8.588497e-002
2.973821e+003;8.580729e-002
2.975750e+003;8.624207e-002
2.977678e+003;8.656719e-002
2.979607e+003;8.590448e-002
2.981535e+003;8.554500e-002
2.983464e+003;8.527995e-002
2.985392e+003;8.495917e-002
2.987321e+003;8.457056e-002
2.989249e+003;8.421382e-002
2.991178e+003;8.373240e-002
2.993106e+003;8.308595e-002
2.995035e+003;8.285119e-002
2.996964e+003;8.297119e-002
2.998892e+003;8.277654e-002
3.000821e+003;8.246562e-002
3.002749e+003;8.221754e-002
3.004678e+003;8.210193e-002
3.006606e+003;8.175353e-002
3.008535e+003;8.144574e-002
3.010463e+003;8.156782e-002
3.012392e+003;8.180405e-002
3.014321e+003;8.220349e-002
3.016249e+003;8.253710e-002
3.018177e+003;8.257961e-002
3.020106e+003;8.258827e-002
3.022035e+003;8.248542e-002
3.023963e+003;8.262554e-002
3.025892e+003;8.317672e-002
3.027820e+003;8.345666e-002
3.029749e+003;8.344975e-002
3.031677e+003;8.381739e-002
3.033606e+003;8.426592e-002
3.035534e+003;8.441423e-002
3.037463e+003;8.480464e-002
3.039392e+003;8.555476e-002
3.041320e+003;8.608656e-002
3.043249e+003;8.648842e-002
3.045177e+003;8.694052e-002
3.047106e+003;8.730813e-002
3.049034e+003;8.770825e-002
3.050963e+003;8.829390e-002
3.052891e+003;8.880787e-002
3.054820e+003;8.936667e-002
3.056749e+003;8.987651e-002
3.058677e+003;9.008819e-002
3.060606e+003;9.040788e-002
3.062534e+003;9.092858e-002
3.064463e+003;9.114584e-002
3.066391e+003;9.110362e-002
3.068320e+003;9.119840e-002
3.070248e+003;9.124149e-002
3.072177e+003;9.111661e-002
3.074105e+003;9.128519e-002
3.076034e+003;9.123486e-002
3.077963e+003;9.119493e-002
3.079891e+003;9.118985e-002
3.081820e+003;9.111870e-002
3.083748e+003;9.100652e-002
3.085677e+003;9.054871e-002
3.087605e+003;9.025221e-002
3.089534e+003;9.017732e-002
3.091462e+003;8.999193e-002
3.093391e+003;8.966905e-002
3.095320e+003;8.928002e-002
3.097248e+003;8.871122e-002
3.099177e+003;8.824959e-002
3.101105e+003;8.815058e-002
3.103034e+003;8.790317e-002
3.104962e+003;8.759663e-002
3.106891e+003;8.744910e-002
3.108819e+003;8.748107e-002
3.110748e+003;8.741226e-002
3.112677e+003;8.698148e-002
3.114605e+003;8.649375e-002
3.116533e+003;8.668470e-002
3.118462e+003;8.698650e-002
3.120391e+003;8.701792e-002
3.122319e+003;8.709643e-002
3.124248e+003;8.660643e-002
3.126176e+003;8.638431e-002
3.128105e+003;8.656942e-002
3.130033e+003;8.664275e-002
3.131962e+003;8.679604e-002
3.133890e+003;8.691118e-002
3.135819e+003;8.719499e-002
3.137748e+003;8.738495e-002
3.139676e+003;8.739334e-002
3.141605e+003;8.760414e-002
3.143533e+003;8.791644e-002
3.145462e+003;8.819507e-002
3.147390e+003;8.820762e-002
3.149319e+003;8.848956e-002
3.151247e+003;8.905365e-002
3.153176e+003;8.971031e-002
3.155104e+003;8.986033e-002
3.157033e+003;8.997384e-002
3.158962e+003;9.054989e-002
3.160890e+003;9.119100e-002
3.162819e+003;9.154836e-002
3.164747e+003;9.188952e-002
3.166676e+003;9.234478e-002
3.168604e+003;9.320077e-002
3.170533e+003;9.402338e-002
3.172461e+003;9.466387e-002
3.174390e+003;9.513996e-002
3.176319e+003;9.524021e-002
3.178247e+003;9.593783e-002
3.180176e+003;9.703019e-002
3.182104e+003;9.765045e-002
3.184033e+003;9.815287e-002
3.185961e+003;9.882706e-002
3.187890e+003;9.962574e-002
3.189818e+003;1.004152e-001
3.191747e+003;1.012977e-001
3.193676e+003;1.022040e-001
3.195604e+003;1.027082e-001
3.197532e+003;1.032444e-001
3.199461e+003;1.042333e-001
3.201390e+003;1.055018e-001
3.203318e+003;1.060320e-001
3.205247e+003;1.063244e-001
3.207175e+003;1.072786e-001
3.209104e+003;1.080300e-001
3.211032e+003;1.088760e-001
3.212961e+003;1.096747e-001
3.214889e+003;1.106121e-001
3.216818e+003;1.116266e-001
3.218747e+003;1.124626e-001
3.220675e+003;1.132811e-001
3.222604e+003;1.142296e-001
3.224532e+003;1.153608e-001
3.226461e+003;1.165422e-001
3.228389e+003;1.175247e-001
3.230318e+003;1.187141e-001
3.232246e+003;1.201435e-001
3.234175e+003;1.212586e-001
3.236104e+003;1.222951e-001
3.238032e+003;1.234370e-001
3.239961e+003;1.247037e-001
3.241889e+003;1.259069e-001
3.243818e+003;1.274787e-001
3.245746e+003;1.292180e-001
3.247675e+003;1.306253e-001
3.249603e+003;1.321646e-001
3.251532e+003;1.338612e-001
3.253460e+003;1.354898e-001
3.255389e+003;1.373849e-001
3.257318e+003;1.392048e-001
3.259246e+003;1.411042e-001
3.261175e+003;1.432401e-001
3.263103e+003;1.455683e-001
3.265032e+003;1.472954e-001
3.266960e+003;1.488592e-001
3.268889e+003;1.506604e-001
3.270817e+003;1.525642e-001
3.272746e+003;1.544350e-001
3.274675e+003;1.556594e-001
3.276603e+003;1.564431e-001
3.278531e+003;1.567270e-001
3.280460e+003;1.568818e-001
3.282389e+003;1.572139e-001
3.284317e+003;1.572673e-001
3.286246e+003;1.567295e-001
3.288174e+003;1.558340e-001
3.290103e+003;1.545624e-001
3.292031e+003;1.531869e-001
3.293960e+003;1.515263e-001
3.295888e+003;1.496714e-001
3.297817e+003;1.478605e-001
3.299746e+003;1.455222e-001
3.301674e+003;1.429929e-001
3.303603e+003;1.408721e-001
3.305531e+003;1.386185e-001
3.307460e+003;1.362372e-001
3.309388e+003;1.338485e-001
3.311317e+003;1.318556e-001
3.313245e+003;1.297962e-001
3.315174e+003;1.275852e-001
3.317103e+003;1.256094e-001
3.319031e+003;1.234850e-001
3.320960e+003;1.212213e-001
3.322888e+003;1.193095e-001
3.324817e+003;1.175002e-001
3.326745e+003;1.157458e-001
3.328674e+003;1.141192e-001
3.330602e+003;1.124809e-001
3.332531e+003;1.108070e-001
3.334459e+003;1.091420e-001
3.336388e+003;1.075107e-001
3.338317e+003;1.060886e-001
3.340245e+003;1.051696e-001
3.342174e+003;1.039582e-001
3.344102e+003;1.022149e-001
3.346031e+003;1.009578e-001
3.347959e+003;1.000121e-001
3.349888e+003;9.894839e-002
3.351816e+003;9.793079e-002
3.353745e+003;9.694187e-002
3.355674e+003;9.602702e-002
3.357602e+003;9.507524e-002
3.359531e+003;9.456825e-002
3.361459e+003;9.385164e-002
3.363388e+003;9.288533e-002
3.365316e+003;9.227044e-002
3.367245e+003;9.192448e-002
3.369173e+003;9.132988e-002
3.371102e+003;9.050406e-002
3.373031e+003;8.978291e-002
3.374959e+003;8.942985e-002
3.376887e+003;8.933130e-002
3.378816e+003;8.886455e-002
3.380745e+003;8.809961e-002
3.382673e+003;8.737758e-002
3.384602e+003;8.675274e-002
3.386530e+003;8.625165e-002
3.388459e+003;8.588954e-002
3.390387e+003;8.564785e-002
3.392316e+003;8.516710e-002
3.394244e+003;8.437817e-002
3.396173e+003;8.394565e-002
3.398102e+003;8.351476e-002
3.400030e+003;8.299646e-002
3.401959e+003;8.260766e-002
3.403887e+003;8.226915e-002
3.405816e+003;8.184357e-002
3.407744e+003;8.139770e-002
3.409673e+003;8.081753e-002
3.411601e+003;8.037745e-002
3.413530e+003;7.988179e-002
3.415458e+003;7.936724e-002
3.417387e+003;7.888789e-002
3.419316e+003;7.865302e-002
3.421244e+003;7.847351e-002
3.423173e+003;7.789544e-002
3.425101e+003;7.700743e-002
3.427030e+003;7.637035e-002
3.428958e+003;7.611274e-002
3.430887e+003;7.598749e-002
3.432815e+003;7.572123e-002
3.434744e+003;7.556316e-002
3.436673e+003;7.522513e-002
3.438601e+003;7.472838e-002
3.440530e+003;7.417650e-002
3.442458e+003;7.379486e-002
3.444387e+003;7.368951e-002
3.446315e+003;7.359305e-002
3.448244e+003;7.341155e-002
3.450172e+003;7.288120e-002
3.452101e+003;7.277983e-002
3.454030e+003;7.289734e-002
3.455958e+003;7.279307e-002
3.457886e+003;7.269964e-002
3.459815e+003;7.207146e-002
3.461744e+003;7.142112e-002
3.463672e+003;7.144634e-002
3.465601e+003;7.151013e-002
3.467529e+003;7.129646e-002
3.469458e+003;7.092690e-002
3.471386e+003;7.082981e-002
3.473315e+003;7.094277e-002
3.475243e+003;7.071964e-002
3.477172e+003;7.040752e-002
3.479101e+003;6.998523e-002
3.481029e+003;6.960682e-002
3.482958e+003;6.978417e-002
3.484886e+003;6.973663e-002
3.486815e+003;6.953195e-002
3.488743e+003;6.916952e-002
3.490672e+003;6.895455e-002
3.492600e+003;6.898718e-002
3.494529e+003;6.890815e-002
3.496458e+003;6.834817e-002
3.498386e+003;6.786957e-002
3.500315e+003;6.782529e-002
3.502243e+003;6.790920e-002
3.504172e+003;6.775774e-002
3.506100e+003;6.732911e-002
3.508029e+003;6.708605e-002
3.509957e+003;6.696418e-002
3.511886e+003;6.675223e-002
3.513814e+003;6.683876e-002
3.515743e+003;6.661037e-002
3.517672e+003;6.606358e-002
3.519600e+003;6.619406e-002
3.521529e+003;6.593759e-002
3.523457e+003;6.535297e-002
3.525386e+003;6.511968e-002
3.527314e+003;6.493490e-002
3.529243e+003;6.492432e-002
3.531171e+003;6.476748e-002
3.533100e+003;6.449406e-002
3.535029e+003;6.426199e-002
3.536957e+003;6.419745e-002
3.538885e+003;6.387425e-002
3.540814e+003;6.350063e-002
3.542743e+003;6.309078e-002
3.544671e+003;6.258612e-002
3.546600e+003;6.225999e-002
3.548528e+003;6.226221e-002
3.550457e+003;6.265624e-002
3.552385e+003;6.263071e-002
3.554314e+003;6.201956e-002
3.556242e+003;6.182044e-002
3.558171e+003;6.179423e-002
3.560100e+003;6.129818e-002
3.562028e+003;6.074750e-002
3.563957e+003;6.063456e-002
3.565885e+003;6.055799e-002
3.567814e+003;6.022984e-002
3.569742e+003;5.985402e-002
3.571671e+003;5.952343e-002
3.573599e+003;5.960871e-002
3.575528e+003;5.989931e-002
3.577457e+003;5.956177e-002
3.579385e+003;5.904894e-002
3.581314e+003;5.889686e-002
3.583242e+003;5.864907e-002
3.585171e+003;5.817117e-002
3.587099e+003;5.793791e-002
3.589028e+003;5.777495e-002
3.590956e+003;5.772763e-002
3.592885e+003;5.756248e-002
3.594813e+003;5.721500e-002
3.596742e+003;5.716094e-002
3.598671e+003;5.734807e-002
3.600599e+003;5.703326e-002
3.602528e+003;5.639268e-002
3.604456e+003;5.618289e-002
3.606385e+003;5.648977e-002
3.608313e+003;5.643389e-002
3.610242e+003;5.575517e-002
3.612170e+003;5.525395e-002
3.614099e+003;5.511430e-002
3.616028e+003;5.498698e-002
3.617956e+003;5.509925e-002
3.619885e+003;5.512938e-002
3.621813e+003;5.484974e-002
3.623742e+003;5.471626e-002
3.625670e+003;5.444308e-002
3.627599e+003;5.389251e-002
3.629527e+003;5.353978e-002
3.631456e+003;5.352003e-002
3.633385e+003;5.328221e-002
3.635313e+003;5.290258e-002
3.637241e+003;5.263084e-002
3.639170e+003;5.246207e-002
3.641099e+003;5.230234e-002
3.643027e+003;5.197723e-002
3.644956e+003;5.168677e-002
3.646884e+003;5.172054e-002
3.648813e+003;5.177668e-002
3.650741e+003;5.154146e-002
3.652670e+003;5.114501e-002
3.654598e+003;5.084483e-002
3.656527e+003;5.026271e-002
3.658456e+003;4.996677e-002
3.660384e+003;5.041403e-002
3.662313e+003;5.056331e-002
3.664241e+003;5.000916e-002
3.666170e+003;4.961094e-002
3.668098e+003;4.937693e-002
3.670027e+003;4.879903e-002
3.671955e+003;4.867567e-002
3.673884e+003;4.902410e-002
3.675813e+003;4.861137e-002
3.677741e+003;4.827893e-002
3.679669e+003;4.808779e-002
3.681598e+003;4.755519e-002
3.683527e+003;4.700819e-002
3.685455e+003;4.705308e-002
3.687384e+003;4.711099e-002
3.689312e+003;4.620805e-002
3.691241e+003;4.562384e-002
3.693169e+003;4.561603e-002
3.695098e+003;4.566785e-002
3.697026e+003;4.552271e-002
3.698955e+003;4.542378e-002
3.700884e+003;4.513763e-002
3.702812e+003;4.497704e-002
3.704741e+003;4.461664e-002
3.706669e+003;4.444879e-002
3.708598e+003;4.476108e-002
3.710526e+003;4.450400e-002
3.712455e+003;4.401351e-002
3.714383e+003;4.403749e-002
3.716312e+003;4.431374e-002
3.718240e+003;4.477846e-002
3.720169e+003;4.489517e-002
3.722098e+003;4.427367e-002
3.724026e+003;4.368340e-002
3.725955e+003;4.344347e-002
3.727883e+003;4.328827e-002
3.729812e+003;4.370894e-002
3.731740e+003;4.402770e-002
3.733669e+003;4.402598e-002
3.735597e+003;4.390597e-002
3.737526e+003;4.361218e-002
3.739455e+003;4.355302e-002
3.741383e+003;4.357104e-002
3.743312e+003;4.347197e-002
3.745240e+003;4.304940e-002
3.747169e+003;4.301757e-002
3.749097e+003;4.330343e-002
3.751026e+003;4.320624e-002
3.752954e+003;4.290798e-002
3.754883e+003;4.297170e-002
3.756812e+003;4.302888e-002
3.758740e+003;4.286972e-002
3.760668e+003;4.294419e-002
3.762597e+003;4.320185e-002
3.764526e+003;4.323545e-002
3.766454e+003;4.306462e-002
3.768383e+003;4.264355e-002
3.770311e+003;4.250124e-002
3.772240e+003;4.310787e-002
3.774168e+003;4.340231e-002
3.776097e+003;4.326067e-002
3.778025e+003;4.308548e-002
3.779954e+003;4.295165e-002
3.781883e+003;4.253490e-002
3.783811e+003;4.258927e-002
3.785740e+003;4.323036e-002
3.787668e+003;4.348185e-002
3.789597e+003;4.317813e-002
3.791525e+003;4.300305e-002
3.793454e+003;4.304929e-002
3.795382e+003;4.288962e-002
3.797311e+003;4.306144e-002
3.799240e+003;4.300005e-002
3.801168e+003;4.225729e-002
3.803097e+003;4.231364e-002
3.805025e+003;4.296047e-002
3.806954e+003;4.313169e-002
3.808882e+003;4.333894e-002
3.810811e+003;4.338650e-002
3.812739e+003;4.308219e-002
3.814668e+003;4.327154e-002
3.816596e+003;4.362309e-002
3.818525e+003;4.365182e-002
3.820454e+003;4.374155e-002
3.822382e+003;4.363991e-002
3.824311e+003;4.362881e-002
3.826239e+003;4.382284e-002
3.828168e+003;4.374481e-002
3.830096e+003;4.359562e-002
3.832025e+003;4.345863e-002
3.833953e+003;4.336332e-002
3.835882e+003;4.361093e-002
3.837811e+003;4.381217e-002
3.839739e+003;4.366457e-002
3.841667e+003;4.298831e-002
3.843596e+003;4.286782e-002
3.845525e+003;4.329178e-002
3.847453e+003;4.377747e-002
3.849382e+003;4.389479e-002
3.851310e+003;4.346577e-002
3.853239e+003;4.308720e-002
3.855167e+003;4.325884e-002
3.857096e+003;4.382848e-002
3.859024e+003;4.415822e-002
3.860953e+003;4.412015e-002
3.862882e+003;4.392188e-002
3.864810e+003;4.389805e-002
3.866739e+003;4.369813e-002
3.868667e+003;4.391675e-002
3.870596e+003;4.422583e-002
3.872524e+003;4.407691e-002
3.874453e+003;4.389736e-002
3.876381e+003;4.437146e-002
3.878310e+003;4.472303e-002
3.880239e+003;4.473779e-002
3.882167e+003;4.477246e-002
3.884096e+003;4.459428e-002
3.886024e+003;4.400276e-002
3.887953e+003;4.390058e-002
3.889881e+003;4.426395e-002
3.891810e+003;4.448407e-002
3.893738e+003;4.471943e-002
3.895667e+003;4.496520e-002
3.897595e+003;4.480983e-002
3.899524e+003;4.486530e-002
3.901453e+003;4.513719e-002
3.903381e+003;4.538875e-002
3.905310e+003;4.569432e-002
3.907238e+003;4.537978e-002
3.909167e+003;4.549132e-002
3.911095e+003;4.576209e-002
3.913024e+003;4.550942e-002
3.914952e+003;4.506763e-002
3.916881e+003;4.500585e-002
3.918810e+003;4.531317e-002
3.920738e+003;4.558707e-002
3.922667e+003;4.587255e-002
3.924595e+003;4.583135e-002
3.926524e+003;4.593815e-002
3.928452e+003;4.592415e-002
3.930381e+003;4.566524e-002
3.932309e+003;4.606018e-002
3.934238e+003;4.678797e-002
3.936167e+003;4.648975e-002
3.938095e+003;4.585230e-002
3.940023e+003;4.547778e-002
3.941952e+003;4.556870e-002
3.943881e+003;4.573776e-002
3.945809e+003;4.560716e-002
3.947738e+003;4.564930e-002
3.949666e+003;4.581180e-002
3.951595e+003;4.592448e-002
3.953523e+003;4.614334e-002
3.955452e+003;4.649354e-002
3.957380e+003;4.651714e-002
3.959309e+003;4.628811e-002
3.961238e+003;4.620304e-002
3.963166e+003;4.632088e-002
3.965095e+003;4.625250e-002
3.967023e+003;4.662319e-002
3.968952e+003;4.691124e-002
3.970880e+003;4.680575e-002
3.972809e+003;4.666561e-002
3.974737e+003;4.646913e-002
3.976666e+003;4.625847e-002
3.978594e+003;4.601874e-002
3.980523e+003;4.641728e-002
3.982452e+003;4.688754e-002
3.984380e+003;4.679601e-002
3.986309e+003;4.670177e-002
3.988237e+003;4.691098e-002
3.990166e+003;4.720569e-002
3.992094e+003;4.743965e-002
3.994023e+003;4.718168e-002
3.995951e+003;4.659560e-002
3.997880e+003;4.669550e-002
3.999809e+003;4.665318e-002
4.001737e+003;0.000000e+000
