3.992094e+002;0.000000e+000
4.011380e+002;0.000000e+000
4.030665e+002;0.000000e+000
4.049951e+002;0.000000e+000
4.069236e+002;0.000000e+000
4.088522e+002;0.000000e+000
4.107807e+002;0.000000e+000
4.127093e+002;0.000000e+000
4.146378e+002;0.000000e+000
4.165664e+002;0.000000e+000
4.184949e+002;0.000000e+000
4.204235e+002;0.000000e+000
4.223520e+002;0.000000e+000
4.242806e+002;0.000000e+000
4.262091e+002;0.000000e+000
4.281377e+002;0.000000e+000
4.300662e+002;0.000000e+000
4.319948e+002;0.000000e+000
4.339233e+002;0.000000e+000
4.358519e+002;0.000000e+000
4.377804e+002;0.000000e+000
4.397090e+002;0.000000e+000
4.416375e+002;0.000000e+000
4.435660e+002;0.000000e+000
4.454946e+002;0.000000e+000
4.474232e+002;0.000000e+000
4.493517e+002;0.000000e+000
4.512802e+002;0.000000e+000
4.532088e+002;0.000000e+000
4.551373e+002;0.000000e+000
4.570659e+002;0.000000e+000
4.589944e+002;0.000000e+000
4.609230e+002;0.000000e+000
4.628515e+002;0.000000e+000
4.647801e+002;0.000000e+000
4.667086e+002;0.000000e+000
4.686372e+002;0.000000e+000
4.705657e+002;0.000000e+000
4.724943e+002;0.000000e+000
4.744228e+002;0.000000e+000
4.763513e+002;0.000000e+000
4.782799e+002;0.000000e+000
4.802085e+002;0.000000e+000
4.821370e+002;0.000000e+000
4.840656e+002;0.000000e+000
4.859941e+002;0.000000e+000
4.879226e+002;0.000000e+000
4.898512e+002;0.000000e+000
4.917798e+002;0.000000e+000
4.937083e+002;0.000000e+000
4.956368e+002;0.000000e+000
4.975654e+002;0.000000e+000
4.994939e+002;0.000000e+000
5.014225e+002;0.000000e+000
5.033510e+002;0.000000e+000
5.052796e+002;0.000000e+000
5.072081e+002;0.000000e+000
5.091367e+002;0.000000e+000
5.110652e+002;0.000000e+000
5.129938e+002;0.000000e+000
5.149223e+002;0.000000e+000
5.168509e+002;0.000000e+000
5.187794e+002;0.000000e+000
5.207079e+002;0.000000e+000
5.226365e+002;0.000000e+000
5.245651e+002;0.000000e+000
5.264936e+002;0.000000e+000
5.284222e+002;0.000000e+000
5.303507e+002;0.000000e+000
5.322792e+002;0.000000e+000
5.342078e+002;0.000000e+000
5.361364e+002;0.000000e+000
5.380649e+002;0.000000e+000
5.399935e+002;0.000000e+000
5.419220e+002;0.000000e+000
5.438505e+002;0.000000e+000
5.457791e+002;0.000000e+000
5.477076e+002;0.000000e+000
5.496362e+002;0.000000e+000
5.515648e+002;0.000000e+000
5.534933e+002;0.000000e+000
5.554218e+002;0.000000e+000
5.573504e+002;0.000000e+000
5.592789e+002;0.000000e+000
5.612075e+002;0.000000e+000
5.631360e+002;0.000000e+000
5.650646e+002;0.000000e+000
5.669931e+002;0.000000e+000
5.689217e+002;0.000000e+000
5.708502e+002;0.000000e+000
5.727787e+002;0.000000e+000
5.747073e+002;0.000000e+000
5.766359e+002;0.000000e+000
5.785644e+002;0.000000e+000
5.804930e+002;0.000000e+000
5.824215e+002;0.000000e+000
5.843500e+002;0.000000e+000
5.862786e+002;0.000000e+000
5.882072e+002;0.000000e+000
5.901357e+002;0.000000e+000
5.920643e+002;0.000000e+000
5.939928e+002;0.000000e+000
5.959213e+002;0.000000e+000
5.978499e+002;0.000000e+000
5.997784e+002;2.127983e-001
6.017070e+002;2.313505e-001
6.036355e+002;2.454867e-001
6.055641e+002;2.474556e-001
6.074926e+002;2.455566e-001
6.094211e+002;2.428975e-001
6.113497e+002;2.423880e-001
6.132783e+002;2.460684e-001
6.152068e+002;2.447520e-001
6.171354e+002;2.413459e-001
6.190639e+002;2.401189e-001
6.209924e+002;2.404194e-001
6.229210e+002;2.392514e-001
6.248495e+002;2.370078e-001
6.267781e+002;2.376080e-001
6.287067e+002;2.400077e-001
6.306352e+002;2.367117e-001
6.325637e+002;2.332577e-001
6.344923e+002;2.310170e-001
6.364208e+002;2.304102e-001
6.383494e+002;2.306446e-001
6.402780e+002;2.312341e-001
6.422065e+002;2.324090e-001
6.441350e+002;2.298201e-001
6.460636e+002;2.254651e-001
6.479921e+002;2.209025e-001
6.499207e+002;2.215838e-001
6.518492e+002;2.228851e-001
6.537778e+002;2.214752e-001
6.557063e+002;2.200290e-001
6.576349e+002;2.178331e-001
6.595634e+002;2.180312e-001
6.614919e+002;2.189481e-001
6.634205e+002;2.194899e-001
6.653491e+002;2.190708e-001
6.672776e+002;2.184812e-001
6.692062e+002;2.201486e-001
6.711347e+002;2.212604e-001
6.730632e+002;2.216872e-001
6.749918e+002;2.206615e-001
6.769203e+002;2.191078e-001
6.788489e+002;2.199669e-001
6.807775e+002;2.207062e-001
6.827060e+002;2.209535e-001
6.846345e+002;2.215178e-001
6.865631e+002;2.227847e-001
6.884916e+002;2.220983e-001
6.904202e+002;2.202906e-001
6.923488e+002;2.187209e-001
6.942773e+002;2.162710e-001
6.962058e+002;2.148095e-001
6.981344e+002;2.150302e-001
7.000629e+002;2.142766e-001
7.019915e+002;2.114394e-001
7.039200e+002;2.086104e-001
7.058486e+002;2.060261e-001
7.077771e+002;2.033398e-001
7.097057e+002;2.013896e-001
7.116342e+002;1.995281e-001
7.135627e+002;1.975767e-001
7.154913e+002;1.948601e-001
7.174199e+002;1.923424e-001
7.193484e+002;1.900031e-001
7.212770e+002;1.878124e-001
7.232055e+002;1.848121e-001
7.251340e+002;1.809624e-001
7.270626e+002;1.777701e-001
7.289911e+002;1.751214e-001
7.309197e+002;1.726350e-001
7.328483e+002;1.701136e-001
7.347768e+002;1.673367e-001
7.367053e+002;1.644047e-001
7.386339e+002;1.617266e-001
7.405624e+002;1.585859e-001
7.424910e+002;1.548969e-001
7.444196e+002;1.512642e-001
7.463481e+002;1.495664e-001
7.482766e+002;1.483970e-001
7.502052e+002;1.455372e-001
7.521337e+002;1.429830e-001
7.540623e+002;1.422882e-001
7.559908e+002;1.412309e-001
7.579194e+002;1.395934e-001
7.598479e+002;1.375135e-001
7.617765e+002;1.362825e-001
7.637050e+002;1.360696e-001
7.656335e+002;1.352399e-001
7.675621e+002;1.342358e-001
7.694907e+002;1.326313e-001
7.714192e+002;1.304013e-001
7.733478e+002;1.287272e-001
7.752763e+002;1.271358e-001
7.772048e+002;1.258906e-001
7.791334e+002;1.242572e-001
7.810620e+002;1.223137e-001
7.829905e+002;1.207589e-001
7.849191e+002;1.201662e-001
7.868476e+002;1.188910e-001
7.887761e+002;1.177351e-001
7.907047e+002;1.167266e-001
7.926332e+002;1.152293e-001
7.945618e+002;1.142741e-001
7.964903e+002;1.135119e-001
7.984189e+002;1.130820e-001
8.003474e+002;1.126165e-001
8.022759e+002;1.126182e-001
8.042045e+002;1.125917e-001
8.061331e+002;1.125753e-001
8.080616e+002;1.133756e-001
8.099902e+002;1.132590e-001
8.119187e+002;1.127532e-001
8.138472e+002;1.129755e-001
8.157758e+002;1.132411e-001
8.177043e+002;1.132778e-001
8.196329e+002;1.135557e-001
8.215615e+002;1.144626e-001
8.234900e+002;1.147553e-001
8.254185e+002;1.148646e-001
8.273471e+002;1.145191e-001
8.292756e+002;1.140160e-001
8.312042e+002;1.131865e-001
8.331328e+002;1.116896e-001
8.350613e+002;1.106608e-001
8.369898e+002;1.099094e-001
8.389184e+002;1.087986e-001
8.408469e+002;1.081421e-001
8.427755e+002;1.070274e-001
8.447040e+002;1.062632e-001
8.466326e+002;1.067546e-001
8.485611e+002;1.071834e-001
8.504897e+002;1.075116e-001
8.524182e+002;1.075461e-001
8.543467e+002;1.066439e-001
8.562753e+002;1.047342e-001
8.582039e+002;1.026144e-001
8.601324e+002;1.007198e-001
8.620610e+002;9.944923e-002
8.639895e+002;9.856897e-002
8.659180e+002;9.759291e-002
8.678466e+002;9.742555e-002
8.697751e+002;9.768970e-002
8.717037e+002;9.766825e-002
8.736323e+002;9.791817e-002
8.755608e+002;9.796724e-002
8.774893e+002;9.754093e-002
8.794179e+002;9.707323e-002
8.813464e+002;9.696051e-002
8.832750e+002;9.742435e-002
8.852036e+002;9.735022e-002
8.871321e+002;9.687850e-002
8.890606e+002;9.661774e-002
8.909892e+002;9.697264e-002
8.929177e+002;9.714492e-002
8.948463e+002;9.686434e-002
8.967748e+002;9.668091e-002
8.987034e+002;9.650005e-002
9.006319e+002;9.617965e-002
9.025605e+002;9.568974e-002
9.044890e+002;9.559299e-002
9.064175e+002;9.571118e-002
9.083461e+002;9.550475e-002
9.102747e+002;9.593370e-002
9.122032e+002;9.692248e-002
9.141318e+002;9.766019e-002
9.160603e+002;9.840756e-002
9.179888e+002;9.936742e-002
9.199174e+002;1.004546e-001
9.218459e+002;1.020355e-001
9.237745e+002;1.033328e-001
9.257031e+002;1.038363e-001
9.276316e+002;1.045440e-001
9.295601e+002;1.051947e-001
9.314887e+002;1.051702e-001
9.334172e+002;1.047124e-001
9.353458e+002;1.046341e-001
9.372744e+002;1.045887e-001
9.392029e+002;1.046083e-001
9.411314e+002;1.051142e-001
9.430600e+002;1.056710e-001
9.449885e+002;1.061645e-001
9.469171e+002;1.065462e-001
9.488456e+002;1.067547e-001
9.507742e+002;1.072725e-001
9.527027e+002;1.081467e-001
9.546313e+002;1.090301e-001
9.565598e+002;1.098475e-001
9.584883e+002;1.105908e-001
9.604169e+002;1.115854e-001
9.623455e+002;1.130653e-001
9.642740e+002;1.146778e-001
9.662026e+002;1.163226e-001
9.681311e+002;1.183391e-001
9.700596e+002;1.202752e-001
9.719882e+002;1.216562e-001
9.739167e+002;1.225805e-001
9.758453e+002;1.228199e-001
9.777739e+002;1.223286e-001
9.797024e+002;1.218815e-001
9.816309e+002;1.213624e-001
9.835595e+002;1.204857e-001
9.854880e+002;1.205965e-001
9.874166e+002;1.219319e-001
9.893452e+002;1.238103e-001
9.912737e+002;1.261313e-001
9.932022e+002;1.279917e-001
9.951307e+002;1.289284e-001
9.970593e+002;1.295193e-001
9.989879e+002;1.295644e-001
1.000916e+003;1.286708e-001
1.002845e+003;1.274405e-001
1.004773e+003;1.263222e-001
1.006702e+003;1.254515e-001
1.008631e+003;1.245970e-001
1.010559e+003;1.233255e-001
1.012488e+003;1.221385e-001
1.014416e+003;1.208600e-001
1.016345e+003;1.198312e-001
1.018273e+003;1.197645e-001
1.020202e+003;1.200803e-001
1.022130e+003;1.212943e-001
1.024059e+003;1.237640e-001
1.025988e+003;1.267120e-001
1.027916e+003;1.294393e-001
1.029845e+003;1.316479e-001
1.031773e+003;1.335207e-001
1.033702e+003;1.355525e-001
1.035630e+003;1.373031e-001
1.037559e+003;1.390371e-001
1.039487e+003;1.403577e-001
1.041416e+003;1.409872e-001
1.043344e+003;1.415056e-001
1.045273e+003;1.421174e-001
1.047202e+003;1.427485e-001
1.049130e+003;1.431819e-001
1.051059e+003;1.442454e-001
1.052987e+003;1.458800e-001
1.054916e+003;1.474546e-001
1.056844e+003;1.496189e-001
1.058773e+003;1.517650e-001
1.060701e+003;1.533300e-001
1.062630e+003;1.542585e-001
1.064558e+003;1.547398e-001
1.066487e+003;1.551846e-001
1.068416e+003;1.556874e-001
1.070344e+003;1.554055e-001
1.072273e+003;1.539864e-001
1.074201e+003;1.519920e-001
1.076130e+003;1.496182e-001
1.078058e+003;1.469382e-001
1.079987e+003;1.444317e-001
1.081915e+003;1.415762e-001
1.083844e+003;1.387558e-001
1.085773e+003;1.362552e-001
1.087701e+003;1.340598e-001
1.089630e+003;1.322208e-001
1.091558e+003;1.310042e-001
1.093487e+003;1.305247e-001
1.095415e+003;1.304117e-001
1.097344e+003;1.300296e-001
1.099272e+003;1.299195e-001
1.101201e+003;1.302756e-001
1.103129e+003;1.304124e-001
1.105058e+003;1.300970e-001
1.106987e+003;1.298915e-001
1.108915e+003;1.290650e-001
1.110844e+003;1.278826e-001
1.112772e+003;1.272726e-001
1.114701e+003;1.272198e-001
1.116629e+003;1.272862e-001
1.118558e+003;1.271547e-001
1.120486e+003;1.270956e-001
1.122415e+003;1.272059e-001
1.124344e+003;1.277021e-001
1.126272e+003;1.281476e-001
1.128201e+003;1.281073e-001
1.130129e+003;1.284911e-001
1.132058e+003;1.293828e-001
1.133986e+003;1.304352e-001
1.135915e+003;1.312571e-001
1.137843e+003;1.323673e-001
1.139772e+003;1.338489e-001
1.141700e+003;1.357131e-001
1.143629e+003;1.375613e-001
1.145557e+003;1.391242e-001
1.147486e+003;1.406632e-001
1.149415e+003;1.423896e-001
1.151343e+003;1.440604e-001
1.153272e+003;1.455914e-001
1.155200e+003;1.470294e-001
1.157129e+003;1.487366e-001
1.159057e+003;1.500496e-001
1.160986e+003;1.509068e-001
1.162914e+003;1.520008e-001
1.164843e+003;1.528932e-001
1.166771e+003;1.535091e-001
1.168700e+003;1.545637e-001
1.170629e+003;1.552614e-001
1.172557e+003;1.544864e-001
1.174486e+003;1.528346e-001
1.176414e+003;1.511834e-001
1.178343e+003;1.497017e-001
1.180271e+003;1.485912e-001
1.182200e+003;1.481559e-001
1.184128e+003;1.482356e-001
1.186057e+003;1.485613e-001
1.187986e+003;1.495498e-001
1.189914e+003;1.508599e-001
1.191843e+003;1.526398e-001
1.193771e+003;1.547967e-001
1.195700e+003;1.568295e-001
1.197628e+003;1.594922e-001
1.199557e+003;1.625693e-001
1.201485e+003;1.661440e-001
1.203414e+003;1.704918e-001
1.205343e+003;1.748918e-001
1.207271e+003;1.792055e-001
1.209200e+003;1.835045e-001
1.211128e+003;1.875320e-001
1.213057e+003;1.914027e-001
1.214985e+003;1.951932e-001
1.216914e+003;1.989657e-001
1.218842e+003;2.022912e-001
1.220771e+003;2.049578e-001
1.222699e+003;2.071155e-001
1.224628e+003;2.088143e-001
1.226557e+003;2.100845e-001
1.228485e+003;2.109810e-001
1.230414e+003;2.111827e-001
1.232342e+003;2.100289e-001
1.234271e+003;2.083136e-001
1.236199e+003;2.063066e-001
1.238128e+003;2.040058e-001
1.240056e+003;2.016689e-001
1.241985e+003;1.997096e-001
1.243913e+003;1.977848e-001
1.245842e+003;1.964186e-001
1.247771e+003;1.957211e-001
1.249699e+003;1.948938e-001
1.251628e+003;1.940579e-001
1.253556e+003;1.938290e-001
1.255485e+003;1.940159e-001
1.257413e+003;1.941758e-001
1.259342e+003;1.939908e-001
1.261270e+003;1.929427e-001
1.263199e+003;1.908260e-001
1.265127e+003;1.880989e-001
1.267056e+003;1.850930e-001
1.268985e+003;1.817917e-001
1.270913e+003;1.781778e-001
1.272842e+003;1.744239e-001
1.274770e+003;1.707937e-001
1.276699e+003;1.680975e-001
1.278627e+003;1.660163e-001
1.280556e+003;1.642719e-001
1.282484e+003;1.626146e-001
1.284413e+003;1.612813e-001
1.286342e+003;1.604735e-001
1.288270e+003;1.598075e-001
1.290199e+003;1.593345e-001
1.292127e+003;1.591126e-001
1.294056e+003;1.589798e-001
1.295984e+003;1.589231e-001
1.297913e+003;1.588257e-001
1.299841e+003;1.589043e-001
1.301770e+003;1.590180e-001
1.303698e+003;1.587608e-001
1.305627e+003;1.583170e-001
1.307556e+003;1.581389e-001
1.309484e+003;1.581697e-001
1.311413e+003;1.578754e-001
1.313341e+003;1.573672e-001
1.315270e+003;1.570766e-001
1.317198e+003;1.570891e-001
1.319127e+003;1.571062e-001
1.321055e+003;1.574314e-001
1.322984e+003;1.580812e-001
1.324912e+003;1.588924e-001
1.326841e+003;1.598430e-001
1.328770e+003;1.608578e-001
1.330698e+003;1.614787e-001
1.332627e+003;1.615616e-001
1.334555e+003;1.614981e-001
1.336484e+003;1.612685e-001
1.338412e+003;1.610961e-001
1.340341e+003;1.608369e-001
1.342269e+003;1.605633e-001
1.344198e+003;1.603361e-001
1.346126e+003;1.601458e-001
1.348055e+003;1.599884e-001
1.349984e+003;1.600531e-001
1.351912e+003;1.601877e-001
1.353841e+003;1.605667e-001
1.355769e+003;1.615987e-001
1.357698e+003;1.631729e-001
1.359626e+003;1.648968e-001
1.361555e+003;1.670222e-001
1.363483e+003;1.698239e-001
1.365412e+003;1.723210e-001
1.367341e+003;1.737580e-001
1.369269e+003;1.741464e-001
1.371198e+003;1.738322e-001
1.373126e+003;1.731409e-001
1.375055e+003;1.724181e-001
1.376983e+003;1.719720e-001
1.378912e+003;1.717595e-001
1.380840e+003;1.719976e-001
1.382769e+003;1.725927e-001
1.384698e+003;1.729415e-001
1.386626e+003;1.732159e-001
1.388555e+003;1.737238e-001
1.390483e+003;1.742316e-001
1.392412e+003;1.744206e-001
1.394340e+003;1.748029e-001
1.396269e+003;1.756064e-001
1.398197e+003;1.762923e-001
1.400126e+003;1.768983e-001
1.402054e+003;1.776895e-001
1.403983e+003;1.785763e-001
1.405911e+003;1.796917e-001
1.407840e+003;1.803720e-001
1.409769e+003;1.804806e-001
1.411697e+003;1.805010e-001
1.413626e+003;1.804869e-001
1.415554e+003;1.802190e-001
1.417483e+003;1.797903e-001
1.419411e+003;1.799011e-001
1.421340e+003;1.813061e-001
1.423268e+003;1.831903e-001
1.425197e+003;1.856305e-001
1.427125e+003;1.890631e-001
1.429054e+003;1.931967e-001
1.430983e+003;1.983265e-001
1.432911e+003;2.043930e-001
1.434840e+003;2.100430e-001
1.436768e+003;2.146089e-001
1.438697e+003;2.181531e-001
1.440625e+003;2.202306e-001
1.442554e+003;2.212609e-001
1.444482e+003;2.213394e-001
1.446411e+003;2.199681e-001
1.448340e+003;2.172512e-001
1.450268e+003;2.134034e-001
1.452197e+003;2.083471e-001
1.454125e+003;2.026334e-001
1.456054e+003;1.969054e-001
1.457982e+003;1.925048e-001
1.459911e+003;1.899992e-001
1.461839e+003;1.886060e-001
1.463768e+003;1.875810e-001
1.465697e+003;1.872669e-001
1.467625e+003;1.879109e-001
1.469554e+003;1.888773e-001
1.471482e+003;1.898765e-001
1.473411e+003;1.915410e-001
1.475339e+003;1.943332e-001
1.477268e+003;1.975896e-001
1.479196e+003;2.013941e-001
1.481125e+003;2.058672e-001
1.483053e+003;2.114142e-001
1.484982e+003;2.178625e-001
1.486911e+003;2.244336e-001
1.488839e+003;2.312791e-001
1.490768e+003;2.390136e-001
1.492696e+003;2.472412e-001
1.494625e+003;2.552295e-001
1.496553e+003;2.632967e-001
1.498482e+003;2.714062e-001
1.500410e+003;2.786889e-001
1.502339e+003;2.854039e-001
1.504267e+003;2.915210e-001
1.506196e+003;2.968425e-001
1.508125e+003;3.023126e-001
1.510053e+003;3.074830e-001
1.511982e+003;3.113374e-001
1.513910e+003;3.132079e-001
1.515839e+003;3.115484e-001
1.517767e+003;3.063613e-001
1.519696e+003;2.998189e-001
1.521624e+003;2.938108e-001
1.523553e+003;2.889960e-001
1.525481e+003;2.844412e-001
1.527410e+003;2.800007e-001
1.529339e+003;2.753922e-001
1.531267e+003;2.704666e-001
1.533196e+003;2.653487e-001
1.535124e+003;2.603586e-001
1.537053e+003;2.554713e-001
1.538981e+003;2.501492e-001
1.540910e+003;2.455048e-001
1.542838e+003;2.414114e-001
1.544767e+003;2.373863e-001
1.546695e+003;2.335351e-001
1.548624e+003;2.294448e-001
1.550553e+003;2.251157e-001
1.552481e+003;2.204266e-001
1.554410e+003;2.155516e-001
1.556338e+003;2.106284e-001
1.558267e+003;2.052325e-001
1.560195e+003;2.006414e-001
1.562124e+003;1.967397e-001
1.564052e+003;1.920241e-001
1.565981e+003;1.873570e-001
1.567910e+003;1.833209e-001
1.569838e+003;1.796321e-001
1.571767e+003;1.765962e-001
1.573695e+003;1.740442e-001
1.575624e+003;1.719519e-001
1.577552e+003;1.713048e-001
1.579481e+003;1.716155e-001
1.581409e+003;1.724287e-001
1.583338e+003;1.740146e-001
1.585266e+003;1.762185e-001
1.587195e+003;1.794218e-001
1.589124e+003;1.836204e-001
1.591052e+003;1.887201e-001
1.592981e+003;1.944181e-001
1.594909e+003;2.005908e-001
1.596838e+003;2.072404e-001
1.598766e+003;2.145790e-001
1.600695e+003;2.233254e-001
1.602623e+003;2.334210e-001
1.604552e+003;2.446489e-001
1.606480e+003;2.564527e-001
1.608409e+003;2.685945e-001
1.610338e+003;2.805899e-001
1.612266e+003;2.913890e-001
1.614195e+003;3.006513e-001
1.616123e+003;3.084370e-001
1.618052e+003;3.151437e-001
1.619980e+003;3.194568e-001
1.621909e+003;3.204388e-001
1.623837e+003;3.186007e-001
1.625766e+003;3.147949e-001
1.627694e+003;3.094520e-001
1.629623e+003;3.029769e-001
1.631552e+003;2.955277e-001
1.633480e+003;2.872461e-001
1.635409e+003;2.789057e-001
1.637337e+003;2.715689e-001
1.639266e+003;2.646122e-001
1.641194e+003;2.576288e-001
1.643123e+003;2.511443e-001
1.645051e+003;2.445872e-001
1.646980e+003;2.383049e-001
1.648909e+003;2.332608e-001
1.650837e+003;2.278589e-001
1.652766e+003;2.213431e-001
1.654694e+003;2.162427e-001
1.656623e+003;2.115730e-001
1.658551e+003;2.060481e-001
1.660480e+003;2.004376e-001
1.662408e+003;1.948761e-001
1.664337e+003;1.899089e-001
1.666266e+003;1.850272e-001
1.668194e+003;1.797871e-001
1.670123e+003;1.750649e-001
1.672051e+003;1.712420e-001
1.673980e+003;1.672641e-001
1.675908e+003;1.633774e-001
1.677837e+003;1.597885e-001
1.679765e+003;1.561433e-001
1.681694e+003;1.524403e-001
1.683622e+003;1.483738e-001
1.685551e+003;1.453831e-001
1.687479e+003;1.434652e-001
1.689408e+003;1.415359e-001
1.691337e+003;1.400861e-001
1.693265e+003;1.389759e-001
1.695194e+003;1.380100e-001
1.697122e+003;1.378863e-001
1.699051e+003;1.362921e-001
1.700979e+003;1.312513e-001
1.702908e+003;1.231831e-001
1.704836e+003;1.129085e-001
1.706765e+003;1.031460e-001
1.708693e+003;9.532430e-002
1.710622e+003;8.926924e-002
1.712551e+003;8.451175e-002
1.714479e+003;8.058794e-002
1.716408e+003;7.739175e-002
1.718336e+003;7.526130e-002
1.720265e+003;7.396214e-002
1.722193e+003;7.290997e-002
1.724122e+003;7.165481e-002
1.726050e+003;7.042202e-002
1.727979e+003;6.933437e-002
1.729908e+003;6.837726e-002
1.731836e+003;6.722300e-002
1.733765e+003;6.594859e-002
1.735693e+003;6.548930e-002
1.737622e+003;6.510947e-002
1.739550e+003;6.425745e-002
1.741479e+003;6.367735e-002
1.743407e+003;6.327438e-002
1.745336e+003;6.311768e-002
1.747265e+003;6.290227e-002
1.749193e+003;6.240583e-002
1.751122e+003;6.216516e-002
1.753050e+003;6.253591e-002
1.754979e+003;6.247821e-002
1.756907e+003;6.225479e-002
1.758836e+003;6.223471e-002
1.760764e+003;6.232370e-002
1.762693e+003;6.230141e-002
1.764621e+003;6.227601e-002
1.766550e+003;6.208266e-002
1.768479e+003;6.188542e-002
1.770407e+003;6.175049e-002
1.772336e+003;6.137102e-002
1.774264e+003;6.139144e-002
1.776193e+003;6.155203e-002
1.778121e+003;6.162702e-002
1.780050e+003;6.152557e-002
1.781978e+003;6.130600e-002
1.783907e+003;6.107841e-002
1.785835e+003;6.080135e-002
1.787764e+003;6.082201e-002
1.789693e+003;6.071439e-002
1.791621e+003;6.036213e-002
1.793550e+003;6.005676e-002
1.795478e+003;5.994324e-002
1.797407e+003;5.993019e-002
1.799335e+003;5.977861e-002
1.801264e+003;5.971162e-002
1.803192e+003;5.967744e-002
1.805121e+003;5.943717e-002
1.807049e+003;5.917521e-002
1.808978e+003;5.890654e-002
1.810907e+003;5.866553e-002
1.812835e+003;5.850782e-002
1.814764e+003;5.866814e-002
1.816692e+003;5.874844e-002
1.818621e+003;5.857436e-002
1.820549e+003;5.830579e-002
1.822478e+003;5.796775e-002
1.824406e+003;5.763311e-002
1.826335e+003;5.750453e-002
1.828264e+003;5.741024e-002
1.830192e+003;5.721330e-002
1.832121e+003;5.696744e-002
1.834049e+003;5.688263e-002
1.835978e+003;5.683682e-002
1.837906e+003;5.685197e-002
1.839835e+003;5.681137e-002
1.841763e+003;5.659360e-002
1.843692e+003;5.617346e-002
1.845620e+003;5.587306e-002
1.847549e+003;5.582250e-002
1.849478e+003;5.593890e-002
1.851406e+003;5.597109e-002
1.853335e+003;5.596261e-002
1.855263e+003;5.592722e-002
1.857192e+003;5.570424e-002
1.859120e+003;5.562525e-002
1.861049e+003;5.575212e-002
1.862977e+003;5.567583e-002
1.864906e+003;5.553540e-002
1.866834e+003;5.568435e-002
1.868763e+003;5.573964e-002
1.870692e+003;5.568122e-002
1.872620e+003;5.570318e-002
1.874549e+003;5.570499e-002
1.876477e+003;5.575637e-002
1.878406e+003;5.581605e-002
1.880334e+003;5.586990e-002
1.882263e+003;5.566171e-002
1.884191e+003;5.557893e-002
1.886120e+003;5.568638e-002
1.888048e+003;5.558955e-002
1.889977e+003;5.559486e-002
1.891906e+003;5.570589e-002
1.893834e+003;5.549379e-002
1.895763e+003;5.519879e-002
1.897691e+003;5.512550e-002
1.899620e+003;5.527533e-002
1.901548e+003;5.537318e-002
1.903477e+003;5.530193e-002
1.905405e+003;5.516839e-002
1.907334e+003;5.510357e-002
1.909262e+003;5.503253e-002
1.911191e+003;5.516565e-002
1.913120e+003;5.507394e-002
1.915048e+003;5.466541e-002
1.916977e+003;5.446220e-002
1.918905e+003;5.467150e-002
1.920834e+003;5.476798e-002
1.922762e+003;5.482237e-002
1.924691e+003;5.488387e-002
1.926619e+003;5.494531e-002
1.928548e+003;5.485778e-002
1.930477e+003;5.476903e-002
1.932405e+003;5.486662e-002
1.934334e+003;5.496652e-002
1.936262e+003;5.476414e-002
1.938191e+003;5.470495e-002
1.940119e+003;5.481185e-002
1.942048e+003;5.498348e-002
1.943976e+003;5.508146e-002
1.945905e+003;5.480301e-002
1.947833e+003;5.486169e-002
1.949762e+003;5.517866e-002
1.951691e+003;5.523187e-002
1.953619e+003;5.525200e-002
1.955548e+003;5.521599e-002
1.957476e+003;5.537378e-002
1.959405e+003;5.554210e-002
1.961333e+003;5.546183e-002
1.963262e+003;5.532632e-002
1.965190e+003;5.533020e-002
1.967119e+003;5.531183e-002
1.969047e+003;5.530686e-002
1.970976e+003;5.545419e-002
1.972905e+003;5.551838e-002
1.974833e+003;5.531507e-002
1.976762e+003;5.528538e-002
1.978690e+003;5.567527e-002
1.980619e+003;5.577747e-002
1.982547e+003;5.569825e-002
1.984476e+003;5.556869e-002
1.986404e+003;5.551559e-002
1.988333e+003;5.559708e-002
1.990261e+003;5.551447e-002
1.992190e+003;5.529463e-002
1.994119e+003;5.512363e-002
1.996047e+003;5.510696e-002
1.997976e+003;5.526577e-002
1.999904e+003;5.544930e-002
2.001833e+003;5.538417e-002
2.003761e+003;5.523860e-002
2.005690e+003;5.523130e-002
2.007618e+003;5.514428e-002
2.009547e+003;5.512182e-002
2.011476e+003;5.533133e-002
2.013404e+003;5.518750e-002
2.015333e+003;5.500041e-002
2.017261e+003;5.504479e-002
2.019190e+003;5.486327e-002
2.021118e+003;5.492087e-002
2.023047e+003;5.527397e-002
2.024975e+003;5.557200e-002
2.026904e+003;5.563591e-002
2.028833e+003;5.550998e-002
2.030761e+003;5.551402e-002
2.032690e+003;5.548160e-002
2.034618e+003;5.534537e-002
2.036547e+003;5.549063e-002
2.038475e+003;5.565361e-002
2.040404e+003;5.546563e-002
2.042332e+003;5.548630e-002
2.044261e+003;5.574210e-002
2.046189e+003;5.559878e-002
2.048118e+003;5.517881e-002
2.050047e+003;5.522998e-002
2.051975e+003;5.563346e-002
2.053904e+003;5.585712e-002
2.055832e+003;5.590351e-002
2.057761e+003;5.592462e-002
2.059689e+003;5.592718e-002
2.061618e+003;5.585588e-002
2.063546e+003;5.569373e-002
2.065475e+003;5.564424e-002
2.067404e+003;5.580452e-002
2.069332e+003;5.587310e-002
2.071260e+003;5.607663e-002
2.073189e+003;5.635869e-002
2.075118e+003;5.631546e-002
2.077046e+003;5.626288e-002
2.078975e+003;5.641196e-002
2.080903e+003;5.639140e-002
2.082832e+003;5.610895e-002
2.084760e+003;5.593811e-002
2.086689e+003;5.600799e-002
2.088617e+003;5.630852e-002
2.090546e+003;5.651328e-002
2.092475e+003;5.652826e-002
2.094403e+003;5.641457e-002
2.096332e+003;5.634372e-002
2.098260e+003;5.638503e-002
2.100189e+003;5.639744e-002
2.102117e+003;5.634500e-002
2.104046e+003;5.650656e-002
2.105974e+003;5.644041e-002
2.107903e+003;5.625164e-002
2.109832e+003;5.642860e-002
2.111760e+003;5.660303e-002
2.113688e+003;5.666638e-002
2.115617e+003;5.643713e-002
2.117546e+003;5.599223e-002
2.119474e+003;5.569116e-002
2.121403e+003;5.559520e-002
2.123331e+003;5.570951e-002
2.125260e+003;5.590121e-002
2.127188e+003;5.606646e-002
2.129117e+003;5.600056e-002
2.131045e+003;5.585185e-002
2.132974e+003;5.597410e-002
2.134903e+003;5.615853e-002
2.136831e+003;5.613055e-002
2.138760e+003;5.609266e-002
2.140688e+003;5.606506e-002
2.142617e+003;5.578727e-002
2.144545e+003;5.570273e-002
2.146474e+003;5.584861e-002
2.148402e+003;5.583930e-002
2.150331e+003;5.576847e-002
2.152260e+003;5.566484e-002
2.154188e+003;5.559674e-002
2.156117e+003;5.560160e-002
2.158045e+003;5.545991e-002
2.159974e+003;5.545814e-002
2.161902e+003;5.563124e-002
2.163831e+003;5.572307e-002
2.165759e+003;5.556485e-002
2.167688e+003;5.534533e-002
2.169616e+003;5.527544e-002
2.171545e+003;5.538387e-002
2.173474e+003;5.547904e-002
2.175402e+003;5.530242e-002
2.177331e+003;5.534589e-002
2.179259e+003;5.541146e-002
2.181188e+003;5.515150e-002
2.183116e+003;5.527326e-002
2.185045e+003;5.547064e-002
2.186973e+003;5.518800e-002
2.188902e+003;5.493554e-002
2.190831e+003;5.500466e-002
2.192759e+003;5.505479e-002
2.194688e+003;5.515090e-002
2.196616e+003;5.519214e-002
2.198545e+003;5.523841e-002
2.200473e+003;5.532188e-002
2.202402e+003;5.529629e-002
2.204330e+003;5.519970e-002
2.206259e+003;5.510624e-002
2.208188e+003;5.504986e-002
2.210116e+003;5.494103e-002
2.212044e+003;5.494039e-002
2.213973e+003;5.514943e-002
2.215902e+003;5.531131e-002
2.217830e+003;5.522415e-002
2.219759e+003;5.508736e-002
2.221687e+003;5.509112e-002
2.223616e+003;5.508966e-002
2.225544e+003;5.508357e-002
2.227473e+003;5.516715e-002
2.229401e+003;5.512156e-002
2.231330e+003;5.482417e-002
2.233259e+003;5.465252e-002
2.235187e+003;5.488215e-002
2.237116e+003;5.496186e-002
2.239044e+003;5.482395e-002
2.240973e+003;5.489794e-002
2.242901e+003;5.498281e-002
2.244830e+003;5.498420e-002
2.246758e+003;5.502369e-002
2.248687e+003;5.489986e-002
2.250615e+003;5.472915e-002
2.252544e+003;5.475193e-002
2.254473e+003;5.479820e-002
2.256401e+003;5.456442e-002
2.258330e+003;5.445705e-002
2.260258e+003;5.472641e-002
2.262187e+003;5.500417e-002
2.264115e+003;5.497608e-002
2.266044e+003;5.485139e-002
2.267972e+003;5.488391e-002
2.269901e+003;5.487568e-002
2.271830e+003;5.466887e-002
2.273758e+003;5.455622e-002
2.275687e+003;5.449518e-002
2.277615e+003;5.453523e-002
2.279544e+003;5.468969e-002
2.281472e+003;5.496239e-002
2.283401e+003;5.530009e-002
2.285329e+003;5.527495e-002
2.287258e+003;5.499277e-002
2.289187e+003;5.466384e-002
2.291115e+003;5.464862e-002
2.293043e+003;5.475437e-002
2.294972e+003;5.483162e-002
2.296901e+003;5.498145e-002
2.298829e+003;5.490873e-002
2.300758e+003;5.484519e-002
2.302686e+003;5.499190e-002
2.304615e+003;5.503124e-002
2.306543e+003;5.484105e-002
2.308472e+003;5.498807e-002
2.310400e+003;5.498288e-002
2.312329e+003;5.472712e-002
2.314258e+003;5.468052e-002
2.316186e+003;5.468778e-002
2.318115e+003;5.459094e-002
2.320043e+003;5.450964e-002
2.321972e+003;5.441157e-002
2.323900e+003;5.436654e-002
2.325829e+003;5.424354e-002
2.327757e+003;5.411313e-002
2.329686e+003;5.405054e-002
2.331615e+003;5.394920e-002
2.333543e+003;5.389769e-002
2.335472e+003;5.397324e-002
2.337400e+003;5.424575e-002
2.339329e+003;5.426152e-002
2.341257e+003;5.419796e-002
2.343186e+003;5.443835e-002
2.345114e+003;5.455626e-002
2.347043e+003;5.484192e-002
2.348971e+003;5.499330e-002
2.350900e+003;5.466557e-002
2.352829e+003;5.429396e-002
2.354757e+003;5.404941e-002
2.356686e+003;5.379735e-002
2.358614e+003;5.365591e-002
2.360543e+003;5.367312e-002
2.362471e+003;5.364489e-002
2.364400e+003;5.373447e-002
2.366328e+003;5.397966e-002
2.368257e+003;5.435813e-002
2.370186e+003;5.465158e-002
2.372114e+003;5.474069e-002
2.374042e+003;5.493881e-002
2.375971e+003;5.520688e-002
2.377900e+003;5.550505e-002
2.379828e+003;5.564728e-002
2.381757e+003;5.555833e-002
2.383685e+003;5.559836e-002
2.385614e+003;5.581089e-002
2.387542e+003;5.594561e-002
2.389471e+003;5.597176e-002
2.391399e+003;5.590136e-002
2.393328e+003;5.610359e-002
2.395257e+003;5.630494e-002
2.397185e+003;5.634330e-002
2.399114e+003;5.648736e-002
2.401042e+003;5.663078e-002
2.402971e+003;5.672724e-002
2.404899e+003;5.698977e-002
2.406828e+003;5.731472e-002
2.408756e+003;5.755253e-002
2.410685e+003;5.767159e-002
2.412614e+003;5.776927e-002
2.414542e+003;5.802069e-002
2.416471e+003;5.801656e-002
2.418399e+003;5.810087e-002
2.420328e+003;5.853803e-002
2.422256e+003;5.872583e-002
2.424185e+003;5.868123e-002
2.426113e+003;5.874487e-002
2.428042e+003;5.889568e-002
2.429970e+003;5.906568e-002
2.431899e+003;5.910956e-002
2.433828e+003;5.930862e-002
2.435756e+003;5.957496e-002
2.437685e+003;5.952795e-002
2.439613e+003;5.941001e-002
2.441542e+003;5.955706e-002
2.443470e+003;5.983295e-002
2.445399e+003;5.977161e-002
2.447327e+003;5.982914e-002
2.449256e+003;6.002054e-002
2.451185e+003;6.003568e-002
2.453113e+003;6.010010e-002
2.455042e+003;6.008716e-002
2.456970e+003;6.009074e-002
2.458899e+003;6.009512e-002
2.460827e+003;6.003359e-002
2.462756e+003;5.994602e-002
2.464684e+003;6.008671e-002
2.466613e+003;6.030190e-002
2.468542e+003;6.029904e-002
2.470470e+003;6.034835e-002
2.472398e+003;6.051404e-002
2.474327e+003;6.071599e-002
2.476256e+003;6.084515e-002
2.478184e+003;6.079129e-002
2.480113e+003;6.080151e-002
2.482041e+003;6.098338e-002
2.483970e+003;6.110984e-002
2.485898e+003;6.101118e-002
2.487827e+003;6.099177e-002
2.489755e+003;6.128333e-002
2.491684e+003;6.142865e-002
2.493613e+003;6.114359e-002
2.495541e+003;6.097659e-002
2.497470e+003;6.115603e-002
2.499398e+003;6.130283e-002
2.501327e+003;6.126318e-002
2.503255e+003;6.136301e-002
2.505184e+003;6.158765e-002
2.507112e+003;6.178873e-002
2.509041e+003;6.183010e-002
2.510969e+003;6.181203e-002
2.512898e+003;6.164646e-002
2.514827e+003;6.153256e-002
2.516755e+003;6.167682e-002
2.518684e+003;6.161052e-002
2.520612e+003;6.154203e-002
2.522541e+003;6.158246e-002
2.524469e+003;6.157528e-002
2.526398e+003;6.171684e-002
2.528326e+003;6.189715e-002
2.530255e+003;6.211462e-002
2.532184e+003;6.215297e-002
2.534112e+003;6.182571e-002
2.536041e+003;6.175630e-002
2.537969e+003;6.183564e-002
2.539898e+003;6.189933e-002
2.541826e+003;6.211608e-002
2.543755e+003;6.254831e-002
2.545683e+003;6.287232e-002
2.547612e+003;6.313649e-002
2.549541e+003;6.320416e-002
2.551469e+003;6.307515e-002
2.553397e+003;6.316519e-002
2.555326e+003;6.344552e-002
2.557255e+003;6.373943e-002
2.559183e+003;6.370264e-002
2.561112e+003;6.361205e-002
2.563040e+003;6.369868e-002
2.564969e+003;6.391233e-002
2.566897e+003;6.414736e-002
2.568826e+003;6.426967e-002
2.570754e+003;6.442206e-002
2.572683e+003;6.465930e-002
2.574612e+003;6.471425e-002
2.576540e+003;6.500405e-002
2.578469e+003;6.542111e-002
2.580397e+003;6.555938e-002
2.582326e+003;6.562736e-002
2.584254e+003;6.578108e-002
2.586183e+003;6.605709e-002
2.588111e+003;6.629576e-002
2.590040e+003;6.630167e-002
2.591969e+003;6.627781e-002
2.593897e+003;6.649949e-002
2.595826e+003;6.659091e-002
2.597754e+003;6.679057e-002
2.599683e+003;6.719669e-002
2.601611e+003;6.731565e-002
2.603540e+003;6.713411e-002
2.605468e+003;6.728249e-002
2.607397e+003;6.754018e-002
2.609325e+003;6.777447e-002
2.611254e+003;6.769202e-002
2.613183e+003;6.747639e-002
2.615111e+003;6.778102e-002
2.617040e+003;6.800180e-002
2.618968e+003;6.792802e-002
2.620897e+003;6.794798e-002
2.622825e+003;6.820331e-002
2.624754e+003;6.813725e-002
2.626682e+003;6.787917e-002
2.628611e+003;6.794972e-002
2.630540e+003;6.793182e-002
2.632468e+003;6.795069e-002
2.634396e+003;6.829187e-002
2.636325e+003;6.832219e-002
2.638254e+003;6.807570e-002
2.640182e+003;6.790385e-002
2.642111e+003;6.787545e-002
2.644039e+003;6.812086e-002
2.645968e+003;6.829935e-002
2.647896e+003;6.817966e-002
2.649825e+003;6.800342e-002
2.651753e+003;6.785233e-002
2.653682e+003;6.793674e-002
2.655611e+003;6.822378e-002
2.657539e+003;6.829663e-002
2.659468e+003;6.830536e-002
2.661396e+003;6.848742e-002
2.663325e+003;6.861915e-002
2.665253e+003;6.877653e-002
2.667182e+003;6.885961e-002
2.669110e+003;6.886443e-002
2.671039e+003;6.902431e-002
2.672968e+003;6.917170e-002
2.674896e+003;6.930437e-002
2.676825e+003;6.950847e-002
2.678753e+003;6.946908e-002
2.680682e+003;6.950730e-002
2.682610e+003;6.984429e-002
2.684539e+003;7.003845e-002
2.686467e+003;7.026412e-002
2.688396e+003;7.060310e-002
2.690324e+003;7.072903e-002
2.692253e+003;7.093856e-002
2.694182e+003;7.112356e-002
2.696110e+003;7.102686e-002
2.698039e+003;7.087365e-002
2.699967e+003;7.081389e-002
2.701896e+003;7.095417e-002
2.703824e+003;7.140283e-002
2.705753e+003;7.190600e-002
2.707681e+003;7.192086e-002
2.709610e+003;7.184646e-002
2.711539e+003;7.213722e-002
2.713467e+003;7.227910e-002
2.715396e+003;7.237151e-002
2.717324e+003;7.248053e-002
2.719253e+003;7.257853e-002
2.721181e+003;7.278053e-002
2.723110e+003;7.289084e-002
2.725038e+003;7.295080e-002
2.726967e+003;7.335046e-002
2.728896e+003;7.358104e-002
2.730824e+003;7.361342e-002
2.732752e+003;7.386182e-002
2.734681e+003;7.405549e-002
2.736610e+003;7.405475e-002
2.738538e+003;7.418161e-002
2.740467e+003;7.451466e-002
2.742395e+003;7.476045e-002
2.744324e+003;7.479257e-002
2.746252e+003;7.485603e-002
2.748181e+003;7.502026e-002
2.750109e+003;7.520669e-002
2.752038e+003;7.535111e-002
2.753967e+003;7.546483e-002
2.755895e+003;7.577389e-002
2.757824e+003;7.584802e-002
2.759752e+003;7.580999e-002
2.761681e+003;7.604495e-002
2.763609e+003;7.627871e-002
2.765538e+003;7.630482e-002
2.767466e+003;7.629518e-002
2.769395e+003;7.650425e-002
2.771323e+003;7.666152e-002
2.773252e+003;7.668041e-002
2.775181e+003;7.715890e-002
2.777109e+003;7.745622e-002
2.779038e+003;7.746909e-002
2.780966e+003;7.755730e-002
2.782895e+003;7.758860e-002
2.784823e+003;7.768915e-002
2.786752e+003;7.766569e-002
2.788680e+003;7.743024e-002
2.790609e+003;7.749582e-002
2.792538e+003;7.773127e-002
2.794466e+003;7.793826e-002
2.796395e+003;7.838464e-002
2.798323e+003;7.841965e-002
2.800252e+003;7.826575e-002
2.802180e+003;7.860417e-002
2.804109e+003;7.892203e-002
2.806037e+003;7.922938e-002
2.807966e+003;7.923750e-002
2.809895e+003;7.904829e-002
2.811823e+003;7.916974e-002
2.813751e+003;7.930558e-002
2.815680e+003;7.958265e-002
2.817609e+003;7.996782e-002
2.819537e+003;8.020449e-002
2.821466e+003;8.025694e-002
2.823394e+003;8.025663e-002
2.825323e+003;8.018261e-002
2.827251e+003;8.013105e-002
2.829180e+003;8.018484e-002
2.831108e+003;8.051638e-002
2.833037e+003;8.064894e-002
2.834966e+003;8.096474e-002
2.836894e+003;8.128745e-002
2.838823e+003;8.110598e-002
2.840751e+003;8.086590e-002
2.842680e+003;8.109684e-002
2.844608e+003;8.132797e-002
2.846537e+003;8.115742e-002
2.848465e+003;8.107878e-002
2.850394e+003;8.141952e-002
2.852323e+003;8.212754e-002
2.854251e+003;8.318550e-002
2.856180e+003;8.387257e-002
2.858108e+003;8.443347e-002
2.860037e+003;8.514904e-002
2.861965e+003;8.598048e-002
2.863894e+003;8.679054e-002
2.865822e+003;8.760778e-002
2.867751e+003;8.831813e-002
2.869679e+003;8.876012e-002
2.871608e+003;8.916275e-002
2.873536e+003;8.947650e-002
2.875465e+003;8.964913e-002
2.877394e+003;8.960079e-002
2.879322e+003;8.948343e-002
2.881251e+003;8.937917e-002
2.883179e+003;8.921243e-002
2.885108e+003;8.911080e-002
2.887036e+003;8.897495e-002
2.888965e+003;8.863518e-002
2.890893e+003;8.840975e-002
2.892822e+003;8.843843e-002
2.894750e+003;8.877864e-002
2.896679e+003;8.893006e-002
2.898608e+003;8.892830e-002
2.900536e+003;8.895299e-002
2.902465e+003;8.916743e-002
2.904393e+003;8.927806e-002
2.906322e+003;8.956365e-002
2.908250e+003;8.984709e-002
2.910179e+003;8.991840e-002
2.912107e+003;8.967557e-002
2.914036e+003;8.936065e-002
2.915965e+003;8.936985e-002
2.917893e+003;8.988193e-002
2.919822e+003;9.061430e-002
2.921750e+003;9.156804e-002
2.923679e+003;9.238605e-002
2.925607e+003;9.330878e-002
2.927536e+003;9.435447e-002
2.929464e+003;9.527883e-002
2.931393e+003;9.564968e-002
2.933322e+003;9.549563e-002
2.935250e+003;9.559704e-002
2.937178e+003;9.538740e-002
2.939107e+003;9.499045e-002
2.941036e+003;9.449431e-002
2.942964e+003;9.395167e-002
2.944893e+003;9.342767e-002
2.946821e+003;9.312591e-002
2.948750e+003;9.279732e-002
2.950678e+003;9.223102e-002
2.952607e+003;9.169746e-002
2.954535e+003;9.141763e-002
2.956464e+003;9.154018e-002
2.958393e+003;9.179520e-002
2.960321e+003;9.188722e-002
2.962250e+003;9.208293e-002
2.964178e+003;9.238023e-002
2.966107e+003;9.272561e-002
2.968035e+003;9.304926e-002
2.969964e+003;9.306141e-002
2.971892e+003;9.288299e-002
2.973821e+003;9.298399e-002
2.975750e+003;9.295177e-002
2.977678e+003;9.281336e-002
2.979607e+003;9.290909e-002
2.981535e+003;9.283949e-002
2.983464e+003;9.238651e-002
2.985392e+003;9.189582e-002
2.987321e+003;9.156170e-002
2.989249e+003;9.131949e-002
2.991178e+003;9.082748e-002
2.993106e+003;9.033448e-002
2.995035e+003;8.994253e-002
2.996964e+003;8.948608e-002
2.998892e+003;8.915697e-002
3.000821e+003;8.935218e-002
3.002749e+003;8.909502e-002
3.004678e+003;8.855648e-002
3.006606e+003;8.836666e-002
3.008535e+003;8.850768e-002
3.010463e+003;8.892301e-002
3.012392e+003;8.917715e-002
3.014321e+003;8.930391e-002
3.016249e+003;8.939374e-002
3.018177e+003;8.940921e-002
3.020106e+003;8.939969e-002
3.022035e+003;8.971936e-002
3.023963e+003;9.023434e-002
3.025892e+003;9.053598e-002
3.027820e+003;9.064765e-002
3.029749e+003;9.073478e-002
3.031677e+003;9.086600e-002
3.033606e+003;9.154337e-002
3.035534e+003;9.223028e-002
3.037463e+003;9.271798e-002
3.039392e+003;9.329444e-002
3.041320e+003;9.361186e-002
3.043249e+003;9.402651e-002
3.045177e+003;9.467879e-002
3.047106e+003;9.502093e-002
3.049034e+003;9.521962e-002
3.050963e+003;9.572857e-002
3.052891e+003;9.618366e-002
3.054820e+003;9.666886e-002
3.056749e+003;9.714222e-002
3.058677e+003;9.761252e-002
3.060606e+003;9.840968e-002
3.062534e+003;9.884025e-002
3.064463e+003;9.894931e-002
3.066391e+003;9.868843e-002
3.068320e+003;9.854677e-002
3.070248e+003;9.894211e-002
3.072177e+003;9.928421e-002
3.074105e+003;9.931753e-002
3.076034e+003;9.887166e-002
3.077963e+003;9.869542e-002
3.079891e+003;9.904927e-002
3.081820e+003;9.913269e-002
3.083748e+003;9.898776e-002
3.085677e+003;9.878056e-002
3.087605e+003;9.830841e-002
3.089534e+003;9.780867e-002
3.091462e+003;9.760357e-002
3.093391e+003;9.724417e-002
3.095320e+003;9.672214e-002
3.097248e+003;9.635396e-002
3.099177e+003;9.629531e-002
3.101105e+003;9.617539e-002
3.103034e+003;9.576430e-002
3.104962e+003;9.570234e-002
3.106891e+003;9.564523e-002
3.108819e+003;9.537461e-002
3.110748e+003;9.488203e-002
3.112677e+003;9.482098e-002
3.114605e+003;9.503528e-002
3.116533e+003;9.486488e-002
3.118462e+003;9.469870e-002
3.120391e+003;9.455771e-002
3.122319e+003;9.429830e-002
3.124248e+003;9.428575e-002
3.126176e+003;9.438979e-002
3.128105e+003;9.436422e-002
3.130033e+003;9.464908e-002
3.131962e+003;9.483363e-002
3.133890e+003;9.483758e-002
3.135819e+003;9.512857e-002
3.137748e+003;9.569243e-002
3.139676e+003;9.591068e-002
3.141605e+003;9.563325e-002
3.143533e+003;9.580156e-002
3.145462e+003;9.649074e-002
3.147390e+003;9.680598e-002
3.149319e+003;9.697330e-002
3.151247e+003;9.731273e-002
3.153176e+003;9.769396e-002
3.155104e+003;9.840124e-002
3.157033e+003;9.909173e-002
3.158962e+003;9.929612e-002
3.160890e+003;9.974708e-002
3.162819e+003;1.004476e-001
3.164747e+003;1.009562e-001
3.166676e+003;1.015315e-001
3.168604e+003;1.024235e-001
3.170533e+003;1.030772e-001
3.172461e+003;1.032945e-001
3.174390e+003;1.040400e-001
3.176319e+003;1.048423e-001
3.178247e+003;1.053327e-001
3.180176e+003;1.062940e-001
3.182104e+003;1.072650e-001
3.184033e+003;1.081302e-001
3.185961e+003;1.085664e-001
3.187890e+003;1.088123e-001
3.189818e+003;1.095046e-001
3.191747e+003;1.105032e-001
3.193676e+003;1.114817e-001
3.195604e+003;1.124623e-001
3.197532e+003;1.134855e-001
3.199461e+003;1.141607e-001
3.201390e+003;1.147041e-001
3.203318e+003;1.155472e-001
3.205247e+003;1.165988e-001
3.207175e+003;1.174086e-001
3.209104e+003;1.182757e-001
3.211032e+003;1.192508e-001
3.212961e+003;1.200558e-001
3.214889e+003;1.208257e-001
3.216818e+003;1.217084e-001
3.218747e+003;1.227202e-001
3.220675e+003;1.238328e-001
3.222604e+003;1.245122e-001
3.224532e+003;1.251508e-001
3.226461e+003;1.264774e-001
3.228389e+003;1.278756e-001
3.230318e+003;1.290669e-001
3.232246e+003;1.303456e-001
3.234175e+003;1.315888e-001
3.236104e+003;1.325838e-001
3.238032e+003;1.336943e-001
3.239961e+003;1.353233e-001
3.241889e+003;1.368804e-001
3.243818e+003;1.381981e-001
3.245746e+003;1.393217e-001
3.247675e+003;1.410058e-001
3.249603e+003;1.428447e-001
3.251532e+003;1.446048e-001
3.253460e+003;1.467361e-001
3.255389e+003;1.486818e-001
3.257318e+003;1.502299e-001
3.259246e+003;1.521047e-001
3.261175e+003;1.541515e-001
3.263103e+003;1.559303e-001
3.265032e+003;1.578419e-001
3.266960e+003;1.598747e-001
3.268889e+003;1.616977e-001
3.270817e+003;1.631597e-001
3.272746e+003;1.643814e-001
3.274675e+003;1.660061e-001
3.276603e+003;1.672587e-001
3.278531e+003;1.677434e-001
3.280460e+003;1.677630e-001
3.282389e+003;1.679047e-001
3.284317e+003;1.679000e-001
3.286246e+003;1.670650e-001
3.288174e+003;1.657379e-001
3.290103e+003;1.645910e-001
3.292031e+003;1.634391e-001
3.293960e+003;1.618269e-001
3.295888e+003;1.593786e-001
3.297817e+003;1.572442e-001
3.299746e+003;1.555893e-001
3.301674e+003;1.534980e-001
3.303603e+003;1.509845e-001
3.305531e+003;1.485361e-001
3.307460e+003;1.463263e-001
3.309388e+003;1.444421e-001
3.311317e+003;1.420029e-001
3.313245e+003;1.392657e-001
3.315174e+003;1.368014e-001
3.317103e+003;1.347397e-001
3.319031e+003;1.328440e-001
3.320960e+003;1.311569e-001
3.322888e+003;1.291416e-001
3.324817e+003;1.270557e-001
3.326745e+003;1.252555e-001
3.328674e+003;1.232658e-001
3.330602e+003;1.213877e-001
3.332531e+003;1.198060e-001
3.334459e+003;1.184263e-001
3.336388e+003;1.169975e-001
3.338317e+003;1.155717e-001
3.340245e+003;1.140945e-001
3.342174e+003;1.125096e-001
3.344102e+003;1.111815e-001
3.346031e+003;1.100748e-001
3.347959e+003;1.084539e-001
3.349888e+003;1.070588e-001
3.351816e+003;1.063563e-001
3.353745e+003;1.057493e-001
3.355674e+003;1.048855e-001
3.357602e+003;1.039717e-001
3.359531e+003;1.032158e-001
3.361459e+003;1.020222e-001
3.363388e+003;1.011001e-001
3.365316e+003;1.005210e-001
3.367245e+003;1.000257e-001
3.369173e+003;9.950523e-002
3.371102e+003;9.920947e-002
3.373031e+003;9.873776e-002
3.374959e+003;9.771405e-002
3.376887e+003;9.717086e-002
3.378816e+003;9.684603e-002
3.380745e+003;9.645648e-002
3.382673e+003;9.592618e-002
3.384602e+003;9.529405e-002
3.386530e+003;9.471197e-002
3.388459e+003;9.421186e-002
3.390387e+003;9.391930e-002
3.392316e+003;9.347779e-002
3.394244e+003;9.281226e-002
3.396173e+003;9.239085e-002
3.398102e+003;9.203152e-002
3.400030e+003;9.132240e-002
3.401959e+003;9.043688e-002
3.403887e+003;9.007061e-002
3.405816e+003;8.995223e-002
3.407744e+003;8.940258e-002
3.409673e+003;8.887471e-002
3.411601e+003;8.863421e-002
3.413530e+003;8.812347e-002
3.415458e+003;8.745558e-002
3.417387e+003;8.677961e-002
3.419316e+003;8.658701e-002
3.421244e+003;8.629304e-002
3.423173e+003;8.561266e-002
3.425101e+003;8.515646e-002
3.427030e+003;8.481523e-002
3.428958e+003;8.423482e-002
3.430887e+003;8.366752e-002
3.432815e+003;8.338121e-002
3.434744e+003;8.316219e-002
3.436673e+003;8.271188e-002
3.438601e+003;8.219380e-002
3.440530e+003;8.153436e-002
3.442458e+003;8.122377e-002
3.444387e+003;8.147344e-002
3.446315e+003;8.109284e-002
3.448244e+003;8.044368e-002
3.450172e+003;8.018954e-002
3.452101e+003;8.005641e-002
3.454030e+003;7.989947e-002
3.455958e+003;7.959379e-002
3.457886e+003;7.935359e-002
3.459815e+003;7.894945e-002
3.461744e+003;7.845922e-002
3.463672e+003;7.815800e-002
3.465601e+003;7.867549e-002
3.467529e+003;7.899372e-002
3.469458e+003;7.868105e-002
3.471386e+003;7.836198e-002
3.473315e+003;7.817240e-002
3.475243e+003;7.795110e-002
3.477172e+003;7.760551e-002
3.479101e+003;7.704981e-002
3.481029e+003;7.646731e-002
3.482958e+003;7.636735e-002
3.484886e+003;7.667776e-002
3.486815e+003;7.666060e-002
3.488743e+003;7.640208e-002
3.490672e+003;7.607137e-002
3.492600e+003;7.577527e-002
3.494529e+003;7.561971e-002
3.496458e+003;7.503758e-002
3.498386e+003;7.431079e-002
3.500315e+003;7.442238e-002
3.502243e+003;7.454365e-002
3.504172e+003;7.417803e-002
3.506100e+003;7.412929e-002
3.508029e+003;7.418294e-002
3.509957e+003;7.402378e-002
3.511886e+003;7.378264e-002
3.513814e+003;7.369971e-002
3.515743e+003;7.317705e-002
3.517672e+003;7.289170e-002
3.519600e+003;7.312953e-002
3.521529e+003;7.319258e-002
3.523457e+003;7.277454e-002
3.525386e+003;7.186314e-002
3.527314e+003;7.146771e-002
3.529243e+003;7.169604e-002
3.531171e+003;7.175893e-002
3.533100e+003;7.169921e-002
3.535029e+003;7.123173e-002
3.536957e+003;7.064247e-002
3.538885e+003;7.024390e-002
3.540814e+003;7.001271e-002
3.542743e+003;6.995872e-002
3.544671e+003;6.984916e-002
3.546600e+003;6.967147e-002
3.548528e+003;6.952570e-002
3.550457e+003;6.916004e-002
3.552385e+003;6.878573e-002
3.554314e+003;6.864996e-002
3.556242e+003;6.865764e-002
3.558171e+003;6.829862e-002
3.560100e+003;6.814768e-002
3.562028e+003;6.798006e-002
3.563957e+003;6.720648e-002
3.565885e+003;6.656008e-002
3.567814e+003;6.650308e-002
3.569742e+003;6.668338e-002
3.571671e+003;6.664019e-002
3.573599e+003;6.577877e-002
3.575528e+003;6.530098e-002
3.577457e+003;6.573586e-002
3.579385e+003;6.573787e-002
3.581314e+003;6.551303e-002
3.583242e+003;6.507125e-002
3.585171e+003;6.415550e-002
3.587099e+003;6.385429e-002
3.589028e+003;6.416894e-002
3.590956e+003;6.417874e-002
3.592885e+003;6.391870e-002
3.594813e+003;6.381399e-002
3.596742e+003;6.357431e-002
3.598671e+003;6.315691e-002
3.600599e+003;6.312967e-002
3.602528e+003;6.301332e-002
3.604456e+003;6.260024e-002
3.606385e+003;6.185272e-002
3.608313e+003;6.145812e-002
3.610242e+003;6.122626e-002
3.612170e+003;6.114683e-002
3.614099e+003;6.126307e-002
3.616028e+003;6.107833e-002
3.617956e+003;6.074228e-002
3.619885e+003;6.027712e-002
3.621813e+003;6.011372e-002
3.623742e+003;6.008161e-002
3.625670e+003;5.978564e-002
3.627599e+003;5.881559e-002
3.629527e+003;5.806261e-002
3.631456e+003;5.820462e-002
3.633385e+003;5.842908e-002
3.635313e+003;5.839868e-002
3.637241e+003;5.809193e-002
3.639170e+003;5.775277e-002
3.641099e+003;5.734561e-002
3.643027e+003;5.657895e-002
3.644956e+003;5.576074e-002
3.646884e+003;5.517321e-002
3.648813e+003;5.434731e-002
3.650741e+003;5.405373e-002
3.652670e+003;5.424849e-002
3.654598e+003;5.371332e-002
3.656527e+003;5.278781e-002
3.658456e+003;5.231094e-002
3.660384e+003;5.171192e-002
3.662313e+003;5.113375e-002
3.664241e+003;5.092153e-002
3.666170e+003;5.066726e-002
3.668098e+003;4.988912e-002
3.670027e+003;4.897098e-002
3.671955e+003;4.813280e-002
3.673884e+003;4.716347e-002
3.675813e+003;4.649129e-002
3.677741e+003;4.659825e-002
3.679669e+003;4.643557e-002
3.681598e+003;4.607536e-002
3.683527e+003;4.543062e-002
3.685455e+003;4.472185e-002
3.687384e+003;4.428130e-002
3.689312e+003;4.385660e-002
3.691241e+003;4.378696e-002
3.693169e+003;4.364625e-002
3.695098e+003;4.320576e-002
3.697026e+003;4.314769e-002
3.698955e+003;4.304073e-002
3.700884e+003;4.289924e-002
3.702812e+003;4.256402e-002
3.704741e+003;4.238728e-002
3.706669e+003;4.220456e-002
3.708598e+003;4.149451e-002
3.710526e+003;4.115866e-002
3.712455e+003;4.137644e-002
3.714383e+003;4.161370e-002
3.716312e+003;4.128683e-002
3.718240e+003;4.102674e-002
3.720169e+003;4.098013e-002
3.722098e+003;4.066003e-002
3.724026e+003;4.028244e-002
3.725955e+003;4.019370e-002
3.727883e+003;4.012261e-002
3.729812e+003;4.014042e-002
3.731740e+003;4.013817e-002
3.733669e+003;3.997429e-002
3.735597e+003;3.969567e-002
3.737526e+003;3.980246e-002
3.739455e+003;4.000376e-002
3.741383e+003;4.001502e-002
3.743312e+003;3.933636e-002
3.745240e+003;3.927916e-002
3.747169e+003;3.936752e-002
3.749097e+003;3.900787e-002
3.751026e+003;3.905043e-002
3.752954e+003;3.915129e-002
3.754883e+003;3.932120e-002
3.756812e+003;3.922218e-002
3.758740e+003;3.906213e-002
3.760668e+003;3.912261e-002
3.762597e+003;3.936092e-002
3.764526e+003;3.916162e-002
3.766454e+003;3.908530e-002
3.768383e+003;3.891508e-002
3.770311e+003;3.904125e-002
3.772240e+003;3.933890e-002
3.774168e+003;3.951810e-002
3.776097e+003;3.916416e-002
3.778025e+003;3.855041e-002
3.779954e+003;3.872284e-002
3.781883e+003;3.928290e-002
3.783811e+003;3.941233e-002
3.785740e+003;3.947412e-002
3.787668e+003;3.937268e-002
3.789597e+003;3.951981e-002
3.791525e+003;3.984037e-002
3.793454e+003;4.001317e-002
3.795382e+003;3.967196e-002
3.797311e+003;3.916427e-002
3.799240e+003;3.866521e-002
3.801168e+003;3.834743e-002
3.803097e+003;3.900555e-002
3.805025e+003;3.923781e-002
3.806954e+003;3.894643e-002
3.808882e+003;3.929436e-002
3.810811e+003;3.952406e-002
3.812739e+003;3.932291e-002
3.814668e+003;3.875240e-002
3.816596e+003;3.882460e-002
3.818525e+003;3.905249e-002
3.820454e+003;3.891885e-002
3.822382e+003;3.917529e-002
3.824311e+003;3.970420e-002
3.826239e+003;3.959523e-002
3.828168e+003;3.907287e-002
3.830096e+003;3.894034e-002
3.832025e+003;3.964764e-002
3.833953e+003;4.022744e-002
3.835882e+003;4.003035e-002
3.837811e+003;3.976829e-002
3.839739e+003;3.969520e-002
3.841667e+003;3.951538e-002
3.843596e+003;3.953298e-002
3.845525e+003;4.014606e-002
3.847453e+003;4.043795e-002
3.849382e+003;3.995791e-002
3.851310e+003;3.926342e-002
3.853239e+003;3.843100e-002
3.855167e+003;3.903571e-002
3.857096e+003;4.017353e-002
3.859024e+003;4.045442e-002
3.860953e+003;4.039155e-002
3.862882e+003;4.014126e-002
3.864810e+003;4.035071e-002
3.866739e+003;4.074442e-002
3.868667e+003;4.046788e-002
3.870596e+003;4.042686e-002
3.872524e+003;4.072040e-002
3.874453e+003;4.080749e-002
3.876381e+003;4.110584e-002
3.878310e+003;4.159124e-002
3.880239e+003;4.155047e-002
3.882167e+003;4.122620e-002
3.884096e+003;4.100583e-002
3.886024e+003;4.103380e-002
3.887953e+003;4.146946e-002
3.889881e+003;4.167766e-002
3.891810e+003;4.185721e-002
3.893738e+003;4.220792e-002
3.895667e+003;4.249079e-002
3.897595e+003;4.224188e-002
3.899524e+003;4.186809e-002
3.901453e+003;4.166147e-002
3.903381e+003;4.203819e-002
3.905310e+003;4.238706e-002
3.907238e+003;4.260813e-002
3.909167e+003;4.303488e-002
3.911095e+003;4.348980e-002
3.913024e+003;4.328823e-002
3.914952e+003;4.285451e-002
3.916881e+003;4.287722e-002
3.918810e+003;4.328776e-002
3.920738e+003;4.361236e-002
3.922667e+003;4.374650e-002
3.924595e+003;4.376405e-002
3.926524e+003;4.395906e-002
3.928452e+003;4.390014e-002
3.930381e+003;4.382654e-002
3.932309e+003;4.379388e-002
3.934238e+003;4.389956e-002
3.936167e+003;4.396005e-002
3.938095e+003;4.413970e-002
3.940023e+003;4.426501e-002
3.941952e+003;4.425955e-002
3.943881e+003;4.468318e-002
3.945809e+003;4.466162e-002
3.947738e+003;4.416681e-002
3.949666e+003;4.418647e-002
3.951595e+003;4.445786e-002
3.953523e+003;4.470265e-002
3.955452e+003;4.512627e-002
3.957380e+003;4.532781e-002
3.959309e+003;4.495459e-002
3.961238e+003;4.497465e-002
3.963166e+003;4.517803e-002
3.965095e+003;4.521634e-002
3.967023e+003;4.527514e-002
3.968952e+003;4.533075e-002
3.970880e+003;4.552830e-002
3.972809e+003;4.534561e-002
3.974737e+003;4.535440e-002
3.976666e+003;4.573809e-002
3.978594e+003;4.574836e-002
3.980523e+003;4.587793e-002
3.982452e+003;4.584162e-002
3.984380e+003;4.558839e-002
3.986309e+003;4.556606e-002
3.988237e+003;4.575013e-002
3.990166e+003;4.603841e-002
3.992094e+003;4.567201e-002
3.994023e+003;4.525124e-002
3.995951e+003;4.556241e-002
3.997880e+003;4.592404e-002
3.999809e+003;4.583684e-002
4.001737e+003;0.000000e+000
