3.992094e+002;0.000000e+000
4.011380e+002;0.000000e+000
4.030665e+002;0.000000e+000
4.049951e+002;0.000000e+000
4.069236e+002;0.000000e+000
4.088522e+002;0.000000e+000
4.107807e+002;0.000000e+000
4.127093e+002;0.000000e+000
4.146378e+002;0.000000e+000
4.165664e+002;0.000000e+000
4.184949e+002;0.000000e+000
4.204235e+002;0.000000e+000
4.223520e+002;0.000000e+000
4.242806e+002;0.000000e+000
4.262091e+002;0.000000e+000
4.281377e+002;0.000000e+000
4.300662e+002;0.000000e+000
4.319948e+002;0.000000e+000
4.339233e+002;0.000000e+000
4.358519e+002;0.000000e+000
4.377804e+002;0.000000e+000
4.397090e+002;0.000000e+000
4.416375e+002;0.000000e+000
4.435660e+002;0.000000e+000
4.454946e+002;0.000000e+000
4.474232e+002;0.000000e+000
4.493517e+002;0.000000e+000
4.512802e+002;0.000000e+000
4.532088e+002;0.000000e+000
4.551373e+002;0.000000e+000
4.570659e+002;0.000000e+000
4.589944e+002;0.000000e+000
4.609230e+002;0.000000e+000
4.628515e+002;0.000000e+000
4.647801e+002;0.000000e+000
4.667086e+002;0.000000e+000
4.686372e+002;0.000000e+000
4.705657e+002;0.000000e+000
4.724943e+002;0.000000e+000
4.744228e+002;0.000000e+000
4.763513e+002;0.000000e+000
4.782799e+002;0.000000e+000
4.802085e+002;0.000000e+000
4.821370e+002;0.000000e+000
4.840656e+002;0.000000e+000
4.859941e+002;0.000000e+000
4.879226e+002;0.000000e+000
4.898512e+002;0.000000e+000
4.917798e+002;0.000000e+000
4.937083e+002;0.000000e+000
4.956368e+002;0.000000e+000
4.975654e+002;0.000000e+000
4.994939e+002;0.000000e+000
5.014225e+002;0.000000e+000
5.033510e+002;0.000000e+000
5.052796e+002;0.000000e+000
5.072081e+002;0.000000e+000
5.091367e+002;0.000000e+000
5.110652e+002;0.000000e+000
5.129938e+002;0.000000e+000
5.149223e+002;0.000000e+000
5.168509e+002;0.000000e+000
5.187794e+002;0.000000e+000
5.207079e+002;0.000000e+000
5.226365e+002;0.000000e+000
5.245651e+002;0.000000e+000
5.264936e+002;0.000000e+000
5.284222e+002;0.000000e+000
5.303507e+002;0.000000e+000
5.322792e+002;0.000000e+000
5.342078e+002;0.000000e+000
5.361364e+002;0.000000e+000
5.380649e+002;0.000000e+000
5.399935e+002;0.000000e+000
5.419220e+002;0.000000e+000
5.438505e+002;0.000000e+000
5.457791e+002;0.000000e+000
5.477076e+002;0.000000e+000
5.496362e+002;0.000000e+000
5.515648e+002;0.000000e+000
5.534933e+002;0.000000e+000
5.554218e+002;0.000000e+000
5.573504e+002;0.000000e+000
5.592789e+002;0.000000e+000
5.612075e+002;0.000000e+000
5.631360e+002;0.000000e+000
5.650646e+002;0.000000e+000
5.669931e+002;0.000000e+000
5.689217e+002;0.000000e+000
5.708502e+002;0.000000e+000
5.727787e+002;0.000000e+000
5.747073e+002;0.000000e+000
5.766359e+002;0.000000e+000
5.785644e+002;0.000000e+000
5.804930e+002;0.000000e+000
5.824215e+002;0.000000e+000
5.843500e+002;0.000000e+000
5.862786e+002;0.000000e+000
5.882072e+002;0.000000e+000
5.901357e+002;0.000000e+000
5.920643e+002;0.000000e+000
5.939928e+002;0.000000e+000
5.959213e+002;0.000000e+000
5.978499e+002;0.000000e+000
5.997784e+002;2.441799e-001
6.017070e+002;2.423255e-001
6.036355e+002;2.481913e-001
6.055641e+002;2.564397e-001
6.074926e+002;2.610317e-001
6.094211e+002;2.589681e-001
6.113497e+002;2.526855e-001
6.132783e+002;2.560710e-001
6.152068e+002;2.617034e-001
6.171354e+002;2.558083e-001
6.190639e+002;2.457564e-001
6.209924e+002;2.423127e-001
6.229210e+002;2.416493e-001
6.248495e+002;2.377226e-001
6.267781e+002;2.301314e-001
6.287067e+002;2.270981e-001
6.306352e+002;2.233882e-001
6.325637e+002;2.203881e-001
6.344923e+002;2.168133e-001
6.364208e+002;2.140049e-001
6.383494e+002;2.133666e-001
6.402780e+002;2.110002e-001
6.422065e+002;2.099784e-001
6.441350e+002;2.096667e-001
6.460636e+002;2.095170e-001
6.479921e+002;2.106858e-001
6.499207e+002;2.107676e-001
6.518492e+002;2.107420e-001
6.537778e+002;2.159350e-001
6.557063e+002;2.245912e-001
6.576349e+002;2.307072e-001
6.595634e+002;2.337281e-001
6.614919e+002;2.363120e-001
6.634205e+002;2.370591e-001
6.653491e+002;2.352048e-001
6.672776e+002;2.333697e-001
6.692062e+002;2.283740e-001
6.711347e+002;2.219356e-001
6.730632e+002;2.156927e-001
6.749918e+002;2.073893e-001
6.769203e+002;2.023224e-001
6.788489e+002;2.000733e-001
6.807775e+002;1.967712e-001
6.827060e+002;1.928338e-001
6.846345e+002;1.900887e-001
6.865631e+002;1.892923e-001
6.884916e+002;1.892164e-001
6.904202e+002;1.901289e-001
6.923488e+002;1.912043e-001
6.942773e+002;1.923563e-001
6.962058e+002;1.927889e-001
6.981344e+002;1.929383e-001
7.000629e+002;1.935036e-001
7.019915e+002;1.922053e-001
7.039200e+002;1.891607e-001
7.058486e+002;1.861902e-001
7.077771e+002;1.840961e-001
7.097057e+002;1.812377e-001
7.116342e+002;1.775264e-001
7.135627e+002;1.742177e-001
7.154913e+002;1.708901e-001
7.174199e+002;1.668994e-001
7.193484e+002;1.625834e-001
7.212770e+002;1.585506e-001
7.232055e+002;1.539499e-001
7.251340e+002;1.488909e-001
7.270626e+002;1.456680e-001
7.289911e+002;1.439104e-001
7.309197e+002;1.422054e-001
7.328483e+002;1.404961e-001
7.347768e+002;1.382676e-001
7.367053e+002;1.358723e-001
7.386339e+002;1.340888e-001
7.405624e+002;1.324011e-001
7.424910e+002;1.313254e-001
7.444196e+002;1.302886e-001
7.463481e+002;1.292336e-001
7.482766e+002;1.275335e-001
7.502052e+002;1.257382e-001
7.521337e+002;1.243255e-001
7.540623e+002;1.236692e-001
7.559908e+002;1.238376e-001
7.579194e+002;1.240545e-001
7.598479e+002;1.233665e-001
7.617765e+002;1.223938e-001
7.637050e+002;1.208738e-001
7.656335e+002;1.194769e-001
7.675621e+002;1.190523e-001
7.694907e+002;1.186846e-001
7.714192e+002;1.172842e-001
7.733478e+002;1.161497e-001
7.752763e+002;1.158290e-001
7.772048e+002;1.149761e-001
7.791334e+002;1.142826e-001
7.810620e+002;1.138659e-001
7.829905e+002;1.131681e-001
7.849191e+002;1.129261e-001
7.868476e+002;1.134128e-001
7.887761e+002;1.139601e-001
7.907047e+002;1.137112e-001
7.926332e+002;1.133913e-001
7.945618e+002;1.138743e-001
7.964903e+002;1.138926e-001
7.984189e+002;1.138060e-001
8.003474e+002;1.144619e-001
8.022759e+002;1.145067e-001
8.042045e+002;1.140451e-001
8.061331e+002;1.140964e-001
8.080616e+002;1.140455e-001
8.099902e+002;1.138416e-001
8.119187e+002;1.139671e-001
8.138472e+002;1.145847e-001
8.157758e+002;1.146351e-001
8.177043e+002;1.135392e-001
8.196329e+002;1.127561e-001
8.215615e+002;1.122515e-001
8.234900e+002;1.117031e-001
8.254185e+002;1.116143e-001
8.273471e+002;1.116778e-001
8.292756e+002;1.111088e-001
8.312042e+002;1.103577e-001
8.331328e+002;1.097874e-001
8.350613e+002;1.099057e-001
8.369898e+002;1.107896e-001
8.389184e+002;1.109284e-001
8.408469e+002;1.099278e-001
8.427755e+002;1.093316e-001
8.447040e+002;1.094340e-001
8.466326e+002;1.096808e-001
8.485611e+002;1.096056e-001
8.504897e+002;1.098634e-001
8.524182e+002;1.107231e-001
8.543467e+002;1.112054e-001
8.562753e+002;1.119779e-001
8.582039e+002;1.128895e-001
8.601324e+002;1.136067e-001
8.620610e+002;1.150639e-001
8.639895e+002;1.165854e-001
8.659180e+002;1.174110e-001
8.678466e+002;1.184162e-001
8.697751e+002;1.202468e-001
8.717037e+002;1.221417e-001
8.736323e+002;1.244842e-001
8.755608e+002;1.266634e-001
8.774893e+002;1.281543e-001
8.794179e+002;1.302343e-001
8.813464e+002;1.333178e-001
8.832750e+002;1.364387e-001
8.852036e+002;1.395054e-001
8.871321e+002;1.424478e-001
8.890606e+002;1.452090e-001
8.909892e+002;1.479348e-001
8.929177e+002;1.506175e-001
8.948463e+002;1.523507e-001
8.967748e+002;1.527818e-001
8.987034e+002;1.528138e-001
9.006319e+002;1.520549e-001
9.025605e+002;1.509816e-001
9.044890e+002;1.500671e-001
9.064175e+002;1.484884e-001
9.083461e+002;1.473520e-001
9.102747e+002;1.464349e-001
9.122032e+002;1.451906e-001
9.141318e+002;1.441437e-001
9.160603e+002;1.434679e-001
9.179888e+002;1.435096e-001
9.199174e+002;1.441405e-001
9.218459e+002;1.450519e-001
9.237745e+002;1.466511e-001
9.257031e+002;1.490399e-001
9.276316e+002;1.511693e-001
9.295601e+002;1.532302e-001
9.314887e+002;1.551431e-001
9.334172e+002;1.567877e-001
9.353458e+002;1.586967e-001
9.372744e+002;1.608305e-001
9.392029e+002;1.632995e-001
9.411314e+002;1.660899e-001
9.430600e+002;1.690473e-001
9.449885e+002;1.719818e-001
9.469171e+002;1.756183e-001
9.488456e+002;1.799035e-001
9.507742e+002;1.844072e-001
9.527027e+002;1.890028e-001
9.546313e+002;1.940825e-001
9.565598e+002;1.994720e-001
9.584883e+002;2.049268e-001
9.604169e+002;2.106765e-001
9.623455e+002;2.169617e-001
9.642740e+002;2.236294e-001
9.662026e+002;2.308079e-001
9.681311e+002;2.387237e-001
9.700596e+002;2.478143e-001
9.719882e+002;2.590960e-001
9.739167e+002;2.723596e-001
9.758453e+002;2.871836e-001
9.777739e+002;3.040845e-001
9.797024e+002;3.213584e-001
9.816309e+002;3.360791e-001
9.835595e+002;3.452245e-001
9.854880e+002;3.481857e-001
9.874166e+002;3.479314e-001
9.893452e+002;3.488081e-001
9.912737e+002;3.526783e-001
9.932022e+002;3.586524e-001
9.951307e+002;3.662563e-001
9.970593e+002;3.736039e-001
9.989879e+002;3.789761e-001
1.000916e+003;3.817379e-001
1.002845e+003;3.826516e-001
1.004773e+003;3.835219e-001
1.006702e+003;3.838959e-001
1.008631e+003;3.839577e-001
1.010559e+003;3.853379e-001
1.012488e+003;3.881066e-001
1.014416e+003;3.917252e-001
1.016345e+003;3.957917e-001
1.018273e+003;4.004456e-001
1.020202e+003;4.057225e-001
1.022130e+003;4.116023e-001
1.024059e+003;4.177693e-001
1.025988e+003;4.239056e-001
1.027916e+003;4.291738e-001
1.029845e+003;4.318337e-001
1.031773e+003;4.314714e-001
1.033702e+003;4.269492e-001
1.035630e+003;4.184517e-001
1.037559e+003;4.080500e-001
1.039487e+003;3.981907e-001
1.041416e+003;3.917780e-001
1.043344e+003;3.904256e-001
1.045273e+003;3.932781e-001
1.047202e+003;3.991003e-001
1.049130e+003;4.065570e-001
1.051059e+003;4.132909e-001
1.052987e+003;4.170252e-001
1.054916e+003;4.161421e-001
1.056844e+003;4.099248e-001
1.058773e+003;3.980337e-001
1.060701e+003;3.803185e-001
1.062630e+003;3.590566e-001
1.064558e+003;3.373203e-001
1.066487e+003;3.171505e-001
1.068416e+003;3.005131e-001
1.070344e+003;2.882934e-001
1.072273e+003;2.791905e-001
1.074201e+003;2.720153e-001
1.076130e+003;2.660397e-001
1.078058e+003;2.596070e-001
1.079987e+003;2.537573e-001
1.081915e+003;2.502792e-001
1.083844e+003;2.491705e-001
1.085773e+003;2.496425e-001
1.087701e+003;2.507945e-001
1.089630e+003;2.516637e-001
1.091558e+003;2.531306e-001
1.093487e+003;2.564748e-001
1.095415e+003;2.603764e-001
1.097344e+003;2.645622e-001
1.099272e+003;2.686311e-001
1.101201e+003;2.708082e-001
1.103129e+003;2.718851e-001
1.105058e+003;2.717905e-001
1.106987e+003;2.696431e-001
1.108915e+003;2.666545e-001
1.110844e+003;2.612103e-001
1.112772e+003;2.527878e-001
1.114701e+003;2.414545e-001
1.116629e+003;2.281199e-001
1.118558e+003;2.155304e-001
1.120486e+003;2.051538e-001
1.122415e+003;1.971899e-001
1.124344e+003;1.897670e-001
1.126272e+003;1.814630e-001
1.128201e+003;1.733257e-001
1.130129e+003;1.662169e-001
1.132058e+003;1.605612e-001
1.133986e+003;1.563929e-001
1.135915e+003;1.529447e-001
1.137843e+003;1.510504e-001
1.139772e+003;1.513342e-001
1.141700e+003;1.535126e-001
1.143629e+003;1.572967e-001
1.145557e+003;1.610442e-001
1.147486e+003;1.637384e-001
1.149415e+003;1.661521e-001
1.151343e+003;1.686775e-001
1.153272e+003;1.714262e-001
1.155200e+003;1.735109e-001
1.157129e+003;1.748977e-001
1.159057e+003;1.760373e-001
1.160986e+003;1.750125e-001
1.162914e+003;1.707703e-001
1.164843e+003;1.639428e-001
1.166771e+003;1.551764e-001
1.168700e+003;1.454928e-001
1.170629e+003;1.365338e-001
1.172557e+003;1.288290e-001
1.174486e+003;1.225688e-001
1.176414e+003;1.181264e-001
1.178343e+003;1.145929e-001
1.180271e+003;1.114954e-001
1.182200e+003;1.088931e-001
1.184128e+003;1.070730e-001
1.186057e+003;1.066154e-001
1.187986e+003;1.070372e-001
1.189914e+003;1.084450e-001
1.191843e+003;1.105158e-001
1.193771e+003;1.124881e-001
1.195700e+003;1.149632e-001
1.197628e+003;1.174157e-001
1.199557e+003;1.191339e-001
1.201485e+003;1.202011e-001
1.203414e+003;1.206252e-001
1.205343e+003;1.202600e-001
1.207271e+003;1.182184e-001
1.209200e+003;1.141431e-001
1.211128e+003;1.095100e-001
1.213057e+003;1.063691e-001
1.214985e+003;1.052496e-001
1.216914e+003;1.055579e-001
1.218842e+003;1.066585e-001
1.220771e+003;1.080124e-001
1.222699e+003;1.095710e-001
1.224628e+003;1.112676e-001
1.226557e+003;1.134394e-001
1.228485e+003;1.157929e-001
1.230414e+003;1.176194e-001
1.232342e+003;1.193687e-001
1.234271e+003;1.209888e-001
1.236199e+003;1.219865e-001
1.238128e+003;1.223760e-001
1.240056e+003;1.228960e-001
1.241985e+003;1.240188e-001
1.243913e+003;1.253096e-001
1.245842e+003;1.266551e-001
1.247771e+003;1.278364e-001
1.249699e+003;1.281947e-001
1.251628e+003;1.284202e-001
1.253556e+003;1.288131e-001
1.255485e+003;1.292854e-001
1.257413e+003;1.300763e-001
1.259342e+003;1.310615e-001
1.261270e+003;1.314202e-001
1.263199e+003;1.313049e-001
1.265127e+003;1.308186e-001
1.267056e+003;1.295768e-001
1.268985e+003;1.287476e-001
1.270913e+003;1.289789e-001
1.272842e+003;1.297995e-001
1.274770e+003;1.303132e-001
1.276699e+003;1.303205e-001
1.278627e+003;1.299327e-001
1.280556e+003;1.291412e-001
1.282484e+003;1.276768e-001
1.284413e+003;1.261310e-001
1.286342e+003;1.251843e-001
1.288270e+003;1.246690e-001
1.290199e+003;1.248356e-001
1.292127e+003;1.253842e-001
1.294056e+003;1.259637e-001
1.295984e+003;1.269544e-001
1.297913e+003;1.286847e-001
1.299841e+003;1.310958e-001
1.301770e+003;1.345162e-001
1.303698e+003;1.388491e-001
1.305627e+003;1.434165e-001
1.307556e+003;1.481487e-001
1.309484e+003;1.529536e-001
1.311413e+003;1.570567e-001
1.313341e+003;1.598556e-001
1.315270e+003;1.600835e-001
1.317198e+003;1.577728e-001
1.319127e+003;1.541688e-001
1.321055e+003;1.501900e-001
1.322984e+003;1.465660e-001
1.324912e+003;1.442474e-001
1.326841e+003;1.432952e-001
1.328770e+003;1.435668e-001
1.330698e+003;1.447841e-001
1.332627e+003;1.461906e-001
1.334555e+003;1.469246e-001
1.336484e+003;1.460571e-001
1.338412e+003;1.440857e-001
1.340341e+003;1.419450e-001
1.342269e+003;1.393164e-001
1.344198e+003;1.360619e-001
1.346126e+003;1.331405e-001
1.348055e+003;1.311313e-001
1.349984e+003;1.303089e-001
1.351912e+003;1.307214e-001
1.353841e+003;1.319116e-001
1.355769e+003;1.331620e-001
1.357698e+003;1.343271e-001
1.359626e+003;1.346164e-001
1.361555e+003;1.335603e-001
1.363483e+003;1.320901e-001
1.365412e+003;1.313398e-001
1.367341e+003;1.306864e-001
1.369269e+003;1.300435e-001
1.371198e+003;1.285269e-001
1.373126e+003;1.252199e-001
1.375055e+003;1.216886e-001
1.376983e+003;1.187228e-001
1.378912e+003;1.156126e-001
1.380840e+003;1.124745e-001
1.382769e+003;1.096001e-001
1.384698e+003;1.068729e-001
1.386626e+003;1.041348e-001
1.388555e+003;1.032278e-001
1.390483e+003;1.032778e-001
1.392412e+003;1.024874e-001
1.394340e+003;1.015372e-001
1.396269e+003;1.020625e-001
1.398197e+003;1.025017e-001
1.400126e+003;1.030387e-001
1.402054e+003;1.038536e-001
1.403983e+003;1.037675e-001
1.405911e+003;1.040647e-001
1.407840e+003;1.048469e-001
1.409769e+003;1.053258e-001
1.411697e+003;1.059454e-001
1.413626e+003;1.067681e-001
1.415554e+003;1.075477e-001
1.417483e+003;1.073308e-001
1.419411e+003;1.082266e-001
1.421340e+003;1.122494e-001
1.423268e+003;1.150143e-001
1.425197e+003;1.165244e-001
1.427125e+003;1.172021e-001
1.429054e+003;1.166074e-001
1.430983e+003;1.160614e-001
1.432911e+003;1.149605e-001
1.434840e+003;1.113062e-001
1.436768e+003;1.079519e-001
1.438697e+003;1.086886e-001
1.440625e+003;1.092356e-001
1.442554e+003;1.090591e-001
1.444482e+003;1.089144e-001
1.446411e+003;1.084645e-001
1.448340e+003;1.083931e-001
1.450268e+003;1.091769e-001
1.452197e+003;1.089060e-001
1.454125e+003;1.063771e-001
1.456054e+003;1.009530e-001
1.457982e+003;9.973987e-002
1.459911e+003;1.019965e-001
1.461839e+003;1.014647e-001
1.463768e+003;9.768645e-002
1.465697e+003;9.515786e-002
1.467625e+003;9.443340e-002
1.469554e+003;9.237076e-002
1.471482e+003;8.902387e-002
1.473411e+003;8.699796e-002
1.475339e+003;8.570149e-002
1.477268e+003;8.434023e-002
1.479196e+003;8.338989e-002
1.481125e+003;8.199886e-002
1.483053e+003;8.047654e-002
1.484982e+003;7.790980e-002
1.486911e+003;7.485913e-002
1.488839e+003;7.227777e-002
1.490768e+003;7.154568e-002
1.492696e+003;7.227096e-002
1.494625e+003;7.068571e-002
1.496553e+003;6.838436e-002
1.498482e+003;6.857483e-002
1.500410e+003;6.926958e-002
1.502339e+003;6.909415e-002
1.504267e+003;6.518447e-002
1.506196e+003;6.085822e-002
1.508125e+003;6.345906e-002
1.510053e+003;6.696921e-002
1.511982e+003;6.752400e-002
1.513910e+003;6.763983e-002
1.515839e+003;6.662123e-002
1.517767e+003;6.606685e-002
1.519696e+003;6.446465e-002
1.521624e+003;6.361178e-002
1.523553e+003;6.623702e-002
1.525481e+003;6.754014e-002
1.527410e+003;6.892698e-002
1.529339e+003;7.052771e-002
1.531267e+003;7.049696e-002
1.533196e+003;6.965155e-002
1.535124e+003;7.127260e-002
1.537053e+003;7.011873e-002
1.538981e+003;6.519678e-002
1.540910e+003;6.548171e-002
1.542838e+003;6.942184e-002
1.544767e+003;7.218660e-002
1.546695e+003;7.434877e-002
1.548624e+003;7.509966e-002
1.550553e+003;7.512613e-002
1.552481e+003;7.442942e-002
1.554410e+003;7.317811e-002
1.556338e+003;7.074174e-002
1.558267e+003;6.581914e-002
1.560195e+003;6.765117e-002
1.562124e+003;7.363368e-002
1.564052e+003;7.573417e-002
1.565981e+003;7.607803e-002
1.567910e+003;7.480190e-002
1.569838e+003;7.376316e-002
1.571767e+003;7.522501e-002
1.573695e+003;7.429207e-002
1.575624e+003;7.106002e-002
1.577552e+003;7.289703e-002
1.579481e+003;7.594178e-002
1.581409e+003;7.639749e-002
1.583338e+003;7.639575e-002
1.585266e+003;7.635309e-002
1.587195e+003;7.662590e-002
1.589124e+003;7.660222e-002
1.591052e+003;7.637983e-002
1.592981e+003;7.627792e-002
1.594909e+003;7.653527e-002
1.596838e+003;7.712170e-002
1.598766e+003;7.754696e-002
1.600695e+003;7.749994e-002
1.602623e+003;7.735714e-002
1.604552e+003;7.722971e-002
1.606480e+003;7.707742e-002
1.608409e+003;7.676577e-002
1.610338e+003;7.668203e-002
1.612266e+003;7.695054e-002
1.614195e+003;7.572900e-002
1.616123e+003;7.272855e-002
1.618052e+003;7.403891e-002
1.619980e+003;7.651314e-002
1.621909e+003;7.586385e-002
1.623837e+003;7.559155e-002
1.625766e+003;7.630703e-002
1.627694e+003;7.642543e-002
1.629623e+003;7.701752e-002
1.631552e+003;7.738058e-002
1.633480e+003;7.484984e-002
1.635409e+003;7.200994e-002
1.637337e+003;7.438353e-002
1.639266e+003;7.684514e-002
1.641194e+003;7.716290e-002
1.643123e+003;7.640673e-002
1.645051e+003;7.372810e-002
1.646980e+003;7.275210e-002
1.648909e+003;7.455847e-002
1.650837e+003;7.112930e-002
1.652766e+003;6.548683e-002
1.654694e+003;7.019708e-002
1.656623e+003;7.592896e-002
1.658551e+003;7.695869e-002
1.660480e+003;7.602920e-002
1.662408e+003;7.457645e-002
1.664337e+003;7.484079e-002
1.666266e+003;7.476030e-002
1.668194e+003;7.236046e-002
1.670123e+003;7.131044e-002
1.672051e+003;7.184368e-002
1.673980e+003;7.025169e-002
1.675908e+003;6.948642e-002
1.677837e+003;7.069527e-002
1.679765e+003;7.013224e-002
1.681694e+003;6.747290e-002
1.683622e+003;6.252249e-002
1.685551e+003;6.359740e-002
1.687479e+003;6.736977e-002
1.689408e+003;6.790032e-002
1.691337e+003;6.782188e-002
1.693265e+003;6.596043e-002
1.695194e+003;6.192990e-002
1.697122e+003;6.173529e-002
1.699051e+003;6.020693e-002
1.700979e+003;6.046353e-002
1.702908e+003;6.454549e-002
1.704836e+003;6.510412e-002
1.706765e+003;6.588361e-002
1.708693e+003;6.690268e-002
1.710622e+003;6.762139e-002
1.712551e+003;6.739129e-002
1.714479e+003;6.657635e-002
1.716408e+003;6.524253e-002
1.718336e+003;6.776781e-002
1.720265e+003;7.372708e-002
1.722193e+003;7.805139e-002
1.724122e+003;8.159789e-002
1.726050e+003;8.512864e-002
1.727979e+003;8.735476e-002
1.729908e+003;8.844110e-002
1.731836e+003;8.620077e-002
1.733765e+003;8.218063e-002
1.735693e+003;8.240846e-002
1.737622e+003;8.054271e-002
1.739550e+003;7.482214e-002
1.741479e+003;7.053742e-002
1.743407e+003;6.664862e-002
1.745336e+003;6.302607e-002
1.747265e+003;5.973215e-002
1.749193e+003;5.663414e-002
1.751122e+003;5.498299e-002
1.753050e+003;5.602088e-002
1.754979e+003;5.605055e-002
1.756907e+003;5.545713e-002
1.758836e+003;5.560898e-002
1.760764e+003;5.465410e-002
1.762693e+003;5.459902e-002
1.764621e+003;5.554414e-002
1.766550e+003;5.473163e-002
1.768479e+003;5.382188e-002
1.770407e+003;5.254927e-002
1.772336e+003;5.137032e-002
1.774264e+003;5.295375e-002
1.776193e+003;5.433579e-002
1.778121e+003;5.444195e-002
1.780050e+003;5.405549e-002
1.781978e+003;5.417540e-002
1.783907e+003;5.395617e-002
1.785835e+003;5.385054e-002
1.787764e+003;5.406195e-002
1.789693e+003;5.300304e-002
1.791621e+003;5.133612e-002
1.793550e+003;5.177646e-002
1.795478e+003;5.333125e-002
1.797407e+003;5.352880e-002
1.799335e+003;5.294884e-002
1.801264e+003;5.265051e-002
1.803192e+003;5.293915e-002
1.805121e+003;5.300196e-002
1.807049e+003;5.300892e-002
1.808978e+003;5.292504e-002
1.810907e+003;5.264045e-002
1.812835e+003;5.284356e-002
1.814764e+003;5.310642e-002
1.816692e+003;5.316854e-002
1.818621e+003;5.329027e-002
1.820549e+003;5.296265e-002
1.822478e+003;5.259209e-002
1.824406e+003;5.198560e-002
1.826335e+003;5.187663e-002
1.828264e+003;5.127322e-002
1.830192e+003;5.098505e-002
1.832121e+003;5.212941e-002
1.834049e+003;5.266091e-002
1.835978e+003;5.231467e-002
1.837906e+003;5.218123e-002
1.839835e+003;5.213011e-002
1.841763e+003;5.111746e-002
1.843692e+003;4.959077e-002
1.845620e+003;5.036096e-002
1.847549e+003;5.166770e-002
1.849478e+003;5.178438e-002
1.851406e+003;5.170651e-002
1.853335e+003;5.171749e-002
1.855263e+003;5.159900e-002
1.857192e+003;5.150863e-002
1.859120e+003;5.150680e-002
1.861049e+003;5.138266e-002
1.862977e+003;5.132587e-002
1.864906e+003;5.110379e-002
1.866834e+003;5.032227e-002
1.868763e+003;4.965871e-002
1.870692e+003;5.017957e-002
1.872620e+003;5.098543e-002
1.874549e+003;5.122613e-002
1.876477e+003;5.115276e-002
1.878406e+003;5.115064e-002
1.880334e+003;5.113618e-002
1.882263e+003;5.092920e-002
1.884191e+003;5.097824e-002
1.886120e+003;5.103868e-002
1.888048e+003;5.051984e-002
1.889977e+003;5.025497e-002
1.891906e+003;5.057485e-002
1.893834e+003;5.052501e-002
1.895763e+003;5.069124e-002
1.897691e+003;5.083272e-002
1.899620e+003;5.084114e-002
1.901548e+003;5.092596e-002
1.903477e+003;5.083451e-002
1.905405e+003;5.054652e-002
1.907334e+003;5.035847e-002
1.909262e+003;5.024667e-002
1.911191e+003;5.052802e-002
1.913120e+003;5.100466e-002
1.915048e+003;5.092924e-002
1.916977e+003;5.014726e-002
1.918905e+003;5.033224e-002
1.920834e+003;5.084930e-002
1.922762e+003;5.077234e-002
1.924691e+003;5.105679e-002
1.926619e+003;5.139564e-002
1.928548e+003;5.146424e-002
1.930477e+003;5.149270e-002
1.932405e+003;5.154116e-002
1.934334e+003;5.154478e-002
1.936262e+003;5.161975e-002
1.938191e+003;5.159172e-002
1.940119e+003;5.127228e-002
1.942048e+003;5.105872e-002
1.943976e+003;5.144138e-002
1.945905e+003;5.171677e-002
1.947833e+003;5.189000e-002
1.949762e+003;5.223092e-002
1.951691e+003;5.224741e-002
1.953619e+003;5.209167e-002
1.955548e+003;5.211708e-002
1.957476e+003;5.207117e-002
1.959405e+003;5.189974e-002
1.961333e+003;5.200472e-002
1.963262e+003;5.200401e-002
1.965190e+003;5.193331e-002
1.967119e+003;5.189366e-002
1.969047e+003;5.215261e-002
1.970976e+003;5.244338e-002
1.972905e+003;5.254531e-002
1.974833e+003;5.246648e-002
1.976762e+003;5.238835e-002
1.978690e+003;5.238558e-002
1.980619e+003;5.233041e-002
1.982547e+003;5.227730e-002
1.984476e+003;5.239769e-002
1.986404e+003;5.240214e-002
1.988333e+003;5.237567e-002
1.990261e+003;5.223246e-002
1.992190e+003;5.224662e-002
1.994119e+003;5.272705e-002
1.996047e+003;5.303340e-002
1.997976e+003;5.316247e-002
1.999904e+003;5.303266e-002
2.001833e+003;5.282822e-002
2.003761e+003;5.266330e-002
2.005690e+003;5.279282e-002
2.007618e+003;5.297111e-002
2.009547e+003;5.284267e-002
2.011476e+003;5.292796e-002
2.013404e+003;5.319554e-002
2.015333e+003;5.304134e-002
2.017261e+003;5.295588e-002
2.019190e+003;5.327918e-002
2.021118e+003;5.345010e-002
2.023047e+003;5.357666e-002
2.024975e+003;5.372569e-002
2.026904e+003;5.373514e-002
2.028833e+003;5.376716e-002
2.030761e+003;5.383299e-002
2.032690e+003;5.380860e-002
2.034618e+003;5.386033e-002
2.036547e+003;5.409685e-002
2.038475e+003;5.432817e-002
2.040404e+003;5.431814e-002
2.042332e+003;5.428029e-002
2.044261e+003;5.425349e-002
2.046189e+003;5.434101e-002
2.048118e+003;5.441668e-002
2.050047e+003;5.438938e-002
2.051975e+003;5.453601e-002
2.053904e+003;5.423561e-002
2.055832e+003;5.377733e-002
2.057761e+003;5.382342e-002
2.059689e+003;5.398758e-002
2.061618e+003;5.388283e-002
2.063546e+003;5.367991e-002
2.065475e+003;5.349747e-002
2.067404e+003;5.342574e-002
2.069332e+003;5.353199e-002
2.071260e+003;5.377144e-002
2.073189e+003;5.375228e-002
2.075118e+003;5.362112e-002
2.077046e+003;5.365524e-002
2.078975e+003;5.368726e-002
2.080903e+003;5.356253e-002
2.082832e+003;5.322977e-002
2.084760e+003;5.329206e-002
2.086689e+003;5.346044e-002
2.088617e+003;5.354042e-002
2.090546e+003;5.353952e-002
2.092475e+003;5.357033e-002
2.094403e+003;5.345149e-002
2.096332e+003;5.343563e-002
2.098260e+003;5.363147e-002
2.100189e+003;5.385339e-002
2.102117e+003;5.368557e-002
2.104046e+003;5.345358e-002
2.105974e+003;5.317764e-002
2.107903e+003;5.319116e-002
2.109832e+003;5.384806e-002
2.111760e+003;5.405399e-002
2.113688e+003;5.384922e-002
2.115617e+003;5.399718e-002
2.117546e+003;5.407410e-002
2.119474e+003;5.364463e-002
2.121403e+003;5.332941e-002
2.123331e+003;5.363057e-002
2.125260e+003;5.406135e-002
2.127188e+003;5.426753e-002
2.129117e+003;5.428292e-002
2.131045e+003;5.434972e-002
2.132974e+003;5.443550e-002
2.134903e+003;5.451971e-002
2.136831e+003;5.465305e-002
2.138760e+003;5.457028e-002
2.140688e+003;5.410015e-002
2.142617e+003;5.383524e-002
2.144545e+003;5.372284e-002
2.146474e+003;5.356793e-002
2.148402e+003;5.348652e-002
2.150331e+003;5.370915e-002
2.152260e+003;5.392965e-002
2.154188e+003;5.385901e-002
2.156117e+003;5.368647e-002
2.158045e+003;5.354983e-002
2.159974e+003;5.331735e-002
2.161902e+003;5.310784e-002
2.163831e+003;5.303928e-002
2.165759e+003;5.298343e-002
2.167688e+003;5.294510e-002
2.169616e+003;5.299331e-002
2.171545e+003;5.281007e-002
2.173474e+003;5.264116e-002
2.175402e+003;5.255006e-002
2.177331e+003;5.230025e-002
2.179259e+003;5.224875e-002
2.181188e+003;5.229132e-002
2.183116e+003;5.211741e-002
2.185045e+003;5.200602e-002
2.186973e+003;5.193761e-002
2.188902e+003;5.178546e-002
2.190831e+003;5.153355e-002
2.192759e+003;5.139732e-002
2.194688e+003;5.138848e-002
2.196616e+003;5.145361e-002
2.198545e+003;5.152027e-002
2.200473e+003;5.168345e-002
2.202402e+003;5.170457e-002
2.204330e+003;5.149475e-002
2.206259e+003;5.124507e-002
2.208188e+003;5.110673e-002
2.210116e+003;5.110837e-002
2.212044e+003;5.134060e-002
2.213973e+003;5.143059e-002
2.215902e+003;5.137226e-002
2.217830e+003;5.135179e-002
2.219759e+003;5.134358e-002
2.221687e+003;5.127169e-002
2.223616e+003;5.110241e-002
2.225544e+003;5.115436e-002
2.227473e+003;5.126647e-002
2.229401e+003;5.127322e-002
2.231330e+003;5.127680e-002
2.233259e+003;5.131696e-002
2.235187e+003;5.138975e-002
2.237116e+003;5.140415e-002
2.239044e+003;5.131017e-002
2.240973e+003;5.118967e-002
2.242901e+003;5.125234e-002
2.244830e+003;5.139829e-002
2.246758e+003;5.142392e-002
2.248687e+003;5.117230e-002
2.250615e+003;5.099698e-002
2.252544e+003;5.100447e-002
2.254473e+003;5.109521e-002
2.256401e+003;5.105973e-002
2.258330e+003;5.087481e-002
2.260258e+003;5.069295e-002
2.262187e+003;5.053141e-002
2.264115e+003;5.031699e-002
2.266044e+003;5.023901e-002
2.267972e+003;5.014131e-002
2.269901e+003;5.010148e-002
2.271830e+003;5.004362e-002
2.273758e+003;4.988756e-002
2.275687e+003;4.991938e-002
2.277615e+003;4.998685e-002
2.279544e+003;4.986069e-002
2.281472e+003;4.985501e-002
2.283401e+003;4.998235e-002
2.285329e+003;4.989050e-002
2.287258e+003;4.972919e-002
2.289187e+003;4.969230e-002
2.291115e+003;4.958895e-002
2.293043e+003;4.928090e-002
2.294972e+003;4.903278e-002
2.296901e+003;4.910401e-002
2.298829e+003;4.943510e-002
2.300758e+003;4.931772e-002
2.302686e+003;4.896167e-002
2.304615e+003;4.909272e-002
2.306543e+003;4.909933e-002
2.308472e+003;4.879729e-002
2.310400e+003;4.873138e-002
2.312329e+003;4.885721e-002
2.314258e+003;4.903211e-002
2.316186e+003;4.900206e-002
2.318115e+003;4.878087e-002
2.320043e+003;4.856479e-002
2.321972e+003;4.845597e-002
2.323900e+003;4.838304e-002
2.325829e+003;4.840719e-002
2.327757e+003;4.832545e-002
2.329686e+003;4.809267e-002
2.331615e+003;4.795327e-002
2.333543e+003;4.804452e-002
2.335472e+003;4.825050e-002
2.337400e+003;4.819266e-002
2.339329e+003;4.834481e-002
2.341257e+003;4.869620e-002
2.343186e+003;4.887093e-002
2.345114e+003;4.907084e-002
2.347043e+003;4.926156e-002
2.348971e+003;4.941650e-002
2.350900e+003;4.959092e-002
2.352829e+003;4.975802e-002
2.354757e+003;4.972904e-002
2.356686e+003;4.927396e-002
2.358614e+003;4.877130e-002
2.360543e+003;4.863468e-002
2.362471e+003;4.890445e-002
2.364400e+003;4.926698e-002
2.366328e+003;4.952415e-002
2.368257e+003;4.960299e-002
2.370186e+003;4.976307e-002
2.372114e+003;5.009913e-002
2.374042e+003;5.043676e-002
2.375971e+003;5.056882e-002
2.377900e+003;5.077152e-002
2.379828e+003;5.105276e-002
2.381757e+003;5.128366e-002
2.383685e+003;5.142399e-002
2.385614e+003;5.152971e-002
2.387542e+003;5.130010e-002
2.389471e+003;5.120026e-002
2.391399e+003;5.128459e-002
2.393328e+003;5.142324e-002
2.395257e+003;5.153523e-002
2.397185e+003;5.155101e-002
2.399114e+003;5.161504e-002
2.401042e+003;5.181376e-002
2.402971e+003;5.186774e-002
2.404899e+003;5.180267e-002
2.406828e+003;5.188107e-002
2.408756e+003;5.192566e-002
2.410685e+003;5.166617e-002
2.412614e+003;5.171327e-002
2.414542e+003;5.202492e-002
2.416471e+003;5.214353e-002
2.418399e+003;5.205484e-002
2.420328e+003;5.219610e-002
2.422256e+003;5.259385e-002
2.424185e+003;5.305886e-002
2.426113e+003;5.320678e-002
2.428042e+003;5.306156e-002
2.429970e+003;5.308822e-002
2.431899e+003;5.320340e-002
2.433828e+003;5.317427e-002
2.435756e+003;5.330888e-002
2.437685e+003;5.348986e-002
2.439613e+003;5.346861e-002
2.441542e+003;5.355972e-002
2.443470e+003;5.393786e-002
2.445399e+003;5.405478e-002
2.447327e+003;5.390838e-002
2.449256e+003;5.388898e-002
2.451185e+003;5.407523e-002
2.453113e+003;5.430155e-002
2.455042e+003;5.432587e-002
2.456970e+003;5.417687e-002
2.458899e+003;5.418227e-002
2.460827e+003;5.435186e-002
2.462756e+003;5.451486e-002
2.464684e+003;5.447756e-002
2.466613e+003;5.423280e-002
2.468542e+003;5.460642e-002
2.470470e+003;5.470555e-002
2.472398e+003;5.429584e-002
2.474327e+003;5.427620e-002
2.476256e+003;5.453368e-002
2.478184e+003;5.489516e-002
2.480113e+003;5.473306e-002
2.482041e+003;5.460522e-002
2.483970e+003;5.496776e-002
2.485898e+003;5.524650e-002
2.487827e+003;5.519631e-002
2.489755e+003;5.525757e-002
2.491684e+003;5.494415e-002
2.493613e+003;5.464854e-002
2.495541e+003;5.481561e-002
2.497470e+003;5.519435e-002
2.499398e+003;5.552158e-002
2.501327e+003;5.568860e-002
2.503255e+003;5.576594e-002
2.505184e+003;5.575468e-002
2.507112e+003;5.565900e-002
2.509041e+003;5.572929e-002
2.510969e+003;5.614345e-002
2.512898e+003;5.625764e-002
2.514827e+003;5.628702e-002
2.516755e+003;5.632663e-002
2.518684e+003;5.655431e-002
2.520612e+003;5.675295e-002
2.522541e+003;5.688018e-002
2.524469e+003;5.676639e-002
2.526398e+003;5.665497e-002
2.528326e+003;5.660586e-002
2.530255e+003;5.662787e-002
2.532184e+003;5.686137e-002
2.534112e+003;5.702358e-002
2.536041e+003;5.712319e-002
2.537969e+003;5.688573e-002
2.539898e+003;5.654128e-002
2.541826e+003;5.679290e-002
2.543755e+003;5.707693e-002
2.545683e+003;5.693276e-002
2.547612e+003;5.668351e-002
2.549541e+003;5.675257e-002
2.551469e+003;5.720887e-002
2.553397e+003;5.745093e-002
2.555326e+003;5.741784e-002
2.557255e+003;5.728992e-002
2.559183e+003;5.718627e-002
2.561112e+003;5.736014e-002
2.563040e+003;5.738067e-002
2.564969e+003;5.707093e-002
2.566897e+003;5.695607e-002
2.568826e+003;5.703507e-002
2.570754e+003;5.714500e-002
2.572683e+003;5.731643e-002
2.574612e+003;5.725518e-002
2.576540e+003;5.724849e-002
2.578469e+003;5.745331e-002
2.580397e+003;5.746031e-002
2.582326e+003;5.741137e-002
2.584254e+003;5.760708e-002
2.586183e+003;5.781719e-002
2.588111e+003;5.798456e-002
2.590040e+003;5.805674e-002
2.591969e+003;5.786795e-002
2.593897e+003;5.773536e-002
2.595826e+003;5.778002e-002
2.597754e+003;5.783846e-002
2.599683e+003;5.768416e-002
2.601611e+003;5.794916e-002
2.603540e+003;5.851093e-002
2.605468e+003;5.861016e-002
2.607397e+003;5.833645e-002
2.609325e+003;5.830515e-002
2.611254e+003;5.872132e-002
2.613183e+003;5.888145e-002
2.615111e+003;5.875724e-002
2.617040e+003;5.886093e-002
2.618968e+003;5.899113e-002
2.620897e+003;5.895143e-002
2.622825e+003;5.908994e-002
2.624754e+003;5.934213e-002
2.626682e+003;5.943539e-002
2.628611e+003;5.938551e-002
2.630540e+003;5.940044e-002
2.632468e+003;5.944014e-002
2.634396e+003;5.964961e-002
2.636325e+003;5.982998e-002
2.638254e+003;5.986683e-002
2.640182e+003;5.984097e-002
2.642111e+003;5.990544e-002
2.644039e+003;5.992651e-002
2.645968e+003;5.978690e-002
2.647896e+003;5.979982e-002
2.649825e+003;6.004223e-002
2.651753e+003;6.035257e-002
2.653682e+003;6.014501e-002
2.655611e+003;5.997516e-002
2.657539e+003;6.008800e-002
2.659468e+003;6.039773e-002
2.661396e+003;6.099581e-002
2.663325e+003;6.114630e-002
2.665253e+003;6.076720e-002
2.667182e+003;6.059628e-002
2.669110e+003;6.079609e-002
2.671039e+003;6.089905e-002
2.672968e+003;6.078279e-002
2.674896e+003;6.093850e-002
2.676825e+003;6.124216e-002
2.678753e+003;6.124705e-002
2.680682e+003;6.117186e-002
2.682610e+003;6.138606e-002
2.684539e+003;6.170176e-002
2.686467e+003;6.198677e-002
2.688396e+003;6.191282e-002
2.690324e+003;6.169255e-002
2.692253e+003;6.168514e-002
2.694182e+003;6.201081e-002
2.696110e+003;6.249000e-002
2.698039e+003;6.259944e-002
2.699967e+003;6.251158e-002
2.701896e+003;6.230661e-002
2.703824e+003;6.248499e-002
2.705753e+003;6.271779e-002
2.707681e+003;6.290445e-002
2.709610e+003;6.305787e-002
2.711539e+003;6.324349e-002
2.713467e+003;6.322498e-002
2.715396e+003;6.335852e-002
2.717324e+003;6.365955e-002
2.719253e+003;6.353607e-002
2.721181e+003;6.340715e-002
2.723110e+003;6.357696e-002
2.725038e+003;6.375927e-002
2.726967e+003;6.374499e-002
2.728896e+003;6.384243e-002
2.730824e+003;6.410116e-002
2.732752e+003;6.420401e-002
2.734681e+003;6.425315e-002
2.736610e+003;6.446800e-002
2.738538e+003;6.473283e-002
2.740467e+003;6.466368e-002
2.742395e+003;6.457244e-002
2.744324e+003;6.462900e-002
2.746252e+003;6.463088e-002
2.748181e+003;6.457733e-002
2.750109e+003;6.451704e-002
2.752038e+003;6.478275e-002
2.753967e+003;6.491990e-002
2.755895e+003;6.496226e-002
2.757824e+003;6.523925e-002
2.759752e+003;6.554887e-002
2.761681e+003;6.538432e-002
2.763609e+003;6.502145e-002
2.765538e+003;6.509119e-002
2.767466e+003;6.518015e-002
2.769395e+003;6.553445e-002
2.771323e+003;6.593323e-002
2.773252e+003;6.626662e-002
2.775181e+003;6.632961e-002
2.777109e+003;6.594323e-002
2.779038e+003;6.591650e-002
2.780966e+003;6.642578e-002
2.782895e+003;6.692494e-002
2.784823e+003;6.721573e-002
2.786752e+003;6.744736e-002
2.788680e+003;6.766155e-002
2.790609e+003;6.772227e-002
2.792538e+003;6.783993e-002
2.794466e+003;6.789106e-002
2.796395e+003;6.799583e-002
2.798323e+003;6.851675e-002
2.800252e+003;6.880824e-002
2.802180e+003;6.871664e-002
2.804109e+003;6.900784e-002
2.806037e+003;6.968730e-002
2.807966e+003;7.047911e-002
2.809895e+003;7.107560e-002
2.811823e+003;7.084206e-002
2.813751e+003;7.068041e-002
2.815680e+003;7.120053e-002
2.817609e+003;7.168299e-002
2.819537e+003;7.218672e-002
2.821466e+003;7.295167e-002
2.823394e+003;7.348743e-002
2.825323e+003;7.399829e-002
2.827251e+003;7.464606e-002
2.829180e+003;7.501943e-002
2.831108e+003;7.574588e-002
2.833037e+003;7.710084e-002
2.834966e+003;7.828774e-002
2.836894e+003;7.899117e-002
2.838823e+003;8.010785e-002
2.840751e+003;8.186921e-002
2.842680e+003;8.387418e-002
2.844608e+003;8.644810e-002
2.846537e+003;9.020950e-002
2.848465e+003;9.458449e-002
2.850394e+003;9.720724e-002
2.852323e+003;9.676723e-002
2.854251e+003;9.458712e-002
2.856180e+003;9.293573e-002
2.858108e+003;9.221545e-002
2.860037e+003;9.200544e-002
2.861965e+003;9.249952e-002
2.863894e+003;9.352781e-002
2.865822e+003;9.481405e-002
2.867751e+003;9.569970e-002
2.869679e+003;9.611970e-002
2.871608e+003;9.719883e-002
2.873536e+003;9.812230e-002
2.875465e+003;9.806353e-002
2.877394e+003;9.817351e-002
2.879322e+003;9.884783e-002
2.881251e+003;9.919015e-002
2.883179e+003;9.921870e-002
2.885108e+003;9.982263e-002
2.887036e+003;1.011682e-001
2.888965e+003;1.018388e-001
2.890893e+003;1.019336e-001
2.892822e+003;1.026439e-001
2.894750e+003;1.034375e-001
2.896679e+003;1.042490e-001
2.898608e+003;1.049206e-001
2.900536e+003;1.048837e-001
2.902465e+003;1.045107e-001
2.904393e+003;1.043475e-001
2.906322e+003;1.042009e-001
2.908250e+003;1.042305e-001
2.910179e+003;1.047003e-001
2.912107e+003;1.054965e-001
2.914036e+003;1.062236e-001
2.915965e+003;1.071704e-001
2.917893e+003;1.074986e-001
2.919822e+003;1.070377e-001
2.921750e+003;1.053062e-001
2.923679e+003;1.023893e-001
2.925607e+003;9.898830e-002
2.927536e+003;9.619429e-002
2.929464e+003;9.372154e-002
2.931393e+003;9.094075e-002
2.933322e+003;8.881938e-002
2.935250e+003;8.743864e-002
2.937178e+003;8.644758e-002
2.939107e+003;8.572745e-002
2.941036e+003;8.503146e-002
2.942964e+003;8.395915e-002
2.944893e+003;8.260165e-002
2.946821e+003;8.193331e-002
2.948750e+003;8.146952e-002
2.950678e+003;8.048759e-002
2.952607e+003;7.937873e-002
2.954535e+003;7.843795e-002
2.956464e+003;7.795297e-002
2.958393e+003;7.757608e-002
2.960321e+003;7.717560e-002
2.962250e+003;7.633523e-002
2.964178e+003;7.538836e-002
2.966107e+003;7.428810e-002
2.968035e+003;7.317702e-002
2.969964e+003;7.218804e-002
2.971892e+003;7.124789e-002
2.973821e+003;7.011048e-002
2.975750e+003;6.869909e-002
2.977678e+003;6.756433e-002
2.979607e+003;6.643385e-002
2.981535e+003;6.531546e-002
2.983464e+003;6.462903e-002
2.985392e+003;6.423091e-002
2.987321e+003;6.347689e-002
2.989249e+003;6.314568e-002
2.991178e+003;6.302599e-002
2.993106e+003;6.273720e-002
2.995035e+003;6.259416e-002
2.996964e+003;6.221617e-002
2.998892e+003;6.191347e-002
3.000821e+003;6.182560e-002
3.002749e+003;6.177551e-002
3.004678e+003;6.161457e-002
3.006606e+003;6.145060e-002
3.008535e+003;6.154566e-002
3.010463e+003;6.175172e-002
3.012392e+003;6.168782e-002
3.014321e+003;6.145239e-002
3.016249e+003;6.180195e-002
3.018177e+003;6.227299e-002
3.020106e+003;6.275615e-002
3.022035e+003;6.307955e-002
3.023963e+003;6.315301e-002
3.025892e+003;6.325683e-002
3.027820e+003;6.329665e-002
3.029749e+003;6.374169e-002
3.031677e+003;6.415500e-002
3.033606e+003;6.382420e-002
3.035534e+003;6.381772e-002
3.037463e+003;6.434014e-002
3.039392e+003;6.441899e-002
3.041320e+003;6.449002e-002
3.043249e+003;6.497134e-002
3.045177e+003;6.520987e-002
3.047106e+003;6.530872e-002
3.049034e+003;6.552898e-002
3.050963e+003;6.542870e-002
3.052891e+003;6.537585e-002
3.054820e+003;6.563094e-002
3.056749e+003;6.604131e-002
3.058677e+003;6.648852e-002
3.060606e+003;6.671213e-002
3.062534e+003;6.678886e-002
3.064463e+003;6.674744e-002
3.066391e+003;6.720629e-002
3.068320e+003;6.797289e-002
3.070248e+003;6.801482e-002
3.072177e+003;6.769330e-002
3.074105e+003;6.781928e-002
3.076034e+003;6.830788e-002
3.077963e+003;6.873849e-002
3.079891e+003;6.858557e-002
3.081820e+003;6.886306e-002
3.083748e+003;6.975441e-002
3.085677e+003;7.032847e-002
3.087605e+003;7.049856e-002
3.089534e+003;7.058349e-002
3.091462e+003;7.074299e-002
3.093391e+003;7.071753e-002
3.095320e+003;7.088344e-002
3.097248e+003;7.123934e-002
3.099177e+003;7.196262e-002
3.101105e+003;7.271750e-002
3.103034e+003;7.305072e-002
3.104962e+003;7.346734e-002
3.106891e+003;7.357746e-002
3.108819e+003;7.356726e-002
3.110748e+003;7.364989e-002
3.112677e+003;7.371958e-002
3.114605e+003;7.396870e-002
3.116533e+003;7.442545e-002
3.118462e+003;7.475986e-002
3.120391e+003;7.515697e-002
3.122319e+003;7.545844e-002
3.124248e+003;7.585055e-002
3.126176e+003;7.673731e-002
3.128105e+003;7.750030e-002
3.130033e+003;7.760306e-002
3.131962e+003;7.768127e-002
3.133890e+003;7.821175e-002
3.135819e+003;7.887638e-002
3.137748e+003;7.910422e-002
3.139676e+003;7.934492e-002
3.141605e+003;8.009825e-002
3.143533e+003;8.075192e-002
3.145462e+003;8.156551e-002
3.147390e+003;8.220637e-002
3.149319e+003;8.205685e-002
3.151247e+003;8.189394e-002
3.153176e+003;8.232314e-002
3.155104e+003;8.301334e-002
3.157033e+003;8.380839e-002
3.158962e+003;8.483469e-002
3.160890e+003;8.553713e-002
3.162819e+003;8.574698e-002
3.164747e+003;8.599894e-002
3.166676e+003;8.647879e-002
3.168604e+003;8.697890e-002
3.170533e+003;8.739970e-002
3.172461e+003;8.760916e-002
3.174390e+003;8.772560e-002
3.176319e+003;8.843282e-002
3.178247e+003;8.971047e-002
3.180176e+003;9.055503e-002
3.182104e+003;9.128049e-002
3.184033e+003;9.152439e-002
3.185961e+003;9.190458e-002
3.187890e+003;9.255209e-002
3.189818e+003;9.317395e-002
3.191747e+003;9.385045e-002
3.193676e+003;9.479760e-002
3.195604e+003;9.565291e-002
3.197532e+003;9.621479e-002
3.199461e+003;9.666021e-002
3.201390e+003;9.741415e-002
3.203318e+003;9.814560e-002
3.205247e+003;9.892035e-002
3.207175e+003;9.950294e-002
3.209104e+003;1.001529e-001
3.211032e+003;1.011771e-001
3.212961e+003;1.019955e-001
3.214889e+003;1.029556e-001
3.216818e+003;1.040154e-001
3.218747e+003;1.044944e-001
3.220675e+003;1.050823e-001
3.222604e+003;1.059741e-001
3.224532e+003;1.069834e-001
3.226461e+003;1.080705e-001
3.228389e+003;1.091195e-001
3.230318e+003;1.104998e-001
3.232246e+003;1.117856e-001
3.234175e+003;1.124584e-001
3.236104e+003;1.129634e-001
3.238032e+003;1.141307e-001
3.239961e+003;1.156107e-001
3.241889e+003;1.168097e-001
3.243818e+003;1.177415e-001
3.245746e+003;1.189486e-001
3.247675e+003;1.201000e-001
3.249603e+003;1.212750e-001
3.251532e+003;1.227182e-001
3.253460e+003;1.239568e-001
3.255389e+003;1.254435e-001
3.257318e+003;1.267873e-001
3.259246e+003;1.278551e-001
3.261175e+003;1.289225e-001
3.263103e+003;1.303801e-001
3.265032e+003;1.316796e-001
3.266960e+003;1.324916e-001
3.268889e+003;1.330565e-001
3.270817e+003;1.337100e-001
3.272746e+003;1.345694e-001
3.274675e+003;1.354946e-001
3.276603e+003;1.359200e-001
3.278531e+003;1.362199e-001
3.280460e+003;1.373769e-001
3.282389e+003;1.383910e-001
3.284317e+003;1.387679e-001
3.286246e+003;1.387165e-001
3.288174e+003;1.384488e-001
3.290103e+003;1.385787e-001
3.292031e+003;1.393118e-001
3.293960e+003;1.397931e-001
3.295888e+003;1.401171e-001
3.297817e+003;1.401032e-001
3.299746e+003;1.397357e-001
3.301674e+003;1.397209e-001
3.303603e+003;1.396261e-001
3.305531e+003;1.398448e-001
3.307460e+003;1.405693e-001
3.309388e+003;1.406801e-001
3.311317e+003;1.402109e-001
3.313245e+003;1.400937e-001
3.315174e+003;1.407143e-001
3.317103e+003;1.414754e-001
3.319031e+003;1.422450e-001
3.320960e+003;1.430735e-001
3.322888e+003;1.430972e-001
3.324817e+003;1.436069e-001
3.326745e+003;1.444262e-001
3.328674e+003;1.447341e-001
3.330602e+003;1.456061e-001
3.332531e+003;1.460545e-001
3.334459e+003;1.454553e-001
3.336388e+003;1.448196e-001
3.338317e+003;1.441051e-001
3.340245e+003;1.439021e-001
3.342174e+003;1.437863e-001
3.344102e+003;1.429875e-001
3.346031e+003;1.418639e-001
3.347959e+003;1.404745e-001
3.349888e+003;1.394975e-001
3.351816e+003;1.385461e-001
3.353745e+003;1.377031e-001
3.355674e+003;1.363236e-001
3.357602e+003;1.348657e-001
3.359531e+003;1.341056e-001
3.361459e+003;1.331302e-001
3.363388e+003;1.316443e-001
3.365316e+003;1.305843e-001
3.367245e+003;1.294341e-001
3.369173e+003;1.283282e-001
3.371102e+003;1.277954e-001
3.373031e+003;1.274408e-001
3.374959e+003;1.265195e-001
3.376887e+003;1.252051e-001
3.378816e+003;1.245617e-001
3.380745e+003;1.239984e-001
3.382673e+003;1.229252e-001
3.384602e+003;1.217050e-001
3.386530e+003;1.212809e-001
3.388459e+003;1.213713e-001
3.390387e+003;1.206407e-001
3.392316e+003;1.196887e-001
3.394244e+003;1.192929e-001
3.396173e+003;1.190459e-001
3.398102e+003;1.185489e-001
3.400030e+003;1.177188e-001
3.401959e+003;1.169421e-001
3.403887e+003;1.159403e-001
3.405816e+003;1.147753e-001
3.407744e+003;1.136936e-001
3.409673e+003;1.130968e-001
3.411601e+003;1.132233e-001
3.413530e+003;1.124720e-001
3.415458e+003;1.104564e-001
3.417387e+003;1.085387e-001
3.419316e+003;1.070685e-001
3.421244e+003;1.059030e-001
3.423173e+003;1.053015e-001
3.425101e+003;1.049096e-001
3.427030e+003;1.042950e-001
3.428958e+003;1.030030e-001
3.430887e+003;1.013541e-001
3.432815e+003;1.010948e-001
3.434744e+003;1.006421e-001
3.436673e+003;9.904519e-002
3.438601e+003;9.772131e-002
3.440530e+003;9.709457e-002
3.442458e+003;9.617241e-002
3.444387e+003;9.502935e-002
3.446315e+003;9.460661e-002
3.448244e+003;9.370291e-002
3.450172e+003;9.202047e-002
3.452101e+003;9.086543e-002
3.454030e+003;9.005646e-002
3.455958e+003;8.943433e-002
3.457886e+003;8.858902e-002
3.459815e+003;8.747195e-002
3.461744e+003;8.663599e-002
3.463672e+003;8.543228e-002
3.465601e+003;8.483553e-002
3.467529e+003;8.472259e-002
3.469458e+003;8.388628e-002
3.471386e+003;8.251762e-002
3.473315e+003;8.135626e-002
3.475243e+003;8.025056e-002
3.477172e+003;7.936576e-002
3.479101e+003;7.862224e-002
3.481029e+003;7.783206e-002
3.482958e+003;7.673200e-002
3.484886e+003;7.572257e-002
3.486815e+003;7.468847e-002
3.488743e+003;7.391024e-002
3.490672e+003;7.328518e-002
3.492600e+003;7.244870e-002
3.494529e+003;7.152794e-002
3.496458e+003;7.045978e-002
3.498386e+003;6.955031e-002
3.500315e+003;6.886050e-002
3.502243e+003;6.822614e-002
3.504172e+003;6.781239e-002
3.506100e+003;6.757494e-002
3.508029e+003;6.715005e-002
3.509957e+003;6.639142e-002
3.511886e+003;6.548529e-002
3.513814e+003;6.460681e-002
3.515743e+003;6.391656e-002
3.517672e+003;6.371092e-002
3.519600e+003;6.301849e-002
3.521529e+003;6.159792e-002
3.523457e+003;6.024990e-002
3.525386e+003;5.969097e-002
3.527314e+003;5.908846e-002
3.529243e+003;5.831671e-002
3.531171e+003;5.800702e-002
3.533100e+003;5.746443e-002
3.535029e+003;5.682512e-002
3.536957e+003;5.623569e-002
3.538885e+003;5.555265e-002
3.540814e+003;5.487350e-002
3.542743e+003;5.419241e-002
3.544671e+003;5.317809e-002
3.546600e+003;5.248062e-002
3.548528e+003;5.200042e-002
3.550457e+003;5.132911e-002
3.552385e+003;5.074612e-002
3.554314e+003;5.030393e-002
3.556242e+003;4.954706e-002
3.558171e+003;4.937013e-002
3.560100e+003;4.906471e-002
3.562028e+003;4.799963e-002
3.563957e+003;4.693143e-002
3.565885e+003;4.497990e-002
3.567814e+003;4.417392e-002
3.569742e+003;4.524896e-002
3.571671e+003;4.582085e-002
3.573599e+003;4.551167e-002
3.575528e+003;4.492975e-002
3.577457e+003;4.451549e-002
3.579385e+003;4.384241e-002
3.581314e+003;4.313210e-002
3.583242e+003;4.305174e-002
3.585171e+003;4.193165e-002
3.587099e+003;4.082016e-002
3.589028e+003;4.170648e-002
3.590956e+003;4.231660e-002
3.592885e+003;4.132622e-002
3.594813e+003;4.048396e-002
3.596742e+003;4.039053e-002
3.598671e+003;3.994237e-002
3.600599e+003;3.934612e-002
3.602528e+003;3.940790e-002
3.604456e+003;3.928562e-002
3.606385e+003;3.819143e-002
3.608313e+003;3.656444e-002
3.610242e+003;3.633897e-002
3.612170e+003;3.626634e-002
3.614099e+003;3.612679e-002
3.616028e+003;3.579579e-002
3.617956e+003;3.509257e-002
3.619885e+003;3.549146e-002
3.621813e+003;3.629732e-002
3.623742e+003;3.597929e-002
3.625670e+003;3.479782e-002
3.627599e+003;3.127328e-002
3.629527e+003;3.091457e-002
3.631456e+003;3.379745e-002
3.633385e+003;3.434893e-002
3.635313e+003;3.459673e-002
3.637241e+003;3.472804e-002
3.639170e+003;3.444497e-002
3.641099e+003;3.445280e-002
3.643027e+003;3.431920e-002
3.644956e+003;3.279606e-002
3.646884e+003;2.987507e-002
3.648813e+003;2.739598e-002
3.650741e+003;2.810479e-002
3.652670e+003;2.980931e-002
3.654598e+003;2.941670e-002
3.656527e+003;2.951127e-002
3.658456e+003;3.068679e-002
3.660384e+003;3.120118e-002
3.662313e+003;3.091279e-002
3.664241e+003;3.030557e-002
3.666170e+003;2.941209e-002
3.668098e+003;2.738677e-002
3.670027e+003;2.587117e-002
3.671955e+003;2.731408e-002
3.673884e+003;2.527394e-002
3.675813e+003;2.354641e-002
3.677741e+003;2.649687e-002
3.679669e+003;2.871237e-002
3.681598e+003;2.903982e-002
3.683527e+003;2.792518e-002
3.685455e+003;2.646965e-002
3.687384e+003;2.362880e-002
3.689312e+003;2.376170e-002
3.691241e+003;2.620117e-002
3.693169e+003;2.745068e-002
3.695098e+003;2.752400e-002
3.697026e+003;2.698799e-002
3.698955e+003;2.636546e-002
3.700884e+003;2.549170e-002
3.702812e+003;2.601099e-002
3.704741e+003;2.693511e-002
3.706669e+003;2.650536e-002
3.708598e+003;2.479237e-002
3.710526e+003;2.306301e-002
3.712455e+003;2.325198e-002
3.714383e+003;2.525968e-002
3.716312e+003;2.606517e-002
3.718240e+003;2.609623e-002
3.720169e+003;2.618653e-002
3.722098e+003;2.561361e-002
3.724026e+003;2.489225e-002
3.725955e+003;2.453309e-002
3.727883e+003;2.453776e-002
3.729812e+003;2.392688e-002
3.731740e+003;2.230841e-002
3.733669e+003;2.168586e-002
3.735597e+003;2.112941e-002
3.737526e+003;2.214158e-002
3.739455e+003;2.376373e-002
3.741383e+003;2.282844e-002
3.743312e+003;1.836637e-002
3.745240e+003;1.957140e-002
3.747169e+003;2.193201e-002
3.749097e+003;1.964517e-002
3.751026e+003;1.900101e-002
3.752954e+003;2.152264e-002
3.754883e+003;2.455073e-002
3.756812e+003;2.511112e-002
3.758740e+003;2.483759e-002
3.760668e+003;2.459358e-002
3.762597e+003;2.524897e-002
3.764526e+003;2.511772e-002
3.766454e+003;2.490847e-002
3.768383e+003;2.454309e-002
3.770311e+003;2.505050e-002
3.772240e+003;2.580548e-002
3.774168e+003;2.607952e-002
3.776097e+003;2.562957e-002
3.778025e+003;2.514244e-002
3.779954e+003;2.561104e-002
3.781883e+003;2.587859e-002
3.783811e+003;2.559667e-002
3.785740e+003;2.549729e-002
3.787668e+003;2.558212e-002
3.789597e+003;2.622940e-002
3.791525e+003;2.572950e-002
3.793454e+003;2.527373e-002
3.795382e+003;2.528381e-002
3.797311e+003;2.554234e-002
3.799240e+003;2.308150e-002
3.801168e+003;2.077700e-002
3.803097e+003;2.350986e-002
3.805025e+003;2.431129e-002
3.806954e+003;2.390157e-002
3.808882e+003;2.571516e-002
3.810811e+003;2.649314e-002
3.812739e+003;2.610514e-002
3.814668e+003;2.346250e-002
3.816596e+003;2.307629e-002
3.818525e+003;2.365059e-002
3.820454e+003;2.140605e-002
3.822382e+003;2.267076e-002
3.824311e+003;2.516842e-002
3.826239e+003;2.537281e-002
3.828168e+003;2.549641e-002
3.830096e+003;2.493471e-002
3.832025e+003;2.408779e-002
3.833953e+003;2.345009e-002
3.835882e+003;2.162919e-002
3.837811e+003;2.051664e-002
3.839739e+003;2.240086e-002
3.841667e+003;2.383600e-002
3.843596e+003;2.491692e-002
3.845525e+003;2.628987e-002
3.847453e+003;2.628533e-002
3.849382e+003;2.399225e-002
3.851310e+003;1.917561e-002
3.853239e+003;1.663317e-002
3.855167e+003;2.203242e-002
3.857096e+003;2.670781e-002
3.859024e+003;2.669079e-002
3.860953e+003;2.505587e-002
3.862882e+003;2.374721e-002
3.864810e+003;2.388547e-002
3.866739e+003;2.474775e-002
3.868667e+003;2.342403e-002
3.870596e+003;2.382218e-002
3.872524e+003;2.557913e-002
3.874453e+003;2.641929e-002
3.876381e+003;2.703390e-002
3.878310e+003;2.601939e-002
3.880239e+003;2.509160e-002
3.882167e+003;2.565406e-002
3.884096e+003;2.502782e-002
3.886024e+003;2.515315e-002
3.887953e+003;2.624939e-002
3.889881e+003;2.509806e-002
3.891810e+003;2.503562e-002
3.893738e+003;2.654731e-002
3.895667e+003;2.759447e-002
3.897595e+003;2.693817e-002
3.899524e+003;2.554582e-002
3.901453e+003;2.477276e-002
3.903381e+003;2.423939e-002
3.905310e+003;2.586505e-002
3.907238e+003;2.801494e-002
3.909167e+003;2.800504e-002
3.911095e+003;2.776956e-002
3.913024e+003;2.751253e-002
3.914952e+003;2.726740e-002
3.916881e+003;2.749555e-002
3.918810e+003;2.728698e-002
3.920738e+003;2.701116e-002
3.922667e+003;2.708355e-002
3.924595e+003;2.742961e-002
3.926524e+003;2.768758e-002
3.928452e+003;2.760248e-002
3.930381e+003;2.746212e-002
3.932309e+003;2.740240e-002
3.934238e+003;2.822142e-002
3.936167e+003;2.852791e-002
3.938095e+003;2.848609e-002
3.940023e+003;2.871457e-002
3.941952e+003;2.867096e-002
3.943881e+003;2.883593e-002
3.945809e+003;2.852788e-002
3.947738e+003;2.790479e-002
3.949666e+003;2.773632e-002
3.951595e+003;2.807814e-002
3.953523e+003;2.909187e-002
3.955452e+003;2.981587e-002
3.957380e+003;3.006998e-002
3.959309e+003;3.027147e-002
3.961238e+003;3.009710e-002
3.963166e+003;3.005765e-002
3.965095e+003;2.966674e-002
3.967023e+003;2.888416e-002
3.968952e+003;2.879337e-002
3.970880e+003;2.888791e-002
3.972809e+003;2.869588e-002
3.974737e+003;2.858379e-002
3.976666e+003;2.874335e-002
3.978594e+003;2.896108e-002
3.980523e+003;2.888540e-002
3.982452e+003;2.841845e-002
3.984380e+003;2.915997e-002
3.986309e+003;3.004505e-002
3.988237e+003;3.028777e-002
3.990166e+003;3.030202e-002
3.992094e+003;3.008855e-002
3.994023e+003;3.018636e-002
3.995951e+003;3.013759e-002
3.997880e+003;2.919275e-002
3.999809e+003;2.865821e-002
4.001737e+003;0.000000e+000
