3.992094e+002;0.000000e+000
4.011380e+002;0.000000e+000
4.030665e+002;0.000000e+000
4.049951e+002;0.000000e+000
4.069236e+002;0.000000e+000
4.088522e+002;0.000000e+000
4.107807e+002;0.000000e+000
4.127093e+002;0.000000e+000
4.146378e+002;0.000000e+000
4.165664e+002;0.000000e+000
4.184949e+002;0.000000e+000
4.204235e+002;0.000000e+000
4.223520e+002;0.000000e+000
4.242806e+002;0.000000e+000
4.262091e+002;0.000000e+000
4.281377e+002;0.000000e+000
4.300662e+002;0.000000e+000
4.319948e+002;0.000000e+000
4.339233e+002;0.000000e+000
4.358519e+002;0.000000e+000
4.377804e+002;0.000000e+000
4.397090e+002;0.000000e+000
4.416375e+002;0.000000e+000
4.435660e+002;0.000000e+000
4.454946e+002;0.000000e+000
4.474232e+002;0.000000e+000
4.493517e+002;0.000000e+000
4.512802e+002;0.000000e+000
4.532088e+002;0.000000e+000
4.551373e+002;0.000000e+000
4.570659e+002;0.000000e+000
4.589944e+002;0.000000e+000
4.609230e+002;0.000000e+000
4.628515e+002;0.000000e+000
4.647801e+002;0.000000e+000
4.667086e+002;0.000000e+000
4.686372e+002;0.000000e+000
4.705657e+002;0.000000e+000
4.724943e+002;0.000000e+000
4.744228e+002;0.000000e+000
4.763513e+002;0.000000e+000
4.782799e+002;0.000000e+000
4.802085e+002;0.000000e+000
4.821370e+002;0.000000e+000
4.840656e+002;0.000000e+000
4.859941e+002;0.000000e+000
4.879226e+002;0.000000e+000
4.898512e+002;0.000000e+000
4.917798e+002;0.000000e+000
4.937083e+002;0.000000e+000
4.956368e+002;0.000000e+000
4.975654e+002;0.000000e+000
4.994939e+002;0.000000e+000
5.014225e+002;0.000000e+000
5.033510e+002;0.000000e+000
5.052796e+002;0.000000e+000
5.072081e+002;0.000000e+000
5.091367e+002;0.000000e+000
5.110652e+002;0.000000e+000
5.129938e+002;0.000000e+000
5.149223e+002;0.000000e+000
5.168509e+002;0.000000e+000
5.187794e+002;0.000000e+000
5.207079e+002;0.000000e+000
5.226365e+002;0.000000e+000
5.245651e+002;0.000000e+000
5.264936e+002;0.000000e+000
5.284222e+002;0.000000e+000
5.303507e+002;0.000000e+000
5.322792e+002;0.000000e+000
5.342078e+002;0.000000e+000
5.361364e+002;0.000000e+000
5.380649e+002;0.000000e+000
5.399935e+002;0.000000e+000
5.419220e+002;0.000000e+000
5.438505e+002;0.000000e+000
5.457791e+002;0.000000e+000
5.477076e+002;0.000000e+000
5.496362e+002;0.000000e+000
5.515648e+002;0.000000e+000
5.534933e+002;0.000000e+000
5.554218e+002;0.000000e+000
5.573504e+002;0.000000e+000
5.592789e+002;0.000000e+000
5.612075e+002;0.000000e+000
5.631360e+002;0.000000e+000
5.650646e+002;0.000000e+000
5.669931e+002;0.000000e+000
5.689217e+002;0.000000e+000
5.708502e+002;0.000000e+000
5.727787e+002;0.000000e+000
5.747073e+002;0.000000e+000
5.766359e+002;0.000000e+000
5.785644e+002;0.000000e+000
5.804930e+002;0.000000e+000
5.824215e+002;0.000000e+000
5.843500e+002;0.000000e+000
5.862786e+002;0.000000e+000
5.882072e+002;0.000000e+000
5.901357e+002;0.000000e+000
5.920643e+002;0.000000e+000
5.939928e+002;0.000000e+000
5.959213e+002;0.000000e+000
5.978499e+002;0.000000e+000
5.997784e+002;2.577440e-001
6.017070e+002;2.513097e-001
6.036355e+002;2.486183e-001
6.055641e+002;2.509118e-001
6.074926e+002;2.576368e-001
6.094211e+002;2.587346e-001
6.113497e+002;2.572902e-001
6.132783e+002;2.566550e-001
6.152068e+002;2.564192e-001
6.171354e+002;2.538728e-001
6.190639e+002;2.531106e-001
6.209924e+002;2.526886e-001
6.229210e+002;2.482091e-001
6.248495e+002;2.427930e-001
6.267781e+002;2.356487e-001
6.287067e+002;2.328527e-001
6.306352e+002;2.346265e-001
6.325637e+002;2.341249e-001
6.344923e+002;2.312700e-001
6.364208e+002;2.309557e-001
6.383494e+002;2.291072e-001
6.402780e+002;2.254655e-001
6.422065e+002;2.232320e-001
6.441350e+002;2.211606e-001
6.460636e+002;2.161373e-001
6.479921e+002;2.130682e-001
6.499207e+002;2.159797e-001
6.518492e+002;2.189149e-001
6.537778e+002;2.209220e-001
6.557063e+002;2.273510e-001
6.576349e+002;2.325590e-001
6.595634e+002;2.390009e-001
6.614919e+002;2.422628e-001
6.634205e+002;2.424642e-001
6.653491e+002;2.401690e-001
6.672776e+002;2.346431e-001
6.692062e+002;2.299619e-001
6.711347e+002;2.261267e-001
6.730632e+002;2.227066e-001
6.749918e+002;2.170590e-001
6.769203e+002;2.100746e-001
6.788489e+002;2.055225e-001
6.807775e+002;2.003198e-001
6.827060e+002;1.976123e-001
6.846345e+002;1.963548e-001
6.865631e+002;1.948680e-001
6.884916e+002;1.951204e-001
6.904202e+002;1.950642e-001
6.923488e+002;1.947484e-001
6.942773e+002;1.963778e-001
6.962058e+002;1.976944e-001
6.981344e+002;1.982050e-001
7.000629e+002;1.979169e-001
7.019915e+002;1.962711e-001
7.039200e+002;1.944496e-001
7.058486e+002;1.933164e-001
7.077771e+002;1.902115e-001
7.097057e+002;1.861184e-001
7.116342e+002;1.834103e-001
7.135627e+002;1.810964e-001
7.154913e+002;1.779540e-001
7.174199e+002;1.743515e-001
7.193484e+002;1.702094e-001
7.212770e+002;1.655352e-001
7.232055e+002;1.618247e-001
7.251340e+002;1.581623e-001
7.270626e+002;1.540109e-001
7.289911e+002;1.511922e-001
7.309197e+002;1.493787e-001
7.328483e+002;1.467145e-001
7.347768e+002;1.433612e-001
7.367053e+002;1.410311e-001
7.386339e+002;1.386444e-001
7.405624e+002;1.367654e-001
7.424910e+002;1.350049e-001
7.444196e+002;1.334140e-001
7.463481e+002;1.322944e-001
7.482766e+002;1.310902e-001
7.502052e+002;1.301381e-001
7.521337e+002;1.291230e-001
7.540623e+002;1.278531e-001
7.559908e+002;1.268074e-001
7.579194e+002;1.256764e-001
7.598479e+002;1.239670e-001
7.617765e+002;1.220234e-001
7.637050e+002;1.209612e-001
7.656335e+002;1.201907e-001
7.675621e+002;1.198149e-001
7.694907e+002;1.187593e-001
7.714192e+002;1.175657e-001
7.733478e+002;1.168513e-001
7.752763e+002;1.159718e-001
7.772048e+002;1.159171e-001
7.791334e+002;1.163084e-001
7.810620e+002;1.166107e-001
7.829905e+002;1.169150e-001
7.849191e+002;1.180605e-001
7.868476e+002;1.201790e-001
7.887761e+002;1.222925e-001
7.907047e+002;1.239519e-001
7.926332e+002;1.254383e-001
7.945618e+002;1.271231e-001
7.964903e+002;1.285001e-001
7.984189e+002;1.292010e-001
8.003474e+002;1.296038e-001
8.022759e+002;1.296508e-001
8.042045e+002;1.295732e-001
8.061331e+002;1.292665e-001
8.080616e+002;1.287071e-001
8.099902e+002;1.279924e-001
8.119187e+002;1.267045e-001
8.138472e+002;1.257639e-001
8.157758e+002;1.255075e-001
8.177043e+002;1.246501e-001
8.196329e+002;1.237964e-001
8.215615e+002;1.227155e-001
8.234900e+002;1.210523e-001
8.254185e+002;1.193530e-001
8.273471e+002;1.167344e-001
8.292756e+002;1.134767e-001
8.312042e+002;1.104061e-001
8.331328e+002;1.083261e-001
8.350613e+002;1.072626e-001
8.369898e+002;1.065565e-001
8.389184e+002;1.061722e-001
8.408469e+002;1.059335e-001
8.427755e+002;1.055439e-001
8.447040e+002;1.049580e-001
8.466326e+002;1.047420e-001
8.485611e+002;1.048775e-001
8.504897e+002;1.047826e-001
8.524182e+002;1.050758e-001
8.543467e+002;1.057783e-001
8.562753e+002;1.065709e-001
8.582039e+002;1.074772e-001
8.601324e+002;1.082747e-001
8.620610e+002;1.090964e-001
8.639895e+002;1.096586e-001
8.659180e+002;1.101079e-001
8.678466e+002;1.109168e-001
8.697751e+002;1.125650e-001
8.717037e+002;1.149234e-001
8.736323e+002;1.173633e-001
8.755608e+002;1.194658e-001
8.774893e+002;1.220523e-001
8.794179e+002;1.245672e-001
8.813464e+002;1.271646e-001
8.832750e+002;1.304118e-001
8.852036e+002;1.339040e-001
8.871321e+002;1.372710e-001
8.890606e+002;1.411802e-001
8.909892e+002;1.452806e-001
8.929177e+002;1.480825e-001
8.948463e+002;1.496862e-001
8.967748e+002;1.507391e-001
8.987034e+002;1.516058e-001
9.006319e+002;1.513354e-001
9.025605e+002;1.498701e-001
9.044890e+002;1.477669e-001
9.064175e+002;1.455564e-001
9.083461e+002;1.433185e-001
9.102747e+002;1.410952e-001
9.122032e+002;1.388786e-001
9.141318e+002;1.368326e-001
9.160603e+002;1.350077e-001
9.179888e+002;1.341807e-001
9.199174e+002;1.338459e-001
9.218459e+002;1.338212e-001
9.237745e+002;1.345115e-001
9.257031e+002;1.358383e-001
9.276316e+002;1.376255e-001
9.295601e+002;1.394498e-001
9.314887e+002;1.411179e-001
9.334172e+002;1.429067e-001
9.353458e+002;1.449114e-001
9.372744e+002;1.466682e-001
9.392029e+002;1.481894e-001
9.411314e+002;1.500527e-001
9.430600e+002;1.524974e-001
9.449885e+002;1.554102e-001
9.469171e+002;1.583825e-001
9.488456e+002;1.622096e-001
9.507742e+002;1.669624e-001
9.527027e+002;1.721875e-001
9.546313e+002;1.776264e-001
9.565598e+002;1.837361e-001
9.584883e+002;1.903161e-001
9.604169e+002;1.970737e-001
9.623455e+002;2.043634e-001
9.642740e+002;2.115449e-001
9.662026e+002;2.189922e-001
9.681311e+002;2.274785e-001
9.700596e+002;2.375568e-001
9.719882e+002;2.492473e-001
9.739167e+002;2.624232e-001
9.758453e+002;2.774732e-001
9.777739e+002;2.941129e-001
9.797024e+002;3.119377e-001
9.816309e+002;3.272981e-001
9.835595e+002;3.374299e-001
9.854880e+002;3.417714e-001
9.874166e+002;3.420705e-001
9.893452e+002;3.428257e-001
9.912737e+002;3.459484e-001
9.932022e+002;3.513564e-001
9.951307e+002;3.587196e-001
9.970593e+002;3.664764e-001
9.989879e+002;3.734861e-001
1.000916e+003;3.779497e-001
1.002845e+003;3.799438e-001
1.004773e+003;3.809941e-001
1.006702e+003;3.822183e-001
1.008631e+003;3.840279e-001
1.010559e+003;3.864065e-001
1.012488e+003;3.896446e-001
1.014416e+003;3.943033e-001
1.016345e+003;3.990767e-001
1.018273e+003;4.029579e-001
1.020202e+003;4.066354e-001
1.022130e+003;4.110768e-001
1.024059e+003;4.153960e-001
1.025988e+003;4.193723e-001
1.027916e+003;4.230090e-001
1.029845e+003;4.261247e-001
1.031773e+003;4.260289e-001
1.033702e+003;4.216507e-001
1.035630e+003;4.150481e-001
1.037559e+003;4.070574e-001
1.039487e+003;3.979304e-001
1.041416e+003;3.908294e-001
1.043344e+003;3.880517e-001
1.045273e+003;3.892384e-001
1.047202e+003;3.922432e-001
1.049130e+003;3.959687e-001
1.051059e+003;4.008661e-001
1.052987e+003;4.041800e-001
1.054916e+003;4.035947e-001
1.056844e+003;3.999267e-001
1.058773e+003;3.919542e-001
1.060701e+003;3.786079e-001
1.062630e+003;3.610906e-001
1.064558e+003;3.420337e-001
1.066487e+003;3.246937e-001
1.068416e+003;3.105027e-001
1.070344e+003;2.990442e-001
1.072273e+003;2.907457e-001
1.074201e+003;2.840342e-001
1.076130e+003;2.781625e-001
1.078058e+003;2.728926e-001
1.079987e+003;2.679115e-001
1.081915e+003;2.644524e-001
1.083844e+003;2.628471e-001
1.085773e+003;2.622592e-001
1.087701e+003;2.616877e-001
1.089630e+003;2.614942e-001
1.091558e+003;2.633921e-001
1.093487e+003;2.666160e-001
1.095415e+003;2.685280e-001
1.097344e+003;2.703900e-001
1.099272e+003;2.735890e-001
1.101201e+003;2.754788e-001
1.103129e+003;2.750503e-001
1.105058e+003;2.732348e-001
1.106987e+003;2.703183e-001
1.108915e+003;2.666793e-001
1.110844e+003;2.624072e-001
1.112772e+003;2.560640e-001
1.114701e+003;2.464615e-001
1.116629e+003;2.342789e-001
1.118558e+003;2.217143e-001
1.120486e+003;2.111657e-001
1.122415e+003;2.028328e-001
1.124344e+003;1.948327e-001
1.126272e+003;1.863037e-001
1.128201e+003;1.780243e-001
1.130129e+003;1.707294e-001
1.132058e+003;1.646727e-001
1.133986e+003;1.603968e-001
1.135915e+003;1.574119e-001
1.137843e+003;1.552751e-001
1.139772e+003;1.549679e-001
1.141700e+003;1.564662e-001
1.143629e+003;1.596005e-001
1.145557e+003;1.632018e-001
1.147486e+003;1.667090e-001
1.149415e+003;1.699639e-001
1.151343e+003;1.733830e-001
1.153272e+003;1.768838e-001
1.155200e+003;1.802342e-001
1.157129e+003;1.835531e-001
1.159057e+003;1.858535e-001
1.160986e+003;1.861747e-001
1.162914e+003;1.839972e-001
1.164843e+003;1.788549e-001
1.166771e+003;1.713312e-001
1.168700e+003;1.627988e-001
1.170629e+003;1.535422e-001
1.172557e+003;1.446462e-001
1.174486e+003;1.375573e-001
1.176414e+003;1.320688e-001
1.178343e+003;1.273160e-001
1.180271e+003;1.234489e-001
1.182200e+003;1.206207e-001
1.184128e+003;1.185680e-001
1.186057e+003;1.173060e-001
1.187986e+003;1.173799e-001
1.189914e+003;1.181001e-001
1.191843e+003;1.189803e-001
1.193771e+003;1.207173e-001
1.195700e+003;1.230612e-001
1.197628e+003;1.252891e-001
1.199557e+003;1.268541e-001
1.201485e+003;1.278775e-001
1.203414e+003;1.286630e-001
1.205343e+003;1.282653e-001
1.207271e+003;1.260985e-001
1.209200e+003;1.220716e-001
1.211128e+003;1.170614e-001
1.213057e+003;1.134104e-001
1.214985e+003;1.118872e-001
1.216914e+003;1.116888e-001
1.218842e+003;1.126140e-001
1.220771e+003;1.143501e-001
1.222699e+003;1.164700e-001
1.224628e+003;1.185319e-001
1.226557e+003;1.206611e-001
1.228485e+003;1.229668e-001
1.230414e+003;1.250541e-001
1.232342e+003;1.271888e-001
1.234271e+003;1.290412e-001
1.236199e+003;1.297480e-001
1.238128e+003;1.299112e-001
1.240056e+003;1.303290e-001
1.241985e+003;1.311942e-001
1.243913e+003;1.329931e-001
1.245842e+003;1.350991e-001
1.247771e+003;1.367219e-001
1.249699e+003;1.377835e-001
1.251628e+003;1.389048e-001
1.253556e+003;1.403996e-001
1.255485e+003;1.423602e-001
1.257413e+003;1.450758e-001
1.259342e+003;1.472735e-001
1.261270e+003;1.481037e-001
1.263199e+003;1.473837e-001
1.265127e+003;1.451076e-001
1.267056e+003;1.418625e-001
1.268985e+003;1.386722e-001
1.270913e+003;1.366771e-001
1.272842e+003;1.359877e-001
1.274770e+003;1.359075e-001
1.276699e+003;1.357325e-001
1.278627e+003;1.353377e-001
1.280556e+003;1.346219e-001
1.282484e+003;1.330416e-001
1.284413e+003;1.313235e-001
1.286342e+003;1.301544e-001
1.288270e+003;1.295504e-001
1.290199e+003;1.296152e-001
1.292127e+003;1.300360e-001
1.294056e+003;1.306560e-001
1.295984e+003;1.315605e-001
1.297913e+003;1.330263e-001
1.299841e+003;1.354459e-001
1.301770e+003;1.387638e-001
1.303698e+003;1.428945e-001
1.305627e+003;1.474684e-001
1.307556e+003;1.521455e-001
1.309484e+003;1.570175e-001
1.311413e+003;1.614562e-001
1.313341e+003;1.644801e-001
1.315270e+003;1.651497e-001
1.317198e+003;1.633327e-001
1.319127e+003;1.598624e-001
1.321055e+003;1.552280e-001
1.322984e+003;1.507873e-001
1.324912e+003;1.478357e-001
1.326841e+003;1.462690e-001
1.328770e+003;1.459284e-001
1.330698e+003;1.469925e-001
1.332627e+003;1.488628e-001
1.334555e+003;1.503785e-001
1.336484e+003;1.502386e-001
1.338412e+003;1.483325e-001
1.340341e+003;1.457681e-001
1.342269e+003;1.427360e-001
1.344198e+003;1.391553e-001
1.346126e+003;1.359525e-001
1.348055e+003;1.335436e-001
1.349984e+003;1.322834e-001
1.351912e+003;1.324326e-001
1.353841e+003;1.334222e-001
1.355769e+003;1.347634e-001
1.357698e+003;1.360569e-001
1.359626e+003;1.370552e-001
1.361555e+003;1.371011e-001
1.363483e+003;1.359206e-001
1.365412e+003;1.349154e-001
1.367341e+003;1.346924e-001
1.369269e+003;1.344088e-001
1.371198e+003;1.333789e-001
1.373126e+003;1.311419e-001
1.375055e+003;1.277736e-001
1.376983e+003;1.243534e-001
1.378912e+003;1.211157e-001
1.380840e+003;1.180484e-001
1.382769e+003;1.150960e-001
1.384698e+003;1.121073e-001
1.386626e+003;1.093966e-001
1.388555e+003;1.078301e-001
1.390483e+003;1.070521e-001
1.392412e+003;1.067037e-001
1.394340e+003;1.066223e-001
1.396269e+003;1.066166e-001
1.398197e+003;1.066396e-001
1.400126e+003;1.069332e-001
1.402054e+003;1.072017e-001
1.403983e+003;1.072128e-001
1.405911e+003;1.072646e-001
1.407840e+003;1.075711e-001
1.409769e+003;1.075352e-001
1.411697e+003;1.077733e-001
1.413626e+003;1.088092e-001
1.415554e+003;1.097415e-001
1.417483e+003;1.105768e-001
1.419411e+003;1.121257e-001
1.421340e+003;1.148027e-001
1.423268e+003;1.171799e-001
1.425197e+003;1.186822e-001
1.427125e+003;1.195844e-001
1.429054e+003;1.198213e-001
1.430983e+003;1.194814e-001
1.432911e+003;1.184008e-001
1.434840e+003;1.163341e-001
1.436768e+003;1.144489e-001
1.438697e+003;1.140647e-001
1.440625e+003;1.137054e-001
1.442554e+003;1.132789e-001
1.444482e+003;1.128674e-001
1.446411e+003;1.125785e-001
1.448340e+003;1.125338e-001
1.450268e+003;1.125045e-001
1.452197e+003;1.120481e-001
1.454125e+003;1.108322e-001
1.456054e+003;1.081154e-001
1.457982e+003;1.062807e-001
1.459911e+003;1.057261e-001
1.461839e+003;1.040483e-001
1.463768e+003;1.008343e-001
1.465697e+003;9.766219e-002
1.467625e+003;9.519400e-002
1.469554e+003;9.273148e-002
1.471482e+003;9.058210e-002
1.473411e+003;8.870256e-002
1.475339e+003;8.616041e-002
1.477268e+003;8.350223e-002
1.479196e+003;8.165795e-002
1.481125e+003;8.001028e-002
1.483053e+003;7.755346e-002
1.484982e+003;7.410733e-002
1.486911e+003;7.074389e-002
1.488839e+003;6.796534e-002
1.490768e+003;6.606828e-002
1.492696e+003;6.486069e-002
1.494625e+003;6.352644e-002
1.496553e+003;6.211978e-002
1.498482e+003;6.124625e-002
1.500410e+003;6.046620e-002
1.502339e+003;5.983576e-002
1.504267e+003;5.822516e-002
1.506196e+003;5.639906e-002
1.508125e+003;5.661194e-002
1.510053e+003;5.726456e-002
1.511982e+003;5.707025e-002
1.513910e+003;5.664897e-002
1.515839e+003;5.605839e-002
1.517767e+003;5.563693e-002
1.519696e+003;5.480395e-002
1.521624e+003;5.405542e-002
1.523553e+003;5.455498e-002
1.525481e+003;5.491899e-002
1.527410e+003;5.524391e-002
1.529339e+003;5.567776e-002
1.531267e+003;5.562062e-002
1.533196e+003;5.531736e-002
1.535124e+003;5.592337e-002
1.537053e+003;5.582841e-002
1.538981e+003;5.463355e-002
1.540910e+003;5.512622e-002
1.542838e+003;5.661953e-002
1.544767e+003;5.735235e-002
1.546695e+003;5.761661e-002
1.548624e+003;5.761741e-002
1.550553e+003;5.780946e-002
1.552481e+003;5.775965e-002
1.554410e+003;5.751463e-002
1.556338e+003;5.689518e-002
1.558267e+003;5.545137e-002
1.560195e+003;5.599570e-002
1.562124e+003;5.759588e-002
1.564052e+003;5.797585e-002
1.565981e+003;5.790706e-002
1.567910e+003;5.762036e-002
1.569838e+003;5.739492e-002
1.571767e+003;5.770485e-002
1.573695e+003;5.762475e-002
1.575624e+003;5.694436e-002
1.577552e+003;5.726301e-002
1.579481e+003;5.795874e-002
1.581409e+003;5.833399e-002
1.583338e+003;5.889178e-002
1.585266e+003;5.900092e-002
1.587195e+003;5.896616e-002
1.589124e+003;5.880011e-002
1.591052e+003;5.900753e-002
1.592981e+003;5.930612e-002
1.594909e+003;5.945929e-002
1.596838e+003;5.991517e-002
1.598766e+003;6.034751e-002
1.600695e+003;6.070139e-002
1.602623e+003;6.118505e-002
1.604552e+003;6.127994e-002
1.606480e+003;6.130256e-002
1.608409e+003;6.170367e-002
1.610338e+003;6.194496e-002
1.612266e+003;6.188993e-002
1.614195e+003;6.165990e-002
1.616123e+003;6.122733e-002
1.618052e+003;6.225096e-002
1.619980e+003;6.345162e-002
1.621909e+003;6.350082e-002
1.623837e+003;6.373064e-002
1.625766e+003;6.434874e-002
1.627694e+003;6.471844e-002
1.629623e+003;6.520887e-002
1.631552e+003;6.552409e-002
1.633480e+003;6.522258e-002
1.635409e+003;6.476048e-002
1.637337e+003;6.544731e-002
1.639266e+003;6.605401e-002
1.641194e+003;6.618144e-002
1.643123e+003;6.586672e-002
1.645051e+003;6.501418e-002
1.646980e+003;6.499655e-002
1.648909e+003;6.590516e-002
1.650837e+003;6.504839e-002
1.652766e+003;6.328247e-002
1.654694e+003;6.451847e-002
1.656623e+003;6.601555e-002
1.658551e+003;6.614012e-002
1.660480e+003;6.569231e-002
1.662408e+003;6.513226e-002
1.664337e+003;6.504370e-002
1.666266e+003;6.473660e-002
1.668194e+003;6.367558e-002
1.670123e+003;6.272273e-002
1.672051e+003;6.212865e-002
1.673980e+003;6.093793e-002
1.675908e+003;5.997181e-002
1.677837e+003;5.975606e-002
1.679765e+003;5.896585e-002
1.681694e+003;5.744836e-002
1.683622e+003;5.523375e-002
1.685551e+003;5.495280e-002
1.687479e+003;5.567990e-002
1.689408e+003;5.516000e-002
1.691337e+003;5.441923e-002
1.693265e+003;5.353787e-002
1.695194e+003;5.210557e-002
1.697122e+003;5.167050e-002
1.699051e+003;5.109324e-002
1.700979e+003;5.096311e-002
1.702908e+003;5.208301e-002
1.704836e+003;5.248021e-002
1.706765e+003;5.314480e-002
1.708693e+003;5.421140e-002
1.710622e+003;5.548566e-002
1.712551e+003;5.704659e-002
1.714479e+003;5.909073e-002
1.716408e+003;6.173453e-002
1.718336e+003;6.649088e-002
1.720265e+003;7.275201e-002
1.722193e+003;7.860024e-002
1.724122e+003;8.419371e-002
1.726050e+003;8.949695e-002
1.727979e+003;9.357297e-002
1.729908e+003;9.643587e-002
1.731836e+003;9.738939e-002
1.733765e+003;9.627331e-002
1.735693e+003;9.473022e-002
1.737622e+003;9.134939e-002
1.739550e+003;8.533967e-002
1.741479e+003;7.810128e-002
1.743407e+003;7.021909e-002
1.745336e+003;6.256400e-002
1.747265e+003;5.566487e-002
1.749193e+003;4.989083e-002
1.751122e+003;4.543716e-002
1.753050e+003;4.254867e-002
1.754979e+003;4.038733e-002
1.756907e+003;3.863377e-002
1.758836e+003;3.752663e-002
1.760764e+003;3.671812e-002
1.762693e+003;3.614296e-002
1.764621e+003;3.592173e-002
1.766550e+003;3.516834e-002
1.768479e+003;3.423741e-002
1.770407e+003;3.344760e-002
1.772336e+003;3.294190e-002
1.774264e+003;3.320840e-002
1.776193e+003;3.347974e-002
1.778121e+003;3.319030e-002
1.780050e+003;3.281771e-002
1.781978e+003;3.265665e-002
1.783907e+003;3.232506e-002
1.785835e+003;3.219241e-002
1.787764e+003;3.211405e-002
1.789693e+003;3.171761e-002
1.791621e+003;3.110816e-002
1.793550e+003;3.087551e-002
1.795478e+003;3.099908e-002
1.797407e+003;3.093407e-002
1.799335e+003;3.067893e-002
1.801264e+003;3.049704e-002
1.803192e+003;3.066837e-002
1.805121e+003;3.056064e-002
1.807049e+003;3.024475e-002
1.808978e+003;3.020376e-002
1.810907e+003;3.009387e-002
1.812835e+003;2.978269e-002
1.814764e+003;2.972514e-002
1.816692e+003;2.984451e-002
1.818621e+003;2.972751e-002
1.820549e+003;2.944351e-002
1.822478e+003;2.939107e-002
1.824406e+003;2.904075e-002
1.826335e+003;2.877319e-002
1.828264e+003;2.855781e-002
1.830192e+003;2.837791e-002
1.832121e+003;2.854698e-002
1.834049e+003;2.855622e-002
1.835978e+003;2.834877e-002
1.837906e+003;2.809712e-002
1.839835e+003;2.807796e-002
1.841763e+003;2.787087e-002
1.843692e+003;2.738070e-002
1.845620e+003;2.753025e-002
1.847549e+003;2.770457e-002
1.849478e+003;2.754716e-002
1.851406e+003;2.745545e-002
1.853335e+003;2.744730e-002
1.855263e+003;2.745104e-002
1.857192e+003;2.743043e-002
1.859120e+003;2.740103e-002
1.861049e+003;2.716386e-002
1.862977e+003;2.687941e-002
1.864906e+003;2.680810e-002
1.866834e+003;2.665634e-002
1.868763e+003;2.666342e-002
1.870692e+003;2.682745e-002
1.872620e+003;2.683637e-002
1.874549e+003;2.674893e-002
1.876477e+003;2.668096e-002
1.878406e+003;2.668029e-002
1.880334e+003;2.661064e-002
1.882263e+003;2.676701e-002
1.884191e+003;2.688279e-002
1.886120e+003;2.661575e-002
1.888048e+003;2.624615e-002
1.889977e+003;2.640415e-002
1.891906e+003;2.686196e-002
1.893834e+003;2.688808e-002
1.895763e+003;2.673942e-002
1.897691e+003;2.665119e-002
1.899620e+003;2.661526e-002
1.901548e+003;2.655312e-002
1.903477e+003;2.661744e-002
1.905405e+003;2.663234e-002
1.907334e+003;2.652554e-002
1.909262e+003;2.650437e-002
1.911191e+003;2.667237e-002
1.913120e+003;2.674555e-002
1.915048e+003;2.674104e-002
1.916977e+003;2.685850e-002
1.918905e+003;2.708105e-002
1.920834e+003;2.701933e-002
1.922762e+003;2.676504e-002
1.924691e+003;2.690257e-002
1.926619e+003;2.698954e-002
1.928548e+003;2.720809e-002
1.930477e+003;2.753360e-002
1.932405e+003;2.745411e-002
1.934334e+003;2.739954e-002
1.936262e+003;2.744843e-002
1.938191e+003;2.757706e-002
1.940119e+003;2.767982e-002
1.942048e+003;2.782537e-002
1.943976e+003;2.818118e-002
1.945905e+003;2.836755e-002
1.947833e+003;2.837579e-002
1.949762e+003;2.845429e-002
1.951691e+003;2.850251e-002
1.953619e+003;2.869980e-002
1.955548e+003;2.893204e-002
1.957476e+003;2.892184e-002
1.959405e+003;2.891603e-002
1.961333e+003;2.901790e-002
1.963262e+003;2.922291e-002
1.965190e+003;2.927731e-002
1.967119e+003;2.915345e-002
1.969047e+003;2.920870e-002
1.970976e+003;2.937199e-002
1.972905e+003;2.934310e-002
1.974833e+003;2.941007e-002
1.976762e+003;2.964694e-002
1.978690e+003;2.955465e-002
1.980619e+003;2.941220e-002
1.982547e+003;2.965145e-002
1.984476e+003;2.996697e-002
1.986404e+003;3.001409e-002
1.988333e+003;3.003741e-002
1.990261e+003;3.008301e-002
1.992190e+003;3.010069e-002
1.994119e+003;3.016345e-002
1.996047e+003;3.037564e-002
1.997976e+003;3.056497e-002
1.999904e+003;3.049943e-002
2.001833e+003;3.045535e-002
2.003761e+003;3.048258e-002
2.005690e+003;3.060280e-002
2.007618e+003;3.087725e-002
2.009547e+003;3.087106e-002
2.011476e+003;3.084997e-002
2.013404e+003;3.096068e-002
2.015333e+003;3.112514e-002
2.017261e+003;3.127417e-002
2.019190e+003;3.140961e-002
2.021118e+003;3.158364e-002
2.023047e+003;3.189901e-002
2.024975e+003;3.219237e-002
2.026904e+003;3.233299e-002
2.028833e+003;3.249211e-002
2.030761e+003;3.265357e-002
2.032690e+003;3.269612e-002
2.034618e+003;3.274871e-002
2.036547e+003;3.287285e-002
2.038475e+003;3.298330e-002
2.040404e+003;3.313097e-002
2.042332e+003;3.340888e-002
2.044261e+003;3.341103e-002
2.046189e+003;3.345519e-002
2.048118e+003;3.348017e-002
2.050047e+003;3.330931e-002
2.051975e+003;3.311284e-002
2.053904e+003;3.313844e-002
2.055832e+003;3.341589e-002
2.057761e+003;3.348647e-002
2.059689e+003;3.343064e-002
2.061618e+003;3.341911e-002
2.063546e+003;3.337052e-002
2.065475e+003;3.338165e-002
2.067404e+003;3.342624e-002
2.069332e+003;3.331549e-002
2.071260e+003;3.305613e-002
2.073189e+003;3.303950e-002
2.075118e+003;3.311427e-002
2.077046e+003;3.318476e-002
2.078975e+003;3.329317e-002
2.080903e+003;3.332612e-002
2.082832e+003;3.323186e-002
2.084760e+003;3.310601e-002
2.086689e+003;3.282521e-002
2.088617e+003;3.275325e-002
2.090546e+003;3.264697e-002
2.092475e+003;3.270962e-002
2.094403e+003;3.292468e-002
2.096332e+003;3.315714e-002
2.098260e+003;3.327807e-002
2.100189e+003;3.320657e-002
2.102117e+003;3.334984e-002
2.104046e+003;3.353822e-002
2.105974e+003;3.348833e-002
2.107903e+003;3.345526e-002
2.109832e+003;3.368475e-002
2.111760e+003;3.379555e-002
2.113688e+003;3.372697e-002
2.115617e+003;3.385522e-002
2.117546e+003;3.402562e-002
2.119474e+003;3.400412e-002
2.121403e+003;3.390602e-002
2.123331e+003;3.397961e-002
2.125260e+003;3.410901e-002
2.127188e+003;3.413267e-002
2.129117e+003;3.426699e-002
2.131045e+003;3.455080e-002
2.132974e+003;3.479807e-002
2.134903e+003;3.458040e-002
2.136831e+003;3.444684e-002
2.138760e+003;3.445036e-002
2.140688e+003;3.446463e-002
2.142617e+003;3.427915e-002
2.144545e+003;3.397857e-002
2.146474e+003;3.373360e-002
2.148402e+003;3.373023e-002
2.150331e+003;3.377510e-002
2.152260e+003;3.368142e-002
2.154188e+003;3.364490e-002
2.156117e+003;3.374813e-002
2.158045e+003;3.356238e-002
2.159974e+003;3.310486e-002
2.161902e+003;3.307808e-002
2.163831e+003;3.314996e-002
2.165759e+003;3.308487e-002
2.167688e+003;3.281156e-002
2.169616e+003;3.266457e-002
2.171545e+003;3.245015e-002
2.173474e+003;3.198724e-002
2.175402e+003;3.166340e-002
2.177331e+003;3.146493e-002
2.179259e+003;3.138151e-002
2.181188e+003;3.122076e-002
2.183116e+003;3.100452e-002
2.185045e+003;3.095531e-002
2.186973e+003;3.085377e-002
2.188902e+003;3.064486e-002
2.190831e+003;3.061130e-002
2.192759e+003;3.061329e-002
2.194688e+003;3.046452e-002
2.196616e+003;3.049658e-002
2.198545e+003;3.067167e-002
2.200473e+003;3.066954e-002
2.202402e+003;3.043378e-002
2.204330e+003;3.018334e-002
2.206259e+003;3.009874e-002
2.208188e+003;3.005776e-002
2.210116e+003;3.004760e-002
2.212044e+003;3.018977e-002
2.213973e+003;3.025868e-002
2.215902e+003;3.014604e-002
2.217830e+003;3.015340e-002
2.219759e+003;3.014175e-002
2.221687e+003;3.006213e-002
2.223616e+003;3.027616e-002
2.225544e+003;3.049374e-002
2.227473e+003;3.066065e-002
2.229401e+003;3.057500e-002
2.231330e+003;3.038055e-002
2.233259e+003;3.044334e-002
2.235187e+003;3.049409e-002
2.237116e+003;3.054510e-002
2.239044e+003;3.033524e-002
2.240973e+003;3.006273e-002
2.242901e+003;3.020859e-002
2.244830e+003;3.047881e-002
2.246758e+003;3.035429e-002
2.248687e+003;3.019332e-002
2.250615e+003;3.035109e-002
2.252544e+003;3.044469e-002
2.254473e+003;3.025882e-002
2.256401e+003;2.986631e-002
2.258330e+003;2.965617e-002
2.260258e+003;2.966706e-002
2.262187e+003;2.973709e-002
2.264115e+003;2.970325e-002
2.266044e+003;2.966688e-002
2.267972e+003;2.952376e-002
2.269901e+003;2.934115e-002
2.271830e+003;2.930645e-002
2.273758e+003;2.918683e-002
2.275687e+003;2.897773e-002
2.277615e+003;2.901825e-002
2.279544e+003;2.907295e-002
2.281472e+003;2.879872e-002
2.283401e+003;2.861482e-002
2.285329e+003;2.876597e-002
2.287258e+003;2.893724e-002
2.289187e+003;2.887102e-002
2.291115e+003;2.876558e-002
2.293043e+003;2.855757e-002
2.294972e+003;2.835945e-002
2.296901e+003;2.826071e-002
2.298829e+003;2.828242e-002
2.300758e+003;2.848899e-002
2.302686e+003;2.839121e-002
2.304615e+003;2.830555e-002
2.306543e+003;2.851125e-002
2.308472e+003;2.843249e-002
2.310400e+003;2.832790e-002
2.312329e+003;2.858078e-002
2.314258e+003;2.860831e-002
2.316186e+003;2.832263e-002
2.318115e+003;2.822690e-002
2.320043e+003;2.805696e-002
2.321972e+003;2.806135e-002
2.323900e+003;2.844144e-002
2.325829e+003;2.856751e-002
2.327757e+003;2.858442e-002
2.329686e+003;2.851503e-002
2.331615e+003;2.863252e-002
2.333543e+003;2.869839e-002
2.335472e+003;2.855859e-002
2.337400e+003;2.870741e-002
2.339329e+003;2.882293e-002
2.341257e+003;2.888671e-002
2.343186e+003;2.908283e-002
2.345114e+003;2.911369e-002
2.347043e+003;2.926406e-002
2.348971e+003;2.984086e-002
2.350900e+003;3.025250e-002
2.352829e+003;3.015180e-002
2.354757e+003;2.989981e-002
2.356686e+003;2.982996e-002
2.358614e+003;2.980395e-002
2.360543e+003;2.983401e-002
2.362471e+003;2.987362e-002
2.364400e+003;3.004221e-002
2.366328e+003;3.038815e-002
2.368257e+003;3.066278e-002
2.370186e+003;3.073668e-002
2.372114e+003;3.075101e-002
2.374042e+003;3.091436e-002
2.375971e+003;3.128161e-002
2.377900e+003;3.137029e-002
2.379828e+003;3.143287e-002
2.381757e+003;3.170927e-002
2.383685e+003;3.185226e-002
2.385614e+003;3.193567e-002
2.387542e+003;3.198128e-002
2.389471e+003;3.202384e-002
2.391399e+003;3.223616e-002
2.393328e+003;3.231139e-002
2.395257e+003;3.247664e-002
2.397185e+003;3.272356e-002
2.399114e+003;3.273295e-002
2.401042e+003;3.277915e-002
2.402971e+003;3.283351e-002
2.404899e+003;3.313172e-002
2.406828e+003;3.364458e-002
2.408756e+003;3.358798e-002
2.410685e+003;3.378781e-002
2.412614e+003;3.405371e-002
2.414542e+003;3.396696e-002
2.416471e+003;3.395116e-002
2.418399e+003;3.398283e-002
2.420328e+003;3.396144e-002
2.422256e+003;3.394940e-002
2.424185e+003;3.435151e-002
2.426113e+003;3.500295e-002
2.428042e+003;3.537667e-002
2.429970e+003;3.524908e-002
2.431899e+003;3.501003e-002
2.433828e+003;3.555496e-002
2.435756e+003;3.615628e-002
2.437685e+003;3.602486e-002
2.439613e+003;3.591961e-002
2.441542e+003;3.600927e-002
2.443470e+003;3.620807e-002
2.445399e+003;3.641272e-002
2.447327e+003;3.652223e-002
2.449256e+003;3.672176e-002
2.451185e+003;3.698723e-002
2.453113e+003;3.719315e-002
2.455042e+003;3.709689e-002
2.456970e+003;3.691353e-002
2.458899e+003;3.710371e-002
2.460827e+003;3.731098e-002
2.462756e+003;3.751980e-002
2.464684e+003;3.759813e-002
2.466613e+003;3.744962e-002
2.468542e+003;3.753505e-002
2.470470e+003;3.781279e-002
2.472398e+003;3.799603e-002
2.474327e+003;3.816940e-002
2.476256e+003;3.823712e-002
2.478184e+003;3.838087e-002
2.480113e+003;3.861248e-002
2.482041e+003;3.871487e-002
2.483970e+003;3.886627e-002
2.485898e+003;3.877268e-002
2.487827e+003;3.878779e-002
2.489755e+003;3.933136e-002
2.491684e+003;3.976746e-002
2.493613e+003;3.975896e-002
2.495541e+003;3.976183e-002
2.497470e+003;4.002087e-002
2.499398e+003;4.011909e-002
2.501327e+003;4.006142e-002
2.503255e+003;4.018156e-002
2.505184e+003;4.046774e-002
2.507112e+003;4.052826e-002
2.509041e+003;4.055285e-002
2.510969e+003;4.098388e-002
2.512898e+003;4.131908e-002
2.514827e+003;4.154537e-002
2.516755e+003;4.168740e-002
2.518684e+003;4.177072e-002
2.520612e+003;4.205976e-002
2.522541e+003;4.222636e-002
2.524469e+003;4.226740e-002
2.526398e+003;4.210006e-002
2.528326e+003;4.199559e-002
2.530255e+003;4.222599e-002
2.532184e+003;4.265071e-002
2.534112e+003;4.280222e-002
2.536041e+003;4.293538e-002
2.537969e+003;4.281681e-002
2.539898e+003;4.242744e-002
2.541826e+003;4.238886e-002
2.543755e+003;4.263887e-002
2.545683e+003;4.291255e-002
2.547612e+003;4.286658e-002
2.549541e+003;4.278514e-002
2.551469e+003;4.314820e-002
2.553397e+003;4.332100e-002
2.555326e+003;4.313993e-002
2.557255e+003;4.326078e-002
2.559183e+003;4.368769e-002
2.561112e+003;4.369773e-002
2.563040e+003;4.343692e-002
2.564969e+003;4.339272e-002
2.566897e+003;4.331474e-002
2.568826e+003;4.360397e-002
2.570754e+003;4.398458e-002
2.572683e+003;4.376427e-002
2.574612e+003;4.354027e-002
2.576540e+003;4.364101e-002
2.578469e+003;4.374848e-002
2.580397e+003;4.377710e-002
2.582326e+003;4.380140e-002
2.584254e+003;4.401619e-002
2.586183e+003;4.421948e-002
2.588111e+003;4.442813e-002
2.590040e+003;4.470048e-002
2.591969e+003;4.486769e-002
2.593897e+003;4.501868e-002
2.595826e+003;4.505304e-002
2.597754e+003;4.497877e-002
2.599683e+003;4.497436e-002
2.601611e+003;4.512083e-002
2.603540e+003;4.528095e-002
2.605468e+003;4.547131e-002
2.607397e+003;4.569343e-002
2.609325e+003;4.573109e-002
2.611254e+003;4.597759e-002
2.613183e+003;4.628235e-002
2.615111e+003;4.659862e-002
2.617040e+003;4.689002e-002
2.618968e+003;4.695192e-002
2.620897e+003;4.694838e-002
2.622825e+003;4.705216e-002
2.624754e+003;4.717023e-002
2.626682e+003;4.750473e-002
2.628611e+003;4.787220e-002
2.630540e+003;4.792363e-002
2.632468e+003;4.780983e-002
2.634396e+003;4.796226e-002
2.636325e+003;4.819052e-002
2.638254e+003;4.840752e-002
2.640182e+003;4.853318e-002
2.642111e+003;4.873683e-002
2.644039e+003;4.904231e-002
2.645968e+003;4.916671e-002
2.647896e+003;4.928843e-002
2.649825e+003;4.934140e-002
2.651753e+003;4.939597e-002
2.653682e+003;4.954479e-002
2.655611e+003;4.964916e-002
2.657539e+003;4.983056e-002
2.659468e+003;5.017076e-002
2.661396e+003;5.011773e-002
2.663325e+003;4.988734e-002
2.665253e+003;5.006329e-002
2.667182e+003;5.039598e-002
2.669110e+003;5.071302e-002
2.671039e+003;5.100093e-002
2.672968e+003;5.106640e-002
2.674896e+003;5.112511e-002
2.676825e+003;5.136618e-002
2.678753e+003;5.165292e-002
2.680682e+003;5.169875e-002
2.682610e+003;5.174589e-002
2.684539e+003;5.219950e-002
2.686467e+003;5.248884e-002
2.688396e+003;5.261606e-002
2.690324e+003;5.296164e-002
2.692253e+003;5.337186e-002
2.694182e+003;5.363717e-002
2.696110e+003;5.384139e-002
2.698039e+003;5.418392e-002
2.699967e+003;5.437443e-002
2.701896e+003;5.461157e-002
2.703824e+003;5.511742e-002
2.705753e+003;5.548017e-002
2.707681e+003;5.568921e-002
2.709610e+003;5.605960e-002
2.711539e+003;5.616641e-002
2.713467e+003;5.628585e-002
2.715396e+003;5.647932e-002
2.717324e+003;5.645913e-002
2.719253e+003;5.654396e-002
2.721181e+003;5.658321e-002
2.723110e+003;5.666313e-002
2.725038e+003;5.700118e-002
2.726967e+003;5.752121e-002
2.728896e+003;5.778554e-002
2.730824e+003;5.783380e-002
2.732752e+003;5.792493e-002
2.734681e+003;5.795363e-002
2.736610e+003;5.798403e-002
2.738538e+003;5.824092e-002
2.740467e+003;5.850240e-002
2.742395e+003;5.851502e-002
2.744324e+003;5.814352e-002
2.746252e+003;5.805330e-002
2.748181e+003;5.837204e-002
2.750109e+003;5.845035e-002
2.752038e+003;5.843101e-002
2.753967e+003;5.867046e-002
2.755895e+003;5.882022e-002
2.757824e+003;5.885577e-002
2.759752e+003;5.904142e-002
2.761681e+003;5.942278e-002
2.763609e+003;5.984873e-002
2.765538e+003;5.990745e-002
2.767466e+003;5.982926e-002
2.769395e+003;5.998261e-002
2.771323e+003;6.020453e-002
2.773252e+003;6.041193e-002
2.775181e+003;6.085719e-002
2.777109e+003;6.122999e-002
2.779038e+003;6.109324e-002
2.780966e+003;6.112425e-002
2.782895e+003;6.157922e-002
2.784823e+003;6.198841e-002
2.786752e+003;6.230779e-002
2.788680e+003;6.262114e-002
2.790609e+003;6.260908e-002
2.792538e+003;6.290089e-002
2.794466e+003;6.343318e-002
2.796395e+003;6.375340e-002
2.798323e+003;6.389970e-002
2.800252e+003;6.415658e-002
2.802180e+003;6.465545e-002
2.804109e+003;6.550240e-002
2.806037e+003;6.620251e-002
2.807966e+003;6.675142e-002
2.809895e+003;6.686890e-002
2.811823e+003;6.697504e-002
2.813751e+003;6.782691e-002
2.815680e+003;6.867158e-002
2.817609e+003;6.941356e-002
2.819537e+003;6.995619e-002
2.821466e+003;7.038122e-002
2.823394e+003;7.099151e-002
2.825323e+003;7.192844e-002
2.827251e+003;7.286231e-002
2.829180e+003;7.376540e-002
2.831108e+003;7.463398e-002
2.833037e+003;7.569535e-002
2.834966e+003;7.684703e-002
2.836894e+003;7.813516e-002
2.838823e+003;7.962184e-002
2.840751e+003;8.119214e-002
2.842680e+003;8.318133e-002
2.844608e+003;8.574593e-002
2.846537e+003;8.883768e-002
2.848465e+003;9.234838e-002
2.850394e+003;9.528098e-002
2.852323e+003;9.637205e-002
2.854251e+003;9.545134e-002
2.856180e+003;9.439226e-002
2.858108e+003;9.422372e-002
2.860037e+003;9.426340e-002
2.861965e+003;9.478961e-002
2.863894e+003;9.596536e-002
2.865822e+003;9.711823e-002
2.867751e+003;9.799580e-002
2.869679e+003;9.895193e-002
2.871608e+003;9.952277e-002
2.873536e+003;1.001011e-001
2.875465e+003;1.005429e-001
2.877394e+003;1.002617e-001
2.879322e+003;1.004774e-001
2.881251e+003;1.014115e-001
2.883179e+003;1.021418e-001
2.885108e+003;1.025932e-001
2.887036e+003;1.034983e-001
2.888965e+003;1.043104e-001
2.890893e+003;1.044511e-001
2.892822e+003;1.051503e-001
2.894750e+003;1.064220e-001
2.896679e+003;1.069065e-001
2.898608e+003;1.071063e-001
2.900536e+003;1.075467e-001
2.902465e+003;1.078791e-001
2.904393e+003;1.076000e-001
2.906322e+003;1.070939e-001
2.908250e+003;1.068535e-001
2.910179e+003;1.066681e-001
2.912107e+003;1.061114e-001
2.914036e+003;1.062266e-001
2.915965e+003;1.068258e-001
2.917893e+003;1.067029e-001
2.919822e+003;1.058753e-001
2.921750e+003;1.044491e-001
2.923679e+003;1.026377e-001
2.925607e+003;1.005047e-001
2.927536e+003;9.761339e-002
2.929464e+003;9.497309e-002
2.931393e+003;9.250723e-002
2.933322e+003;9.038768e-002
2.935250e+003;8.914371e-002
2.937178e+003;8.805577e-002
2.939107e+003;8.709509e-002
2.941036e+003;8.658180e-002
2.942964e+003;8.600023e-002
2.944893e+003;8.498935e-002
2.946821e+003;8.444469e-002
2.948750e+003;8.342410e-002
2.950678e+003;8.175501e-002
2.952607e+003;8.092394e-002
2.954535e+003;8.053681e-002
2.956464e+003;7.975389e-002
2.958393e+003;7.900771e-002
2.960321e+003;7.841302e-002
2.962250e+003;7.800788e-002
2.964178e+003;7.770214e-002
2.966107e+003;7.719725e-002
2.968035e+003;7.630944e-002
2.969964e+003;7.530488e-002
2.971892e+003;7.388429e-002
2.973821e+003;7.211997e-002
2.975750e+003;7.055803e-002
2.977678e+003;6.872137e-002
2.979607e+003;6.690577e-002
2.981535e+003;6.582353e-002
2.983464e+003;6.458194e-002
2.985392e+003;6.330788e-002
2.987321e+003;6.271499e-002
2.989249e+003;6.204949e-002
2.991178e+003;6.113448e-002
2.993106e+003;6.004440e-002
2.995035e+003;5.909279e-002
2.996964e+003;5.877257e-002
2.998892e+003;5.840611e-002
3.000821e+003;5.776677e-002
3.002749e+003;5.736660e-002
3.004678e+003;5.710407e-002
3.006606e+003;5.673815e-002
3.008535e+003;5.666868e-002
3.010463e+003;5.663078e-002
3.012392e+003;5.639132e-002
3.014321e+003;5.626416e-002
3.016249e+003;5.611204e-002
3.018177e+003;5.602748e-002
3.020106e+003;5.662296e-002
3.022035e+003;5.703972e-002
3.023963e+003;5.714352e-002
3.025892e+003;5.750747e-002
3.027820e+003;5.798445e-002
3.029749e+003;5.817394e-002
3.031677e+003;5.831030e-002
3.033606e+003;5.899747e-002
3.035534e+003;5.921755e-002
3.037463e+003;5.894111e-002
3.039392e+003;5.910531e-002
3.041320e+003;5.930395e-002
3.043249e+003;5.973796e-002
3.045177e+003;6.033342e-002
3.047106e+003;6.026174e-002
3.049034e+003;6.028382e-002
3.050963e+003;6.063052e-002
3.052891e+003;6.141457e-002
3.054820e+003;6.174022e-002
3.056749e+003;6.162274e-002
3.058677e+003;6.212276e-002
3.060606e+003;6.294670e-002
3.062534e+003;6.352422e-002
3.064463e+003;6.366108e-002
3.066391e+003;6.373444e-002
3.068320e+003;6.396216e-002
3.070248e+003;6.448399e-002
3.072177e+003;6.525142e-002
3.074105e+003;6.569400e-002
3.076034e+003;6.581389e-002
3.077963e+003;6.604517e-002
3.079891e+003;6.659589e-002
3.081820e+003;6.711672e-002
3.083748e+003;6.736045e-002
3.085677e+003;6.770553e-002
3.087605e+003;6.830838e-002
3.089534e+003;6.893191e-002
3.091462e+003;6.915654e-002
3.093391e+003;6.929500e-002
3.095320e+003;6.960126e-002
3.097248e+003;6.992828e-002
3.099177e+003;7.017087e-002
3.101105e+003;7.035134e-002
3.103034e+003;7.101835e-002
3.104962e+003;7.161265e-002
3.106891e+003;7.208570e-002
3.108819e+003;7.279468e-002
3.110748e+003;7.346110e-002
3.112677e+003;7.393645e-002
3.114605e+003;7.433622e-002
3.116533e+003;7.448004e-002
3.118462e+003;7.445817e-002
3.120391e+003;7.489201e-002
3.122319e+003;7.564313e-002
3.124248e+003;7.651065e-002
3.126176e+003;7.705305e-002
3.128105e+003;7.720746e-002
3.130033e+003;7.760139e-002
3.131962e+003;7.803450e-002
3.133890e+003;7.849943e-002
3.135819e+003;7.874226e-002
3.137748e+003;7.906626e-002
3.139676e+003;7.958515e-002
3.141605e+003;8.031594e-002
3.143533e+003;8.103094e-002
3.145462e+003;8.153632e-002
3.147390e+003;8.221602e-002
3.149319e+003;8.279931e-002
3.151247e+003;8.300725e-002
3.153176e+003;8.336227e-002
3.155104e+003;8.400857e-002
3.157033e+003;8.428004e-002
3.158962e+003;8.457330e-002
3.160890e+003;8.530834e-002
3.162819e+003;8.594821e-002
3.164747e+003;8.659741e-002
3.166676e+003;8.771328e-002
3.168604e+003;8.849473e-002
3.170533e+003;8.891785e-002
3.172461e+003;8.915571e-002
3.174390e+003;8.984529e-002
3.176319e+003;9.064341e-002
3.178247e+003;9.092233e-002
3.180176e+003;9.147862e-002
3.182104e+003;9.210972e-002
3.184033e+003;9.275740e-002
3.185961e+003;9.358942e-002
3.187890e+003;9.428163e-002
3.189818e+003;9.474880e-002
3.191747e+003;9.516001e-002
3.193676e+003;9.601561e-002
3.195604e+003;9.711727e-002
3.197532e+003;9.796060e-002
3.199461e+003;9.855063e-002
3.201390e+003;9.943178e-002
3.203318e+003;1.002731e-001
3.205247e+003;1.011882e-001
3.207175e+003;1.020431e-001
3.209104e+003;1.021935e-001
3.211032e+003;1.026026e-001
3.212961e+003;1.034363e-001
3.214889e+003;1.039979e-001
3.216818e+003;1.049180e-001
3.218747e+003;1.064100e-001
3.220675e+003;1.074464e-001
3.222604e+003;1.082747e-001
3.224532e+003;1.091121e-001
3.226461e+003;1.095802e-001
3.228389e+003;1.101737e-001
3.230318e+003;1.114614e-001
3.232246e+003;1.122713e-001
3.234175e+003;1.128589e-001
3.236104e+003;1.136880e-001
3.238032e+003;1.148429e-001
3.239961e+003;1.162067e-001
3.241889e+003;1.178766e-001
3.243818e+003;1.189974e-001
3.245746e+003;1.194998e-001
3.247675e+003;1.207021e-001
3.249603e+003;1.224610e-001
3.251532e+003;1.238676e-001
3.253460e+003;1.253243e-001
3.255389e+003;1.269830e-001
3.257318e+003;1.282765e-001
3.259246e+003;1.291084e-001
3.261175e+003;1.300223e-001
3.263103e+003;1.310669e-001
3.265032e+003;1.320188e-001
3.266960e+003;1.333260e-001
3.268889e+003;1.347642e-001
3.270817e+003;1.358553e-001
3.272746e+003;1.368606e-001
3.274675e+003;1.377729e-001
3.276603e+003;1.380304e-001
3.278531e+003;1.380383e-001
3.280460e+003;1.379949e-001
3.282389e+003;1.385787e-001
3.284317e+003;1.392363e-001
3.286246e+003;1.395096e-001
3.288174e+003;1.399907e-001
3.290103e+003;1.397817e-001
3.292031e+003;1.393424e-001
3.293960e+003;1.388719e-001
3.295888e+003;1.385309e-001
3.297817e+003;1.389815e-001
3.299746e+003;1.390440e-001
3.301674e+003;1.391933e-001
3.303603e+003;1.395560e-001
3.305531e+003;1.391154e-001
3.307460e+003;1.388466e-001
3.309388e+003;1.389076e-001
3.311317e+003;1.392031e-001
3.313245e+003;1.395439e-001
3.315174e+003;1.397490e-001
3.317103e+003;1.403990e-001
3.319031e+003;1.413638e-001
3.320960e+003;1.419240e-001
3.322888e+003;1.427020e-001
3.324817e+003;1.436871e-001
3.326745e+003;1.442465e-001
3.328674e+003;1.445292e-001
3.330602e+003;1.445729e-001
3.332531e+003;1.447034e-001
3.334459e+003;1.448415e-001
3.336388e+003;1.451519e-001
3.338317e+003;1.453013e-001
3.340245e+003;1.445031e-001
3.342174e+003;1.431457e-001
3.344102e+003;1.418693e-001
3.346031e+003;1.406156e-001
3.347959e+003;1.393383e-001
3.349888e+003;1.380897e-001
3.351816e+003;1.368763e-001
3.353745e+003;1.355915e-001
3.355674e+003;1.341199e-001
3.357602e+003;1.325436e-001
3.359531e+003;1.312893e-001
3.361459e+003;1.303136e-001
3.363388e+003;1.297534e-001
3.365316e+003;1.292206e-001
3.367245e+003;1.285007e-001
3.369173e+003;1.275007e-001
3.371102e+003;1.260724e-001
3.373031e+003;1.247721e-001
3.374959e+003;1.239421e-001
3.376887e+003;1.232004e-001
3.378816e+003;1.228710e-001
3.380745e+003;1.222555e-001
3.382673e+003;1.209736e-001
3.384602e+003;1.200246e-001
3.386530e+003;1.195544e-001
3.388459e+003;1.184381e-001
3.390387e+003;1.173557e-001
3.392316e+003;1.169532e-001
3.394244e+003;1.167641e-001
3.396173e+003;1.166153e-001
3.398102e+003;1.156843e-001
3.400030e+003;1.150068e-001
3.401959e+003;1.144288e-001
3.403887e+003;1.134283e-001
3.405816e+003;1.122001e-001
3.407744e+003;1.112590e-001
3.409673e+003;1.102097e-001
3.411601e+003;1.087828e-001
3.413530e+003;1.074646e-001
3.415458e+003;1.060223e-001
3.417387e+003;1.047971e-001
3.419316e+003;1.034469e-001
3.421244e+003;1.025454e-001
3.423173e+003;1.022295e-001
3.425101e+003;1.012256e-001
3.427030e+003;1.001370e-001
3.428958e+003;9.884516e-002
3.430887e+003;9.721047e-002
3.432815e+003;9.692612e-002
3.434744e+003;9.632224e-002
3.436673e+003;9.497664e-002
3.438601e+003;9.391733e-002
3.440530e+003;9.292264e-002
3.442458e+003;9.175161e-002
3.444387e+003;9.100187e-002
3.446315e+003;9.020196e-002
3.448244e+003;8.924482e-002
3.450172e+003;8.846824e-002
3.452101e+003;8.801373e-002
3.454030e+003;8.731855e-002
3.455958e+003;8.611330e-002
3.457886e+003;8.503921e-002
3.459815e+003;8.424255e-002
3.461744e+003;8.325578e-002
3.463672e+003;8.199734e-002
3.465601e+003;8.107335e-002
3.467529e+003;8.034560e-002
3.469458e+003;7.966197e-002
3.471386e+003;7.907452e-002
3.473315e+003;7.812183e-002
3.475243e+003;7.696921e-002
3.477172e+003;7.583674e-002
3.479101e+003;7.473739e-002
3.481029e+003;7.411377e-002
3.482958e+003;7.316478e-002
3.484886e+003;7.207420e-002
3.486815e+003;7.129588e-002
3.488743e+003;7.060447e-002
3.490672e+003;6.939101e-002
3.492600e+003;6.872906e-002
3.494529e+003;6.801106e-002
3.496458e+003;6.726071e-002
3.498386e+003;6.680981e-002
3.500315e+003;6.564994e-002
3.502243e+003;6.460132e-002
3.504172e+003;6.421370e-002
3.506100e+003;6.365452e-002
3.508029e+003;6.280784e-002
3.509957e+003;6.223938e-002
3.511886e+003;6.152966e-002
3.513814e+003;6.046559e-002
3.515743e+003;6.002929e-002
3.517672e+003;5.976922e-002
3.519600e+003;5.925173e-002
3.521529e+003;5.839368e-002
3.523457e+003;5.720407e-002
3.525386e+003;5.578361e-002
3.527314e+003;5.539325e-002
3.529243e+003;5.553224e-002
3.531171e+003;5.499138e-002
3.533100e+003;5.391644e-002
3.535029e+003;5.305605e-002
3.536957e+003;5.287627e-002
3.538885e+003;5.224161e-002
3.540814e+003;5.123306e-002
3.542743e+003;5.034158e-002
3.544671e+003;4.934325e-002
3.546600e+003;4.893159e-002
3.548528e+003;4.874057e-002
3.550457e+003;4.791523e-002
3.552385e+003;4.727167e-002
3.554314e+003;4.701147e-002
3.556242e+003;4.676911e-002
3.558171e+003;4.601347e-002
3.560100e+003;4.497355e-002
3.562028e+003;4.421802e-002
3.563957e+003;4.330507e-002
3.565885e+003;4.213420e-002
3.567814e+003;4.141336e-002
3.569742e+003;4.069056e-002
3.571671e+003;4.021718e-002
3.573599e+003;4.022489e-002
3.575528e+003;3.928605e-002
3.577457e+003;3.809614e-002
3.579385e+003;3.731994e-002
3.581314e+003;3.663325e-002
3.583242e+003;3.607627e-002
3.585171e+003;3.578805e-002
3.587099e+003;3.565908e-002
3.589028e+003;3.533759e-002
3.590956e+003;3.483709e-002
3.592885e+003;3.369728e-002
3.594813e+003;3.236004e-002
3.596742e+003;3.199765e-002
3.598671e+003;3.200946e-002
3.600599e+003;3.115241e-002
3.602528e+003;3.048016e-002
3.604456e+003;2.952812e-002
3.606385e+003;2.801049e-002
3.608313e+003;2.726920e-002
3.610242e+003;2.719624e-002
3.612170e+003;2.639433e-002
3.614099e+003;2.551307e-002
3.616028e+003;2.515543e-002
3.617956e+003;2.443147e-002
3.619885e+003;2.359777e-002
3.621813e+003;2.360749e-002
3.623742e+003;2.319490e-002
3.625670e+003;2.171578e-002
3.627599e+003;2.012787e-002
3.629527e+003;1.917294e-002
3.631456e+003;1.871275e-002
3.633385e+003;1.821967e-002
3.635313e+003;1.780833e-002
3.637241e+003;1.728889e-002
3.639170e+003;1.664543e-002
3.641099e+003;1.612002e-002
3.643027e+003;1.556372e-002
3.644956e+003;1.458087e-002
3.646884e+003;1.294900e-002
3.648813e+003;1.170759e-002
3.650741e+003;1.117417e-002
3.652670e+003;1.099076e-002
3.654598e+003;1.046685e-002
3.656527e+003;1.003254e-002
3.658456e+003;9.956457e-003
3.660384e+003;9.485503e-003
3.662313e+003;8.652326e-003
3.664241e+003;8.744443e-003
3.666170e+003;8.619945e-003
3.668098e+003;7.168980e-003
3.670027e+003;6.284491e-003
3.671955e+003;6.181164e-003
3.673884e+003;4.945273e-003
3.675813e+003;4.182406e-003
3.677741e+003;5.193277e-003
3.679669e+003;5.573703e-003
3.681598e+003;5.550915e-003
3.683527e+003;5.526249e-003
3.685455e+003;5.074755e-003
3.687384e+003;4.029444e-003
3.689312e+003;3.725655e-003
3.691241e+003;4.002724e-003
3.693169e+003;3.894991e-003
3.695098e+003;3.697082e-003
3.697026e+003;3.833045e-003
3.698955e+003;3.576997e-003
3.700884e+003;3.083173e-003
3.702812e+003;3.141908e-003
3.704741e+003;3.388016e-003
3.706669e+003;3.176085e-003
3.708598e+003;2.658212e-003
3.710526e+003;2.340056e-003
3.712455e+003;1.886802e-003
3.714383e+003;1.993472e-003
3.716312e+003;2.289257e-003
3.718240e+003;2.524749e-003
3.720169e+003;2.677715e-003
3.722098e+003;2.499255e-003
3.724026e+003;1.819252e-003
3.725955e+003;1.103173e-003
3.727883e+003;1.115630e-003
3.729812e+003;1.256336e-003
3.731740e+003;6.903992e-004
3.733669e+003;2.432720e-004
3.735597e+003;3.713594e-004
3.737526e+003;1.356703e-003
3.739455e+003;1.480697e-003
3.741383e+003;8.176226e-004
3.743312e+003;-5.019556e-004
3.745240e+003;-3.777294e-004
3.747169e+003;-1.829607e-004
3.749097e+003;-6.363367e-004
3.751026e+003;-5.162858e-004
3.752954e+003;1.556253e-004
3.754883e+003;1.135197e-003
3.756812e+003;1.586968e-003
3.758740e+003;1.368369e-003
3.760668e+003;8.225690e-004
3.762597e+003;1.361290e-003
3.764526e+003;1.726696e-003
3.766454e+003;1.614238e-003
3.768383e+003;9.995110e-004
3.770311e+003;6.044208e-004
3.772240e+003;1.046108e-003
3.774168e+003;1.182439e-003
3.776097e+003;1.205298e-003
3.778025e+003;1.429300e-003
3.779954e+003;1.670181e-003
3.781883e+003;1.343973e-003
3.783811e+003;9.162273e-004
3.785740e+003;8.949773e-004
3.787668e+003;1.365212e-003
3.789597e+003;1.504004e-003
3.791525e+003;1.371926e-003
3.793454e+003;1.532100e-003
3.795382e+003;1.470889e-003
3.797311e+003;1.294087e-003
3.799240e+003;4.857515e-004
3.801168e+003;-1.849480e-004
3.803097e+003;3.785225e-004
3.805025e+003;9.500636e-004
3.806954e+003;3.099470e-004
3.808882e+003;-8.607371e-005
3.810811e+003;6.688947e-004
3.812739e+003;8.977996e-004
3.814668e+003;2.201652e-004
3.816596e+003;-3.850005e-005
3.818525e+003;-5.498425e-004
3.820454e+003;-1.030339e-003
3.822382e+003;-1.541122e-004
3.824311e+003;7.840291e-004
3.826239e+003;1.042089e-003
3.828168e+003;1.566683e-003
3.830096e+003;1.252316e-003
3.832025e+003;8.799701e-004
3.833953e+003;5.141801e-004
3.835882e+003;-6.946295e-004
3.837811e+003;-1.192016e-003
3.839739e+003;2.223200e-004
3.841667e+003;1.462145e-003
3.843596e+003;1.462943e-003
3.845525e+003;1.282689e-003
3.847453e+003;8.854151e-004
3.849382e+003;3.572987e-004
3.851310e+003;-2.392281e-004
3.853239e+003;-8.514717e-004
3.855167e+003;-4.038852e-005
3.857096e+003;1.028372e-003
3.859024e+003;1.044480e-003
3.860953e+003;5.678578e-004
3.862882e+003;5.172652e-004
3.864810e+003;5.676256e-004
3.866739e+003;8.560327e-004
3.868667e+003;8.208095e-004
3.870596e+003;1.194400e-003
3.872524e+003;1.825075e-003
3.874453e+003;1.804579e-003
3.876381e+003;1.755805e-003
3.878310e+003;1.329814e-003
3.880239e+003;9.678295e-004
3.882167e+003;1.107525e-003
3.884096e+003;1.038136e-003
3.886024e+003;1.459685e-003
3.887953e+003;2.310209e-003
3.889881e+003;2.231203e-003
3.891810e+003;1.368336e-003
3.893738e+003;1.209385e-003
3.895667e+003;2.700586e-003
3.897595e+003;3.510888e-003
3.899524e+003;3.219745e-003
3.901453e+003;2.175055e-003
3.903381e+003;1.710263e-003
3.905310e+003;2.852847e-003
3.907238e+003;3.507347e-003
3.909167e+003;3.481828e-003
3.911095e+003;3.671653e-003
3.913024e+003;3.229926e-003
3.914952e+003;2.520817e-003
3.916881e+003;2.654979e-003
3.918810e+003;3.011466e-003
3.920738e+003;3.122751e-003
3.922667e+003;3.158662e-003
3.924595e+003;3.316993e-003
3.926524e+003;4.215226e-003
3.928452e+003;4.645599e-003
3.930381e+003;4.927478e-003
3.932309e+003;4.430308e-003
3.934238e+003;3.205158e-003
3.936167e+003;3.394694e-003
3.938095e+003;3.792533e-003
3.940023e+003;3.803897e-003
3.941952e+003;3.808944e-003
3.943881e+003;3.708645e-003
3.945809e+003;3.998410e-003
3.947738e+003;4.145239e-003
3.949666e+003;4.542327e-003
3.951595e+003;5.044552e-003
3.953523e+003;4.684482e-003
3.955452e+003;4.179830e-003
3.957380e+003;3.796845e-003
3.959309e+003;3.942368e-003
3.961238e+003;4.488322e-003
3.963166e+003;5.070230e-003
3.965095e+003;5.192304e-003
3.967023e+003;4.569046e-003
3.968952e+003;3.924346e-003
3.970880e+003;3.571652e-003
3.972809e+003;3.508516e-003
3.974737e+003;4.013994e-003
3.976666e+003;4.167552e-003
3.978594e+003;4.411095e-003
3.980523e+003;4.750805e-003
3.982452e+003;4.966387e-003
3.984380e+003;4.753149e-003
3.986309e+003;4.635920e-003
3.988237e+003;4.746450e-003
3.990166e+003;4.708230e-003
3.992094e+003;4.677181e-003
3.994023e+003;5.465815e-003
3.995951e+003;5.450112e-003
3.997880e+003;4.823234e-003
3.999809e+003;4.927914e-003
4.001737e+003;0.000000e+000
