3.992094e+002;0.000000e+000
4.011380e+002;0.000000e+000
4.030665e+002;0.000000e+000
4.049951e+002;0.000000e+000
4.069236e+002;0.000000e+000
4.088522e+002;0.000000e+000
4.107807e+002;0.000000e+000
4.127093e+002;0.000000e+000
4.146378e+002;0.000000e+000
4.165664e+002;0.000000e+000
4.184949e+002;0.000000e+000
4.204235e+002;0.000000e+000
4.223520e+002;0.000000e+000
4.242806e+002;0.000000e+000
4.262091e+002;0.000000e+000
4.281377e+002;0.000000e+000
4.300662e+002;0.000000e+000
4.319948e+002;0.000000e+000
4.339233e+002;0.000000e+000
4.358519e+002;0.000000e+000
4.377804e+002;0.000000e+000
4.397090e+002;0.000000e+000
4.416375e+002;0.000000e+000
4.435660e+002;0.000000e+000
4.454946e+002;0.000000e+000
4.474232e+002;0.000000e+000
4.493517e+002;0.000000e+000
4.512802e+002;0.000000e+000
4.532088e+002;0.000000e+000
4.551373e+002;0.000000e+000
4.570659e+002;0.000000e+000
4.589944e+002;0.000000e+000
4.609230e+002;0.000000e+000
4.628515e+002;0.000000e+000
4.647801e+002;0.000000e+000
4.667086e+002;0.000000e+000
4.686372e+002;0.000000e+000
4.705657e+002;0.000000e+000
4.724943e+002;0.000000e+000
4.744228e+002;0.000000e+000
4.763513e+002;0.000000e+000
4.782799e+002;0.000000e+000
4.802085e+002;0.000000e+000
4.821370e+002;0.000000e+000
4.840656e+002;0.000000e+000
4.859941e+002;0.000000e+000
4.879226e+002;0.000000e+000
4.898512e+002;0.000000e+000
4.917798e+002;0.000000e+000
4.937083e+002;0.000000e+000
4.956368e+002;0.000000e+000
4.975654e+002;0.000000e+000
4.994939e+002;0.000000e+000
5.014225e+002;0.000000e+000
5.033510e+002;0.000000e+000
5.052796e+002;0.000000e+000
5.072081e+002;0.000000e+000
5.091367e+002;0.000000e+000
5.110652e+002;0.000000e+000
5.129938e+002;0.000000e+000
5.149223e+002;0.000000e+000
5.168509e+002;0.000000e+000
5.187794e+002;0.000000e+000
5.207079e+002;0.000000e+000
5.226365e+002;0.000000e+000
5.245651e+002;0.000000e+000
5.264936e+002;0.000000e+000
5.284222e+002;0.000000e+000
5.303507e+002;0.000000e+000
5.322792e+002;0.000000e+000
5.342078e+002;0.000000e+000
5.361364e+002;0.000000e+000
5.380649e+002;0.000000e+000
5.399935e+002;0.000000e+000
5.419220e+002;0.000000e+000
5.438505e+002;0.000000e+000
5.457791e+002;0.000000e+000
5.477076e+002;0.000000e+000
5.496362e+002;0.000000e+000
5.515648e+002;0.000000e+000
5.534933e+002;0.000000e+000
5.554218e+002;0.000000e+000
5.573504e+002;0.000000e+000
5.592789e+002;0.000000e+000
5.612075e+002;0.000000e+000
5.631360e+002;0.000000e+000
5.650646e+002;0.000000e+000
5.669931e+002;0.000000e+000
5.689217e+002;0.000000e+000
5.708502e+002;0.000000e+000
5.727787e+002;0.000000e+000
5.747073e+002;0.000000e+000
5.766359e+002;0.000000e+000
5.785644e+002;0.000000e+000
5.804930e+002;0.000000e+000
5.824215e+002;0.000000e+000
5.843500e+002;0.000000e+000
5.862786e+002;0.000000e+000
5.882072e+002;0.000000e+000
5.901357e+002;0.000000e+000
5.920643e+002;0.000000e+000
5.939928e+002;0.000000e+000
5.959213e+002;0.000000e+000
5.978499e+002;0.000000e+000
5.997784e+002;2.791580e-001
6.017070e+002;2.756931e-001
6.036355e+002;2.736370e-001
6.055641e+002;2.788323e-001
6.074926e+002;2.813069e-001
6.094211e+002;2.766682e-001
6.113497e+002;2.729438e-001
6.132783e+002;2.717415e-001
6.152068e+002;2.707573e-001
6.171354e+002;2.702951e-001
6.190639e+002;2.658018e-001
6.209924e+002;2.607374e-001
6.229210e+002;2.541525e-001
6.248495e+002;2.481215e-001
6.267781e+002;2.486316e-001
6.287067e+002;2.505910e-001
6.306352e+002;2.481775e-001
6.325637e+002;2.422738e-001
6.344923e+002;2.408310e-001
6.364208e+002;2.382211e-001
6.383494e+002;2.358652e-001
6.402780e+002;2.343129e-001
6.422065e+002;2.314625e-001
6.441350e+002;2.322499e-001
6.460636e+002;2.327386e-001
6.479921e+002;2.315959e-001
6.499207e+002;2.309083e-001
6.518492e+002;2.306663e-001
6.537778e+002;2.353980e-001
6.557063e+002;2.426559e-001
6.576349e+002;2.474328e-001
6.595634e+002;2.529340e-001
6.614919e+002;2.559451e-001
6.634205e+002;2.561263e-001
6.653491e+002;2.535954e-001
6.672776e+002;2.486040e-001
6.692062e+002;2.455090e-001
6.711347e+002;2.393770e-001
6.730632e+002;2.328087e-001
6.749918e+002;2.266027e-001
6.769203e+002;2.192766e-001
6.788489e+002;2.150465e-001
6.807775e+002;2.124099e-001
6.827060e+002;2.087322e-001
6.846345e+002;2.070057e-001
6.865631e+002;2.075120e-001
6.884916e+002;2.082249e-001
6.904202e+002;2.094379e-001
6.923488e+002;2.103502e-001
6.942773e+002;2.117888e-001
6.962058e+002;2.144445e-001
6.981344e+002;2.169607e-001
7.000629e+002;2.196411e-001
7.019915e+002;2.189870e-001
7.039200e+002;2.139692e-001
7.058486e+002;2.078048e-001
7.077771e+002;2.042910e-001
7.097057e+002;2.007995e-001
7.116342e+002;1.950175e-001
7.135627e+002;1.905916e-001
7.154913e+002;1.881977e-001
7.174199e+002;1.849399e-001
7.193484e+002;1.810826e-001
7.212770e+002;1.767348e-001
7.232055e+002;1.698143e-001
7.251340e+002;1.632162e-001
7.270626e+002;1.601220e-001
7.289911e+002;1.585333e-001
7.309197e+002;1.568629e-001
7.328483e+002;1.538823e-001
7.347768e+002;1.502898e-001
7.367053e+002;1.483200e-001
7.386339e+002;1.463399e-001
7.405624e+002;1.438648e-001
7.424910e+002;1.421476e-001
7.444196e+002;1.412141e-001
7.463481e+002;1.401877e-001
7.482766e+002;1.388884e-001
7.502052e+002;1.372464e-001
7.521337e+002;1.356331e-001
7.540623e+002;1.346964e-001
7.559908e+002;1.346582e-001
7.579194e+002;1.347774e-001
7.598479e+002;1.346072e-001
7.617765e+002;1.346263e-001
7.637050e+002;1.333601e-001
7.656335e+002;1.311692e-001
7.675621e+002;1.302707e-001
7.694907e+002;1.293302e-001
7.714192e+002;1.273537e-001
7.733478e+002;1.260715e-001
7.752763e+002;1.261597e-001
7.772048e+002;1.255107e-001
7.791334e+002;1.249270e-001
7.810620e+002;1.254565e-001
7.829905e+002;1.253908e-001
7.849191e+002;1.252424e-001
7.868476e+002;1.261288e-001
7.887761e+002;1.275442e-001
7.907047e+002;1.288092e-001
7.926332e+002;1.295183e-001
7.945618e+002;1.304424e-001
7.964903e+002;1.314412e-001
7.984189e+002;1.323013e-001
8.003474e+002;1.332713e-001
8.022759e+002;1.338611e-001
8.042045e+002;1.336677e-001
8.061331e+002;1.338851e-001
8.080616e+002;1.334016e-001
8.099902e+002;1.320289e-001
8.119187e+002;1.317666e-001
8.138472e+002;1.324261e-001
8.157758e+002;1.321329e-001
8.177043e+002;1.308202e-001
8.196329e+002;1.298601e-001
8.215615e+002;1.285860e-001
8.234900e+002;1.272117e-001
8.254185e+002;1.262384e-001
8.273471e+002;1.244527e-001
8.292756e+002;1.223345e-001
8.312042e+002;1.209499e-001
8.331328e+002;1.206850e-001
8.350613e+002;1.206678e-001
8.369898e+002;1.202113e-001
8.389184e+002;1.198349e-001
8.408469e+002;1.197659e-001
8.427755e+002;1.194177e-001
8.447040e+002;1.188745e-001
8.466326e+002;1.188192e-001
8.485611e+002;1.190946e-001
8.504897e+002;1.195228e-001
8.524182e+002;1.196841e-001
8.543467e+002;1.203701e-001
8.562753e+002;1.212632e-001
8.582039e+002;1.217997e-001
8.601324e+002;1.225976e-001
8.620610e+002;1.237554e-001
8.639895e+002;1.249527e-001
8.659180e+002;1.258991e-001
8.678466e+002;1.269946e-001
8.697751e+002;1.282993e-001
8.717037e+002;1.299701e-001
8.736323e+002;1.319814e-001
8.755608e+002;1.336905e-001
8.774893e+002;1.354258e-001
8.794179e+002;1.372773e-001
8.813464e+002;1.394506e-001
8.832750e+002;1.422585e-001
8.852036e+002;1.452064e-001
8.871321e+002;1.478796e-001
8.890606e+002;1.504070e-001
8.909892e+002;1.527332e-001
8.929177e+002;1.551751e-001
8.948463e+002;1.571746e-001
8.967748e+002;1.578907e-001
8.987034e+002;1.583344e-001
9.006319e+002;1.581460e-001
9.025605e+002;1.571310e-001
9.044890e+002;1.560962e-001
9.064175e+002;1.550959e-001
9.083461e+002;1.541910e-001
9.102747e+002;1.528150e-001
9.122032e+002;1.512378e-001
9.141318e+002;1.502974e-001
9.160603e+002;1.494884e-001
9.179888e+002;1.492724e-001
9.199174e+002;1.500040e-001
9.218459e+002;1.511733e-001
9.237745e+002;1.527604e-001
9.257031e+002;1.546617e-001
9.276316e+002;1.567377e-001
9.295601e+002;1.589412e-001
9.314887e+002;1.611843e-001
9.334172e+002;1.638140e-001
9.353458e+002;1.667852e-001
9.372744e+002;1.691853e-001
9.392029e+002;1.713337e-001
9.411314e+002;1.739247e-001
9.430600e+002;1.770752e-001
9.449885e+002;1.804485e-001
9.469171e+002;1.838601e-001
9.488456e+002;1.876146e-001
9.507742e+002;1.920014e-001
9.527027e+002;1.963918e-001
9.546313e+002;2.011037e-001
9.565598e+002;2.064529e-001
9.584883e+002;2.119477e-001
9.604169e+002;2.178792e-001
9.623455e+002;2.245150e-001
9.642740e+002;2.315018e-001
9.662026e+002;2.391023e-001
9.681311e+002;2.473036e-001
9.700596e+002;2.561971e-001
9.719882e+002;2.670053e-001
9.739167e+002;2.800150e-001
9.758453e+002;2.947507e-001
9.777739e+002;3.109990e-001
9.797024e+002;3.279106e-001
9.816309e+002;3.422062e-001
9.835595e+002;3.506804e-001
9.854880e+002;3.534800e-001
9.874166e+002;3.537826e-001
9.893452e+002;3.555350e-001
9.912737e+002;3.606116e-001
9.932022e+002;3.681428e-001
9.951307e+002;3.769765e-001
9.970593e+002;3.849648e-001
9.989879e+002;3.913324e-001
1.000916e+003;3.948300e-001
1.002845e+003;3.961460e-001
1.004773e+003;3.974749e-001
1.006702e+003;3.982247e-001
1.008631e+003;3.990532e-001
1.010559e+003;4.014505e-001
1.012488e+003;4.049222e-001
1.014416e+003;4.082052e-001
1.016345e+003;4.116125e-001
1.018273e+003;4.156111e-001
1.020202e+003;4.208841e-001
1.022130e+003;4.268882e-001
1.024059e+003;4.330718e-001
1.025988e+003;4.387579e-001
1.027916e+003;4.433399e-001
1.029845e+003;4.455819e-001
1.031773e+003;4.443539e-001
1.033702e+003;4.383922e-001
1.035630e+003;4.288729e-001
1.037559e+003;4.182937e-001
1.039487e+003;4.080371e-001
1.041416e+003;4.008992e-001
1.043344e+003;3.993654e-001
1.045273e+003;4.031899e-001
1.047202e+003;4.100329e-001
1.049130e+003;4.173130e-001
1.051059e+003;4.239062e-001
1.052987e+003;4.280214e-001
1.054916e+003;4.280738e-001
1.056844e+003;4.223883e-001
1.058773e+003;4.109929e-001
1.060701e+003;3.940611e-001
1.062630e+003;3.725047e-001
1.064558e+003;3.494358e-001
1.066487e+003;3.285570e-001
1.068416e+003;3.121614e-001
1.070344e+003;3.005289e-001
1.072273e+003;2.919783e-001
1.074201e+003;2.851520e-001
1.076130e+003;2.799259e-001
1.078058e+003;2.747580e-001
1.079987e+003;2.695172e-001
1.081915e+003;2.655614e-001
1.083844e+003;2.641339e-001
1.085773e+003;2.640052e-001
1.087701e+003;2.649591e-001
1.089630e+003;2.670162e-001
1.091558e+003;2.689344e-001
1.093487e+003;2.719576e-001
1.095415e+003;2.760954e-001
1.097344e+003;2.804716e-001
1.099272e+003;2.841221e-001
1.101201e+003;2.864653e-001
1.103129e+003;2.876306e-001
1.105058e+003;2.871284e-001
1.106987e+003;2.848152e-001
1.108915e+003;2.811919e-001
1.110844e+003;2.759978e-001
1.112772e+003;2.683334e-001
1.114701e+003;2.572709e-001
1.116629e+003;2.431810e-001
1.118558e+003;2.297549e-001
1.120486e+003;2.188359e-001
1.122415e+003;2.096908e-001
1.124344e+003;2.015754e-001
1.126272e+003;1.929123e-001
1.128201e+003;1.836675e-001
1.130129e+003;1.763040e-001
1.132058e+003;1.712216e-001
1.133986e+003;1.669070e-001
1.135915e+003;1.635446e-001
1.137843e+003;1.622392e-001
1.139772e+003;1.630350e-001
1.141700e+003;1.662308e-001
1.143629e+003;1.714006e-001
1.145557e+003;1.770016e-001
1.147486e+003;1.819423e-001
1.149415e+003;1.860810e-001
1.151343e+003;1.897303e-001
1.153272e+003;1.934445e-001
1.155200e+003;1.975396e-001
1.157129e+003;2.008864e-001
1.159057e+003;2.027308e-001
1.160986e+003;2.030849e-001
1.162914e+003;1.999919e-001
1.164843e+003;1.932681e-001
1.166771e+003;1.843481e-001
1.168700e+003;1.746881e-001
1.170629e+003;1.655080e-001
1.172557e+003;1.568581e-001
1.174486e+003;1.492955e-001
1.176414e+003;1.436392e-001
1.178343e+003;1.391571e-001
1.180271e+003;1.349451e-001
1.182200e+003;1.311688e-001
1.184128e+003;1.283476e-001
1.186057e+003;1.270016e-001
1.187986e+003;1.265948e-001
1.189914e+003;1.270439e-001
1.191843e+003;1.284111e-001
1.193771e+003;1.303534e-001
1.195700e+003;1.326339e-001
1.197628e+003;1.347728e-001
1.199557e+003;1.362856e-001
1.201485e+003;1.374755e-001
1.203414e+003;1.382036e-001
1.205343e+003;1.380382e-001
1.207271e+003;1.361701e-001
1.209200e+003;1.320231e-001
1.211128e+003;1.271149e-001
1.213057e+003;1.236569e-001
1.214985e+003;1.224109e-001
1.216914e+003;1.227755e-001
1.218842e+003;1.239993e-001
1.220771e+003;1.253480e-001
1.222699e+003;1.267826e-001
1.224628e+003;1.286275e-001
1.226557e+003;1.308035e-001
1.228485e+003;1.331507e-001
1.230414e+003;1.353257e-001
1.232342e+003;1.376636e-001
1.234271e+003;1.397239e-001
1.236199e+003;1.409418e-001
1.238128e+003;1.419289e-001
1.240056e+003;1.429145e-001
1.241985e+003;1.443611e-001
1.243913e+003;1.459276e-001
1.245842e+003;1.476623e-001
1.247771e+003;1.491982e-001
1.249699e+003;1.502510e-001
1.251628e+003;1.515519e-001
1.253556e+003;1.533250e-001
1.255485e+003;1.552596e-001
1.257413e+003;1.574042e-001
1.259342e+003;1.592371e-001
1.261270e+003;1.597406e-001
1.263199e+003;1.588817e-001
1.265127e+003;1.565211e-001
1.267056e+003;1.530892e-001
1.268985e+003;1.502238e-001
1.270913e+003;1.489457e-001
1.272842e+003;1.488267e-001
1.274770e+003;1.487124e-001
1.276699e+003;1.481218e-001
1.278627e+003;1.469405e-001
1.280556e+003;1.452179e-001
1.282484e+003;1.431813e-001
1.284413e+003;1.413960e-001
1.286342e+003;1.403320e-001
1.288270e+003;1.395520e-001
1.290199e+003;1.392905e-001
1.292127e+003;1.395355e-001
1.294056e+003;1.399392e-001
1.295984e+003;1.408149e-001
1.297913e+003;1.427115e-001
1.299841e+003;1.454658e-001
1.301770e+003;1.492586e-001
1.303698e+003;1.535862e-001
1.305627e+003;1.579461e-001
1.307556e+003;1.626696e-001
1.309484e+003;1.674393e-001
1.311413e+003;1.717505e-001
1.313341e+003;1.742133e-001
1.315270e+003;1.739141e-001
1.317198e+003;1.712776e-001
1.319127e+003;1.674062e-001
1.321055e+003;1.630019e-001
1.322984e+003;1.592199e-001
1.324912e+003;1.569559e-001
1.326841e+003;1.560720e-001
1.328770e+003;1.564478e-001
1.330698e+003;1.578670e-001
1.332627e+003;1.596022e-001
1.334555e+003;1.604554e-001
1.336484e+003;1.597511e-001
1.338412e+003;1.575764e-001
1.340341e+003;1.548848e-001
1.342269e+003;1.519993e-001
1.344198e+003;1.485698e-001
1.346126e+003;1.451946e-001
1.348055e+003;1.427868e-001
1.349984e+003;1.416786e-001
1.351912e+003;1.420172e-001
1.353841e+003;1.431480e-001
1.355769e+003;1.440984e-001
1.357698e+003;1.449998e-001
1.359626e+003;1.454385e-001
1.361555e+003;1.444168e-001
1.363483e+003;1.427252e-001
1.365412e+003;1.418371e-001
1.367341e+003;1.413601e-001
1.369269e+003;1.407129e-001
1.371198e+003;1.392272e-001
1.373126e+003;1.362279e-001
1.375055e+003;1.327130e-001
1.376983e+003;1.296779e-001
1.378912e+003;1.268384e-001
1.380840e+003;1.239958e-001
1.382769e+003;1.210083e-001
1.384698e+003;1.181997e-001
1.386626e+003;1.156136e-001
1.388555e+003;1.149059e-001
1.390483e+003;1.153254e-001
1.392412e+003;1.149982e-001
1.394340e+003;1.146662e-001
1.396269e+003;1.155908e-001
1.398197e+003;1.162734e-001
1.400126e+003;1.171736e-001
1.402054e+003;1.179904e-001
1.403983e+003;1.178548e-001
1.405911e+003;1.180648e-001
1.407840e+003;1.187695e-001
1.409769e+003;1.192759e-001
1.411697e+003;1.197493e-001
1.413626e+003;1.206011e-001
1.415554e+003;1.215774e-001
1.417483e+003;1.217524e-001
1.419411e+003;1.230658e-001
1.421340e+003;1.268119e-001
1.423268e+003;1.291813e-001
1.425197e+003;1.307444e-001
1.427125e+003;1.319795e-001
1.429054e+003;1.319275e-001
1.430983e+003;1.317325e-001
1.432911e+003;1.308083e-001
1.434840e+003;1.278837e-001
1.436768e+003;1.252674e-001
1.438697e+003;1.261569e-001
1.440625e+003;1.275292e-001
1.442554e+003;1.286201e-001
1.444482e+003;1.297488e-001
1.446411e+003;1.305469e-001
1.448340e+003;1.316255e-001
1.450268e+003;1.337989e-001
1.452197e+003;1.349112e-001
1.454125e+003;1.329210e-001
1.456054e+003;1.270695e-001
1.457982e+003;1.245469e-001
1.459911e+003;1.260697e-001
1.461839e+003;1.254908e-001
1.463768e+003;1.209143e-001
1.465697e+003;1.167965e-001
1.467625e+003;1.146677e-001
1.469554e+003;1.120656e-001
1.471482e+003;1.093189e-001
1.473411e+003;1.069578e-001
1.475339e+003;1.026164e-001
1.477268e+003;9.787305e-002
1.479196e+003;9.500757e-002
1.481125e+003;9.270399e-002
1.483053e+003;9.054548e-002
1.484982e+003;8.779674e-002
1.486911e+003;8.499439e-002
1.488839e+003;8.262830e-002
1.490768e+003;8.248529e-002
1.492696e+003;8.416797e-002
1.494625e+003;8.335412e-002
1.496553e+003;8.086586e-002
1.498482e+003;8.000367e-002
1.500410e+003;7.977813e-002
1.502339e+003;7.922227e-002
1.504267e+003;7.593124e-002
1.506196e+003;7.228192e-002
1.508125e+003;7.441031e-002
1.510053e+003;7.783052e-002
1.511982e+003;7.871898e-002
1.513910e+003;7.919356e-002
1.515839e+003;7.869022e-002
1.517767e+003;7.850618e-002
1.519696e+003;7.765194e-002
1.521624e+003;7.763249e-002
1.523553e+003;8.059217e-002
1.525481e+003;8.258715e-002
1.527410e+003;8.470391e-002
1.529339e+003;8.693230e-002
1.531267e+003;8.813967e-002
1.533196e+003;8.846495e-002
1.535124e+003;9.068710e-002
1.537053e+003;9.084582e-002
1.538981e+003;8.740874e-002
1.540910e+003;8.860702e-002
1.542838e+003;9.313342e-002
1.544767e+003;9.633146e-002
1.546695e+003;9.888269e-002
1.548624e+003;1.002022e-001
1.550553e+003;1.010983e-001
1.552481e+003;1.011328e-001
1.554410e+003;1.003275e-001
1.556338e+003;9.846633e-002
1.558267e+003;9.394629e-002
1.560195e+003;9.494787e-002
1.562124e+003;1.000611e-001
1.564052e+003;1.015609e-001
1.565981e+003;1.015126e-001
1.567910e+003;1.003310e-001
1.569838e+003;9.940262e-002
1.571767e+003;1.003878e-001
1.573695e+003;9.899030e-002
1.575624e+003;9.597094e-002
1.577552e+003;9.721413e-002
1.579481e+003;9.945136e-002
1.581409e+003;9.959290e-002
1.583338e+003;9.920921e-002
1.585266e+003;9.879782e-002
1.587195e+003;9.843503e-002
1.589124e+003;9.793129e-002
1.591052e+003;9.743127e-002
1.592981e+003;9.693830e-002
1.594909e+003;9.675854e-002
1.596838e+003;9.701912e-002
1.598766e+003;9.734607e-002
1.600695e+003;9.721479e-002
1.602623e+003;9.691183e-002
1.604552e+003;9.640994e-002
1.606480e+003;9.546777e-002
1.608409e+003;9.461790e-002
1.610338e+003;9.416708e-002
1.612266e+003;9.383207e-002
1.614195e+003;9.228798e-002
1.616123e+003;8.927611e-002
1.618052e+003;9.021227e-002
1.619980e+003;9.229904e-002
1.621909e+003;9.168220e-002
1.623837e+003;9.107669e-002
1.625766e+003;9.152435e-002
1.627694e+003;9.176262e-002
1.629623e+003;9.222582e-002
1.631552e+003;9.245926e-002
1.633480e+003;9.049390e-002
1.635409e+003;8.822690e-002
1.637337e+003;9.031596e-002
1.639266e+003;9.256706e-002
1.641194e+003;9.318586e-002
1.643123e+003;9.286440e-002
1.645051e+003;9.076520e-002
1.646980e+003;9.036250e-002
1.648909e+003;9.242901e-002
1.650837e+003;8.959553e-002
1.652766e+003;8.464939e-002
1.654694e+003;8.892566e-002
1.656623e+003;9.423149e-002
1.658551e+003;9.559955e-002
1.660480e+003;9.499619e-002
1.662408e+003;9.379115e-002
1.664337e+003;9.451446e-002
1.666266e+003;9.474551e-002
1.668194e+003;9.268439e-002
1.670123e+003;9.160077e-002
1.672051e+003;9.208817e-002
1.673980e+003;9.070559e-002
1.675908e+003;8.980858e-002
1.677837e+003;9.057903e-002
1.679765e+003;8.991621e-002
1.681694e+003;8.769065e-002
1.683622e+003;8.323213e-002
1.685551e+003;8.389971e-002
1.687479e+003;8.719978e-002
1.689408e+003;8.779658e-002
1.691337e+003;8.806543e-002
1.693265e+003;8.660930e-002
1.695194e+003;8.296557e-002
1.697122e+003;8.314072e-002
1.699051e+003;8.233348e-002
1.700979e+003;8.281230e-002
1.702908e+003;8.661965e-002
1.704836e+003;8.743828e-002
1.706765e+003;8.861364e-002
1.708693e+003;9.036989e-002
1.710622e+003;9.226602e-002
1.712551e+003;9.366558e-002
1.714479e+003;9.518253e-002
1.716408e+003;9.734072e-002
1.718336e+003;1.038974e-001
1.720265e+003;1.144031e-001
1.722193e+003;1.240670e-001
1.724122e+003;1.327361e-001
1.726050e+003;1.407678e-001
1.727979e+003;1.465737e-001
1.729908e+003;1.488596e-001
1.731836e+003;1.459891e-001
1.733765e+003;1.395268e-001
1.735693e+003;1.344221e-001
1.737622e+003;1.261918e-001
1.739550e+003;1.141425e-001
1.741479e+003;1.031709e-001
1.743407e+003;9.319136e-002
1.745336e+003;8.479110e-002
1.747265e+003;7.787967e-002
1.749193e+003;7.231952e-002
1.751122e+003;6.883609e-002
1.753050e+003;6.807322e-002
1.754979e+003;6.680409e-002
1.756907e+003;6.544527e-002
1.758836e+003;6.510947e-002
1.760764e+003;6.388754e-002
1.762693e+003;6.340135e-002
1.764621e+003;6.377416e-002
1.766550e+003;6.267078e-002
1.768479e+003;6.175840e-002
1.770407e+003;6.087251e-002
1.772336e+003;5.990026e-002
1.774264e+003;6.106144e-002
1.776193e+003;6.210900e-002
1.778121e+003;6.218294e-002
1.780050e+003;6.184855e-002
1.781978e+003;6.166238e-002
1.783907e+003;6.134568e-002
1.785835e+003;6.144056e-002
1.787764e+003;6.174541e-002
1.789693e+003;6.079541e-002
1.791621e+003;5.912726e-002
1.793550e+003;5.945150e-002
1.795478e+003;6.095623e-002
1.797407e+003;6.116209e-002
1.799335e+003;6.073851e-002
1.801264e+003;6.045394e-002
1.803192e+003;6.068360e-002
1.805121e+003;6.071957e-002
1.807049e+003;6.047031e-002
1.808978e+003;6.019284e-002
1.810907e+003;6.007503e-002
1.812835e+003;6.026212e-002
1.814764e+003;6.059548e-002
1.816692e+003;6.056549e-002
1.818621e+003;6.052356e-002
1.820549e+003;6.040493e-002
1.822478e+003;6.014664e-002
1.824406e+003;5.950975e-002
1.826335e+003;5.953073e-002
1.828264e+003;5.911625e-002
1.830192e+003;5.892855e-002
1.832121e+003;5.992270e-002
1.834049e+003;6.028431e-002
1.835978e+003;5.986698e-002
1.837906e+003;5.961183e-002
1.839835e+003;5.970572e-002
1.841763e+003;5.899883e-002
1.843692e+003;5.759800e-002
1.845620e+003;5.820413e-002
1.847549e+003;5.930578e-002
1.849478e+003;5.939238e-002
1.851406e+003;5.945317e-002
1.853335e+003;5.955790e-002
1.855263e+003;5.948292e-002
1.857192e+003;5.920810e-002
1.859120e+003;5.921535e-002
1.861049e+003;5.948923e-002
1.862977e+003;5.947354e-002
1.864906e+003;5.915144e-002
1.866834e+003;5.854968e-002
1.868763e+003;5.815719e-002
1.870692e+003;5.863409e-002
1.872620e+003;5.928549e-002
1.874549e+003;5.956037e-002
1.876477e+003;5.944816e-002
1.878406e+003;5.930528e-002
1.880334e+003;5.937916e-002
1.882263e+003;5.938676e-002
1.884191e+003;5.936245e-002
1.886120e+003;5.930502e-002
1.888048e+003;5.893492e-002
1.889977e+003;5.875413e-002
1.891906e+003;5.917635e-002
1.893834e+003;5.930110e-002
1.895763e+003;5.915163e-002
1.897691e+003;5.902419e-002
1.899620e+003;5.916432e-002
1.901548e+003;5.923681e-002
1.903477e+003;5.908451e-002
1.905405e+003;5.903983e-002
1.907334e+003;5.913519e-002
1.909262e+003;5.906929e-002
1.911191e+003;5.928063e-002
1.913120e+003;5.955113e-002
1.915048e+003;5.951108e-002
1.916977e+003;5.900441e-002
1.918905e+003;5.894179e-002
1.920834e+003;5.924592e-002
1.922762e+003;5.924167e-002
1.924691e+003;5.940648e-002
1.926619e+003;5.972112e-002
1.928548e+003;5.982907e-002
1.930477e+003;5.981116e-002
1.932405e+003;5.991038e-002
1.934334e+003;6.016441e-002
1.936262e+003;6.017937e-002
1.938191e+003;6.012476e-002
1.940119e+003;6.006490e-002
1.942048e+003;5.987200e-002
1.943976e+003;6.000882e-002
1.945905e+003;6.021484e-002
1.947833e+003;6.035676e-002
1.949762e+003;6.047861e-002
1.951691e+003;6.043211e-002
1.953619e+003;6.031050e-002
1.955548e+003;6.048676e-002
1.957476e+003;6.067365e-002
1.959405e+003;6.050105e-002
1.961333e+003;6.040657e-002
1.963262e+003;6.041178e-002
1.965190e+003;6.041913e-002
1.967119e+003;6.038204e-002
1.969047e+003;6.058309e-002
1.970976e+003;6.075733e-002
1.972905e+003;6.082834e-002
1.974833e+003;6.071713e-002
1.976762e+003;6.045291e-002
1.978690e+003;6.031625e-002
1.980619e+003;6.047157e-002
1.982547e+003;6.062839e-002
1.984476e+003;6.080844e-002
1.986404e+003;6.084396e-002
1.988333e+003;6.065243e-002
1.990261e+003;6.047142e-002
1.992190e+003;6.047362e-002
1.994119e+003;6.088117e-002
1.996047e+003;6.124060e-002
1.997976e+003;6.126158e-002
1.999904e+003;6.106350e-002
2.001833e+003;6.088940e-002
2.003761e+003;6.089794e-002
2.005690e+003;6.087774e-002
2.007618e+003;6.085475e-002
2.009547e+003;6.074651e-002
2.011476e+003;6.081408e-002
2.013404e+003;6.113768e-002
2.015333e+003;6.120352e-002
2.017261e+003;6.101335e-002
2.019190e+003;6.113165e-002
2.021118e+003;6.125895e-002
2.023047e+003;6.138667e-002
2.024975e+003;6.144518e-002
2.026904e+003;6.149389e-002
2.028833e+003;6.153840e-002
2.030761e+003;6.150229e-002
2.032690e+003;6.145801e-002
2.034618e+003;6.155497e-002
2.036547e+003;6.158338e-002
2.038475e+003;6.159124e-002
2.040404e+003;6.164164e-002
2.042332e+003;6.166257e-002
2.044261e+003;6.164062e-002
2.046189e+003;6.160491e-002
2.048118e+003;6.171119e-002
2.050047e+003;6.190461e-002
2.051975e+003;6.206485e-002
2.053904e+003;6.198283e-002
2.055832e+003;6.163657e-002
2.057761e+003;6.146304e-002
2.059689e+003;6.152409e-002
2.061618e+003;6.157078e-002
2.063546e+003;6.150206e-002
2.065475e+003;6.126952e-002
2.067404e+003;6.127097e-002
2.069332e+003;6.154592e-002
2.071260e+003;6.169828e-002
2.073189e+003;6.160109e-002
2.075118e+003;6.144415e-002
2.077046e+003;6.128795e-002
2.078975e+003;6.123785e-002
2.080903e+003;6.132782e-002
2.082832e+003;6.117834e-002
2.084760e+003;6.115126e-002
2.086689e+003;6.125414e-002
2.088617e+003;6.131813e-002
2.090546e+003;6.133134e-002
2.092475e+003;6.109889e-002
2.094403e+003;6.090023e-002
2.096332e+003;6.116816e-002
2.098260e+003;6.158479e-002
2.100189e+003;6.163443e-002
2.102117e+003;6.136721e-002
2.104046e+003;6.107795e-002
2.105974e+003;6.096504e-002
2.107903e+003;6.109916e-002
2.109832e+003;6.147789e-002
2.111760e+003;6.143453e-002
2.113688e+003;6.129455e-002
2.115617e+003;6.141407e-002
2.117546e+003;6.143652e-002
2.119474e+003;6.111117e-002
2.121403e+003;6.094590e-002
2.123331e+003;6.131821e-002
2.125260e+003;6.177311e-002
2.127188e+003;6.187400e-002
2.129117e+003;6.182330e-002
2.131045e+003;6.186434e-002
2.132974e+003;6.204195e-002
2.134903e+003;6.187591e-002
2.136831e+003;6.172185e-002
2.138760e+003;6.193051e-002
2.140688e+003;6.190384e-002
2.142617e+003;6.186441e-002
2.144545e+003;6.168839e-002
2.146474e+003;6.138247e-002
2.148402e+003;6.129608e-002
2.150331e+003;6.161350e-002
2.152260e+003;6.173586e-002
2.154188e+003;6.194396e-002
2.156117e+003;6.205766e-002
2.158045e+003;6.175217e-002
2.159974e+003;6.132073e-002
2.161902e+003;6.106212e-002
2.163831e+003;6.100008e-002
2.165759e+003;6.092676e-002
2.167688e+003;6.086752e-002
2.169616e+003;6.093896e-002
2.171545e+003;6.086699e-002
2.173474e+003;6.085487e-002
2.175402e+003;6.067785e-002
2.177331e+003;6.031964e-002
2.179259e+003;6.025667e-002
2.181188e+003;6.020590e-002
2.183116e+003;6.018203e-002
2.185045e+003;6.028812e-002
2.186973e+003;6.034507e-002
2.188902e+003;6.006304e-002
2.190831e+003;5.971276e-002
2.192759e+003;5.958796e-002
2.194688e+003;5.959134e-002
2.196616e+003;5.971724e-002
2.198545e+003;5.989980e-002
2.200473e+003;6.006121e-002
2.202402e+003;5.990003e-002
2.204330e+003;5.979709e-002
2.206259e+003;5.982724e-002
2.208188e+003;5.961354e-002
2.210116e+003;5.945799e-002
2.212044e+003;5.965881e-002
2.213973e+003;5.972865e-002
2.215902e+003;5.986402e-002
2.217830e+003;5.998965e-002
2.219759e+003;6.000175e-002
2.221687e+003;6.003584e-002
2.223616e+003;5.994663e-002
2.225544e+003;5.997523e-002
2.227473e+003;5.991844e-002
2.229401e+003;5.988056e-002
2.231330e+003;6.001636e-002
2.233259e+003;6.027860e-002
2.235187e+003;6.032455e-002
2.237116e+003;6.010649e-002
2.239044e+003;5.996409e-002
2.240973e+003;6.000514e-002
2.242901e+003;6.009774e-002
2.244830e+003;6.012655e-002
2.246758e+003;6.016384e-002
2.248687e+003;6.013187e-002
2.250615e+003;5.998706e-002
2.252544e+003;5.997991e-002
2.254473e+003;5.996040e-002
2.256401e+003;5.983249e-002
2.258330e+003;5.979933e-002
2.260258e+003;5.981956e-002
2.262187e+003;5.973705e-002
2.264115e+003;5.944531e-002
2.266044e+003;5.928602e-002
2.267972e+003;5.931732e-002
2.269901e+003;5.932970e-002
2.271830e+003;5.914097e-002
2.273758e+003;5.887800e-002
2.275687e+003;5.894908e-002
2.277615e+003;5.922928e-002
2.279544e+003;5.920980e-002
2.281472e+003;5.921204e-002
2.283401e+003;5.915687e-002
2.285329e+003;5.902309e-002
2.287258e+003;5.908641e-002
2.289187e+003;5.899018e-002
2.291115e+003;5.864516e-002
2.293043e+003;5.866010e-002
2.294972e+003;5.880842e-002
2.296901e+003;5.863788e-002
2.298829e+003;5.862134e-002
2.300758e+003;5.851684e-002
2.302686e+003;5.833497e-002
2.304615e+003;5.839000e-002
2.306543e+003;5.840930e-002
2.308472e+003;5.833107e-002
2.310400e+003;5.826551e-002
2.312329e+003;5.839846e-002
2.314258e+003;5.877526e-002
2.316186e+003;5.869200e-002
2.318115e+003;5.828408e-002
2.320043e+003;5.823940e-002
2.321972e+003;5.823081e-002
2.323900e+003;5.803194e-002
2.325829e+003;5.792587e-002
2.327757e+003;5.793337e-002
2.329686e+003;5.774815e-002
2.331615e+003;5.743909e-002
2.333543e+003;5.743312e-002
2.335472e+003;5.755680e-002
2.337400e+003;5.747949e-002
2.339329e+003;5.754768e-002
2.341257e+003;5.793557e-002
2.343186e+003;5.832379e-002
2.345114e+003;5.860394e-002
2.347043e+003;5.865566e-002
2.348971e+003;5.859302e-002
2.350900e+003;5.868934e-002
2.352829e+003;5.862548e-002
2.354757e+003;5.832519e-002
2.356686e+003;5.811924e-002
2.358614e+003;5.815867e-002
2.360543e+003;5.830261e-002
2.362471e+003;5.841119e-002
2.364400e+003;5.837981e-002
2.366328e+003;5.838091e-002
2.368257e+003;5.847957e-002
2.370186e+003;5.902017e-002
2.372114e+003;5.932321e-002
2.374042e+003;5.951545e-002
2.375971e+003;5.981865e-002
2.377900e+003;6.018344e-002
2.379828e+003;6.020274e-002
2.381757e+003;6.011578e-002
2.383685e+003;6.037012e-002
2.385614e+003;6.068352e-002
2.387542e+003;6.066336e-002
2.389471e+003;6.063510e-002
2.391399e+003;6.065712e-002
2.393328e+003;6.066927e-002
2.395257e+003;6.076111e-002
2.397185e+003;6.075524e-002
2.399114e+003;6.061753e-002
2.401042e+003;6.063807e-002
2.402971e+003;6.083093e-002
2.404899e+003;6.113978e-002
2.406828e+003;6.132424e-002
2.408756e+003;6.121065e-002
2.410685e+003;6.095181e-002
2.412614e+003;6.118834e-002
2.414542e+003;6.162671e-002
2.416471e+003;6.157154e-002
2.418399e+003;6.158903e-002
2.420328e+003;6.184943e-002
2.422256e+003;6.195535e-002
2.424185e+003;6.206118e-002
2.426113e+003;6.225399e-002
2.428042e+003;6.218982e-002
2.429970e+003;6.211038e-002
2.431899e+003;6.224164e-002
2.433828e+003;6.239129e-002
2.435756e+003;6.224255e-002
2.437685e+003;6.213056e-002
2.439613e+003;6.214375e-002
2.441542e+003;6.222710e-002
2.443470e+003;6.248277e-002
2.445399e+003;6.258114e-002
2.447327e+003;6.245361e-002
2.449256e+003;6.244003e-002
2.451185e+003;6.263584e-002
2.453113e+003;6.274256e-002
2.455042e+003;6.262787e-002
2.456970e+003;6.267082e-002
2.458899e+003;6.276143e-002
2.460827e+003;6.287386e-002
2.462756e+003;6.288994e-002
2.464684e+003;6.291422e-002
2.466613e+003;6.297906e-002
2.468542e+003;6.337712e-002
2.470470e+003;6.360097e-002
2.472398e+003;6.346424e-002
2.474327e+003;6.319933e-002
2.476256e+003;6.315415e-002
2.478184e+003;6.333204e-002
2.480113e+003;6.328496e-002
2.482041e+003;6.339380e-002
2.483970e+003;6.357853e-002
2.485898e+003;6.357837e-002
2.487827e+003;6.341247e-002
2.489755e+003;6.356395e-002
2.491684e+003;6.341811e-002
2.493613e+003;6.340572e-002
2.495541e+003;6.342880e-002
2.497470e+003;6.350846e-002
2.499398e+003;6.387068e-002
2.501327e+003;6.415531e-002
2.503255e+003;6.431697e-002
2.505184e+003;6.427521e-002
2.507112e+003;6.390473e-002
2.509041e+003;6.403039e-002
2.510969e+003;6.467883e-002
2.512898e+003;6.487980e-002
2.514827e+003;6.479491e-002
2.516755e+003;6.471922e-002
2.518684e+003;6.484299e-002
2.520612e+003;6.496349e-002
2.522541e+003;6.492963e-002
2.524469e+003;6.513750e-002
2.526398e+003;6.522369e-002
2.528326e+003;6.509157e-002
2.530255e+003;6.525951e-002
2.532184e+003;6.535204e-002
2.534112e+003;6.530075e-002
2.536041e+003;6.540794e-002
2.537969e+003;6.526447e-002
2.539898e+003;6.499897e-002
2.541826e+003;6.499317e-002
2.543755e+003;6.495499e-002
2.545683e+003;6.511151e-002
2.547612e+003;6.522878e-002
2.549541e+003;6.533141e-002
2.551469e+003;6.562281e-002
2.553397e+003;6.573937e-002
2.555326e+003;6.567372e-002
2.557255e+003;6.575035e-002
2.559183e+003;6.589293e-002
2.561112e+003;6.596436e-002
2.563040e+003;6.588303e-002
2.564969e+003;6.580564e-002
2.566897e+003;6.579003e-002
2.568826e+003;6.600343e-002
2.570754e+003;6.611836e-002
2.572683e+003;6.601281e-002
2.574612e+003;6.593551e-002
2.576540e+003;6.592391e-002
2.578469e+003;6.602685e-002
2.580397e+003;6.599514e-002
2.582326e+003;6.597450e-002
2.584254e+003;6.615416e-002
2.586183e+003;6.622899e-002
2.588111e+003;6.636632e-002
2.590040e+003;6.662957e-002
2.591969e+003;6.650663e-002
2.593897e+003;6.626399e-002
2.595826e+003;6.628785e-002
2.597754e+003;6.645531e-002
2.599683e+003;6.650111e-002
2.601611e+003;6.681089e-002
2.603540e+003;6.700334e-002
2.605468e+003;6.699944e-002
2.607397e+003;6.704042e-002
2.609325e+003;6.705128e-002
2.611254e+003;6.710279e-002
2.613183e+003;6.726465e-002
2.615111e+003;6.735948e-002
2.617040e+003;6.734424e-002
2.618968e+003;6.726481e-002
2.620897e+003;6.717499e-002
2.622825e+003;6.760963e-002
2.624754e+003;6.794519e-002
2.626682e+003;6.780259e-002
2.628611e+003;6.792635e-002
2.630540e+003;6.825355e-002
2.632468e+003;6.819970e-002
2.634396e+003;6.800474e-002
2.636325e+003;6.793980e-002
2.638254e+003;6.797960e-002
2.640182e+003;6.815252e-002
2.642111e+003;6.825251e-002
2.644039e+003;6.806508e-002
2.645968e+003;6.820858e-002
2.647896e+003;6.839766e-002
2.649825e+003;6.827259e-002
2.651753e+003;6.850519e-002
2.653682e+003;6.874482e-002
2.655611e+003;6.856722e-002
2.657539e+003;6.864270e-002
2.659468e+003;6.883170e-002
2.661396e+003;6.898135e-002
2.663325e+003;6.890097e-002
2.665253e+003;6.867938e-002
2.667182e+003;6.866769e-002
2.669110e+003;6.891285e-002
2.671039e+003;6.889378e-002
2.672968e+003;6.887930e-002
2.674896e+003;6.910056e-002
2.676825e+003;6.915429e-002
2.678753e+003;6.897603e-002
2.680682e+003;6.910712e-002
2.682610e+003;6.941123e-002
2.684539e+003;6.973702e-002
2.686467e+003;6.987013e-002
2.688396e+003;6.982647e-002
2.690324e+003;6.990691e-002
2.692253e+003;6.997199e-002
2.694182e+003;6.994031e-002
2.696110e+003;7.040340e-002
2.698039e+003;7.073301e-002
2.699967e+003;7.057059e-002
2.701896e+003;7.049860e-002
2.703824e+003;7.088906e-002
2.705753e+003;7.106483e-002
2.707681e+003;7.094516e-002
2.709610e+003;7.100891e-002
2.711539e+003;7.102460e-002
2.713467e+003;7.103283e-002
2.715396e+003;7.146619e-002
2.717324e+003;7.173317e-002
2.719253e+003;7.162629e-002
2.721181e+003;7.142248e-002
2.723110e+003;7.149861e-002
2.725038e+003;7.203806e-002
2.726967e+003;7.223605e-002
2.728896e+003;7.211903e-002
2.730824e+003;7.230731e-002
2.732752e+003;7.227620e-002
2.734681e+003;7.194451e-002
2.736610e+003;7.214469e-002
2.738538e+003;7.273600e-002
2.740467e+003;7.245661e-002
2.742395e+003;7.227170e-002
2.744324e+003;7.257243e-002
2.746252e+003;7.268001e-002
2.748181e+003;7.279488e-002
2.750109e+003;7.282238e-002
2.752038e+003;7.302426e-002
2.753967e+003;7.341370e-002
2.755895e+003;7.362575e-002
2.757824e+003;7.364491e-002
2.759752e+003;7.358328e-002
2.761681e+003;7.335626e-002
2.763609e+003;7.338620e-002
2.765538e+003;7.357040e-002
2.767466e+003;7.342897e-002
2.769395e+003;7.384320e-002
2.771323e+003;7.448217e-002
2.773252e+003;7.463327e-002
2.775181e+003;7.457036e-002
2.777109e+003;7.447119e-002
2.779038e+003;7.457595e-002
2.780966e+003;7.477096e-002
2.782895e+003;7.521256e-002
2.784823e+003;7.551273e-002
2.786752e+003;7.556509e-002
2.788680e+003;7.597604e-002
2.790609e+003;7.635929e-002
2.792538e+003;7.634953e-002
2.794466e+003;7.642064e-002
2.796395e+003;7.683560e-002
2.798323e+003;7.735362e-002
2.800252e+003;7.758725e-002
2.802180e+003;7.766435e-002
2.804109e+003;7.793532e-002
2.806037e+003;7.842155e-002
2.807966e+003;7.906920e-002
2.809895e+003;7.951707e-002
2.811823e+003;7.954340e-002
2.813751e+003;7.980043e-002
2.815680e+003;8.054921e-002
2.817609e+003;8.113545e-002
2.819537e+003;8.118802e-002
2.821466e+003;8.150106e-002
2.823394e+003;8.253461e-002
2.825323e+003;8.347517e-002
2.827251e+003;8.425450e-002
2.829180e+003;8.502832e-002
2.831108e+003;8.599959e-002
2.833037e+003;8.748759e-002
2.834966e+003;8.896608e-002
2.836894e+003;9.062944e-002
2.838823e+003;9.320996e-002
2.840751e+003;9.665310e-002
2.842680e+003;1.007850e-001
2.844608e+003;1.064671e-001
2.846537e+003;1.148952e-001
2.848465e+003;1.248840e-001
2.850394e+003;1.302251e-001
2.852323e+003;1.277992e-001
2.854251e+003;1.212114e-001
2.856180e+003;1.146787e-001
2.858108e+003;1.105715e-001
2.860037e+003;1.087719e-001
2.861965e+003;1.078581e-001
2.863894e+003;1.078266e-001
2.865822e+003;1.087625e-001
2.867751e+003;1.095799e-001
2.869679e+003;1.101120e-001
2.871608e+003;1.111528e-001
2.873536e+003;1.120514e-001
2.875465e+003;1.120497e-001
2.877394e+003;1.119600e-001
2.879322e+003;1.120989e-001
2.881251e+003;1.123303e-001
2.883179e+003;1.127826e-001
2.885108e+003;1.135397e-001
2.887036e+003;1.149155e-001
2.888965e+003;1.161264e-001
2.890893e+003;1.169036e-001
2.892822e+003;1.180349e-001
2.894750e+003;1.192201e-001
2.896679e+003;1.204667e-001
2.898608e+003;1.217678e-001
2.900536e+003;1.226209e-001
2.902465e+003;1.231648e-001
2.904393e+003;1.241998e-001
2.906322e+003;1.258862e-001
2.908250e+003;1.278502e-001
2.910179e+003;1.306687e-001
2.912107e+003;1.351170e-001
2.914036e+003;1.408449e-001
2.915965e+003;1.470636e-001
2.917893e+003;1.516169e-001
2.919822e+003;1.528954e-001
2.921750e+003;1.507724e-001
2.923679e+003;1.460254e-001
2.925607e+003;1.398094e-001
2.927536e+003;1.337608e-001
2.929464e+003;1.281774e-001
2.931393e+003;1.232490e-001
2.933322e+003;1.190347e-001
2.935250e+003;1.152517e-001
2.937178e+003;1.124840e-001
2.939107e+003;1.102932e-001
2.941036e+003;1.084609e-001
2.942964e+003;1.067912e-001
2.944893e+003;1.054561e-001
2.946821e+003;1.043367e-001
2.948750e+003;1.031684e-001
2.950678e+003;1.023397e-001
2.952607e+003;1.019955e-001
2.954535e+003;1.015736e-001
2.956464e+003;1.013212e-001
2.958393e+003;1.016302e-001
2.960321e+003;1.017070e-001
2.962250e+003;1.006375e-001
2.964178e+003;9.899313e-002
2.966107e+003;9.743182e-002
2.968035e+003;9.581255e-002
2.969964e+003;9.344686e-002
2.971892e+003;9.108923e-002
2.973821e+003;8.926228e-002
2.975750e+003;8.692271e-002
2.977678e+003;8.463139e-002
2.979607e+003;8.261384e-002
2.981535e+003;8.101018e-002
2.983464e+003;7.972331e-002
2.985392e+003;7.852861e-002
2.987321e+003;7.725168e-002
2.989249e+003;7.626133e-002
2.991178e+003;7.581894e-002
2.993106e+003;7.520496e-002
2.995035e+003;7.440732e-002
2.996964e+003;7.378606e-002
2.998892e+003;7.375578e-002
3.000821e+003;7.382333e-002
3.002749e+003;7.352142e-002
3.004678e+003;7.338671e-002
3.006606e+003;7.339773e-002
3.008535e+003;7.354167e-002
3.010463e+003;7.357554e-002
3.012392e+003;7.356118e-002
3.014321e+003;7.367435e-002
3.016249e+003;7.404708e-002
3.018177e+003;7.404217e-002
3.020106e+003;7.394564e-002
3.022035e+003;7.459263e-002
3.023963e+003;7.523569e-002
3.025892e+003;7.531347e-002
3.027820e+003;7.539699e-002
3.029749e+003;7.581539e-002
3.031677e+003;7.622863e-002
3.033606e+003;7.617047e-002
3.035534e+003;7.609632e-002
3.037463e+003;7.598259e-002
3.039392e+003;7.566041e-002
3.041320e+003;7.564183e-002
3.043249e+003;7.595579e-002
3.045177e+003;7.629474e-002
3.047106e+003;7.656650e-002
3.049034e+003;7.682259e-002
3.050963e+003;7.706638e-002
3.052891e+003;7.713234e-002
3.054820e+003;7.746232e-002
3.056749e+003;7.801435e-002
3.058677e+003;7.835206e-002
3.060606e+003;7.825115e-002
3.062534e+003;7.809696e-002
3.064463e+003;7.806757e-002
3.066391e+003;7.859249e-002
3.068320e+003;7.923551e-002
3.070248e+003;7.948241e-002
3.072177e+003;7.941565e-002
3.074105e+003;7.901693e-002
3.076034e+003;7.900663e-002
3.077963e+003;7.954393e-002
3.079891e+003;7.990724e-002
3.081820e+003;8.039819e-002
3.083748e+003;8.089735e-002
3.085677e+003;8.134024e-002
3.087605e+003;8.144171e-002
3.089534e+003;8.135322e-002
3.091462e+003;8.156766e-002
3.093391e+003;8.183633e-002
3.095320e+003;8.214644e-002
3.097248e+003;8.228389e-002
3.099177e+003;8.281543e-002
3.101105e+003;8.330458e-002
3.103034e+003;8.340820e-002
3.104962e+003;8.323619e-002
3.106891e+003;8.331437e-002
3.108819e+003;8.344273e-002
3.110748e+003;8.356569e-002
3.112677e+003;8.374032e-002
3.114605e+003;8.409723e-002
3.116533e+003;8.423426e-002
3.118462e+003;8.449657e-002
3.120391e+003;8.523822e-002
3.122319e+003;8.546080e-002
3.124248e+003;8.546370e-002
3.126176e+003;8.637073e-002
3.128105e+003;8.708092e-002
3.130033e+003;8.692125e-002
3.131962e+003;8.700412e-002
3.133890e+003;8.724275e-002
3.135819e+003;8.765643e-002
3.137748e+003;8.808017e-002
3.139676e+003;8.845309e-002
3.141605e+003;8.880072e-002
3.143533e+003;8.918411e-002
3.145462e+003;8.983161e-002
3.147390e+003;9.044477e-002
3.149319e+003;9.087454e-002
3.151247e+003;9.103967e-002
3.153176e+003;9.132137e-002
3.155104e+003;9.150667e-002
3.157033e+003;9.188067e-002
3.158962e+003;9.251256e-002
3.160890e+003;9.351170e-002
3.162819e+003;9.422215e-002
3.164747e+003;9.420828e-002
3.166676e+003;9.449876e-002
3.168604e+003;9.528258e-002
3.170533e+003;9.611825e-002
3.172461e+003;9.630359e-002
3.174390e+003;9.642620e-002
3.176319e+003;9.698784e-002
3.178247e+003;9.785379e-002
3.180176e+003;9.817899e-002
3.182104e+003;9.858697e-002
3.184033e+003;9.892958e-002
3.185961e+003;9.926689e-002
3.187890e+003;9.957686e-002
3.189818e+003;9.959678e-002
3.191747e+003;1.005118e-001
3.193676e+003;1.018665e-001
3.195604e+003;1.025851e-001
3.197532e+003;1.030559e-001
3.199461e+003;1.032057e-001
3.201390e+003;1.032711e-001
3.203318e+003;1.034808e-001
3.205247e+003;1.042757e-001
3.207175e+003;1.051929e-001
3.209104e+003;1.060891e-001
3.211032e+003;1.067242e-001
3.212961e+003;1.072308e-001
3.214889e+003;1.078584e-001
3.216818e+003;1.088291e-001
3.218747e+003;1.093034e-001
3.220675e+003;1.091147e-001
3.222604e+003;1.097601e-001
3.224532e+003;1.107705e-001
3.226461e+003;1.115036e-001
3.228389e+003;1.124158e-001
3.230318e+003;1.131581e-001
3.232246e+003;1.139384e-001
3.234175e+003;1.144958e-001
3.236104e+003;1.148681e-001
3.238032e+003;1.157518e-001
3.239961e+003;1.165450e-001
3.241889e+003;1.172802e-001
3.243818e+003;1.181334e-001
3.245746e+003;1.193091e-001
3.247675e+003;1.206284e-001
3.249603e+003;1.216570e-001
3.251532e+003;1.222492e-001
3.253460e+003;1.229653e-001
3.255389e+003;1.236827e-001
3.257318e+003;1.243545e-001
3.259246e+003;1.251569e-001
3.261175e+003;1.262133e-001
3.263103e+003;1.271399e-001
3.265032e+003;1.276270e-001
3.266960e+003;1.281500e-001
3.268889e+003;1.288214e-001
3.270817e+003;1.289352e-001
3.272746e+003;1.289525e-001
3.274675e+003;1.295536e-001
3.276603e+003;1.299096e-001
3.278531e+003;1.304197e-001
3.280460e+003;1.314073e-001
3.282389e+003;1.318116e-001
3.284317e+003;1.318523e-001
3.286246e+003;1.319233e-001
3.288174e+003;1.318316e-001
3.290103e+003;1.315038e-001
3.292031e+003;1.312272e-001
3.293960e+003;1.308808e-001
3.295888e+003;1.309416e-001
3.297817e+003;1.309738e-001
3.299746e+003;1.306695e-001
3.301674e+003;1.302090e-001
3.303603e+003;1.299112e-001
3.305531e+003;1.302004e-001
3.307460e+003;1.302740e-001
3.309388e+003;1.301461e-001
3.311317e+003;1.304451e-001
3.313245e+003;1.307487e-001
3.315174e+003;1.312024e-001
3.317103e+003;1.314152e-001
3.319031e+003;1.321274e-001
3.320960e+003;1.325083e-001
3.322888e+003;1.322786e-001
3.324817e+003;1.329966e-001
3.326745e+003;1.339325e-001
3.328674e+003;1.342291e-001
3.330602e+003;1.346101e-001
3.332531e+003;1.347267e-001
3.334459e+003;1.343986e-001
3.336388e+003;1.334679e-001
3.338317e+003;1.321887e-001
3.340245e+003;1.312757e-001
3.342174e+003;1.305731e-001
3.344102e+003;1.298905e-001
3.346031e+003;1.288853e-001
3.347959e+003;1.276113e-001
3.349888e+003;1.268657e-001
3.351816e+003;1.260270e-001
3.353745e+003;1.249120e-001
3.355674e+003;1.240700e-001
3.357602e+003;1.229769e-001
3.359531e+003;1.217708e-001
3.361459e+003;1.206669e-001
3.363388e+003;1.195395e-001
3.365316e+003;1.187940e-001
3.367245e+003;1.180555e-001
3.369173e+003;1.172627e-001
3.371102e+003;1.166563e-001
3.373031e+003;1.163171e-001
3.374959e+003;1.159826e-001
3.376887e+003;1.150460e-001
3.378816e+003;1.137565e-001
3.380745e+003;1.131181e-001
3.382673e+003;1.126912e-001
3.384602e+003;1.119152e-001
3.386530e+003;1.115248e-001
3.388459e+003;1.114339e-001
3.390387e+003;1.107560e-001
3.392316e+003;1.102406e-001
3.394244e+003;1.102918e-001
3.396173e+003;1.097260e-001
3.398102e+003;1.088402e-001
3.400030e+003;1.083604e-001
3.401959e+003;1.077357e-001
3.403887e+003;1.065341e-001
3.405816e+003;1.052957e-001
3.407744e+003;1.045159e-001
3.409673e+003;1.040420e-001
3.411601e+003;1.035271e-001
3.413530e+003;1.023364e-001
3.415458e+003;1.003155e-001
3.417387e+003;9.891207e-002
3.419316e+003;9.813692e-002
3.421244e+003;9.754296e-002
3.423173e+003;9.705649e-002
3.425101e+003;9.691225e-002
3.427030e+003;9.652608e-002
3.428958e+003;9.527557e-002
3.430887e+003;9.397459e-002
3.432815e+003;9.326643e-002
3.434744e+003;9.255705e-002
3.436673e+003;9.154824e-002
3.438601e+003;9.102973e-002
3.440530e+003;9.055997e-002
3.442458e+003;8.953624e-002
3.444387e+003;8.858094e-002
3.446315e+003;8.765116e-002
3.448244e+003;8.698602e-002
3.450172e+003;8.610033e-002
3.452101e+003;8.507963e-002
3.454030e+003;8.440912e-002
3.455958e+003;8.368837e-002
3.457886e+003;8.307087e-002
3.459815e+003;8.246093e-002
3.461744e+003;8.167142e-002
3.463672e+003;8.075376e-002
3.465601e+003;8.040417e-002
3.467529e+003;8.018660e-002
3.469458e+003;7.918569e-002
3.471386e+003;7.825377e-002
3.473315e+003;7.790440e-002
3.475243e+003;7.706326e-002
3.477172e+003;7.607646e-002
3.479101e+003;7.561647e-002
3.481029e+003;7.501139e-002
3.482958e+003;7.423377e-002
3.484886e+003;7.313871e-002
3.486815e+003;7.227937e-002
3.488743e+003;7.182050e-002
3.490672e+003;7.108742e-002
3.492600e+003;7.051995e-002
3.494529e+003;6.997168e-002
3.496458e+003;6.925703e-002
3.498386e+003;6.877847e-002
3.500315e+003;6.845790e-002
3.502243e+003;6.763410e-002
3.504172e+003;6.681035e-002
3.506100e+003;6.671684e-002
3.508029e+003;6.622574e-002
3.509957e+003;6.545439e-002
3.511886e+003;6.483322e-002
3.513814e+003;6.423717e-002
3.515743e+003;6.392550e-002
3.517672e+003;6.381488e-002
3.519600e+003;6.289909e-002
3.521529e+003;6.137552e-002
3.523457e+003;6.041947e-002
3.525386e+003;6.058012e-002
3.527314e+003;6.031050e-002
3.529243e+003;5.983747e-002
3.531171e+003;5.982199e-002
3.533100e+003;5.927900e-002
3.535029e+003;5.847814e-002
3.536957e+003;5.762604e-002
3.538885e+003;5.704648e-002
3.540814e+003;5.665849e-002
3.542743e+003;5.572789e-002
3.544671e+003;5.476366e-002
3.546600e+003;5.452658e-002
3.548528e+003;5.476347e-002
3.550457e+003;5.419470e-002
3.552385e+003;5.350938e-002
3.554314e+003;5.332578e-002
3.556242e+003;5.300095e-002
3.558171e+003;5.264397e-002
3.560100e+003;5.194257e-002
3.562028e+003;5.087690e-002
3.563957e+003;4.960741e-002
3.565885e+003;4.834052e-002
3.567814e+003;4.832608e-002
3.569742e+003;4.917599e-002
3.571671e+003;4.906253e-002
3.573599e+003;4.825323e-002
3.575528e+003;4.815727e-002
3.577457e+003;4.830708e-002
3.579385e+003;4.734527e-002
3.581314e+003;4.661688e-002
3.583242e+003;4.659870e-002
3.585171e+003;4.600492e-002
3.587099e+003;4.498277e-002
3.589028e+003;4.512167e-002
3.590956e+003;4.551126e-002
3.592885e+003;4.467649e-002
3.594813e+003;4.384527e-002
3.596742e+003;4.385740e-002
3.598671e+003;4.380199e-002
3.600599e+003;4.358734e-002
3.602528e+003;4.345549e-002
3.604456e+003;4.308552e-002
3.606385e+003;4.229710e-002
3.608313e+003;4.089671e-002
3.610242e+003;4.060873e-002
3.612170e+003;4.055303e-002
3.614099e+003;4.027855e-002
3.616028e+003;3.994069e-002
3.617956e+003;3.927778e-002
3.619885e+003;3.941552e-002
3.621813e+003;4.001182e-002
3.623742e+003;3.965646e-002
3.625670e+003;3.837783e-002
3.627599e+003;3.570235e-002
3.629527e+003;3.566412e-002
3.631456e+003;3.813467e-002
3.633385e+003;3.859987e-002
3.635313e+003;3.865087e-002
3.637241e+003;3.900142e-002
3.639170e+003;3.890921e-002
3.641099e+003;3.848075e-002
3.643027e+003;3.811408e-002
3.644956e+003;3.702638e-002
3.646884e+003;3.437809e-002
3.648813e+003;3.237500e-002
3.650741e+003;3.318161e-002
3.652670e+003;3.515666e-002
3.654598e+003;3.442356e-002
3.656527e+003;3.371630e-002
3.658456e+003;3.497562e-002
3.660384e+003;3.546924e-002
3.662313e+003;3.512041e-002
3.664241e+003;3.471555e-002
3.666170e+003;3.440979e-002
3.668098e+003;3.266997e-002
3.670027e+003;3.105840e-002
3.671955e+003;3.173996e-002
3.673884e+003;2.956412e-002
3.675813e+003;2.840087e-002
3.677741e+003;3.117854e-002
3.679669e+003;3.279062e-002
3.681598e+003;3.323536e-002
3.683527e+003;3.268848e-002
3.685455e+003;3.174167e-002
3.687384e+003;2.914137e-002
3.689312e+003;2.834824e-002
3.691241e+003;3.022522e-002
3.693169e+003;3.167791e-002
3.695098e+003;3.202194e-002
3.697026e+003;3.189976e-002
3.698955e+003;3.150697e-002
3.700884e+003;3.127375e-002
3.702812e+003;3.177144e-002
3.704741e+003;3.168133e-002
3.706669e+003;3.081543e-002
3.708598e+003;2.961718e-002
3.710526e+003;2.837653e-002
3.712455e+003;2.825540e-002
3.714383e+003;2.987248e-002
3.716312e+003;3.100979e-002
3.718240e+003;3.088864e-002
3.720169e+003;3.035116e-002
3.722098e+003;2.971013e-002
3.724026e+003;2.928071e-002
3.725955e+003;2.916532e-002
3.727883e+003;3.000564e-002
3.729812e+003;2.974487e-002
3.731740e+003;2.806933e-002
3.733669e+003;2.719180e-002
3.735597e+003;2.679091e-002
3.737526e+003;2.835014e-002
3.739455e+003;2.970690e-002
3.741383e+003;2.823921e-002
3.743312e+003;2.398224e-002
3.745240e+003;2.440199e-002
3.747169e+003;2.631620e-002
3.749097e+003;2.461886e-002
3.751026e+003;2.436120e-002
3.752954e+003;2.730801e-002
3.754883e+003;2.997667e-002
3.756812e+003;2.971407e-002
3.758740e+003;2.970924e-002
3.760668e+003;3.011863e-002
3.762597e+003;3.028763e-002
3.764526e+003;2.996591e-002
3.766454e+003;3.031488e-002
3.768383e+003;2.942025e-002
3.770311e+003;2.919317e-002
3.772240e+003;3.000503e-002
3.774168e+003;3.105317e-002
3.776097e+003;3.111656e-002
3.778025e+003;3.053554e-002
3.779954e+003;3.062513e-002
3.781883e+003;3.071776e-002
3.783811e+003;3.029854e-002
3.785740e+003;3.012804e-002
3.787668e+003;3.076243e-002
3.789597e+003;3.186328e-002
3.791525e+003;3.170389e-002
3.793454e+003;3.100079e-002
3.795382e+003;3.013006e-002
3.797311e+003;3.035741e-002
3.799240e+003;2.883529e-002
3.801168e+003;2.695418e-002
3.803097e+003;2.904925e-002
3.805025e+003;2.953333e-002
3.806954e+003;2.884496e-002
3.808882e+003;3.013255e-002
3.810811e+003;3.093496e-002
3.812739e+003;3.081681e-002
3.814668e+003;2.835124e-002
3.816596e+003;2.788663e-002
3.818525e+003;2.928263e-002
3.820454e+003;2.742824e-002
3.822382e+003;2.744606e-002
3.824311e+003;2.908475e-002
3.826239e+003;3.027314e-002
3.828168e+003;3.097958e-002
3.830096e+003;2.999378e-002
3.832025e+003;2.952397e-002
3.833953e+003;2.950652e-002
3.835882e+003;2.805862e-002
3.837811e+003;2.687052e-002
3.839739e+003;2.826134e-002
3.841667e+003;2.930428e-002
3.843596e+003;2.969569e-002
3.845525e+003;3.096496e-002
3.847453e+003;3.196356e-002
3.849382e+003;3.040418e-002
3.851310e+003;2.562117e-002
3.853239e+003;2.239444e-002
3.855167e+003;2.675700e-002
3.857096e+003;3.118370e-002
3.859024e+003;3.149375e-002
3.860953e+003;3.101029e-002
3.862882e+003;2.984774e-002
3.864810e+003;2.930595e-002
3.866739e+003;2.991838e-002
3.868667e+003;2.845619e-002
3.870596e+003;2.897178e-002
3.872524e+003;3.068967e-002
3.874453e+003;3.154955e-002
3.876381e+003;3.242977e-002
3.878310e+003;3.119481e-002
3.880239e+003;2.982450e-002
3.882167e+003;3.003777e-002
3.884096e+003;2.972123e-002
3.886024e+003;2.996914e-002
3.887953e+003;3.127638e-002
3.889881e+003;3.083940e-002
3.891810e+003;3.076506e-002
3.893738e+003;3.181821e-002
3.895667e+003;3.250189e-002
3.897595e+003;3.156194e-002
3.899524e+003;3.055779e-002
3.901453e+003;3.010637e-002
3.903381e+003;2.949879e-002
3.905310e+003;3.051702e-002
3.907238e+003;3.265614e-002
3.909167e+003;3.380547e-002
3.911095e+003;3.345436e-002
3.913024e+003;3.300021e-002
3.914952e+003;3.250782e-002
3.916881e+003;3.210717e-002
3.918810e+003;3.225029e-002
3.920738e+003;3.191060e-002
3.922667e+003;3.136050e-002
3.924595e+003;3.203008e-002
3.926524e+003;3.328147e-002
3.928452e+003;3.301376e-002
3.930381e+003;3.176003e-002
3.932309e+003;3.143675e-002
3.934238e+003;3.232260e-002
3.936167e+003;3.266447e-002
3.938095e+003;3.240474e-002
3.940023e+003;3.210556e-002
3.941952e+003;3.200753e-002
3.943881e+003;3.218887e-002
3.945809e+003;3.233052e-002
3.947738e+003;3.222210e-002
3.949666e+003;3.262100e-002
3.951595e+003;3.341135e-002
3.953523e+003;3.395879e-002
3.955452e+003;3.374960e-002
3.957380e+003;3.340856e-002
3.959309e+003;3.401788e-002
3.961238e+003;3.451722e-002
3.963166e+003;3.425921e-002
3.965095e+003;3.390519e-002
3.967023e+003;3.378631e-002
3.968952e+003;3.415711e-002
3.970880e+003;3.461112e-002
3.972809e+003;3.367895e-002
3.974737e+003;3.275235e-002
3.976666e+003;3.270630e-002
3.978594e+003;3.335464e-002
3.980523e+003;3.300010e-002
3.982452e+003;3.265486e-002
3.984380e+003;3.374151e-002
3.986309e+003;3.450345e-002
3.988237e+003;3.444193e-002
3.990166e+003;3.415041e-002
3.992094e+003;3.381872e-002
3.994023e+003;3.352823e-002
3.995951e+003;3.333703e-002
3.997880e+003;3.324019e-002
3.999809e+003;3.343998e-002
4.001737e+003;0.000000e+000
