3.992094e+002;0.000000e+000
4.011380e+002;0.000000e+000
4.030665e+002;0.000000e+000
4.049951e+002;0.000000e+000
4.069236e+002;0.000000e+000
4.088522e+002;0.000000e+000
4.107807e+002;0.000000e+000
4.127093e+002;0.000000e+000
4.146378e+002;0.000000e+000
4.165664e+002;0.000000e+000
4.184949e+002;0.000000e+000
4.204235e+002;0.000000e+000
4.223520e+002;0.000000e+000
4.242806e+002;0.000000e+000
4.262091e+002;0.000000e+000
4.281377e+002;0.000000e+000
4.300662e+002;0.000000e+000
4.319948e+002;0.000000e+000
4.339233e+002;0.000000e+000
4.358519e+002;0.000000e+000
4.377804e+002;0.000000e+000
4.397090e+002;0.000000e+000
4.416375e+002;0.000000e+000
4.435660e+002;0.000000e+000
4.454946e+002;0.000000e+000
4.474232e+002;0.000000e+000
4.493517e+002;0.000000e+000
4.512802e+002;0.000000e+000
4.532088e+002;0.000000e+000
4.551373e+002;0.000000e+000
4.570659e+002;0.000000e+000
4.589944e+002;0.000000e+000
4.609230e+002;0.000000e+000
4.628515e+002;0.000000e+000
4.647801e+002;0.000000e+000
4.667086e+002;0.000000e+000
4.686372e+002;0.000000e+000
4.705657e+002;0.000000e+000
4.724943e+002;0.000000e+000
4.744228e+002;0.000000e+000
4.763513e+002;0.000000e+000
4.782799e+002;0.000000e+000
4.802085e+002;0.000000e+000
4.821370e+002;0.000000e+000
4.840656e+002;0.000000e+000
4.859941e+002;0.000000e+000
4.879226e+002;0.000000e+000
4.898512e+002;0.000000e+000
4.917798e+002;0.000000e+000
4.937083e+002;0.000000e+000
4.956368e+002;0.000000e+000
4.975654e+002;0.000000e+000
4.994939e+002;0.000000e+000
5.014225e+002;0.000000e+000
5.033510e+002;0.000000e+000
5.052796e+002;0.000000e+000
5.072081e+002;0.000000e+000
5.091367e+002;0.000000e+000
5.110652e+002;0.000000e+000
5.129938e+002;0.000000e+000
5.149223e+002;0.000000e+000
5.168509e+002;0.000000e+000
5.187794e+002;0.000000e+000
5.207079e+002;0.000000e+000
5.226365e+002;0.000000e+000
5.245651e+002;0.000000e+000
5.264936e+002;0.000000e+000
5.284222e+002;0.000000e+000
5.303507e+002;0.000000e+000
5.322792e+002;0.000000e+000
5.342078e+002;0.000000e+000
5.361364e+002;0.000000e+000
5.380649e+002;0.000000e+000
5.399935e+002;0.000000e+000
5.419220e+002;0.000000e+000
5.438505e+002;0.000000e+000
5.457791e+002;0.000000e+000
5.477076e+002;0.000000e+000
5.496362e+002;0.000000e+000
5.515648e+002;0.000000e+000
5.534933e+002;0.000000e+000
5.554218e+002;0.000000e+000
5.573504e+002;0.000000e+000
5.592789e+002;0.000000e+000
5.612075e+002;0.000000e+000
5.631360e+002;0.000000e+000
5.650646e+002;0.000000e+000
5.669931e+002;0.000000e+000
5.689217e+002;0.000000e+000
5.708502e+002;0.000000e+000
5.727787e+002;0.000000e+000
5.747073e+002;0.000000e+000
5.766359e+002;0.000000e+000
5.785644e+002;0.000000e+000
5.804930e+002;0.000000e+000
5.824215e+002;0.000000e+000
5.843500e+002;0.000000e+000
5.862786e+002;0.000000e+000
5.882072e+002;0.000000e+000
5.901357e+002;0.000000e+000
5.920643e+002;0.000000e+000
5.939928e+002;0.000000e+000
5.959213e+002;0.000000e+000
5.978499e+002;0.000000e+000
5.997784e+002;2.780270e-001
6.017070e+002;2.704041e-001
6.036355e+002;2.737803e-001
6.055641e+002;2.788372e-001
6.074926e+002;2.849271e-001
6.094211e+002;2.887864e-001
6.113497e+002;2.872663e-001
6.132783e+002;2.841397e-001
6.152068e+002;2.830655e-001
6.171354e+002;2.834595e-001
6.190639e+002;2.787963e-001
6.209924e+002;2.717200e-001
6.229210e+002;2.649302e-001
6.248495e+002;2.622570e-001
6.267781e+002;2.613236e-001
6.287067e+002;2.582969e-001
6.306352e+002;2.562410e-001
6.325637e+002;2.498975e-001
6.344923e+002;2.443408e-001
6.364208e+002;2.401995e-001
6.383494e+002;2.413212e-001
6.402780e+002;2.388521e-001
6.422065e+002;2.347281e-001
6.441350e+002;2.382437e-001
6.460636e+002;2.389918e-001
6.479921e+002;2.345979e-001
6.499207e+002;2.336157e-001
6.518492e+002;2.355747e-001
6.537778e+002;2.409398e-001
6.557063e+002;2.473264e-001
6.576349e+002;2.528372e-001
6.595634e+002;2.605736e-001
6.614919e+002;2.645597e-001
6.634205e+002;2.628968e-001
6.653491e+002;2.600244e-001
6.672776e+002;2.544424e-001
6.692062e+002;2.490778e-001
6.711347e+002;2.448398e-001
6.730632e+002;2.376122e-001
6.749918e+002;2.317380e-001
6.769203e+002;2.275067e-001
6.788489e+002;2.211477e-001
6.807775e+002;2.169140e-001
6.827060e+002;2.153903e-001
6.846345e+002;2.135163e-001
6.865631e+002;2.132850e-001
6.884916e+002;2.139477e-001
6.904202e+002;2.142982e-001
6.923488e+002;2.165482e-001
6.942773e+002;2.187691e-001
6.962058e+002;2.218074e-001
6.981344e+002;2.255217e-001
7.000629e+002;2.271561e-001
7.019915e+002;2.253917e-001
7.039200e+002;2.196368e-001
7.058486e+002;2.127519e-001
7.077771e+002;2.074357e-001
7.097057e+002;2.020223e-001
7.116342e+002;1.973163e-001
7.135627e+002;1.947115e-001
7.154913e+002;1.919458e-001
7.174199e+002;1.867887e-001
7.193484e+002;1.807316e-001
7.212770e+002;1.758657e-001
7.232055e+002;1.715060e-001
7.251340e+002;1.669174e-001
7.270626e+002;1.636273e-001
7.289911e+002;1.617241e-001
7.309197e+002;1.599087e-001
7.328483e+002;1.573580e-001
7.347768e+002;1.555433e-001
7.367053e+002;1.541780e-001
7.386339e+002;1.512262e-001
7.405624e+002;1.492644e-001
7.424910e+002;1.491395e-001
7.444196e+002;1.476735e-001
7.463481e+002;1.460697e-001
7.482766e+002;1.452784e-001
7.502052e+002;1.438466e-001
7.521337e+002;1.423848e-001
7.540623e+002;1.425710e-001
7.559908e+002;1.431543e-001
7.579194e+002;1.428297e-001
7.598479e+002;1.425774e-001
7.617765e+002;1.422075e-001
7.637050e+002;1.398014e-001
7.656335e+002;1.377420e-001
7.675621e+002;1.366840e-001
7.694907e+002;1.346067e-001
7.714192e+002;1.326754e-001
7.733478e+002;1.313483e-001
7.752763e+002;1.304585e-001
7.772048e+002;1.298807e-001
7.791334e+002;1.293675e-001
7.810620e+002;1.289520e-001
7.829905e+002;1.284974e-001
7.849191e+002;1.283687e-001
7.868476e+002;1.285988e-001
7.887761e+002;1.290438e-001
7.907047e+002;1.292322e-001
7.926332e+002;1.294471e-001
7.945618e+002;1.305068e-001
7.964903e+002;1.309209e-001
7.984189e+002;1.308848e-001
8.003474e+002;1.313138e-001
8.022759e+002;1.316600e-001
8.042045e+002;1.316126e-001
8.061331e+002;1.317709e-001
8.080616e+002;1.318242e-001
8.099902e+002;1.314376e-001
8.119187e+002;1.310436e-001
8.138472e+002;1.310665e-001
8.157758e+002;1.309715e-001
8.177043e+002;1.299863e-001
8.196329e+002;1.292257e-001
8.215615e+002;1.284491e-001
8.234900e+002;1.272855e-001
8.254185e+002;1.266197e-001
8.273471e+002;1.255300e-001
8.292756e+002;1.238047e-001
8.312042e+002;1.230049e-001
8.331328e+002;1.227913e-001
8.350613e+002;1.230160e-001
8.369898e+002;1.230131e-001
8.389184e+002;1.226001e-001
8.408469e+002;1.226376e-001
8.427755e+002;1.226388e-001
8.447040e+002;1.220448e-001
8.466326e+002;1.216990e-001
8.485611e+002;1.219296e-001
8.504897e+002;1.223028e-001
8.524182e+002;1.224240e-001
8.543467e+002;1.229847e-001
8.562753e+002;1.233026e-001
8.582039e+002;1.235928e-001
8.601324e+002;1.243085e-001
8.620610e+002;1.254220e-001
8.639895e+002;1.267966e-001
8.659180e+002;1.276079e-001
8.678466e+002;1.285481e-001
8.697751e+002;1.297316e-001
8.717037e+002;1.308953e-001
8.736323e+002;1.326975e-001
8.755608e+002;1.354983e-001
8.774893e+002;1.375086e-001
8.794179e+002;1.387419e-001
8.813464e+002;1.411290e-001
8.832750e+002;1.441327e-001
8.852036e+002;1.471241e-001
8.871321e+002;1.496466e-001
8.890606e+002;1.523187e-001
8.909892e+002;1.554945e-001
8.929177e+002;1.580207e-001
8.948463e+002;1.597724e-001
8.967748e+002;1.609098e-001
8.987034e+002;1.612922e-001
9.006319e+002;1.605991e-001
9.025605e+002;1.598045e-001
9.044890e+002;1.591009e-001
9.064175e+002;1.579610e-001
9.083461e+002;1.570516e-001
9.102747e+002;1.558096e-001
9.122032e+002;1.542606e-001
9.141318e+002;1.530371e-001
9.160603e+002;1.519606e-001
9.179888e+002;1.519295e-001
9.199174e+002;1.528067e-001
9.218459e+002;1.538223e-001
9.237745e+002;1.549861e-001
9.257031e+002;1.567390e-001
9.276316e+002;1.590017e-001
9.295601e+002;1.616050e-001
9.314887e+002;1.644484e-001
9.334172e+002;1.668440e-001
9.353458e+002;1.691531e-001
9.372744e+002;1.710414e-001
9.392029e+002;1.727847e-001
9.411314e+002;1.752552e-001
9.430600e+002;1.780284e-001
9.449885e+002;1.808717e-001
9.469171e+002;1.840868e-001
9.488456e+002;1.874103e-001
9.507742e+002;1.912490e-001
9.527027e+002;1.954509e-001
9.546313e+002;2.001140e-001
9.565598e+002;2.056873e-001
9.584883e+002;2.115047e-001
9.604169e+002;2.171336e-001
9.623455e+002;2.233712e-001
9.642740e+002;2.302002e-001
9.662026e+002;2.375582e-001
9.681311e+002;2.458237e-001
9.700596e+002;2.552851e-001
9.719882e+002;2.666136e-001
9.739167e+002;2.802627e-001
9.758453e+002;2.967618e-001
9.777739e+002;3.148918e-001
9.797024e+002;3.333831e-001
9.816309e+002;3.496807e-001
9.835595e+002;3.600040e-001
9.854880e+002;3.648612e-001
9.874166e+002;3.679908e-001
9.893452e+002;3.715968e-001
9.912737e+002;3.770306e-001
9.932022e+002;3.841596e-001
9.951307e+002;3.922593e-001
9.970593e+002;4.001193e-001
9.989879e+002;4.061124e-001
1.000916e+003;4.097883e-001
1.002845e+003;4.115201e-001
1.004773e+003;4.128953e-001
1.006702e+003;4.138926e-001
1.008631e+003;4.150096e-001
1.010559e+003;4.173745e-001
1.012488e+003;4.211453e-001
1.014416e+003;4.259477e-001
1.016345e+003;4.301336e-001
1.018273e+003;4.346748e-001
1.020202e+003;4.407217e-001
1.022130e+003;4.474227e-001
1.024059e+003;4.538815e-001
1.025988e+003;4.602826e-001
1.027916e+003;4.654844e-001
1.029845e+003;4.675805e-001
1.031773e+003;4.664008e-001
1.033702e+003;4.621066e-001
1.035630e+003;4.535614e-001
1.037559e+003;4.434542e-001
1.039487e+003;4.339870e-001
1.041416e+003;4.278366e-001
1.043344e+003;4.264797e-001
1.045273e+003;4.295845e-001
1.047202e+003;4.353921e-001
1.049130e+003;4.419273e-001
1.051059e+003;4.478037e-001
1.052987e+003;4.508303e-001
1.054916e+003;4.500689e-001
1.056844e+003;4.452325e-001
1.058773e+003;4.345909e-001
1.060701e+003;4.169157e-001
1.062630e+003;3.947772e-001
1.064558e+003;3.722994e-001
1.066487e+003;3.522077e-001
1.068416e+003;3.353820e-001
1.070344e+003;3.215743e-001
1.072273e+003;3.116286e-001
1.074201e+003;3.041568e-001
1.076130e+003;2.973986e-001
1.078058e+003;2.912908e-001
1.079987e+003;2.859334e-001
1.081915e+003;2.818362e-001
1.083844e+003;2.799914e-001
1.085773e+003;2.794602e-001
1.087701e+003;2.800028e-001
1.089630e+003;2.812280e-001
1.091558e+003;2.828925e-001
1.093487e+003;2.858268e-001
1.095415e+003;2.894937e-001
1.097344e+003;2.930253e-001
1.099272e+003;2.965937e-001
1.101201e+003;2.995142e-001
1.103129e+003;3.006198e-001
1.105058e+003;2.992994e-001
1.106987e+003;2.966194e-001
1.108915e+003;2.939737e-001
1.110844e+003;2.894862e-001
1.112772e+003;2.817039e-001
1.114701e+003;2.703572e-001
1.116629e+003;2.565798e-001
1.118558e+003;2.427125e-001
1.120486e+003;2.314748e-001
1.122415e+003;2.228297e-001
1.124344e+003;2.146310e-001
1.126272e+003;2.054998e-001
1.128201e+003;1.965211e-001
1.130129e+003;1.888930e-001
1.132058e+003;1.830743e-001
1.133986e+003;1.789004e-001
1.135915e+003;1.756638e-001
1.137843e+003;1.743324e-001
1.139772e+003;1.752981e-001
1.141700e+003;1.786258e-001
1.143629e+003;1.834477e-001
1.145557e+003;1.884299e-001
1.147486e+003;1.933735e-001
1.149415e+003;1.975689e-001
1.151343e+003;2.011886e-001
1.153272e+003;2.051848e-001
1.155200e+003;2.087987e-001
1.157129e+003;2.117101e-001
1.159057e+003;2.136984e-001
1.160986e+003;2.134671e-001
1.162914e+003;2.096899e-001
1.164843e+003;2.026602e-001
1.166771e+003;1.940417e-001
1.168700e+003;1.840258e-001
1.170629e+003;1.741946e-001
1.172557e+003;1.654879e-001
1.174486e+003;1.579425e-001
1.176414e+003;1.520089e-001
1.178343e+003;1.470726e-001
1.180271e+003;1.426925e-001
1.182200e+003;1.391875e-001
1.184128e+003;1.367462e-001
1.186057e+003;1.354062e-001
1.187986e+003;1.349945e-001
1.189914e+003;1.355260e-001
1.191843e+003;1.367805e-001
1.193771e+003;1.383844e-001
1.195700e+003;1.402169e-001
1.197628e+003;1.419839e-001
1.199557e+003;1.434580e-001
1.201485e+003;1.444865e-001
1.203414e+003;1.447485e-001
1.205343e+003;1.442857e-001
1.207271e+003;1.427900e-001
1.209200e+003;1.391182e-001
1.211128e+003;1.347118e-001
1.213057e+003;1.316982e-001
1.214985e+003;1.304657e-001
1.216914e+003;1.307103e-001
1.218842e+003;1.316486e-001
1.220771e+003;1.328511e-001
1.222699e+003;1.342958e-001
1.224628e+003;1.359535e-001
1.226557e+003;1.381446e-001
1.228485e+003;1.407629e-001
1.230414e+003;1.427950e-001
1.232342e+003;1.448803e-001
1.234271e+003;1.471556e-001
1.236199e+003;1.484038e-001
1.238128e+003;1.488658e-001
1.240056e+003;1.496020e-001
1.241985e+003;1.508406e-001
1.243913e+003;1.522798e-001
1.245842e+003;1.537891e-001
1.247771e+003;1.553086e-001
1.249699e+003;1.561584e-001
1.251628e+003;1.568161e-001
1.253556e+003;1.577376e-001
1.255485e+003;1.584961e-001
1.257413e+003;1.592716e-001
1.259342e+003;1.601922e-001
1.261270e+003;1.605410e-001
1.263199e+003;1.597583e-001
1.265127e+003;1.580551e-001
1.267056e+003;1.556992e-001
1.268985e+003;1.537765e-001
1.270913e+003;1.530366e-001
1.272842e+003;1.531002e-001
1.274770e+003;1.530478e-001
1.276699e+003;1.526007e-001
1.278627e+003;1.515259e-001
1.280556e+003;1.499022e-001
1.282484e+003;1.479415e-001
1.284413e+003;1.461072e-001
1.286342e+003;1.451829e-001
1.288270e+003;1.447089e-001
1.290199e+003;1.445861e-001
1.292127e+003;1.448580e-001
1.294056e+003;1.454233e-001
1.295984e+003;1.462468e-001
1.297913e+003;1.479706e-001
1.299841e+003;1.508250e-001
1.301770e+003;1.544124e-001
1.303698e+003;1.583959e-001
1.305627e+003;1.628181e-001
1.307556e+003;1.677761e-001
1.309484e+003;1.726008e-001
1.311413e+003;1.763967e-001
1.313341e+003;1.788512e-001
1.315270e+003;1.790173e-001
1.317198e+003;1.768529e-001
1.319127e+003;1.734112e-001
1.321055e+003;1.693129e-001
1.322984e+003;1.657189e-001
1.324912e+003;1.633594e-001
1.326841e+003;1.622185e-001
1.328770e+003;1.624172e-001
1.330698e+003;1.637246e-001
1.332627e+003;1.655023e-001
1.334555e+003;1.666494e-001
1.336484e+003;1.661255e-001
1.338412e+003;1.641022e-001
1.340341e+003;1.615180e-001
1.342269e+003;1.587737e-001
1.344198e+003;1.555069e-001
1.346126e+003;1.523372e-001
1.348055e+003;1.501465e-001
1.349984e+003;1.490932e-001
1.351912e+003;1.492388e-001
1.353841e+003;1.501273e-001
1.355769e+003;1.512570e-001
1.357698e+003;1.523064e-001
1.359626e+003;1.525188e-001
1.361555e+003;1.516376e-001
1.363483e+003;1.502377e-001
1.365412e+003;1.492785e-001
1.367341e+003;1.486583e-001
1.369269e+003;1.481531e-001
1.371198e+003;1.467457e-001
1.373126e+003;1.437230e-001
1.375055e+003;1.403672e-001
1.376983e+003;1.376192e-001
1.378912e+003;1.347280e-001
1.380840e+003;1.317733e-001
1.382769e+003;1.288281e-001
1.384698e+003;1.258957e-001
1.386626e+003;1.231259e-001
1.388555e+003;1.222931e-001
1.390483e+003;1.224526e-001
1.392412e+003;1.217482e-001
1.394340e+003;1.210107e-001
1.396269e+003;1.218479e-001
1.398197e+003;1.224240e-001
1.400126e+003;1.228009e-001
1.402054e+003;1.232801e-001
1.403983e+003;1.231143e-001
1.405911e+003;1.232303e-001
1.407840e+003;1.237025e-001
1.409769e+003;1.238801e-001
1.411697e+003;1.243148e-001
1.413626e+003;1.252065e-001
1.415554e+003;1.259815e-001
1.417483e+003;1.257176e-001
1.419411e+003;1.267617e-001
1.421340e+003;1.306944e-001
1.423268e+003;1.332532e-001
1.425197e+003;1.351193e-001
1.427125e+003;1.364223e-001
1.429054e+003;1.363232e-001
1.430983e+003;1.363212e-001
1.432911e+003;1.356595e-001
1.434840e+003;1.325130e-001
1.436768e+003;1.298591e-001
1.438697e+003;1.311390e-001
1.440625e+003;1.324496e-001
1.442554e+003;1.334509e-001
1.444482e+003;1.345798e-001
1.446411e+003;1.351433e-001
1.448340e+003;1.361003e-001
1.450268e+003;1.378129e-001
1.452197e+003;1.384235e-001
1.454125e+003;1.361694e-001
1.456054e+003;1.299901e-001
1.457982e+003;1.275980e-001
1.459911e+003;1.291268e-001
1.461839e+003;1.279932e-001
1.463768e+003;1.230690e-001
1.465697e+003;1.194186e-001
1.467625e+003;1.179349e-001
1.469554e+003;1.152562e-001
1.471482e+003;1.114196e-001
1.473411e+003;1.084282e-001
1.475339e+003;1.052451e-001
1.477268e+003;1.021189e-001
1.479196e+003;1.000335e-001
1.481125e+003;9.781136e-002
1.483053e+003;9.590861e-002
1.484982e+003;9.317715e-002
1.486911e+003;9.016501e-002
1.488839e+003;8.794447e-002
1.490768e+003;8.811304e-002
1.492696e+003;9.010156e-002
1.494625e+003;8.922460e-002
1.496553e+003;8.644766e-002
1.498482e+003;8.561411e-002
1.500410e+003;8.555629e-002
1.502339e+003;8.515041e-002
1.504267e+003;8.138951e-002
1.506196e+003;7.729609e-002
1.508125e+003;7.994719e-002
1.510053e+003;8.382021e-002
1.511982e+003;8.470020e-002
1.513910e+003;8.501700e-002
1.515839e+003;8.439684e-002
1.517767e+003;8.403511e-002
1.519696e+003;8.286908e-002
1.521624e+003;8.284730e-002
1.523553e+003;8.592310e-002
1.525481e+003;8.746316e-002
1.527410e+003;8.937697e-002
1.529339e+003;9.176163e-002
1.531267e+003;9.266921e-002
1.533196e+003;9.266101e-002
1.535124e+003;9.487365e-002
1.537053e+003;9.451668e-002
1.538981e+003;9.031979e-002
1.540910e+003;9.140185e-002
1.542838e+003;9.603334e-002
1.544767e+003;9.903982e-002
1.546695e+003;1.012802e-001
1.548624e+003;1.023682e-001
1.550553e+003;1.030992e-001
1.552481e+003;1.029264e-001
1.554410e+003;1.018153e-001
1.556338e+003;9.947573e-002
1.558267e+003;9.443002e-002
1.560195e+003;9.574278e-002
1.562124e+003;1.012177e-001
1.564052e+003;1.027771e-001
1.565981e+003;1.025493e-001
1.567910e+003;1.008603e-001
1.569838e+003;9.955473e-002
1.571767e+003;1.008497e-001
1.573695e+003;9.975834e-002
1.575624e+003;9.617767e-002
1.577552e+003;9.760315e-002
1.579481e+003;1.003337e-001
1.581409e+003;1.003608e-001
1.583338e+003;1.000948e-001
1.585266e+003;9.970114e-002
1.587195e+003;9.927937e-002
1.589124e+003;9.881226e-002
1.591052e+003;9.844143e-002
1.592981e+003;9.815636e-002
1.594909e+003;9.793278e-002
1.596838e+003;9.808031e-002
1.598766e+003;9.848337e-002
1.600695e+003;9.840290e-002
1.602623e+003;9.826922e-002
1.604552e+003;9.799261e-002
1.606480e+003;9.741017e-002
1.608409e+003;9.671485e-002
1.610338e+003;9.632737e-002
1.612266e+003;9.621856e-002
1.614195e+003;9.478845e-002
1.616123e+003;9.166947e-002
1.618052e+003;9.281324e-002
1.619980e+003;9.528638e-002
1.621909e+003;9.480626e-002
1.623837e+003;9.449682e-002
1.625766e+003;9.508238e-002
1.627694e+003;9.526843e-002
1.629623e+003;9.592217e-002
1.631552e+003;9.628175e-002
1.633480e+003;9.413399e-002
1.635409e+003;9.184735e-002
1.637337e+003;9.462877e-002
1.639266e+003;9.729645e-002
1.641194e+003;9.798846e-002
1.643123e+003;9.766306e-002
1.645051e+003;9.550909e-002
1.646980e+003;9.502019e-002
1.648909e+003;9.717882e-002
1.650837e+003;9.409395e-002
1.652766e+003;8.852471e-002
1.654694e+003;9.333141e-002
1.656623e+003;9.903990e-002
1.658551e+003;1.000905e-001
1.660480e+003;9.946048e-002
1.662408e+003;9.846907e-002
1.664337e+003;9.912078e-002
1.666266e+003;9.889155e-002
1.668194e+003;9.617370e-002
1.670123e+003;9.520663e-002
1.672051e+003;9.607203e-002
1.673980e+003;9.463627e-002
1.675908e+003;9.366789e-002
1.677837e+003;9.462202e-002
1.679765e+003;9.401676e-002
1.681694e+003;9.148017e-002
1.683622e+003;8.672062e-002
1.685551e+003;8.763981e-002
1.687479e+003;9.154411e-002
1.689408e+003;9.233855e-002
1.691337e+003;9.242204e-002
1.693265e+003;9.064141e-002
1.695194e+003;8.635068e-002
1.697122e+003;8.648001e-002
1.699051e+003;8.552417e-002
1.700979e+003;8.585982e-002
1.702908e+003;9.017153e-002
1.704836e+003;9.111670e-002
1.706765e+003;9.227146e-002
1.708693e+003;9.390355e-002
1.710622e+003;9.567463e-002
1.712551e+003;9.706213e-002
1.714479e+003;9.826187e-002
1.716408e+003;1.001381e-001
1.718336e+003;1.068479e-001
1.720265e+003;1.173474e-001
1.722193e+003;1.266400e-001
1.724122e+003;1.350360e-001
1.726050e+003;1.426186e-001
1.727979e+003;1.476626e-001
1.729908e+003;1.495978e-001
1.731836e+003;1.465128e-001
1.733765e+003;1.398031e-001
1.735693e+003;1.354175e-001
1.737622e+003;1.280427e-001
1.739550e+003;1.163153e-001
1.741479e+003;1.057966e-001
1.743407e+003;9.623994e-002
1.745336e+003;8.778007e-002
1.747265e+003;8.070100e-002
1.749193e+003;7.500175e-002
1.751122e+003;7.140733e-002
1.753050e+003;7.092912e-002
1.754979e+003;6.989212e-002
1.756907e+003;6.835216e-002
1.758836e+003;6.785659e-002
1.760764e+003;6.654599e-002
1.762693e+003;6.628881e-002
1.764621e+003;6.713616e-002
1.766550e+003;6.606466e-002
1.768479e+003;6.487134e-002
1.770407e+003;6.356702e-002
1.772336e+003;6.238299e-002
1.774264e+003;6.401730e-002
1.776193e+003;6.533340e-002
1.778121e+003;6.531484e-002
1.780050e+003;6.494775e-002
1.781978e+003;6.481225e-002
1.783907e+003;6.441453e-002
1.785835e+003;6.449171e-002
1.787764e+003;6.470787e-002
1.789693e+003;6.367969e-002
1.791621e+003;6.219843e-002
1.793550e+003;6.262895e-002
1.795478e+003;6.400482e-002
1.797407e+003;6.414671e-002
1.799335e+003;6.361282e-002
1.801264e+003;6.346236e-002
1.803192e+003;6.384519e-002
1.805121e+003;6.390024e-002
1.807049e+003;6.389125e-002
1.808978e+003;6.372143e-002
1.810907e+003;6.351866e-002
1.812835e+003;6.376096e-002
1.814764e+003;6.409540e-002
1.816692e+003;6.404321e-002
1.818621e+003;6.396972e-002
1.820549e+003;6.370747e-002
1.822478e+003;6.327473e-002
1.824406e+003;6.260292e-002
1.826335e+003;6.264942e-002
1.828264e+003;6.212012e-002
1.830192e+003;6.177383e-002
1.832121e+003;6.282802e-002
1.834049e+003;6.346358e-002
1.835978e+003;6.324368e-002
1.837906e+003;6.294256e-002
1.839835e+003;6.301416e-002
1.841763e+003;6.234145e-002
1.843692e+003;6.082312e-002
1.845620e+003;6.134564e-002
1.847549e+003;6.249842e-002
1.849478e+003;6.274609e-002
1.851406e+003;6.289132e-002
1.853335e+003;6.285325e-002
1.855263e+003;6.272636e-002
1.857192e+003;6.270508e-002
1.859120e+003;6.268950e-002
1.861049e+003;6.269968e-002
1.862977e+003;6.280585e-002
1.864906e+003;6.265812e-002
1.866834e+003;6.202613e-002
1.868763e+003;6.150679e-002
1.870692e+003;6.201455e-002
1.872620e+003;6.268935e-002
1.874549e+003;6.279348e-002
1.876477e+003;6.260694e-002
1.878406e+003;6.262409e-002
1.880334e+003;6.283300e-002
1.882263e+003;6.292211e-002
1.884191e+003;6.290817e-002
1.886120e+003;6.278766e-002
1.888048e+003;6.222994e-002
1.889977e+003;6.192008e-002
1.891906e+003;6.231659e-002
1.893834e+003;6.240357e-002
1.895763e+003;6.245468e-002
1.897691e+003;6.253768e-002
1.899620e+003;6.264843e-002
1.901548e+003;6.264827e-002
1.903477e+003;6.254403e-002
1.905405e+003;6.263940e-002
1.907334e+003;6.265834e-002
1.909262e+003;6.256171e-002
1.911191e+003;6.272276e-002
1.913120e+003;6.294754e-002
1.915048e+003;6.285877e-002
1.916977e+003;6.219089e-002
1.918905e+003;6.223930e-002
1.920834e+003;6.255558e-002
1.922762e+003;6.242649e-002
1.924691e+003;6.282940e-002
1.926619e+003;6.328929e-002
1.928548e+003;6.347383e-002
1.930477e+003;6.354082e-002
1.932405e+003;6.343854e-002
1.934334e+003;6.335462e-002
1.936262e+003;6.347176e-002
1.938191e+003;6.341251e-002
1.940119e+003;6.312039e-002
1.942048e+003;6.284280e-002
1.943976e+003;6.319240e-002
1.945905e+003;6.363338e-002
1.947833e+003;6.373271e-002
1.949762e+003;6.393340e-002
1.951691e+003;6.410304e-002
1.953619e+003;6.391479e-002
1.955548e+003;6.384812e-002
1.957476e+003;6.376947e-002
1.959405e+003;6.341615e-002
1.961333e+003;6.342524e-002
1.963262e+003;6.352502e-002
1.965190e+003;6.352506e-002
1.967119e+003;6.352943e-002
1.969047e+003;6.380901e-002
1.970976e+003;6.400182e-002
1.972905e+003;6.396819e-002
1.974833e+003;6.378180e-002
1.976762e+003;6.384151e-002
1.978690e+003;6.383894e-002
1.980619e+003;6.375885e-002
1.982547e+003;6.377470e-002
1.984476e+003;6.378198e-002
1.986404e+003;6.391836e-002
1.988333e+003;6.391467e-002
1.990261e+003;6.362360e-002
1.992190e+003;6.350500e-002
1.994119e+003;6.390711e-002
1.996047e+003;6.416108e-002
1.997976e+003;6.417398e-002
1.999904e+003;6.410439e-002
2.001833e+003;6.412697e-002
2.003761e+003;6.404556e-002
2.005690e+003;6.383763e-002
2.007618e+003;6.379511e-002
2.009547e+003;6.382781e-002
2.011476e+003;6.392258e-002
2.013404e+003;6.408016e-002
2.015333e+003;6.414832e-002
2.017261e+003;6.414390e-002
2.019190e+003;6.432192e-002
2.021118e+003;6.462777e-002
2.023047e+003;6.467814e-002
2.024975e+003;6.451900e-002
2.026904e+003;6.447849e-002
2.028833e+003;6.451900e-002
2.030761e+003;6.459739e-002
2.032690e+003;6.462038e-002
2.034618e+003;6.446350e-002
2.036547e+003;6.453899e-002
2.038475e+003;6.472860e-002
2.040404e+003;6.475452e-002
2.042332e+003;6.479117e-002
2.044261e+003;6.472221e-002
2.046189e+003;6.473706e-002
2.048118e+003;6.453381e-002
2.050047e+003;6.449118e-002
2.051975e+003;6.486942e-002
2.053904e+003;6.477664e-002
2.055832e+003;6.446461e-002
2.057761e+003;6.445550e-002
2.059689e+003;6.446262e-002
2.061618e+003;6.448130e-002
2.063546e+003;6.450947e-002
2.065475e+003;6.454407e-002
2.067404e+003;6.444344e-002
2.069332e+003;6.442791e-002
2.071260e+003;6.453038e-002
2.073189e+003;6.447572e-002
2.075118e+003;6.448326e-002
2.077046e+003;6.467222e-002
2.078975e+003;6.469806e-002
2.080903e+003;6.449951e-002
2.082832e+003;6.416304e-002
2.084760e+003;6.404766e-002
2.086689e+003;6.405082e-002
2.088617e+003;6.418254e-002
2.090546e+003;6.402159e-002
2.092475e+003;6.385095e-002
2.094403e+003;6.387671e-002
2.096332e+003;6.404901e-002
2.098260e+003;6.428969e-002
2.100189e+003;6.440473e-002
2.102117e+003;6.431850e-002
2.104046e+003;6.421278e-002
2.105974e+003;6.416149e-002
2.107903e+003;6.404766e-002
2.109832e+003;6.418562e-002
2.111760e+003;6.424693e-002
2.113688e+003;6.413385e-002
2.115617e+003;6.421304e-002
2.117546e+003;6.421201e-002
2.119474e+003;6.395003e-002
2.121403e+003;6.387541e-002
2.123331e+003;6.420406e-002
2.125260e+003;6.462538e-002
2.127188e+003;6.473529e-002
2.129117e+003;6.482776e-002
2.131045e+003;6.491394e-002
2.132974e+003;6.469449e-002
2.134903e+003;6.453353e-002
2.136831e+003;6.454111e-002
2.138760e+003;6.449444e-002
2.140688e+003;6.428815e-002
2.142617e+003;6.406729e-002
2.144545e+003;6.395130e-002
2.146474e+003;6.399786e-002
2.148402e+003;6.400071e-002
2.150331e+003;6.420720e-002
2.152260e+003;6.447599e-002
2.154188e+003;6.456056e-002
2.156117e+003;6.437314e-002
2.158045e+003;6.401564e-002
2.159974e+003;6.380425e-002
2.161902e+003;6.391533e-002
2.163831e+003;6.408879e-002
2.165759e+003;6.387591e-002
2.167688e+003;6.365943e-002
2.169616e+003;6.356177e-002
2.171545e+003;6.348073e-002
2.173474e+003;6.348441e-002
2.175402e+003;6.340817e-002
2.177331e+003;6.330298e-002
2.179259e+003;6.327902e-002
2.181188e+003;6.317121e-002
2.183116e+003;6.318922e-002
2.185045e+003;6.330620e-002
2.186973e+003;6.309051e-002
2.188902e+003;6.286225e-002
2.190831e+003;6.275971e-002
2.192759e+003;6.283089e-002
2.194688e+003;6.281845e-002
2.196616e+003;6.251651e-002
2.198545e+003;6.224599e-002
2.200473e+003;6.246199e-002
2.202402e+003;6.277112e-002
2.204330e+003;6.273486e-002
2.206259e+003;6.252895e-002
2.208188e+003;6.228121e-002
2.210116e+003;6.219288e-002
2.212044e+003;6.239435e-002
2.213973e+003;6.246452e-002
2.215902e+003;6.251973e-002
2.217830e+003;6.274156e-002
2.219759e+003;6.294720e-002
2.221687e+003;6.286734e-002
2.223616e+003;6.236761e-002
2.225544e+003;6.229005e-002
2.227473e+003;6.233981e-002
2.229401e+003;6.244653e-002
2.231330e+003;6.289385e-002
2.233259e+003;6.295612e-002
2.235187e+003;6.279988e-002
2.237116e+003;6.283414e-002
2.239044e+003;6.261662e-002
2.240973e+003;6.235285e-002
2.242901e+003;6.235308e-002
2.244830e+003;6.255650e-002
2.246758e+003;6.269497e-002
2.248687e+003;6.271010e-002
2.250615e+003;6.271710e-002
2.252544e+003;6.270240e-002
2.254473e+003;6.244630e-002
2.256401e+003;6.217377e-002
2.258330e+003;6.209329e-002
2.260258e+003;6.220382e-002
2.262187e+003;6.228026e-002
2.264115e+003;6.204670e-002
2.266044e+003;6.188989e-002
2.267972e+003;6.191878e-002
2.269901e+003;6.200740e-002
2.271830e+003;6.202671e-002
2.273758e+003;6.189219e-002
2.275687e+003;6.191270e-002
2.277615e+003;6.212980e-002
2.279544e+003;6.200301e-002
2.281472e+003;6.178777e-002
2.283401e+003;6.165047e-002
2.285329e+003;6.162309e-002
2.287258e+003;6.172238e-002
2.289187e+003;6.148721e-002
2.291115e+003;6.127181e-002
2.293043e+003;6.148854e-002
2.294972e+003;6.143461e-002
2.296901e+003;6.123003e-002
2.298829e+003;6.109946e-002
2.300758e+003;6.099623e-002
2.302686e+003;6.093382e-002
2.304615e+003;6.094640e-002
2.306543e+003;6.098956e-002
2.308472e+003;6.103242e-002
2.310400e+003;6.121096e-002
2.312329e+003;6.137194e-002
2.314258e+003;6.122164e-002
2.316186e+003;6.101976e-002
2.318115e+003;6.074190e-002
2.320043e+003;6.056637e-002
2.321972e+003;6.061349e-002
2.323900e+003;6.064847e-002
2.325829e+003;6.051575e-002
2.327757e+003;6.021983e-002
2.329686e+003;6.010383e-002
2.331615e+003;6.015950e-002
2.333543e+003;6.003477e-002
2.335472e+003;6.006696e-002
2.337400e+003;6.006525e-002
2.339329e+003;6.019779e-002
2.341257e+003;6.068147e-002
2.343186e+003;6.115286e-002
2.345114e+003;6.126368e-002
2.347043e+003;6.114973e-002
2.348971e+003;6.118174e-002
2.350900e+003;6.122893e-002
2.352829e+003;6.123964e-002
2.354757e+003;6.119413e-002
2.356686e+003;6.106106e-002
2.358614e+003;6.101552e-002
2.360543e+003;6.086535e-002
2.362471e+003;6.066230e-002
2.364400e+003;6.076149e-002
2.366328e+003;6.104862e-002
2.368257e+003;6.121126e-002
2.370186e+003;6.140766e-002
2.372114e+003;6.167918e-002
2.374042e+003;6.221234e-002
2.375971e+003;6.264541e-002
2.377900e+003;6.280588e-002
2.379828e+003;6.287581e-002
2.381757e+003;6.300446e-002
2.383685e+003;6.319386e-002
2.385614e+003;6.331022e-002
2.387542e+003;6.339602e-002
2.389471e+003;6.328320e-002
2.391399e+003;6.311871e-002
2.393328e+003;6.345120e-002
2.395257e+003;6.391606e-002
2.397185e+003;6.375209e-002
2.399114e+003;6.337758e-002
2.401042e+003;6.340745e-002
2.402971e+003;6.327798e-002
2.404899e+003;6.326763e-002
2.406828e+003;6.375512e-002
2.408756e+003;6.410991e-002
2.410685e+003;6.389425e-002
2.412614e+003;6.376883e-002
2.414542e+003;6.387072e-002
2.416471e+003;6.394665e-002
2.418399e+003;6.389467e-002
2.420328e+003;6.400597e-002
2.422256e+003;6.432024e-002
2.424185e+003;6.447081e-002
2.426113e+003;6.472436e-002
2.428042e+003;6.471983e-002
2.429970e+003;6.448383e-002
2.431899e+003;6.455114e-002
2.433828e+003;6.461577e-002
2.435756e+003;6.472402e-002
2.437685e+003;6.480145e-002
2.439613e+003;6.457575e-002
2.441542e+003;6.456229e-002
2.443470e+003;6.504046e-002
2.445399e+003;6.525184e-002
2.447327e+003;6.502653e-002
2.449256e+003;6.479064e-002
2.451185e+003;6.508499e-002
2.453113e+003;6.537724e-002
2.455042e+003;6.522035e-002
2.456970e+003;6.531037e-002
2.458899e+003;6.526166e-002
2.460827e+003;6.494914e-002
2.462756e+003;6.520310e-002
2.464684e+003;6.550848e-002
2.466613e+003;6.567708e-002
2.468542e+003;6.601018e-002
2.470470e+003;6.617264e-002
2.472398e+003;6.595237e-002
2.474327e+003;6.577576e-002
2.476256e+003;6.590482e-002
2.478184e+003;6.615111e-002
2.480113e+003;6.594045e-002
2.482041e+003;6.579276e-002
2.483970e+003;6.602048e-002
2.485898e+003;6.656059e-002
2.487827e+003;6.663320e-002
2.489755e+003;6.637370e-002
2.491684e+003;6.607106e-002
2.493613e+003;6.614120e-002
2.495541e+003;6.614649e-002
2.497470e+003;6.612538e-002
2.499398e+003;6.632617e-002
2.501327e+003;6.641446e-002
2.503255e+003;6.653880e-002
2.505184e+003;6.673044e-002
2.507112e+003;6.664487e-002
2.509041e+003;6.665630e-002
2.510969e+003;6.728160e-002
2.512898e+003;6.762531e-002
2.514827e+003;6.724469e-002
2.516755e+003;6.703304e-002
2.518684e+003;6.729197e-002
2.520612e+003;6.736451e-002
2.522541e+003;6.737848e-002
2.524469e+003;6.760463e-002
2.526398e+003;6.781770e-002
2.528326e+003;6.762508e-002
2.530255e+003;6.767739e-002
2.532184e+003;6.796844e-002
2.534112e+003;6.807151e-002
2.536041e+003;6.796967e-002
2.537969e+003;6.796375e-002
2.539898e+003;6.792907e-002
2.541826e+003;6.789351e-002
2.543755e+003;6.810803e-002
2.545683e+003;6.838839e-002
2.547612e+003;6.814981e-002
2.549541e+003;6.785414e-002
2.551469e+003;6.818257e-002
2.553397e+003;6.828919e-002
2.555326e+003;6.804652e-002
2.557255e+003;6.817070e-002
2.559183e+003;6.838436e-002
2.561112e+003;6.846717e-002
2.563040e+003;6.837951e-002
2.564969e+003;6.807628e-002
2.566897e+003;6.788386e-002
2.568826e+003;6.816439e-002
2.570754e+003;6.871074e-002
2.572683e+003;6.874213e-002
2.574612e+003;6.840542e-002
2.576540e+003;6.837822e-002
2.578469e+003;6.867988e-002
2.580397e+003;6.848874e-002
2.582326e+003;6.827705e-002
2.584254e+003;6.856959e-002
2.586183e+003;6.884171e-002
2.588111e+003;6.894710e-002
2.590040e+003;6.904093e-002
2.591969e+003;6.887891e-002
2.593897e+003;6.880984e-002
2.595826e+003;6.903864e-002
2.597754e+003;6.913452e-002
2.599683e+003;6.875525e-002
2.601611e+003;6.867868e-002
2.603540e+003;6.929799e-002
2.605468e+003;6.981908e-002
2.607397e+003;6.958488e-002
2.609325e+003;6.939319e-002
2.611254e+003;6.974989e-002
2.613183e+003;6.998106e-002
2.615111e+003;6.986717e-002
2.617040e+003;6.978445e-002
2.618968e+003;6.980678e-002
2.620897e+003;6.978771e-002
2.622825e+003;7.022688e-002
2.624754e+003;7.042716e-002
2.626682e+003;7.017337e-002
2.628611e+003;6.997581e-002
2.630540e+003;7.016639e-002
2.632468e+003;7.037760e-002
2.634396e+003;7.044135e-002
2.636325e+003;7.036424e-002
2.638254e+003;7.035157e-002
2.640182e+003;7.039931e-002
2.642111e+003;7.038423e-002
2.644039e+003;7.036050e-002
2.645968e+003;7.034842e-002
2.647896e+003;7.041322e-002
2.649825e+003;7.050717e-002
2.651753e+003;7.086109e-002
2.653682e+003;7.115261e-002
2.655611e+003;7.091231e-002
2.657539e+003;7.067063e-002
2.659468e+003;7.080800e-002
2.661396e+003;7.114355e-002
2.663325e+003;7.119741e-002
2.665253e+003;7.105788e-002
2.667182e+003;7.101624e-002
2.669110e+003;7.146416e-002
2.671039e+003;7.164774e-002
2.672968e+003;7.157682e-002
2.674896e+003;7.161491e-002
2.676825e+003;7.155521e-002
2.678753e+003;7.144943e-002
2.680682e+003;7.159745e-002
2.682610e+003;7.182890e-002
2.684539e+003;7.199508e-002
2.686467e+003;7.190710e-002
2.688396e+003;7.173169e-002
2.690324e+003;7.194115e-002
2.692253e+003;7.233154e-002
2.694182e+003;7.240638e-002
2.696110e+003;7.247669e-002
2.698039e+003;7.267112e-002
2.699967e+003;7.277340e-002
2.701896e+003;7.261997e-002
2.703824e+003;7.262529e-002
2.705753e+003;7.295637e-002
2.707681e+003;7.302356e-002
2.709610e+003;7.312925e-002
2.711539e+003;7.341574e-002
2.713467e+003;7.339396e-002
2.715396e+003;7.360015e-002
2.717324e+003;7.381284e-002
2.719253e+003;7.377710e-002
2.721181e+003;7.393264e-002
2.723110e+003;7.402445e-002
2.725038e+003;7.406524e-002
2.726967e+003;7.426860e-002
2.728896e+003;7.438754e-002
2.730824e+003;7.432026e-002
2.732752e+003;7.449589e-002
2.734681e+003;7.455683e-002
2.736610e+003;7.448149e-002
2.738538e+003;7.464165e-002
2.740467e+003;7.461733e-002
2.742395e+003;7.452693e-002
2.744324e+003;7.492744e-002
2.746252e+003;7.517774e-002
2.748181e+003;7.512562e-002
2.750109e+003;7.510258e-002
2.752038e+003;7.509147e-002
2.753967e+003;7.534299e-002
2.755895e+003;7.582727e-002
2.757824e+003;7.584372e-002
2.759752e+003;7.580415e-002
2.761681e+003;7.571409e-002
2.763609e+003;7.559530e-002
2.765538e+003;7.561351e-002
2.767466e+003;7.559096e-002
2.769395e+003;7.586250e-002
2.771323e+003;7.626276e-002
2.773252e+003;7.659677e-002
2.775181e+003;7.688829e-002
2.777109e+003;7.662044e-002
2.779038e+003;7.666942e-002
2.780966e+003;7.707964e-002
2.782895e+003;7.734804e-002
2.784823e+003;7.747606e-002
2.786752e+003;7.773785e-002
2.788680e+003;7.800103e-002
2.790609e+003;7.827844e-002
2.792538e+003;7.842219e-002
2.794466e+003;7.851119e-002
2.796395e+003;7.884797e-002
2.798323e+003;7.913185e-002
2.800252e+003;7.948969e-002
2.802180e+003;7.989867e-002
2.804109e+003;8.013634e-002
2.806037e+003;8.036992e-002
2.807966e+003;8.081693e-002
2.809895e+003;8.159645e-002
2.811823e+003;8.168094e-002
2.813751e+003;8.158366e-002
2.815680e+003;8.207583e-002
2.817609e+003;8.264393e-002
2.819537e+003;8.307336e-002
2.821466e+003;8.365559e-002
2.823394e+003;8.432494e-002
2.825323e+003;8.490990e-002
2.827251e+003;8.580571e-002
2.829180e+003;8.665957e-002
2.831108e+003;8.768595e-002
2.833037e+003;8.936215e-002
2.834966e+003;9.054985e-002
2.836894e+003;9.176671e-002
2.838823e+003;9.394813e-002
2.840751e+003;9.664039e-002
2.842680e+003;9.998424e-002
2.844608e+003;1.044090e-001
2.846537e+003;1.103910e-001
2.848465e+003;1.175480e-001
2.850394e+003;1.219180e-001
2.852323e+003;1.202212e-001
2.854251e+003;1.155078e-001
2.856180e+003;1.116781e-001
2.858108e+003;1.093362e-001
2.860037e+003;1.083808e-001
2.861965e+003;1.086953e-001
2.863894e+003;1.096145e-001
2.865822e+003;1.102211e-001
2.867751e+003;1.110748e-001
2.869679e+003;1.121855e-001
2.871608e+003;1.136275e-001
2.873536e+003;1.145155e-001
2.875465e+003;1.146873e-001
2.877394e+003;1.145742e-001
2.879322e+003;1.142514e-001
2.881251e+003;1.141311e-001
2.883179e+003;1.143260e-001
2.885108e+003;1.150435e-001
2.887036e+003;1.161224e-001
2.888965e+003;1.170017e-001
2.890893e+003;1.175500e-001
2.892822e+003;1.188325e-001
2.894750e+003;1.200704e-001
2.896679e+003;1.209667e-001
2.898608e+003;1.217651e-001
2.900536e+003;1.224987e-001
2.902465e+003;1.231063e-001
2.904393e+003;1.236896e-001
2.906322e+003;1.249786e-001
2.908250e+003;1.265005e-001
2.910179e+003;1.284422e-001
2.912107e+003;1.313395e-001
2.914036e+003;1.345874e-001
2.915965e+003;1.382941e-001
2.917893e+003;1.412037e-001
2.919822e+003;1.420425e-001
2.921750e+003;1.401558e-001
2.923679e+003;1.361068e-001
2.925607e+003;1.311979e-001
2.927536e+003;1.267062e-001
2.929464e+003;1.227592e-001
2.931393e+003;1.193299e-001
2.933322e+003;1.166906e-001
2.935250e+003;1.139986e-001
2.937178e+003;1.116874e-001
2.939107e+003;1.101189e-001
2.941036e+003;1.086691e-001
2.942964e+003;1.073120e-001
2.944893e+003;1.063282e-001
2.946821e+003;1.055332e-001
2.948750e+003;1.046205e-001
2.950678e+003;1.037752e-001
2.952607e+003;1.035107e-001
2.954535e+003;1.033143e-001
2.956464e+003;1.033408e-001
2.958393e+003;1.033212e-001
2.960321e+003;1.026854e-001
2.962250e+003;1.016927e-001
2.964178e+003;1.001906e-001
2.966107e+003;9.830010e-002
2.968035e+003;9.664378e-002
2.969964e+003;9.482823e-002
2.971892e+003;9.252384e-002
2.973821e+003;9.085840e-002
2.975750e+003;8.890675e-002
2.977678e+003;8.669154e-002
2.979607e+003;8.460458e-002
2.981535e+003;8.271164e-002
2.983464e+003;8.115371e-002
2.985392e+003;7.991711e-002
2.987321e+003;7.837309e-002
2.989249e+003;7.725532e-002
2.991178e+003;7.687472e-002
2.993106e+003;7.656617e-002
2.995035e+003;7.627800e-002
2.996964e+003;7.576079e-002
2.998892e+003;7.522454e-002
3.000821e+003;7.481340e-002
3.002749e+003;7.474286e-002
3.004678e+003;7.463405e-002
3.006606e+003;7.396234e-002
3.008535e+003;7.376250e-002
3.010463e+003;7.453354e-002
3.012392e+003;7.489481e-002
3.014321e+003;7.463115e-002
3.016249e+003;7.476620e-002
3.018177e+003;7.496867e-002
3.020106e+003;7.524578e-002
3.022035e+003;7.557180e-002
3.023963e+003;7.586779e-002
3.025892e+003;7.631406e-002
3.027820e+003;7.685870e-002
3.029749e+003;7.711232e-002
3.031677e+003;7.713567e-002
3.033606e+003;7.702243e-002
3.035534e+003;7.691669e-002
3.037463e+003;7.697555e-002
3.039392e+003;7.691779e-002
3.041320e+003;7.684197e-002
3.043249e+003;7.678811e-002
3.045177e+003;7.684047e-002
3.047106e+003;7.741982e-002
3.049034e+003;7.797597e-002
3.050963e+003;7.800725e-002
3.052891e+003;7.802109e-002
3.054820e+003;7.815784e-002
3.056749e+003;7.849074e-002
3.058677e+003;7.883795e-002
3.060606e+003;7.879823e-002
3.062534e+003;7.893014e-002
3.064463e+003;7.902599e-002
3.066391e+003;7.911408e-002
3.068320e+003;7.951762e-002
3.070248e+003;7.971352e-002
3.072177e+003;7.985200e-002
3.074105e+003;8.001606e-002
3.076034e+003;7.993269e-002
3.077963e+003;8.005494e-002
3.079891e+003;8.035413e-002
3.081820e+003;8.071050e-002
3.083748e+003;8.119325e-002
3.085677e+003;8.176645e-002
3.087605e+003;8.198869e-002
3.089534e+003;8.198714e-002
3.091462e+003;8.204957e-002
3.093391e+003;8.227713e-002
3.095320e+003;8.281739e-002
3.097248e+003;8.297174e-002
3.099177e+003;8.309053e-002
3.101105e+003;8.334003e-002
3.103034e+003;8.357485e-002
3.104962e+003;8.384143e-002
3.106891e+003;8.388066e-002
3.108819e+003;8.402111e-002
3.110748e+003;8.450945e-002
3.112677e+003;8.501301e-002
3.114605e+003;8.516383e-002
3.116533e+003;8.506641e-002
3.118462e+003;8.548637e-002
3.120391e+003;8.617261e-002
3.122319e+003;8.642890e-002
3.124248e+003;8.678224e-002
3.126176e+003;8.771648e-002
3.128105e+003;8.847900e-002
3.130033e+003;8.879840e-002
3.131962e+003;8.890448e-002
3.133890e+003;8.907793e-002
3.135819e+003;8.938125e-002
3.137748e+003;8.978682e-002
3.139676e+003;9.019274e-002
3.141605e+003;9.050810e-002
3.143533e+003;9.079775e-002
3.145462e+003;9.131663e-002
3.147390e+003;9.166620e-002
3.149319e+003;9.180285e-002
3.151247e+003;9.168973e-002
3.153176e+003;9.221205e-002
3.155104e+003;9.301540e-002
3.157033e+003;9.346592e-002
3.158962e+003;9.404527e-002
3.160890e+003;9.452175e-002
3.162819e+003;9.491393e-002
3.164747e+003;9.546132e-002
3.166676e+003;9.575381e-002
3.168604e+003;9.612185e-002
3.170533e+003;9.679344e-002
3.172461e+003;9.759539e-002
3.174390e+003;9.803957e-002
3.176319e+003;9.828630e-002
3.178247e+003;9.907479e-002
3.180176e+003;1.000625e-001
3.182104e+003;1.005859e-001
3.184033e+003;1.007810e-001
3.185961e+003;1.012529e-001
3.187890e+003;1.021850e-001
3.189818e+003;1.028659e-001
3.191747e+003;1.031040e-001
3.193676e+003;1.037822e-001
3.195604e+003;1.043273e-001
3.197532e+003;1.043424e-001
3.199461e+003;1.048883e-001
3.201390e+003;1.057528e-001
3.203318e+003;1.058441e-001
3.205247e+003;1.059554e-001
3.207175e+003;1.069967e-001
3.209104e+003;1.086803e-001
3.211032e+003;1.100080e-001
3.212961e+003;1.104391e-001
3.214889e+003;1.106364e-001
3.216818e+003;1.114699e-001
3.218747e+003;1.124030e-001
3.220675e+003;1.126441e-001
3.222604e+003;1.128177e-001
3.224532e+003;1.135879e-001
3.226461e+003;1.145402e-001
3.228389e+003;1.153172e-001
3.230318e+003;1.161164e-001
3.232246e+003;1.172570e-001
3.234175e+003;1.182668e-001
3.236104e+003;1.188078e-001
3.238032e+003;1.196938e-001
3.239961e+003;1.207902e-001
3.241889e+003;1.215979e-001
3.243818e+003;1.222865e-001
3.245746e+003;1.234109e-001
3.247675e+003;1.244406e-001
3.249603e+003;1.253597e-001
3.251532e+003;1.262649e-001
3.253460e+003;1.274644e-001
3.255389e+003;1.288158e-001
3.257318e+003;1.299175e-001
3.259246e+003;1.307862e-001
3.261175e+003;1.315298e-001
3.263103e+003;1.323292e-001
3.265032e+003;1.332577e-001
3.266960e+003;1.344898e-001
3.268889e+003;1.355481e-001
3.270817e+003;1.357384e-001
3.272746e+003;1.357030e-001
3.274675e+003;1.362313e-001
3.276603e+003;1.368309e-001
3.278531e+003;1.371199e-001
3.280460e+003;1.373236e-001
3.282389e+003;1.376802e-001
3.284317e+003;1.378766e-001
3.286246e+003;1.380503e-001
3.288174e+003;1.383277e-001
3.290103e+003;1.384667e-001
3.292031e+003;1.381591e-001
3.293960e+003;1.379546e-001
3.295888e+003;1.383860e-001
3.297817e+003;1.387760e-001
3.299746e+003;1.390201e-001
3.301674e+003;1.387354e-001
3.303603e+003;1.384117e-001
3.305531e+003;1.388239e-001
3.307460e+003;1.388676e-001
3.309388e+003;1.385988e-001
3.311317e+003;1.383767e-001
3.313245e+003;1.384969e-001
3.315174e+003;1.391152e-001
3.317103e+003;1.401136e-001
3.319031e+003;1.412098e-001
3.320960e+003;1.417570e-001
3.322888e+003;1.417952e-001
3.324817e+003;1.425613e-001
3.326745e+003;1.428327e-001
3.328674e+003;1.427544e-001
3.330602e+003;1.433224e-001
3.332531e+003;1.432405e-001
3.334459e+003;1.422316e-001
3.336388e+003;1.414853e-001
3.338317e+003;1.410293e-001
3.340245e+003;1.407160e-001
3.342174e+003;1.402369e-001
3.344102e+003;1.395243e-001
3.346031e+003;1.382784e-001
3.347959e+003;1.369163e-001
3.349888e+003;1.361164e-001
3.351816e+003;1.349038e-001
3.353745e+003;1.331194e-001
3.355674e+003;1.319702e-001
3.357602e+003;1.313180e-001
3.359531e+003;1.302996e-001
3.361459e+003;1.289747e-001
3.363388e+003;1.282186e-001
3.365316e+003;1.276419e-001
3.367245e+003;1.265548e-001
3.369173e+003;1.255605e-001
3.371102e+003;1.246980e-001
3.373031e+003;1.242620e-001
3.374959e+003;1.233202e-001
3.376887e+003;1.223904e-001
3.378816e+003;1.219265e-001
3.380745e+003;1.210767e-001
3.382673e+003;1.202463e-001
3.384602e+003;1.193822e-001
3.386530e+003;1.186811e-001
3.388459e+003;1.180636e-001
3.390387e+003;1.174590e-001
3.392316e+003;1.169105e-001
3.394244e+003;1.166155e-001
3.396173e+003;1.162644e-001
3.398102e+003;1.154391e-001
3.400030e+003;1.143551e-001
3.401959e+003;1.134363e-001
3.403887e+003;1.123955e-001
3.405816e+003;1.114679e-001
3.407744e+003;1.109109e-001
3.409673e+003;1.102066e-001
3.411601e+003;1.095487e-001
3.413530e+003;1.091556e-001
3.415458e+003;1.075133e-001
3.417387e+003;1.059761e-001
3.419316e+003;1.049360e-001
3.421244e+003;1.032203e-001
3.423173e+003;1.023111e-001
3.425101e+003;1.021044e-001
3.427030e+003;1.011233e-001
3.428958e+003;9.991508e-002
3.430887e+003;9.908964e-002
3.432815e+003;9.887374e-002
3.434744e+003;9.830412e-002
3.436673e+003;9.733102e-002
3.438601e+003;9.593151e-002
3.440530e+003;9.475301e-002
3.442458e+003;9.444168e-002
3.444387e+003;9.438913e-002
3.446315e+003;9.364992e-002
3.448244e+003;9.283847e-002
3.450172e+003;9.156178e-002
3.452101e+003;9.020249e-002
3.454030e+003;8.898471e-002
3.455958e+003;8.823839e-002
3.457886e+003;8.786748e-002
3.459815e+003;8.717645e-002
3.461744e+003;8.668761e-002
3.463672e+003;8.604204e-002
3.465601e+003;8.542752e-002
3.467529e+003;8.488528e-002
3.469458e+003;8.358859e-002
3.471386e+003;8.229419e-002
3.473315e+003;8.131986e-002
3.475243e+003;8.089476e-002
3.477172e+003;8.028748e-002
3.479101e+003;7.924689e-002
3.481029e+003;7.884710e-002
3.482958e+003;7.832055e-002
3.484886e+003;7.735750e-002
3.486815e+003;7.589060e-002
3.488743e+003;7.492118e-002
3.490672e+003;7.464078e-002
3.492600e+003;7.423408e-002
3.494529e+003;7.293501e-002
3.496458e+003;7.119507e-002
3.498386e+003;7.026201e-002
3.500315e+003;6.970730e-002
3.502243e+003;6.920371e-002
3.504172e+003;6.897945e-002
3.506100e+003;6.897665e-002
3.508029e+003;6.824344e-002
3.509957e+003;6.723793e-002
3.511886e+003;6.671382e-002
3.513814e+003;6.623003e-002
3.515743e+003;6.584724e-002
3.517672e+003;6.581027e-002
3.519600e+003;6.515424e-002
3.521529e+003;6.386435e-002
3.523457e+003;6.237905e-002
3.525386e+003;6.183194e-002
3.527314e+003;6.165478e-002
3.529243e+003;6.110987e-002
3.531171e+003;6.061628e-002
3.533100e+003;6.041513e-002
3.535029e+003;6.030525e-002
3.536957e+003;5.989148e-002
3.538885e+003;5.890320e-002
3.540814e+003;5.739473e-002
3.542743e+003;5.653940e-002
3.544671e+003;5.646615e-002
3.546600e+003;5.618444e-002
3.548528e+003;5.586409e-002
3.550457e+003;5.516015e-002
3.552385e+003;5.465767e-002
3.554314e+003;5.438656e-002
3.556242e+003;5.380062e-002
3.558171e+003;5.298714e-002
3.560100e+003;5.215462e-002
3.562028e+003;5.145122e-002
3.563957e+003;5.038664e-002
3.565885e+003;4.862975e-002
3.567814e+003;4.810856e-002
3.569742e+003;4.892077e-002
3.571671e+003;4.925377e-002
3.573599e+003;4.905489e-002
3.575528e+003;4.878098e-002
3.577457e+003;4.856041e-002
3.579385e+003;4.820788e-002
3.581314e+003;4.786488e-002
3.583242e+003;4.759017e-002
3.585171e+003;4.624273e-002
3.587099e+003;4.507528e-002
3.589028e+003;4.533086e-002
3.590956e+003;4.571166e-002
3.592885e+003;4.521131e-002
3.594813e+003;4.455275e-002
3.596742e+003;4.452687e-002
3.598671e+003;4.448711e-002
3.600599e+003;4.394637e-002
3.602528e+003;4.397494e-002
3.604456e+003;4.396845e-002
3.606385e+003;4.260488e-002
3.608313e+003;4.096709e-002
3.610242e+003;4.088841e-002
3.612170e+003;4.063700e-002
3.614099e+003;4.050684e-002
3.616028e+003;4.079275e-002
3.617956e+003;3.999711e-002
3.619885e+003;4.003472e-002
3.621813e+003;4.092398e-002
3.623742e+003;4.056165e-002
3.625670e+003;3.880772e-002
3.627599e+003;3.508704e-002
3.629527e+003;3.497706e-002
3.631456e+003;3.770411e-002
3.633385e+003;3.845479e-002
3.635313e+003;3.891632e-002
3.637241e+003;3.911721e-002
3.639170e+003;3.872838e-002
3.641099e+003;3.866727e-002
3.643027e+003;3.845464e-002
3.644956e+003;3.725231e-002
3.646884e+003;3.456365e-002
3.648813e+003;3.192322e-002
3.650741e+003;3.304876e-002
3.652670e+003;3.538605e-002
3.654598e+003;3.499081e-002
3.656527e+003;3.463096e-002
3.658456e+003;3.566699e-002
3.660384e+003;3.621664e-002
3.662313e+003;3.637726e-002
3.664241e+003;3.588895e-002
3.666170e+003;3.528412e-002
3.668098e+003;3.296585e-002
3.670027e+003;3.102541e-002
3.671955e+003;3.214445e-002
3.673884e+003;3.052829e-002
3.675813e+003;2.950872e-002
3.677741e+003;3.234166e-002
3.679669e+003;3.391150e-002
3.681598e+003;3.426810e-002
3.683527e+003;3.373614e-002
3.685455e+003;3.260743e-002
3.687384e+003;2.992068e-002
3.689312e+003;2.956497e-002
3.691241e+003;3.154791e-002
3.693169e+003;3.290702e-002
3.695098e+003;3.333471e-002
3.697026e+003;3.293422e-002
3.698955e+003;3.207317e-002
3.700884e+003;3.121827e-002
3.702812e+003;3.192255e-002
3.704741e+003;3.264775e-002
3.706669e+003;3.223312e-002
3.708598e+003;3.096431e-002
3.710526e+003;2.946879e-002
3.712455e+003;2.976289e-002
3.714383e+003;3.184934e-002
3.716312e+003;3.265332e-002
3.718240e+003;3.239099e-002
3.720169e+003;3.213938e-002
3.722098e+003;3.171654e-002
3.724026e+003;3.125010e-002
3.725955e+003;3.055851e-002
3.727883e+003;3.069689e-002
3.729812e+003;3.037394e-002
3.731740e+003;2.858810e-002
3.733669e+003;2.753992e-002
3.735597e+003;2.695647e-002
3.737526e+003;2.887934e-002
3.739455e+003;3.035226e-002
3.741383e+003;2.907596e-002
3.743312e+003;2.481447e-002
3.745240e+003;2.539575e-002
3.747169e+003;2.785575e-002
3.749097e+003;2.595505e-002
3.751026e+003;2.496528e-002
3.752954e+003;2.768144e-002
3.754883e+003;3.106634e-002
3.756812e+003;3.105300e-002
3.758740e+003;3.030614e-002
3.760668e+003;3.053924e-002
3.762597e+003;3.121200e-002
3.764526e+003;3.080874e-002
3.766454e+003;3.092902e-002
3.768383e+003;3.029492e-002
3.770311e+003;3.048080e-002
3.772240e+003;3.131366e-002
3.774168e+003;3.181215e-002
3.776097e+003;3.136057e-002
3.778025e+003;3.037440e-002
3.779954e+003;3.115896e-002
3.781883e+003;3.197736e-002
3.783811e+003;3.178570e-002
3.785740e+003;3.162149e-002
3.787668e+003;3.169420e-002
3.789597e+003;3.245062e-002
3.791525e+003;3.229165e-002
3.793454e+003;3.156016e-002
3.795382e+003;3.065397e-002
3.797311e+003;3.080294e-002
3.799240e+003;2.891150e-002
3.801168e+003;2.725381e-002
3.803097e+003;2.980076e-002
3.805025e+003;2.997184e-002
3.806954e+003;2.950851e-002
3.808882e+003;3.173066e-002
3.810811e+003;3.271598e-002
3.812739e+003;3.227741e-002
3.814668e+003;2.924098e-002
3.816596e+003;2.855272e-002
3.818525e+003;2.971130e-002
3.820454e+003;2.779814e-002
3.822382e+003;2.837388e-002
3.824311e+003;3.021122e-002
3.826239e+003;3.093727e-002
3.828168e+003;3.149065e-002
3.830096e+003;3.091937e-002
3.832025e+003;3.069898e-002
3.833953e+003;3.046118e-002
3.835882e+003;2.835018e-002
3.837811e+003;2.714566e-002
3.839739e+003;2.931286e-002
3.841667e+003;3.051421e-002
3.843596e+003;3.062101e-002
3.845525e+003;3.122635e-002
3.847453e+003;3.155300e-002
3.849382e+003;2.995877e-002
3.851310e+003;2.507261e-002
3.853239e+003;2.202806e-002
3.855167e+003;2.682425e-002
3.857096e+003;3.124437e-002
3.859024e+003;3.186870e-002
3.860953e+003;3.138632e-002
3.862882e+003;2.997113e-002
3.864810e+003;2.969835e-002
3.866739e+003;3.079512e-002
3.868667e+003;2.973231e-002
3.870596e+003;2.977826e-002
3.872524e+003;3.108012e-002
3.874453e+003;3.219041e-002
3.876381e+003;3.298334e-002
3.878310e+003;3.177757e-002
3.880239e+003;3.036669e-002
3.882167e+003;3.074500e-002
3.884096e+003;3.073576e-002
3.886024e+003;3.109702e-002
3.887953e+003;3.216525e-002
3.889881e+003;3.132716e-002
3.891810e+003;3.120193e-002
3.893738e+003;3.205990e-002
3.895667e+003;3.243376e-002
3.897595e+003;3.134404e-002
3.899524e+003;3.036011e-002
3.901453e+003;3.001686e-002
3.903381e+003;2.941720e-002
3.905310e+003;3.073924e-002
3.907238e+003;3.298566e-002
3.909167e+003;3.368719e-002
3.911095e+003;3.346027e-002
3.913024e+003;3.320525e-002
3.914952e+003;3.262982e-002
3.916881e+003;3.241931e-002
3.918810e+003;3.250754e-002
3.920738e+003;3.258135e-002
3.922667e+003;3.258946e-002
3.924595e+003;3.247808e-002
3.926524e+003;3.314581e-002
3.928452e+003;3.284691e-002
3.930381e+003;3.163453e-002
3.932309e+003;3.162602e-002
3.934238e+003;3.274857e-002
3.936167e+003;3.321050e-002
3.938095e+003;3.324030e-002
3.940023e+003;3.360574e-002
3.941952e+003;3.301383e-002
3.943881e+003;3.268397e-002
3.945809e+003;3.272317e-002
3.947738e+003;3.312253e-002
3.949666e+003;3.334079e-002
3.951595e+003;3.275217e-002
3.953523e+003;3.330219e-002
3.955452e+003;3.407923e-002
3.957380e+003;3.452730e-002
3.959309e+003;3.499458e-002
3.961238e+003;3.479354e-002
3.963166e+003;3.409468e-002
3.965095e+003;3.388087e-002
3.967023e+003;3.351596e-002
3.968952e+003;3.365994e-002
3.970880e+003;3.428940e-002
3.972809e+003;3.393027e-002
3.974737e+003;3.327557e-002
3.976666e+003;3.263275e-002
3.978594e+003;3.294201e-002
3.980523e+003;3.288164e-002
3.982452e+003;3.262182e-002
3.984380e+003;3.324416e-002
3.986309e+003;3.336090e-002
3.988237e+003;3.371787e-002
3.990166e+003;3.364912e-002
3.992094e+003;3.374405e-002
3.994023e+003;3.392350e-002
3.995951e+003;3.371791e-002
3.997880e+003;3.349080e-002
3.999809e+003;3.318769e-002
4.001737e+003;0.000000e+000
