3.992094e+002;0.000000e+000
4.011380e+002;0.000000e+000
4.030665e+002;0.000000e+000
4.049951e+002;0.000000e+000
4.069236e+002;0.000000e+000
4.088522e+002;0.000000e+000
4.107807e+002;0.000000e+000
4.127093e+002;0.000000e+000
4.146378e+002;0.000000e+000
4.165664e+002;0.000000e+000
4.184949e+002;0.000000e+000
4.204235e+002;0.000000e+000
4.223520e+002;0.000000e+000
4.242806e+002;0.000000e+000
4.262091e+002;0.000000e+000
4.281377e+002;0.000000e+000
4.300662e+002;0.000000e+000
4.319948e+002;0.000000e+000
4.339233e+002;0.000000e+000
4.358519e+002;0.000000e+000
4.377804e+002;0.000000e+000
4.397090e+002;0.000000e+000
4.416375e+002;0.000000e+000
4.435660e+002;0.000000e+000
4.454946e+002;0.000000e+000
4.474232e+002;0.000000e+000
4.493517e+002;0.000000e+000
4.512802e+002;0.000000e+000
4.532088e+002;0.000000e+000
4.551373e+002;0.000000e+000
4.570659e+002;0.000000e+000
4.589944e+002;0.000000e+000
4.609230e+002;0.000000e+000
4.628515e+002;0.000000e+000
4.647801e+002;0.000000e+000
4.667086e+002;0.000000e+000
4.686372e+002;0.000000e+000
4.705657e+002;0.000000e+000
4.724943e+002;0.000000e+000
4.744228e+002;0.000000e+000
4.763513e+002;0.000000e+000
4.782799e+002;0.000000e+000
4.802085e+002;0.000000e+000
4.821370e+002;0.000000e+000
4.840656e+002;0.000000e+000
4.859941e+002;0.000000e+000
4.879226e+002;0.000000e+000
4.898512e+002;0.000000e+000
4.917798e+002;0.000000e+000
4.937083e+002;0.000000e+000
4.956368e+002;0.000000e+000
4.975654e+002;0.000000e+000
4.994939e+002;0.000000e+000
5.014225e+002;0.000000e+000
5.033510e+002;0.000000e+000
5.052796e+002;0.000000e+000
5.072081e+002;0.000000e+000
5.091367e+002;0.000000e+000
5.110652e+002;0.000000e+000
5.129938e+002;0.000000e+000
5.149223e+002;0.000000e+000
5.168509e+002;0.000000e+000
5.187794e+002;0.000000e+000
5.207079e+002;0.000000e+000
5.226365e+002;0.000000e+000
5.245651e+002;0.000000e+000
5.264936e+002;0.000000e+000
5.284222e+002;0.000000e+000
5.303507e+002;0.000000e+000
5.322792e+002;0.000000e+000
5.342078e+002;0.000000e+000
5.361364e+002;0.000000e+000
5.380649e+002;0.000000e+000
5.399935e+002;0.000000e+000
5.419220e+002;0.000000e+000
5.438505e+002;0.000000e+000
5.457791e+002;0.000000e+000
5.477076e+002;0.000000e+000
5.496362e+002;0.000000e+000
5.515648e+002;0.000000e+000
5.534933e+002;0.000000e+000
5.554218e+002;0.000000e+000
5.573504e+002;0.000000e+000
5.592789e+002;0.000000e+000
5.612075e+002;0.000000e+000
5.631360e+002;0.000000e+000
5.650646e+002;0.000000e+000
5.669931e+002;0.000000e+000
5.689217e+002;0.000000e+000
5.708502e+002;0.000000e+000
5.727787e+002;0.000000e+000
5.747073e+002;0.000000e+000
5.766359e+002;0.000000e+000
5.785644e+002;0.000000e+000
5.804930e+002;0.000000e+000
5.824215e+002;0.000000e+000
5.843500e+002;0.000000e+000
5.862786e+002;0.000000e+000
5.882072e+002;0.000000e+000
5.901357e+002;0.000000e+000
5.920643e+002;0.000000e+000
5.939928e+002;0.000000e+000
5.959213e+002;0.000000e+000
5.978499e+002;0.000000e+000
5.997784e+002;2.599376e-001
6.017070e+002;2.685784e-001
6.036355e+002;2.839494e-001
6.055641e+002;2.874317e-001
6.074926e+002;2.851885e-001
6.094211e+002;2.791794e-001
6.113497e+002;2.751777e-001
6.132783e+002;2.788358e-001
6.152068e+002;2.800693e-001
6.171354e+002;2.759775e-001
6.190639e+002;2.716344e-001
6.209924e+002;2.652622e-001
6.229210e+002;2.588535e-001
6.248495e+002;2.551088e-001
6.267781e+002;2.500081e-001
6.287067e+002;2.475018e-001
6.306352e+002;2.473898e-001
6.325637e+002;2.464920e-001
6.344923e+002;2.449149e-001
6.364208e+002;2.391192e-001
6.383494e+002;2.350750e-001
6.402780e+002;2.332156e-001
6.422065e+002;2.279252e-001
6.441350e+002;2.268234e-001
6.460636e+002;2.264967e-001
6.479921e+002;2.280053e-001
6.499207e+002;2.319426e-001
6.518492e+002;2.320377e-001
6.537778e+002;2.359514e-001
6.557063e+002;2.422434e-001
6.576349e+002;2.476744e-001
6.595634e+002;2.511937e-001
6.614919e+002;2.550340e-001
6.634205e+002;2.571610e-001
6.653491e+002;2.554156e-001
6.672776e+002;2.561540e-001
6.692062e+002;2.533887e-001
6.711347e+002;2.442194e-001
6.730632e+002;2.349593e-001
6.749918e+002;2.278117e-001
6.769203e+002;2.231751e-001
6.788489e+002;2.188565e-001
6.807775e+002;2.141190e-001
6.827060e+002;2.097131e-001
6.846345e+002;2.062026e-001
6.865631e+002;2.037190e-001
6.884916e+002;2.041342e-001
6.904202e+002;2.066128e-001
6.923488e+002;2.075406e-001
6.942773e+002;2.071709e-001
6.962058e+002;2.086659e-001
6.981344e+002;2.109047e-001
7.000629e+002;2.112758e-001
7.019915e+002;2.101979e-001
7.039200e+002;2.072018e-001
7.058486e+002;2.022052e-001
7.077771e+002;1.982220e-001
7.097057e+002;1.946877e-001
7.116342e+002;1.906201e-001
7.135627e+002;1.875553e-001
7.154913e+002;1.835943e-001
7.174199e+002;1.782402e-001
7.193484e+002;1.730336e-001
7.212770e+002;1.687555e-001
7.232055e+002;1.642816e-001
7.251340e+002;1.591250e-001
7.270626e+002;1.556530e-001
7.289911e+002;1.530561e-001
7.309197e+002;1.504830e-001
7.328483e+002;1.480144e-001
7.347768e+002;1.452108e-001
7.367053e+002;1.419315e-001
7.386339e+002;1.393556e-001
7.405624e+002;1.378070e-001
7.424910e+002;1.369026e-001
7.444196e+002;1.354815e-001
7.463481e+002;1.333408e-001
7.482766e+002;1.316874e-001
7.502052e+002;1.307103e-001
7.521337e+002;1.297023e-001
7.540623e+002;1.294645e-001
7.559908e+002;1.295858e-001
7.579194e+002;1.286889e-001
7.598479e+002;1.279457e-001
7.617765e+002;1.276859e-001
7.637050e+002;1.261954e-001
7.656335e+002;1.242602e-001
7.675621e+002;1.234284e-001
7.694907e+002;1.225281e-001
7.714192e+002;1.207983e-001
7.733478e+002;1.192365e-001
7.752763e+002;1.189168e-001
7.772048e+002;1.180244e-001
7.791334e+002;1.166506e-001
7.810620e+002;1.159220e-001
7.829905e+002;1.154789e-001
7.849191e+002;1.152072e-001
7.868476e+002;1.153000e-001
7.887761e+002;1.153980e-001
7.907047e+002;1.156765e-001
7.926332e+002;1.155877e-001
7.945618e+002;1.157174e-001
7.964903e+002;1.157889e-001
7.984189e+002;1.158298e-001
8.003474e+002;1.167168e-001
8.022759e+002;1.170723e-001
8.042045e+002;1.164591e-001
8.061331e+002;1.166129e-001
8.080616e+002;1.165660e-001
8.099902e+002;1.157741e-001
8.119187e+002;1.159834e-001
8.138472e+002;1.168068e-001
8.157758e+002;1.169676e-001
8.177043e+002;1.163267e-001
8.196329e+002;1.156952e-001
8.215615e+002;1.152780e-001
8.234900e+002;1.155449e-001
8.254185e+002;1.156835e-001
8.273471e+002;1.147571e-001
8.292756e+002;1.137563e-001
8.312042e+002;1.133897e-001
8.331328e+002;1.134474e-001
8.350613e+002;1.135583e-001
8.369898e+002;1.132472e-001
8.389184e+002;1.130049e-001
8.408469e+002;1.126194e-001
8.427755e+002;1.123141e-001
8.447040e+002;1.124510e-001
8.466326e+002;1.124205e-001
8.485611e+002;1.122432e-001
8.504897e+002;1.122038e-001
8.524182e+002;1.129755e-001
8.543467e+002;1.142611e-001
8.562753e+002;1.151268e-001
8.582039e+002;1.152219e-001
8.601324e+002;1.155614e-001
8.620610e+002;1.167952e-001
8.639895e+002;1.178875e-001
8.659180e+002;1.191334e-001
8.678466e+002;1.209872e-001
8.697751e+002;1.229909e-001
8.717037e+002;1.250027e-001
8.736323e+002;1.271689e-001
8.755608e+002;1.293767e-001
8.774893e+002;1.316666e-001
8.794179e+002;1.341380e-001
8.813464e+002;1.372203e-001
8.832750e+002;1.409313e-001
8.852036e+002;1.447057e-001
8.871321e+002;1.480633e-001
8.890606e+002;1.516954e-001
8.909892e+002;1.551045e-001
8.929177e+002;1.577296e-001
8.948463e+002;1.597918e-001
8.967748e+002;1.608239e-001
8.987034e+002;1.613150e-001
9.006319e+002;1.611357e-001
9.025605e+002;1.598773e-001
9.044890e+002;1.587249e-001
9.064175e+002;1.571820e-001
9.083461e+002;1.555540e-001
9.102747e+002;1.539769e-001
9.122032e+002;1.521358e-001
9.141318e+002;1.507522e-001
9.160603e+002;1.496464e-001
9.179888e+002;1.494621e-001
9.199174e+002;1.501035e-001
9.218459e+002;1.508457e-001
9.237745e+002;1.523952e-001
9.257031e+002;1.546774e-001
9.276316e+002;1.568746e-001
9.295601e+002;1.594235e-001
9.314887e+002;1.618941e-001
9.334172e+002;1.642573e-001
9.353458e+002;1.668405e-001
9.372744e+002;1.692937e-001
9.392029e+002;1.717594e-001
9.411314e+002;1.742227e-001
9.430600e+002;1.773428e-001
9.449885e+002;1.813359e-001
9.469171e+002;1.858153e-001
9.488456e+002;1.907980e-001
9.507742e+002;1.962620e-001
9.527027e+002;2.017681e-001
9.546313e+002;2.079439e-001
9.565598e+002;2.144845e-001
9.584883e+002;2.214651e-001
9.604169e+002;2.290116e-001
9.623455e+002;2.369116e-001
9.642740e+002;2.449484e-001
9.662026e+002;2.536636e-001
9.681311e+002;2.633432e-001
9.700596e+002;2.741409e-001
9.719882e+002;2.871158e-001
9.739167e+002;3.029379e-001
9.758453e+002;3.209862e-001
9.777739e+002;3.413084e-001
9.797024e+002;3.631098e-001
9.816309e+002;3.819688e-001
9.835595e+002;3.942661e-001
9.854880e+002;3.995870e-001
9.874166e+002;4.010669e-001
9.893452e+002;4.027702e-001
9.912737e+002;4.068977e-001
9.932022e+002;4.131528e-001
9.951307e+002;4.213142e-001
9.970593e+002;4.301312e-001
9.989879e+002;4.376196e-001
1.000916e+003;4.427494e-001
1.002845e+003;4.456428e-001
1.004773e+003;4.479429e-001
1.006702e+003;4.494359e-001
1.008631e+003;4.508879e-001
1.010559e+003;4.528787e-001
1.012488e+003;4.555760e-001
1.014416e+003;4.589646e-001
1.016345e+003;4.621297e-001
1.018273e+003;4.659264e-001
1.020202e+003;4.711168e-001
1.022130e+003;4.765517e-001
1.024059e+003;4.813371e-001
1.025988e+003;4.864180e-001
1.027916e+003;4.907925e-001
1.029845e+003;4.926780e-001
1.031773e+003;4.918474e-001
1.033702e+003;4.856945e-001
1.035630e+003;4.744178e-001
1.037559e+003;4.611594e-001
1.039487e+003;4.482573e-001
1.041416e+003;4.382575e-001
1.043344e+003;4.342675e-001
1.045273e+003;4.362931e-001
1.047202e+003;4.424722e-001
1.049130e+003;4.508415e-001
1.051059e+003;4.582062e-001
1.052987e+003;4.631748e-001
1.054916e+003;4.630346e-001
1.056844e+003;4.569798e-001
1.058773e+003;4.446384e-001
1.060701e+003;4.252014e-001
1.062630e+003;4.014029e-001
1.064558e+003;3.764687e-001
1.066487e+003;3.539632e-001
1.068416e+003;3.357094e-001
1.070344e+003;3.217531e-001
1.072273e+003;3.106885e-001
1.074201e+003;3.020676e-001
1.076130e+003;2.954227e-001
1.078058e+003;2.892193e-001
1.079987e+003;2.826088e-001
1.081915e+003;2.774629e-001
1.083844e+003;2.749069e-001
1.085773e+003;2.739797e-001
1.087701e+003;2.743183e-001
1.089630e+003;2.747136e-001
1.091558e+003;2.758641e-001
1.093487e+003;2.788080e-001
1.095415e+003;2.825491e-001
1.097344e+003;2.864506e-001
1.099272e+003;2.900603e-001
1.101201e+003;2.927485e-001
1.103129e+003;2.940229e-001
1.105058e+003;2.938048e-001
1.106987e+003;2.917625e-001
1.108915e+003;2.888319e-001
1.110844e+003;2.842831e-001
1.112772e+003;2.771881e-001
1.114701e+003;2.661742e-001
1.116629e+003;2.520742e-001
1.118558e+003;2.380546e-001
1.120486e+003;2.263938e-001
1.122415e+003;2.171621e-001
1.124344e+003;2.087796e-001
1.126272e+003;1.997290e-001
1.128201e+003;1.906272e-001
1.130129e+003;1.825786e-001
1.132058e+003;1.764860e-001
1.133986e+003;1.720928e-001
1.135915e+003;1.685100e-001
1.137843e+003;1.663883e-001
1.139772e+003;1.661617e-001
1.141700e+003;1.684415e-001
1.143629e+003;1.730180e-001
1.145557e+003;1.784537e-001
1.147486e+003;1.831897e-001
1.149415e+003;1.865165e-001
1.151343e+003;1.896216e-001
1.153272e+003;1.932491e-001
1.155200e+003;1.963575e-001
1.157129e+003;1.989685e-001
1.159057e+003;2.010054e-001
1.160986e+003;2.011599e-001
1.162914e+003;1.979719e-001
1.164843e+003;1.912874e-001
1.166771e+003;1.820479e-001
1.168700e+003;1.711684e-001
1.170629e+003;1.609021e-001
1.172557e+003;1.516924e-001
1.174486e+003;1.436431e-001
1.176414e+003;1.376311e-001
1.178343e+003;1.328118e-001
1.180271e+003;1.287776e-001
1.182200e+003;1.254845e-001
1.184128e+003;1.232689e-001
1.186057e+003;1.222123e-001
1.187986e+003;1.217734e-001
1.189914e+003;1.227152e-001
1.191843e+003;1.244210e-001
1.193771e+003;1.263732e-001
1.195700e+003;1.289635e-001
1.197628e+003;1.313537e-001
1.199557e+003;1.331155e-001
1.201485e+003;1.339090e-001
1.203414e+003;1.340159e-001
1.205343e+003;1.336227e-001
1.207271e+003;1.319367e-001
1.209200e+003;1.281506e-001
1.211128e+003;1.232416e-001
1.213057e+003;1.197477e-001
1.214985e+003;1.184054e-001
1.216914e+003;1.184629e-001
1.218842e+003;1.194164e-001
1.220771e+003;1.208456e-001
1.222699e+003;1.223354e-001
1.224628e+003;1.242094e-001
1.226557e+003;1.267783e-001
1.228485e+003;1.293975e-001
1.230414e+003;1.313598e-001
1.232342e+003;1.331751e-001
1.234271e+003;1.349185e-001
1.236199e+003;1.358880e-001
1.238128e+003;1.361796e-001
1.240056e+003;1.366384e-001
1.241985e+003;1.376024e-001
1.243913e+003;1.390266e-001
1.245842e+003;1.406744e-001
1.247771e+003;1.419420e-001
1.249699e+003;1.424900e-001
1.251628e+003;1.429861e-001
1.253556e+003;1.433632e-001
1.255485e+003;1.436390e-001
1.257413e+003;1.445645e-001
1.259342e+003;1.454224e-001
1.261270e+003;1.454737e-001
1.263199e+003;1.453538e-001
1.265127e+003;1.449098e-001
1.267056e+003;1.437353e-001
1.268985e+003;1.428447e-001
1.270913e+003;1.426372e-001
1.272842e+003;1.430587e-001
1.274770e+003;1.433124e-001
1.276699e+003;1.431873e-001
1.278627e+003;1.427351e-001
1.280556e+003;1.415719e-001
1.282484e+003;1.398119e-001
1.284413e+003;1.380564e-001
1.286342e+003;1.369614e-001
1.288270e+003;1.363679e-001
1.290199e+003;1.362203e-001
1.292127e+003;1.365898e-001
1.294056e+003;1.371724e-001
1.295984e+003;1.380498e-001
1.297913e+003;1.398334e-001
1.299841e+003;1.423172e-001
1.301770e+003;1.457324e-001
1.303698e+003;1.500902e-001
1.305627e+003;1.547257e-001
1.307556e+003;1.598128e-001
1.309484e+003;1.648324e-001
1.311413e+003;1.688989e-001
1.313341e+003;1.718698e-001
1.315270e+003;1.728935e-001
1.317198e+003;1.712153e-001
1.319127e+003;1.677487e-001
1.321055e+003;1.634133e-001
1.322984e+003;1.592799e-001
1.324912e+003;1.563970e-001
1.326841e+003;1.551027e-001
1.328770e+003;1.551358e-001
1.330698e+003;1.563163e-001
1.332627e+003;1.580250e-001
1.334555e+003;1.591399e-001
1.336484e+003;1.586820e-001
1.338412e+003;1.567042e-001
1.340341e+003;1.540838e-001
1.342269e+003;1.513753e-001
1.344198e+003;1.482602e-001
1.346126e+003;1.452567e-001
1.348055e+003;1.430330e-001
1.349984e+003;1.421545e-001
1.351912e+003;1.427952e-001
1.353841e+003;1.441219e-001
1.355769e+003;1.451240e-001
1.357698e+003;1.460658e-001
1.359626e+003;1.465934e-001
1.361555e+003;1.458536e-001
1.363483e+003;1.444604e-001
1.365412e+003;1.434719e-001
1.367341e+003;1.428897e-001
1.369269e+003;1.424618e-001
1.371198e+003;1.410068e-001
1.373126e+003;1.377745e-001
1.375055e+003;1.341159e-001
1.376983e+003;1.310667e-001
1.378912e+003;1.279030e-001
1.380840e+003;1.246175e-001
1.382769e+003;1.214290e-001
1.384698e+003;1.182944e-001
1.386626e+003;1.152986e-001
1.388555e+003;1.142638e-001
1.390483e+003;1.140690e-001
1.392412e+003;1.131414e-001
1.394340e+003;1.120354e-001
1.396269e+003;1.122000e-001
1.398197e+003;1.121835e-001
1.400126e+003;1.125676e-001
1.402054e+003;1.133579e-001
1.403983e+003;1.129643e-001
1.405911e+003;1.129074e-001
1.407840e+003;1.134643e-001
1.409769e+003;1.135939e-001
1.411697e+003;1.140022e-001
1.413626e+003;1.146933e-001
1.415554e+003;1.153413e-001
1.417483e+003;1.153950e-001
1.419411e+003;1.168013e-001
1.421340e+003;1.210385e-001
1.423268e+003;1.239764e-001
1.425197e+003;1.260093e-001
1.427125e+003;1.274094e-001
1.429054e+003;1.273650e-001
1.430983e+003;1.272296e-001
1.432911e+003;1.264134e-001
1.434840e+003;1.227750e-001
1.436768e+003;1.193092e-001
1.438697e+003;1.198662e-001
1.440625e+003;1.204953e-001
1.442554e+003;1.207795e-001
1.444482e+003;1.211646e-001
1.446411e+003;1.212106e-001
1.448340e+003;1.218234e-001
1.450268e+003;1.232221e-001
1.452197e+003;1.235491e-001
1.454125e+003;1.212013e-001
1.456054e+003;1.152196e-001
1.457982e+003;1.131708e-001
1.459911e+003;1.148556e-001
1.461839e+003;1.139879e-001
1.463768e+003;1.100456e-001
1.465697e+003;1.071464e-001
1.467625e+003;1.059712e-001
1.469554e+003;1.035221e-001
1.471482e+003;9.976726e-002
1.473411e+003;9.717351e-002
1.475339e+003;9.519532e-002
1.477268e+003;9.309688e-002
1.479196e+003;9.160376e-002
1.481125e+003;8.990736e-002
1.483053e+003;8.802769e-002
1.484982e+003;8.523612e-002
1.486911e+003;8.200391e-002
1.488839e+003;7.918914e-002
1.490768e+003;7.866696e-002
1.492696e+003;7.991062e-002
1.494625e+003;7.856041e-002
1.496553e+003;7.591305e-002
1.498482e+003;7.555271e-002
1.500410e+003;7.552937e-002
1.502339e+003;7.485119e-002
1.504267e+003;7.096057e-002
1.506196e+003;6.657101e-002
1.508125e+003;6.871000e-002
1.510053e+003;7.224403e-002
1.511982e+003;7.305849e-002
1.513910e+003;7.318278e-002
1.515839e+003;7.185294e-002
1.517767e+003;7.087450e-002
1.519696e+003;6.940299e-002
1.521624e+003;6.886547e-002
1.523553e+003;7.144154e-002
1.525481e+003;7.259111e-002
1.527410e+003;7.379854e-002
1.529339e+003;7.546151e-002
1.531267e+003;7.562838e-002
1.533196e+003;7.471130e-002
1.535124e+003;7.621931e-002
1.537053e+003;7.515358e-002
1.538981e+003;7.037277e-002
1.540910e+003;7.092042e-002
1.542838e+003;7.484233e-002
1.544767e+003;7.751931e-002
1.546695e+003;7.976018e-002
1.548624e+003;8.050737e-002
1.550553e+003;8.082411e-002
1.552481e+003;8.043272e-002
1.554410e+003;7.920585e-002
1.556338e+003;7.691961e-002
1.558267e+003;7.214689e-002
1.560195e+003;7.361546e-002
1.562124e+003;7.919602e-002
1.564052e+003;8.092534e-002
1.565981e+003;8.097077e-002
1.567910e+003;7.983695e-002
1.569838e+003;7.903256e-002
1.571767e+003;8.039743e-002
1.573695e+003;7.934897e-002
1.575624e+003;7.617410e-002
1.577552e+003;7.795852e-002
1.579481e+003;8.098918e-002
1.581409e+003;8.127147e-002
1.583338e+003;8.097485e-002
1.585266e+003;8.094423e-002
1.587195e+003;8.117899e-002
1.589124e+003;8.115394e-002
1.591052e+003;8.098231e-002
1.592981e+003;8.094534e-002
1.594909e+003;8.122744e-002
1.596838e+003;8.171102e-002
1.598766e+003;8.224549e-002
1.600695e+003;8.233888e-002
1.602623e+003;8.240893e-002
1.604552e+003;8.236644e-002
1.606480e+003;8.197913e-002
1.608409e+003;8.165259e-002
1.610338e+003;8.169718e-002
1.612266e+003;8.194992e-002
1.614195e+003;8.072969e-002
1.616123e+003;7.791717e-002
1.618052e+003;7.943761e-002
1.619980e+003;8.199826e-002
1.621909e+003;8.140457e-002
1.623837e+003;8.108246e-002
1.625766e+003;8.193719e-002
1.627694e+003;8.243486e-002
1.629623e+003;8.302734e-002
1.631552e+003;8.314598e-002
1.633480e+003;8.083645e-002
1.635409e+003;7.844695e-002
1.637337e+003;8.089852e-002
1.639266e+003;8.334312e-002
1.641194e+003;8.383045e-002
1.643123e+003;8.313879e-002
1.645051e+003;8.054338e-002
1.646980e+003;8.000319e-002
1.648909e+003;8.202524e-002
1.650837e+003;7.849610e-002
1.652766e+003;7.275456e-002
1.654694e+003;7.749265e-002
1.656623e+003;8.328038e-002
1.658551e+003;8.441041e-002
1.660480e+003;8.346493e-002
1.662408e+003;8.220077e-002
1.664337e+003;8.272703e-002
1.666266e+003;8.260626e-002
1.668194e+003;8.020955e-002
1.670123e+003;7.911237e-002
1.672051e+003;7.959200e-002
1.673980e+003;7.813539e-002
1.675908e+003;7.773733e-002
1.677837e+003;7.920946e-002
1.679765e+003;7.873912e-002
1.681694e+003;7.626745e-002
1.683622e+003;7.143939e-002
1.685551e+003;7.225343e-002
1.687479e+003;7.608882e-002
1.689408e+003;7.673224e-002
1.691337e+003;7.681192e-002
1.693265e+003;7.510746e-002
1.695194e+003;7.100482e-002
1.697122e+003;7.120062e-002
1.699051e+003;7.015954e-002
1.700979e+003;7.049170e-002
1.702908e+003;7.459951e-002
1.704836e+003;7.545608e-002
1.706765e+003;7.680029e-002
1.708693e+003;7.849820e-002
1.710622e+003;7.996093e-002
1.712551e+003;8.051196e-002
1.714479e+003;8.093564e-002
1.716408e+003;8.162712e-002
1.718336e+003;8.666135e-002
1.720265e+003;9.549943e-002
1.722193e+003;1.028604e-001
1.724122e+003;1.090834e-001
1.726050e+003;1.147140e-001
1.727979e+003;1.188982e-001
1.729908e+003;1.209208e-001
1.731836e+003;1.185304e-001
1.733765e+003;1.131942e-001
1.735693e+003;1.110588e-001
1.737622e+003;1.065328e-001
1.739550e+003;9.747150e-002
1.741479e+003;8.946551e-002
1.743407e+003;8.220986e-002
1.745336e+003;7.566021e-002
1.747265e+003;7.016627e-002
1.749193e+003;6.560951e-002
1.751122e+003;6.267350e-002
1.753050e+003;6.264315e-002
1.754979e+003;6.205086e-002
1.756907e+003;6.105938e-002
1.758836e+003;6.083703e-002
1.760764e+003;5.955383e-002
1.762693e+003;5.914119e-002
1.764621e+003;5.985409e-002
1.766550e+003;5.883035e-002
1.768479e+003;5.764177e-002
1.770407e+003;5.643826e-002
1.772336e+003;5.534382e-002
1.774264e+003;5.693609e-002
1.776193e+003;5.830723e-002
1.778121e+003;5.834695e-002
1.780050e+003;5.798930e-002
1.781978e+003;5.789468e-002
1.783907e+003;5.761291e-002
1.785835e+003;5.763349e-002
1.787764e+003;5.786265e-002
1.789693e+003;5.684691e-002
1.791621e+003;5.519909e-002
1.793550e+003;5.564148e-002
1.795478e+003;5.711000e-002
1.797407e+003;5.721730e-002
1.799335e+003;5.666921e-002
1.801264e+003;5.622302e-002
1.803192e+003;5.639118e-002
1.805121e+003;5.646158e-002
1.807049e+003;5.639408e-002
1.808978e+003;5.616551e-002
1.810907e+003;5.584442e-002
1.812835e+003;5.609768e-002
1.814764e+003;5.656672e-002
1.816692e+003;5.655098e-002
1.818621e+003;5.651649e-002
1.820549e+003;5.628943e-002
1.822478e+003;5.594557e-002
1.824406e+003;5.531368e-002
1.826335e+003;5.520959e-002
1.828264e+003;5.455570e-002
1.830192e+003;5.408731e-002
1.832121e+003;5.508259e-002
1.834049e+003;5.562288e-002
1.835978e+003;5.532275e-002
1.837906e+003;5.528846e-002
1.839835e+003;5.541967e-002
1.841763e+003;5.455341e-002
1.843692e+003;5.281685e-002
1.845620e+003;5.336639e-002
1.847549e+003;5.457088e-002
1.849478e+003;5.475963e-002
1.851406e+003;5.483350e-002
1.853335e+003;5.476208e-002
1.855263e+003;5.463430e-002
1.857192e+003;5.450679e-002
1.859120e+003;5.450495e-002
1.861049e+003;5.471991e-002
1.862977e+003;5.471675e-002
1.864906e+003;5.431679e-002
1.866834e+003;5.343406e-002
1.868763e+003;5.295229e-002
1.870692e+003;5.360156e-002
1.872620e+003;5.427628e-002
1.874549e+003;5.450363e-002
1.876477e+003;5.440105e-002
1.878406e+003;5.422026e-002
1.880334e+003;5.439493e-002
1.882263e+003;5.447681e-002
1.884191e+003;5.447381e-002
1.886120e+003;5.444744e-002
1.888048e+003;5.391074e-002
1.889977e+003;5.359785e-002
1.891906e+003;5.408521e-002
1.893834e+003;5.416362e-002
1.895763e+003;5.409418e-002
1.897691e+003;5.413840e-002
1.899620e+003;5.418411e-002
1.901548e+003;5.414271e-002
1.903477e+003;5.402074e-002
1.905405e+003;5.389649e-002
1.907334e+003;5.391209e-002
1.909262e+003;5.402581e-002
1.911191e+003;5.428161e-002
1.913120e+003;5.442524e-002
1.915048e+003;5.423471e-002
1.916977e+003;5.368865e-002
1.918905e+003;5.373180e-002
1.920834e+003;5.406724e-002
1.922762e+003;5.410694e-002
1.924691e+003;5.431011e-002
1.926619e+003;5.452238e-002
1.928548e+003;5.463238e-002
1.930477e+003;5.482154e-002
1.932405e+003;5.494028e-002
1.934334e+003;5.500349e-002
1.936262e+003;5.513638e-002
1.938191e+003;5.525930e-002
1.940119e+003;5.494806e-002
1.942048e+003;5.454871e-002
1.943976e+003;5.470657e-002
1.945905e+003;5.507860e-002
1.947833e+003;5.544399e-002
1.949762e+003;5.557675e-002
1.951691e+003;5.549493e-002
1.953619e+003;5.539422e-002
1.955548e+003;5.541978e-002
1.957476e+003;5.554248e-002
1.959405e+003;5.559618e-002
1.961333e+003;5.566054e-002
1.963262e+003;5.571162e-002
1.965190e+003;5.574533e-002
1.967119e+003;5.561693e-002
1.969047e+003;5.574601e-002
1.970976e+003;5.602710e-002
1.972905e+003;5.610842e-002
1.974833e+003;5.608097e-002
1.976762e+003;5.602427e-002
1.978690e+003;5.583964e-002
1.980619e+003;5.588546e-002
1.982547e+003;5.581221e-002
1.984476e+003;5.592665e-002
1.986404e+003;5.620103e-002
1.988333e+003;5.617263e-002
1.990261e+003;5.599431e-002
1.992190e+003;5.605707e-002
1.994119e+003;5.641777e-002
1.996047e+003;5.645218e-002
1.997976e+003;5.643559e-002
1.999904e+003;5.655446e-002
2.001833e+003;5.641683e-002
2.003761e+003;5.630030e-002
2.005690e+003;5.644117e-002
2.007618e+003;5.650906e-002
2.009547e+003;5.651106e-002
2.011476e+003;5.672599e-002
2.013404e+003;5.689416e-002
2.015333e+003;5.682587e-002
2.017261e+003;5.681779e-002
2.019190e+003;5.716987e-002
2.021118e+003;5.751133e-002
2.023047e+003;5.760606e-002
2.024975e+003;5.759985e-002
2.026904e+003;5.763523e-002
2.028833e+003;5.778520e-002
2.030761e+003;5.780458e-002
2.032690e+003;5.777460e-002
2.034618e+003;5.775844e-002
2.036547e+003;5.790588e-002
2.038475e+003;5.813378e-002
2.040404e+003;5.816098e-002
2.042332e+003;5.819326e-002
2.044261e+003;5.815034e-002
2.046189e+003;5.825725e-002
2.048118e+003;5.832557e-002
2.050047e+003;5.831962e-002
2.051975e+003;5.855627e-002
2.053904e+003;5.848181e-002
2.055832e+003;5.799232e-002
2.057761e+003;5.774391e-002
2.059689e+003;5.774001e-002
2.061618e+003;5.776885e-002
2.063546e+003;5.779012e-002
2.065475e+003;5.777082e-002
2.067404e+003;5.782828e-002
2.069332e+003;5.790547e-002
2.071260e+003;5.783123e-002
2.073189e+003;5.773430e-002
2.075118e+003;5.770841e-002
2.077046e+003;5.761363e-002
2.078975e+003;5.759997e-002
2.080903e+003;5.770357e-002
2.082832e+003;5.770675e-002
2.084760e+003;5.767931e-002
2.086689e+003;5.746829e-002
2.088617e+003;5.750506e-002
2.090546e+003;5.767273e-002
2.092475e+003;5.762657e-002
2.094403e+003;5.756724e-002
2.096332e+003;5.765332e-002
2.098260e+003;5.771178e-002
2.100189e+003;5.762407e-002
2.102117e+003;5.770754e-002
2.104046e+003;5.791819e-002
2.105974e+003;5.787351e-002
2.107903e+003;5.781363e-002
2.109832e+003;5.819046e-002
2.111760e+003;5.837071e-002
2.113688e+003;5.826729e-002
2.115617e+003;5.821482e-002
2.117546e+003;5.820902e-002
2.119474e+003;5.804072e-002
2.121403e+003;5.794923e-002
2.123331e+003;5.828283e-002
2.125260e+003;5.845072e-002
2.127188e+003;5.848784e-002
2.129117e+003;5.875273e-002
2.131045e+003;5.888756e-002
2.132974e+003;5.875622e-002
2.134903e+003;5.861372e-002
2.136831e+003;5.867201e-002
2.138760e+003;5.882549e-002
2.140688e+003;5.852101e-002
2.142617e+003;5.805962e-002
2.144545e+003;5.799195e-002
2.146474e+003;5.798718e-002
2.148402e+003;5.797919e-002
2.150331e+003;5.821258e-002
2.152260e+003;5.842491e-002
2.154188e+003;5.852397e-002
2.156117e+003;5.837924e-002
2.158045e+003;5.801580e-002
2.159974e+003;5.757027e-002
2.161902e+003;5.737745e-002
2.163831e+003;5.740850e-002
2.165759e+003;5.716472e-002
2.167688e+003;5.690050e-002
2.169616e+003;5.695501e-002
2.171545e+003;5.696959e-002
2.173474e+003;5.685673e-002
2.175402e+003;5.680234e-002
2.177331e+003;5.674755e-002
2.179259e+003;5.656823e-002
2.181188e+003;5.620458e-002
2.183116e+003;5.621008e-002
2.185045e+003;5.620725e-002
2.186973e+003;5.605300e-002
2.188902e+003;5.591693e-002
2.190831e+003;5.552354e-002
2.192759e+003;5.541425e-002
2.194688e+003;5.568586e-002
2.196616e+003;5.566928e-002
2.198545e+003;5.538606e-002
2.200473e+003;5.560390e-002
2.202402e+003;5.591595e-002
2.204330e+003;5.584156e-002
2.206259e+003;5.559373e-002
2.208188e+003;5.535752e-002
2.210116e+003;5.539622e-002
2.212044e+003;5.560288e-002
2.213973e+003;5.559143e-002
2.215902e+003;5.553228e-002
2.217830e+003;5.569821e-002
2.219759e+003;5.567478e-002
2.221687e+003;5.551545e-002
2.223616e+003;5.544708e-002
2.225544e+003;5.564212e-002
2.227473e+003;5.557592e-002
2.229401e+003;5.534074e-002
2.231330e+003;5.556677e-002
2.233259e+003;5.583154e-002
2.235187e+003;5.582423e-002
2.237116e+003;5.583191e-002
2.239044e+003;5.560156e-002
2.240973e+003;5.544911e-002
2.242901e+003;5.567553e-002
2.244830e+003;5.580286e-002
2.246758e+003;5.573893e-002
2.248687e+003;5.566182e-002
2.250615e+003;5.551959e-002
2.252544e+003;5.530716e-002
2.254473e+003;5.525810e-002
2.256401e+003;5.523789e-002
2.258330e+003;5.504685e-002
2.260258e+003;5.480576e-002
2.262187e+003;5.466395e-002
2.264115e+003;5.461299e-002
2.266044e+003;5.463776e-002
2.267972e+003;5.457031e-002
2.269901e+003;5.449837e-002
2.271830e+003;5.447895e-002
2.273758e+003;5.427087e-002
2.275687e+003;5.409313e-002
2.277615e+003;5.428093e-002
2.279544e+003;5.422946e-002
2.281472e+003;5.402907e-002
2.283401e+003;5.406915e-002
2.285329e+003;5.400487e-002
2.287258e+003;5.393179e-002
2.289187e+003;5.385421e-002
2.291115e+003;5.376173e-002
2.293043e+003;5.367159e-002
2.294972e+003;5.358813e-002
2.296901e+003;5.358278e-002
2.298829e+003;5.342990e-002
2.300758e+003;5.328086e-002
2.302686e+003;5.335118e-002
2.304615e+003;5.359256e-002
2.306543e+003;5.359976e-002
2.308472e+003;5.334770e-002
2.310400e+003;5.321475e-002
2.312329e+003;5.338052e-002
2.314258e+003;5.359357e-002
2.316186e+003;5.366349e-002
2.318115e+003;5.352479e-002
2.320043e+003;5.324887e-002
2.321972e+003;5.308189e-002
2.323900e+003;5.294023e-002
2.325829e+003;5.281198e-002
2.327757e+003;5.281980e-002
2.329686e+003;5.272114e-002
2.331615e+003;5.242749e-002
2.333543e+003;5.216561e-002
2.335472e+003;5.259187e-002
2.337400e+003;5.301229e-002
2.339329e+003;5.300503e-002
2.341257e+003;5.309279e-002
2.343186e+003;5.348308e-002
2.345114e+003;5.388002e-002
2.347043e+003;5.399137e-002
2.348971e+003;5.407351e-002
2.350900e+003;5.435366e-002
2.352829e+003;5.441897e-002
2.354757e+003;5.404585e-002
2.356686e+003;5.365704e-002
2.358614e+003;5.371864e-002
2.360543e+003;5.393288e-002
2.362471e+003;5.394353e-002
2.364400e+003;5.370852e-002
2.366328e+003;5.376563e-002
2.368257e+003;5.402960e-002
2.370186e+003;5.445409e-002
2.372114e+003;5.488263e-002
2.374042e+003;5.525851e-002
2.375971e+003;5.565064e-002
2.377900e+003;5.602710e-002
2.379828e+003;5.620337e-002
2.381757e+003;5.618689e-002
2.383685e+003;5.605485e-002
2.385614e+003;5.635643e-002
2.387542e+003;5.652573e-002
2.389471e+003;5.659533e-002
2.391399e+003;5.679898e-002
2.393328e+003;5.694557e-002
2.395257e+003;5.694908e-002
2.397185e+003;5.686466e-002
2.399114e+003;5.687739e-002
2.401042e+003;5.712092e-002
2.402971e+003;5.718547e-002
2.404899e+003;5.718177e-002
2.406828e+003;5.726501e-002
2.408756e+003;5.739745e-002
2.410685e+003;5.736146e-002
2.412614e+003;5.746583e-002
2.414542e+003;5.785773e-002
2.416471e+003;5.792671e-002
2.418399e+003;5.774330e-002
2.420328e+003;5.786189e-002
2.422256e+003;5.815659e-002
2.424185e+003;5.826983e-002
2.426113e+003;5.859817e-002
2.428042e+003;5.874415e-002
2.429970e+003;5.873812e-002
2.431899e+003;5.881638e-002
2.433828e+003;5.886161e-002
2.435756e+003;5.900282e-002
2.437685e+003;5.914472e-002
2.439613e+003;5.896305e-002
2.441542e+003;5.899071e-002
2.443470e+003;5.936978e-002
2.445399e+003;5.946457e-002
2.447327e+003;5.933589e-002
2.449256e+003;5.942563e-002
2.451185e+003;5.982146e-002
2.453113e+003;6.013370e-002
2.455042e+003;6.003184e-002
2.456970e+003;5.997489e-002
2.458899e+003;5.974678e-002
2.460827e+003;5.958393e-002
2.462756e+003;5.981104e-002
2.464684e+003;6.007872e-002
2.466613e+003;6.001560e-002
2.468542e+003;6.034343e-002
2.470470e+003;6.055300e-002
2.472398e+003;6.026775e-002
2.474327e+003;6.022900e-002
2.476256e+003;6.047031e-002
2.478184e+003;6.066016e-002
2.480113e+003;6.055060e-002
2.482041e+003;6.041102e-002
2.483970e+003;6.061871e-002
2.485898e+003;6.126406e-002
2.487827e+003;6.137213e-002
2.489755e+003;6.109378e-002
2.491684e+003;6.086626e-002
2.493613e+003;6.099562e-002
2.495541e+003;6.112532e-002
2.497470e+003;6.130340e-002
2.499398e+003;6.154493e-002
2.501327e+003;6.157631e-002
2.503255e+003;6.156528e-002
2.505184e+003;6.164711e-002
2.507112e+003;6.157131e-002
2.509041e+003;6.178178e-002
2.510969e+003;6.229104e-002
2.512898e+003;6.254460e-002
2.514827e+003;6.239286e-002
2.516755e+003;6.246149e-002
2.518684e+003;6.273571e-002
2.520612e+003;6.271289e-002
2.522541e+003;6.277008e-002
2.524469e+003;6.295072e-002
2.526398e+003;6.297286e-002
2.528326e+003;6.284663e-002
2.530255e+003;6.307683e-002
2.532184e+003;6.332505e-002
2.534112e+003;6.329987e-002
2.536041e+003;6.333483e-002
2.537969e+003;6.313431e-002
2.539898e+003;6.274746e-002
2.541826e+003;6.284288e-002
2.543755e+003;6.330980e-002
2.545683e+003;6.315776e-002
2.547612e+003;6.294793e-002
2.549541e+003;6.332832e-002
2.551469e+003;6.363849e-002
2.553397e+003;6.365498e-002
2.555326e+003;6.339157e-002
2.557255e+003;6.359191e-002
2.559183e+003;6.388699e-002
2.561112e+003;6.384926e-002
2.563040e+003;6.371357e-002
2.564969e+003;6.353860e-002
2.566897e+003;6.339993e-002
2.568826e+003;6.361923e-002
2.570754e+003;6.394435e-002
2.572683e+003;6.382685e-002
2.574612e+003;6.360277e-002
2.576540e+003;6.377201e-002
2.578469e+003;6.411123e-002
2.580397e+003;6.415547e-002
2.582326e+003;6.417225e-002
2.584254e+003;6.427355e-002
2.586183e+003;6.433918e-002
2.588111e+003;6.451247e-002
2.590040e+003;6.476944e-002
2.591969e+003;6.456333e-002
2.593897e+003;6.415290e-002
2.595826e+003;6.424581e-002
2.597754e+003;6.429906e-002
2.599683e+003;6.404087e-002
2.601611e+003;6.409114e-002
2.603540e+003;6.456744e-002
2.605468e+003;6.506120e-002
2.607397e+003;6.511632e-002
2.609325e+003;6.506186e-002
2.611254e+003;6.537342e-002
2.613183e+003;6.567843e-002
2.615111e+003;6.549014e-002
2.617040e+003;6.531092e-002
2.618968e+003;6.548949e-002
2.620897e+003;6.564698e-002
2.622825e+003;6.606473e-002
2.624754e+003;6.604394e-002
2.626682e+003;6.580028e-002
2.628611e+003;6.584215e-002
2.630540e+003;6.629526e-002
2.632468e+003;6.647470e-002
2.634396e+003;6.631467e-002
2.636325e+003;6.637979e-002
2.638254e+003;6.663220e-002
2.640182e+003;6.657480e-002
2.642111e+003;6.653571e-002
2.644039e+003;6.650497e-002
2.645968e+003;6.626260e-002
2.647896e+003;6.627044e-002
2.649825e+003;6.664270e-002
2.651753e+003;6.720772e-002
2.653682e+003;6.728438e-002
2.655611e+003;6.692726e-002
2.657539e+003;6.676305e-002
2.659468e+003;6.694759e-002
2.661396e+003;6.733724e-002
2.663325e+003;6.756317e-002
2.665253e+003;6.732532e-002
2.667182e+003;6.709313e-002
2.669110e+003;6.729305e-002
2.671039e+003;6.738676e-002
2.672968e+003;6.764548e-002
2.674896e+003;6.801520e-002
2.676825e+003;6.800122e-002
2.678753e+003;6.777075e-002
2.680682e+003;6.790714e-002
2.682610e+003;6.807353e-002
2.684539e+003;6.821416e-002
2.686467e+003;6.829570e-002
2.688396e+003;6.823440e-002
2.690324e+003;6.838882e-002
2.692253e+003;6.873674e-002
2.694182e+003;6.904303e-002
2.696110e+003;6.923935e-002
2.698039e+003;6.933383e-002
2.699967e+003;6.940753e-002
2.701896e+003;6.932155e-002
2.703824e+003;6.951885e-002
2.705753e+003;6.951445e-002
2.707681e+003;6.936893e-002
2.709610e+003;6.958671e-002
2.711539e+003;6.971885e-002
2.713467e+003;6.991182e-002
2.715396e+003;7.037787e-002
2.717324e+003;7.074151e-002
2.719253e+003;7.086729e-002
2.721181e+003;7.083562e-002
2.723110e+003;7.071698e-002
2.725038e+003;7.075024e-002
2.726967e+003;7.090427e-002
2.728896e+003;7.091656e-002
2.730824e+003;7.087763e-002
2.732752e+003;7.084615e-002
2.734681e+003;7.096759e-002
2.736610e+003;7.137702e-002
2.738538e+003;7.172497e-002
2.740467e+003;7.139307e-002
2.742395e+003;7.102323e-002
2.744324e+003;7.145798e-002
2.746252e+003;7.167197e-002
2.748181e+003;7.143521e-002
2.750109e+003;7.140478e-002
2.752038e+003;7.167467e-002
2.753967e+003;7.189310e-002
2.755895e+003;7.200786e-002
2.757824e+003;7.206282e-002
2.759752e+003;7.212572e-002
2.761681e+003;7.201948e-002
2.763609e+003;7.188078e-002
2.765538e+003;7.202151e-002
2.767466e+003;7.229561e-002
2.769395e+003;7.256921e-002
2.771323e+003;7.263117e-002
2.773252e+003;7.292686e-002
2.775181e+003;7.342795e-002
2.777109e+003;7.342622e-002
2.779038e+003;7.340012e-002
2.780966e+003;7.366277e-002
2.782895e+003;7.403985e-002
2.784823e+003;7.418974e-002
2.786752e+003;7.435813e-002
2.788680e+003;7.448696e-002
2.790609e+003;7.435195e-002
2.792538e+003;7.447017e-002
2.794466e+003;7.496835e-002
2.796395e+003;7.559948e-002
2.798323e+003;7.594983e-002
2.800252e+003;7.607350e-002
2.802180e+003;7.615361e-002
2.804109e+003;7.643325e-002
2.806037e+003;7.692562e-002
2.807966e+003;7.734036e-002
2.809895e+003;7.772077e-002
2.811823e+003;7.787820e-002
2.813751e+003;7.819521e-002
2.815680e+003;7.901864e-002
2.817609e+003;7.960816e-002
2.819537e+003;7.996726e-002
2.821466e+003;8.040712e-002
2.823394e+003;8.098191e-002
2.825323e+003;8.151370e-002
2.827251e+003;8.238394e-002
2.829180e+003;8.321925e-002
2.831108e+003;8.391176e-002
2.833037e+003;8.499479e-002
2.834966e+003;8.602733e-002
2.836894e+003;8.739435e-002
2.838823e+003;8.933301e-002
2.840751e+003;9.139645e-002
2.842680e+003;9.411806e-002
2.844608e+003;9.771061e-002
2.846537e+003;1.020468e-001
2.848465e+003;1.072674e-001
2.850394e+003;1.107261e-001
2.852323e+003;1.102978e-001
2.854251e+003;1.076798e-001
2.856180e+003;1.052713e-001
2.858108e+003;1.043096e-001
2.860037e+003;1.042915e-001
2.861965e+003;1.045378e-001
2.863894e+003;1.054895e-001
2.865822e+003;1.065880e-001
2.867751e+003;1.076327e-001
2.869679e+003;1.083827e-001
2.871608e+003;1.096927e-001
2.873536e+003;1.107978e-001
2.875465e+003;1.106069e-001
2.877394e+003;1.100227e-001
2.879322e+003;1.100573e-001
2.881251e+003;1.100890e-001
2.883179e+003;1.102189e-001
2.885108e+003;1.107883e-001
2.887036e+003;1.118608e-001
2.888965e+003;1.128961e-001
2.890893e+003;1.134370e-001
2.892822e+003;1.140832e-001
2.894750e+003;1.148558e-001
2.896679e+003;1.157622e-001
2.898608e+003;1.165338e-001
2.900536e+003;1.169897e-001
2.902465e+003;1.172928e-001
2.904393e+003;1.172382e-001
2.906322e+003;1.174102e-001
2.908250e+003;1.178847e-001
2.910179e+003;1.189930e-001
2.912107e+003;1.208474e-001
2.914036e+003;1.222785e-001
2.915965e+003;1.234626e-001
2.917893e+003;1.247598e-001
2.919822e+003;1.247639e-001
2.921750e+003;1.228836e-001
2.923679e+003;1.195183e-001
2.925607e+003;1.158480e-001
2.927536e+003;1.128300e-001
2.929464e+003;1.101370e-001
2.931393e+003;1.076024e-001
2.933322e+003;1.053558e-001
2.935250e+003;1.031349e-001
2.937178e+003;1.012181e-001
2.939107e+003;9.979291e-002
2.941036e+003;9.859317e-002
2.942964e+003;9.753529e-002
2.944893e+003;9.652041e-002
2.946821e+003;9.578682e-002
2.948750e+003;9.508848e-002
2.950678e+003;9.431762e-002
2.952607e+003;9.364396e-002
2.954535e+003;9.296835e-002
2.956464e+003;9.267221e-002
2.958393e+003;9.245754e-002
2.960321e+003;9.144966e-002
2.962250e+003;9.038486e-002
2.964178e+003;8.939183e-002
2.966107e+003;8.802997e-002
2.968035e+003;8.650763e-002
2.969964e+003;8.479799e-002
2.971892e+003;8.320075e-002
2.973821e+003;8.183229e-002
2.975750e+003;7.965584e-002
2.977678e+003;7.780752e-002
2.979607e+003;7.647473e-002
2.981535e+003;7.503593e-002
2.983464e+003;7.398237e-002
2.985392e+003;7.294919e-002
2.987321e+003;7.158968e-002
2.989249e+003;7.064867e-002
2.991178e+003;7.000508e-002
2.993106e+003;6.964832e-002
2.995035e+003;6.975908e-002
2.996964e+003;6.941476e-002
2.998892e+003;6.908133e-002
3.000821e+003;6.904019e-002
3.002749e+003;6.882257e-002
3.004678e+003;6.869470e-002
3.006606e+003;6.846189e-002
3.008535e+003;6.835748e-002
3.010463e+003;6.872711e-002
3.012392e+003;6.917391e-002
3.014321e+003;6.891157e-002
3.016249e+003;6.856668e-002
3.018177e+003;6.877583e-002
3.020106e+003;6.950501e-002
3.022035e+003;7.011417e-002
3.023963e+003;7.011262e-002
3.025892e+003;7.001773e-002
3.027820e+003;7.032882e-002
3.029749e+003;7.091711e-002
3.031677e+003;7.113882e-002
3.033606e+003;7.081062e-002
3.035534e+003;7.066403e-002
3.037463e+003;7.078492e-002
3.039392e+003;7.097449e-002
3.041320e+003;7.104364e-002
3.043249e+003;7.104652e-002
3.045177e+003;7.114823e-002
3.047106e+003;7.128166e-002
3.049034e+003;7.135206e-002
3.050963e+003;7.176729e-002
3.052891e+003;7.244807e-002
3.054820e+003;7.281349e-002
3.056749e+003;7.285730e-002
3.058677e+003;7.269427e-002
3.060606e+003;7.289214e-002
3.062534e+003;7.359364e-002
3.064463e+003;7.349940e-002
3.066391e+003;7.309894e-002
3.068320e+003;7.362296e-002
3.070248e+003;7.416903e-002
3.072177e+003;7.453968e-002
3.074105e+003;7.464688e-002
3.076034e+003;7.465003e-002
3.077963e+003;7.503884e-002
3.079891e+003;7.524061e-002
3.081820e+003;7.564223e-002
3.083748e+003;7.601433e-002
3.085677e+003;7.632125e-002
3.087605e+003;7.644226e-002
3.089534e+003;7.670334e-002
3.091462e+003;7.712130e-002
3.093391e+003;7.742386e-002
3.095320e+003;7.769296e-002
3.097248e+003;7.762888e-002
3.099177e+003;7.773904e-002
3.101105e+003;7.825246e-002
3.103034e+003;7.919122e-002
3.104962e+003;8.009000e-002
3.106891e+003;8.008462e-002
3.108819e+003;7.968286e-002
3.110748e+003;8.002350e-002
3.112677e+003;8.053752e-002
3.114605e+003;8.066238e-002
3.116533e+003;8.082124e-002
3.118462e+003;8.098970e-002
3.120391e+003;8.152413e-002
3.122319e+003;8.207259e-002
3.124248e+003;8.214872e-002
3.126176e+003;8.301391e-002
3.128105e+003;8.395578e-002
3.130033e+003;8.384360e-002
3.131962e+003;8.373437e-002
3.133890e+003;8.433721e-002
3.135819e+003;8.498517e-002
3.137748e+003;8.503054e-002
3.139676e+003;8.541727e-002
3.141605e+003;8.573730e-002
3.143533e+003;8.628783e-002
3.145462e+003;8.710983e-002
3.147390e+003;8.759059e-002
3.149319e+003;8.796407e-002
3.151247e+003;8.798602e-002
3.153176e+003;8.849371e-002
3.155104e+003;8.931751e-002
3.157033e+003;9.008085e-002
3.158962e+003;9.080927e-002
3.160890e+003;9.136022e-002
3.162819e+003;9.164917e-002
3.164747e+003;9.205557e-002
3.166676e+003;9.276959e-002
3.168604e+003;9.330927e-002
3.170533e+003;9.362932e-002
3.172461e+003;9.419017e-002
3.174390e+003;9.489147e-002
3.176319e+003;9.521054e-002
3.178247e+003;9.585977e-002
3.180176e+003;9.660430e-002
3.182104e+003;9.731597e-002
3.184033e+003;9.785511e-002
3.185961e+003;9.800648e-002
3.187890e+003;9.827438e-002
3.189818e+003;9.910659e-002
3.191747e+003;1.000547e-001
3.193676e+003;1.012281e-001
3.195604e+003;1.020689e-001
3.197532e+003;1.024787e-001
3.199461e+003;1.031338e-001
3.201390e+003;1.036539e-001
3.203318e+003;1.032194e-001
3.205247e+003;1.036369e-001
3.207175e+003;1.053474e-001
3.209104e+003;1.070602e-001
3.211032e+003;1.082969e-001
3.212961e+003;1.084973e-001
3.214889e+003;1.088835e-001
3.216818e+003;1.099067e-001
3.218747e+003;1.106924e-001
3.220675e+003;1.112935e-001
3.222604e+003;1.121240e-001
3.224532e+003;1.130041e-001
3.226461e+003;1.136948e-001
3.228389e+003;1.148015e-001
3.230318e+003;1.158916e-001
3.232246e+003;1.169250e-001
3.234175e+003;1.179393e-001
3.236104e+003;1.190965e-001
3.238032e+003;1.206036e-001
3.239961e+003;1.218299e-001
3.241889e+003;1.226206e-001
3.243818e+003;1.233381e-001
3.245746e+003;1.245482e-001
3.247675e+003;1.257777e-001
3.249603e+003;1.270029e-001
3.251532e+003;1.283964e-001
3.253460e+003;1.297681e-001
3.255389e+003;1.307855e-001
3.257318e+003;1.316514e-001
3.259246e+003;1.329209e-001
3.261175e+003;1.342200e-001
3.263103e+003;1.353129e-001
3.265032e+003;1.366973e-001
3.266960e+003;1.378838e-001
3.268889e+003;1.384080e-001
3.270817e+003;1.389707e-001
3.272746e+003;1.391823e-001
3.274675e+003;1.398682e-001
3.276603e+003;1.405927e-001
3.278531e+003;1.410259e-001
3.280460e+003;1.416349e-001
3.282389e+003;1.418055e-001
3.284317e+003;1.415322e-001
3.286246e+003;1.417133e-001
3.288174e+003;1.419084e-001
3.290103e+003;1.420150e-001
3.292031e+003;1.426172e-001
3.293960e+003;1.432068e-001
3.295888e+003;1.435528e-001
3.297817e+003;1.434372e-001
3.299746e+003;1.433678e-001
3.301674e+003;1.436348e-001
3.303603e+003;1.438862e-001
3.305531e+003;1.440612e-001
3.307460e+003;1.439651e-001
3.309388e+003;1.437143e-001
3.311317e+003;1.436536e-001
3.313245e+003;1.439029e-001
3.315174e+003;1.445336e-001
3.317103e+003;1.453556e-001
3.319031e+003;1.462998e-001
3.320960e+003;1.469773e-001
3.322888e+003;1.472173e-001
3.324817e+003;1.479166e-001
3.326745e+003;1.484517e-001
3.328674e+003;1.483895e-001
3.330602e+003;1.487441e-001
3.332531e+003;1.486790e-001
3.334459e+003;1.479540e-001
3.336388e+003;1.469243e-001
3.338317e+003;1.458711e-001
3.340245e+003;1.453142e-001
3.342174e+003;1.443670e-001
3.344102e+003;1.430409e-001
3.346031e+003;1.421380e-001
3.347959e+003;1.410568e-001
3.349888e+003;1.405397e-001
3.351816e+003;1.397635e-001
3.353745e+003;1.383896e-001
3.355674e+003;1.367064e-001
3.357602e+003;1.351325e-001
3.359531e+003;1.340065e-001
3.361459e+003;1.329188e-001
3.363388e+003;1.317737e-001
3.365316e+003;1.305917e-001
3.367245e+003;1.293336e-001
3.369173e+003;1.288041e-001
3.371102e+003;1.284846e-001
3.373031e+003;1.279407e-001
3.374959e+003;1.270204e-001
3.376887e+003;1.256764e-001
3.378816e+003;1.247672e-001
3.380745e+003;1.240566e-001
3.382673e+003;1.229340e-001
3.384602e+003;1.216045e-001
3.386530e+003;1.212797e-001
3.388459e+003;1.215030e-001
3.390387e+003;1.207378e-001
3.392316e+003;1.203632e-001
3.394244e+003;1.205258e-001
3.396173e+003;1.195512e-001
3.398102e+003;1.184083e-001
3.400030e+003;1.176803e-001
3.401959e+003;1.169835e-001
3.403887e+003;1.156494e-001
3.405816e+003;1.143040e-001
3.407744e+003;1.139160e-001
3.409673e+003;1.136963e-001
3.411601e+003;1.128391e-001
3.413530e+003;1.111763e-001
3.415458e+003;1.090062e-001
3.417387e+003;1.077697e-001
3.419316e+003;1.071776e-001
3.421244e+003;1.061677e-001
3.423173e+003;1.053938e-001
3.425101e+003;1.048035e-001
3.427030e+003;1.038982e-001
3.428958e+003;1.029704e-001
3.430887e+003;1.021762e-001
3.432815e+003;1.011359e-001
3.434744e+003;9.989940e-002
3.436673e+003;9.910101e-002
3.438601e+003;9.859383e-002
3.440530e+003;9.735528e-002
3.442458e+003;9.629767e-002
3.444387e+003;9.563494e-002
3.446315e+003;9.484175e-002
3.448244e+003;9.339780e-002
3.450172e+003;9.158085e-002
3.452101e+003;9.078750e-002
3.454030e+003;9.017916e-002
3.455958e+003;8.916332e-002
3.457886e+003;8.880747e-002
3.459815e+003;8.805967e-002
3.461744e+003;8.703298e-002
3.463672e+003;8.608676e-002
3.465601e+003;8.490410e-002
3.467529e+003;8.433697e-002
3.469458e+003;8.407230e-002
3.471386e+003;8.309004e-002
3.473315e+003;8.187506e-002
3.475243e+003;8.096834e-002
3.477172e+003;8.021385e-002
3.479101e+003;7.947218e-002
3.481029e+003;7.842822e-002
3.482958e+003;7.752252e-002
3.484886e+003;7.685918e-002
3.486815e+003;7.574927e-002
3.488743e+003;7.455383e-002
3.490672e+003;7.396811e-002
3.492600e+003;7.317905e-002
3.494529e+003;7.207514e-002
3.496458e+003;7.139479e-002
3.498386e+003;7.072377e-002
3.500315e+003;6.932520e-002
3.502243e+003;6.814279e-002
3.504172e+003;6.768811e-002
3.506100e+003;6.759089e-002
3.508029e+003;6.715090e-002
3.509957e+003;6.645315e-002
3.511886e+003;6.563638e-002
3.513814e+003;6.486353e-002
3.515743e+003;6.449191e-002
3.517672e+003;6.411364e-002
3.519600e+003;6.350493e-002
3.521529e+003;6.245816e-002
3.523457e+003;6.080006e-002
3.525386e+003;5.994480e-002
3.527314e+003;5.956337e-002
3.529243e+003;5.949645e-002
3.531171e+003;5.948285e-002
3.533100e+003;5.922158e-002
3.535029e+003;5.821747e-002
3.536957e+003;5.687365e-002
3.538885e+003;5.626952e-002
3.540814e+003;5.581876e-002
3.542743e+003;5.486222e-002
3.544671e+003;5.413900e-002
3.546600e+003;5.330776e-002
3.548528e+003;5.265238e-002
3.550457e+003;5.228324e-002
3.552385e+003;5.182761e-002
3.554314e+003;5.127255e-002
3.556242e+003;5.053923e-002
3.558171e+003;4.984884e-002
3.560100e+003;4.899279e-002
3.562028e+003;4.830371e-002
3.563957e+003;4.730004e-002
3.565885e+003;4.570566e-002
3.567814e+003;4.562233e-002
3.569742e+003;4.653636e-002
3.571671e+003;4.680461e-002
3.573599e+003;4.607511e-002
3.575528e+003;4.536793e-002
3.577457e+003;4.481129e-002
3.579385e+003;4.410805e-002
3.581314e+003;4.391327e-002
3.583242e+003;4.377457e-002
3.585171e+003;4.230006e-002
3.587099e+003;4.096203e-002
3.589028e+003;4.171388e-002
3.590956e+003;4.223651e-002
3.592885e+003;4.118769e-002
3.594813e+003;4.083821e-002
3.596742e+003;4.108428e-002
3.598671e+003;4.087731e-002
3.600599e+003;4.053383e-002
3.602528e+003;4.053801e-002
3.604456e+003;4.015936e-002
3.606385e+003;3.872342e-002
3.608313e+003;3.742112e-002
3.610242e+003;3.742889e-002
3.612170e+003;3.707653e-002
3.614099e+003;3.705279e-002
3.616028e+003;3.720733e-002
3.617956e+003;3.639247e-002
3.619885e+003;3.616312e-002
3.621813e+003;3.681711e-002
3.623742e+003;3.653715e-002
3.625670e+003;3.498374e-002
3.627599e+003;3.167491e-002
3.629527e+003;3.142122e-002
3.631456e+003;3.393647e-002
3.633385e+003;3.462831e-002
3.635313e+003;3.487037e-002
3.637241e+003;3.469807e-002
3.639170e+003;3.430959e-002
3.641099e+003;3.408583e-002
3.643027e+003;3.392393e-002
3.644956e+003;3.293401e-002
3.646884e+003;3.012569e-002
3.648813e+003;2.743325e-002
3.650741e+003;2.774070e-002
3.652670e+003;2.967327e-002
3.654598e+003;2.933917e-002
3.656527e+003;2.927501e-002
3.658456e+003;3.075798e-002
3.660384e+003;3.090088e-002
3.662313e+003;3.035894e-002
3.664241e+003;2.989690e-002
3.666170e+003;2.908687e-002
3.668098e+003;2.683408e-002
3.670027e+003;2.537928e-002
3.671955e+003;2.741980e-002
3.673884e+003;2.674675e-002
3.675813e+003;2.534485e-002
3.677741e+003;2.699963e-002
3.679669e+003;2.768515e-002
3.681598e+003;2.777246e-002
3.683527e+003;2.733408e-002
3.685455e+003;2.577989e-002
3.687384e+003;2.253384e-002
3.689312e+003;2.229743e-002
3.691241e+003;2.456076e-002
3.693169e+003;2.582609e-002
3.695098e+003;2.574111e-002
3.697026e+003;2.541346e-002
3.698955e+003;2.522882e-002
3.700884e+003;2.476904e-002
3.702812e+003;2.502059e-002
3.704741e+003;2.525554e-002
3.706669e+003;2.436120e-002
3.708598e+003;2.275710e-002
3.710526e+003;2.120616e-002
3.712455e+003;2.196721e-002
3.714383e+003;2.430436e-002
3.716312e+003;2.478521e-002
3.718240e+003;2.461676e-002
3.720169e+003;2.452384e-002
3.722098e+003;2.405966e-002
3.724026e+003;2.361162e-002
3.725955e+003;2.294971e-002
3.727883e+003;2.333746e-002
3.729812e+003;2.344488e-002
3.731740e+003;2.162188e-002
3.733669e+003;2.021728e-002
3.735597e+003;1.948715e-002
3.737526e+003;2.129813e-002
3.739455e+003;2.294063e-002
3.741383e+003;2.186210e-002
3.743312e+003;1.757065e-002
3.745240e+003;1.798929e-002
3.747169e+003;1.970723e-002
3.749097e+003;1.756268e-002
3.751026e+003;1.740904e-002
3.752954e+003;2.027977e-002
3.754883e+003;2.291534e-002
3.756812e+003;2.271751e-002
3.758740e+003;2.243868e-002
3.760668e+003;2.279178e-002
3.762597e+003;2.398539e-002
3.764526e+003;2.396995e-002
3.766454e+003;2.374934e-002
3.768383e+003;2.268176e-002
3.770311e+003;2.264668e-002
3.772240e+003;2.333854e-002
3.774168e+003;2.418933e-002
3.776097e+003;2.444735e-002
3.778025e+003;2.364115e-002
3.779954e+003;2.352871e-002
3.781883e+003;2.405774e-002
3.783811e+003;2.412579e-002
3.785740e+003;2.397842e-002
3.787668e+003;2.391998e-002
3.789597e+003;2.472067e-002
3.791525e+003;2.449649e-002
3.793454e+003;2.411395e-002
3.795382e+003;2.373982e-002
3.797311e+003;2.349269e-002
3.799240e+003;2.146241e-002
3.801168e+003;1.945807e-002
3.803097e+003;2.181015e-002
3.805025e+003;2.266595e-002
3.806954e+003;2.226736e-002
3.808882e+003;2.380944e-002
3.810811e+003;2.487741e-002
3.812739e+003;2.452664e-002
3.814668e+003;2.115558e-002
3.816596e+003;2.035324e-002
3.818525e+003;2.177131e-002
3.820454e+003;2.068133e-002
3.822382e+003;2.167931e-002
3.824311e+003;2.354869e-002
3.826239e+003;2.438373e-002
3.828168e+003;2.510473e-002
3.830096e+003;2.403777e-002
3.832025e+003;2.338910e-002
3.833953e+003;2.326355e-002
3.835882e+003;2.118191e-002
3.837811e+003;1.962229e-002
3.839739e+003;2.160401e-002
3.841667e+003;2.301734e-002
3.843596e+003;2.386278e-002
3.845525e+003;2.509438e-002
3.847453e+003;2.467350e-002
3.849382e+003;2.224127e-002
3.851310e+003;1.711136e-002
3.853239e+003;1.411525e-002
3.855167e+003;1.984538e-002
3.857096e+003;2.449586e-002
3.859024e+003;2.473326e-002
3.860953e+003;2.405952e-002
3.862882e+003;2.269758e-002
3.864810e+003;2.217690e-002
3.866739e+003;2.333305e-002
3.868667e+003;2.267289e-002
3.870596e+003;2.289540e-002
3.872524e+003;2.380447e-002
3.874453e+003;2.422958e-002
3.876381e+003;2.526446e-002
3.878310e+003;2.447329e-002
3.880239e+003;2.401190e-002
3.882167e+003;2.473733e-002
3.884096e+003;2.393038e-002
3.886024e+003;2.385620e-002
3.887953e+003;2.531412e-002
3.889881e+003;2.455925e-002
3.891810e+003;2.427829e-002
3.893738e+003;2.541096e-002
3.895667e+003;2.581361e-002
3.897595e+003;2.493822e-002
3.899524e+003;2.407024e-002
3.901453e+003;2.365210e-002
3.903381e+003;2.344260e-002
3.905310e+003;2.513528e-002
3.907238e+003;2.722605e-002
3.909167e+003;2.746696e-002
3.911095e+003;2.737636e-002
3.913024e+003;2.702156e-002
3.914952e+003;2.638405e-002
3.916881e+003;2.587821e-002
3.918810e+003;2.555966e-002
3.920738e+003;2.570317e-002
3.922667e+003;2.570240e-002
3.924595e+003;2.595031e-002
3.926524e+003;2.672406e-002
3.928452e+003;2.624918e-002
3.930381e+003;2.532933e-002
3.932309e+003;2.575724e-002
3.934238e+003;2.701451e-002
3.936167e+003;2.705820e-002
3.938095e+003;2.648842e-002
3.940023e+003;2.687475e-002
3.941952e+003;2.755189e-002
3.943881e+003;2.745725e-002
3.945809e+003;2.684691e-002
3.947738e+003;2.612804e-002
3.949666e+003;2.625175e-002
3.951595e+003;2.705358e-002
3.953523e+003;2.798843e-002
3.955452e+003;2.802826e-002
3.957380e+003;2.777475e-002
3.959309e+003;2.797660e-002
3.961238e+003;2.794762e-002
3.963166e+003;2.771587e-002
3.965095e+003;2.708817e-002
3.967023e+003;2.691427e-002
3.968952e+003;2.752090e-002
3.970880e+003;2.817090e-002
3.972809e+003;2.779785e-002
3.974737e+003;2.681258e-002
3.976666e+003;2.711638e-002
3.978594e+003;2.829423e-002
3.980523e+003;2.748552e-002
3.982452e+003;2.632662e-002
3.984380e+003;2.709819e-002
3.986309e+003;2.794158e-002
3.988237e+003;2.851577e-002
3.990166e+003;2.886475e-002
3.992094e+003;2.855233e-002
3.994023e+003;2.832928e-002
3.995951e+003;2.843617e-002
3.997880e+003;2.801028e-002
3.999809e+003;2.746632e-002
4.001737e+003;0.000000e+000
