3.992094e+002;0.000000e+000
4.011380e+002;0.000000e+000
4.030665e+002;0.000000e+000
4.049951e+002;0.000000e+000
4.069236e+002;0.000000e+000
4.088522e+002;0.000000e+000
4.107807e+002;0.000000e+000
4.127093e+002;0.000000e+000
4.146378e+002;0.000000e+000
4.165664e+002;0.000000e+000
4.184949e+002;0.000000e+000
4.204235e+002;0.000000e+000
4.223520e+002;0.000000e+000
4.242806e+002;0.000000e+000
4.262091e+002;0.000000e+000
4.281377e+002;0.000000e+000
4.300662e+002;0.000000e+000
4.319948e+002;0.000000e+000
4.339233e+002;0.000000e+000
4.358519e+002;0.000000e+000
4.377804e+002;0.000000e+000
4.397090e+002;0.000000e+000
4.416375e+002;0.000000e+000
4.435660e+002;0.000000e+000
4.454946e+002;0.000000e+000
4.474232e+002;0.000000e+000
4.493517e+002;0.000000e+000
4.512802e+002;0.000000e+000
4.532088e+002;0.000000e+000
4.551373e+002;0.000000e+000
4.570659e+002;0.000000e+000
4.589944e+002;0.000000e+000
4.609230e+002;0.000000e+000
4.628515e+002;0.000000e+000
4.647801e+002;0.000000e+000
4.667086e+002;0.000000e+000
4.686372e+002;0.000000e+000
4.705657e+002;0.000000e+000
4.724943e+002;0.000000e+000
4.744228e+002;0.000000e+000
4.763513e+002;0.000000e+000
4.782799e+002;0.000000e+000
4.802085e+002;0.000000e+000
4.821370e+002;0.000000e+000
4.840656e+002;0.000000e+000
4.859941e+002;0.000000e+000
4.879226e+002;0.000000e+000
4.898512e+002;0.000000e+000
4.917798e+002;0.000000e+000
4.937083e+002;0.000000e+000
4.956368e+002;0.000000e+000
4.975654e+002;0.000000e+000
4.994939e+002;0.000000e+000
5.014225e+002;0.000000e+000
5.033510e+002;0.000000e+000
5.052796e+002;0.000000e+000
5.072081e+002;0.000000e+000
5.091367e+002;0.000000e+000
5.110652e+002;0.000000e+000
5.129938e+002;0.000000e+000
5.149223e+002;0.000000e+000
5.168509e+002;0.000000e+000
5.187794e+002;0.000000e+000
5.207079e+002;0.000000e+000
5.226365e+002;0.000000e+000
5.245651e+002;0.000000e+000
5.264936e+002;0.000000e+000
5.284222e+002;0.000000e+000
5.303507e+002;0.000000e+000
5.322792e+002;0.000000e+000
5.342078e+002;0.000000e+000
5.361364e+002;0.000000e+000
5.380649e+002;0.000000e+000
5.399935e+002;0.000000e+000
5.419220e+002;0.000000e+000
5.438505e+002;0.000000e+000
5.457791e+002;0.000000e+000
5.477076e+002;0.000000e+000
5.496362e+002;0.000000e+000
5.515648e+002;0.000000e+000
5.534933e+002;0.000000e+000
5.554218e+002;0.000000e+000
5.573504e+002;0.000000e+000
5.592789e+002;0.000000e+000
5.612075e+002;0.000000e+000
5.631360e+002;0.000000e+000
5.650646e+002;0.000000e+000
5.669931e+002;0.000000e+000
5.689217e+002;0.000000e+000
5.708502e+002;0.000000e+000
5.727787e+002;0.000000e+000
5.747073e+002;0.000000e+000
5.766359e+002;0.000000e+000
5.785644e+002;0.000000e+000
5.804930e+002;0.000000e+000
5.824215e+002;0.000000e+000
5.843500e+002;0.000000e+000
5.862786e+002;0.000000e+000
5.882072e+002;0.000000e+000
5.901357e+002;0.000000e+000
5.920643e+002;0.000000e+000
5.939928e+002;0.000000e+000
5.959213e+002;0.000000e+000
5.978499e+002;0.000000e+000
5.997784e+002;2.473509e-001
6.017070e+002;2.465928e-001
6.036355e+002;2.485441e-001
6.055641e+002;2.512811e-001
6.074926e+002;2.518298e-001
6.094211e+002;2.492218e-001
6.113497e+002;2.480526e-001
6.132783e+002;2.540787e-001
6.152068e+002;2.584597e-001
6.171354e+002;2.554480e-001
6.190639e+002;2.514316e-001
6.209924e+002;2.487903e-001
6.229210e+002;2.461587e-001
6.248495e+002;2.403881e-001
6.267781e+002;2.341137e-001
6.287067e+002;2.305577e-001
6.306352e+002;2.312110e-001
6.325637e+002;2.287365e-001
6.344923e+002;2.243181e-001
6.364208e+002;2.207322e-001
6.383494e+002;2.184482e-001
6.402780e+002;2.169000e-001
6.422065e+002;2.171506e-001
6.441350e+002;2.195787e-001
6.460636e+002;2.179182e-001
6.479921e+002;2.130023e-001
6.499207e+002;2.157690e-001
6.518492e+002;2.196918e-001
6.537778e+002;2.200602e-001
6.557063e+002;2.224070e-001
6.576349e+002;2.277286e-001
6.595634e+002;2.342997e-001
6.614919e+002;2.389128e-001
6.634205e+002;2.394157e-001
6.653491e+002;2.361135e-001
6.672776e+002;2.328922e-001
6.692062e+002;2.292513e-001
6.711347e+002;2.232619e-001
6.730632e+002;2.179393e-001
6.749918e+002;2.135984e-001
6.769203e+002;2.094134e-001
6.788489e+002;2.047510e-001
6.807775e+002;2.001505e-001
6.827060e+002;1.976547e-001
6.846345e+002;1.970472e-001
6.865631e+002;1.975601e-001
6.884916e+002;1.976990e-001
6.904202e+002;1.967035e-001
6.923488e+002;1.961226e-001
6.942773e+002;1.972175e-001
6.962058e+002;1.974384e-001
6.981344e+002;1.980058e-001
7.000629e+002;1.983017e-001
7.019915e+002;1.972800e-001
7.039200e+002;1.970919e-001
7.058486e+002;1.958627e-001
7.077771e+002;1.920359e-001
7.097057e+002;1.887053e-001
7.116342e+002;1.855515e-001
7.135627e+002;1.821071e-001
7.154913e+002;1.797771e-001
7.174199e+002;1.773043e-001
7.193484e+002;1.729115e-001
7.212770e+002;1.673802e-001
7.232055e+002;1.628548e-001
7.251340e+002;1.595056e-001
7.270626e+002;1.562712e-001
7.289911e+002;1.535991e-001
7.309197e+002;1.513413e-001
7.328483e+002;1.489208e-001
7.347768e+002;1.461153e-001
7.367053e+002;1.438167e-001
7.386339e+002;1.429317e-001
7.405624e+002;1.417785e-001
7.424910e+002;1.396207e-001
7.444196e+002;1.381960e-001
7.463481e+002;1.373382e-001
7.482766e+002;1.367496e-001
7.502052e+002;1.358681e-001
7.521337e+002;1.351290e-001
7.540623e+002;1.341701e-001
7.559908e+002;1.332622e-001
7.579194e+002;1.322586e-001
7.598479e+002;1.311982e-001
7.617765e+002;1.303147e-001
7.637050e+002;1.295717e-001
7.656335e+002;1.282946e-001
7.675621e+002;1.283374e-001
7.694907e+002;1.286688e-001
7.714192e+002;1.279668e-001
7.733478e+002;1.283625e-001
7.752763e+002;1.288971e-001
7.772048e+002;1.295687e-001
7.791334e+002;1.305620e-001
7.810620e+002;1.321311e-001
7.829905e+002;1.341928e-001
7.849191e+002;1.365749e-001
7.868476e+002;1.387228e-001
7.887761e+002;1.418556e-001
7.907047e+002;1.454332e-001
7.926332e+002;1.475563e-001
7.945618e+002;1.503930e-001
7.964903e+002;1.534182e-001
7.984189e+002;1.549276e-001
8.003474e+002;1.555124e-001
8.022759e+002;1.553344e-001
8.042045e+002;1.552056e-001
8.061331e+002;1.534805e-001
8.080616e+002;1.521095e-001
8.099902e+002;1.510221e-001
8.119187e+002;1.490522e-001
8.138472e+002;1.478772e-001
8.157758e+002;1.468858e-001
8.177043e+002;1.453365e-001
8.196329e+002;1.436509e-001
8.215615e+002;1.419890e-001
8.234900e+002;1.391332e-001
8.254185e+002;1.357536e-001
8.273471e+002;1.325161e-001
8.292756e+002;1.292367e-001
8.312042e+002;1.267468e-001
8.331328e+002;1.248187e-001
8.350613e+002;1.232834e-001
8.369898e+002;1.227772e-001
8.389184e+002;1.229979e-001
8.408469e+002;1.226055e-001
8.427755e+002;1.227890e-001
8.447040e+002;1.228365e-001
8.466326e+002;1.226184e-001
8.485611e+002;1.229670e-001
8.504897e+002;1.236023e-001
8.524182e+002;1.240326e-001
8.543467e+002;1.245115e-001
8.562753e+002;1.252866e-001
8.582039e+002;1.262772e-001
8.601324e+002;1.277522e-001
8.620610e+002;1.291664e-001
8.639895e+002;1.299001e-001
8.659180e+002;1.305506e-001
8.678466e+002;1.316621e-001
8.697751e+002;1.328464e-001
8.717037e+002;1.340303e-001
8.736323e+002;1.353833e-001
8.755608e+002;1.364535e-001
8.774893e+002;1.376693e-001
8.794179e+002;1.393904e-001
8.813464e+002;1.411966e-001
8.832750e+002;1.427372e-001
8.852036e+002;1.442472e-001
8.871321e+002;1.464003e-001
8.890606e+002;1.486726e-001
8.909892e+002;1.508473e-001
8.929177e+002;1.526179e-001
8.948463e+002;1.533689e-001
8.967748e+002;1.536460e-001
8.987034e+002;1.537352e-001
9.006319e+002;1.532890e-001
9.025605e+002;1.526319e-001
9.044890e+002;1.518610e-001
9.064175e+002;1.506768e-001
9.083461e+002;1.492545e-001
9.102747e+002;1.481548e-001
9.122032e+002;1.474974e-001
9.141318e+002;1.469381e-001
9.160603e+002;1.464152e-001
9.179888e+002;1.463384e-001
9.199174e+002;1.467755e-001
9.218459e+002;1.476412e-001
9.237745e+002;1.488360e-001
9.257031e+002;1.502331e-001
9.276316e+002;1.519930e-001
9.295601e+002;1.537888e-001
9.314887e+002;1.550417e-001
9.334172e+002;1.565873e-001
9.353458e+002;1.585848e-001
9.372744e+002;1.602297e-001
9.392029e+002;1.616868e-001
9.411314e+002;1.636924e-001
9.430600e+002;1.661966e-001
9.449885e+002;1.688173e-001
9.469171e+002;1.716692e-001
9.488456e+002;1.751308e-001
9.507742e+002;1.789447e-001
9.527027e+002;1.828418e-001
9.546313e+002;1.869595e-001
9.565598e+002;1.914685e-001
9.584883e+002;1.961571e-001
9.604169e+002;2.010562e-001
9.623455e+002;2.067533e-001
9.642740e+002;2.126225e-001
9.662026e+002;2.187569e-001
9.681311e+002;2.255767e-001
9.700596e+002;2.331250e-001
9.719882e+002;2.421518e-001
9.739167e+002;2.534342e-001
9.758453e+002;2.667610e-001
9.777739e+002;2.812156e-001
9.797024e+002;2.958501e-001
9.816309e+002;3.082781e-001
9.835595e+002;3.153734e-001
9.854880e+002;3.170197e-001
9.874166e+002;3.163199e-001
9.893452e+002;3.169585e-001
9.912737e+002;3.205399e-001
9.932022e+002;3.266219e-001
9.951307e+002;3.339567e-001
9.970593e+002;3.415651e-001
9.989879e+002;3.478276e-001
1.000916e+003;3.515468e-001
1.002845e+003;3.534272e-001
1.004773e+003;3.543380e-001
1.006702e+003;3.557280e-001
1.008631e+003;3.578366e-001
1.010559e+003;3.606760e-001
1.012488e+003;3.637840e-001
1.014416e+003;3.666527e-001
1.016345e+003;3.689809e-001
1.018273e+003;3.721926e-001
1.020202e+003;3.763546e-001
1.022130e+003;3.811202e-001
1.024059e+003;3.860163e-001
1.025988e+003;3.909445e-001
1.027916e+003;3.946018e-001
1.029845e+003;3.957309e-001
1.031773e+003;3.937725e-001
1.033702e+003;3.879588e-001
1.035630e+003;3.779985e-001
1.037559e+003;3.665734e-001
1.039487e+003;3.573591e-001
1.041416e+003;3.517530e-001
1.043344e+003;3.506361e-001
1.045273e+003;3.550175e-001
1.047202e+003;3.627313e-001
1.049130e+003;3.707023e-001
1.051059e+003;3.770366e-001
1.052987e+003;3.803441e-001
1.054916e+003;3.808589e-001
1.056844e+003;3.761479e-001
1.058773e+003;3.648697e-001
1.060701e+003;3.477859e-001
1.062630e+003;3.263758e-001
1.064558e+003;3.051008e-001
1.066487e+003;2.873240e-001
1.068416e+003;2.734701e-001
1.070344e+003;2.634176e-001
1.072273e+003;2.562765e-001
1.074201e+003;2.508800e-001
1.076130e+003;2.467206e-001
1.078058e+003;2.428917e-001
1.079987e+003;2.393141e-001
1.081915e+003;2.369174e-001
1.083844e+003;2.359415e-001
1.085773e+003;2.357263e-001
1.087701e+003;2.365536e-001
1.089630e+003;2.380553e-001
1.091558e+003;2.407115e-001
1.093487e+003;2.447073e-001
1.095415e+003;2.487542e-001
1.097344e+003;2.532488e-001
1.099272e+003;2.574484e-001
1.101201e+003;2.595640e-001
1.103129e+003;2.599594e-001
1.105058e+003;2.589915e-001
1.106987e+003;2.574357e-001
1.108915e+003;2.546545e-001
1.110844e+003;2.495043e-001
1.112772e+003;2.408678e-001
1.114701e+003;2.281782e-001
1.116629e+003;2.141772e-001
1.118558e+003;2.023236e-001
1.120486e+003;1.935596e-001
1.122415e+003;1.862723e-001
1.124344e+003;1.787262e-001
1.126272e+003;1.703358e-001
1.128201e+003;1.626117e-001
1.130129e+003;1.565710e-001
1.132058e+003;1.519095e-001
1.133986e+003;1.482408e-001
1.135915e+003;1.453863e-001
1.137843e+003;1.440683e-001
1.139772e+003;1.449278e-001
1.141700e+003;1.472757e-001
1.143629e+003;1.507930e-001
1.145557e+003;1.548966e-001
1.147486e+003;1.583567e-001
1.149415e+003;1.607711e-001
1.151343e+003;1.633730e-001
1.153272e+003;1.664998e-001
1.155200e+003;1.696809e-001
1.157129e+003;1.724728e-001
1.159057e+003;1.740355e-001
1.160986e+003;1.732258e-001
1.162914e+003;1.697928e-001
1.164843e+003;1.637781e-001
1.166771e+003;1.553133e-001
1.168700e+003;1.458830e-001
1.170629e+003;1.374970e-001
1.172557e+003;1.307744e-001
1.174486e+003;1.257062e-001
1.176414e+003;1.216859e-001
1.178343e+003;1.184565e-001
1.180271e+003;1.157256e-001
1.182200e+003;1.137849e-001
1.184128e+003;1.126337e-001
1.186057e+003;1.120039e-001
1.187986e+003;1.122108e-001
1.189914e+003;1.128314e-001
1.191843e+003;1.138110e-001
1.193771e+003;1.155471e-001
1.195700e+003;1.176016e-001
1.197628e+003;1.195311e-001
1.199557e+003;1.210505e-001
1.201485e+003;1.220841e-001
1.203414e+003;1.228132e-001
1.205343e+003;1.226844e-001
1.207271e+003;1.208256e-001
1.209200e+003;1.169980e-001
1.211128e+003;1.129085e-001
1.213057e+003;1.107978e-001
1.214985e+003;1.103165e-001
1.216914e+003;1.100037e-001
1.218842e+003;1.103597e-001
1.220771e+003;1.115266e-001
1.222699e+003;1.130523e-001
1.224628e+003;1.148877e-001
1.226557e+003;1.169803e-001
1.228485e+003;1.191798e-001
1.230414e+003;1.209206e-001
1.232342e+003;1.225783e-001
1.234271e+003;1.242150e-001
1.236199e+003;1.251260e-001
1.238128e+003;1.254402e-001
1.240056e+003;1.260646e-001
1.241985e+003;1.271236e-001
1.243913e+003;1.285365e-001
1.245842e+003;1.303017e-001
1.247771e+003;1.318422e-001
1.249699e+003;1.331076e-001
1.251628e+003;1.349078e-001
1.253556e+003;1.378635e-001
1.255485e+003;1.420235e-001
1.257413e+003;1.470484e-001
1.259342e+003;1.510145e-001
1.261270e+003;1.522808e-001
1.263199e+003;1.504088e-001
1.265127e+003;1.459078e-001
1.267056e+003;1.402968e-001
1.268985e+003;1.355284e-001
1.270913e+003;1.327610e-001
1.272842e+003;1.317645e-001
1.274770e+003;1.316133e-001
1.276699e+003;1.314654e-001
1.278627e+003;1.310832e-001
1.280556e+003;1.304556e-001
1.282484e+003;1.291024e-001
1.284413e+003;1.275491e-001
1.286342e+003;1.264305e-001
1.288270e+003;1.260702e-001
1.290199e+003;1.261034e-001
1.292127e+003;1.262122e-001
1.294056e+003;1.264103e-001
1.295984e+003;1.269709e-001
1.297913e+003;1.282396e-001
1.299841e+003;1.303163e-001
1.301770e+003;1.334692e-001
1.303698e+003;1.371203e-001
1.305627e+003;1.409616e-001
1.307556e+003;1.452125e-001
1.309484e+003;1.494604e-001
1.311413e+003;1.531496e-001
1.313341e+003;1.554165e-001
1.315270e+003;1.554428e-001
1.317198e+003;1.532629e-001
1.319127e+003;1.495748e-001
1.321055e+003;1.453936e-001
1.322984e+003;1.415924e-001
1.324912e+003;1.390391e-001
1.326841e+003;1.381062e-001
1.328770e+003;1.386218e-001
1.330698e+003;1.402105e-001
1.332627e+003;1.420460e-001
1.334555e+003;1.429949e-001
1.336484e+003;1.422876e-001
1.338412e+003;1.401973e-001
1.340341e+003;1.376796e-001
1.342269e+003;1.348457e-001
1.344198e+003;1.317469e-001
1.346126e+003;1.290466e-001
1.348055e+003;1.272939e-001
1.349984e+003;1.268553e-001
1.351912e+003;1.276249e-001
1.353841e+003;1.288955e-001
1.355769e+003;1.297641e-001
1.357698e+003;1.303542e-001
1.359626e+003;1.308540e-001
1.361555e+003;1.304963e-001
1.363483e+003;1.294346e-001
1.365412e+003;1.287317e-001
1.367341e+003;1.286992e-001
1.369269e+003;1.288849e-001
1.371198e+003;1.277948e-001
1.373126e+003;1.250183e-001
1.375055e+003;1.217645e-001
1.376983e+003;1.187525e-001
1.378912e+003;1.158742e-001
1.380840e+003;1.132644e-001
1.382769e+003;1.109004e-001
1.384698e+003;1.086109e-001
1.386626e+003;1.064977e-001
1.388555e+003;1.056035e-001
1.390483e+003;1.054602e-001
1.392412e+003;1.053170e-001
1.394340e+003;1.052445e-001
1.396269e+003;1.055196e-001
1.398197e+003;1.059501e-001
1.400126e+003;1.064400e-001
1.402054e+003;1.069354e-001
1.403983e+003;1.073827e-001
1.405911e+003;1.077896e-001
1.407840e+003;1.081547e-001
1.409769e+003;1.084345e-001
1.411697e+003;1.088014e-001
1.413626e+003;1.095498e-001
1.415554e+003;1.105056e-001
1.417483e+003;1.114474e-001
1.419411e+003;1.128825e-001
1.421340e+003;1.154416e-001
1.423268e+003;1.175061e-001
1.425197e+003;1.188866e-001
1.427125e+003;1.196883e-001
1.429054e+003;1.194722e-001
1.430983e+003;1.185713e-001
1.432911e+003;1.167778e-001
1.434840e+003;1.140406e-001
1.436768e+003;1.118491e-001
1.438697e+003;1.114149e-001
1.440625e+003;1.112183e-001
1.442554e+003;1.111156e-001
1.444482e+003;1.111008e-001
1.446411e+003;1.109713e-001
1.448340e+003;1.109443e-001
1.450268e+003;1.109671e-001
1.452197e+003;1.105162e-001
1.454125e+003;1.091140e-001
1.456054e+003;1.063338e-001
1.457982e+003;1.048834e-001
1.459911e+003;1.051992e-001
1.461839e+003;1.048061e-001
1.463768e+003;1.020179e-001
1.465697e+003;9.898314e-002
1.467625e+003;9.754147e-002
1.469554e+003;9.648921e-002
1.471482e+003;9.567727e-002
1.473411e+003;9.463050e-002
1.475339e+003;9.252421e-002
1.477268e+003;9.075851e-002
1.479196e+003;9.002214e-002
1.481125e+003;8.914632e-002
1.483053e+003;8.752131e-002
1.484982e+003;8.525479e-002
1.486911e+003;8.331121e-002
1.488839e+003;8.172657e-002
1.490768e+003;8.073711e-002
1.492696e+003;8.038224e-002
1.494625e+003;7.965596e-002
1.496553e+003;7.897925e-002
1.498482e+003;7.891829e-002
1.500410e+003;7.894647e-002
1.502339e+003;7.896543e-002
1.504267e+003;7.775354e-002
1.506196e+003;7.620711e-002
1.508125e+003;7.685455e-002
1.510053e+003;7.819029e-002
1.511982e+003;7.816169e-002
1.513910e+003;7.769153e-002
1.515839e+003;7.730345e-002
1.517767e+003;7.704122e-002
1.519696e+003;7.620419e-002
1.521624e+003;7.570916e-002
1.523553e+003;7.653116e-002
1.525481e+003;7.696383e-002
1.527410e+003;7.732670e-002
1.529339e+003;7.782322e-002
1.531267e+003;7.794429e-002
1.533196e+003;7.784205e-002
1.535124e+003;7.855466e-002
1.537053e+003;7.830186e-002
1.538981e+003;7.672790e-002
1.540910e+003;7.705577e-002
1.542838e+003;7.871310e-002
1.544767e+003;7.968263e-002
1.546695e+003;8.036792e-002
1.548624e+003;8.065309e-002
1.550553e+003;8.067176e-002
1.552481e+003;8.022892e-002
1.554410e+003;7.968028e-002
1.556338e+003;7.882898e-002
1.558267e+003;7.727709e-002
1.560195e+003;7.805083e-002
1.562124e+003;7.998052e-002
1.564052e+003;8.039137e-002
1.565981e+003;8.016117e-002
1.567910e+003;7.987797e-002
1.569838e+003;7.974438e-002
1.571767e+003;8.012156e-002
1.573695e+003;8.004466e-002
1.575624e+003;7.934011e-002
1.577552e+003;7.977041e-002
1.579481e+003;8.074614e-002
1.581409e+003;8.113222e-002
1.583338e+003;8.137129e-002
1.585266e+003;8.133049e-002
1.587195e+003;8.121582e-002
1.589124e+003;8.118802e-002
1.591052e+003;8.137409e-002
1.592981e+003;8.133184e-002
1.594909e+003;8.119705e-002
1.596838e+003;8.150198e-002
1.598766e+003;8.187406e-002
1.600695e+003;8.197881e-002
1.602623e+003;8.227961e-002
1.604552e+003;8.238374e-002
1.606480e+003;8.214004e-002
1.608409e+003;8.219604e-002
1.610338e+003;8.229927e-002
1.612266e+003;8.235362e-002
1.614195e+003;8.196177e-002
1.616123e+003;8.100814e-002
1.618052e+003;8.161492e-002
1.619980e+003;8.259468e-002
1.621909e+003;8.226359e-002
1.623837e+003;8.213031e-002
1.625766e+003;8.251927e-002
1.627694e+003;8.243301e-002
1.629623e+003;8.272033e-002
1.631552e+003;8.307480e-002
1.633480e+003;8.241787e-002
1.635409e+003;8.147328e-002
1.637337e+003;8.197773e-002
1.639266e+003;8.256415e-002
1.641194e+003;8.271287e-002
1.643123e+003;8.244595e-002
1.645051e+003;8.152341e-002
1.646980e+003;8.135878e-002
1.648909e+003;8.202887e-002
1.650837e+003;8.092266e-002
1.652766e+003;7.880816e-002
1.654694e+003;8.007538e-002
1.656623e+003;8.192383e-002
1.658551e+003;8.224802e-002
1.660480e+003;8.200467e-002
1.662408e+003;8.135526e-002
1.664337e+003;8.105546e-002
1.666266e+003;8.087808e-002
1.668194e+003;8.008315e-002
1.670123e+003;7.962237e-002
1.672051e+003;7.945531e-002
1.673980e+003;7.868661e-002
1.675908e+003;7.821330e-002
1.677837e+003;7.828115e-002
1.679765e+003;7.773820e-002
1.681694e+003;7.637790e-002
1.683622e+003;7.430331e-002
1.685551e+003;7.442152e-002
1.687479e+003;7.541662e-002
1.689408e+003;7.518439e-002
1.691337e+003;7.481686e-002
1.693265e+003;7.406618e-002
1.695194e+003;7.266838e-002
1.697122e+003;7.241891e-002
1.699051e+003;7.176487e-002
1.700979e+003;7.178558e-002
1.702908e+003;7.335524e-002
1.704836e+003;7.369724e-002
1.706765e+003;7.389418e-002
1.708693e+003;7.438192e-002
1.710622e+003;7.499828e-002
1.712551e+003;7.535741e-002
1.714479e+003;7.570675e-002
1.716408e+003;7.624585e-002
1.718336e+003;7.844438e-002
1.720265e+003;8.170634e-002
1.722193e+003;8.448868e-002
1.724122e+003;8.736858e-002
1.726050e+003;9.020265e-002
1.727979e+003;9.220644e-002
1.729908e+003;9.363167e-002
1.731836e+003;9.368092e-002
1.733765e+003;9.239941e-002
1.735693e+003;9.194180e-002
1.737622e+003;9.025799e-002
1.739550e+003;8.671718e-002
1.741479e+003;8.277137e-002
1.743407e+003;7.865024e-002
1.745336e+003;7.484048e-002
1.747265e+003;7.163289e-002
1.749193e+003;6.909652e-002
1.751122e+003;6.723108e-002
1.753050e+003;6.645925e-002
1.754979e+003;6.582712e-002
1.756907e+003;6.541572e-002
1.758836e+003;6.553931e-002
1.760764e+003;6.533406e-002
1.762693e+003;6.492721e-002
1.764621e+003;6.479409e-002
1.766550e+003;6.438544e-002
1.768479e+003;6.397283e-002
1.770407e+003;6.342601e-002
1.772336e+003;6.299987e-002
1.774264e+003;6.357945e-002
1.776193e+003;6.404997e-002
1.778121e+003;6.383736e-002
1.780050e+003;6.357205e-002
1.781978e+003;6.366971e-002
1.783907e+003;6.362552e-002
1.785835e+003;6.356464e-002
1.787764e+003;6.333361e-002
1.789693e+003;6.284303e-002
1.791621e+003;6.228160e-002
1.793550e+003;6.227892e-002
1.795478e+003;6.261609e-002
1.797407e+003;6.250285e-002
1.799335e+003;6.240300e-002
1.801264e+003;6.236413e-002
1.803192e+003;6.256538e-002
1.805121e+003;6.247339e-002
1.807049e+003;6.211279e-002
1.808978e+003;6.201142e-002
1.810907e+003;6.190002e-002
1.812835e+003;6.173743e-002
1.814764e+003;6.184267e-002
1.816692e+003;6.197874e-002
1.818621e+003;6.189184e-002
1.820549e+003;6.166127e-002
1.822478e+003;6.157257e-002
1.824406e+003;6.137923e-002
1.826335e+003;6.127986e-002
1.828264e+003;6.103028e-002
1.830192e+003;6.070223e-002
1.832121e+003;6.090938e-002
1.834049e+003;6.106048e-002
1.835978e+003;6.091159e-002
1.837906e+003;6.074476e-002
1.839835e+003;6.077540e-002
1.841763e+003;6.042656e-002
1.843692e+003;5.989646e-002
1.845620e+003;6.014409e-002
1.847549e+003;6.027053e-002
1.849478e+003;6.007605e-002
1.851406e+003;6.009850e-002
1.853335e+003;6.034237e-002
1.855263e+003;6.043052e-002
1.857192e+003;6.024122e-002
1.859120e+003;5.992936e-002
1.861049e+003;5.952997e-002
1.862977e+003;5.949371e-002
1.864906e+003;5.953164e-002
1.866834e+003;5.931998e-002
1.868763e+003;5.923358e-002
1.870692e+003;5.935223e-002
1.872620e+003;5.945724e-002
1.874549e+003;5.938372e-002
1.876477e+003;5.928196e-002
1.878406e+003;5.938543e-002
1.880334e+003;5.937950e-002
1.882263e+003;5.926506e-002
1.884191e+003;5.936264e-002
1.886120e+003;5.918596e-002
1.888048e+003;5.890077e-002
1.889977e+003;5.890832e-002
1.891906e+003;5.933810e-002
1.893834e+003;5.966398e-002
1.895763e+003;5.953251e-002
1.897691e+003;5.914681e-002
1.899620e+003;5.906849e-002
1.901548e+003;5.909081e-002
1.903477e+003;5.917662e-002
1.905405e+003;5.921520e-002
1.907334e+003;5.925458e-002
1.909262e+003;5.936051e-002
1.911191e+003;5.939744e-002
1.913120e+003;5.936024e-002
1.915048e+003;5.943342e-002
1.916977e+003;5.946324e-002
1.918905e+003;5.970952e-002
1.920834e+003;5.985713e-002
1.922762e+003;5.958435e-002
1.924691e+003;5.947498e-002
1.926619e+003;5.969572e-002
1.928548e+003;6.014797e-002
1.930477e+003;6.030171e-002
1.932405e+003;6.003378e-002
1.934334e+003;5.997211e-002
1.936262e+003;6.027765e-002
1.938191e+003;6.041220e-002
1.940119e+003;6.036281e-002
1.942048e+003;6.039046e-002
1.943976e+003;6.069126e-002
1.945905e+003;6.078317e-002
1.947833e+003;6.086520e-002
1.949762e+003;6.092978e-002
1.951691e+003;6.075939e-002
1.953619e+003;6.094117e-002
1.955548e+003;6.123392e-002
1.957476e+003;6.126902e-002
1.959405e+003;6.156116e-002
1.961333e+003;6.166632e-002
1.963262e+003;6.144991e-002
1.965190e+003;6.130645e-002
1.967119e+003;6.118895e-002
1.969047e+003;6.097778e-002
1.970976e+003;6.098124e-002
1.972905e+003;6.127482e-002
1.974833e+003;6.130997e-002
1.976762e+003;6.128990e-002
1.978690e+003;6.137072e-002
1.980619e+003;6.136774e-002
1.982547e+003;6.148702e-002
1.984476e+003;6.182811e-002
1.986404e+003;6.194526e-002
1.988333e+003;6.209604e-002
1.990261e+003;6.239129e-002
1.992190e+003;6.241206e-002
1.994119e+003;6.228102e-002
1.996047e+003;6.232680e-002
1.997976e+003;6.248116e-002
1.999904e+003;6.250756e-002
2.001833e+003;6.251552e-002
2.003761e+003;6.234566e-002
2.005690e+003;6.230967e-002
2.007618e+003;6.255149e-002
2.009547e+003;6.255937e-002
2.011476e+003;6.263947e-002
2.013404e+003;6.290630e-002
2.015333e+003;6.302296e-002
2.017261e+003;6.300642e-002
2.019190e+003;6.326514e-002
2.021118e+003;6.355666e-002
2.023047e+003;6.362291e-002
2.024975e+003;6.365871e-002
2.026904e+003;6.373537e-002
2.028833e+003;6.402313e-002
2.030761e+003;6.426464e-002
2.032690e+003;6.436915e-002
2.034618e+003;6.459466e-002
2.036547e+003;6.466149e-002
2.038475e+003;6.466968e-002
2.040404e+003;6.453557e-002
2.042332e+003;6.446857e-002
2.044261e+003;6.463857e-002
2.046189e+003;6.477990e-002
2.048118e+003;6.473514e-002
2.050047e+003;6.477079e-002
2.051975e+003;6.473029e-002
2.053904e+003;6.482372e-002
2.055832e+003;6.495707e-002
2.057761e+003;6.476782e-002
2.059689e+003;6.468337e-002
2.061618e+003;6.475933e-002
2.063546e+003;6.484903e-002
2.065475e+003;6.475329e-002
2.067404e+003;6.459224e-002
2.069332e+003;6.453938e-002
2.071260e+003;6.450636e-002
2.073189e+003;6.445266e-002
2.075118e+003;6.454276e-002
2.077046e+003;6.449521e-002
2.078975e+003;6.423667e-002
2.080903e+003;6.433868e-002
2.082832e+003;6.455033e-002
2.084760e+003;6.459039e-002
2.086689e+003;6.434686e-002
2.088617e+003;6.429730e-002
2.090546e+003;6.432580e-002
2.092475e+003;6.449579e-002
2.094403e+003;6.469764e-002
2.096332e+003;6.462115e-002
2.098260e+003;6.446481e-002
2.100189e+003;6.440539e-002
2.102117e+003;6.452338e-002
2.104046e+003;6.469068e-002
2.105974e+003;6.486277e-002
2.107903e+003;6.484264e-002
2.109832e+003;6.514324e-002
2.111760e+003;6.555980e-002
2.113688e+003;6.539927e-002
2.115617e+003;6.498739e-002
2.117546e+003;6.506783e-002
2.119474e+003;6.529228e-002
2.121403e+003;6.542134e-002
2.123331e+003;6.542809e-002
2.125260e+003;6.540956e-002
2.127188e+003;6.545255e-002
2.129117e+003;6.561996e-002
2.131045e+003;6.599052e-002
2.132974e+003;6.621020e-002
2.134903e+003;6.586567e-002
2.136831e+003;6.550371e-002
2.138760e+003;6.553645e-002
2.140688e+003;6.581497e-002
2.142617e+003;6.574438e-002
2.144545e+003;6.535482e-002
2.146474e+003;6.512918e-002
2.148402e+003;6.509631e-002
2.150331e+003;6.505928e-002
2.152260e+003;6.500001e-002
2.154188e+003;6.499390e-002
2.156117e+003;6.511062e-002
2.158045e+003;6.485834e-002
2.159974e+003;6.461243e-002
2.161902e+003;6.461604e-002
2.163831e+003;6.450759e-002
2.165759e+003;6.440204e-002
2.167688e+003;6.418400e-002
2.169616e+003;6.405984e-002
2.171545e+003;6.391613e-002
2.173474e+003;6.351068e-002
2.175402e+003;6.314979e-002
2.177331e+003;6.313331e-002
2.179259e+003;6.320470e-002
2.181188e+003;6.292693e-002
2.183116e+003;6.266324e-002
2.185045e+003;6.261429e-002
2.186973e+003;6.260327e-002
2.188902e+003;6.222022e-002
2.190831e+003;6.203171e-002
2.192759e+003;6.227927e-002
2.194688e+003;6.237695e-002
2.196616e+003;6.249099e-002
2.198545e+003;6.265142e-002
2.200473e+003;6.265203e-002
2.202402e+003;6.263867e-002
2.204330e+003;6.250767e-002
2.206259e+003;6.229403e-002
2.208188e+003;6.225839e-002
2.210116e+003;6.241727e-002
2.212044e+003;6.250323e-002
2.213973e+003;6.242109e-002
2.215902e+003;6.244933e-002
2.217830e+003;6.269991e-002
2.219759e+003;6.277403e-002
2.221687e+003;6.257617e-002
2.223616e+003;6.253978e-002
2.225544e+003;6.275470e-002
2.227473e+003;6.294490e-002
2.229401e+003;6.278483e-002
2.231330e+003;6.262918e-002
2.233259e+003;6.272645e-002
2.235187e+003;6.276729e-002
2.237116e+003;6.264146e-002
2.239044e+003;6.275726e-002
2.240973e+003;6.269421e-002
2.242901e+003;6.255141e-002
2.244830e+003;6.270815e-002
2.246758e+003;6.263097e-002
2.248687e+003;6.253932e-002
2.250615e+003;6.279149e-002
2.252544e+003;6.267159e-002
2.254473e+003;6.220240e-002
2.256401e+003;6.199773e-002
2.258330e+003;6.205384e-002
2.260258e+003;6.198738e-002
2.262187e+003;6.198122e-002
2.264115e+003;6.203133e-002
2.266044e+003;6.210491e-002
2.267972e+003;6.181547e-002
2.269901e+003;6.149797e-002
2.271830e+003;6.157017e-002
2.273758e+003;6.177872e-002
2.275687e+003;6.174350e-002
2.277615e+003;6.144560e-002
2.279544e+003;6.120176e-002
2.281472e+003;6.099711e-002
2.283401e+003;6.091940e-002
2.285329e+003;6.109916e-002
2.287258e+003;6.100923e-002
2.289187e+003;6.085448e-002
2.291115e+003;6.095684e-002
2.293043e+003;6.108695e-002
2.294972e+003;6.093603e-002
2.296901e+003;6.058298e-002
2.298829e+003;6.053243e-002
2.300758e+003;6.070143e-002
2.302686e+003;6.059380e-002
2.304615e+003;6.053906e-002
2.306543e+003;6.071016e-002
2.308472e+003;6.061856e-002
2.310400e+003;6.048692e-002
2.312329e+003;6.064542e-002
2.314258e+003;6.075524e-002
2.316186e+003;6.047355e-002
2.318115e+003;6.039777e-002
2.320043e+003;6.039179e-002
2.321972e+003;6.038608e-002
2.323900e+003;6.051971e-002
2.325829e+003;6.040356e-002
2.327757e+003;6.030235e-002
2.329686e+003;6.034736e-002
2.331615e+003;6.036125e-002
2.333543e+003;6.026231e-002
2.335472e+003;6.040915e-002
2.337400e+003;6.066996e-002
2.339329e+003;6.064203e-002
2.341257e+003;6.065289e-002
2.343186e+003;6.084782e-002
2.345114e+003;6.097385e-002
2.347043e+003;6.118524e-002
2.348971e+003;6.147133e-002
2.350900e+003;6.179324e-002
2.352829e+003;6.197350e-002
2.354757e+003;6.191026e-002
2.356686e+003;6.173120e-002
2.358614e+003;6.169293e-002
2.360543e+003;6.171818e-002
2.362471e+003;6.144125e-002
2.364400e+003;6.129535e-002
2.366328e+003;6.158845e-002
2.368257e+003;6.196127e-002
2.370186e+003;6.220852e-002
2.372114e+003;6.226714e-002
2.374042e+003;6.225624e-002
2.375971e+003;6.237542e-002
2.377900e+003;6.254020e-002
2.379828e+003;6.273337e-002
2.381757e+003;6.292181e-002
2.383685e+003;6.311687e-002
2.385614e+003;6.334246e-002
2.387542e+003;6.336225e-002
2.389471e+003;6.337467e-002
2.391399e+003;6.361574e-002
2.393328e+003;6.380559e-002
2.395257e+003;6.381062e-002
2.397185e+003;6.398470e-002
2.399114e+003;6.388696e-002
2.401042e+003;6.373303e-002
2.402971e+003;6.389905e-002
2.404899e+003;6.428189e-002
2.406828e+003;6.445105e-002
2.408756e+003;6.425042e-002
2.410685e+003;6.468883e-002
2.412614e+003;6.501267e-002
2.414542e+003;6.474859e-002
2.416471e+003;6.473333e-002
2.418399e+003;6.475236e-002
2.420328e+003;6.473459e-002
2.422256e+003;6.500051e-002
2.424185e+003;6.523502e-002
2.426113e+003;6.548879e-002
2.428042e+003;6.580468e-002
2.429970e+003;6.582878e-002
2.431899e+003;6.548317e-002
2.433828e+003;6.580618e-002
2.435756e+003;6.624647e-002
2.437685e+003;6.610180e-002
2.439613e+003;6.618943e-002
2.441542e+003;6.638616e-002
2.443470e+003;6.629082e-002
2.445399e+003;6.608576e-002
2.447327e+003;6.608765e-002
2.449256e+003;6.645469e-002
2.451185e+003;6.674872e-002
2.453113e+003;6.665885e-002
2.455042e+003;6.646536e-002
2.456970e+003;6.634273e-002
2.458899e+003;6.640628e-002
2.460827e+003;6.653509e-002
2.462756e+003;6.670058e-002
2.464684e+003;6.679223e-002
2.466613e+003;6.681255e-002
2.468542e+003;6.680509e-002
2.470470e+003;6.685456e-002
2.472398e+003;6.711072e-002
2.474327e+003;6.713694e-002
2.476256e+003;6.703489e-002
2.478184e+003;6.743447e-002
2.480113e+003;6.799548e-002
2.482041e+003;6.809760e-002
2.483970e+003;6.778748e-002
2.485898e+003;6.769791e-002
2.487827e+003;6.783459e-002
2.489755e+003;6.789610e-002
2.491684e+003;6.777617e-002
2.493613e+003;6.770689e-002
2.495541e+003;6.785008e-002
2.497470e+003;6.815268e-002
2.499398e+003;6.840208e-002
2.501327e+003;6.834169e-002
2.503255e+003;6.833382e-002
2.505184e+003;6.856769e-002
2.507112e+003;6.861906e-002
2.509041e+003;6.858531e-002
2.510969e+003;6.875736e-002
2.512898e+003;6.905002e-002
2.514827e+003;6.925578e-002
2.516755e+003;6.918767e-002
2.518684e+003;6.896403e-002
2.520612e+003;6.913234e-002
2.522541e+003;6.929162e-002
2.524469e+003;6.932279e-002
2.526398e+003;6.939715e-002
2.528326e+003;6.920177e-002
2.530255e+003;6.913754e-002
2.532184e+003;6.951885e-002
2.534112e+003;6.972219e-002
2.536041e+003;6.966345e-002
2.537969e+003;6.961666e-002
2.539898e+003;6.924743e-002
2.541826e+003;6.894791e-002
2.543755e+003;6.878041e-002
2.545683e+003;6.872649e-002
2.547612e+003;6.895483e-002
2.549541e+003;6.922163e-002
2.551469e+003;6.949855e-002
2.553397e+003;6.955754e-002
2.555326e+003;6.929026e-002
2.557255e+003;6.917321e-002
2.559183e+003;6.949680e-002
2.561112e+003;6.968734e-002
2.563040e+003;6.968749e-002
2.564969e+003;6.963973e-002
2.566897e+003;6.946309e-002
2.568826e+003;6.940108e-002
2.570754e+003;6.955564e-002
2.572683e+003;6.964388e-002
2.574612e+003;6.972130e-002
2.576540e+003;6.970900e-002
2.578469e+003;6.985538e-002
2.580397e+003;7.005071e-002
2.582326e+003;6.997145e-002
2.584254e+003;7.008906e-002
2.586183e+003;7.017890e-002
2.588111e+003;7.017921e-002
2.590040e+003;7.030287e-002
2.591969e+003;7.035695e-002
2.593897e+003;7.030179e-002
2.595826e+003;7.018895e-002
2.597754e+003;7.015526e-002
2.599683e+003;7.027436e-002
2.601611e+003;7.050269e-002
2.603540e+003;7.057039e-002
2.605468e+003;7.060782e-002
2.607397e+003;7.067814e-002
2.609325e+003;7.055742e-002
2.611254e+003;7.073675e-002
2.613183e+003;7.084385e-002
2.615111e+003;7.070139e-002
2.617040e+003;7.072537e-002
2.618968e+003;7.109137e-002
2.620897e+003;7.127733e-002
2.622825e+003;7.117782e-002
2.624754e+003;7.130267e-002
2.626682e+003;7.161148e-002
2.628611e+003;7.181069e-002
2.630540e+003;7.175537e-002
2.632468e+003;7.168139e-002
2.634396e+003;7.183203e-002
2.636325e+003;7.201178e-002
2.638254e+003;7.205871e-002
2.640182e+003;7.173423e-002
2.642111e+003;7.165262e-002
2.644039e+003;7.203876e-002
2.645968e+003;7.233749e-002
2.647896e+003;7.234062e-002
2.649825e+003;7.215925e-002
2.651753e+003;7.215627e-002
2.653682e+003;7.235612e-002
2.655611e+003;7.245970e-002
2.657539e+003;7.234802e-002
2.659468e+003;7.226082e-002
2.661396e+003;7.246541e-002
2.663325e+003;7.283217e-002
2.665253e+003;7.281870e-002
2.667182e+003;7.263145e-002
2.669110e+003;7.279691e-002
2.671039e+003;7.333406e-002
2.672968e+003;7.339852e-002
2.674896e+003;7.302234e-002
2.676825e+003;7.304904e-002
2.678753e+003;7.316486e-002
2.680682e+003;7.322208e-002
2.682610e+003;7.332762e-002
2.684539e+003;7.336980e-002
2.686467e+003;7.339612e-002
2.688396e+003;7.361982e-002
2.690324e+003;7.372390e-002
2.692253e+003;7.380428e-002
2.694182e+003;7.389218e-002
2.696110e+003;7.402001e-002
2.698039e+003;7.449062e-002
2.699967e+003;7.457929e-002
2.701896e+003;7.428999e-002
2.703824e+003;7.433724e-002
2.705753e+003;7.468718e-002
2.707681e+003;7.486138e-002
2.709610e+003;7.492477e-002
2.711539e+003;7.495910e-002
2.713467e+003;7.500663e-002
2.715396e+003;7.499931e-002
2.717324e+003;7.504003e-002
2.719253e+003;7.526430e-002
2.721181e+003;7.511534e-002
2.723110e+003;7.493426e-002
2.725038e+003;7.536419e-002
2.726967e+003;7.560369e-002
2.728896e+003;7.543448e-002
2.730824e+003;7.553043e-002
2.732752e+003;7.560641e-002
2.734681e+003;7.554506e-002
2.736610e+003;7.538114e-002
2.738538e+003;7.548466e-002
2.740467e+003;7.593914e-002
2.742395e+003;7.614737e-002
2.744324e+003;7.575527e-002
2.746252e+003;7.577590e-002
2.748181e+003;7.617710e-002
2.750109e+003;7.615878e-002
2.752038e+003;7.582372e-002
2.753967e+003;7.570028e-002
2.755895e+003;7.593653e-002
2.757824e+003;7.600580e-002
2.759752e+003;7.594111e-002
2.761681e+003;7.611266e-002
2.763609e+003;7.653271e-002
2.765538e+003;7.696988e-002
2.767466e+003;7.697843e-002
2.769395e+003;7.696447e-002
2.771323e+003;7.703473e-002
2.773252e+003;7.722904e-002
2.775181e+003;7.731577e-002
2.777109e+003;7.716828e-002
2.779038e+003;7.691565e-002
2.780966e+003;7.724855e-002
2.782895e+003;7.760091e-002
2.784823e+003;7.747202e-002
2.786752e+003;7.741269e-002
2.788680e+003;7.775295e-002
2.790609e+003;7.776464e-002
2.792538e+003;7.805424e-002
2.794466e+003;7.858189e-002
2.796395e+003;7.878361e-002
2.798323e+003;7.891750e-002
2.800252e+003;7.886807e-002
2.802180e+003;7.910422e-002
2.804109e+003;7.990019e-002
2.806037e+003;8.022892e-002
2.807966e+003;8.038347e-002
2.809895e+003;8.022115e-002
2.811823e+003;8.034974e-002
2.813751e+003;8.111046e-002
2.815680e+003;8.166235e-002
2.817609e+003;8.209304e-002
2.819537e+003;8.249423e-002
2.821466e+003;8.293677e-002
2.823394e+003;8.334051e-002
2.825323e+003;8.374836e-002
2.827251e+003;8.414770e-002
2.829180e+003;8.486349e-002
2.831108e+003;8.560701e-002
2.833037e+003;8.612049e-002
2.834966e+003;8.687050e-002
2.836894e+003;8.794374e-002
2.838823e+003;8.917178e-002
2.840751e+003;9.073580e-002
2.842680e+003;9.315888e-002
2.844608e+003;9.682918e-002
2.846537e+003;1.020506e-001
2.848465e+003;1.063806e-001
2.850394e+003;1.067460e-001
2.852323e+003;1.034720e-001
2.854251e+003;9.980487e-002
2.856180e+003;9.755985e-002
2.858108e+003;9.644940e-002
2.860037e+003;9.576459e-002
2.861965e+003;9.581313e-002
2.863894e+003;9.672289e-002
2.865822e+003;9.741075e-002
2.867751e+003;9.740266e-002
2.869679e+003;9.762526e-002
2.871608e+003;9.791547e-002
2.873536e+003;9.844347e-002
2.875465e+003;9.908411e-002
2.877394e+003;9.926517e-002
2.879322e+003;9.972728e-002
2.881251e+003;1.000992e-001
2.883179e+003;1.005763e-001
2.885108e+003;1.011821e-001
2.887036e+003;1.022835e-001
2.888965e+003;1.033217e-001
2.890893e+003;1.038304e-001
2.892822e+003;1.042850e-001
2.894750e+003;1.053000e-001
2.896679e+003;1.061765e-001
2.898608e+003;1.066441e-001
2.900536e+003;1.070034e-001
2.902465e+003;1.071148e-001
2.904393e+003;1.070524e-001
2.906322e+003;1.070612e-001
2.908250e+003;1.070923e-001
2.910179e+003;1.074918e-001
2.912107e+003;1.091620e-001
2.914036e+003;1.124884e-001
2.915965e+003;1.149609e-001
2.917893e+003;1.149048e-001
2.919822e+003;1.130147e-001
2.921750e+003;1.096330e-001
2.923679e+003;1.054897e-001
2.925607e+003;1.013698e-001
2.927536e+003;9.768645e-002
2.929464e+003;9.526476e-002
2.931393e+003;9.317625e-002
2.933322e+003;9.115683e-002
2.935250e+003;8.963300e-002
2.937178e+003;8.868057e-002
2.939107e+003;8.798334e-002
2.941036e+003;8.741578e-002
2.942964e+003;8.718674e-002
2.944893e+003;8.674955e-002
2.946821e+003;8.625840e-002
2.948750e+003;8.553991e-002
2.950678e+003;8.476170e-002
2.952607e+003;8.462221e-002
2.954535e+003;8.480947e-002
2.956464e+003;8.471897e-002
2.958393e+003;8.455248e-002
2.960321e+003;8.455764e-002
2.962250e+003;8.462749e-002
2.964178e+003;8.443294e-002
2.966107e+003;8.373035e-002
2.968035e+003;8.296549e-002
2.969964e+003;8.216173e-002
2.971892e+003;8.088323e-002
2.973821e+003;7.943419e-002
2.975750e+003;7.826246e-002
2.977678e+003;7.699944e-002
2.979607e+003;7.588050e-002
2.981535e+003;7.553268e-002
2.983464e+003;7.518376e-002
2.985392e+003;7.441377e-002
2.987321e+003;7.381418e-002
2.989249e+003;7.353755e-002
2.991178e+003;7.313211e-002
2.993106e+003;7.284527e-002
2.995035e+003;7.283994e-002
2.996964e+003;7.272365e-002
2.998892e+003;7.265714e-002
3.000821e+003;7.257579e-002
3.002749e+003;7.198957e-002
3.004678e+003;7.161703e-002
3.006606e+003;7.175420e-002
3.008535e+003;7.190201e-002
3.010463e+003;7.211339e-002
3.012392e+003;7.209787e-002
3.014321e+003;7.192997e-002
3.016249e+003;7.191433e-002
3.018177e+003;7.211371e-002
3.020106e+003;7.247020e-002
3.022035e+003;7.269514e-002
3.023963e+003;7.283645e-002
3.025892e+003;7.286251e-002
3.027820e+003;7.284233e-002
3.029749e+003;7.288179e-002
3.031677e+003;7.311188e-002
3.033606e+003;7.339161e-002
3.035534e+003;7.318866e-002
3.037463e+003;7.301070e-002
3.039392e+003;7.330668e-002
3.041320e+003;7.398111e-002
3.043249e+003;7.424922e-002
3.045177e+003;7.432702e-002
3.047106e+003;7.438412e-002
3.049034e+003;7.418074e-002
3.050963e+003;7.394552e-002
3.052891e+003;7.443222e-002
3.054820e+003;7.504188e-002
3.056749e+003;7.506590e-002
3.058677e+003;7.509375e-002
3.060606e+003;7.570912e-002
3.062534e+003;7.610054e-002
3.064463e+003;7.617007e-002
3.066391e+003;7.593432e-002
3.068320e+003;7.582865e-002
3.070248e+003;7.603612e-002
3.072177e+003;7.655456e-002
3.074105e+003;7.695683e-002
3.076034e+003;7.712222e-002
3.077963e+003;7.710682e-002
3.079891e+003;7.737841e-002
3.081820e+003;7.789782e-002
3.083748e+003;7.775184e-002
3.085677e+003;7.767223e-002
3.087605e+003;7.806841e-002
3.089534e+003;7.847042e-002
3.091462e+003;7.856569e-002
3.093391e+003;7.880494e-002
3.095320e+003;7.889453e-002
3.097248e+003;7.887550e-002
3.099177e+003;7.913881e-002
3.101105e+003;7.921809e-002
3.103034e+003;7.939241e-002
3.104962e+003;7.996264e-002
3.106891e+003;8.049349e-002
3.108819e+003;8.066490e-002
3.110748e+003;8.120728e-002
3.112677e+003;8.185606e-002
3.114605e+003;8.234445e-002
3.116533e+003;8.203276e-002
3.118462e+003;8.154827e-002
3.120391e+003;8.183349e-002
3.122319e+003;8.217975e-002
3.124248e+003;8.252452e-002
3.126176e+003;8.304716e-002
3.128105e+003;8.334324e-002
3.130033e+003;8.348304e-002
3.131962e+003;8.388069e-002
3.133890e+003;8.425876e-002
3.135819e+003;8.414079e-002
3.137748e+003;8.424713e-002
3.139676e+003;8.456980e-002
3.141605e+003;8.478462e-002
3.143533e+003;8.518040e-002
3.145462e+003;8.570351e-002
3.147390e+003;8.639421e-002
3.149319e+003;8.717625e-002
3.151247e+003;8.736623e-002
3.153176e+003;8.722250e-002
3.155104e+003;8.736238e-002
3.157033e+003;8.774024e-002
3.158962e+003;8.786330e-002
3.160890e+003;8.839761e-002
3.162819e+003;8.907561e-002
3.164747e+003;8.903673e-002
3.166676e+003;8.941621e-002
3.168604e+003;9.017610e-002
3.170533e+003;9.068129e-002
3.172461e+003;9.116933e-002
3.174390e+003;9.158035e-002
3.176319e+003;9.211144e-002
3.178247e+003;9.245611e-002
3.180176e+003;9.274177e-002
3.182104e+003;9.339989e-002
3.184033e+003;9.417185e-002
3.185961e+003;9.489802e-002
3.187890e+003;9.517787e-002
3.189818e+003;9.530969e-002
3.191747e+003;9.544767e-002
3.193676e+003;9.590808e-002
3.195604e+003;9.648705e-002
3.197532e+003;9.692633e-002
3.199461e+003;9.742054e-002
3.201390e+003;9.836642e-002
3.203318e+003;9.920563e-002
3.205247e+003;9.960783e-002
3.207175e+003;9.991983e-002
3.209104e+003;1.005665e-001
3.211032e+003;1.016186e-001
3.212961e+003;1.024155e-001
3.214889e+003;1.023806e-001
3.216818e+003;1.026091e-001
3.218747e+003;1.032338e-001
3.220675e+003;1.043505e-001
3.222604e+003;1.053193e-001
3.224532e+003;1.058381e-001
3.226461e+003;1.070725e-001
3.228389e+003;1.084106e-001
3.230318e+003;1.091365e-001
3.232246e+003;1.097031e-001
3.234175e+003;1.100030e-001
3.236104e+003;1.103825e-001
3.238032e+003;1.113737e-001
3.239961e+003;1.125089e-001
3.241889e+003;1.139631e-001
3.243818e+003;1.153793e-001
3.245746e+003;1.161834e-001
3.247675e+003;1.172058e-001
3.249603e+003;1.185824e-001
3.251532e+003;1.196508e-001
3.253460e+003;1.204020e-001
3.255389e+003;1.220738e-001
3.257318e+003;1.236357e-001
3.259246e+003;1.242709e-001
3.261175e+003;1.249838e-001
3.263103e+003;1.263223e-001
3.265032e+003;1.276467e-001
3.266960e+003;1.287339e-001
3.268889e+003;1.294335e-001
3.270817e+003;1.299702e-001
3.272746e+003;1.304993e-001
3.274675e+003;1.311107e-001
3.276603e+003;1.315274e-001
3.278531e+003;1.316038e-001
3.280460e+003;1.316126e-001
3.282389e+003;1.320313e-001
3.284317e+003;1.325714e-001
3.286246e+003;1.329633e-001
3.288174e+003;1.334984e-001
3.290103e+003;1.335350e-001
3.292031e+003;1.330728e-001
3.293960e+003;1.326891e-001
3.295888e+003;1.327599e-001
3.297817e+003;1.331857e-001
3.299746e+003;1.335686e-001
3.301674e+003;1.334397e-001
3.303603e+003;1.332446e-001
3.305531e+003;1.329698e-001
3.307460e+003;1.326266e-001
3.309388e+003;1.330680e-001
3.311317e+003;1.338529e-001
3.313245e+003;1.334589e-001
3.315174e+003;1.332307e-001
3.317103e+003;1.339556e-001
3.319031e+003;1.349173e-001
3.320960e+003;1.356649e-001
3.322888e+003;1.362614e-001
3.324817e+003;1.370162e-001
3.326745e+003;1.377632e-001
3.328674e+003;1.382884e-001
3.330602e+003;1.384171e-001
3.332531e+003;1.385638e-001
3.334459e+003;1.389333e-001
3.336388e+003;1.389920e-001
3.338317e+003;1.383968e-001
3.340245e+003;1.368903e-001
3.342174e+003;1.355195e-001
3.344102e+003;1.350625e-001
3.346031e+003;1.341460e-001
3.347959e+003;1.328493e-001
3.349888e+003;1.318518e-001
3.351816e+003;1.303017e-001
3.353745e+003;1.290686e-001
3.355674e+003;1.279845e-001
3.357602e+003;1.265039e-001
3.359531e+003;1.252777e-001
3.361459e+003;1.239669e-001
3.363388e+003;1.226884e-001
3.365316e+003;1.217255e-001
3.367245e+003;1.210526e-001
3.369173e+003;1.204720e-001
3.371102e+003;1.192480e-001
3.373031e+003;1.180887e-001
3.374959e+003;1.176718e-001
3.376887e+003;1.171515e-001
3.378816e+003;1.165350e-001
3.380745e+003;1.158844e-001
3.382673e+003;1.147942e-001
3.384602e+003;1.137407e-001
3.386530e+003;1.128910e-001
3.388459e+003;1.122463e-001
3.390387e+003;1.122665e-001
3.392316e+003;1.121113e-001
3.394244e+003;1.112830e-001
3.396173e+003;1.108388e-001
3.398102e+003;1.104175e-001
3.400030e+003;1.100528e-001
3.401959e+003;1.092243e-001
3.403887e+003;1.081570e-001
3.405816e+003;1.075041e-001
3.407744e+003;1.069131e-001
3.409673e+003;1.061937e-001
3.411601e+003;1.052885e-001
3.413530e+003;1.041311e-001
3.415458e+003;1.030987e-001
3.417387e+003;1.021856e-001
3.419316e+003;1.011870e-001
3.421244e+003;1.006433e-001
3.423173e+003;9.952894e-002
3.425101e+003;9.807666e-002
3.427030e+003;9.709369e-002
3.428958e+003;9.581995e-002
3.430887e+003;9.486888e-002
3.432815e+003;9.475560e-002
3.434744e+003;9.376903e-002
3.436673e+003;9.249792e-002
3.438601e+003;9.218587e-002
3.440530e+003;9.163305e-002
3.442458e+003;9.070498e-002
3.444387e+003;8.995774e-002
3.446315e+003;8.920763e-002
3.448244e+003;8.857102e-002
3.450172e+003;8.789697e-002
3.452101e+003;8.734881e-002
3.454030e+003;8.660638e-002
3.455958e+003;8.573681e-002
3.457886e+003;8.501700e-002
3.459815e+003;8.403768e-002
3.461744e+003;8.327580e-002
3.463672e+003;8.278973e-002
3.465601e+003;8.207971e-002
3.467529e+003;8.176025e-002
3.469458e+003;8.129580e-002
3.471386e+003;8.076225e-002
3.473315e+003;8.016755e-002
3.475243e+003;7.975823e-002
3.477172e+003;7.893617e-002
3.479101e+003;7.762595e-002
3.481029e+003;7.690604e-002
3.482958e+003;7.629759e-002
3.484886e+003;7.554029e-002
3.486815e+003;7.490965e-002
3.488743e+003;7.390267e-002
3.490672e+003;7.283382e-002
3.492600e+003;7.265048e-002
3.494529e+003;7.260223e-002
3.496458e+003;7.200306e-002
3.498386e+003;7.153201e-002
3.500315e+003;7.102288e-002
3.502243e+003;7.054175e-002
3.504172e+003;7.009996e-002
3.506100e+003;6.907255e-002
3.508029e+003;6.841752e-002
3.509957e+003;6.848327e-002
3.511886e+003;6.824080e-002
3.513814e+003;6.782161e-002
3.515743e+003;6.727692e-002
3.517672e+003;6.641338e-002
3.519600e+003;6.609555e-002
3.521529e+003;6.573035e-002
3.523457e+003;6.512552e-002
3.525386e+003;6.402559e-002
3.527314e+003;6.339913e-002
3.529243e+003;6.352000e-002
3.531171e+003;6.356775e-002
3.533100e+003;6.338298e-002
3.535029e+003;6.305220e-002
3.536957e+003;6.258800e-002
3.538885e+003;6.174221e-002
3.540814e+003;6.125678e-002
3.542743e+003;6.069987e-002
3.544671e+003;5.986097e-002
3.546600e+003;5.957321e-002
3.548528e+003;5.942669e-002
3.550457e+003;5.940006e-002
3.552385e+003;5.929746e-002
3.554314e+003;5.878076e-002
3.556242e+003;5.782733e-002
3.558171e+003;5.734724e-002
3.560100e+003;5.764163e-002
3.562028e+003;5.753853e-002
3.563957e+003;5.679109e-002
3.565885e+003;5.584718e-002
3.567814e+003;5.562284e-002
3.569742e+003;5.574417e-002
3.571671e+003;5.532128e-002
3.573599e+003;5.527789e-002
3.575528e+003;5.459658e-002
3.577457e+003;5.378670e-002
3.579385e+003;5.377287e-002
3.581314e+003;5.375231e-002
3.583242e+003;5.381937e-002
3.585171e+003;5.361767e-002
3.587099e+003;5.305718e-002
3.589028e+003;5.306092e-002
3.590956e+003;5.314570e-002
3.592885e+003;5.247920e-002
3.594813e+003;5.151508e-002
3.596742e+003;5.165079e-002
3.598671e+003;5.235994e-002
3.600599e+003;5.228459e-002
3.602528e+003;5.192327e-002
3.604456e+003;5.113610e-002
3.606385e+003;4.989786e-002
3.608313e+003;4.932889e-002
3.610242e+003;4.964935e-002
3.612170e+003;4.991607e-002
3.614099e+003;5.019505e-002
3.616028e+003;4.996183e-002
3.617956e+003;4.897840e-002
3.619885e+003;4.858228e-002
3.621813e+003;4.896764e-002
3.623742e+003;4.909759e-002
3.625670e+003;4.846542e-002
3.627599e+003;4.684524e-002
3.629527e+003;4.620676e-002
3.631456e+003;4.694483e-002
3.633385e+003;4.689459e-002
3.635313e+003;4.689673e-002
3.637241e+003;4.728164e-002
3.639170e+003;4.702606e-002
3.641099e+003;4.643425e-002
3.643027e+003;4.629157e-002
3.644956e+003;4.562012e-002
3.646884e+003;4.360368e-002
3.648813e+003;4.243938e-002
3.650741e+003;4.291098e-002
3.652670e+003;4.354206e-002
3.654598e+003;4.295462e-002
3.656527e+003;4.232840e-002
3.658456e+003;4.235295e-002
3.660384e+003;4.206903e-002
3.662313e+003;4.174346e-002
3.664241e+003;4.191337e-002
3.666170e+003;4.152539e-002
3.668098e+003;4.044519e-002
3.670027e+003;3.960524e-002
3.671955e+003;3.939375e-002
3.673884e+003;3.861631e-002
3.675813e+003;3.839691e-002
3.677741e+003;3.932994e-002
3.679669e+003;3.972341e-002
3.681598e+003;3.999402e-002
3.683527e+003;3.958401e-002
3.685455e+003;3.898007e-002
3.687384e+003;3.825258e-002
3.689312e+003;3.796117e-002
3.691241e+003;3.803581e-002
3.693169e+003;3.817580e-002
3.695098e+003;3.835221e-002
3.697026e+003;3.822689e-002
3.698955e+003;3.771351e-002
3.700884e+003;3.778749e-002
3.702812e+003;3.858361e-002
3.704741e+003;3.887442e-002
3.706669e+003;3.855377e-002
3.708598e+003;3.805896e-002
3.710526e+003;3.751276e-002
3.712455e+003;3.667983e-002
3.714383e+003;3.681917e-002
3.716312e+003;3.735550e-002
3.718240e+003;3.768770e-002
3.720169e+003;3.718762e-002
3.722098e+003;3.680943e-002
3.724026e+003;3.693322e-002
3.725955e+003;3.689780e-002
3.727883e+003;3.709822e-002
3.729812e+003;3.644497e-002
3.731740e+003;3.507956e-002
3.733669e+003;3.483971e-002
3.735597e+003;3.533404e-002
3.737526e+003;3.601874e-002
3.739455e+003;3.606065e-002
3.741383e+003;3.538368e-002
3.743312e+003;3.403641e-002
3.745240e+003;3.427341e-002
3.747169e+003;3.458151e-002
3.749097e+003;3.428997e-002
3.751026e+003;3.456404e-002
3.752954e+003;3.498589e-002
3.754883e+003;3.575293e-002
3.756812e+003;3.643823e-002
3.758740e+003;3.673017e-002
3.760668e+003;3.666206e-002
3.762597e+003;3.721036e-002
3.764526e+003;3.751138e-002
3.766454e+003;3.727726e-002
3.768383e+003;3.616687e-002
3.770311e+003;3.582331e-002
3.772240e+003;3.608401e-002
3.774168e+003;3.543961e-002
3.776097e+003;3.551188e-002
3.778025e+003;3.631523e-002
3.779954e+003;3.658725e-002
3.781883e+003;3.631432e-002
3.783811e+003;3.661624e-002
3.785740e+003;3.675584e-002
3.787668e+003;3.695447e-002
3.789597e+003;3.681123e-002
3.791525e+003;3.646522e-002
3.793454e+003;3.680218e-002
3.795382e+003;3.691728e-002
3.797311e+003;3.654800e-002
3.799240e+003;3.580158e-002
3.801168e+003;3.531639e-002
3.803097e+003;3.623558e-002
3.805025e+003;3.703457e-002
3.806954e+003;3.623065e-002
3.808882e+003;3.545284e-002
3.810811e+003;3.600974e-002
3.812739e+003;3.675425e-002
3.814668e+003;3.620681e-002
3.816596e+003;3.586588e-002
3.818525e+003;3.603419e-002
3.820454e+003;3.578089e-002
3.822382e+003;3.627214e-002
3.824311e+003;3.645419e-002
3.826239e+003;3.633277e-002
3.828168e+003;3.686649e-002
3.830096e+003;3.667752e-002
3.832025e+003;3.620133e-002
3.833953e+003;3.580158e-002
3.835882e+003;3.511520e-002
3.837811e+003;3.506171e-002
3.839739e+003;3.636761e-002
3.841667e+003;3.689199e-002
3.843596e+003;3.703774e-002
3.845525e+003;3.717243e-002
3.847453e+003;3.657013e-002
3.849382e+003;3.581852e-002
3.851310e+003;3.489576e-002
3.853239e+003;3.423297e-002
3.855167e+003;3.600283e-002
3.857096e+003;3.710429e-002
3.859024e+003;3.655424e-002
3.860953e+003;3.618639e-002
3.862882e+003;3.612024e-002
3.864810e+003;3.608308e-002
3.866739e+003;3.676460e-002
3.868667e+003;3.695115e-002
3.870596e+003;3.725849e-002
3.872524e+003;3.765124e-002
3.874453e+003;3.764864e-002
3.876381e+003;3.799371e-002
3.878310e+003;3.785165e-002
3.880239e+003;3.767173e-002
3.882167e+003;3.760188e-002
3.884096e+003;3.709328e-002
3.886024e+003;3.766696e-002
3.887953e+003;3.853400e-002
3.889881e+003;3.829376e-002
3.891810e+003;3.771600e-002
3.893738e+003;3.782487e-002
3.895667e+003;3.888287e-002
3.897595e+003;3.920583e-002
3.899524e+003;3.834540e-002
3.901453e+003;3.761091e-002
3.903381e+003;3.745966e-002
3.905310e+003;3.810056e-002
3.907238e+003;3.842474e-002
3.909167e+003;3.870505e-002
3.911095e+003;3.933585e-002
3.913024e+003;3.922331e-002
3.914952e+003;3.836737e-002
3.916881e+003;3.790512e-002
3.918810e+003;3.837674e-002
3.920738e+003;3.922189e-002
3.922667e+003;3.929788e-002
3.924595e+003;3.897873e-002
3.926524e+003;3.954888e-002
3.928452e+003;4.022016e-002
3.930381e+003;4.068346e-002
3.932309e+003;4.005710e-002
3.934238e+003;3.912507e-002
3.936167e+003;3.980373e-002
3.938095e+003;4.030734e-002
3.940023e+003;3.977326e-002
3.941952e+003;3.911829e-002
3.943881e+003;3.939328e-002
3.945809e+003;3.984077e-002
3.947738e+003;3.989231e-002
3.949666e+003;4.021112e-002
3.951595e+003;4.027593e-002
3.953523e+003;3.998312e-002
3.955452e+003;3.988359e-002
3.957380e+003;3.985570e-002
3.959309e+003;4.012029e-002
3.961238e+003;4.034733e-002
3.963166e+003;4.013195e-002
3.965095e+003;4.033868e-002
3.967023e+003;4.030879e-002
3.968952e+003;3.994778e-002
3.970880e+003;4.006571e-002
3.972809e+003;4.020730e-002
3.974737e+003;4.038988e-002
3.976666e+003;4.082012e-002
3.978594e+003;4.088961e-002
3.980523e+003;4.025273e-002
3.982452e+003;3.998272e-002
3.984380e+003;4.003958e-002
3.986309e+003;3.977729e-002
3.988237e+003;3.968257e-002
3.990166e+003;4.004180e-002
3.992094e+003;4.039348e-002
3.994023e+003;4.031835e-002
3.995951e+003;4.009252e-002
3.997880e+003;3.999849e-002
3.999809e+003;4.022551e-002
4.001737e+003;0.000000e+000
