3.992094e+002;0.000000e+000
4.011380e+002;0.000000e+000
4.030665e+002;0.000000e+000
4.049951e+002;0.000000e+000
4.069236e+002;0.000000e+000
4.088522e+002;0.000000e+000
4.107807e+002;0.000000e+000
4.127093e+002;0.000000e+000
4.146378e+002;0.000000e+000
4.165664e+002;0.000000e+000
4.184949e+002;0.000000e+000
4.204235e+002;0.000000e+000
4.223520e+002;0.000000e+000
4.242806e+002;0.000000e+000
4.262091e+002;0.000000e+000
4.281377e+002;0.000000e+000
4.300662e+002;0.000000e+000
4.319948e+002;0.000000e+000
4.339233e+002;0.000000e+000
4.358519e+002;0.000000e+000
4.377804e+002;0.000000e+000
4.397090e+002;0.000000e+000
4.416375e+002;0.000000e+000
4.435660e+002;0.000000e+000
4.454946e+002;0.000000e+000
4.474232e+002;0.000000e+000
4.493517e+002;0.000000e+000
4.512802e+002;0.000000e+000
4.532088e+002;0.000000e+000
4.551373e+002;0.000000e+000
4.570659e+002;0.000000e+000
4.589944e+002;0.000000e+000
4.609230e+002;0.000000e+000
4.628515e+002;0.000000e+000
4.647801e+002;0.000000e+000
4.667086e+002;0.000000e+000
4.686372e+002;0.000000e+000
4.705657e+002;0.000000e+000
4.724943e+002;0.000000e+000
4.744228e+002;0.000000e+000
4.763513e+002;0.000000e+000
4.782799e+002;0.000000e+000
4.802085e+002;0.000000e+000
4.821370e+002;0.000000e+000
4.840656e+002;0.000000e+000
4.859941e+002;0.000000e+000
4.879226e+002;0.000000e+000
4.898512e+002;0.000000e+000
4.917798e+002;0.000000e+000
4.937083e+002;0.000000e+000
4.956368e+002;0.000000e+000
4.975654e+002;0.000000e+000
4.994939e+002;0.000000e+000
5.014225e+002;0.000000e+000
5.033510e+002;0.000000e+000
5.052796e+002;0.000000e+000
5.072081e+002;0.000000e+000
5.091367e+002;0.000000e+000
5.110652e+002;0.000000e+000
5.129938e+002;0.000000e+000
5.149223e+002;0.000000e+000
5.168509e+002;0.000000e+000
5.187794e+002;0.000000e+000
5.207079e+002;0.000000e+000
5.226365e+002;0.000000e+000
5.245651e+002;0.000000e+000
5.264936e+002;0.000000e+000
5.284222e+002;0.000000e+000
5.303507e+002;0.000000e+000
5.322792e+002;0.000000e+000
5.342078e+002;0.000000e+000
5.361364e+002;0.000000e+000
5.380649e+002;0.000000e+000
5.399935e+002;0.000000e+000
5.419220e+002;0.000000e+000
5.438505e+002;0.000000e+000
5.457791e+002;0.000000e+000
5.477076e+002;0.000000e+000
5.496362e+002;0.000000e+000
5.515648e+002;0.000000e+000
5.534933e+002;0.000000e+000
5.554218e+002;0.000000e+000
5.573504e+002;0.000000e+000
5.592789e+002;0.000000e+000
5.612075e+002;0.000000e+000
5.631360e+002;0.000000e+000
5.650646e+002;0.000000e+000
5.669931e+002;0.000000e+000
5.689217e+002;0.000000e+000
5.708502e+002;0.000000e+000
5.727787e+002;0.000000e+000
5.747073e+002;0.000000e+000
5.766359e+002;0.000000e+000
5.785644e+002;0.000000e+000
5.804930e+002;0.000000e+000
5.824215e+002;0.000000e+000
5.843500e+002;0.000000e+000
5.862786e+002;0.000000e+000
5.882072e+002;0.000000e+000
5.901357e+002;0.000000e+000
5.920643e+002;0.000000e+000
5.939928e+002;0.000000e+000
5.959213e+002;0.000000e+000
5.978499e+002;0.000000e+000
5.997784e+002;2.068880e-001
6.017070e+002;2.151243e-001
6.036355e+002;2.175331e-001
6.055641e+002;2.169052e-001
6.074926e+002;2.161253e-001
6.094211e+002;2.095187e-001
6.113497e+002;2.035920e-001
6.132783e+002;2.052744e-001
6.152068e+002;2.059439e-001
6.171354e+002;2.058956e-001
6.190639e+002;2.076093e-001
6.209924e+002;2.064113e-001
6.229210e+002;2.079264e-001
6.248495e+002;2.115445e-001
6.267781e+002;2.088445e-001
6.287067e+002;2.043717e-001
6.306352e+002;2.054714e-001
6.325637e+002;2.060212e-001
6.344923e+002;2.076216e-001
6.364208e+002;2.053424e-001
6.383494e+002;2.039461e-001
6.402780e+002;2.046230e-001
6.422065e+002;2.066350e-001
6.441350e+002;2.047108e-001
6.460636e+002;2.026175e-001
6.479921e+002;2.064555e-001
6.499207e+002;2.103364e-001
6.518492e+002;2.096633e-001
6.537778e+002;2.067553e-001
6.557063e+002;2.043896e-001
6.576349e+002;2.035125e-001
6.595634e+002;2.076250e-001
6.614919e+002;2.127935e-001
6.634205e+002;2.126765e-001
6.653491e+002;2.127395e-001
6.672776e+002;2.113033e-001
6.692062e+002;2.090169e-001
6.711347e+002;2.096480e-001
6.730632e+002;2.086215e-001
6.749918e+002;2.037626e-001
6.769203e+002;2.010602e-001
6.788489e+002;1.992172e-001
6.807775e+002;1.967236e-001
6.827060e+002;1.939519e-001
6.846345e+002;1.909381e-001
6.865631e+002;1.883423e-001
6.884916e+002;1.868367e-001
6.904202e+002;1.858837e-001
6.923488e+002;1.858549e-001
6.942773e+002;1.866376e-001
6.962058e+002;1.861260e-001
6.981344e+002;1.854604e-001
7.000629e+002;1.863954e-001
7.019915e+002;1.858766e-001
7.039200e+002;1.836792e-001
7.058486e+002;1.829255e-001
7.077771e+002;1.828655e-001
7.097057e+002;1.825849e-001
7.116342e+002;1.814261e-001
7.135627e+002;1.789877e-001
7.154913e+002;1.771564e-001
7.174199e+002;1.754219e-001
7.193484e+002;1.737617e-001
7.212770e+002;1.725664e-001
7.232055e+002;1.711493e-001
7.251340e+002;1.686397e-001
7.270626e+002;1.671829e-001
7.289911e+002;1.658144e-001
7.309197e+002;1.638258e-001
7.328483e+002;1.625553e-001
7.347768e+002;1.612839e-001
7.367053e+002;1.594671e-001
7.386339e+002;1.573531e-001
7.405624e+002;1.551156e-001
7.424910e+002;1.535374e-001
7.444196e+002;1.527628e-001
7.463481e+002;1.518379e-001
7.482766e+002;1.513286e-001
7.502052e+002;1.504830e-001
7.521337e+002;1.493152e-001
7.540623e+002;1.480075e-001
7.559908e+002;1.464316e-001
7.579194e+002;1.452025e-001
7.598479e+002;1.441925e-001
7.617765e+002;1.438619e-001
7.637050e+002;1.441554e-001
7.656335e+002;1.429699e-001
7.675621e+002;1.412514e-001
7.694907e+002;1.397195e-001
7.714192e+002;1.382982e-001
7.733478e+002;1.381836e-001
7.752763e+002;1.387801e-001
7.772048e+002;1.390226e-001
7.791334e+002;1.386221e-001
7.810620e+002;1.377607e-001
7.829905e+002;1.375424e-001
7.849191e+002;1.374295e-001
7.868476e+002;1.365420e-001
7.887761e+002;1.359816e-001
7.907047e+002;1.352790e-001
7.926332e+002;1.342357e-001
7.945618e+002;1.336060e-001
7.964903e+002;1.340038e-001
7.984189e+002;1.344339e-001
8.003474e+002;1.348045e-001
8.022759e+002;1.352919e-001
8.042045e+002;1.351527e-001
8.061331e+002;1.343945e-001
8.080616e+002;1.340672e-001
8.099902e+002;1.337100e-001
8.119187e+002;1.331648e-001
8.138472e+002;1.326848e-001
8.157758e+002;1.322804e-001
8.177043e+002;1.317094e-001
8.196329e+002;1.315071e-001
8.215615e+002;1.313761e-001
8.234900e+002;1.309519e-001
8.254185e+002;1.303290e-001
8.273471e+002;1.298511e-001
8.292756e+002;1.297814e-001
8.312042e+002;1.301438e-001
8.331328e+002;1.302962e-001
8.350613e+002;1.300810e-001
8.369898e+002;1.294318e-001
8.389184e+002;1.286441e-001
8.408469e+002;1.279640e-001
8.427755e+002;1.275758e-001
8.447040e+002;1.275391e-001
8.466326e+002;1.272056e-001
8.485611e+002;1.260406e-001
8.504897e+002;1.251198e-001
8.524182e+002;1.247425e-001
8.543467e+002;1.247198e-001
8.562753e+002;1.243386e-001
8.582039e+002;1.242173e-001
8.601324e+002;1.246213e-001
8.620610e+002;1.244607e-001
8.639895e+002;1.246379e-001
8.659180e+002;1.251921e-001
8.678466e+002;1.255845e-001
8.697751e+002;1.261357e-001
8.717037e+002;1.266893e-001
8.736323e+002;1.280934e-001
8.755608e+002;1.297042e-001
8.774893e+002;1.311882e-001
8.794179e+002;1.328662e-001
8.813464e+002;1.349852e-001
8.832750e+002;1.371920e-001
8.852036e+002;1.401250e-001
8.871321e+002;1.433328e-001
8.890606e+002;1.463118e-001
8.909892e+002;1.491685e-001
8.929177e+002;1.520559e-001
8.948463e+002;1.542760e-001
8.967748e+002;1.558011e-001
8.987034e+002;1.569533e-001
9.006319e+002;1.576242e-001
9.025605e+002;1.576552e-001
9.044890e+002;1.573353e-001
9.064175e+002;1.562948e-001
9.083461e+002;1.544327e-001
9.102747e+002;1.525218e-001
9.122032e+002;1.507424e-001
9.141318e+002;1.489560e-001
9.160603e+002;1.475464e-001
9.179888e+002;1.466579e-001
9.199174e+002;1.458953e-001
9.218459e+002;1.450648e-001
9.237745e+002;1.448284e-001
9.257031e+002;1.452343e-001
9.276316e+002;1.458512e-001
9.295601e+002;1.462536e-001
9.314887e+002;1.464173e-001
9.334172e+002;1.465486e-001
9.353458e+002;1.470859e-001
9.372744e+002;1.475737e-001
9.392029e+002;1.476385e-001
9.411314e+002;1.480117e-001
9.430600e+002;1.487521e-001
9.449885e+002;1.495228e-001
9.469171e+002;1.503887e-001
9.488456e+002;1.516392e-001
9.507742e+002;1.530555e-001
9.527027e+002;1.548255e-001
9.546313e+002;1.566707e-001
9.565598e+002;1.582413e-001
9.584883e+002;1.604193e-001
9.604169e+002;1.626373e-001
9.623455e+002;1.641977e-001
9.642740e+002;1.661918e-001
9.662026e+002;1.687812e-001
9.681311e+002;1.715877e-001
9.700596e+002;1.748639e-001
9.719882e+002;1.784622e-001
9.739167e+002;1.823625e-001
9.758453e+002;1.875475e-001
9.777739e+002;1.940963e-001
9.797024e+002;2.015698e-001
9.816309e+002;2.100719e-001
9.835595e+002;2.193675e-001
9.854880e+002;2.284389e-001
9.874166e+002;2.363323e-001
9.893452e+002;2.434268e-001
9.912737e+002;2.508722e-001
9.932022e+002;2.579492e-001
9.951307e+002;2.638677e-001
9.970593e+002;2.690829e-001
9.989879e+002;2.733695e-001
1.000916e+003;2.770788e-001
1.002845e+003;2.805731e-001
1.004773e+003;2.836494e-001
1.006702e+003;2.866884e-001
1.008631e+003;2.907088e-001
1.010559e+003;2.953341e-001
1.012488e+003;3.003505e-001
1.014416e+003;3.060328e-001
1.016345e+003;3.117112e-001
1.018273e+003;3.171115e-001
1.020202e+003;3.218958e-001
1.022130e+003;3.260105e-001
1.024059e+003;3.298076e-001
1.025988e+003;3.328294e-001
1.027916e+003;3.355612e-001
1.029845e+003;3.375851e-001
1.031773e+003;3.391511e-001
1.033702e+003;3.409400e-001
1.035630e+003;3.414805e-001
1.037559e+003;3.408123e-001
1.039487e+003;3.401447e-001
1.041416e+003;3.394614e-001
1.043344e+003;3.390176e-001
1.045273e+003;3.391738e-001
1.047202e+003;3.397832e-001
1.049130e+003;3.405191e-001
1.051059e+003;3.412057e-001
1.052987e+003;3.422552e-001
1.054916e+003;3.429862e-001
1.056844e+003;3.433203e-001
1.058773e+003;3.431777e-001
1.060701e+003;3.412963e-001
1.062630e+003;3.384969e-001
1.064558e+003;3.348961e-001
1.066487e+003;3.301606e-001
1.068416e+003;3.255532e-001
1.070344e+003;3.209291e-001
1.072273e+003;3.169867e-001
1.074201e+003;3.134720e-001
1.076130e+003;3.095228e-001
1.078058e+003;3.057359e-001
1.079987e+003;3.027970e-001
1.081915e+003;2.997241e-001
1.083844e+003;2.962625e-001
1.085773e+003;2.935795e-001
1.087701e+003;2.908936e-001
1.089630e+003;2.883340e-001
1.091558e+003;2.859415e-001
1.093487e+003;2.834078e-001
1.095415e+003;2.816014e-001
1.097344e+003;2.800696e-001
1.099272e+003;2.781077e-001
1.101201e+003;2.760170e-001
1.103129e+003;2.734946e-001
1.105058e+003;2.704360e-001
1.106987e+003;2.676372e-001
1.108915e+003;2.648935e-001
1.110844e+003;2.613828e-001
1.112772e+003;2.579170e-001
1.114701e+003;2.546110e-001
1.116629e+003;2.506620e-001
1.118558e+003;2.460721e-001
1.120486e+003;2.416255e-001
1.122415e+003;2.377028e-001
1.124344e+003;2.335782e-001
1.126272e+003;2.294317e-001
1.128201e+003;2.255808e-001
1.130129e+003;2.212993e-001
1.132058e+003;2.175649e-001
1.133986e+003;2.137824e-001
1.135915e+003;2.099609e-001
1.137843e+003;2.070069e-001
1.139772e+003;2.046698e-001
1.141700e+003;2.025744e-001
1.143629e+003;2.008304e-001
1.145557e+003;1.995059e-001
1.147486e+003;1.987805e-001
1.149415e+003;1.982497e-001
1.151343e+003;1.977077e-001
1.153272e+003;1.975573e-001
1.155200e+003;1.979991e-001
1.157129e+003;1.984387e-001
1.159057e+003;1.985395e-001
1.160986e+003;1.979859e-001
1.162914e+003;1.966665e-001
1.164843e+003;1.945332e-001
1.166771e+003;1.908579e-001
1.168700e+003;1.860188e-001
1.170629e+003;1.810758e-001
1.172557e+003;1.764202e-001
1.174486e+003;1.718454e-001
1.176414e+003;1.673899e-001
1.178343e+003;1.631369e-001
1.180271e+003;1.594253e-001
1.182200e+003;1.562088e-001
1.184128e+003;1.538222e-001
1.186057e+003;1.521787e-001
1.187986e+003;1.513057e-001
1.189914e+003;1.511825e-001
1.191843e+003;1.519546e-001
1.193771e+003;1.530468e-001
1.195700e+003;1.541368e-001
1.197628e+003;1.550563e-001
1.199557e+003;1.558941e-001
1.201485e+003;1.563060e-001
1.203414e+003;1.560065e-001
1.205343e+003;1.549357e-001
1.207271e+003;1.533426e-001
1.209200e+003;1.518243e-001
1.211128e+003;1.498772e-001
1.213057e+003;1.477294e-001
1.214985e+003;1.464211e-001
1.216914e+003;1.462959e-001
1.218842e+003;1.468471e-001
1.220771e+003;1.476732e-001
1.222699e+003;1.485012e-001
1.224628e+003;1.494371e-001
1.226557e+003;1.507041e-001
1.228485e+003;1.520118e-001
1.230414e+003;1.530512e-001
1.232342e+003;1.538927e-001
1.234271e+003;1.545734e-001
1.236199e+003;1.548978e-001
1.238128e+003;1.551408e-001
1.240056e+003;1.551516e-001
1.241985e+003;1.551771e-001
1.243913e+003;1.552818e-001
1.245842e+003;1.553213e-001
1.247771e+003;1.558283e-001
1.249699e+003;1.562290e-001
1.251628e+003;1.565924e-001
1.253556e+003;1.572299e-001
1.255485e+003;1.576726e-001
1.257413e+003;1.578500e-001
1.259342e+003;1.578797e-001
1.261270e+003;1.574126e-001
1.263199e+003;1.568585e-001
1.265127e+003;1.564042e-001
1.267056e+003;1.557412e-001
1.268985e+003;1.548090e-001
1.270913e+003;1.535733e-001
1.272842e+003;1.527101e-001
1.274770e+003;1.521965e-001
1.276699e+003;1.516830e-001
1.278627e+003;1.509064e-001
1.280556e+003;1.501075e-001
1.282484e+003;1.492445e-001
1.284413e+003;1.482100e-001
1.286342e+003;1.475725e-001
1.288270e+003;1.473454e-001
1.290199e+003;1.471638e-001
1.292127e+003;1.474055e-001
1.294056e+003;1.482768e-001
1.295984e+003;1.489030e-001
1.297913e+003;1.494864e-001
1.299841e+003;1.505523e-001
1.301770e+003;1.519494e-001
1.303698e+003;1.534176e-001
1.305627e+003;1.550380e-001
1.307556e+003;1.568308e-001
1.309484e+003;1.586819e-001
1.311413e+003;1.603906e-001
1.313341e+003;1.617324e-001
1.315270e+003;1.627391e-001
1.317198e+003;1.632956e-001
1.319127e+003;1.631908e-001
1.321055e+003;1.628549e-001
1.322984e+003;1.625542e-001
1.324912e+003;1.621647e-001
1.326841e+003;1.617734e-001
1.328770e+003;1.615479e-001
1.330698e+003;1.615549e-001
1.332627e+003;1.620812e-001
1.334555e+003;1.625128e-001
1.336484e+003;1.622897e-001
1.338412e+003;1.618687e-001
1.340341e+003;1.617866e-001
1.342269e+003;1.618616e-001
1.344198e+003;1.614693e-001
1.346126e+003;1.609682e-001
1.348055e+003;1.605642e-001
1.349984e+003;1.600927e-001
1.351912e+003;1.599693e-001
1.353841e+003;1.606207e-001
1.355769e+003;1.615484e-001
1.357698e+003;1.620755e-001
1.359626e+003;1.621731e-001
1.361555e+003;1.620797e-001
1.363483e+003;1.619965e-001
1.365412e+003;1.620459e-001
1.367341e+003;1.616545e-001
1.369269e+003;1.610326e-001
1.371198e+003;1.600372e-001
1.373126e+003;1.586155e-001
1.375055e+003;1.576820e-001
1.376983e+003;1.570651e-001
1.378912e+003;1.555492e-001
1.380840e+003;1.537589e-001
1.382769e+003;1.521042e-001
1.384698e+003;1.501867e-001
1.386626e+003;1.478144e-001
1.388555e+003;1.466933e-001
1.390483e+003;1.464069e-001
1.392412e+003;1.451412e-001
1.394340e+003;1.433846e-001
1.396269e+003;1.430579e-001
1.398197e+003;1.430944e-001
1.400126e+003;1.437369e-001
1.402054e+003;1.445226e-001
1.403983e+003;1.443679e-001
1.405911e+003;1.446732e-001
1.407840e+003;1.455324e-001
1.409769e+003;1.456616e-001
1.411697e+003;1.454414e-001
1.413626e+003;1.455761e-001
1.415554e+003;1.454754e-001
1.417483e+003;1.436329e-001
1.419411e+003;1.425599e-001
1.421340e+003;1.448337e-001
1.423268e+003;1.460107e-001
1.425197e+003;1.461996e-001
1.427125e+003;1.464996e-001
1.429054e+003;1.461196e-001
1.430983e+003;1.459145e-001
1.432911e+003;1.457023e-001
1.434840e+003;1.435328e-001
1.436768e+003;1.413051e-001
1.438697e+003;1.424114e-001
1.440625e+003;1.428187e-001
1.442554e+003;1.421291e-001
1.444482e+003;1.411382e-001
1.446411e+003;1.399189e-001
1.448340e+003;1.390379e-001
1.450268e+003;1.390161e-001
1.452197e+003;1.384043e-001
1.454125e+003;1.358200e-001
1.456054e+003;1.306946e-001
1.457982e+003;1.304271e-001
1.459911e+003;1.337038e-001
1.461839e+003;1.337173e-001
1.463768e+003;1.311131e-001
1.465697e+003;1.296861e-001
1.467625e+003;1.288167e-001
1.469554e+003;1.255499e-001
1.471482e+003;1.200155e-001
1.473411e+003;1.165302e-001
1.475339e+003;1.153399e-001
1.477268e+003;1.139418e-001
1.479196e+003;1.122528e-001
1.481125e+003;1.095356e-001
1.483053e+003;1.069301e-001
1.484982e+003;1.039269e-001
1.486911e+003;1.005351e-001
1.488839e+003;9.764468e-002
1.490768e+003;9.652848e-002
1.492696e+003;9.615207e-002
1.494625e+003;9.332545e-002
1.496553e+003;9.062389e-002
1.498482e+003;9.080494e-002
1.500410e+003;9.126519e-002
1.502339e+003;9.034166e-002
1.504267e+003;8.560378e-002
1.506196e+003;8.081438e-002
1.508125e+003;8.299381e-002
1.510053e+003;8.620991e-002
1.511982e+003;8.649796e-002
1.513910e+003;8.617108e-002
1.515839e+003;8.469755e-002
1.517767e+003;8.371794e-002
1.519696e+003;8.147988e-002
1.521624e+003;7.989290e-002
1.523553e+003;8.198041e-002
1.525481e+003;8.271156e-002
1.527410e+003;8.355087e-002
1.529339e+003;8.464363e-002
1.531267e+003;8.427098e-002
1.533196e+003;8.284321e-002
1.535124e+003;8.356424e-002
1.537053e+003;8.155471e-002
1.538981e+003;7.627891e-002
1.540910e+003;7.694833e-002
1.542838e+003;8.098411e-002
1.544767e+003;8.330269e-002
1.546695e+003;8.504985e-002
1.548624e+003;8.541542e-002
1.550553e+003;8.507621e-002
1.552481e+003;8.431721e-002
1.554410e+003;8.313996e-002
1.556338e+003;8.061814e-002
1.558267e+003;7.567985e-002
1.560195e+003;7.830726e-002
1.562124e+003;8.469602e-002
1.564052e+003;8.638876e-002
1.565981e+003;8.660457e-002
1.567910e+003;8.584742e-002
1.569838e+003;8.540836e-002
1.571767e+003;8.718143e-002
1.573695e+003;8.635945e-002
1.575624e+003;8.348630e-002
1.577552e+003;8.572982e-002
1.579481e+003;8.883934e-002
1.581409e+003;8.940351e-002
1.583338e+003;8.964355e-002
1.585266e+003;8.999597e-002
1.587195e+003;9.051969e-002
1.589124e+003;9.074528e-002
1.591052e+003;9.087580e-002
1.592981e+003;9.079599e-002
1.594909e+003;9.102912e-002
1.596838e+003;9.166517e-002
1.598766e+003;9.215363e-002
1.600695e+003;9.236293e-002
1.602623e+003;9.260236e-002
1.604552e+003;9.290840e-002
1.606480e+003;9.350406e-002
1.608409e+003;9.396879e-002
1.610338e+003;9.423680e-002
1.612266e+003;9.453204e-002
1.614195e+003;9.302738e-002
1.616123e+003;9.021464e-002
1.618052e+003;9.231023e-002
1.619980e+003;9.507735e-002
1.621909e+003;9.441870e-002
1.623837e+003;9.413699e-002
1.625766e+003;9.522507e-002
1.627694e+003;9.585453e-002
1.629623e+003;9.642706e-002
1.631552e+003;9.629594e-002
1.633480e+003;9.379715e-002
1.635409e+003;9.119248e-002
1.637337e+003;9.333190e-002
1.639266e+003;9.573625e-002
1.641194e+003;9.648577e-002
1.643123e+003;9.567104e-002
1.645051e+003;9.244332e-002
1.646980e+003;9.151559e-002
1.648909e+003;9.320376e-002
1.650837e+003;8.925341e-002
1.652766e+003;8.322310e-002
1.654694e+003;8.782038e-002
1.656623e+003;9.333581e-002
1.658551e+003;9.376150e-002
1.660480e+003;9.215101e-002
1.662408e+003;9.043003e-002
1.664337e+003;9.081013e-002
1.666266e+003;9.046210e-002
1.668194e+003;8.769374e-002
1.670123e+003;8.653650e-002
1.672051e+003;8.708315e-002
1.673980e+003;8.586959e-002
1.675908e+003;8.550768e-002
1.677837e+003;8.674045e-002
1.679765e+003;8.580673e-002
1.681694e+003;8.275136e-002
1.683622e+003;7.771289e-002
1.685551e+003;7.887077e-002
1.687479e+003;8.294150e-002
1.689408e+003;8.339752e-002
1.691337e+003;8.331943e-002
1.693265e+003;8.127431e-002
1.695194e+003;7.691210e-002
1.697122e+003;7.695019e-002
1.699051e+003;7.579827e-002
1.700979e+003;7.620522e-002
1.702908e+003;8.044907e-002
1.704836e+003;8.108661e-002
1.706765e+003;8.184561e-002
1.708693e+003;8.257220e-002
1.710622e+003;8.263399e-002
1.712551e+003;8.192183e-002
1.714479e+003;8.014902e-002
1.716408e+003;7.771534e-002
1.718336e+003;7.876935e-002
1.720265e+003;8.276475e-002
1.722193e+003;8.472453e-002
1.724122e+003;8.528834e-002
1.726050e+003;8.604959e-002
1.727979e+003;8.611855e-002
1.729908e+003;8.584666e-002
1.731836e+003;8.387700e-002
1.733765e+003;8.164863e-002
1.735693e+003;8.508551e-002
1.737622e+003;8.723494e-002
1.739550e+003;8.575949e-002
1.741479e+003;8.539239e-002
1.743407e+003;8.456601e-002
1.745336e+003;8.296790e-002
1.747265e+003;8.045992e-002
1.749193e+003;7.770084e-002
1.751122e+003;7.588973e-002
1.753050e+003;7.610295e-002
1.754979e+003;7.506894e-002
1.756907e+003;7.344434e-002
1.758836e+003;7.288010e-002
1.760764e+003;7.147872e-002
1.762693e+003;7.114933e-002
1.764621e+003;7.183906e-002
1.766550e+003;7.045164e-002
1.768479e+003;6.913669e-002
1.770407e+003;6.797409e-002
1.772336e+003;6.691884e-002
1.774264e+003;6.871167e-002
1.776193e+003;7.016648e-002
1.778121e+003;7.012500e-002
1.780050e+003;6.980464e-002
1.781978e+003;6.996573e-002
1.783907e+003;6.969889e-002
1.785835e+003;6.973168e-002
1.787764e+003;7.007477e-002
1.789693e+003;6.901685e-002
1.791621e+003;6.730884e-002
1.793550e+003;6.769826e-002
1.795478e+003;6.918848e-002
1.797407e+003;6.932823e-002
1.799335e+003;6.881823e-002
1.801264e+003;6.857211e-002
1.803192e+003;6.903681e-002
1.805121e+003;6.938129e-002
1.807049e+003;6.950201e-002
1.808978e+003;6.906832e-002
1.810907e+003;6.882747e-002
1.812835e+003;6.924996e-002
1.814764e+003;6.955335e-002
1.816692e+003;6.937096e-002
1.818621e+003;6.948751e-002
1.820549e+003;6.950983e-002
1.822478e+003;6.919637e-002
1.824406e+003;6.859699e-002
1.826335e+003;6.872176e-002
1.828264e+003;6.816625e-002
1.830192e+003;6.781142e-002
1.832121e+003;6.874140e-002
1.834049e+003;6.930134e-002
1.835978e+003;6.925004e-002
1.837906e+003;6.911582e-002
1.839835e+003;6.910052e-002
1.841763e+003;6.789660e-002
1.843692e+003;6.638195e-002
1.845620e+003;6.746904e-002
1.847549e+003;6.847198e-002
1.849478e+003;6.864076e-002
1.851406e+003;6.888376e-002
1.853335e+003;6.899455e-002
1.855263e+003;6.913102e-002
1.857192e+003;6.924203e-002
1.859120e+003;6.933942e-002
1.861049e+003;6.928179e-002
1.862977e+003;6.911509e-002
1.864906e+003;6.899732e-002
1.866834e+003;6.832312e-002
1.868763e+003;6.765214e-002
1.870692e+003;6.831401e-002
1.872620e+003;6.893606e-002
1.874549e+003;6.901712e-002
1.876477e+003;6.893937e-002
1.878406e+003;6.886916e-002
1.880334e+003;6.885495e-002
1.882263e+003;6.868093e-002
1.884191e+003;6.875044e-002
1.886120e+003;6.898912e-002
1.888048e+003;6.853762e-002
1.889977e+003;6.845956e-002
1.891906e+003;6.916222e-002
1.893834e+003;6.925909e-002
1.895763e+003;6.908366e-002
1.897691e+003;6.898943e-002
1.899620e+003;6.901331e-002
1.901548e+003;6.896150e-002
1.903477e+003;6.888761e-002
1.905405e+003;6.893471e-002
1.907334e+003;6.878468e-002
1.909262e+003;6.838556e-002
1.911191e+003;6.857137e-002
1.913120e+003;6.912737e-002
1.915048e+003;6.909963e-002
1.916977e+003;6.833708e-002
1.918905e+003;6.836275e-002
1.920834e+003;6.886376e-002
1.922762e+003;6.909512e-002
1.924691e+003;6.943113e-002
1.926619e+003;6.938405e-002
1.928548e+003;6.937142e-002
1.930477e+003;6.955389e-002
1.932405e+003;6.957399e-002
1.934334e+003;6.946780e-002
1.936262e+003;6.944933e-002
1.938191e+003;6.956108e-002
1.940119e+003;6.947526e-002
1.942048e+003;6.909982e-002
1.943976e+003;6.926372e-002
1.945905e+003;6.940699e-002
1.947833e+003;6.942195e-002
1.949762e+003;6.952659e-002
1.951691e+003;6.933616e-002
1.953619e+003;6.936248e-002
1.955548e+003;6.956030e-002
1.957476e+003;6.944139e-002
1.959405e+003;6.923982e-002
1.961333e+003;6.942149e-002
1.963262e+003;6.960141e-002
1.965190e+003;6.943906e-002
1.967119e+003;6.938016e-002
1.969047e+003;6.947094e-002
1.970976e+003;6.960340e-002
1.972905e+003;6.970834e-002
1.974833e+003;6.972364e-002
1.976762e+003;6.968967e-002
1.978690e+003;6.972577e-002
1.980619e+003;6.983316e-002
1.982547e+003;6.990889e-002
1.984476e+003;6.993677e-002
1.986404e+003;6.974854e-002
1.988333e+003;6.955163e-002
1.990261e+003;6.930569e-002
1.992190e+003;6.917337e-002
1.994119e+003;6.949645e-002
1.996047e+003;6.951489e-002
1.997976e+003;6.940205e-002
1.999904e+003;6.952056e-002
2.001833e+003;6.964136e-002
2.003761e+003;6.965540e-002
2.005690e+003;6.957096e-002
2.007618e+003;6.955070e-002
2.009547e+003;6.957213e-002
2.011476e+003;6.959911e-002
2.013404e+003;6.954094e-002
2.015333e+003;6.948055e-002
2.017261e+003;6.946515e-002
2.019190e+003;6.970690e-002
2.021118e+003;6.990691e-002
2.023047e+003;6.981822e-002
2.024975e+003;6.970005e-002
2.026904e+003;6.974173e-002
2.028833e+003;6.988609e-002
2.030761e+003;7.011063e-002
2.032690e+003;6.993408e-002
2.034618e+003;6.971531e-002
2.036547e+003;6.974768e-002
2.038475e+003;6.977619e-002
2.040404e+003;6.970084e-002
2.042332e+003;6.986360e-002
2.044261e+003;6.997962e-002
2.046189e+003;6.993236e-002
2.048118e+003;6.991392e-002
2.050047e+003;6.984814e-002
2.051975e+003;6.989263e-002
2.053904e+003;7.004175e-002
2.055832e+003;6.979966e-002
2.057761e+003;6.968889e-002
2.059689e+003;6.976724e-002
2.061618e+003;6.966723e-002
2.063546e+003;6.970014e-002
2.065475e+003;6.987838e-002
2.067404e+003;6.999329e-002
2.069332e+003;6.990317e-002
2.071260e+003;6.990286e-002
2.073189e+003;6.979756e-002
2.075118e+003;6.979989e-002
2.077046e+003;6.993801e-002
2.078975e+003;6.981970e-002
2.080903e+003;6.979849e-002
2.082832e+003;6.970154e-002
2.084760e+003;6.961503e-002
2.086689e+003;6.975643e-002
2.088617e+003;6.980398e-002
2.090546e+003;6.971947e-002
2.092475e+003;6.976589e-002
2.094403e+003;6.965765e-002
2.096332e+003;6.934316e-002
2.098260e+003;6.917014e-002
2.100189e+003;6.939152e-002
2.102117e+003;6.956423e-002
2.104046e+003;6.937850e-002
2.105974e+003;6.941807e-002
2.107903e+003;6.971289e-002
2.109832e+003;6.955132e-002
2.111760e+003;6.927825e-002
2.113688e+003;6.931603e-002
2.115617e+003;6.937418e-002
2.117546e+003;6.928431e-002
2.119474e+003;6.910355e-002
2.121403e+003;6.931408e-002
2.123331e+003;6.959064e-002
2.125260e+003;6.950948e-002
2.127188e+003;6.930483e-002
2.129117e+003;6.930542e-002
2.131045e+003;6.950921e-002
2.132974e+003;6.944761e-002
2.134903e+003;6.946702e-002
2.136831e+003;6.981787e-002
2.138760e+003;6.976359e-002
2.140688e+003;6.944742e-002
2.142617e+003;6.924056e-002
2.144545e+003;6.912550e-002
2.146474e+003;6.910480e-002
2.148402e+003;6.920457e-002
2.150331e+003;6.920376e-002
2.152260e+003;6.919517e-002
2.154188e+003;6.928187e-002
2.156117e+003;6.913693e-002
2.158045e+003;6.899840e-002
2.159974e+003;6.911221e-002
2.161902e+003;6.912861e-002
2.163831e+003;6.898675e-002
2.165759e+003;6.881279e-002
2.167688e+003;6.861942e-002
2.169616e+003;6.853661e-002
2.171545e+003;6.863013e-002
2.173474e+003;6.875588e-002
2.175402e+003;6.867588e-002
2.177331e+003;6.866455e-002
2.179259e+003;6.838851e-002
2.181188e+003;6.807791e-002
2.183116e+003;6.814528e-002
2.185045e+003;6.814272e-002
2.186973e+003;6.795739e-002
2.188902e+003;6.804970e-002
2.190831e+003;6.826600e-002
2.192759e+003;6.828783e-002
2.194688e+003;6.802102e-002
2.196616e+003;6.770058e-002
2.198545e+003;6.757947e-002
2.200473e+003;6.769384e-002
2.202402e+003;6.786325e-002
2.204330e+003;6.761435e-002
2.206259e+003;6.750704e-002
2.208188e+003;6.776072e-002
2.210116e+003;6.798645e-002
2.212044e+003;6.788424e-002
2.213973e+003;6.764521e-002
2.215902e+003;6.745065e-002
2.217830e+003;6.747844e-002
2.219759e+003;6.749466e-002
2.221687e+003;6.712742e-002
2.223616e+003;6.703949e-002
2.225544e+003;6.723440e-002
2.227473e+003;6.743181e-002
2.229401e+003;6.757150e-002
2.231330e+003;6.757203e-002
2.233259e+003;6.751219e-002
2.235187e+003;6.728148e-002
2.237116e+003;6.702654e-002
2.239044e+003;6.709927e-002
2.240973e+003;6.714777e-002
2.242901e+003;6.724439e-002
2.244830e+003;6.744458e-002
2.246758e+003;6.746594e-002
2.248687e+003;6.732392e-002
2.250615e+003;6.745468e-002
2.252544e+003;6.752969e-002
2.254473e+003;6.719476e-002
2.256401e+003;6.693747e-002
2.258330e+003;6.709382e-002
2.260258e+003;6.706509e-002
2.262187e+003;6.689785e-002
2.264115e+003;6.671950e-002
2.266044e+003;6.672657e-002
2.267972e+003;6.684610e-002
2.269901e+003;6.701448e-002
2.271830e+003;6.719077e-002
2.273758e+003;6.724434e-002
2.275687e+003;6.710530e-002
2.277615e+003;6.678032e-002
2.279544e+003;6.671754e-002
2.281472e+003;6.700512e-002
2.283401e+003;6.728284e-002
2.285329e+003;6.726733e-002
2.287258e+003;6.709073e-002
2.289187e+003;6.700620e-002
2.291115e+003;6.712913e-002
2.293043e+003;6.741048e-002
2.294972e+003;6.739992e-002
2.296901e+003;6.720068e-002
2.298829e+003;6.681599e-002
2.300758e+003;6.665649e-002
2.302686e+003;6.676367e-002
2.304615e+003;6.683327e-002
2.306543e+003;6.692792e-002
2.308472e+003;6.692003e-002
2.310400e+003;6.666128e-002
2.312329e+003;6.655286e-002
2.314258e+003;6.665340e-002
2.316186e+003;6.668110e-002
2.318115e+003;6.652405e-002
2.320043e+003;6.641663e-002
2.321972e+003;6.649300e-002
2.323900e+003;6.624662e-002
2.325829e+003;6.609849e-002
2.327757e+003;6.613923e-002
2.329686e+003;6.613692e-002
2.331615e+003;6.622957e-002
2.333543e+003;6.615578e-002
2.335472e+003;6.604668e-002
2.337400e+003;6.605242e-002
2.339329e+003;6.597007e-002
2.341257e+003;6.597312e-002
2.343186e+003;6.624168e-002
2.345114e+003;6.677337e-002
2.347043e+003;6.739113e-002
2.348971e+003;6.773117e-002
2.350900e+003;6.739052e-002
2.352829e+003;6.701626e-002
2.354757e+003;6.706644e-002
2.356686e+003;6.678925e-002
2.358614e+003;6.646906e-002
2.360543e+003;6.658310e-002
2.362471e+003;6.649096e-002
2.364400e+003;6.652582e-002
2.366328e+003;6.673338e-002
2.368257e+003;6.706977e-002
2.370186e+003;6.768002e-002
2.372114e+003;6.789447e-002
2.374042e+003;6.793299e-002
2.375971e+003;6.850073e-002
2.377900e+003;6.889382e-002
2.379828e+003;6.892531e-002
2.381757e+003;6.899230e-002
2.383685e+003;6.906378e-002
2.385614e+003;6.925210e-002
2.387542e+003;6.936707e-002
2.389471e+003;6.934059e-002
2.391399e+003;6.916673e-002
2.393328e+003;6.929232e-002
2.395257e+003;6.948545e-002
2.397185e+003;6.963377e-002
2.399114e+003;6.956299e-002
2.401042e+003;6.958352e-002
2.402971e+003;6.985597e-002
2.404899e+003;6.980915e-002
2.406828e+003;6.996456e-002
2.408756e+003;7.026100e-002
2.410685e+003;7.021169e-002
2.412614e+003;7.035913e-002
2.414542e+003;7.051321e-002
2.416471e+003;7.035719e-002
2.418399e+003;7.042362e-002
2.420328e+003;7.062317e-002
2.422256e+003;7.061304e-002
2.424185e+003;7.066087e-002
2.426113e+003;7.076159e-002
2.428042e+003;7.086893e-002
2.429970e+003;7.094438e-002
2.431899e+003;7.093279e-002
2.433828e+003;7.081545e-002
2.435756e+003;7.087649e-002
2.437685e+003;7.117727e-002
2.439613e+003;7.151209e-002
2.441542e+003;7.153802e-002
2.443470e+003;7.158284e-002
2.445399e+003;7.181006e-002
2.447327e+003;7.214023e-002
2.449256e+003;7.235256e-002
2.451185e+003;7.236911e-002
2.453113e+003;7.243155e-002
2.455042e+003;7.235710e-002
2.456970e+003;7.231115e-002
2.458899e+003;7.242467e-002
2.460827e+003;7.253715e-002
2.462756e+003;7.260043e-002
2.464684e+003;7.279311e-002
2.466613e+003;7.306413e-002
2.468542e+003;7.307346e-002
2.470470e+003;7.304472e-002
2.472398e+003;7.293618e-002
2.474327e+003;7.288864e-002
2.476256e+003;7.305672e-002
2.478184e+003;7.337344e-002
2.480113e+003;7.355140e-002
2.482041e+003;7.357209e-002
2.483970e+003;7.351808e-002
2.485898e+003;7.381064e-002
2.487827e+003;7.415629e-002
2.489755e+003;7.406622e-002
2.491684e+003;7.381657e-002
2.493613e+003;7.386610e-002
2.495541e+003;7.413849e-002
2.497470e+003;7.413550e-002
2.499398e+003;7.402107e-002
2.501327e+003;7.413126e-002
2.503255e+003;7.440060e-002
2.505184e+003;7.456174e-002
2.507112e+003;7.459349e-002
2.509041e+003;7.462127e-002
2.510969e+003;7.461049e-002
2.512898e+003;7.460057e-002
2.514827e+003;7.474758e-002
2.516755e+003;7.486351e-002
2.518684e+003;7.479069e-002
2.520612e+003;7.491429e-002
2.522541e+003;7.498544e-002
2.524469e+003;7.503951e-002
2.526398e+003;7.542947e-002
2.528326e+003;7.559112e-002
2.530255e+003;7.538106e-002
2.532184e+003;7.530820e-002
2.534112e+003;7.531674e-002
2.536041e+003;7.533113e-002
2.537969e+003;7.526761e-002
2.539898e+003;7.514602e-002
2.541826e+003;7.524538e-002
2.543755e+003;7.567795e-002
2.545683e+003;7.604342e-002
2.547612e+003;7.620423e-002
2.549541e+003;7.635017e-002
2.551469e+003;7.632500e-002
2.553397e+003;7.609466e-002
2.555326e+003;7.598989e-002
2.557255e+003;7.614567e-002
2.559183e+003;7.621607e-002
2.561112e+003;7.636672e-002
2.563040e+003;7.638837e-002
2.564969e+003;7.659131e-002
2.566897e+003;7.684434e-002
2.568826e+003;7.683114e-002
2.570754e+003;7.666843e-002
2.572683e+003;7.662128e-002
2.574612e+003;7.678186e-002
2.576540e+003;7.710125e-002
2.578469e+003;7.723161e-002
2.580397e+003;7.721712e-002
2.582326e+003;7.731141e-002
2.584254e+003;7.751586e-002
2.586183e+003;7.756621e-002
2.588111e+003;7.771732e-002
2.590040e+003;7.753500e-002
2.591969e+003;7.755286e-002
2.593897e+003;7.780899e-002
2.595826e+003;7.820136e-002
2.597754e+003;7.836920e-002
2.599683e+003;7.834491e-002
2.601611e+003;7.843596e-002
2.603540e+003;7.861330e-002
2.605468e+003;7.878853e-002
2.607397e+003;7.905076e-002
2.609325e+003;7.907847e-002
2.611254e+003;7.905784e-002
2.613183e+003;7.911241e-002
2.615111e+003;7.900573e-002
2.617040e+003;7.880804e-002
2.618968e+003;7.876569e-002
2.620897e+003;7.916827e-002
2.622825e+003;7.962650e-002
2.624754e+003;7.999519e-002
2.626682e+003;8.011781e-002
2.628611e+003;8.017077e-002
2.630540e+003;8.026555e-002
2.632468e+003;8.052803e-002
2.634396e+003;8.077148e-002
2.636325e+003;8.063142e-002
2.638254e+003;8.066418e-002
2.640182e+003;8.099066e-002
2.642111e+003;8.135546e-002
2.644039e+003;8.144730e-002
2.645968e+003;8.134300e-002
2.647896e+003;8.147788e-002
2.649825e+003;8.191935e-002
2.651753e+003;8.194332e-002
2.653682e+003;8.194172e-002
2.655611e+003;8.220758e-002
2.657539e+003;8.239251e-002
2.659468e+003;8.261152e-002
2.661396e+003;8.253449e-002
2.663325e+003;8.262125e-002
2.665253e+003;8.297680e-002
2.667182e+003;8.300612e-002
2.669110e+003;8.292322e-002
2.671039e+003;8.314152e-002
2.672968e+003;8.363839e-002
2.674896e+003;8.398947e-002
2.676825e+003;8.383592e-002
2.678753e+003;8.374503e-002
2.680682e+003;8.394027e-002
2.682610e+003;8.429549e-002
2.684539e+003;8.447894e-002
2.686467e+003;8.450740e-002
2.688396e+003;8.468446e-002
2.690324e+003;8.489600e-002
2.692253e+003;8.514412e-002
2.694182e+003;8.529914e-002
2.696110e+003;8.543070e-002
2.698039e+003;8.567300e-002
2.699967e+003;8.579437e-002
2.701896e+003;8.596510e-002
2.703824e+003;8.588130e-002
2.705753e+003;8.606155e-002
2.707681e+003;8.639098e-002
2.709610e+003;8.636793e-002
2.711539e+003;8.633301e-002
2.713467e+003;8.653363e-002
2.715396e+003;8.685046e-002
2.717324e+003;8.711214e-002
2.719253e+003;8.717649e-002
2.721181e+003;8.729987e-002
2.723110e+003;8.745664e-002
2.725038e+003;8.772990e-002
2.726967e+003;8.790516e-002
2.728896e+003;8.814007e-002
2.730824e+003;8.834749e-002
2.732752e+003;8.862819e-002
2.734681e+003;8.884048e-002
2.736610e+003;8.881987e-002
2.738538e+003;8.869687e-002
2.740467e+003;8.868496e-002
2.742395e+003;8.900700e-002
2.744324e+003;8.943132e-002
2.746252e+003;8.977171e-002
2.748181e+003;8.975928e-002
2.750109e+003;8.933289e-002
2.752038e+003;8.926105e-002
2.753967e+003;8.943791e-002
2.755895e+003;9.001888e-002
2.757824e+003;9.015224e-002
2.759752e+003;9.004338e-002
2.761681e+003;9.025089e-002
2.763609e+003;9.039119e-002
2.765538e+003;9.061793e-002
2.767466e+003;9.089970e-002
2.769395e+003;9.122812e-002
2.771323e+003;9.138186e-002
2.773252e+003;9.133074e-002
2.775181e+003;9.126209e-002
2.777109e+003;9.140610e-002
2.779038e+003;9.175418e-002
2.780966e+003;9.223299e-002
2.782895e+003;9.243938e-002
2.784823e+003;9.234027e-002
2.786752e+003;9.266195e-002
2.788680e+003;9.324048e-002
2.790609e+003;9.372602e-002
2.792538e+003;9.414802e-002
2.794466e+003;9.450284e-002
2.796395e+003;9.495706e-002
2.798323e+003;9.531374e-002
2.800252e+003;9.542063e-002
2.802180e+003;9.582325e-002
2.804109e+003;9.612131e-002
2.806037e+003;9.629213e-002
2.807966e+003;9.692816e-002
2.809895e+003;9.753591e-002
2.811823e+003;9.801050e-002
2.813751e+003;9.858157e-002
2.815680e+003;9.899001e-002
2.817609e+003;9.908503e-002
2.819537e+003;9.930336e-002
2.821466e+003;1.000013e-001
2.823394e+003;1.011411e-001
2.825323e+003;1.016508e-001
2.827251e+003;1.020543e-001
2.829180e+003;1.030539e-001
2.831108e+003;1.034379e-001
2.833037e+003;1.040581e-001
2.834966e+003;1.051721e-001
2.836894e+003;1.062529e-001
2.838823e+003;1.073175e-001
2.840751e+003;1.089072e-001
2.842680e+003;1.111674e-001
2.844608e+003;1.132711e-001
2.846537e+003;1.155948e-001
2.848465e+003;1.179005e-001
2.850394e+003;1.198323e-001
2.852323e+003;1.217700e-001
2.854251e+003;1.233021e-001
2.856180e+003;1.246484e-001
2.858108e+003;1.255867e-001
2.860037e+003;1.257484e-001
2.861965e+003;1.259873e-001
2.863894e+003;1.265977e-001
2.865822e+003;1.271953e-001
2.867751e+003;1.279246e-001
2.869679e+003;1.288503e-001
2.871608e+003;1.294716e-001
2.873536e+003;1.296079e-001
2.875465e+003;1.300616e-001
2.877394e+003;1.313707e-001
2.879322e+003;1.320906e-001
2.881251e+003;1.322535e-001
2.883179e+003;1.326328e-001
2.885108e+003;1.333421e-001
2.887036e+003;1.340717e-001
2.888965e+003;1.344023e-001
2.890893e+003;1.349575e-001
2.892822e+003;1.354392e-001
2.894750e+003;1.354408e-001
2.896679e+003;1.358846e-001
2.898608e+003;1.366626e-001
2.900536e+003;1.369954e-001
2.902465e+003;1.372001e-001
2.904393e+003;1.376117e-001
2.906322e+003;1.376756e-001
2.908250e+003;1.374117e-001
2.910179e+003;1.372654e-001
2.912107e+003;1.371800e-001
2.914036e+003;1.375913e-001
2.915965e+003;1.377337e-001
2.917893e+003;1.373622e-001
2.919822e+003;1.378306e-001
2.921750e+003;1.384055e-001
2.923679e+003;1.380225e-001
2.925607e+003;1.373227e-001
2.927536e+003;1.368776e-001
2.929464e+003;1.361671e-001
2.931393e+003;1.350493e-001
2.933322e+003;1.337223e-001
2.935250e+003;1.326064e-001
2.937178e+003;1.314982e-001
2.939107e+003;1.299420e-001
2.941036e+003;1.282939e-001
2.942964e+003;1.268653e-001
2.944893e+003;1.254673e-001
2.946821e+003;1.239192e-001
2.948750e+003;1.225748e-001
2.950678e+003;1.215394e-001
2.952607e+003;1.200549e-001
2.954535e+003;1.186942e-001
2.956464e+003;1.174631e-001
2.958393e+003;1.161282e-001
2.960321e+003;1.145882e-001
2.962250e+003;1.131008e-001
2.964178e+003;1.117449e-001
2.966107e+003;1.105470e-001
2.968035e+003;1.094657e-001
2.969964e+003;1.082799e-001
2.971892e+003;1.070186e-001
2.973821e+003;1.057975e-001
2.975750e+003;1.046972e-001
2.977678e+003;1.034926e-001
2.979607e+003;1.022820e-001
2.981535e+003;1.011012e-001
2.983464e+003;1.002128e-001
2.985392e+003;9.947186e-002
2.987321e+003;9.862094e-002
2.989249e+003;9.794685e-002
2.991178e+003;9.762365e-002
2.993106e+003;9.708359e-002
2.995035e+003;9.613859e-002
2.996964e+003;9.581652e-002
2.998892e+003;9.616464e-002
3.000821e+003;9.620780e-002
3.002749e+003;9.577839e-002
3.004678e+003;9.562231e-002
3.006606e+003;9.535863e-002
3.008535e+003;9.497198e-002
3.010463e+003;9.465988e-002
3.012392e+003;9.466425e-002
3.014321e+003;9.476747e-002
3.016249e+003;9.475812e-002
3.018177e+003;9.508597e-002
3.020106e+003;9.520889e-002
3.022035e+003;9.536718e-002
3.023963e+003;9.593287e-002
3.025892e+003;9.672666e-002
3.027820e+003;9.719113e-002
3.029749e+003;9.708520e-002
3.031677e+003;9.710679e-002
3.033606e+003;9.724285e-002
3.035534e+003;9.769920e-002
3.037463e+003;9.808604e-002
3.039392e+003;9.796304e-002
3.041320e+003;9.831160e-002
3.043249e+003;9.885823e-002
3.045177e+003;9.920709e-002
3.047106e+003;9.975801e-002
3.049034e+003;9.999750e-002
3.050963e+003;9.975905e-002
3.052891e+003;9.996910e-002
3.054820e+003;1.007958e-001
3.056749e+003;1.011414e-001
3.058677e+003;1.015671e-001
3.060606e+003;1.020972e-001
3.062534e+003;1.026214e-001
3.064463e+003;1.031407e-001
3.066391e+003;1.034966e-001
3.068320e+003;1.039686e-001
3.070248e+003;1.043779e-001
3.072177e+003;1.046331e-001
3.074105e+003;1.052189e-001
3.076034e+003;1.059139e-001
3.077963e+003;1.062073e-001
3.079891e+003;1.061600e-001
3.081820e+003;1.067189e-001
3.083748e+003;1.077645e-001
3.085677e+003;1.085754e-001
3.087605e+003;1.088224e-001
3.089534e+003;1.094466e-001
3.091462e+003;1.102796e-001
3.093391e+003;1.108171e-001
3.095320e+003;1.114232e-001
3.097248e+003;1.123367e-001
3.099177e+003;1.126598e-001
3.101105e+003;1.125651e-001
3.103034e+003;1.130261e-001
3.104962e+003;1.135622e-001
3.106891e+003;1.139890e-001
3.108819e+003;1.146335e-001
3.110748e+003;1.153234e-001
3.112677e+003;1.159922e-001
3.114605e+003;1.168547e-001
3.116533e+003;1.173760e-001
3.118462e+003;1.175662e-001
3.120391e+003;1.178680e-001
3.122319e+003;1.187331e-001
3.124248e+003;1.195918e-001
3.126176e+003;1.199524e-001
3.128105e+003;1.206073e-001
3.130033e+003;1.217098e-001
3.131962e+003;1.220973e-001
3.133890e+003;1.219424e-001
3.135819e+003;1.226025e-001
3.137748e+003;1.238921e-001
3.139676e+003;1.245323e-001
3.141605e+003;1.251078e-001
3.143533e+003;1.257232e-001
3.145462e+003;1.263150e-001
3.147390e+003;1.269308e-001
3.149319e+003;1.270873e-001
3.151247e+003;1.278629e-001
3.153176e+003;1.285963e-001
3.155104e+003;1.289111e-001
3.157033e+003;1.294913e-001
3.158962e+003;1.300480e-001
3.160890e+003;1.309082e-001
3.162819e+003;1.316585e-001
3.164747e+003;1.318160e-001
3.166676e+003;1.322485e-001
3.168604e+003;1.327222e-001
3.170533e+003;1.332760e-001
3.172461e+003;1.341003e-001
3.174390e+003;1.350773e-001
3.176319e+003;1.359349e-001
3.178247e+003;1.364936e-001
3.180176e+003;1.370707e-001
3.182104e+003;1.376950e-001
3.184033e+003;1.380695e-001
3.185961e+003;1.385929e-001
3.187890e+003;1.391423e-001
3.189818e+003;1.399826e-001
3.191747e+003;1.409557e-001
3.193676e+003;1.415534e-001
3.195604e+003;1.423429e-001
3.197532e+003;1.429641e-001
3.199461e+003;1.433654e-001
3.201390e+003;1.437770e-001
3.203318e+003;1.447262e-001
3.205247e+003;1.452003e-001
3.207175e+003;1.451782e-001
3.209104e+003;1.458209e-001
3.211032e+003;1.467966e-001
3.212961e+003;1.472449e-001
3.214889e+003;1.479734e-001
3.216818e+003;1.490126e-001
3.218747e+003;1.497822e-001
3.220675e+003;1.505764e-001
3.222604e+003;1.506205e-001
3.224532e+003;1.507550e-001
3.226461e+003;1.517626e-001
3.228389e+003;1.522095e-001
3.230318e+003;1.523214e-001
3.232246e+003;1.534429e-001
3.234175e+003;1.545394e-001
3.236104e+003;1.549584e-001
3.238032e+003;1.555405e-001
3.239961e+003;1.564725e-001
3.241889e+003;1.572868e-001
3.243818e+003;1.578136e-001
3.245746e+003;1.583272e-001
3.247675e+003;1.588769e-001
3.249603e+003;1.595325e-001
3.251532e+003;1.602263e-001
3.253460e+003;1.606834e-001
3.255389e+003;1.611426e-001
3.257318e+003;1.614026e-001
3.259246e+003;1.621684e-001
3.261175e+003;1.629746e-001
3.263103e+003;1.632257e-001
3.265032e+003;1.639368e-001
3.266960e+003;1.644065e-001
3.268889e+003;1.646181e-001
3.270817e+003;1.652892e-001
3.272746e+003;1.655069e-001
3.274675e+003;1.657158e-001
3.276603e+003;1.665317e-001
3.278531e+003;1.672352e-001
3.280460e+003;1.674357e-001
3.282389e+003;1.673730e-001
3.284317e+003;1.678431e-001
3.286246e+003;1.688185e-001
3.288174e+003;1.690960e-001
3.290103e+003;1.691152e-001
3.292031e+003;1.695736e-001
3.293960e+003;1.702929e-001
3.295888e+003;1.705213e-001
3.297817e+003;1.704742e-001
3.299746e+003;1.706271e-001
3.301674e+003;1.709484e-001
3.303603e+003;1.710265e-001
3.305531e+003;1.712153e-001
3.307460e+003;1.716643e-001
3.309388e+003;1.714010e-001
3.311317e+003;1.713814e-001
3.313245e+003;1.713850e-001
3.315174e+003;1.713854e-001
3.317103e+003;1.718241e-001
3.319031e+003;1.725752e-001
3.320960e+003;1.731662e-001
3.322888e+003;1.732699e-001
3.324817e+003;1.732586e-001
3.326745e+003;1.735226e-001
3.328674e+003;1.735042e-001
3.330602e+003;1.734119e-001
3.332531e+003;1.732747e-001
3.334459e+003;1.729502e-001
3.336388e+003;1.730454e-001
3.338317e+003;1.732747e-001
3.340245e+003;1.733199e-001
3.342174e+003;1.726454e-001
3.344102e+003;1.719904e-001
3.346031e+003;1.722361e-001
3.347959e+003;1.722129e-001
3.349888e+003;1.713130e-001
3.351816e+003;1.707598e-001
3.353745e+003;1.706925e-001
3.355674e+003;1.705606e-001
3.357602e+003;1.705523e-001
3.359531e+003;1.707795e-001
3.361459e+003;1.711829e-001
3.363388e+003;1.707483e-001
3.365316e+003;1.699475e-001
3.367245e+003;1.688970e-001
3.369173e+003;1.686913e-001
3.371102e+003;1.689425e-001
3.373031e+003;1.687493e-001
3.374959e+003;1.686382e-001
3.376887e+003;1.680606e-001
3.378816e+003;1.672230e-001
3.380745e+003;1.668380e-001
3.382673e+003;1.669012e-001
3.384602e+003;1.663704e-001
3.386530e+003;1.655412e-001
3.388459e+003;1.653121e-001
3.390387e+003;1.651655e-001
3.392316e+003;1.656526e-001
3.394244e+003;1.657511e-001
3.396173e+003;1.645184e-001
3.398102e+003;1.636807e-001
3.400030e+003;1.629152e-001
3.401959e+003;1.621836e-001
3.403887e+003;1.625581e-001
3.405816e+003;1.623401e-001
3.407744e+003;1.614380e-001
3.409673e+003;1.614916e-001
3.411601e+003;1.616558e-001
3.413530e+003;1.611106e-001
3.415458e+003;1.600235e-001
3.417387e+003;1.595942e-001
3.419316e+003;1.593861e-001
3.421244e+003;1.583427e-001
3.423173e+003;1.571074e-001
3.425101e+003;1.569871e-001
3.427030e+003;1.569019e-001
3.428958e+003;1.556903e-001
3.430887e+003;1.546236e-001
3.432815e+003;1.540499e-001
3.434744e+003;1.535136e-001
3.436673e+003;1.533890e-001
3.438601e+003;1.533786e-001
3.440530e+003;1.527409e-001
3.442458e+003;1.517403e-001
3.444387e+003;1.508051e-001
3.446315e+003;1.501775e-001
3.448244e+003;1.497001e-001
3.450172e+003;1.491692e-001
3.452101e+003;1.483128e-001
3.454030e+003;1.475034e-001
3.455958e+003;1.470828e-001
3.457886e+003;1.464707e-001
3.459815e+003;1.457613e-001
3.461744e+003;1.447706e-001
3.463672e+003;1.438616e-001
3.465601e+003;1.436513e-001
3.467529e+003;1.430136e-001
3.469458e+003;1.415490e-001
3.471386e+003;1.398746e-001
3.473315e+003;1.387864e-001
3.475243e+003;1.388302e-001
3.477172e+003;1.381428e-001
3.479101e+003;1.371434e-001
3.481029e+003;1.365723e-001
3.482958e+003;1.358233e-001
3.484886e+003;1.353159e-001
3.486815e+003;1.344221e-001
3.488743e+003;1.332537e-001
3.490672e+003;1.324588e-001
3.492600e+003;1.319236e-001
3.494529e+003;1.309201e-001
3.496458e+003;1.294358e-001
3.498386e+003;1.283506e-001
3.500315e+003;1.271646e-001
3.502243e+003;1.262703e-001
3.504172e+003;1.253617e-001
3.506100e+003;1.242009e-001
3.508029e+003;1.233228e-001
3.509957e+003;1.227380e-001
3.511886e+003;1.220494e-001
3.513814e+003;1.213916e-001
3.515743e+003;1.208803e-001
3.517672e+003;1.192311e-001
3.519600e+003;1.174380e-001
3.521529e+003;1.161773e-001
3.523457e+003;1.152168e-001
3.525386e+003;1.146209e-001
3.527314e+003;1.136916e-001
3.529243e+003;1.126958e-001
3.531171e+003;1.118499e-001
3.533100e+003;1.108424e-001
3.535029e+003;1.095354e-001
3.536957e+003;1.084562e-001
3.538885e+003;1.076722e-001
3.540814e+003;1.068958e-001
3.542743e+003;1.056363e-001
3.544671e+003;1.041426e-001
3.546600e+003;1.032712e-001
3.548528e+003;1.022461e-001
3.550457e+003;1.010414e-001
3.552385e+003;1.002839e-001
3.554314e+003;1.001519e-001
3.556242e+003;9.928542e-002
3.558171e+003;9.727692e-002
3.560100e+003;9.606666e-002
3.562028e+003;9.558721e-002
3.563957e+003;9.438423e-002
3.565885e+003;9.245631e-002
3.567814e+003;9.164655e-002
3.569742e+003;9.230162e-002
3.571671e+003;9.176045e-002
3.573599e+003;9.055042e-002
3.575528e+003;8.958612e-002
3.577457e+003;8.868407e-002
3.579385e+003;8.818306e-002
3.581314e+003;8.713838e-002
3.583242e+003;8.572309e-002
3.585171e+003;8.383817e-002
3.587099e+003;8.229119e-002
3.589028e+003;8.243698e-002
3.590956e+003;8.246566e-002
3.592885e+003;8.139962e-002
3.594813e+003;8.027759e-002
3.596742e+003;7.991090e-002
3.598671e+003;7.922875e-002
3.600599e+003;7.823794e-002
3.602528e+003;7.838349e-002
3.604456e+003;7.795404e-002
3.606385e+003;7.632954e-002
3.608313e+003;7.534524e-002
3.610242e+003;7.542943e-002
3.612170e+003;7.479600e-002
3.614099e+003;7.434826e-002
3.616028e+003;7.337219e-002
3.617956e+003;7.123435e-002
3.619885e+003;7.085602e-002
3.621813e+003;7.230176e-002
3.623742e+003;7.277387e-002
3.625670e+003;7.115459e-002
3.627599e+003;6.729243e-002
3.629527e+003;6.755613e-002
3.631456e+003;7.080278e-002
3.633385e+003;7.102573e-002
3.635313e+003;7.054626e-002
3.637241e+003;6.987683e-002
3.639170e+003;6.904318e-002
3.641099e+003;6.857743e-002
3.643027e+003;6.889646e-002
3.644956e+003;6.776684e-002
3.646884e+003;6.432246e-002
3.648813e+003;6.230259e-002
3.650741e+003;6.394868e-002
3.652670e+003;6.661887e-002
3.654598e+003;6.571928e-002
3.656527e+003;6.482457e-002
3.658456e+003;6.649439e-002
3.660384e+003;6.725800e-002
3.662313e+003;6.715190e-002
3.664241e+003;6.663193e-002
3.666170e+003;6.562505e-002
3.668098e+003;6.352901e-002
3.670027e+003;6.189727e-002
3.671955e+003;6.318776e-002
3.673884e+003;6.166624e-002
3.675813e+003;6.038383e-002
3.677741e+003;6.290606e-002
3.679669e+003;6.455076e-002
3.681598e+003;6.583548e-002
3.683527e+003;6.558505e-002
3.685455e+003;6.337497e-002
3.687384e+003;6.000490e-002
3.689312e+003;6.055963e-002
3.691241e+003;6.334565e-002
3.693169e+003;6.457844e-002
3.695098e+003;6.511563e-002
3.697026e+003;6.543964e-002
3.698955e+003;6.465622e-002
3.700884e+003;6.307238e-002
3.702812e+003;6.345765e-002
3.704741e+003;6.431028e-002
3.706669e+003;6.416534e-002
3.708598e+003;6.279122e-002
3.710526e+003;6.116819e-002
3.712455e+003;6.192276e-002
3.714383e+003;6.385422e-002
3.716312e+003;6.454522e-002
3.718240e+003;6.481248e-002
3.720169e+003;6.392992e-002
3.722098e+003;6.320278e-002
3.724026e+003;6.328293e-002
3.725955e+003;6.339825e-002
3.727883e+003;6.343502e-002
3.729812e+003;6.208618e-002
3.731740e+003;6.058477e-002
3.733669e+003;6.051659e-002
3.735597e+003;5.990882e-002
3.737526e+003;6.122343e-002
3.739455e+003;6.308078e-002
3.741383e+003;6.178965e-002
3.743312e+003;5.694708e-002
3.745240e+003;5.796165e-002
3.747169e+003;5.982891e-002
3.749097e+003;5.720449e-002
3.751026e+003;5.726705e-002
3.752954e+003;6.065521e-002
3.754883e+003;6.353047e-002
3.756812e+003;6.369247e-002
3.758740e+003;6.342685e-002
3.760668e+003;6.352936e-002
3.762597e+003;6.399337e-002
3.764526e+003;6.358800e-002
3.766454e+003;6.396834e-002
3.768383e+003;6.363085e-002
3.770311e+003;6.369796e-002
3.772240e+003;6.425972e-002
3.774168e+003;6.425258e-002
3.776097e+003;6.435793e-002
3.778025e+003;6.354888e-002
3.779954e+003;6.340342e-002
3.781883e+003;6.466864e-002
3.783811e+003;6.506671e-002
3.785740e+003;6.502106e-002
3.787668e+003;6.532159e-002
3.789597e+003;6.560713e-002
3.791525e+003;6.564952e-002
3.793454e+003;6.554732e-002
3.795382e+003;6.440439e-002
3.797311e+003;6.375325e-002
3.799240e+003;6.143289e-002
3.801168e+003;5.972872e-002
3.803097e+003;6.254058e-002
3.805025e+003;6.256718e-002
3.806954e+003;6.131676e-002
3.808882e+003;6.339575e-002
3.810811e+003;6.528658e-002
3.812739e+003;6.497546e-002
3.814668e+003;6.150656e-002
3.816596e+003;6.123644e-002
3.818525e+003;6.228431e-002
3.820454e+003;6.091971e-002
3.822382e+003;6.262352e-002
3.824311e+003;6.423271e-002
3.826239e+003;6.379116e-002
3.828168e+003;6.389034e-002
3.830096e+003;6.351478e-002
3.832025e+003;6.305181e-002
3.833953e+003;6.300765e-002
3.835882e+003;6.104569e-002
3.837811e+003;6.008967e-002
3.839739e+003;6.173208e-002
3.841667e+003;6.263565e-002
3.843596e+003;6.363841e-002
3.845525e+003;6.493698e-002
3.847453e+003;6.446004e-002
3.849382e+003;6.269168e-002
3.851310e+003;5.906485e-002
3.853239e+003;5.647362e-002
3.855167e+003;6.034876e-002
3.857096e+003;6.394519e-002
3.859024e+003;6.500902e-002
3.860953e+003;6.471825e-002
3.862882e+003;6.326438e-002
3.864810e+003;6.300205e-002
3.866739e+003;6.312239e-002
3.868667e+003;6.190415e-002
3.870596e+003;6.291281e-002
3.872524e+003;6.463435e-002
3.874453e+003;6.483468e-002
3.876381e+003;6.537292e-002
3.878310e+003;6.479818e-002
3.880239e+003;6.452531e-002
3.882167e+003;6.515516e-002
3.884096e+003;6.414256e-002
3.886024e+003;6.416453e-002
3.887953e+003;6.584717e-002
3.889881e+003;6.512395e-002
3.891810e+003;6.442437e-002
3.893738e+003;6.539607e-002
3.895667e+003;6.565022e-002
3.897595e+003;6.455979e-002
3.899524e+003;6.373621e-002
3.901453e+003;6.355666e-002
3.903381e+003;6.341404e-002
3.905310e+003;6.484134e-002
3.907238e+003;6.641334e-002
3.909167e+003;6.663904e-002
3.911095e+003;6.643358e-002
3.913024e+003;6.653100e-002
3.914952e+003;6.597134e-002
3.916881e+003;6.501406e-002
3.918810e+003;6.542242e-002
3.920738e+003;6.703721e-002
3.922667e+003;6.719638e-002
3.924595e+003;6.641898e-002
3.926524e+003;6.667589e-002
3.928452e+003;6.704339e-002
3.930381e+003;6.679045e-002
3.932309e+003;6.652501e-002
3.934238e+003;6.677785e-002
3.936167e+003;6.685684e-002
3.938095e+003;6.693279e-002
3.940023e+003;6.636018e-002
3.941952e+003;6.603279e-002
3.943881e+003;6.708813e-002
3.945809e+003;6.742279e-002
3.947738e+003;6.676819e-002
3.949666e+003;6.663123e-002
3.951595e+003;6.612897e-002
3.953523e+003;6.672337e-002
3.955452e+003;6.776018e-002
3.957380e+003;6.738754e-002
3.959309e+003;6.664629e-002
3.961238e+003;6.649640e-002
3.963166e+003;6.661195e-002
3.965095e+003;6.699874e-002
3.967023e+003;6.748514e-002
3.968952e+003;6.748398e-002
3.970880e+003;6.661126e-002
3.972809e+003;6.633328e-002
3.974737e+003;6.709440e-002
3.976666e+003;6.829210e-002
3.978594e+003;6.794026e-002
3.980523e+003;6.697346e-002
3.982452e+003;6.708501e-002
3.984380e+003;6.685777e-002
3.986309e+003;6.651513e-002
3.988237e+003;6.696944e-002
3.990166e+003;6.755067e-002
3.992094e+003;6.775309e-002
3.994023e+003;6.767994e-002
3.995951e+003;6.735577e-002
3.997880e+003;6.714161e-002
3.999809e+003;6.741938e-002
4.001737e+003;0.000000e+000
