3.992094e+002;0.000000e+000
4.011380e+002;0.000000e+000
4.030665e+002;0.000000e+000
4.049951e+002;0.000000e+000
4.069236e+002;0.000000e+000
4.088522e+002;0.000000e+000
4.107807e+002;0.000000e+000
4.127093e+002;0.000000e+000
4.146378e+002;0.000000e+000
4.165664e+002;0.000000e+000
4.184949e+002;0.000000e+000
4.204235e+002;0.000000e+000
4.223520e+002;0.000000e+000
4.242806e+002;0.000000e+000
4.262091e+002;0.000000e+000
4.281377e+002;0.000000e+000
4.300662e+002;0.000000e+000
4.319948e+002;0.000000e+000
4.339233e+002;0.000000e+000
4.358519e+002;0.000000e+000
4.377804e+002;0.000000e+000
4.397090e+002;0.000000e+000
4.416375e+002;0.000000e+000
4.435660e+002;0.000000e+000
4.454946e+002;0.000000e+000
4.474232e+002;0.000000e+000
4.493517e+002;0.000000e+000
4.512802e+002;0.000000e+000
4.532088e+002;0.000000e+000
4.551373e+002;0.000000e+000
4.570659e+002;0.000000e+000
4.589944e+002;0.000000e+000
4.609230e+002;0.000000e+000
4.628515e+002;0.000000e+000
4.647801e+002;0.000000e+000
4.667086e+002;0.000000e+000
4.686372e+002;0.000000e+000
4.705657e+002;0.000000e+000
4.724943e+002;0.000000e+000
4.744228e+002;0.000000e+000
4.763513e+002;0.000000e+000
4.782799e+002;0.000000e+000
4.802085e+002;0.000000e+000
4.821370e+002;0.000000e+000
4.840656e+002;0.000000e+000
4.859941e+002;0.000000e+000
4.879226e+002;0.000000e+000
4.898512e+002;0.000000e+000
4.917798e+002;0.000000e+000
4.937083e+002;0.000000e+000
4.956368e+002;0.000000e+000
4.975654e+002;0.000000e+000
4.994939e+002;0.000000e+000
5.014225e+002;0.000000e+000
5.033510e+002;0.000000e+000
5.052796e+002;0.000000e+000
5.072081e+002;0.000000e+000
5.091367e+002;0.000000e+000
5.110652e+002;0.000000e+000
5.129938e+002;0.000000e+000
5.149223e+002;0.000000e+000
5.168509e+002;0.000000e+000
5.187794e+002;0.000000e+000
5.207079e+002;0.000000e+000
5.226365e+002;0.000000e+000
5.245651e+002;0.000000e+000
5.264936e+002;0.000000e+000
5.284222e+002;0.000000e+000
5.303507e+002;0.000000e+000
5.322792e+002;0.000000e+000
5.342078e+002;0.000000e+000
5.361364e+002;0.000000e+000
5.380649e+002;0.000000e+000
5.399935e+002;0.000000e+000
5.419220e+002;0.000000e+000
5.438505e+002;0.000000e+000
5.457791e+002;0.000000e+000
5.477076e+002;0.000000e+000
5.496362e+002;0.000000e+000
5.515648e+002;0.000000e+000
5.534933e+002;0.000000e+000
5.554218e+002;0.000000e+000
5.573504e+002;0.000000e+000
5.592789e+002;0.000000e+000
5.612075e+002;0.000000e+000
5.631360e+002;0.000000e+000
5.650646e+002;0.000000e+000
5.669931e+002;0.000000e+000
5.689217e+002;0.000000e+000
5.708502e+002;0.000000e+000
5.727787e+002;0.000000e+000
5.747073e+002;0.000000e+000
5.766359e+002;0.000000e+000
5.785644e+002;0.000000e+000
5.804930e+002;0.000000e+000
5.824215e+002;0.000000e+000
5.843500e+002;0.000000e+000
5.862786e+002;0.000000e+000
5.882072e+002;0.000000e+000
5.901357e+002;0.000000e+000
5.920643e+002;0.000000e+000
5.939928e+002;0.000000e+000
5.959213e+002;0.000000e+000
5.978499e+002;0.000000e+000
5.997784e+002;2.316405e-001
6.017070e+002;2.338573e-001
6.036355e+002;2.371617e-001
6.055641e+002;2.369808e-001
6.074926e+002;2.435669e-001
6.094211e+002;2.453403e-001
6.113497e+002;2.440775e-001
6.132783e+002;2.431738e-001
6.152068e+002;2.396542e-001
6.171354e+002;2.350781e-001
6.190639e+002;2.333025e-001
6.209924e+002;2.321259e-001
6.229210e+002;2.243052e-001
6.248495e+002;2.171562e-001
6.267781e+002;2.156349e-001
6.287067e+002;2.173147e-001
6.306352e+002;2.180738e-001
6.325637e+002;2.132049e-001
6.344923e+002;2.063579e-001
6.364208e+002;2.042835e-001
6.383494e+002;2.060013e-001
6.402780e+002;2.018575e-001
6.422065e+002;1.968680e-001
6.441350e+002;1.971460e-001
6.460636e+002;1.988904e-001
6.479921e+002;1.992775e-001
6.499207e+002;1.999468e-001
6.518492e+002;1.976912e-001
6.537778e+002;2.001482e-001
6.557063e+002;2.100565e-001
6.576349e+002;2.166817e-001
6.595634e+002;2.182803e-001
6.614919e+002;2.203947e-001
6.634205e+002;2.237906e-001
6.653491e+002;2.231059e-001
6.672776e+002;2.191992e-001
6.692062e+002;2.155057e-001
6.711347e+002;2.108803e-001
6.730632e+002;2.042232e-001
6.749918e+002;1.975648e-001
6.769203e+002;1.918301e-001
6.788489e+002;1.879846e-001
6.807775e+002;1.864554e-001
6.827060e+002;1.845555e-001
6.846345e+002;1.815739e-001
6.865631e+002;1.799012e-001
6.884916e+002;1.805817e-001
6.904202e+002;1.822913e-001
6.923488e+002;1.849256e-001
6.942773e+002;1.873176e-001
6.962058e+002;1.895896e-001
6.981344e+002;1.915879e-001
7.000629e+002;1.925702e-001
7.019915e+002;1.920749e-001
7.039200e+002;1.893394e-001
7.058486e+002;1.843238e-001
7.077771e+002;1.802334e-001
7.097057e+002;1.768992e-001
7.116342e+002;1.730698e-001
7.135627e+002;1.695966e-001
7.154913e+002;1.663641e-001
7.174199e+002;1.626734e-001
7.193484e+002;1.592746e-001
7.212770e+002;1.549892e-001
7.232055e+002;1.494563e-001
7.251340e+002;1.442128e-001
7.270626e+002;1.416316e-001
7.289911e+002;1.393727e-001
7.309197e+002;1.371135e-001
7.328483e+002;1.352396e-001
7.347768e+002;1.333746e-001
7.367053e+002;1.321222e-001
7.386339e+002;1.302323e-001
7.405624e+002;1.280318e-001
7.424910e+002;1.268621e-001
7.444196e+002;1.258551e-001
7.463481e+002;1.241756e-001
7.482766e+002;1.219308e-001
7.502052e+002;1.206589e-001
7.521337e+002;1.199612e-001
7.540623e+002;1.197027e-001
7.559908e+002;1.205353e-001
7.579194e+002;1.208680e-001
7.598479e+002;1.208002e-001
7.617765e+002;1.208028e-001
7.637050e+002;1.196226e-001
7.656335e+002;1.181522e-001
7.675621e+002;1.171405e-001
7.694907e+002;1.160420e-001
7.714192e+002;1.144581e-001
7.733478e+002;1.133186e-001
7.752763e+002;1.136434e-001
7.772048e+002;1.137754e-001
7.791334e+002;1.133855e-001
7.810620e+002;1.134012e-001
7.829905e+002;1.129533e-001
7.849191e+002;1.131468e-001
7.868476e+002;1.147427e-001
7.887761e+002;1.157040e-001
7.907047e+002;1.162208e-001
7.926332e+002;1.173455e-001
7.945618e+002;1.191086e-001
7.964903e+002;1.202648e-001
7.984189e+002;1.209478e-001
8.003474e+002;1.215708e-001
8.022759e+002;1.212266e-001
8.042045e+002;1.202821e-001
8.061331e+002;1.203157e-001
8.080616e+002;1.203134e-001
8.099902e+002;1.193546e-001
8.119187e+002;1.185664e-001
8.138472e+002;1.186844e-001
8.157758e+002;1.185760e-001
8.177043e+002;1.173785e-001
8.196329e+002;1.167408e-001
8.215615e+002;1.161628e-001
8.234900e+002;1.148206e-001
8.254185e+002;1.132011e-001
8.273471e+002;1.113166e-001
8.292756e+002;1.093169e-001
8.312042e+002;1.078924e-001
8.331328e+002;1.072986e-001
8.350613e+002;1.074850e-001
8.369898e+002;1.077126e-001
8.389184e+002;1.070465e-001
8.408469e+002;1.061927e-001
8.427755e+002;1.059679e-001
8.447040e+002;1.053830e-001
8.466326e+002;1.049238e-001
8.485611e+002;1.050541e-001
8.504897e+002;1.054511e-001
8.524182e+002;1.054637e-001
8.543467e+002;1.058029e-001
8.562753e+002;1.063343e-001
8.582039e+002;1.066684e-001
8.601324e+002;1.072024e-001
8.620610e+002;1.083110e-001
8.639895e+002;1.092637e-001
8.659180e+002;1.095669e-001
8.678466e+002;1.105065e-001
8.697751e+002;1.115996e-001
8.717037e+002;1.124780e-001
8.736323e+002;1.139624e-001
8.755608e+002;1.152700e-001
8.774893e+002;1.161080e-001
8.794179e+002;1.176305e-001
8.813464e+002;1.194594e-001
8.832750e+002;1.213787e-001
8.852036e+002;1.234238e-001
8.871321e+002;1.253452e-001
8.890606e+002;1.275375e-001
8.909892e+002;1.296885e-001
8.929177e+002;1.308987e-001
8.948463e+002;1.317752e-001
8.967748e+002;1.329141e-001
8.987034e+002;1.332893e-001
9.006319e+002;1.326525e-001
9.025605e+002;1.319866e-001
9.044890e+002;1.311800e-001
9.064175e+002;1.301478e-001
9.083461e+002;1.295222e-001
9.102747e+002;1.287443e-001
9.122032e+002;1.277630e-001
9.141318e+002;1.265430e-001
9.160603e+002;1.255211e-001
9.179888e+002;1.255225e-001
9.199174e+002;1.260807e-001
9.218459e+002;1.267407e-001
9.237745e+002;1.277097e-001
9.257031e+002;1.287977e-001
9.276316e+002;1.301536e-001
9.295601e+002;1.321798e-001
9.314887e+002;1.342039e-001
9.334172e+002;1.358403e-001
9.353458e+002;1.379858e-001
9.372744e+002;1.399661e-001
9.392029e+002;1.414350e-001
9.411314e+002;1.428122e-001
9.430600e+002;1.446647e-001
9.449885e+002;1.468902e-001
9.469171e+002;1.494730e-001
9.488456e+002;1.524096e-001
9.507742e+002;1.555145e-001
9.527027e+002;1.586807e-001
9.546313e+002;1.625540e-001
9.565598e+002;1.669274e-001
9.584883e+002;1.713387e-001
9.604169e+002;1.756750e-001
9.623455e+002;1.805322e-001
9.642740e+002;1.858549e-001
9.662026e+002;1.913025e-001
9.681311e+002;1.970745e-001
9.700596e+002;2.035755e-001
9.719882e+002;2.118307e-001
9.739167e+002;2.218509e-001
9.758453e+002;2.331346e-001
9.777739e+002;2.465221e-001
9.797024e+002;2.607485e-001
9.816309e+002;2.724494e-001
9.835595e+002;2.796385e-001
9.854880e+002;2.814814e-001
9.874166e+002;2.808947e-001
9.893452e+002;2.823596e-001
9.912737e+002;2.864896e-001
9.932022e+002;2.926917e-001
9.951307e+002;3.004484e-001
9.970593e+002;3.080674e-001
9.989879e+002;3.138397e-001
1.000916e+003;3.168950e-001
1.002845e+003;3.174211e-001
1.004773e+003;3.178895e-001
1.006702e+003;3.188650e-001
1.008631e+003;3.206997e-001
1.010559e+003;3.238098e-001
1.012488e+003;3.271527e-001
1.014416e+003;3.294013e-001
1.016345e+003;3.326224e-001
1.018273e+003;3.373316e-001
1.020202e+003;3.417078e-001
1.022130e+003;3.469403e-001
1.024059e+003;3.530793e-001
1.025988e+003;3.590400e-001
1.027916e+003;3.638610e-001
1.029845e+003;3.661033e-001
1.031773e+003;3.655063e-001
1.033702e+003;3.612494e-001
1.035630e+003;3.530128e-001
1.037559e+003;3.429161e-001
1.039487e+003;3.338094e-001
1.041416e+003;3.281883e-001
1.043344e+003;3.275268e-001
1.045273e+003;3.313376e-001
1.047202e+003;3.382892e-001
1.049130e+003;3.468018e-001
1.051059e+003;3.536787e-001
1.052987e+003;3.574176e-001
1.054916e+003;3.582689e-001
1.056844e+003;3.549798e-001
1.058773e+003;3.459573e-001
1.060701e+003;3.311143e-001
1.062630e+003;3.132667e-001
1.064558e+003;2.954577e-001
1.066487e+003;2.791280e-001
1.068416e+003;2.654783e-001
1.070344e+003;2.553455e-001
1.072273e+003;2.479729e-001
1.074201e+003;2.423442e-001
1.076130e+003;2.374320e-001
1.078058e+003;2.323490e-001
1.079987e+003;2.277372e-001
1.081915e+003;2.249245e-001
1.083844e+003;2.238932e-001
1.085773e+003;2.240527e-001
1.087701e+003;2.246881e-001
1.089630e+003;2.255783e-001
1.091558e+003;2.271454e-001
1.093487e+003;2.302109e-001
1.095415e+003;2.342674e-001
1.097344e+003;2.385864e-001
1.099272e+003;2.423518e-001
1.101201e+003;2.447042e-001
1.103129e+003;2.458168e-001
1.105058e+003;2.451949e-001
1.106987e+003;2.431507e-001
1.108915e+003;2.409765e-001
1.110844e+003;2.363599e-001
1.112772e+003;2.276510e-001
1.114701e+003;2.163599e-001
1.116629e+003;2.042680e-001
1.118558e+003;1.932479e-001
1.120486e+003;1.848425e-001
1.122415e+003;1.786602e-001
1.124344e+003;1.724504e-001
1.126272e+003;1.647630e-001
1.128201e+003;1.570723e-001
1.130129e+003;1.507902e-001
1.132058e+003;1.463054e-001
1.133986e+003;1.432032e-001
1.135915e+003;1.408260e-001
1.137843e+003;1.400131e-001
1.139772e+003;1.410784e-001
1.141700e+003;1.440310e-001
1.143629e+003;1.487406e-001
1.145557e+003;1.537962e-001
1.147486e+003;1.579182e-001
1.149415e+003;1.613288e-001
1.151343e+003;1.651607e-001
1.153272e+003;1.692044e-001
1.155200e+003;1.734684e-001
1.157129e+003;1.775861e-001
1.159057e+003;1.807812e-001
1.160986e+003;1.816991e-001
1.162914e+003;1.789160e-001
1.164843e+003;1.726965e-001
1.166771e+003;1.642594e-001
1.168700e+003;1.547477e-001
1.170629e+003;1.455566e-001
1.172557e+003;1.374547e-001
1.174486e+003;1.307592e-001
1.176414e+003;1.258309e-001
1.178343e+003;1.220739e-001
1.180271e+003;1.188485e-001
1.182200e+003;1.160223e-001
1.184128e+003;1.133798e-001
1.186057e+003;1.115536e-001
1.187986e+003;1.109091e-001
1.189914e+003;1.112749e-001
1.191843e+003;1.123004e-001
1.193771e+003;1.138087e-001
1.195700e+003;1.157091e-001
1.197628e+003;1.176119e-001
1.199557e+003;1.192577e-001
1.201485e+003;1.203897e-001
1.203414e+003;1.206402e-001
1.205343e+003;1.203548e-001
1.207271e+003;1.186931e-001
1.209200e+003;1.152211e-001
1.211128e+003;1.111888e-001
1.213057e+003;1.085520e-001
1.214985e+003;1.076585e-001
1.216914e+003;1.079010e-001
1.218842e+003;1.088190e-001
1.220771e+003;1.099424e-001
1.222699e+003;1.111684e-001
1.224628e+003;1.126345e-001
1.226557e+003;1.149113e-001
1.228485e+003;1.171599e-001
1.230414e+003;1.189158e-001
1.232342e+003;1.206329e-001
1.234271e+003;1.223355e-001
1.236199e+003;1.235225e-001
1.238128e+003;1.242068e-001
1.240056e+003;1.248395e-001
1.241985e+003;1.259920e-001
1.243913e+003;1.273829e-001
1.245842e+003;1.286979e-001
1.247771e+003;1.297688e-001
1.249699e+003;1.304200e-001
1.251628e+003;1.311810e-001
1.253556e+003;1.324191e-001
1.255485e+003;1.343991e-001
1.257413e+003;1.368113e-001
1.259342e+003;1.386411e-001
1.261270e+003;1.391860e-001
1.263199e+003;1.383382e-001
1.265127e+003;1.362819e-001
1.267056e+003;1.332144e-001
1.268985e+003;1.306193e-001
1.270913e+003;1.295268e-001
1.272842e+003;1.293718e-001
1.274770e+003;1.291736e-001
1.276699e+003;1.287754e-001
1.278627e+003;1.281365e-001
1.280556e+003;1.269952e-001
1.282484e+003;1.252168e-001
1.284413e+003;1.237826e-001
1.286342e+003;1.228125e-001
1.288270e+003;1.218783e-001
1.290199e+003;1.214539e-001
1.292127e+003;1.216843e-001
1.294056e+003;1.221037e-001
1.295984e+003;1.228269e-001
1.297913e+003;1.246175e-001
1.299841e+003;1.269341e-001
1.301770e+003;1.298452e-001
1.303698e+003;1.334738e-001
1.305627e+003;1.375199e-001
1.307556e+003;1.417538e-001
1.309484e+003;1.456021e-001
1.311413e+003;1.484950e-001
1.313341e+003;1.500486e-001
1.315270e+003;1.495505e-001
1.317198e+003;1.469270e-001
1.319127e+003;1.432508e-001
1.321055e+003;1.394070e-001
1.322984e+003;1.360540e-001
1.324912e+003;1.340798e-001
1.326841e+003;1.335866e-001
1.328770e+003;1.340471e-001
1.330698e+003;1.354820e-001
1.332627e+003;1.372498e-001
1.334555e+003;1.376193e-001
1.336484e+003;1.364802e-001
1.338412e+003;1.345078e-001
1.340341e+003;1.320372e-001
1.342269e+003;1.291472e-001
1.344198e+003;1.260355e-001
1.346126e+003;1.233459e-001
1.348055e+003;1.213878e-001
1.349984e+003;1.205346e-001
1.351912e+003;1.209515e-001
1.353841e+003;1.218938e-001
1.355769e+003;1.227400e-001
1.357698e+003;1.235635e-001
1.359626e+003;1.238863e-001
1.361555e+003;1.232573e-001
1.363483e+003;1.220689e-001
1.365412e+003;1.212210e-001
1.367341e+003;1.205951e-001
1.369269e+003;1.201587e-001
1.371198e+003;1.191754e-001
1.373126e+003;1.164783e-001
1.375055e+003;1.133158e-001
1.376983e+003;1.107499e-001
1.378912e+003;1.081371e-001
1.380840e+003;1.056265e-001
1.382769e+003;1.033223e-001
1.384698e+003;1.009590e-001
1.386626e+003;9.883035e-002
1.388555e+003;9.832590e-002
1.390483e+003;9.876642e-002
1.392412e+003;9.875011e-002
1.394340e+003;9.850773e-002
1.396269e+003;9.892222e-002
1.398197e+003;9.925248e-002
1.400126e+003;9.964821e-002
1.402054e+003;1.002453e-001
1.403983e+003;1.003489e-001
1.405911e+003;1.007225e-001
1.407840e+003;1.013467e-001
1.409769e+003;1.014857e-001
1.411697e+003;1.016888e-001
1.413626e+003;1.025090e-001
1.415554e+003;1.034778e-001
1.417483e+003;1.039167e-001
1.419411e+003;1.051981e-001
1.421340e+003;1.083235e-001
1.423268e+003;1.106104e-001
1.425197e+003;1.121122e-001
1.427125e+003;1.129456e-001
1.429054e+003;1.127568e-001
1.430983e+003;1.125548e-001
1.432911e+003;1.117274e-001
1.434840e+003;1.090558e-001
1.436768e+003;1.066444e-001
1.438697e+003;1.074573e-001
1.440625e+003;1.086105e-001
1.442554e+003;1.093998e-001
1.444482e+003;1.101259e-001
1.446411e+003;1.106832e-001
1.448340e+003;1.116498e-001
1.450268e+003;1.131045e-001
1.452197e+003;1.136775e-001
1.454125e+003;1.122430e-001
1.456054e+003;1.077110e-001
1.457982e+003;1.057024e-001
1.459911e+003;1.069971e-001
1.461839e+003;1.069824e-001
1.463768e+003;1.033661e-001
1.465697e+003;9.964287e-002
1.467625e+003;9.790642e-002
1.469554e+003;9.628712e-002
1.471482e+003;9.493715e-002
1.473411e+003;9.323592e-002
1.475339e+003;8.925735e-002
1.477268e+003;8.557291e-002
1.479196e+003;8.369801e-002
1.481125e+003;8.198165e-002
1.483053e+003;8.029673e-002
1.484982e+003;7.808946e-002
1.486911e+003;7.576083e-002
1.488839e+003;7.390137e-002
1.490768e+003;7.379403e-002
1.492696e+003;7.519870e-002
1.494625e+003;7.461438e-002
1.496553e+003;7.265354e-002
1.498482e+003;7.197830e-002
1.500410e+003;7.174826e-002
1.502339e+003;7.125543e-002
1.504267e+003;6.884959e-002
1.506196e+003;6.614514e-002
1.508125e+003;6.784512e-002
1.510053e+003;7.054393e-002
1.511982e+003;7.136312e-002
1.513910e+003;7.154220e-002
1.515839e+003;7.088207e-002
1.517767e+003;7.081697e-002
1.519696e+003;7.058965e-002
1.521624e+003;7.087611e-002
1.523553e+003;7.321647e-002
1.525481e+003;7.463028e-002
1.527410e+003;7.600643e-002
1.529339e+003;7.766074e-002
1.531267e+003;7.853687e-002
1.533196e+003;7.893924e-002
1.535124e+003;8.073300e-002
1.537053e+003;8.074143e-002
1.538981e+003;7.815951e-002
1.540910e+003;7.919789e-002
1.542838e+003;8.270863e-002
1.544767e+003;8.527370e-002
1.546695e+003;8.735890e-002
1.548624e+003;8.837685e-002
1.550553e+003;8.924441e-002
1.552481e+003;8.912467e-002
1.554410e+003;8.800399e-002
1.556338e+003;8.638726e-002
1.558267e+003;8.320966e-002
1.560195e+003;8.400635e-002
1.562124e+003;8.753234e-002
1.564052e+003;8.875995e-002
1.565981e+003;8.851735e-002
1.567910e+003;8.728112e-002
1.569838e+003;8.651151e-002
1.571767e+003;8.721002e-002
1.573695e+003;8.623803e-002
1.575624e+003;8.385682e-002
1.577552e+003;8.485700e-002
1.579481e+003;8.669339e-002
1.581409e+003;8.683986e-002
1.583338e+003;8.656958e-002
1.585266e+003;8.609387e-002
1.587195e+003;8.573757e-002
1.589124e+003;8.537661e-002
1.591052e+003;8.488750e-002
1.592981e+003;8.456951e-002
1.594909e+003;8.481511e-002
1.596838e+003;8.539110e-002
1.598766e+003;8.583382e-002
1.600695e+003;8.576079e-002
1.602623e+003;8.550102e-002
1.604552e+003;8.497054e-002
1.606480e+003;8.418518e-002
1.608409e+003;8.339752e-002
1.610338e+003;8.306766e-002
1.612266e+003;8.300608e-002
1.614195e+003;8.195704e-002
1.616123e+003;7.977638e-002
1.618052e+003;8.041409e-002
1.619980e+003;8.196341e-002
1.621909e+003;8.154023e-002
1.623837e+003;8.108438e-002
1.625766e+003;8.141429e-002
1.627694e+003;8.146621e-002
1.629623e+003;8.170506e-002
1.631552e+003;8.180069e-002
1.633480e+003;8.021103e-002
1.635409e+003;7.858388e-002
1.637337e+003;8.024769e-002
1.639266e+003;8.206058e-002
1.641194e+003;8.260077e-002
1.643123e+003;8.253942e-002
1.645051e+003;8.143155e-002
1.646980e+003;8.096534e-002
1.648909e+003;8.190931e-002
1.650837e+003;7.957365e-002
1.652766e+003;7.591270e-002
1.654694e+003;7.919006e-002
1.656623e+003;8.283744e-002
1.658551e+003;8.348400e-002
1.660480e+003;8.295301e-002
1.662408e+003;8.211069e-002
1.664337e+003;8.233356e-002
1.666266e+003;8.210576e-002
1.668194e+003;8.047917e-002
1.670123e+003;7.980429e-002
1.672051e+003;7.999343e-002
1.673980e+003;7.866127e-002
1.675908e+003;7.793489e-002
1.677837e+003;7.858090e-002
1.679765e+003;7.803822e-002
1.681694e+003;7.626552e-002
1.683622e+003;7.305256e-002
1.685551e+003;7.329436e-002
1.687479e+003;7.552578e-002
1.689408e+003;7.598871e-002
1.691337e+003;7.608779e-002
1.693265e+003;7.495095e-002
1.695194e+003;7.244603e-002
1.697122e+003;7.257329e-002
1.699051e+003;7.176089e-002
1.700979e+003;7.203431e-002
1.702908e+003;7.467596e-002
1.704836e+003;7.504971e-002
1.706765e+003;7.598768e-002
1.708693e+003;7.733648e-002
1.710622e+003;7.866330e-002
1.712551e+003;7.962845e-002
1.714479e+003;8.058882e-002
1.716408e+003;8.217306e-002
1.718336e+003;8.718617e-002
1.720265e+003;9.521199e-002
1.722193e+003;1.027788e-001
1.724122e+003;1.100569e-001
1.726050e+003;1.168097e-001
1.727979e+003;1.220574e-001
1.729908e+003;1.251852e-001
1.731836e+003;1.239724e-001
1.733765e+003;1.193157e-001
1.735693e+003;1.155895e-001
1.737622e+003;1.090444e-001
1.739550e+003;9.888440e-002
1.741479e+003;8.965785e-002
1.743407e+003;8.149962e-002
1.745336e+003;7.451414e-002
1.747265e+003;6.869820e-002
1.749193e+003;6.420290e-002
1.751122e+003;6.158655e-002
1.753050e+003;6.114782e-002
1.754979e+003;6.041311e-002
1.756907e+003;5.937958e-002
1.758836e+003;5.898756e-002
1.760764e+003;5.804739e-002
1.762693e+003;5.781128e-002
1.764621e+003;5.829109e-002
1.766550e+003;5.744991e-002
1.768479e+003;5.668080e-002
1.770407e+003;5.588497e-002
1.772336e+003;5.507123e-002
1.774264e+003;5.603249e-002
1.776193e+003;5.694621e-002
1.778121e+003;5.696944e-002
1.780050e+003;5.660583e-002
1.781978e+003;5.664105e-002
1.783907e+003;5.640989e-002
1.785835e+003;5.619858e-002
1.787764e+003;5.644305e-002
1.789693e+003;5.603475e-002
1.791621e+003;5.497461e-002
1.793550e+003;5.519127e-002
1.795478e+003;5.619243e-002
1.797407e+003;5.633496e-002
1.799335e+003;5.592699e-002
1.801264e+003;5.571090e-002
1.803192e+003;5.590879e-002
1.805121e+003;5.600908e-002
1.807049e+003;5.584672e-002
1.808978e+003;5.570766e-002
1.810907e+003;5.561542e-002
1.812835e+003;5.565263e-002
1.814764e+003;5.582856e-002
1.816692e+003;5.608520e-002
1.818621e+003;5.622531e-002
1.820549e+003;5.594828e-002
1.822478e+003;5.558066e-002
1.824406e+003;5.511603e-002
1.826335e+003;5.509598e-002
1.828264e+003;5.466620e-002
1.830192e+003;5.448383e-002
1.832121e+003;5.532147e-002
1.834049e+003;5.567395e-002
1.835978e+003;5.538500e-002
1.837906e+003;5.514481e-002
1.839835e+003;5.529049e-002
1.841763e+003;5.493437e-002
1.843692e+003;5.387406e-002
1.845620e+003;5.414823e-002
1.847549e+003;5.491016e-002
1.849478e+003;5.500864e-002
1.851406e+003;5.490083e-002
1.853335e+003;5.487699e-002
1.855263e+003;5.493674e-002
1.857192e+003;5.492640e-002
1.859120e+003;5.489000e-002
1.861049e+003;5.500191e-002
1.862977e+003;5.518976e-002
1.864906e+003;5.513002e-002
1.866834e+003;5.464129e-002
1.868763e+003;5.419943e-002
1.870692e+003;5.438044e-002
1.872620e+003;5.484211e-002
1.874549e+003;5.511204e-002
1.876477e+003;5.495423e-002
1.878406e+003;5.493351e-002
1.880334e+003;5.512961e-002
1.882263e+003;5.514763e-002
1.884191e+003;5.507028e-002
1.886120e+003;5.501451e-002
1.888048e+003;5.462690e-002
1.889977e+003;5.436745e-002
1.891906e+003;5.470728e-002
1.893834e+003;5.488399e-002
1.895763e+003;5.502094e-002
1.897691e+003;5.509560e-002
1.899620e+003;5.510719e-002
1.901548e+003;5.499435e-002
1.903477e+003;5.479294e-002
1.905405e+003;5.471919e-002
1.907334e+003;5.477944e-002
1.909262e+003;5.484181e-002
1.911191e+003;5.502015e-002
1.913120e+003;5.517532e-002
1.915048e+003;5.500868e-002
1.916977e+003;5.449634e-002
1.918905e+003;5.445638e-002
1.920834e+003;5.478384e-002
1.922762e+003;5.500390e-002
1.924691e+003;5.533385e-002
1.926619e+003;5.559486e-002
1.928548e+003;5.568661e-002
1.930477e+003;5.560808e-002
1.932405e+003;5.563034e-002
1.934334e+003;5.584118e-002
1.936262e+003;5.595281e-002
1.938191e+003;5.585957e-002
1.940119e+003;5.569591e-002
1.942048e+003;5.555815e-002
1.943976e+003;5.571881e-002
1.945905e+003;5.584657e-002
1.947833e+003;5.592748e-002
1.949762e+003;5.623180e-002
1.951691e+003;5.640400e-002
1.953619e+003;5.636016e-002
1.955548e+003;5.640423e-002
1.957476e+003;5.636605e-002
1.959405e+003;5.616294e-002
1.961333e+003;5.610600e-002
1.963262e+003;5.614786e-002
1.965190e+003;5.626526e-002
1.967119e+003;5.619401e-002
1.969047e+003;5.627506e-002
1.970976e+003;5.659069e-002
1.972905e+003;5.676552e-002
1.974833e+003;5.663576e-002
1.976762e+003;5.642457e-002
1.978690e+003;5.644102e-002
1.980619e+003;5.667026e-002
1.982547e+003;5.661776e-002
1.984476e+003;5.654234e-002
1.986404e+003;5.669937e-002
1.988333e+003;5.666071e-002
1.990261e+003;5.655476e-002
1.992190e+003;5.665849e-002
1.994119e+003;5.711948e-002
1.996047e+003;5.734675e-002
1.997976e+003;5.728595e-002
1.999904e+003;5.715891e-002
2.001833e+003;5.707010e-002
2.003761e+003;5.693095e-002
2.005690e+003;5.698403e-002
2.007618e+003;5.719436e-002
2.009547e+003;5.731699e-002
2.011476e+003;5.750184e-002
2.013404e+003;5.762971e-002
2.015333e+003;5.753297e-002
2.017261e+003;5.739235e-002
2.019190e+003;5.755393e-002
2.021118e+003;5.774323e-002
2.023047e+003;5.779694e-002
2.024975e+003;5.779750e-002
2.026904e+003;5.774751e-002
2.028833e+003;5.790895e-002
2.030761e+003;5.802319e-002
2.032690e+003;5.803315e-002
2.034618e+003;5.817545e-002
2.036547e+003;5.810136e-002
2.038475e+003;5.822213e-002
2.040404e+003;5.835123e-002
2.042332e+003;5.833801e-002
2.044261e+003;5.837893e-002
2.046189e+003;5.845099e-002
2.048118e+003;5.833694e-002
2.050047e+003;5.817629e-002
2.051975e+003;5.842286e-002
2.053904e+003;5.857721e-002
2.055832e+003;5.830977e-002
2.057761e+003;5.807507e-002
2.059689e+003;5.810041e-002
2.061618e+003;5.822914e-002
2.063546e+003;5.838780e-002
2.065475e+003;5.833838e-002
2.067404e+003;5.820887e-002
2.069332e+003;5.826502e-002
2.071260e+003;5.836814e-002
2.073189e+003;5.833039e-002
2.075118e+003;5.831796e-002
2.077046e+003;5.843211e-002
2.078975e+003;5.842802e-002
2.080903e+003;5.824115e-002
2.082832e+003;5.796377e-002
2.084760e+003;5.804284e-002
2.086689e+003;5.814939e-002
2.088617e+003;5.805432e-002
2.090546e+003;5.799608e-002
2.092475e+003;5.805689e-002
2.094403e+003;5.811927e-002
2.096332e+003;5.816409e-002
2.098260e+003;5.821864e-002
2.100189e+003;5.832357e-002
2.102117e+003;5.840262e-002
2.104046e+003;5.845493e-002
2.105974e+003;5.844261e-002
2.107903e+003;5.848094e-002
2.109832e+003;5.850971e-002
2.111760e+003;5.828328e-002
2.113688e+003;5.820981e-002
2.115617e+003;5.850528e-002
2.117546e+003;5.862559e-002
2.119474e+003;5.830485e-002
2.121403e+003;5.820133e-002
2.123331e+003;5.862263e-002
2.125260e+003;5.879264e-002
2.127188e+003;5.881851e-002
2.129117e+003;5.897610e-002
2.131045e+003;5.894179e-002
2.132974e+003;5.891371e-002
2.134903e+003;5.899443e-002
2.136831e+003;5.893523e-002
2.138760e+003;5.891864e-002
2.140688e+003;5.900240e-002
2.142617e+003;5.883410e-002
2.144545e+003;5.845626e-002
2.146474e+003;5.833766e-002
2.148402e+003;5.837268e-002
2.150331e+003;5.857777e-002
2.152260e+003;5.884063e-002
2.154188e+003;5.908227e-002
2.156117e+003;5.905619e-002
2.158045e+003;5.883289e-002
2.159974e+003;5.854634e-002
2.161902e+003;5.840971e-002
2.163831e+003;5.834278e-002
2.165759e+003;5.833122e-002
2.167688e+003;5.826422e-002
2.169616e+003;5.822815e-002
2.171545e+003;5.815011e-002
2.173474e+003;5.817818e-002
2.175402e+003;5.821296e-002
2.177331e+003;5.814731e-002
2.179259e+003;5.810038e-002
2.181188e+003;5.779690e-002
2.183116e+003;5.762433e-002
2.185045e+003;5.780155e-002
2.186973e+003;5.788555e-002
2.188902e+003;5.782551e-002
2.190831e+003;5.782782e-002
2.192759e+003;5.802474e-002
2.194688e+003;5.792610e-002
2.196616e+003;5.761983e-002
2.198545e+003;5.744204e-002
2.200473e+003;5.767443e-002
2.202402e+003;5.783854e-002
2.204330e+003;5.784228e-002
2.206259e+003;5.786924e-002
2.208188e+003;5.756985e-002
2.210116e+003;5.724297e-002
2.212044e+003;5.752730e-002
2.213973e+003;5.769691e-002
2.215902e+003;5.779202e-002
2.217830e+003;5.787968e-002
2.219759e+003;5.782581e-002
2.221687e+003;5.780727e-002
2.223616e+003;5.766717e-002
2.225544e+003;5.769373e-002
2.227473e+003;5.765525e-002
2.229401e+003;5.755249e-002
2.231330e+003;5.781525e-002
2.233259e+003;5.806947e-002
2.235187e+003;5.800880e-002
2.237116e+003;5.784694e-002
2.239044e+003;5.789634e-002
2.240973e+003;5.797729e-002
2.242901e+003;5.795374e-002
2.244830e+003;5.786587e-002
2.246758e+003;5.797180e-002
2.248687e+003;5.811556e-002
2.250615e+003;5.811102e-002
2.252544e+003;5.805580e-002
2.254473e+003;5.787484e-002
2.256401e+003;5.766508e-002
2.258330e+003;5.764605e-002
2.260258e+003;5.777404e-002
2.262187e+003;5.788339e-002
2.264115e+003;5.766160e-002
2.266044e+003;5.740559e-002
2.267972e+003;5.719534e-002
2.269901e+003;5.708850e-002
2.271830e+003;5.722864e-002
2.273758e+003;5.718540e-002
2.275687e+003;5.714568e-002
2.277615e+003;5.714488e-002
2.279544e+003;5.686262e-002
2.281472e+003;5.685767e-002
2.283401e+003;5.716964e-002
2.285329e+003;5.705445e-002
2.287258e+003;5.690334e-002
2.289187e+003;5.705619e-002
2.291115e+003;5.697152e-002
2.293043e+003;5.675941e-002
2.294972e+003;5.676688e-002
2.296901e+003;5.690228e-002
2.298829e+003;5.698618e-002
2.300758e+003;5.691293e-002
2.302686e+003;5.681242e-002
2.304615e+003;5.689026e-002
2.306543e+003;5.690137e-002
2.308472e+003;5.690160e-002
2.310400e+003;5.686772e-002
2.312329e+003;5.688415e-002
2.314258e+003;5.690828e-002
2.316186e+003;5.687021e-002
2.318115e+003;5.672187e-002
2.320043e+003;5.655015e-002
2.321972e+003;5.656378e-002
2.323900e+003;5.638801e-002
2.325829e+003;5.622536e-002
2.327757e+003;5.623195e-002
2.329686e+003;5.615099e-002
2.331615e+003;5.606246e-002
2.333543e+003;5.592028e-002
2.335472e+003;5.594862e-002
2.337400e+003;5.607995e-002
2.339329e+003;5.623259e-002
2.341257e+003;5.648585e-002
2.343186e+003;5.688218e-002
2.345114e+003;5.705162e-002
2.347043e+003;5.705030e-002
2.348971e+003;5.707973e-002
2.350900e+003;5.724131e-002
2.352829e+003;5.733794e-002
2.354757e+003;5.720766e-002
2.356686e+003;5.689159e-002
2.358614e+003;5.658733e-002
2.360543e+003;5.637224e-002
2.362471e+003;5.644649e-002
2.364400e+003;5.685824e-002
2.366328e+003;5.718888e-002
2.368257e+003;5.723174e-002
2.370186e+003;5.734834e-002
2.372114e+003;5.757008e-002
2.374042e+003;5.789528e-002
2.375971e+003;5.818591e-002
2.377900e+003;5.855715e-002
2.379828e+003;5.881286e-002
2.381757e+003;5.899565e-002
2.383685e+003;5.904252e-002
2.385614e+003;5.912073e-002
2.387542e+003;5.902184e-002
2.389471e+003;5.913068e-002
2.391399e+003;5.942851e-002
2.393328e+003;5.937912e-002
2.395257e+003;5.935458e-002
2.397185e+003;5.920924e-002
2.399114e+003;5.922256e-002
2.401042e+003;5.928234e-002
2.402971e+003;5.932780e-002
2.404899e+003;5.961578e-002
2.406828e+003;5.985546e-002
2.408756e+003;5.983603e-002
2.410685e+003;5.950462e-002
2.412614e+003;5.943900e-002
2.414542e+003;5.984827e-002
2.416471e+003;6.002846e-002
2.418399e+003;5.996934e-002
2.420328e+003;6.023456e-002
2.422256e+003;6.044160e-002
2.424185e+003;6.041719e-002
2.426113e+003;6.058827e-002
2.428042e+003;6.064957e-002
2.429970e+003;6.059209e-002
2.431899e+003;6.071507e-002
2.433828e+003;6.071702e-002
2.435756e+003;6.085612e-002
2.437685e+003;6.119669e-002
2.439613e+003;6.091929e-002
2.441542e+003;6.082761e-002
2.443470e+003;6.132367e-002
2.445399e+003;6.142228e-002
2.447327e+003;6.120276e-002
2.449256e+003;6.117571e-002
2.451185e+003;6.126727e-002
2.453113e+003;6.109000e-002
2.455042e+003;6.085269e-002
2.456970e+003;6.118284e-002
2.458899e+003;6.145797e-002
2.460827e+003;6.135518e-002
2.462756e+003;6.141968e-002
2.464684e+003;6.138805e-002
2.466613e+003;6.150965e-002
2.468542e+003;6.187618e-002
2.470470e+003;6.181215e-002
2.472398e+003;6.160354e-002
2.474327e+003;6.164313e-002
2.476256e+003;6.178567e-002
2.478184e+003;6.208301e-002
2.480113e+003;6.209333e-002
2.482041e+003;6.184810e-002
2.483970e+003;6.182552e-002
2.485898e+003;6.211000e-002
2.487827e+003;6.212915e-002
2.489755e+003;6.208197e-002
2.491684e+003;6.186223e-002
2.493613e+003;6.195955e-002
2.495541e+003;6.209612e-002
2.497470e+003;6.215874e-002
2.499398e+003;6.239990e-002
2.501327e+003;6.258402e-002
2.503255e+003;6.267174e-002
2.505184e+003;6.248885e-002
2.507112e+003;6.235633e-002
2.509041e+003;6.252466e-002
2.510969e+003;6.293264e-002
2.512898e+003;6.294256e-002
2.514827e+003;6.298018e-002
2.516755e+003;6.309683e-002
2.518684e+003;6.313101e-002
2.520612e+003;6.320995e-002
2.522541e+003;6.330911e-002
2.524469e+003;6.334572e-002
2.526398e+003;6.345354e-002
2.528326e+003;6.342969e-002
2.530255e+003;6.340967e-002
2.532184e+003;6.359655e-002
2.534112e+003;6.393033e-002
2.536041e+003;6.412382e-002
2.537969e+003;6.393313e-002
2.539898e+003;6.374235e-002
2.541826e+003;6.380616e-002
2.543755e+003;6.404456e-002
2.545683e+003;6.412654e-002
2.547612e+003;6.410923e-002
2.549541e+003;6.407896e-002
2.551469e+003;6.424036e-002
2.553397e+003;6.437825e-002
2.555326e+003;6.405988e-002
2.557255e+003;6.416837e-002
2.559183e+003;6.446250e-002
2.561112e+003;6.467483e-002
2.563040e+003;6.464126e-002
2.564969e+003;6.433230e-002
2.566897e+003;6.433699e-002
2.568826e+003;6.456845e-002
2.570754e+003;6.482472e-002
2.572683e+003;6.480113e-002
2.574612e+003;6.447396e-002
2.576540e+003;6.433173e-002
2.578469e+003;6.449483e-002
2.580397e+003;6.430098e-002
2.582326e+003;6.430175e-002
2.584254e+003;6.464280e-002
2.586183e+003;6.478506e-002
2.588111e+003;6.521361e-002
2.590040e+003;6.555553e-002
2.591969e+003;6.508361e-002
2.593897e+003;6.476410e-002
2.595826e+003;6.495553e-002
2.597754e+003;6.507483e-002
2.599683e+003;6.484161e-002
2.601611e+003;6.487481e-002
2.603540e+003;6.534643e-002
2.605468e+003;6.559214e-002
2.607397e+003;6.571022e-002
2.609325e+003;6.583440e-002
2.611254e+003;6.594469e-002
2.613183e+003;6.580001e-002
2.615111e+003;6.564131e-002
2.617040e+003;6.592286e-002
2.618968e+003;6.619665e-002
2.620897e+003;6.622771e-002
2.622825e+003;6.619943e-002
2.624754e+003;6.623007e-002
2.626682e+003;6.644998e-002
2.628611e+003;6.658480e-002
2.630540e+003;6.671101e-002
2.632468e+003;6.675938e-002
2.634396e+003;6.671282e-002
2.636325e+003;6.656221e-002
2.638254e+003;6.657893e-002
2.640182e+003;6.674366e-002
2.642111e+003;6.675401e-002
2.644039e+003;6.684262e-002
2.645968e+003;6.696959e-002
2.647896e+003;6.696028e-002
2.649825e+003;6.705341e-002
2.651753e+003;6.728771e-002
2.653682e+003;6.736761e-002
2.655611e+003;6.729823e-002
2.657539e+003;6.730319e-002
2.659468e+003;6.738827e-002
2.661396e+003;6.772025e-002
2.663325e+003;6.786131e-002
2.665253e+003;6.752171e-002
2.667182e+003;6.733135e-002
2.669110e+003;6.755628e-002
2.671039e+003;6.765055e-002
2.672968e+003;6.770670e-002
2.674896e+003;6.780472e-002
2.676825e+003;6.765474e-002
2.678753e+003;6.768338e-002
2.680682e+003;6.803412e-002
2.682610e+003;6.820633e-002
2.684539e+003;6.822870e-002
2.686467e+003;6.831060e-002
2.688396e+003;6.828578e-002
2.690324e+003;6.818024e-002
2.692253e+003;6.848063e-002
2.694182e+003;6.872929e-002
2.696110e+003;6.877319e-002
2.698039e+003;6.880130e-002
2.699967e+003;6.891894e-002
2.701896e+003;6.898177e-002
2.703824e+003;6.924941e-002
2.705753e+003;6.963474e-002
2.707681e+003;6.955727e-002
2.709610e+003;6.949618e-002
2.711539e+003;6.956971e-002
2.713467e+003;6.971297e-002
2.715396e+003;7.002898e-002
2.717324e+003;7.020604e-002
2.719253e+003;7.012780e-002
2.721181e+003;7.003763e-002
2.723110e+003;7.006083e-002
2.725038e+003;7.026049e-002
2.726967e+003;7.048293e-002
2.728896e+003;7.051092e-002
2.730824e+003;7.070123e-002
2.732752e+003;7.056022e-002
2.734681e+003;7.026443e-002
2.736610e+003;7.053266e-002
2.738538e+003;7.090786e-002
2.740467e+003;7.057067e-002
2.742395e+003;7.041754e-002
2.744324e+003;7.078382e-002
2.746252e+003;7.079892e-002
2.748181e+003;7.078238e-002
2.750109e+003;7.088726e-002
2.752038e+003;7.107943e-002
2.753967e+003;7.149783e-002
2.755895e+003;7.160784e-002
2.757824e+003;7.164910e-002
2.759752e+003;7.186659e-002
2.761681e+003;7.165942e-002
2.763609e+003;7.145127e-002
2.765538e+003;7.153283e-002
2.767466e+003;7.141916e-002
2.769395e+003;7.145861e-002
2.771323e+003;7.171460e-002
2.773252e+003;7.203325e-002
2.775181e+003;7.224141e-002
2.777109e+003;7.204185e-002
2.779038e+003;7.214176e-002
2.780966e+003;7.264405e-002
2.782895e+003;7.290711e-002
2.784823e+003;7.302164e-002
2.786752e+003;7.322470e-002
2.788680e+003;7.338663e-002
2.790609e+003;7.351549e-002
2.792538e+003;7.363148e-002
2.794466e+003;7.382333e-002
2.796395e+003;7.424167e-002
2.798323e+003;7.444862e-002
2.800252e+003;7.445676e-002
2.802180e+003;7.445003e-002
2.804109e+003;7.484095e-002
2.806037e+003;7.539037e-002
2.807966e+003;7.596412e-002
2.809895e+003;7.645008e-002
2.811823e+003;7.640412e-002
2.813751e+003;7.658567e-002
2.815680e+003;7.726537e-002
2.817609e+003;7.764905e-002
2.819537e+003;7.803643e-002
2.821466e+003;7.874412e-002
2.823394e+003;7.929512e-002
2.825323e+003;7.960848e-002
2.827251e+003;8.037574e-002
2.829180e+003;8.130919e-002
2.831108e+003;8.203952e-002
2.833037e+003;8.309671e-002
2.834966e+003;8.422235e-002
2.836894e+003;8.570112e-002
2.838823e+003;8.780363e-002
2.840751e+003;9.050777e-002
2.842680e+003;9.467722e-002
2.844608e+003;1.008663e-001
2.846537e+003;1.096771e-001
2.848465e+003;1.188688e-001
2.850394e+003;1.212413e-001
2.852323e+003;1.150987e-001
2.854251e+003;1.070568e-001
2.856180e+003;1.021895e-001
2.858108e+003;9.966996e-002
2.860037e+003;9.837277e-002
2.861965e+003;9.845353e-002
2.863894e+003;9.880685e-002
2.865822e+003;9.923165e-002
2.867751e+003;9.995370e-002
2.869679e+003;1.006587e-001
2.871608e+003;1.014281e-001
2.873536e+003;1.018727e-001
2.875465e+003;1.019971e-001
2.877394e+003;1.019379e-001
2.879322e+003;1.016892e-001
2.881251e+003;1.016429e-001
2.883179e+003;1.020898e-001
2.885108e+003;1.031036e-001
2.887036e+003;1.045363e-001
2.888965e+003;1.056755e-001
2.890893e+003;1.064991e-001
2.892822e+003;1.076323e-001
2.894750e+003;1.088910e-001
2.896679e+003;1.097508e-001
2.898608e+003;1.101271e-001
2.900536e+003;1.109646e-001
2.902465e+003;1.121452e-001
2.904393e+003;1.129500e-001
2.906322e+003;1.141838e-001
2.908250e+003;1.161825e-001
2.910179e+003;1.195136e-001
2.912107e+003;1.243708e-001
2.914036e+003;1.302621e-001
2.915965e+003;1.359583e-001
2.917893e+003;1.386314e-001
2.919822e+003;1.374780e-001
2.921750e+003;1.333088e-001
2.923679e+003;1.271908e-001
2.925607e+003;1.210642e-001
2.927536e+003;1.161053e-001
2.929464e+003;1.118520e-001
2.931393e+003;1.081961e-001
2.933322e+003;1.051416e-001
2.935250e+003;1.024870e-001
2.937178e+003;1.000481e-001
2.939107e+003;9.830421e-002
2.941036e+003;9.736490e-002
2.942964e+003;9.615492e-002
2.944893e+003;9.490519e-002
2.946821e+003;9.415033e-002
2.948750e+003;9.351433e-002
2.950678e+003;9.300993e-002
2.952607e+003;9.332012e-002
2.954535e+003;9.357914e-002
2.956464e+003;9.381521e-002
2.958393e+003;9.431107e-002
2.960321e+003;9.397019e-002
2.962250e+003;9.269410e-002
2.964178e+003;9.123159e-002
2.966107e+003;8.950102e-002
2.968035e+003;8.780010e-002
2.969964e+003;8.589794e-002
2.971892e+003;8.391760e-002
2.973821e+003;8.222623e-002
2.975750e+003;8.081517e-002
2.977678e+003;7.938935e-002
2.979607e+003;7.757196e-002
2.981535e+003;7.610528e-002
2.983464e+003;7.510903e-002
2.985392e+003;7.424179e-002
2.987321e+003;7.296769e-002
2.989249e+003;7.232508e-002
2.991178e+003;7.228861e-002
2.993106e+003;7.190487e-002
2.995035e+003;7.158022e-002
2.996964e+003;7.139003e-002
2.998892e+003;7.119901e-002
3.000821e+003;7.125430e-002
3.002749e+003;7.124747e-002
3.004678e+003;7.089514e-002
3.006606e+003;7.043258e-002
3.008535e+003;7.030927e-002
3.010463e+003;7.102003e-002
3.012392e+003;7.154396e-002
3.014321e+003;7.133242e-002
3.016249e+003;7.151829e-002
3.018177e+003;7.189982e-002
3.020106e+003;7.229652e-002
3.022035e+003;7.260176e-002
3.023963e+003;7.254243e-002
3.025892e+003;7.272553e-002
3.027820e+003;7.293015e-002
3.029749e+003;7.300764e-002
3.031677e+003;7.317090e-002
3.033606e+003;7.318038e-002
3.035534e+003;7.340907e-002
3.037463e+003;7.357786e-002
3.039392e+003;7.320164e-002
3.041320e+003;7.288441e-002
3.043249e+003;7.318494e-002
3.045177e+003;7.334234e-002
3.047106e+003;7.345533e-002
3.049034e+003;7.372919e-002
3.050963e+003;7.412953e-002
3.052891e+003;7.421918e-002
3.054820e+003;7.408842e-002
3.056749e+003;7.406940e-002
3.058677e+003;7.412595e-002
3.060606e+003;7.440948e-002
3.062534e+003;7.491906e-002
3.064463e+003;7.484359e-002
3.066391e+003;7.464940e-002
3.068320e+003;7.499718e-002
3.070248e+003;7.501592e-002
3.072177e+003;7.517324e-002
3.074105e+003;7.526536e-002
3.076034e+003;7.526387e-002
3.077963e+003;7.560354e-002
3.079891e+003;7.579263e-002
3.081820e+003;7.601164e-002
3.083748e+003;7.649844e-002
3.085677e+003;7.659839e-002
3.087605e+003;7.654887e-002
3.089534e+003;7.669943e-002
3.091462e+003;7.682247e-002
3.093391e+003;7.696344e-002
3.095320e+003;7.745602e-002
3.097248e+003;7.775889e-002
3.099177e+003;7.799060e-002
3.101105e+003;7.829484e-002
3.103034e+003;7.850602e-002
3.104962e+003;7.890840e-002
3.106891e+003;7.930248e-002
3.108819e+003;7.962655e-002
3.110748e+003;7.965994e-002
3.112677e+003;7.946581e-002
3.114605e+003;7.938955e-002
3.116533e+003;7.967713e-002
3.118462e+003;8.008857e-002
3.120391e+003;8.041605e-002
3.122319e+003;8.021490e-002
3.124248e+003;8.046605e-002
3.126176e+003;8.131254e-002
3.128105e+003;8.199870e-002
3.130033e+003;8.201563e-002
3.131962e+003;8.158589e-002
3.133890e+003;8.144742e-002
3.135819e+003;8.190907e-002
3.137748e+003;8.217310e-002
3.139676e+003;8.275970e-002
3.141605e+003;8.348618e-002
3.143533e+003;8.395410e-002
3.145462e+003;8.409510e-002
3.147390e+003;8.428571e-002
3.149319e+003;8.444075e-002
3.151247e+003;8.421917e-002
3.153176e+003;8.469336e-002
3.155104e+003;8.532136e-002
3.157033e+003;8.550864e-002
3.158962e+003;8.615067e-002
3.160890e+003;8.669376e-002
3.162819e+003;8.693902e-002
3.164747e+003;8.694842e-002
3.166676e+003;8.703938e-002
3.168604e+003;8.763227e-002
3.170533e+003;8.815318e-002
3.172461e+003;8.848871e-002
3.174390e+003;8.889821e-002
3.176319e+003;8.913557e-002
3.178247e+003;8.976604e-002
3.180176e+003;9.009434e-002
3.182104e+003;9.047394e-002
3.184033e+003;9.120253e-002
3.185961e+003;9.163203e-002
3.187890e+003;9.184493e-002
3.189818e+003;9.173286e-002
3.191747e+003;9.220836e-002
3.193676e+003;9.329547e-002
3.195604e+003;9.347447e-002
3.197532e+003;9.353895e-002
3.199461e+003;9.421198e-002
3.201390e+003;9.474766e-002
3.203318e+003;9.491933e-002
3.205247e+003;9.527908e-002
3.207175e+003;9.572683e-002
3.209104e+003;9.626893e-002
3.211032e+003;9.738554e-002
3.212961e+003;9.795744e-002
3.214889e+003;9.815573e-002
3.216818e+003;9.880830e-002
3.218747e+003;9.895451e-002
3.220675e+003;9.872200e-002
3.222604e+003;9.929074e-002
3.224532e+003;1.002145e-001
3.226461e+003;1.004971e-001
3.228389e+003;1.009450e-001
3.230318e+003;1.017353e-001
3.232246e+003;1.028384e-001
3.234175e+003;1.033889e-001
3.236104e+003;1.034593e-001
3.238032e+003;1.037916e-001
3.239961e+003;1.042983e-001
3.241889e+003;1.056392e-001
3.243818e+003;1.066520e-001
3.245746e+003;1.071889e-001
3.247675e+003;1.079896e-001
3.249603e+003;1.089385e-001
3.251532e+003;1.097089e-001
3.253460e+003;1.103598e-001
3.255389e+003;1.114107e-001
3.257318e+003;1.121891e-001
3.259246e+003;1.121185e-001
3.261175e+003;1.123511e-001
3.263103e+003;1.133396e-001
3.265032e+003;1.144359e-001
3.266960e+003;1.154162e-001
3.268889e+003;1.161725e-001
3.270817e+003;1.164723e-001
3.272746e+003;1.164722e-001
3.274675e+003;1.166557e-001
3.276603e+003;1.169831e-001
3.278531e+003;1.175114e-001
3.280460e+003;1.181367e-001
3.282389e+003;1.181181e-001
3.284317e+003;1.183029e-001
3.286246e+003;1.187370e-001
3.288174e+003;1.190830e-001
3.290103e+003;1.188086e-001
3.292031e+003;1.181893e-001
3.293960e+003;1.178635e-001
3.295888e+003;1.182099e-001
3.297817e+003;1.187800e-001
3.299746e+003;1.185493e-001
3.301674e+003;1.180914e-001
3.303603e+003;1.175463e-001
3.305531e+003;1.173836e-001
3.307460e+003;1.178485e-001
3.309388e+003;1.177509e-001
3.311317e+003;1.169609e-001
3.313245e+003;1.167204e-001
3.315174e+003;1.174433e-001
3.317103e+003;1.181943e-001
3.319031e+003;1.188137e-001
3.320960e+003;1.189628e-001
3.322888e+003;1.191834e-001
3.324817e+003;1.200414e-001
3.326745e+003;1.209727e-001
3.328674e+003;1.215760e-001
3.330602e+003;1.221136e-001
3.332531e+003;1.227658e-001
3.334459e+003;1.222416e-001
3.336388e+003;1.208579e-001
3.338317e+003;1.205464e-001
3.340245e+003;1.205650e-001
3.342174e+003;1.200135e-001
3.344102e+003;1.193622e-001
3.346031e+003;1.185684e-001
3.347959e+003;1.177562e-001
3.349888e+003;1.175826e-001
3.351816e+003;1.166898e-001
3.353745e+003;1.153008e-001
3.355674e+003;1.142632e-001
3.357602e+003;1.132613e-001
3.359531e+003;1.122653e-001
3.361459e+003;1.115894e-001
3.363388e+003;1.106317e-001
3.365316e+003;1.099004e-001
3.367245e+003;1.095083e-001
3.369173e+003;1.088819e-001
3.371102e+003;1.081460e-001
3.373031e+003;1.077833e-001
3.374959e+003;1.069476e-001
3.376887e+003;1.062352e-001
3.378816e+003;1.053788e-001
3.380745e+003;1.045033e-001
3.382673e+003;1.043292e-001
3.384602e+003;1.035396e-001
3.386530e+003;1.027343e-001
3.388459e+003;1.025827e-001
3.390387e+003;1.020050e-001
3.392316e+003;1.013301e-001
3.394244e+003;1.011422e-001
3.396173e+003;1.006109e-001
3.398102e+003;1.001331e-001
3.400030e+003;9.982739e-002
3.401959e+003;9.910280e-002
3.403887e+003;9.830628e-002
3.405816e+003;9.768243e-002
3.407744e+003;9.701701e-002
3.409673e+003;9.675770e-002
3.411601e+003;9.687634e-002
3.413530e+003;9.620284e-002
3.415458e+003;9.452171e-002
3.417387e+003;9.287626e-002
3.419316e+003;9.156428e-002
3.421244e+003;9.072368e-002
3.423173e+003;9.037969e-002
3.425101e+003;9.007306e-002
3.427030e+003;8.959838e-002
3.428958e+003;8.888833e-002
3.430887e+003;8.803780e-002
3.432815e+003;8.785859e-002
3.434744e+003;8.739638e-002
3.436673e+003;8.635338e-002
3.438601e+003;8.547342e-002
3.440530e+003;8.494257e-002
3.442458e+003;8.474189e-002
3.444387e+003;8.442715e-002
3.446315e+003;8.385678e-002
3.448244e+003;8.299212e-002
3.450172e+003;8.176657e-002
3.452101e+003;8.100251e-002
3.454030e+003;8.034918e-002
3.455958e+003;8.002909e-002
3.457886e+003;7.997631e-002
3.459815e+003;7.907779e-002
3.461744e+003;7.833257e-002
3.463672e+003;7.762460e-002
3.465601e+003;7.730334e-002
3.467529e+003;7.751805e-002
3.469458e+003;7.691146e-002
3.471386e+003;7.556576e-002
3.473315e+003;7.462099e-002
3.475243e+003;7.414686e-002
3.477172e+003;7.369991e-002
3.479101e+003;7.273290e-002
3.481029e+003;7.203509e-002
3.482958e+003;7.165591e-002
3.484886e+003;7.099689e-002
3.486815e+003;7.039864e-002
3.488743e+003;7.000722e-002
3.490672e+003;6.944738e-002
3.492600e+003;6.899634e-002
3.494529e+003;6.872731e-002
3.496458e+003;6.785062e-002
3.498386e+003;6.679822e-002
3.500315e+003;6.599510e-002
3.502243e+003;6.534134e-002
3.504172e+003;6.516129e-002
3.506100e+003;6.598357e-002
3.508029e+003;6.635489e-002
3.509957e+003;6.565820e-002
3.511886e+003;6.470237e-002
3.513814e+003;6.385668e-002
3.515743e+003;6.342562e-002
3.517672e+003;6.335457e-002
3.519600e+003;6.283733e-002
3.521529e+003;6.170149e-002
3.523457e+003;6.076156e-002
3.525386e+003;6.050409e-002
3.527314e+003;6.005718e-002
3.529243e+003;5.992841e-002
3.531171e+003;6.036167e-002
3.533100e+003;6.060706e-002
3.535029e+003;6.023471e-002
3.536957e+003;5.926358e-002
3.538885e+003;5.849610e-002
3.540814e+003;5.797619e-002
3.542743e+003;5.746326e-002
3.544671e+003;5.687482e-002
3.546600e+003;5.653513e-002
3.548528e+003;5.660828e-002
3.550457e+003;5.663984e-002
3.552385e+003;5.643977e-002
3.554314e+003;5.580418e-002
3.556242e+003;5.545351e-002
3.558171e+003;5.535515e-002
3.560100e+003;5.461157e-002
3.562028e+003;5.406990e-002
3.563957e+003;5.374796e-002
3.565885e+003;5.237238e-002
3.567814e+003;5.158172e-002
3.569742e+003;5.212130e-002
3.571671e+003;5.251457e-002
3.573599e+003;5.231396e-002
3.575528e+003;5.225690e-002
3.577457e+003;5.208476e-002
3.579385e+003;5.121136e-002
3.581314e+003;5.076650e-002
3.583242e+003;5.063918e-002
3.585171e+003;4.993618e-002
3.587099e+003;4.924950e-002
3.589028e+003;4.933594e-002
3.590956e+003;4.992023e-002
3.592885e+003;4.950457e-002
3.594813e+003;4.892203e-002
3.596742e+003;4.877683e-002
3.598671e+003;4.833718e-002
3.600599e+003;4.789462e-002
3.602528e+003;4.794402e-002
3.604456e+003;4.807269e-002
3.606385e+003;4.790398e-002
3.608313e+003;4.706453e-002
3.610242e+003;4.661987e-002
3.612170e+003;4.637183e-002
3.614099e+003;4.638425e-002
3.616028e+003;4.636375e-002
3.617956e+003;4.594757e-002
3.619885e+003;4.609279e-002
3.621813e+003;4.651958e-002
3.623742e+003;4.580480e-002
3.625670e+003;4.469273e-002
3.627599e+003;4.306506e-002
3.629527e+003;4.309119e-002
3.631456e+003;4.436185e-002
3.633385e+003;4.427301e-002
3.635313e+003;4.445738e-002
3.637241e+003;4.477654e-002
3.639170e+003;4.476795e-002
3.641099e+003;4.460037e-002
3.643027e+003;4.418764e-002
3.644956e+003;4.336618e-002
3.646884e+003;4.150691e-002
3.648813e+003;4.000347e-002
3.650741e+003;4.051597e-002
3.652670e+003;4.176418e-002
3.654598e+003;4.144537e-002
3.656527e+003;4.096239e-002
3.658456e+003;4.175280e-002
3.660384e+003;4.252020e-002
3.662313e+003;4.236843e-002
3.664241e+003;4.188932e-002
3.666170e+003;4.132630e-002
3.668098e+003;3.966079e-002
3.670027e+003;3.857909e-002
3.671955e+003;3.934155e-002
3.673884e+003;3.801773e-002
3.675813e+003;3.735261e-002
3.677741e+003;3.944429e-002
3.679669e+003;4.015020e-002
3.681598e+003;4.025917e-002
3.683527e+003;3.966601e-002
3.685455e+003;3.860415e-002
3.687384e+003;3.671711e-002
3.689312e+003;3.696742e-002
3.691241e+003;3.874874e-002
3.693169e+003;3.939219e-002
3.695098e+003;3.933553e-002
3.697026e+003;3.897680e-002
3.698955e+003;3.852035e-002
3.700884e+003;3.799954e-002
3.702812e+003;3.829853e-002
3.704741e+003;3.857170e-002
3.706669e+003;3.813065e-002
3.708598e+003;3.687817e-002
3.710526e+003;3.600002e-002
3.712455e+003;3.644479e-002
3.714383e+003;3.765005e-002
3.716312e+003;3.803100e-002
3.718240e+003;3.803089e-002
3.720169e+003;3.815959e-002
3.722098e+003;3.782693e-002
3.724026e+003;3.723405e-002
3.725955e+003;3.682483e-002
3.727883e+003;3.720650e-002
3.729812e+003;3.698900e-002
3.731740e+003;3.613774e-002
3.733669e+003;3.561854e-002
3.735597e+003;3.485034e-002
3.737526e+003;3.626328e-002
3.739455e+003;3.771896e-002
3.741383e+003;3.648904e-002
3.743312e+003;3.339972e-002
3.745240e+003;3.402931e-002
3.747169e+003;3.541556e-002
3.749097e+003;3.383850e-002
3.751026e+003;3.359907e-002
3.752954e+003;3.570339e-002
3.754883e+003;3.743669e-002
3.756812e+003;3.743766e-002
3.758740e+003;3.759834e-002
3.760668e+003;3.744384e-002
3.762597e+003;3.761193e-002
3.764526e+003;3.740877e-002
3.766454e+003;3.768213e-002
3.768383e+003;3.767469e-002
3.770311e+003;3.826868e-002
3.772240e+003;3.876403e-002
3.774168e+003;3.850975e-002
3.776097e+003;3.814404e-002
3.778025e+003;3.814747e-002
3.779954e+003;3.863642e-002
3.781883e+003;3.883134e-002
3.783811e+003;3.829618e-002
3.785740e+003;3.791178e-002
3.787668e+003;3.830248e-002
3.789597e+003;3.922552e-002
3.791525e+003;3.855023e-002
3.793454e+003;3.773732e-002
3.795382e+003;3.722643e-002
3.797311e+003;3.759704e-002
3.799240e+003;3.695302e-002
3.801168e+003;3.595445e-002
3.803097e+003;3.724293e-002
3.805025e+003;3.753895e-002
3.806954e+003;3.754837e-002
3.808882e+003;3.838214e-002
3.810811e+003;3.890729e-002
3.812739e+003;3.882743e-002
3.814668e+003;3.686562e-002
3.816596e+003;3.661649e-002
3.818525e+003;3.711674e-002
3.820454e+003;3.529252e-002
3.822382e+003;3.560160e-002
3.824311e+003;3.751933e-002
3.826239e+003;3.866546e-002
3.828168e+003;3.890226e-002
3.830096e+003;3.798916e-002
3.832025e+003;3.789110e-002
3.833953e+003;3.818669e-002
3.835882e+003;3.676525e-002
3.837811e+003;3.562620e-002
3.839739e+003;3.687893e-002
3.841667e+003;3.777769e-002
3.843596e+003;3.805350e-002
3.845525e+003;3.860958e-002
3.847453e+003;3.885747e-002
3.849382e+003;3.806087e-002
3.851310e+003;3.538159e-002
3.853239e+003;3.314223e-002
3.855167e+003;3.563599e-002
3.857096e+003;3.858778e-002
3.859024e+003;3.965399e-002
3.860953e+003;3.972461e-002
3.862882e+003;3.859184e-002
3.864810e+003;3.842586e-002
3.866739e+003;3.901885e-002
3.868667e+003;3.799390e-002
3.870596e+003;3.806800e-002
3.872524e+003;3.875222e-002
3.874453e+003;3.900424e-002
3.876381e+003;4.007087e-002
3.878310e+003;3.965255e-002
3.880239e+003;3.886301e-002
3.882167e+003;3.938109e-002
3.884096e+003;3.900595e-002
3.886024e+003;3.884754e-002
3.887953e+003;3.929062e-002
3.889881e+003;3.887207e-002
3.891810e+003;3.925192e-002
3.893738e+003;3.998716e-002
3.895667e+003;4.000271e-002
3.897595e+003;3.952928e-002
3.899524e+003;3.880406e-002
3.901453e+003;3.798359e-002
3.903381e+003;3.804974e-002
3.905310e+003;3.932062e-002
3.907238e+003;4.063274e-002
3.909167e+003;4.104367e-002
3.911095e+003;4.155944e-002
3.913024e+003;4.134040e-002
3.914952e+003;4.018745e-002
3.916881e+003;3.989699e-002
3.918810e+003;4.000572e-002
3.920738e+003;4.011934e-002
3.922667e+003;4.025768e-002
3.924595e+003;4.061702e-002
3.926524e+003;4.088696e-002
3.928452e+003;4.064409e-002
3.930381e+003;3.994273e-002
3.932309e+003;3.957864e-002
3.934238e+003;3.986983e-002
3.936167e+003;3.990989e-002
3.938095e+003;4.073405e-002
3.940023e+003;4.154405e-002
3.941952e+003;4.081768e-002
3.943881e+003;4.048603e-002
3.945809e+003;4.037100e-002
3.947738e+003;4.001466e-002
3.949666e+003;4.034384e-002
3.951595e+003;4.077353e-002
3.953523e+003;4.100769e-002
3.955452e+003;4.130349e-002
3.957380e+003;4.163197e-002
3.959309e+003;4.199913e-002
3.961238e+003;4.251513e-002
3.963166e+003;4.243697e-002
3.965095e+003;4.139237e-002
3.967023e+003;4.059243e-002
3.968952e+003;4.130702e-002
3.970880e+003;4.250296e-002
3.972809e+003;4.205228e-002
3.974737e+003;4.107445e-002
3.976666e+003;4.109025e-002
3.978594e+003;4.170258e-002
3.980523e+003;4.127058e-002
3.982452e+003;4.077466e-002
3.984380e+003;4.126140e-002
3.986309e+003;4.155292e-002
3.988237e+003;4.177827e-002
3.990166e+003;4.174124e-002
3.992094e+003;4.186444e-002
3.994023e+003;4.210109e-002
3.995951e+003;4.231456e-002
3.997880e+003;4.188750e-002
3.999809e+003;4.107073e-002
4.001737e+003;0.000000e+000
