3.992094e+002;0.000000e+000
4.011380e+002;0.000000e+000
4.030665e+002;0.000000e+000
4.049951e+002;0.000000e+000
4.069236e+002;0.000000e+000
4.088522e+002;0.000000e+000
4.107807e+002;0.000000e+000
4.127093e+002;0.000000e+000
4.146378e+002;0.000000e+000
4.165664e+002;0.000000e+000
4.184949e+002;0.000000e+000
4.204235e+002;0.000000e+000
4.223520e+002;0.000000e+000
4.242806e+002;0.000000e+000
4.262091e+002;0.000000e+000
4.281377e+002;0.000000e+000
4.300662e+002;0.000000e+000
4.319948e+002;0.000000e+000
4.339233e+002;0.000000e+000
4.358519e+002;0.000000e+000
4.377804e+002;0.000000e+000
4.397090e+002;0.000000e+000
4.416375e+002;0.000000e+000
4.435660e+002;0.000000e+000
4.454946e+002;0.000000e+000
4.474232e+002;0.000000e+000
4.493517e+002;0.000000e+000
4.512802e+002;0.000000e+000
4.532088e+002;0.000000e+000
4.551373e+002;0.000000e+000
4.570659e+002;0.000000e+000
4.589944e+002;0.000000e+000
4.609230e+002;0.000000e+000
4.628515e+002;0.000000e+000
4.647801e+002;0.000000e+000
4.667086e+002;0.000000e+000
4.686372e+002;0.000000e+000
4.705657e+002;0.000000e+000
4.724943e+002;0.000000e+000
4.744228e+002;0.000000e+000
4.763513e+002;0.000000e+000
4.782799e+002;0.000000e+000
4.802085e+002;0.000000e+000
4.821370e+002;0.000000e+000
4.840656e+002;0.000000e+000
4.859941e+002;0.000000e+000
4.879226e+002;0.000000e+000
4.898512e+002;0.000000e+000
4.917798e+002;0.000000e+000
4.937083e+002;0.000000e+000
4.956368e+002;0.000000e+000
4.975654e+002;0.000000e+000
4.994939e+002;0.000000e+000
5.014225e+002;0.000000e+000
5.033510e+002;0.000000e+000
5.052796e+002;0.000000e+000
5.072081e+002;0.000000e+000
5.091367e+002;0.000000e+000
5.110652e+002;0.000000e+000
5.129938e+002;0.000000e+000
5.149223e+002;0.000000e+000
5.168509e+002;0.000000e+000
5.187794e+002;0.000000e+000
5.207079e+002;0.000000e+000
5.226365e+002;0.000000e+000
5.245651e+002;0.000000e+000
5.264936e+002;0.000000e+000
5.284222e+002;0.000000e+000
5.303507e+002;0.000000e+000
5.322792e+002;0.000000e+000
5.342078e+002;0.000000e+000
5.361364e+002;0.000000e+000
5.380649e+002;0.000000e+000
5.399935e+002;0.000000e+000
5.419220e+002;0.000000e+000
5.438505e+002;0.000000e+000
5.457791e+002;0.000000e+000
5.477076e+002;0.000000e+000
5.496362e+002;0.000000e+000
5.515648e+002;0.000000e+000
5.534933e+002;0.000000e+000
5.554218e+002;0.000000e+000
5.573504e+002;0.000000e+000
5.592789e+002;0.000000e+000
5.612075e+002;0.000000e+000
5.631360e+002;0.000000e+000
5.650646e+002;0.000000e+000
5.669931e+002;0.000000e+000
5.689217e+002;0.000000e+000
5.708502e+002;0.000000e+000
5.727787e+002;0.000000e+000
5.747073e+002;0.000000e+000
5.766359e+002;0.000000e+000
5.785644e+002;0.000000e+000
5.804930e+002;0.000000e+000
5.824215e+002;0.000000e+000
5.843500e+002;0.000000e+000
5.862786e+002;0.000000e+000
5.882072e+002;0.000000e+000
5.901357e+002;0.000000e+000
5.920643e+002;0.000000e+000
5.939928e+002;0.000000e+000
5.959213e+002;0.000000e+000
5.978499e+002;0.000000e+000
5.997784e+002;3.782004e-001
6.017070e+002;3.768806e-001
6.036355e+002;3.722879e-001
6.055641e+002;3.701513e-001
6.074926e+002;3.759105e-001
6.094211e+002;3.773363e-001
6.113497e+002;3.751143e-001
6.132783e+002;3.731937e-001
6.152068e+002;3.702298e-001
6.171354e+002;3.678074e-001
6.190639e+002;3.646109e-001
6.209924e+002;3.625415e-001
6.229210e+002;3.632850e-001
6.248495e+002;3.575202e-001
6.267781e+002;3.472726e-001
6.287067e+002;3.418838e-001
6.306352e+002;3.408159e-001
6.325637e+002;3.368157e-001
6.344923e+002;3.292364e-001
6.364208e+002;3.274984e-001
6.383494e+002;3.313915e-001
6.402780e+002;3.308674e-001
6.422065e+002;3.326140e-001
6.441350e+002;3.286502e-001
6.460636e+002;3.209013e-001
6.479921e+002;3.222631e-001
6.499207e+002;3.274789e-001
6.518492e+002;3.282314e-001
6.537778e+002;3.296933e-001
6.557063e+002;3.327123e-001
6.576349e+002;3.334118e-001
6.595634e+002;3.362280e-001
6.614919e+002;3.415599e-001
6.634205e+002;3.454113e-001
6.653491e+002;3.459847e-001
6.672776e+002;3.432134e-001
6.692062e+002;3.367609e-001
6.711347e+002;3.320974e-001
6.730632e+002;3.265195e-001
6.749918e+002;3.173523e-001
6.769203e+002;3.102561e-001
6.788489e+002;3.058777e-001
6.807775e+002;3.014941e-001
6.827060e+002;2.966858e-001
6.846345e+002;2.935072e-001
6.865631e+002;2.919535e-001
6.884916e+002;2.891802e-001
6.904202e+002;2.875926e-001
6.923488e+002;2.883139e-001
6.942773e+002;2.882539e-001
6.962058e+002;2.882641e-001
6.981344e+002;2.875928e-001
7.000629e+002;2.863749e-001
7.019915e+002;2.842095e-001
7.039200e+002;2.811121e-001
7.058486e+002;2.793232e-001
7.077771e+002;2.784888e-001
7.097057e+002;2.775180e-001
7.116342e+002;2.745282e-001
7.135627e+002;2.698684e-001
7.154913e+002;2.657354e-001
7.174199e+002;2.621176e-001
7.193484e+002;2.566573e-001
7.212770e+002;2.502951e-001
7.232055e+002;2.459320e-001
7.251340e+002;2.430322e-001
7.270626e+002;2.404710e-001
7.289911e+002;2.364922e-001
7.309197e+002;2.320105e-001
7.328483e+002;2.283795e-001
7.347768e+002;2.259257e-001
7.367053e+002;2.236013e-001
7.386339e+002;2.208443e-001
7.405624e+002;2.174554e-001
7.424910e+002;2.152676e-001
7.444196e+002;2.148223e-001
7.463481e+002;2.139507e-001
7.482766e+002;2.125560e-001
7.502052e+002;2.106948e-001
7.521337e+002;2.087601e-001
7.540623e+002;2.066457e-001
7.559908e+002;2.043384e-001
7.579194e+002;2.028923e-001
7.598479e+002;2.016468e-001
7.617765e+002;2.006392e-001
7.637050e+002;1.997774e-001
7.656335e+002;1.972955e-001
7.675621e+002;1.955226e-001
7.694907e+002;1.947110e-001
7.714192e+002;1.935449e-001
7.733478e+002;1.928846e-001
7.752763e+002;1.923925e-001
7.772048e+002;1.910789e-001
7.791334e+002;1.889858e-001
7.810620e+002;1.877964e-001
7.829905e+002;1.882663e-001
7.849191e+002;1.882901e-001
7.868476e+002;1.870504e-001
7.887761e+002;1.862668e-001
7.907047e+002;1.857358e-001
7.926332e+002;1.851500e-001
7.945618e+002;1.846639e-001
7.964903e+002;1.837264e-001
7.984189e+002;1.829348e-001
8.003474e+002;1.835192e-001
8.022759e+002;1.831638e-001
8.042045e+002;1.819029e-001
8.061331e+002;1.813066e-001
8.080616e+002;1.812963e-001
8.099902e+002;1.812946e-001
8.119187e+002;1.815080e-001
8.138472e+002;1.817671e-001
8.157758e+002;1.819231e-001
8.177043e+002;1.814571e-001
8.196329e+002;1.813989e-001
8.215615e+002;1.811357e-001
8.234900e+002;1.805762e-001
8.254185e+002;1.802928e-001
8.273471e+002;1.794601e-001
8.292756e+002;1.788860e-001
8.312042e+002;1.794228e-001
8.331328e+002;1.796055e-001
8.350613e+002;1.796003e-001
8.369898e+002;1.792378e-001
8.389184e+002;1.787790e-001
8.408469e+002;1.785333e-001
8.427755e+002;1.779295e-001
8.447040e+002;1.779236e-001
8.466326e+002;1.786001e-001
8.485611e+002;1.786268e-001
8.504897e+002;1.786236e-001
8.524182e+002;1.789608e-001
8.543467e+002;1.795711e-001
8.562753e+002;1.798354e-001
8.582039e+002;1.806038e-001
8.601324e+002;1.823059e-001
8.620610e+002;1.833356e-001
8.639895e+002;1.842131e-001
8.659180e+002;1.857518e-001
8.678466e+002;1.870469e-001
8.697751e+002;1.888981e-001
8.717037e+002;1.916534e-001
8.736323e+002;1.949485e-001
8.755608e+002;1.982433e-001
8.774893e+002;2.019161e-001
8.794179e+002;2.059450e-001
8.813464e+002;2.102327e-001
8.832750e+002;2.148010e-001
8.852036e+002;2.194654e-001
8.871321e+002;2.235325e-001
8.890606e+002;2.275974e-001
8.909892e+002;2.321284e-001
8.929177e+002;2.360810e-001
8.948463e+002;2.382631e-001
8.967748e+002;2.393318e-001
8.987034e+002;2.399750e-001
9.006319e+002;2.397642e-001
9.025605e+002;2.384024e-001
9.044890e+002;2.364021e-001
9.064175e+002;2.339512e-001
9.083461e+002;2.314702e-001
9.102747e+002;2.293043e-001
9.122032e+002;2.271089e-001
9.141318e+002;2.246893e-001
9.160603e+002;2.229004e-001
9.179888e+002;2.221267e-001
9.199174e+002;2.222495e-001
9.218459e+002;2.227414e-001
9.237745e+002;2.236516e-001
9.257031e+002;2.252835e-001
9.276316e+002;2.268987e-001
9.295601e+002;2.290008e-001
9.314887e+002;2.315719e-001
9.334172e+002;2.331825e-001
9.353458e+002;2.345524e-001
9.372744e+002;2.367000e-001
9.392029e+002;2.388782e-001
9.411314e+002;2.409077e-001
9.430600e+002;2.437050e-001
9.449885e+002;2.472986e-001
9.469171e+002;2.515725e-001
9.488456e+002;2.565036e-001
9.507742e+002;2.615130e-001
9.527027e+002;2.667230e-001
9.546313e+002;2.719545e-001
9.565598e+002;2.778722e-001
9.584883e+002;2.849076e-001
9.604169e+002;2.922145e-001
9.623455e+002;2.995203e-001
9.642740e+002;3.078950e-001
9.662026e+002;3.167413e-001
9.681311e+002;3.258511e-001
9.700596e+002;3.362458e-001
9.719882e+002;3.484533e-001
9.739167e+002;3.628909e-001
9.758453e+002;3.798022e-001
9.777739e+002;3.985998e-001
9.797024e+002;4.184751e-001
9.816309e+002;4.382463e-001
9.835595e+002;4.541263e-001
9.854880e+002;4.642778e-001
9.874166e+002;4.705195e-001
9.893452e+002;4.753207e-001
9.912737e+002;4.815317e-001
9.932022e+002;4.896837e-001
9.951307e+002;4.980012e-001
9.970593e+002;5.054262e-001
9.989879e+002;5.120659e-001
1.000916e+003;5.172144e-001
1.002845e+003;5.205195e-001
1.004773e+003;5.224956e-001
1.006702e+003;5.249119e-001
1.008631e+003;5.284256e-001
1.010559e+003;5.334296e-001
1.012488e+003;5.395468e-001
1.014416e+003;5.467374e-001
1.016345e+003;5.545204e-001
1.018273e+003;5.619578e-001
1.020202e+003;5.689402e-001
1.022130e+003;5.756624e-001
1.024059e+003;5.821068e-001
1.025988e+003;5.870188e-001
1.027916e+003;5.894601e-001
1.029845e+003;5.919088e-001
1.031773e+003;5.937997e-001
1.033702e+003;5.918456e-001
1.035630e+003;5.853085e-001
1.037559e+003;5.765628e-001
1.039487e+003;5.665938e-001
1.041416e+003;5.583895e-001
1.043344e+003;5.542360e-001
1.045273e+003;5.526582e-001
1.047202e+003;5.528076e-001
1.049130e+003;5.558034e-001
1.051059e+003;5.600759e-001
1.052987e+003;5.632068e-001
1.054916e+003;5.628483e-001
1.056844e+003;5.584621e-001
1.058773e+003;5.492560e-001
1.060701e+003;5.345190e-001
1.062630e+003;5.150016e-001
1.064558e+003;4.931947e-001
1.066487e+003;4.713687e-001
1.068416e+003;4.514568e-001
1.070344e+003;4.350851e-001
1.072273e+003;4.231696e-001
1.074201e+003;4.137704e-001
1.076130e+003;4.048892e-001
1.078058e+003;3.966297e-001
1.079987e+003;3.895728e-001
1.081915e+003;3.839167e-001
1.083844e+003;3.796917e-001
1.085773e+003;3.763581e-001
1.087701e+003;3.741935e-001
1.089630e+003;3.733610e-001
1.091558e+003;3.730991e-001
1.093487e+003;3.725075e-001
1.095415e+003;3.725347e-001
1.097344e+003;3.732919e-001
1.099272e+003;3.736610e-001
1.101201e+003;3.741817e-001
1.103129e+003;3.745774e-001
1.105058e+003;3.730443e-001
1.106987e+003;3.700118e-001
1.108915e+003;3.659741e-001
1.110844e+003;3.616086e-001
1.112772e+003;3.563227e-001
1.114701e+003;3.481081e-001
1.116629e+003;3.366432e-001
1.118558e+003;3.236395e-001
1.120486e+003;3.114932e-001
1.122415e+003;3.011519e-001
1.124344e+003;2.916432e-001
1.126272e+003;2.819136e-001
1.128201e+003;2.722558e-001
1.130129e+003;2.629987e-001
1.132058e+003;2.554889e-001
1.133986e+003;2.495243e-001
1.135915e+003;2.445997e-001
1.137843e+003;2.409465e-001
1.139772e+003;2.387484e-001
1.141700e+003;2.380337e-001
1.143629e+003;2.386938e-001
1.145557e+003;2.403457e-001
1.147486e+003;2.428725e-001
1.149415e+003;2.451141e-001
1.151343e+003;2.464580e-001
1.153272e+003;2.478469e-001
1.155200e+003;2.493865e-001
1.157129e+003;2.508239e-001
1.159057e+003;2.519331e-001
1.160986e+003;2.515560e-001
1.162914e+003;2.484882e-001
1.164843e+003;2.427550e-001
1.166771e+003;2.350990e-001
1.168700e+003;2.256771e-001
1.170629e+003;2.159202e-001
1.172557e+003;2.068280e-001
1.174486e+003;1.985629e-001
1.176414e+003;1.915596e-001
1.178343e+003;1.859339e-001
1.180271e+003;1.812800e-001
1.182200e+003;1.779599e-001
1.184128e+003;1.763306e-001
1.186057e+003;1.755319e-001
1.187986e+003;1.753851e-001
1.189914e+003;1.763789e-001
1.191843e+003;1.786906e-001
1.193771e+003;1.817590e-001
1.195700e+003;1.844876e-001
1.197628e+003;1.868137e-001
1.199557e+003;1.885172e-001
1.201485e+003;1.893077e-001
1.203414e+003;1.896818e-001
1.205343e+003;1.891093e-001
1.207271e+003;1.871362e-001
1.209200e+003;1.837356e-001
1.211128e+003;1.791506e-001
1.213057e+003;1.751260e-001
1.214985e+003;1.728216e-001
1.216914e+003;1.722716e-001
1.218842e+003;1.731833e-001
1.220771e+003;1.745320e-001
1.222699e+003;1.758852e-001
1.224628e+003;1.779572e-001
1.226557e+003;1.802565e-001
1.228485e+003;1.822925e-001
1.230414e+003;1.846088e-001
1.232342e+003;1.866547e-001
1.234271e+003;1.879584e-001
1.236199e+003;1.886612e-001
1.238128e+003;1.886571e-001
1.240056e+003;1.885974e-001
1.241985e+003;1.890546e-001
1.243913e+003;1.898829e-001
1.245842e+003;1.909098e-001
1.247771e+003;1.922218e-001
1.249699e+003;1.925947e-001
1.251628e+003;1.925619e-001
1.253556e+003;1.928820e-001
1.255485e+003;1.931562e-001
1.257413e+003;1.934021e-001
1.259342e+003;1.937446e-001
1.261270e+003;1.938394e-001
1.263199e+003;1.935382e-001
1.265127e+003;1.933858e-001
1.267056e+003;1.934234e-001
1.268985e+003;1.934991e-001
1.270913e+003;1.937922e-001
1.272842e+003;1.947549e-001
1.274770e+003;1.957564e-001
1.276699e+003;1.962663e-001
1.278627e+003;1.961168e-001
1.280556e+003;1.954971e-001
1.282484e+003;1.941628e-001
1.284413e+003;1.928280e-001
1.286342e+003;1.919054e-001
1.288270e+003;1.915596e-001
1.290199e+003;1.917182e-001
1.292127e+003;1.924563e-001
1.294056e+003;1.936408e-001
1.295984e+003;1.948684e-001
1.297913e+003;1.965737e-001
1.299841e+003;1.990381e-001
1.301770e+003;2.023837e-001
1.303698e+003;2.065333e-001
1.305627e+003;2.112142e-001
1.307556e+003;2.164802e-001
1.309484e+003;2.217430e-001
1.311413e+003;2.266379e-001
1.313341e+003;2.302121e-001
1.315270e+003;2.321509e-001
1.317198e+003;2.319698e-001
1.319127e+003;2.295166e-001
1.321055e+003;2.256736e-001
1.322984e+003;2.219177e-001
1.324912e+003;2.189905e-001
1.326841e+003;2.171070e-001
1.328770e+003;2.165029e-001
1.330698e+003;2.166771e-001
1.332627e+003;2.177922e-001
1.334555e+003;2.190307e-001
1.336484e+003;2.192047e-001
1.338412e+003;2.180394e-001
1.340341e+003;2.159464e-001
1.342269e+003;2.137299e-001
1.344198e+003;2.113777e-001
1.346126e+003;2.086395e-001
1.348055e+003;2.063600e-001
1.349984e+003;2.053814e-001
1.351912e+003;2.054499e-001
1.353841e+003;2.066669e-001
1.355769e+003;2.083327e-001
1.357698e+003;2.092909e-001
1.359626e+003;2.096215e-001
1.361555e+003;2.092703e-001
1.363483e+003;2.084517e-001
1.365412e+003;2.076360e-001
1.367341e+003;2.066671e-001
1.369269e+003;2.061386e-001
1.371198e+003;2.049167e-001
1.373126e+003;2.017980e-001
1.375055e+003;1.984739e-001
1.376983e+003;1.953656e-001
1.378912e+003;1.917633e-001
1.380840e+003;1.882046e-001
1.382769e+003;1.847538e-001
1.384698e+003;1.816489e-001
1.386626e+003;1.783868e-001
1.388555e+003;1.765959e-001
1.390483e+003;1.757846e-001
1.392412e+003;1.740477e-001
1.394340e+003;1.721552e-001
1.396269e+003;1.720474e-001
1.398197e+003;1.721443e-001
1.400126e+003;1.729252e-001
1.402054e+003;1.739827e-001
1.403983e+003;1.740549e-001
1.405911e+003;1.744711e-001
1.407840e+003;1.755175e-001
1.409769e+003;1.761170e-001
1.411697e+003;1.764789e-001
1.413626e+003;1.773555e-001
1.415554e+003;1.780656e-001
1.417483e+003;1.772544e-001
1.419411e+003;1.776805e-001
1.421340e+003;1.818856e-001
1.423268e+003;1.846100e-001
1.425197e+003;1.859542e-001
1.427125e+003;1.868773e-001
1.429054e+003;1.866730e-001
1.430983e+003;1.863248e-001
1.432911e+003;1.852318e-001
1.434840e+003;1.814047e-001
1.436768e+003;1.776495e-001
1.438697e+003;1.778600e-001
1.440625e+003;1.774757e-001
1.442554e+003;1.761642e-001
1.444482e+003;1.749614e-001
1.446411e+003;1.736138e-001
1.448340e+003;1.725619e-001
1.450268e+003;1.726023e-001
1.452197e+003;1.720585e-001
1.454125e+003;1.691414e-001
1.456054e+003;1.633911e-001
1.457982e+003;1.626911e-001
1.459911e+003;1.655752e-001
1.461839e+003;1.651256e-001
1.463768e+003;1.618115e-001
1.465697e+003;1.597329e-001
1.467625e+003;1.587505e-001
1.469554e+003;1.554947e-001
1.471482e+003;1.497528e-001
1.473411e+003;1.464440e-001
1.475339e+003;1.462113e-001
1.477268e+003;1.455738e-001
1.479196e+003;1.445977e-001
1.481125e+003;1.427173e-001
1.483053e+003;1.404983e-001
1.484982e+003;1.369403e-001
1.486911e+003;1.326872e-001
1.488839e+003;1.292259e-001
1.490768e+003;1.275986e-001
1.492696e+003;1.269828e-001
1.494625e+003;1.237617e-001
1.496553e+003;1.208354e-001
1.498482e+003;1.213604e-001
1.500410e+003;1.221350e-001
1.502339e+003;1.215660e-001
1.504267e+003;1.168012e-001
1.506196e+003;1.118237e-001
1.508125e+003;1.142499e-001
1.510053e+003;1.178718e-001
1.511982e+003;1.181747e-001
1.513910e+003;1.178641e-001
1.515839e+003;1.164581e-001
1.517767e+003;1.152623e-001
1.519696e+003;1.127848e-001
1.521624e+003;1.110809e-001
1.523553e+003;1.133901e-001
1.525481e+003;1.144779e-001
1.527410e+003;1.153415e-001
1.529339e+003;1.162430e-001
1.531267e+003;1.159665e-001
1.533196e+003;1.145360e-001
1.535124e+003;1.151230e-001
1.537053e+003;1.127237e-001
1.538981e+003;1.070422e-001
1.540910e+003;1.075568e-001
1.542838e+003;1.117973e-001
1.544767e+003;1.142300e-001
1.546695e+003;1.159292e-001
1.548624e+003;1.162151e-001
1.550553e+003;1.160464e-001
1.552481e+003;1.152073e-001
1.554410e+003;1.139512e-001
1.556338e+003;1.112649e-001
1.558267e+003;1.059053e-001
1.560195e+003;1.083300e-001
1.562124e+003;1.151685e-001
1.564052e+003;1.171928e-001
1.565981e+003;1.175180e-001
1.567910e+003;1.166837e-001
1.569838e+003;1.161601e-001
1.571767e+003;1.180387e-001
1.573695e+003;1.171613e-001
1.575624e+003;1.140172e-001
1.577552e+003;1.161868e-001
1.579481e+003;1.194330e-001
1.581409e+003;1.199743e-001
1.583338e+003;1.204155e-001
1.585266e+003;1.208912e-001
1.587195e+003;1.211718e-001
1.589124e+003;1.212393e-001
1.591052e+003;1.214443e-001
1.592981e+003;1.218105e-001
1.594909e+003;1.223964e-001
1.596838e+003;1.230282e-001
1.598766e+003;1.233399e-001
1.600695e+003;1.235741e-001
1.602623e+003;1.239165e-001
1.604552e+003;1.241141e-001
1.606480e+003;1.244615e-001
1.608409e+003;1.247423e-001
1.610338e+003;1.252631e-001
1.612266e+003;1.259986e-001
1.614195e+003;1.246400e-001
1.616123e+003;1.220080e-001
1.618052e+003;1.243113e-001
1.619980e+003;1.269049e-001
1.621909e+003;1.261193e-001
1.623837e+003;1.262208e-001
1.625766e+003;1.275099e-001
1.627694e+003;1.277928e-001
1.629623e+003;1.284191e-001
1.631552e+003;1.286750e-001
1.633480e+003;1.260454e-001
1.635409e+003;1.233896e-001
1.637337e+003;1.258341e-001
1.639266e+003;1.283343e-001
1.641194e+003;1.289137e-001
1.643123e+003;1.280907e-001
1.645051e+003;1.249553e-001
1.646980e+003;1.238822e-001
1.648909e+003;1.254806e-001
1.650837e+003;1.210967e-001
1.652766e+003;1.146061e-001
1.654694e+003;1.194929e-001
1.656623e+003;1.252842e-001
1.658551e+003;1.256707e-001
1.660480e+003;1.240841e-001
1.662408e+003;1.222837e-001
1.664337e+003;1.224635e-001
1.666266e+003;1.220714e-001
1.668194e+003;1.193812e-001
1.670123e+003;1.181538e-001
1.672051e+003;1.185248e-001
1.673980e+003;1.167809e-001
1.675908e+003;1.160991e-001
1.677837e+003;1.172496e-001
1.679765e+003;1.160779e-001
1.681694e+003;1.128452e-001
1.683622e+003;1.074679e-001
1.685551e+003;1.084776e-001
1.687479e+003;1.126702e-001
1.689408e+003;1.132249e-001
1.691337e+003;1.129029e-001
1.693265e+003;1.103771e-001
1.695194e+003;1.053896e-001
1.697122e+003;1.051819e-001
1.699051e+003;1.035563e-001
1.700979e+003;1.035150e-001
1.702908e+003;1.078283e-001
1.704836e+003;1.079706e-001
1.706765e+003;1.083256e-001
1.708693e+003;1.089865e-001
1.710622e+003;1.090121e-001
1.712551e+003;1.079403e-001
1.714479e+003;1.059231e-001
1.716408e+003;1.030340e-001
1.718336e+003;1.036337e-001
1.720265e+003;1.074083e-001
1.722193e+003;1.089918e-001
1.724122e+003;1.093261e-001
1.726050e+003;1.097362e-001
1.727979e+003;1.092933e-001
1.729908e+003;1.085835e-001
1.731836e+003;1.057828e-001
1.733765e+003;1.024943e-001
1.735693e+003;1.054807e-001
1.737622e+003;1.076448e-001
1.739550e+003;1.063784e-001
1.741479e+003;1.063479e-001
1.743407e+003;1.061301e-001
1.745336e+003;1.054609e-001
1.747265e+003;1.041065e-001
1.749193e+003;1.024390e-001
1.751122e+003;1.012946e-001
1.753050e+003;1.025317e-001
1.754979e+003;1.026131e-001
1.756907e+003;1.015867e-001
1.758836e+003;1.015377e-001
1.760764e+003;1.006780e-001
1.762693e+003;1.007506e-001
1.764621e+003;1.016707e-001
1.766550e+003;1.005203e-001
1.768479e+003;9.939908e-002
1.770407e+003;9.805215e-002
1.772336e+003;9.699377e-002
1.774264e+003;9.910554e-002
1.776193e+003;1.007254e-001
1.778121e+003;1.007479e-001
1.780050e+003;1.003113e-001
1.781978e+003;1.005553e-001
1.783907e+003;1.003196e-001
1.785835e+003;1.003284e-001
1.787764e+003;1.006084e-001
1.789693e+003;9.928854e-002
1.791621e+003;9.748481e-002
1.793550e+003;9.798111e-002
1.795478e+003;9.937621e-002
1.797407e+003;9.950923e-002
1.799335e+003;9.913885e-002
1.801264e+003;9.893058e-002
1.803192e+003;9.924352e-002
1.805121e+003;9.945790e-002
1.807049e+003;9.956786e-002
1.808978e+003;9.914851e-002
1.810907e+003;9.900057e-002
1.812835e+003;9.932590e-002
1.814764e+003;9.947477e-002
1.816692e+003;9.929412e-002
1.818621e+003;9.918548e-002
1.820549e+003;9.900644e-002
1.822478e+003;9.876537e-002
1.824406e+003;9.814061e-002
1.826335e+003;9.823005e-002
1.828264e+003;9.767924e-002
1.830192e+003;9.736485e-002
1.832121e+003;9.826898e-002
1.834049e+003;9.856053e-002
1.835978e+003;9.828410e-002
1.837906e+003;9.829191e-002
1.839835e+003;9.824713e-002
1.841763e+003;9.689548e-002
1.843692e+003;9.534378e-002
1.845620e+003;9.643418e-002
1.847549e+003;9.734487e-002
1.849478e+003;9.734806e-002
1.851406e+003;9.744292e-002
1.853335e+003;9.765098e-002
1.855263e+003;9.787591e-002
1.857192e+003;9.781028e-002
1.859120e+003;9.767629e-002
1.861049e+003;9.753857e-002
1.862977e+003;9.723054e-002
1.864906e+003;9.694348e-002
1.866834e+003;9.610746e-002
1.868763e+003;9.555269e-002
1.870692e+003;9.661034e-002
1.872620e+003;9.729653e-002
1.874549e+003;9.687494e-002
1.876477e+003;9.674595e-002
1.878406e+003;9.679808e-002
1.880334e+003;9.672512e-002
1.882263e+003;9.678710e-002
1.884191e+003;9.695947e-002
1.886120e+003;9.701655e-002
1.888048e+003;9.655413e-002
1.889977e+003;9.644258e-002
1.891906e+003;9.689482e-002
1.893834e+003;9.685961e-002
1.895763e+003;9.681642e-002
1.897691e+003;9.685858e-002
1.899620e+003;9.677141e-002
1.901548e+003;9.663397e-002
1.903477e+003;9.663177e-002
1.905405e+003;9.666915e-002
1.907334e+003;9.645913e-002
1.909262e+003;9.618362e-002
1.911191e+003;9.650493e-002
1.913120e+003;9.686583e-002
1.915048e+003;9.677882e-002
1.916977e+003;9.609018e-002
1.918905e+003;9.624255e-002
1.920834e+003;9.664875e-002
1.922762e+003;9.675729e-002
1.924691e+003;9.715573e-002
1.926619e+003;9.735208e-002
1.928548e+003;9.754773e-002
1.930477e+003;9.758390e-002
1.932405e+003;9.733628e-002
1.934334e+003;9.724028e-002
1.936262e+003;9.740022e-002
1.938191e+003;9.750750e-002
1.940119e+003;9.736776e-002
1.942048e+003;9.731635e-002
1.943976e+003;9.771102e-002
1.945905e+003;9.804592e-002
1.947833e+003;9.819021e-002
1.949762e+003;9.818830e-002
1.951691e+003;9.794839e-002
1.953619e+003;9.790393e-002
1.955548e+003;9.812603e-002
1.957476e+003;9.836326e-002
1.959405e+003;9.846529e-002
1.961333e+003;9.867280e-002
1.963262e+003;9.865080e-002
1.965190e+003;9.832245e-002
1.967119e+003;9.828356e-002
1.969047e+003;9.853313e-002
1.970976e+003;9.870519e-002
1.972905e+003;9.870956e-002
1.974833e+003;9.859009e-002
1.976762e+003;9.852852e-002
1.978690e+003;9.876421e-002
1.980619e+003;9.899716e-002
1.982547e+003;9.897827e-002
1.984476e+003;9.908266e-002
1.986404e+003;9.915255e-002
1.988333e+003;9.904128e-002
1.990261e+003;9.883031e-002
1.992190e+003;9.907050e-002
1.994119e+003;9.947394e-002
1.996047e+003;9.915175e-002
1.997976e+003;9.879079e-002
1.999904e+003;9.898372e-002
2.001833e+003;9.923578e-002
2.003761e+003;9.934980e-002
2.005690e+003;9.927305e-002
2.007618e+003;9.947323e-002
2.009547e+003;9.971878e-002
2.011476e+003;9.974183e-002
2.013404e+003;9.953644e-002
2.015333e+003;9.952632e-002
2.017261e+003;9.970569e-002
2.019190e+003;1.000161e-001
2.021118e+003;1.001442e-001
2.023047e+003;1.001692e-001
2.024975e+003;1.001985e-001
2.026904e+003;1.003613e-001
2.028833e+003;1.004813e-001
2.030761e+003;1.008108e-001
2.032690e+003;1.008749e-001
2.034618e+003;1.007307e-001
2.036547e+003;1.008227e-001
2.038475e+003;1.007828e-001
2.040404e+003;1.007042e-001
2.042332e+003;1.009249e-001
2.044261e+003;1.010189e-001
2.046189e+003;1.009337e-001
2.048118e+003;1.009305e-001
2.050047e+003;1.008851e-001
2.051975e+003;1.007986e-001
2.053904e+003;1.007383e-001
2.055832e+003;1.006842e-001
2.057761e+003;1.008208e-001
2.059689e+003;1.006390e-001
2.061618e+003;1.005324e-001
2.063546e+003;1.007149e-001
2.065475e+003;1.006772e-001
2.067404e+003;1.006823e-001
2.069332e+003;1.007325e-001
2.071260e+003;1.005967e-001
2.073189e+003;1.003265e-001
2.075118e+003;1.003378e-001
2.077046e+003;1.002170e-001
2.078975e+003;1.001107e-001
2.080903e+003;1.002833e-001
2.082832e+003;1.001299e-001
2.084760e+003;9.995929e-002
2.086689e+003;1.001062e-001
2.088617e+003;1.002514e-001
2.090546e+003;1.000894e-001
2.092475e+003;1.000690e-001
2.094403e+003;1.000172e-001
2.096332e+003;9.988213e-002
2.098260e+003;9.977452e-002
2.100189e+003;9.995446e-002
2.102117e+003;9.998995e-002
2.104046e+003;9.975542e-002
2.105974e+003;9.984777e-002
2.107903e+003;1.001693e-001
2.109832e+003;1.002675e-001
2.111760e+003;1.003363e-001
2.113688e+003;1.004950e-001
2.115617e+003;1.004697e-001
2.117546e+003;1.003342e-001
2.119474e+003;1.004636e-001
2.121403e+003;1.007073e-001
2.123331e+003;1.006873e-001
2.125260e+003;1.005005e-001
2.127188e+003;1.006360e-001
2.129117e+003;1.007833e-001
2.131045e+003;1.007474e-001
2.132974e+003;1.005771e-001
2.134903e+003;1.006665e-001
2.136831e+003;1.010617e-001
2.138760e+003;1.009500e-001
2.140688e+003;1.003567e-001
2.142617e+003;1.001079e-001
2.144545e+003;1.002025e-001
2.146474e+003;1.004253e-001
2.148402e+003;1.003896e-001
2.150331e+003;1.002262e-001
2.152260e+003;1.002280e-001
2.154188e+003;1.002697e-001
2.156117e+003;9.993768e-002
2.158045e+003;9.962687e-002
2.159974e+003;9.961411e-002
2.161902e+003;9.960774e-002
2.163831e+003;9.950177e-002
2.165759e+003;9.916920e-002
2.167688e+003;9.891523e-002
2.169616e+003;9.866107e-002
2.171545e+003;9.839360e-002
2.173474e+003;9.833006e-002
2.175402e+003;9.841765e-002
2.177331e+003;9.828672e-002
2.179259e+003;9.802084e-002
2.181188e+003;9.777542e-002
2.183116e+003;9.755026e-002
2.185045e+003;9.737372e-002
2.186973e+003;9.724139e-002
2.188902e+003;9.732708e-002
2.190831e+003;9.740237e-002
2.192759e+003;9.710592e-002
2.194688e+003;9.695119e-002
2.196616e+003;9.677348e-002
2.198545e+003;9.656283e-002
2.200473e+003;9.662395e-002
2.202402e+003;9.660943e-002
2.204330e+003;9.630822e-002
2.206259e+003;9.637539e-002
2.208188e+003;9.671548e-002
2.210116e+003;9.663496e-002
2.212044e+003;9.643087e-002
2.213973e+003;9.632605e-002
2.215902e+003;9.610266e-002
2.217830e+003;9.615381e-002
2.219759e+003;9.638263e-002
2.221687e+003;9.637556e-002
2.223616e+003;9.604958e-002
2.225544e+003;9.598181e-002
2.227473e+003;9.641941e-002
2.229401e+003;9.662772e-002
2.231330e+003;9.650021e-002
2.233259e+003;9.639265e-002
2.235187e+003;9.618750e-002
2.237116e+003;9.599970e-002
2.239044e+003;9.610084e-002
2.240973e+003;9.628295e-002
2.242901e+003;9.630106e-002
2.244830e+003;9.619243e-002
2.246758e+003;9.626016e-002
2.248687e+003;9.620099e-002
2.250615e+003;9.601788e-002
2.252544e+003;9.610188e-002
2.254473e+003;9.591771e-002
2.256401e+003;9.538917e-002
2.258330e+003;9.520027e-002
2.260258e+003;9.540329e-002
2.262187e+003;9.536115e-002
2.264115e+003;9.506761e-002
2.266044e+003;9.492919e-002
2.267972e+003;9.493096e-002
2.269901e+003;9.506366e-002
2.271830e+003;9.518801e-002
2.273758e+003;9.506514e-002
2.275687e+003;9.503067e-002
2.277615e+003;9.496205e-002
2.279544e+003;9.479694e-002
2.281472e+003;9.466235e-002
2.283401e+003;9.470715e-002
2.285329e+003;9.471489e-002
2.287258e+003;9.471806e-002
2.289187e+003;9.478655e-002
2.291115e+003;9.461155e-002
2.293043e+003;9.457493e-002
2.294972e+003;9.458081e-002
2.296901e+003;9.442063e-002
2.298829e+003;9.424236e-002
2.300758e+003;9.418918e-002
2.302686e+003;9.408407e-002
2.304615e+003;9.392979e-002
2.306543e+003;9.385769e-002
2.308472e+003;9.408440e-002
2.310400e+003;9.409514e-002
2.312329e+003;9.371845e-002
2.314258e+003;9.357618e-002
2.316186e+003;9.356726e-002
2.318115e+003;9.354285e-002
2.320043e+003;9.341727e-002
2.321972e+003;9.342693e-002
2.323900e+003;9.340047e-002
2.325829e+003;9.343490e-002
2.327757e+003;9.354980e-002
2.329686e+003;9.332385e-002
2.331615e+003;9.312931e-002
2.333543e+003;9.306552e-002
2.335472e+003;9.330373e-002
2.337400e+003;9.367191e-002
2.339329e+003;9.360446e-002
2.341257e+003;9.368227e-002
2.343186e+003;9.404355e-002
2.345114e+003;9.444769e-002
2.347043e+003;9.506514e-002
2.348971e+003;9.544457e-002
2.350900e+003;9.512623e-002
2.352829e+003;9.477823e-002
2.354757e+003;9.478198e-002
2.356686e+003;9.451166e-002
2.358614e+003;9.430262e-002
2.360543e+003;9.460801e-002
2.362471e+003;9.470426e-002
2.364400e+003;9.477345e-002
2.366328e+003;9.503965e-002
2.368257e+003;9.555347e-002
2.370186e+003;9.603322e-002
2.372114e+003;9.632551e-002
2.374042e+003;9.643947e-002
2.375971e+003;9.678553e-002
2.377900e+003;9.729599e-002
2.379828e+003;9.753413e-002
2.381757e+003;9.741029e-002
2.383685e+003;9.725118e-002
2.385614e+003;9.740159e-002
2.387542e+003;9.787761e-002
2.389471e+003;9.827135e-002
2.391399e+003;9.830475e-002
2.393328e+003;9.825456e-002
2.395257e+003;9.845872e-002
2.397185e+003;9.858751e-002
2.399114e+003;9.839243e-002
2.401042e+003;9.855616e-002
2.402971e+003;9.900836e-002
2.404899e+003;9.921917e-002
2.406828e+003;9.950690e-002
2.408756e+003;9.962045e-002
2.410685e+003;9.945736e-002
2.412614e+003;9.962091e-002
2.414542e+003;9.972557e-002
2.416471e+003;9.969218e-002
2.418399e+003;9.989414e-002
2.420328e+003;1.002138e-001
2.422256e+003;1.001459e-001
2.424185e+003;1.001426e-001
2.426113e+003;1.005879e-001
2.428042e+003;1.009121e-001
2.429970e+003;1.010048e-001
2.431899e+003;1.012942e-001
2.433828e+003;1.014291e-001
2.435756e+003;1.014095e-001
2.437685e+003;1.015708e-001
2.439613e+003;1.019695e-001
2.441542e+003;1.021658e-001
2.443470e+003;1.021237e-001
2.445399e+003;1.023532e-001
2.447327e+003;1.027489e-001
2.449256e+003;1.027715e-001
2.451185e+003;1.027709e-001
2.453113e+003;1.028632e-001
2.455042e+003;1.028968e-001
2.456970e+003;1.031985e-001
2.458899e+003;1.035406e-001
2.460827e+003;1.036439e-001
2.462756e+003;1.036731e-001
2.464684e+003;1.037179e-001
2.466613e+003;1.036057e-001
2.468542e+003;1.036503e-001
2.470470e+003;1.039038e-001
2.472398e+003;1.039766e-001
2.474327e+003;1.041729e-001
2.476256e+003;1.042829e-001
2.478184e+003;1.047687e-001
2.480113e+003;1.052233e-001
2.482041e+003;1.049313e-001
2.483970e+003;1.047984e-001
2.485898e+003;1.051793e-001
2.487827e+003;1.055769e-001
2.489755e+003;1.057836e-001
2.491684e+003;1.058792e-001
2.493613e+003;1.057174e-001
2.495541e+003;1.057437e-001
2.497470e+003;1.058739e-001
2.499398e+003;1.060601e-001
2.501327e+003;1.064789e-001
2.503255e+003;1.066896e-001
2.505184e+003;1.066203e-001
2.507112e+003;1.068163e-001
2.509041e+003;1.069020e-001
2.510969e+003;1.072244e-001
2.512898e+003;1.075189e-001
2.514827e+003;1.074554e-001
2.516755e+003;1.075997e-001
2.518684e+003;1.077213e-001
2.520612e+003;1.077361e-001
2.522541e+003;1.076148e-001
2.524469e+003;1.077327e-001
2.526398e+003;1.080118e-001
2.528326e+003;1.079992e-001
2.530255e+003;1.080544e-001
2.532184e+003;1.081529e-001
2.534112e+003;1.080095e-001
2.536041e+003;1.080089e-001
2.537969e+003;1.081607e-001
2.539898e+003;1.083821e-001
2.541826e+003;1.084693e-001
2.543755e+003;1.085754e-001
2.545683e+003;1.090110e-001
2.547612e+003;1.092663e-001
2.549541e+003;1.091788e-001
2.551469e+003;1.090940e-001
2.553397e+003;1.090723e-001
2.555326e+003;1.089801e-001
2.557255e+003;1.087336e-001
2.559183e+003;1.088424e-001
2.561112e+003;1.094943e-001
2.563040e+003;1.096836e-001
2.564969e+003;1.094424e-001
2.566897e+003;1.093973e-001
2.568826e+003;1.095176e-001
2.570754e+003;1.093684e-001
2.572683e+003;1.090676e-001
2.574612e+003;1.090250e-001
2.576540e+003;1.093396e-001
2.578469e+003;1.097961e-001
2.580397e+003;1.099231e-001
2.582326e+003;1.099231e-001
2.584254e+003;1.100783e-001
2.586183e+003;1.102321e-001
2.588111e+003;1.103350e-001
2.590040e+003;1.101751e-001
2.591969e+003;1.101372e-001
2.593897e+003;1.105111e-001
2.595826e+003;1.109734e-001
2.597754e+003;1.110861e-001
2.599683e+003;1.109654e-001
2.601611e+003;1.111144e-001
2.603540e+003;1.115608e-001
2.605468e+003;1.118222e-001
2.607397e+003;1.117009e-001
2.609325e+003;1.116943e-001
2.611254e+003;1.118978e-001
2.613183e+003;1.121664e-001
2.615111e+003;1.121439e-001
2.617040e+003;1.120087e-001
2.618968e+003;1.123639e-001
2.620897e+003;1.127553e-001
2.622825e+003;1.128786e-001
2.624754e+003;1.129791e-001
2.626682e+003;1.131212e-001
2.628611e+003;1.131748e-001
2.630540e+003;1.133479e-001
2.632468e+003;1.135347e-001
2.634396e+003;1.137225e-001
2.636325e+003;1.137514e-001
2.638254e+003;1.136921e-001
2.640182e+003;1.137062e-001
2.642111e+003;1.140416e-001
2.644039e+003;1.144668e-001
2.645968e+003;1.146813e-001
2.647896e+003;1.149224e-001
2.649825e+003;1.152450e-001
2.651753e+003;1.152435e-001
2.653682e+003;1.150190e-001
2.655611e+003;1.150172e-001
2.657539e+003;1.150988e-001
2.659468e+003;1.152941e-001
2.661396e+003;1.156824e-001
2.663325e+003;1.158784e-001
2.665253e+003;1.161416e-001
2.667182e+003;1.163772e-001
2.669110e+003;1.166233e-001
2.671039e+003;1.167843e-001
2.672968e+003;1.168538e-001
2.674896e+003;1.170483e-001
2.676825e+003;1.171277e-001
2.678753e+003;1.173144e-001
2.680682e+003;1.178034e-001
2.682610e+003;1.181858e-001
2.684539e+003;1.181315e-001
2.686467e+003;1.179650e-001
2.688396e+003;1.180312e-001
2.690324e+003;1.181361e-001
2.692253e+003;1.183102e-001
2.694182e+003;1.186089e-001
2.696110e+003;1.188343e-001
2.698039e+003;1.192246e-001
2.699967e+003;1.193822e-001
2.701896e+003;1.192591e-001
2.703824e+003;1.192703e-001
2.705753e+003;1.198954e-001
2.707681e+003;1.205336e-001
2.709610e+003;1.205937e-001
2.711539e+003;1.204475e-001
2.713467e+003;1.203945e-001
2.715396e+003;1.203799e-001
2.717324e+003;1.206276e-001
2.719253e+003;1.212940e-001
2.721181e+003;1.218343e-001
2.723110e+003;1.218927e-001
2.725038e+003;1.218874e-001
2.726967e+003;1.217168e-001
2.728896e+003;1.216468e-001
2.730824e+003;1.217010e-001
2.732752e+003;1.219104e-001
2.734681e+003;1.222764e-001
2.736610e+003;1.228316e-001
2.738538e+003;1.229163e-001
2.740467e+003;1.225601e-001
2.742395e+003;1.226681e-001
2.744324e+003;1.231114e-001
2.746252e+003;1.232265e-001
2.748181e+003;1.232199e-001
2.750109e+003;1.231575e-001
2.752038e+003;1.232058e-001
2.753967e+003;1.234245e-001
2.755895e+003;1.238800e-001
2.757824e+003;1.238096e-001
2.759752e+003;1.239311e-001
2.761681e+003;1.243232e-001
2.763609e+003;1.244926e-001
2.765538e+003;1.248203e-001
2.767466e+003;1.249611e-001
2.769395e+003;1.250334e-001
2.771323e+003;1.252690e-001
2.773252e+003;1.253437e-001
2.775181e+003;1.251048e-001
2.777109e+003;1.251628e-001
2.779038e+003;1.254418e-001
2.780966e+003;1.258550e-001
2.782895e+003;1.266435e-001
2.784823e+003;1.267926e-001
2.786752e+003;1.267855e-001
2.788680e+003;1.271644e-001
2.790609e+003;1.273638e-001
2.792538e+003;1.276497e-001
2.794466e+003;1.281470e-001
2.796395e+003;1.287269e-001
2.798323e+003;1.295066e-001
2.800252e+003;1.298799e-001
2.802180e+003;1.298850e-001
2.804109e+003;1.301205e-001
2.806037e+003;1.304309e-001
2.807966e+003;1.310268e-001
2.809895e+003;1.316444e-001
2.811823e+003;1.322929e-001
2.813751e+003;1.330628e-001
2.815680e+003;1.331150e-001
2.817609e+003;1.333050e-001
2.819537e+003;1.340224e-001
2.821466e+003;1.348543e-001
2.823394e+003;1.357359e-001
2.825323e+003;1.364287e-001
2.827251e+003;1.372041e-001
2.829180e+003;1.381490e-001
2.831108e+003;1.386500e-001
2.833037e+003;1.392393e-001
2.834966e+003;1.401455e-001
2.836894e+003;1.412744e-001
2.838823e+003;1.423883e-001
2.840751e+003;1.437099e-001
2.842680e+003;1.455797e-001
2.844608e+003;1.472723e-001
2.846537e+003;1.489177e-001
2.848465e+003;1.504008e-001
2.850394e+003;1.523581e-001
2.852323e+003;1.546723e-001
2.854251e+003;1.563288e-001
2.856180e+003;1.571167e-001
2.858108e+003;1.578982e-001
2.860037e+003;1.591365e-001
2.861965e+003;1.603181e-001
2.863894e+003;1.611918e-001
2.865822e+003;1.623659e-001
2.867751e+003;1.635301e-001
2.869679e+003;1.643430e-001
2.871608e+003;1.651935e-001
2.873536e+003;1.657032e-001
2.875465e+003;1.662924e-001
2.877394e+003;1.673313e-001
2.879322e+003;1.679433e-001
2.881251e+003;1.682688e-001
2.883179e+003;1.685454e-001
2.885108e+003;1.689671e-001
2.887036e+003;1.695473e-001
2.888965e+003;1.699918e-001
2.890893e+003;1.707739e-001
2.892822e+003;1.713173e-001
2.894750e+003;1.712863e-001
2.896679e+003;1.714783e-001
2.898608e+003;1.721627e-001
2.900536e+003;1.723374e-001
2.902465e+003;1.716921e-001
2.904393e+003;1.709556e-001
2.906322e+003;1.704232e-001
2.908250e+003;1.696978e-001
2.910179e+003;1.685603e-001
2.912107e+003;1.674715e-001
2.914036e+003;1.668010e-001
2.915965e+003;1.653809e-001
2.917893e+003;1.633939e-001
2.919822e+003;1.624567e-001
2.921750e+003;1.618169e-001
2.923679e+003;1.606180e-001
2.925607e+003;1.588325e-001
2.927536e+003;1.574337e-001
2.929464e+003;1.562541e-001
2.931393e+003;1.547575e-001
2.933322e+003;1.530328e-001
2.935250e+003;1.516696e-001
2.937178e+003;1.507794e-001
2.939107e+003;1.498631e-001
2.941036e+003;1.489386e-001
2.942964e+003;1.479048e-001
2.944893e+003;1.469470e-001
2.946821e+003;1.459787e-001
2.948750e+003;1.449001e-001
2.950678e+003;1.439103e-001
2.952607e+003;1.422506e-001
2.954535e+003;1.404477e-001
2.956464e+003;1.386790e-001
2.958393e+003;1.375134e-001
2.960321e+003;1.367773e-001
2.962250e+003;1.351449e-001
2.964178e+003;1.336256e-001
2.966107e+003;1.331333e-001
2.968035e+003;1.326046e-001
2.969964e+003;1.315585e-001
2.971892e+003;1.306268e-001
2.973821e+003;1.296898e-001
2.975750e+003;1.281509e-001
2.977678e+003;1.267602e-001
2.979607e+003;1.260306e-001
2.981535e+003;1.255136e-001
2.983464e+003;1.245877e-001
2.985392e+003;1.234752e-001
2.987321e+003;1.223834e-001
2.989249e+003;1.217036e-001
2.991178e+003;1.215577e-001
2.993106e+003;1.212378e-001
2.995035e+003;1.209903e-001
2.996964e+003;1.210651e-001
2.998892e+003;1.211195e-001
3.000821e+003;1.212423e-001
3.002749e+003;1.213069e-001
3.004678e+003;1.213512e-001
3.006606e+003;1.212317e-001
3.008535e+003;1.208315e-001
3.010463e+003;1.204522e-001
3.012392e+003;1.201713e-001
3.014321e+003;1.204843e-001
3.016249e+003;1.209392e-001
3.018177e+003;1.214737e-001
3.020106e+003;1.220150e-001
3.022035e+003;1.219241e-001
3.023963e+003;1.220929e-001
3.025892e+003;1.230737e-001
3.027820e+003;1.235572e-001
3.029749e+003;1.234918e-001
3.031677e+003;1.236461e-001
3.033606e+003;1.239686e-001
3.035534e+003;1.244406e-001
3.037463e+003;1.248034e-001
3.039392e+003;1.250030e-001
3.041320e+003;1.254132e-001
3.043249e+003;1.255649e-001
3.045177e+003;1.256495e-001
3.047106e+003;1.261588e-001
3.049034e+003;1.269494e-001
3.050963e+003;1.271002e-001
3.052891e+003;1.271459e-001
3.054820e+003;1.278732e-001
3.056749e+003;1.284420e-001
3.058677e+003;1.286791e-001
3.060606e+003;1.289387e-001
3.062534e+003;1.295550e-001
3.064463e+003;1.300402e-001
3.066391e+003;1.304449e-001
3.068320e+003;1.310633e-001
3.070248e+003;1.315818e-001
3.072177e+003;1.319594e-001
3.074105e+003;1.322806e-001
3.076034e+003;1.327777e-001
3.077963e+003;1.332580e-001
3.079891e+003;1.335328e-001
3.081820e+003;1.341350e-001
3.083748e+003;1.350703e-001
3.085677e+003;1.357789e-001
3.087605e+003;1.361275e-001
3.089534e+003;1.363095e-001
3.091462e+003;1.368781e-001
3.093391e+003;1.379012e-001
3.095320e+003;1.386292e-001
3.097248e+003;1.392738e-001
3.099177e+003;1.395190e-001
3.101105e+003;1.396442e-001
3.103034e+003;1.399152e-001
3.104962e+003;1.401232e-001
3.106891e+003;1.410887e-001
3.108819e+003;1.423752e-001
3.110748e+003;1.429152e-001
3.112677e+003;1.432537e-001
3.114605e+003;1.438502e-001
3.116533e+003;1.448193e-001
3.118462e+003;1.457616e-001
3.120391e+003;1.460483e-001
3.122319e+003;1.465059e-001
3.124248e+003;1.470714e-001
3.126176e+003;1.473283e-001
3.128105e+003;1.481037e-001
3.130033e+003;1.491225e-001
3.131962e+003;1.498412e-001
3.133890e+003;1.503123e-001
3.135819e+003;1.509603e-001
3.137748e+003;1.517660e-001
3.139676e+003;1.522677e-001
3.141605e+003;1.530541e-001
3.143533e+003;1.538740e-001
3.145462e+003;1.545819e-001
3.147390e+003;1.556262e-001
3.149319e+003;1.560125e-001
3.151247e+003;1.561550e-001
3.153176e+003;1.566308e-001
3.155104e+003;1.580853e-001
3.157033e+003;1.594195e-001
3.158962e+003;1.596909e-001
3.160890e+003;1.605619e-001
3.162819e+003;1.619519e-001
3.164747e+003;1.623644e-001
3.166676e+003;1.626738e-001
3.168604e+003;1.633750e-001
3.170533e+003;1.642613e-001
3.172461e+003;1.649081e-001
3.174390e+003;1.658311e-001
3.176319e+003;1.666576e-001
3.178247e+003;1.676113e-001
3.180176e+003;1.686619e-001
3.182104e+003;1.693254e-001
3.184033e+003;1.698652e-001
3.185961e+003;1.707767e-001
3.187890e+003;1.719868e-001
3.189818e+003;1.732794e-001
3.191747e+003;1.744302e-001
3.193676e+003;1.751792e-001
3.195604e+003;1.758054e-001
3.197532e+003;1.766474e-001
3.199461e+003;1.779236e-001
3.201390e+003;1.792477e-001
3.203318e+003;1.805862e-001
3.205247e+003;1.815034e-001
3.207175e+003;1.823996e-001
3.209104e+003;1.836030e-001
3.211032e+003;1.848200e-001
3.212961e+003;1.857723e-001
3.214889e+003;1.868600e-001
3.216818e+003;1.880262e-001
3.218747e+003;1.890116e-001
3.220675e+003;1.903770e-001
3.222604e+003;1.915459e-001
3.224532e+003;1.925896e-001
3.226461e+003;1.942383e-001
3.228389e+003;1.957962e-001
3.230318e+003;1.972022e-001
3.232246e+003;1.984682e-001
3.234175e+003;1.994445e-001
3.236104e+003;2.009758e-001
3.238032e+003;2.026392e-001
3.239961e+003;2.038065e-001
3.241889e+003;2.051104e-001
3.243818e+003;2.065615e-001
3.245746e+003;2.078700e-001
3.247675e+003;2.094750e-001
3.249603e+003;2.109409e-001
3.251532e+003;2.127168e-001
3.253460e+003;2.143943e-001
3.255389e+003;2.152835e-001
3.257318e+003;2.162999e-001
3.259246e+003;2.183014e-001
3.261175e+003;2.200401e-001
3.263103e+003;2.208825e-001
3.265032e+003;2.219272e-001
3.266960e+003;2.233293e-001
3.268889e+003;2.245969e-001
3.270817e+003;2.252105e-001
3.272746e+003;2.257689e-001
3.274675e+003;2.264616e-001
3.276603e+003;2.270008e-001
3.278531e+003;2.279024e-001
3.280460e+003;2.287471e-001
3.282389e+003;2.287849e-001
3.284317e+003;2.293859e-001
3.286246e+003;2.304001e-001
3.288174e+003;2.308397e-001
3.290103e+003;2.310448e-001
3.292031e+003;2.312371e-001
3.293960e+003;2.319122e-001
3.295888e+003;2.321462e-001
3.297817e+003;2.325501e-001
3.299746e+003;2.330042e-001
3.301674e+003;2.331559e-001
3.303603e+003;2.334921e-001
3.305531e+003;2.340326e-001
3.307460e+003;2.342815e-001
3.309388e+003;2.342219e-001
3.311317e+003;2.347706e-001
3.313245e+003;2.356146e-001
3.315174e+003;2.362505e-001
3.317103e+003;2.367595e-001
3.319031e+003;2.371550e-001
3.320960e+003;2.382075e-001
3.322888e+003;2.387402e-001
3.324817e+003;2.387526e-001
3.326745e+003;2.391089e-001
3.328674e+003;2.393309e-001
3.330602e+003;2.393528e-001
3.332531e+003;2.389695e-001
3.334459e+003;2.383807e-001
3.336388e+003;2.370907e-001
3.338317e+003;2.353905e-001
3.340245e+003;2.348439e-001
3.342174e+003;2.347364e-001
3.344102e+003;2.336056e-001
3.346031e+003;2.323501e-001
3.347959e+003;2.312378e-001
3.349888e+003;2.299547e-001
3.351816e+003;2.287907e-001
3.353745e+003;2.275036e-001
3.355674e+003;2.264145e-001
3.357602e+003;2.254151e-001
3.359531e+003;2.240626e-001
3.361459e+003;2.224706e-001
3.363388e+003;2.219489e-001
3.365316e+003;2.214980e-001
3.367245e+003;2.199777e-001
3.369173e+003;2.189604e-001
3.371102e+003;2.187266e-001
3.373031e+003;2.176578e-001
3.374959e+003;2.162982e-001
3.376887e+003;2.157190e-001
3.378816e+003;2.152836e-001
3.380745e+003;2.149605e-001
3.382673e+003;2.146474e-001
3.384602e+003;2.135460e-001
3.386530e+003;2.120243e-001
3.388459e+003;2.110394e-001
3.390387e+003;2.108347e-001
3.392316e+003;2.111560e-001
3.394244e+003;2.105776e-001
3.396173e+003;2.090230e-001
3.398102e+003;2.074599e-001
3.400030e+003;2.062655e-001
3.401959e+003;2.049536e-001
3.403887e+003;2.038745e-001
3.405816e+003;2.034420e-001
3.407744e+003;2.025803e-001
3.409673e+003;2.009201e-001
3.411601e+003;2.001741e-001
3.413530e+003;1.992701e-001
3.415458e+003;1.972313e-001
3.417387e+003;1.959507e-001
3.419316e+003;1.950252e-001
3.421244e+003;1.938109e-001
3.423173e+003;1.927702e-001
3.425101e+003;1.923234e-001
3.427030e+003;1.913745e-001
3.428958e+003;1.893174e-001
3.430887e+003;1.877261e-001
3.432815e+003;1.869959e-001
3.434744e+003;1.858043e-001
3.436673e+003;1.843917e-001
3.438601e+003;1.837647e-001
3.440530e+003;1.832758e-001
3.442458e+003;1.821014e-001
3.444387e+003;1.804283e-001
3.446315e+003;1.788359e-001
3.448244e+003;1.777149e-001
3.450172e+003;1.767042e-001
3.452101e+003;1.755392e-001
3.454030e+003;1.744195e-001
3.455958e+003;1.734367e-001
3.457886e+003;1.726464e-001
3.459815e+003;1.716170e-001
3.461744e+003;1.699493e-001
3.463672e+003;1.691379e-001
3.465601e+003;1.683730e-001
3.467529e+003;1.671403e-001
3.469458e+003;1.658251e-001
3.471386e+003;1.641470e-001
3.473315e+003;1.623911e-001
3.475243e+003;1.607282e-001
3.477172e+003;1.596695e-001
3.479101e+003;1.590246e-001
3.481029e+003;1.577165e-001
3.482958e+003;1.560813e-001
3.484886e+003;1.554665e-001
3.486815e+003;1.548778e-001
3.488743e+003;1.537808e-001
3.490672e+003;1.526968e-001
3.492600e+003;1.516527e-001
3.494529e+003;1.501034e-001
3.496458e+003;1.482333e-001
3.498386e+003;1.469177e-001
3.500315e+003;1.455315e-001
3.502243e+003;1.445303e-001
3.504172e+003;1.438565e-001
3.506100e+003;1.432203e-001
3.508029e+003;1.425847e-001
3.509957e+003;1.411652e-001
3.511886e+003;1.395628e-001
3.513814e+003;1.383942e-001
3.515743e+003;1.375751e-001
3.517672e+003;1.367008e-001
3.519600e+003;1.355483e-001
3.521529e+003;1.340490e-001
3.523457e+003;1.330038e-001
3.525386e+003;1.321775e-001
3.527314e+003;1.308693e-001
3.529243e+003;1.301551e-001
3.531171e+003;1.302341e-001
3.533100e+003;1.296183e-001
3.535029e+003;1.280313e-001
3.536957e+003;1.270940e-001
3.538885e+003;1.258516e-001
3.540814e+003;1.243655e-001
3.542743e+003;1.231723e-001
3.544671e+003;1.216020e-001
3.546600e+003;1.209440e-001
3.548528e+003;1.207489e-001
3.550457e+003;1.192219e-001
3.552385e+003;1.180361e-001
3.554314e+003;1.178161e-001
3.556242e+003;1.175130e-001
3.558171e+003;1.166185e-001
3.560100e+003;1.155074e-001
3.562028e+003;1.146339e-001
3.563957e+003;1.130994e-001
3.565885e+003;1.108489e-001
3.567814e+003;1.101216e-001
3.569742e+003;1.108140e-001
3.571671e+003;1.105850e-001
3.573599e+003;1.095447e-001
3.575528e+003;1.086507e-001
3.577457e+003;1.079358e-001
3.579385e+003;1.070391e-001
3.581314e+003;1.055275e-001
3.583242e+003;1.043978e-001
3.585171e+003;1.037446e-001
3.587099e+003;1.030038e-001
3.589028e+003;1.029728e-001
3.590956e+003;1.031233e-001
3.592885e+003;1.022020e-001
3.594813e+003;1.008606e-001
3.596742e+003;1.001872e-001
3.598671e+003;9.953244e-002
3.600599e+003;9.880003e-002
3.602528e+003;9.889513e-002
3.604456e+003;9.815037e-002
3.606385e+003;9.627616e-002
3.608313e+003;9.479818e-002
3.610242e+003;9.442669e-002
3.612170e+003;9.390618e-002
3.614099e+003;9.366476e-002
3.616028e+003;9.241573e-002
3.617956e+003;9.031792e-002
3.619885e+003;9.039984e-002
3.621813e+003;9.209251e-002
3.623742e+003;9.259318e-002
3.625670e+003;9.054997e-002
3.627599e+003;8.627675e-002
3.629527e+003;8.624454e-002
3.631456e+003;8.914436e-002
3.633385e+003;8.936565e-002
3.635313e+003;8.859109e-002
3.637241e+003;8.754162e-002
3.639170e+003;8.645951e-002
3.641099e+003;8.621726e-002
3.643027e+003;8.630181e-002
3.644956e+003;8.455184e-002
3.646884e+003;8.110382e-002
3.648813e+003;7.871556e-002
3.650741e+003;7.995702e-002
3.652670e+003;8.250933e-002
3.654598e+003;8.200791e-002
3.656527e+003;8.137648e-002
3.658456e+003;8.200602e-002
3.660384e+003;8.172829e-002
3.662313e+003;8.166762e-002
3.664241e+003;8.200967e-002
3.666170e+003;8.062077e-002
3.668098e+003;7.718743e-002
3.670027e+003;7.558417e-002
3.671955e+003;7.740074e-002
3.673884e+003;7.555259e-002
3.675813e+003;7.423601e-002
3.677741e+003;7.713251e-002
3.679669e+003;7.861187e-002
3.681598e+003;7.963467e-002
3.683527e+003;7.949613e-002
3.685455e+003;7.725880e-002
3.687384e+003;7.363297e-002
3.689312e+003;7.400835e-002
3.691241e+003;7.646137e-002
3.693169e+003;7.768729e-002
3.695098e+003;7.786904e-002
3.697026e+003;7.736070e-002
3.698955e+003;7.647406e-002
3.700884e+003;7.522411e-002
3.702812e+003;7.573216e-002
3.704741e+003;7.673762e-002
3.706669e+003;7.632279e-002
3.708598e+003;7.490634e-002
3.710526e+003;7.326055e-002
3.712455e+003;7.352142e-002
3.714383e+003;7.532357e-002
3.716312e+003;7.613043e-002
3.718240e+003;7.608696e-002
3.720169e+003;7.533042e-002
3.722098e+003;7.473660e-002
3.724026e+003;7.477041e-002
3.725955e+003;7.535730e-002
3.727883e+003;7.594356e-002
3.729812e+003;7.448417e-002
3.731740e+003;7.289472e-002
3.733669e+003;7.224290e-002
3.735597e+003;7.099791e-002
3.737526e+003;7.276882e-002
3.739455e+003;7.442781e-002
3.741383e+003;7.255798e-002
3.743312e+003;6.753843e-002
3.745240e+003;6.880254e-002
3.747169e+003;7.067429e-002
3.749097e+003;6.822432e-002
3.751026e+003;6.861627e-002
3.752954e+003;7.222525e-002
3.754883e+003;7.508981e-002
3.756812e+003;7.456749e-002
3.758740e+003;7.395959e-002
3.760668e+003;7.474916e-002
3.762597e+003;7.559857e-002
3.764526e+003;7.482166e-002
3.766454e+003;7.449798e-002
3.768383e+003;7.414274e-002
3.770311e+003;7.476176e-002
3.772240e+003;7.564629e-002
3.774168e+003;7.588239e-002
3.776097e+003;7.612028e-002
3.778025e+003;7.567019e-002
3.779954e+003;7.492150e-002
3.781883e+003;7.556600e-002
3.783811e+003;7.667373e-002
3.785740e+003;7.700407e-002
3.787668e+003;7.657610e-002
3.789597e+003;7.659207e-002
3.791525e+003;7.659966e-002
3.793454e+003;7.600750e-002
3.795382e+003;7.490268e-002
3.797311e+003;7.452425e-002
3.799240e+003;7.261488e-002
3.801168e+003;7.136194e-002
3.803097e+003;7.425468e-002
3.805025e+003;7.445125e-002
3.806954e+003;7.284895e-002
3.808882e+003;7.469926e-002
3.810811e+003;7.652247e-002
3.812739e+003;7.626769e-002
3.814668e+003;7.321851e-002
3.816596e+003;7.327471e-002
3.818525e+003;7.443941e-002
3.820454e+003;7.262581e-002
3.822382e+003;7.395138e-002
3.824311e+003;7.575066e-002
3.826239e+003;7.559526e-002
3.828168e+003;7.574194e-002
3.830096e+003;7.554321e-002
3.832025e+003;7.480781e-002
3.833953e+003;7.402284e-002
3.835882e+003;7.225378e-002
3.837811e+003;7.144498e-002
3.839739e+003;7.357016e-002
3.841667e+003;7.490835e-002
3.843596e+003;7.565903e-002
3.845525e+003;7.653168e-002
3.847453e+003;7.639504e-002
3.849382e+003;7.487126e-002
3.851310e+003;7.064158e-002
3.853239e+003;6.739957e-002
3.855167e+003;7.163285e-002
3.857096e+003;7.619459e-002
3.859024e+003;7.725247e-002
3.860953e+003;7.669255e-002
3.862882e+003;7.560902e-002
3.864810e+003;7.522103e-002
3.866739e+003;7.544523e-002
3.868667e+003;7.434342e-002
3.870596e+003;7.494910e-002
3.872524e+003;7.633519e-002
3.874453e+003;7.687970e-002
3.876381e+003;7.790393e-002
3.878310e+003;7.722393e-002
3.880239e+003;7.651551e-002
3.882167e+003;7.668606e-002
3.884096e+003;7.544792e-002
3.886024e+003;7.590193e-002
3.887953e+003;7.811746e-002
3.889881e+003;7.783365e-002
3.891810e+003;7.808070e-002
3.893738e+003;7.941493e-002
3.895667e+003;7.880919e-002
3.897595e+003;7.675909e-002
3.899524e+003;7.606134e-002
3.901453e+003;7.643162e-002
3.903381e+003;7.652386e-002
3.905310e+003;7.776361e-002
3.907238e+003;7.920513e-002
3.909167e+003;7.942759e-002
3.911095e+003;7.908657e-002
3.913024e+003;7.913519e-002
3.914952e+003;7.908896e-002
3.916881e+003;7.853080e-002
3.918810e+003;7.852396e-002
3.920738e+003;8.019979e-002
3.922667e+003;8.086602e-002
3.924595e+003;8.022135e-002
3.926524e+003;8.006331e-002
3.928452e+003;8.026882e-002
3.930381e+003;8.035210e-002
3.932309e+003;7.982074e-002
3.934238e+003;7.954384e-002
3.936167e+003;7.922871e-002
3.938095e+003;7.960612e-002
3.940023e+003;7.999666e-002
3.941952e+003;7.976579e-002
3.943881e+003;8.017301e-002
3.945809e+003;8.065951e-002
3.947738e+003;8.077267e-002
3.949666e+003;8.068445e-002
3.951595e+003;8.049122e-002
3.953523e+003;8.039500e-002
3.955452e+003;8.044452e-002
3.957380e+003;8.086315e-002
3.959309e+003;8.072231e-002
3.961238e+003;8.002578e-002
3.963166e+003;8.044288e-002
3.965095e+003;8.069766e-002
3.967023e+003;8.099062e-002
3.968952e+003;8.136405e-002
3.970880e+003;8.133596e-002
3.972809e+003;8.109296e-002
3.974737e+003;8.039488e-002
3.976666e+003;8.079749e-002
3.978594e+003;8.122800e-002
3.980523e+003;8.128226e-002
3.982452e+003;8.120368e-002
3.984380e+003;8.109324e-002
3.986309e+003;8.128953e-002
3.988237e+003;8.166374e-002
3.990166e+003;8.168082e-002
3.992094e+003;8.192131e-002
3.994023e+003;8.249860e-002
3.995951e+003;8.223236e-002
3.997880e+003;8.189946e-002
3.999809e+003;8.197829e-002
4.001737e+003;0.000000e+000
