3.992094e+002;0.000000e+000
4.011380e+002;0.000000e+000
4.030665e+002;0.000000e+000
4.049951e+002;0.000000e+000
4.069236e+002;0.000000e+000
4.088522e+002;0.000000e+000
4.107807e+002;0.000000e+000
4.127093e+002;0.000000e+000
4.146378e+002;0.000000e+000
4.165664e+002;0.000000e+000
4.184949e+002;0.000000e+000
4.204235e+002;0.000000e+000
4.223520e+002;0.000000e+000
4.242806e+002;0.000000e+000
4.262091e+002;0.000000e+000
4.281377e+002;0.000000e+000
4.300662e+002;0.000000e+000
4.319948e+002;0.000000e+000
4.339233e+002;0.000000e+000
4.358519e+002;0.000000e+000
4.377804e+002;0.000000e+000
4.397090e+002;0.000000e+000
4.416375e+002;0.000000e+000
4.435660e+002;0.000000e+000
4.454946e+002;0.000000e+000
4.474232e+002;0.000000e+000
4.493517e+002;0.000000e+000
4.512802e+002;0.000000e+000
4.532088e+002;0.000000e+000
4.551373e+002;0.000000e+000
4.570659e+002;0.000000e+000
4.589944e+002;0.000000e+000
4.609230e+002;0.000000e+000
4.628515e+002;0.000000e+000
4.647801e+002;0.000000e+000
4.667086e+002;0.000000e+000
4.686372e+002;0.000000e+000
4.705657e+002;0.000000e+000
4.724943e+002;0.000000e+000
4.744228e+002;0.000000e+000
4.763513e+002;0.000000e+000
4.782799e+002;0.000000e+000
4.802085e+002;0.000000e+000
4.821370e+002;0.000000e+000
4.840656e+002;0.000000e+000
4.859941e+002;0.000000e+000
4.879226e+002;0.000000e+000
4.898512e+002;0.000000e+000
4.917798e+002;0.000000e+000
4.937083e+002;0.000000e+000
4.956368e+002;0.000000e+000
4.975654e+002;0.000000e+000
4.994939e+002;0.000000e+000
5.014225e+002;0.000000e+000
5.033510e+002;0.000000e+000
5.052796e+002;0.000000e+000
5.072081e+002;0.000000e+000
5.091367e+002;0.000000e+000
5.110652e+002;0.000000e+000
5.129938e+002;0.000000e+000
5.149223e+002;0.000000e+000
5.168509e+002;0.000000e+000
5.187794e+002;0.000000e+000
5.207079e+002;0.000000e+000
5.226365e+002;0.000000e+000
5.245651e+002;0.000000e+000
5.264936e+002;0.000000e+000
5.284222e+002;0.000000e+000
5.303507e+002;0.000000e+000
5.322792e+002;0.000000e+000
5.342078e+002;0.000000e+000
5.361364e+002;0.000000e+000
5.380649e+002;0.000000e+000
5.399935e+002;0.000000e+000
5.419220e+002;0.000000e+000
5.438505e+002;0.000000e+000
5.457791e+002;0.000000e+000
5.477076e+002;0.000000e+000
5.496362e+002;0.000000e+000
5.515648e+002;0.000000e+000
5.534933e+002;0.000000e+000
5.554218e+002;0.000000e+000
5.573504e+002;0.000000e+000
5.592789e+002;0.000000e+000
5.612075e+002;0.000000e+000
5.631360e+002;0.000000e+000
5.650646e+002;0.000000e+000
5.669931e+002;0.000000e+000
5.689217e+002;0.000000e+000
5.708502e+002;0.000000e+000
5.727787e+002;0.000000e+000
5.747073e+002;0.000000e+000
5.766359e+002;0.000000e+000
5.785644e+002;0.000000e+000
5.804930e+002;0.000000e+000
5.824215e+002;0.000000e+000
5.843500e+002;0.000000e+000
5.862786e+002;0.000000e+000
5.882072e+002;0.000000e+000
5.901357e+002;0.000000e+000
5.920643e+002;0.000000e+000
5.939928e+002;0.000000e+000
5.959213e+002;0.000000e+000
5.978499e+002;0.000000e+000
5.997784e+002;2.828890e-001
6.017070e+002;2.856946e-001
6.036355e+002;2.853651e-001
6.055641e+002;2.886673e-001
6.074926e+002;2.908232e-001
6.094211e+002;2.933551e-001
6.113497e+002;2.952483e-001
6.132783e+002;2.898066e-001
6.152068e+002;2.886560e-001
6.171354e+002;2.879881e-001
6.190639e+002;2.853135e-001
6.209924e+002;2.799643e-001
6.229210e+002;2.694718e-001
6.248495e+002;2.618871e-001
6.267781e+002;2.604808e-001
6.287067e+002;2.610864e-001
6.306352e+002;2.608550e-001
6.325637e+002;2.552615e-001
6.344923e+002;2.513230e-001
6.364208e+002;2.499436e-001
6.383494e+002;2.475953e-001
6.402780e+002;2.463264e-001
6.422065e+002;2.474018e-001
6.441350e+002;2.484895e-001
6.460636e+002;2.439864e-001
6.479921e+002;2.385199e-001
6.499207e+002;2.375571e-001
6.518492e+002;2.419620e-001
6.537778e+002;2.472542e-001
6.557063e+002;2.532779e-001
6.576349e+002;2.627482e-001
6.595634e+002;2.722267e-001
6.614919e+002;2.735675e-001
6.634205e+002;2.721064e-001
6.653491e+002;2.703030e-001
6.672776e+002;2.656596e-001
6.692062e+002;2.590784e-001
6.711347e+002;2.516998e-001
6.730632e+002;2.460747e-001
6.749918e+002;2.401949e-001
6.769203e+002;2.343281e-001
6.788489e+002;2.285518e-001
6.807775e+002;2.238782e-001
6.827060e+002;2.217987e-001
6.846345e+002;2.206239e-001
6.865631e+002;2.200734e-001
6.884916e+002;2.211632e-001
6.904202e+002;2.203342e-001
6.923488e+002;2.188791e-001
6.942773e+002;2.194313e-001
6.962058e+002;2.194366e-001
6.981344e+002;2.197319e-001
7.000629e+002;2.202086e-001
7.019915e+002;2.199028e-001
7.039200e+002;2.186106e-001
7.058486e+002;2.169186e-001
7.077771e+002;2.134127e-001
7.097057e+002;2.093561e-001
7.116342e+002;2.055021e-001
7.135627e+002;2.007474e-001
7.154913e+002;1.962406e-001
7.174199e+002;1.932428e-001
7.193484e+002;1.882789e-001
7.212770e+002;1.811623e-001
7.232055e+002;1.753042e-001
7.251340e+002;1.710651e-001
7.270626e+002;1.668201e-001
7.289911e+002;1.634997e-001
7.309197e+002;1.616546e-001
7.328483e+002;1.579346e-001
7.347768e+002;1.526977e-001
7.367053e+002;1.491338e-001
7.386339e+002;1.474928e-001
7.405624e+002;1.460268e-001
7.424910e+002;1.431732e-001
7.444196e+002;1.421097e-001
7.463481e+002;1.422181e-001
7.482766e+002;1.412057e-001
7.502052e+002;1.392152e-001
7.521337e+002;1.380494e-001
7.540623e+002;1.376753e-001
7.559908e+002;1.369047e-001
7.579194e+002;1.354015e-001
7.598479e+002;1.338983e-001
7.617765e+002;1.330007e-001
7.637050e+002;1.323035e-001
7.656335e+002;1.314764e-001
7.675621e+002;1.311882e-001
7.694907e+002;1.315231e-001
7.714192e+002;1.319469e-001
7.733478e+002;1.325779e-001
7.752763e+002;1.329332e-001
7.772048e+002;1.339061e-001
7.791334e+002;1.363021e-001
7.810620e+002;1.395232e-001
7.829905e+002;1.434445e-001
7.849191e+002;1.486623e-001
7.868476e+002;1.546871e-001
7.887761e+002;1.609538e-001
7.907047e+002;1.669983e-001
7.926332e+002;1.723271e-001
7.945618e+002;1.774908e-001
7.964903e+002;1.822179e-001
7.984189e+002;1.855802e-001
8.003474e+002;1.874473e-001
8.022759e+002;1.876309e-001
8.042045e+002;1.867662e-001
8.061331e+002;1.850853e-001
8.080616e+002;1.824145e-001
8.099902e+002;1.789263e-001
8.119187e+002;1.753371e-001
8.138472e+002;1.730403e-001
8.157758e+002;1.707505e-001
8.177043e+002;1.680787e-001
8.196329e+002;1.663349e-001
8.215615e+002;1.637434e-001
8.234900e+002;1.583295e-001
8.254185e+002;1.522651e-001
8.273471e+002;1.456328e-001
8.292756e+002;1.387242e-001
8.312042e+002;1.332702e-001
8.331328e+002;1.296245e-001
8.350613e+002;1.268999e-001
8.369898e+002;1.246310e-001
8.389184e+002;1.237596e-001
8.408469e+002;1.233204e-001
8.427755e+002;1.229763e-001
8.447040e+002;1.228317e-001
8.466326e+002;1.230864e-001
8.485611e+002;1.233133e-001
8.504897e+002;1.238468e-001
8.524182e+002;1.246640e-001
8.543467e+002;1.257645e-001
8.562753e+002;1.268189e-001
8.582039e+002;1.279882e-001
8.601324e+002;1.292950e-001
8.620610e+002;1.306689e-001
8.639895e+002;1.316877e-001
8.659180e+002;1.318112e-001
8.678466e+002;1.318182e-001
8.697751e+002;1.322959e-001
8.717037e+002;1.332766e-001
8.736323e+002;1.346960e-001
8.755608e+002;1.359365e-001
8.774893e+002;1.374742e-001
8.794179e+002;1.388406e-001
8.813464e+002;1.397147e-001
8.832750e+002;1.405101e-001
8.852036e+002;1.418141e-001
8.871321e+002;1.440275e-001
8.890606e+002;1.464405e-001
8.909892e+002;1.484441e-001
8.929177e+002;1.501059e-001
8.948463e+002;1.511466e-001
8.967748e+002;1.516155e-001
8.987034e+002;1.521364e-001
9.006319e+002;1.521253e-001
9.025605e+002;1.513450e-001
9.044890e+002;1.501546e-001
9.064175e+002;1.489497e-001
9.083461e+002;1.475903e-001
9.102747e+002;1.463605e-001
9.122032e+002;1.454428e-001
9.141318e+002;1.445648e-001
9.160603e+002;1.435998e-001
9.179888e+002;1.432213e-001
9.199174e+002;1.431814e-001
9.218459e+002;1.435010e-001
9.237745e+002;1.447013e-001
9.257031e+002;1.463050e-001
9.276316e+002;1.479298e-001
9.295601e+002;1.492420e-001
9.314887e+002;1.509036e-001
9.334172e+002;1.529662e-001
9.353458e+002;1.549937e-001
9.372744e+002;1.566295e-001
9.392029e+002;1.581059e-001
9.411314e+002;1.603491e-001
9.430600e+002;1.631649e-001
9.449885e+002;1.658047e-001
9.469171e+002;1.685892e-001
9.488456e+002;1.723595e-001
9.507742e+002;1.764226e-001
9.527027e+002;1.805944e-001
9.546313e+002;1.853132e-001
9.565598e+002;1.903695e-001
9.584883e+002;1.954964e-001
9.604169e+002;2.009012e-001
9.623455e+002;2.071619e-001
9.642740e+002;2.142038e-001
9.662026e+002;2.214757e-001
9.681311e+002;2.297466e-001
9.700596e+002;2.393442e-001
9.719882e+002;2.502287e-001
9.739167e+002;2.631899e-001
9.758453e+002;2.794910e-001
9.777739e+002;2.979411e-001
9.797024e+002;3.170701e-001
9.816309e+002;3.339602e-001
9.835595e+002;3.441056e-001
9.854880e+002;3.461677e-001
9.874166e+002;3.440902e-001
9.893452e+002;3.445361e-001
9.912737e+002;3.505437e-001
9.932022e+002;3.610420e-001
9.951307e+002;3.736381e-001
9.970593e+002;3.868381e-001
9.989879e+002;3.979852e-001
1.000916e+003;4.039859e-001
1.002845e+003;4.071666e-001
1.004773e+003;4.097075e-001
1.006702e+003;4.121433e-001
1.008631e+003;4.145668e-001
1.010559e+003;4.189444e-001
1.012488e+003;4.249979e-001
1.014416e+003;4.304152e-001
1.016345e+003;4.351477e-001
1.018273e+003;4.390054e-001
1.020202e+003;4.428033e-001
1.022130e+003;4.487111e-001
1.024059e+003;4.555419e-001
1.025988e+003;4.629777e-001
1.027916e+003;4.695747e-001
1.029845e+003;4.743018e-001
1.031773e+003;4.755800e-001
1.033702e+003;4.703813e-001
1.035630e+003;4.582248e-001
1.037559e+003;4.436789e-001
1.039487e+003;4.302632e-001
1.041416e+003;4.204212e-001
1.043344e+003;4.174359e-001
1.045273e+003;4.215338e-001
1.047202e+003;4.302602e-001
1.049130e+003;4.415643e-001
1.051059e+003;4.525899e-001
1.052987e+003;4.615094e-001
1.054916e+003;4.649646e-001
1.056844e+003;4.612845e-001
1.058773e+003;4.498021e-001
1.060701e+003;4.293675e-001
1.062630e+003;4.017266e-001
1.064558e+003;3.733593e-001
1.066487e+003;3.495932e-001
1.068416e+003;3.313062e-001
1.070344e+003;3.179162e-001
1.072273e+003;3.088245e-001
1.074201e+003;3.022751e-001
1.076130e+003;2.965902e-001
1.078058e+003;2.907951e-001
1.079987e+003;2.856606e-001
1.081915e+003;2.823516e-001
1.083844e+003;2.817969e-001
1.085773e+003;2.826833e-001
1.087701e+003;2.836799e-001
1.089630e+003;2.848073e-001
1.091558e+003;2.869463e-001
1.093487e+003;2.903543e-001
1.095415e+003;2.948842e-001
1.097344e+003;2.996959e-001
1.099272e+003;3.039630e-001
1.101201e+003;3.068298e-001
1.103129e+003;3.071574e-001
1.105058e+003;3.044734e-001
1.106987e+003;3.007033e-001
1.108915e+003;2.967822e-001
1.110844e+003;2.918126e-001
1.112772e+003;2.820891e-001
1.114701e+003;2.669673e-001
1.116629e+003;2.494567e-001
1.118558e+003;2.341007e-001
1.120486e+003;2.224121e-001
1.122415e+003;2.133133e-001
1.124344e+003;2.040303e-001
1.126272e+003;1.931322e-001
1.128201e+003;1.825300e-001
1.130129e+003;1.744745e-001
1.132058e+003;1.686808e-001
1.133986e+003;1.635086e-001
1.135915e+003;1.592515e-001
1.137843e+003;1.571824e-001
1.139772e+003;1.573722e-001
1.141700e+003;1.595277e-001
1.143629e+003;1.630053e-001
1.145557e+003;1.668800e-001
1.147486e+003;1.702983e-001
1.149415e+003;1.730561e-001
1.151343e+003;1.761287e-001
1.153272e+003;1.799852e-001
1.155200e+003;1.844041e-001
1.157129e+003;1.889967e-001
1.159057e+003;1.928497e-001
1.160986e+003;1.937209e-001
1.162914e+003;1.902131e-001
1.164843e+003;1.823044e-001
1.166771e+003;1.711848e-001
1.168700e+003;1.595892e-001
1.170629e+003;1.488777e-001
1.172557e+003;1.397610e-001
1.174486e+003;1.330027e-001
1.176414e+003;1.281171e-001
1.178343e+003;1.243239e-001
1.180271e+003;1.209849e-001
1.182200e+003;1.182368e-001
1.184128e+003;1.163706e-001
1.186057e+003;1.152427e-001
1.187986e+003;1.149073e-001
1.189914e+003;1.151283e-001
1.191843e+003;1.161047e-001
1.193771e+003;1.181680e-001
1.195700e+003;1.205184e-001
1.197628e+003;1.226453e-001
1.199557e+003;1.248681e-001
1.201485e+003;1.268733e-001
1.203414e+003;1.281692e-001
1.205343e+003;1.283299e-001
1.207271e+003;1.265590e-001
1.209200e+003;1.220946e-001
1.211128e+003;1.167821e-001
1.213057e+003;1.130961e-001
1.214985e+003;1.113595e-001
1.216914e+003;1.109182e-001
1.218842e+003;1.113861e-001
1.220771e+003;1.126192e-001
1.222699e+003;1.145155e-001
1.224628e+003;1.167739e-001
1.226557e+003;1.194495e-001
1.228485e+003;1.222487e-001
1.230414e+003;1.244289e-001
1.232342e+003;1.264647e-001
1.234271e+003;1.285087e-001
1.236199e+003;1.296789e-001
1.238128e+003;1.300121e-001
1.240056e+003;1.310809e-001
1.241985e+003;1.329102e-001
1.243913e+003;1.351635e-001
1.245842e+003;1.381235e-001
1.247771e+003;1.409910e-001
1.249699e+003;1.437826e-001
1.251628e+003;1.475614e-001
1.253556e+003;1.526995e-001
1.255485e+003;1.589330e-001
1.257413e+003;1.655210e-001
1.259342e+003;1.705931e-001
1.261270e+003;1.717511e-001
1.263199e+003;1.681999e-001
1.265127e+003;1.606141e-001
1.267056e+003;1.509670e-001
1.268985e+003;1.428318e-001
1.270913e+003;1.381275e-001
1.272842e+003;1.363848e-001
1.274770e+003;1.360504e-001
1.276699e+003;1.357648e-001
1.278627e+003;1.354209e-001
1.280556e+003;1.346864e-001
1.282484e+003;1.327482e-001
1.284413e+003;1.306818e-001
1.286342e+003;1.293864e-001
1.288270e+003;1.285736e-001
1.290199e+003;1.283152e-001
1.292127e+003;1.283002e-001
1.294056e+003;1.283656e-001
1.295984e+003;1.289186e-001
1.297913e+003;1.303054e-001
1.299841e+003;1.328546e-001
1.301770e+003;1.366725e-001
1.303698e+003;1.413742e-001
1.305627e+003;1.465116e-001
1.307556e+003;1.522646e-001
1.309484e+003;1.583503e-001
1.311413e+003;1.635455e-001
1.313341e+003;1.671367e-001
1.315270e+003;1.679579e-001
1.317198e+003;1.653516e-001
1.319127e+003;1.603441e-001
1.321055e+003;1.547092e-001
1.322984e+003;1.496888e-001
1.324912e+003;1.461335e-001
1.326841e+003;1.446798e-001
1.328770e+003;1.452491e-001
1.330698e+003;1.476299e-001
1.332627e+003;1.506053e-001
1.334555e+003;1.522673e-001
1.336484e+003;1.516250e-001
1.338412e+003;1.494397e-001
1.340341e+003;1.465136e-001
1.342269e+003;1.426292e-001
1.344198e+003;1.383238e-001
1.346126e+003;1.345436e-001
1.348055e+003;1.319878e-001
1.349984e+003;1.309884e-001
1.351912e+003;1.314255e-001
1.353841e+003;1.328157e-001
1.355769e+003;1.342102e-001
1.357698e+003;1.353230e-001
1.359626e+003;1.364736e-001
1.361555e+003;1.365590e-001
1.363483e+003;1.351869e-001
1.365412e+003;1.340290e-001
1.367341e+003;1.338095e-001
1.369269e+003;1.337185e-001
1.371198e+003;1.327287e-001
1.373126e+003;1.300338e-001
1.375055e+003;1.261580e-001
1.376983e+003;1.224503e-001
1.378912e+003;1.189135e-001
1.380840e+003;1.156074e-001
1.382769e+003;1.127278e-001
1.384698e+003;1.099915e-001
1.386626e+003;1.077862e-001
1.388555e+003;1.066785e-001
1.390483e+003;1.062156e-001
1.392412e+003;1.062642e-001
1.394340e+003;1.067758e-001
1.396269e+003;1.073244e-001
1.398197e+003;1.077702e-001
1.400126e+003;1.081955e-001
1.402054e+003;1.085540e-001
1.403983e+003;1.088263e-001
1.405911e+003;1.089991e-001
1.407840e+003;1.094617e-001
1.409769e+003;1.098296e-001
1.411697e+003;1.101186e-001
1.413626e+003;1.108690e-001
1.415554e+003;1.117337e-001
1.417483e+003;1.129014e-001
1.419411e+003;1.149170e-001
1.421340e+003;1.174915e-001
1.423268e+003;1.198530e-001
1.425197e+003;1.217006e-001
1.427125e+003;1.229131e-001
1.429054e+003;1.231524e-001
1.430983e+003;1.224270e-001
1.432911e+003;1.205940e-001
1.434840e+003;1.178360e-001
1.436768e+003;1.153908e-001
1.438697e+003;1.142183e-001
1.440625e+003;1.135464e-001
1.442554e+003;1.134028e-001
1.444482e+003;1.138323e-001
1.446411e+003;1.140892e-001
1.448340e+003;1.142244e-001
1.450268e+003;1.143709e-001
1.452197e+003;1.143660e-001
1.454125e+003;1.137880e-001
1.456054e+003;1.118230e-001
1.457982e+003;1.099797e-001
1.459911e+003;1.094973e-001
1.461839e+003;1.085322e-001
1.463768e+003;1.051325e-001
1.465697e+003;1.013394e-001
1.467625e+003;9.903928e-002
1.469554e+003;9.767277e-002
1.471482e+003;9.735813e-002
1.473411e+003;9.604372e-002
1.475339e+003;9.210582e-002
1.477268e+003;8.886231e-002
1.479196e+003;8.780448e-002
1.481125e+003;8.688697e-002
1.483053e+003;8.503240e-002
1.484982e+003;8.240733e-002
1.486911e+003;7.984288e-002
1.488839e+003;7.792403e-002
1.490768e+003;7.682026e-002
1.492696e+003;7.617868e-002
1.494625e+003;7.549645e-002
1.496553e+003;7.495265e-002
1.498482e+003;7.474538e-002
1.500410e+003;7.453192e-002
1.502339e+003;7.451737e-002
1.504267e+003;7.396583e-002
1.506196e+003;7.309028e-002
1.508125e+003;7.344195e-002
1.510053e+003;7.420118e-002
1.511982e+003;7.414859e-002
1.513910e+003;7.389469e-002
1.515839e+003;7.334693e-002
1.517767e+003;7.298357e-002
1.519696e+003;7.270007e-002
1.521624e+003;7.238606e-002
1.523553e+003;7.282383e-002
1.525481e+003;7.336372e-002
1.527410e+003;7.387674e-002
1.529339e+003;7.445098e-002
1.531267e+003;7.500096e-002
1.533196e+003;7.553958e-002
1.535124e+003;7.635384e-002
1.537053e+003;7.685894e-002
1.538981e+003;7.650176e-002
1.540910e+003;7.684340e-002
1.542838e+003;7.788093e-002
1.544767e+003;7.840662e-002
1.546695e+003;7.866810e-002
1.548624e+003;7.890312e-002
1.550553e+003;7.922787e-002
1.552481e+003;7.913639e-002
1.554410e+003;7.880422e-002
1.556338e+003;7.832678e-002
1.558267e+003;7.747491e-002
1.560195e+003;7.777919e-002
1.562124e+003;7.883792e-002
1.564052e+003;7.910677e-002
1.565981e+003;7.899074e-002
1.567910e+003;7.863860e-002
1.569838e+003;7.837678e-002
1.571767e+003;7.868808e-002
1.573695e+003;7.890236e-002
1.575624e+003;7.865123e-002
1.577552e+003;7.867414e-002
1.579481e+003;7.887125e-002
1.581409e+003;7.898347e-002
1.583338e+003;7.934703e-002
1.585266e+003;7.957313e-002
1.587195e+003;7.941987e-002
1.589124e+003;7.934389e-002
1.591052e+003;7.964055e-002
1.592981e+003;7.963797e-002
1.594909e+003;7.944147e-002
1.596838e+003;7.976245e-002
1.598766e+003;8.021246e-002
1.600695e+003;8.045341e-002
1.602623e+003;8.057382e-002
1.604552e+003;8.045876e-002
1.606480e+003;8.036146e-002
1.608409e+003;8.038427e-002
1.610338e+003;8.040389e-002
1.612266e+003;8.048867e-002
1.614195e+003;8.030350e-002
1.616123e+003;7.988366e-002
1.618052e+003;8.045788e-002
1.619980e+003;8.119337e-002
1.621909e+003;8.106017e-002
1.623837e+003;8.100411e-002
1.625766e+003;8.118414e-002
1.627694e+003;8.133077e-002
1.629623e+003;8.154956e-002
1.631552e+003;8.157090e-002
1.633480e+003;8.143715e-002
1.635409e+003;8.122409e-002
1.637337e+003;8.137852e-002
1.639266e+003;8.161692e-002
1.641194e+003;8.175133e-002
1.643123e+003;8.162332e-002
1.645051e+003;8.127331e-002
1.646980e+003;8.113178e-002
1.648909e+003;8.142572e-002
1.650837e+003;8.093280e-002
1.652766e+003;7.976400e-002
1.654694e+003;8.012439e-002
1.656623e+003;8.093089e-002
1.658551e+003;8.084735e-002
1.660480e+003;8.035481e-002
1.662408e+003;7.968995e-002
1.664337e+003;7.910430e-002
1.666266e+003;7.867021e-002
1.668194e+003;7.804929e-002
1.670123e+003;7.753805e-002
1.672051e+003;7.712993e-002
1.673980e+003;7.625450e-002
1.675908e+003;7.539809e-002
1.677837e+003;7.512660e-002
1.679765e+003;7.461037e-002
1.681694e+003;7.366159e-002
1.683622e+003;7.232735e-002
1.685551e+003;7.196978e-002
1.687479e+003;7.209627e-002
1.689408e+003;7.154354e-002
1.691337e+003;7.089128e-002
1.693265e+003;7.036716e-002
1.695194e+003;6.957932e-002
1.697122e+003;6.936271e-002
1.699051e+003;6.907088e-002
1.700979e+003;6.895820e-002
1.702908e+003;6.958558e-002
1.704836e+003;6.971624e-002
1.706765e+003;7.022135e-002
1.708693e+003;7.096322e-002
1.710622e+003;7.176276e-002
1.712551e+003;7.262851e-002
1.714479e+003;7.351789e-002
1.716408e+003;7.452602e-002
1.718336e+003;7.661487e-002
1.720265e+003;7.986080e-002
1.722193e+003;8.301535e-002
1.724122e+003;8.609144e-002
1.726050e+003;8.913285e-002
1.727979e+003;9.129758e-002
1.729908e+003;9.274099e-002
1.731836e+003;9.335725e-002
1.733765e+003;9.273324e-002
1.735693e+003;9.169815e-002
1.737622e+003;8.959456e-002
1.739550e+003;8.581997e-002
1.741479e+003;8.104081e-002
1.743407e+003;7.585765e-002
1.745336e+003;7.123466e-002
1.747265e+003;6.762476e-002
1.749193e+003;6.473902e-002
1.751122e+003;6.252038e-002
1.753050e+003;6.119230e-002
1.754979e+003;6.053929e-002
1.756907e+003;5.995028e-002
1.758836e+003;5.947171e-002
1.760764e+003;5.921197e-002
1.762693e+003;5.907866e-002
1.764621e+003;5.916678e-002
1.766550e+003;5.876570e-002
1.768479e+003;5.812068e-002
1.770407e+003;5.760663e-002
1.772336e+003;5.734679e-002
1.774264e+003;5.769676e-002
1.776193e+003;5.797036e-002
1.778121e+003;5.784504e-002
1.780050e+003;5.770936e-002
1.781978e+003;5.771163e-002
1.783907e+003;5.754405e-002
1.785835e+003;5.737980e-002
1.787764e+003;5.728780e-002
1.789693e+003;5.707036e-002
1.791621e+003;5.665260e-002
1.793550e+003;5.654442e-002
1.795478e+003;5.680684e-002
1.797407e+003;5.690239e-002
1.799335e+003;5.678410e-002
1.801264e+003;5.637016e-002
1.803192e+003;5.643128e-002
1.805121e+003;5.659250e-002
1.807049e+003;5.651241e-002
1.808978e+003;5.647456e-002
1.810907e+003;5.628687e-002
1.812835e+003;5.604836e-002
1.814764e+003;5.602884e-002
1.816692e+003;5.619032e-002
1.818621e+003;5.620416e-002
1.820549e+003;5.613602e-002
1.822478e+003;5.608825e-002
1.824406e+003;5.592876e-002
1.826335e+003;5.591448e-002
1.828264e+003;5.583636e-002
1.830192e+003;5.573057e-002
1.832121e+003;5.581869e-002
1.834049e+003;5.570092e-002
1.835978e+003;5.549361e-002
1.837906e+003;5.546631e-002
1.839835e+003;5.535967e-002
1.841763e+003;5.515865e-002
1.843692e+003;5.509176e-002
1.845620e+003;5.525805e-002
1.847549e+003;5.525670e-002
1.849478e+003;5.494716e-002
1.851406e+003;5.494922e-002
1.853335e+003;5.540499e-002
1.855263e+003;5.559098e-002
1.857192e+003;5.529708e-002
1.859120e+003;5.505058e-002
1.861049e+003;5.496528e-002
1.862977e+003;5.502831e-002
1.864906e+003;5.488741e-002
1.866834e+003;5.459282e-002
1.868763e+003;5.455713e-002
1.870692e+003;5.468431e-002
1.872620e+003;5.477346e-002
1.874549e+003;5.466793e-002
1.876477e+003;5.448951e-002
1.878406e+003;5.452937e-002
1.880334e+003;5.453579e-002
1.882263e+003;5.461014e-002
1.884191e+003;5.474268e-002
1.886120e+003;5.452373e-002
1.888048e+003;5.418828e-002
1.889977e+003;5.418306e-002
1.891906e+003;5.455792e-002
1.893834e+003;5.475403e-002
1.895763e+003;5.461634e-002
1.897691e+003;5.439369e-002
1.899620e+003;5.442708e-002
1.901548e+003;5.447542e-002
1.903477e+003;5.438660e-002
1.905405e+003;5.436275e-002
1.907334e+003;5.449060e-002
1.909262e+003;5.445521e-002
1.911191e+003;5.445206e-002
1.913120e+003;5.453620e-002
1.915048e+003;5.466861e-002
1.916977e+003;5.468150e-002
1.918905e+003;5.478463e-002
1.920834e+003;5.493189e-002
1.922762e+003;5.489831e-002
1.924691e+003;5.493727e-002
1.926619e+003;5.505095e-002
1.928548e+003;5.513754e-002
1.930477e+003;5.510015e-002
1.932405e+003;5.494468e-002
1.934334e+003;5.507017e-002
1.936262e+003;5.535828e-002
1.938191e+003;5.548352e-002
1.940119e+003;5.557434e-002
1.942048e+003;5.570778e-002
1.943976e+003;5.601089e-002
1.945905e+003;5.613726e-002
1.947833e+003;5.601274e-002
1.949762e+003;5.588576e-002
1.951691e+003;5.578564e-002
1.953619e+003;5.596140e-002
1.955548e+003;5.622886e-002
1.957476e+003;5.626190e-002
1.959405e+003;5.639536e-002
1.961333e+003;5.647479e-002
1.963262e+003;5.639895e-002
1.965190e+003;5.638284e-002
1.967119e+003;5.636990e-002
1.969047e+003;5.625496e-002
1.970976e+003;5.613149e-002
1.972905e+003;5.618232e-002
1.974833e+003;5.625964e-002
1.976762e+003;5.627424e-002
1.978690e+003;5.623361e-002
1.980619e+003;5.623452e-002
1.982547e+003;5.636541e-002
1.984476e+003;5.657099e-002
1.986404e+003;5.660711e-002
1.988333e+003;5.674321e-002
1.990261e+003;5.682882e-002
1.992190e+003;5.682991e-002
1.994119e+003;5.690813e-002
1.996047e+003;5.689227e-002
1.997976e+003;5.702218e-002
1.999904e+003;5.710924e-002
2.001833e+003;5.712538e-002
2.003761e+003;5.706121e-002
2.005690e+003;5.705419e-002
2.007618e+003;5.708268e-002
2.009547e+003;5.684868e-002
2.011476e+003;5.673626e-002
2.013404e+003;5.694039e-002
2.015333e+003;5.722762e-002
2.017261e+003;5.744605e-002
2.019190e+003;5.741228e-002
2.021118e+003;5.747669e-002
2.023047e+003;5.775140e-002
2.024975e+003;5.793992e-002
2.026904e+003;5.794920e-002
2.028833e+003;5.797782e-002
2.030761e+003;5.817333e-002
2.032690e+003;5.832997e-002
2.034618e+003;5.838758e-002
2.036547e+003;5.839068e-002
2.038475e+003;5.849542e-002
2.040404e+003;5.855972e-002
2.042332e+003;5.855851e-002
2.044261e+003;5.859996e-002
2.046189e+003;5.846771e-002
2.048118e+003;5.844178e-002
2.050047e+003;5.857717e-002
2.051975e+003;5.851055e-002
2.053904e+003;5.857618e-002
2.055832e+003;5.873194e-002
2.057761e+003;5.853682e-002
2.059689e+003;5.834494e-002
2.061618e+003;5.836381e-002
2.063546e+003;5.838678e-002
2.065475e+003;5.834028e-002
2.067404e+003;5.820209e-002
2.069332e+003;5.809507e-002
2.071260e+003;5.815003e-002
2.073189e+003;5.833334e-002
2.075118e+003;5.847370e-002
2.077046e+003;5.852966e-002
2.078975e+003;5.845729e-002
2.080903e+003;5.827252e-002
2.082832e+003;5.814882e-002
2.084760e+003;5.818951e-002
2.086689e+003;5.803853e-002
2.088617e+003;5.793450e-002
2.090546e+003;5.786045e-002
2.092475e+003;5.796025e-002
2.094403e+003;5.822114e-002
2.096332e+003;5.831011e-002
2.098260e+003;5.820663e-002
2.100189e+003;5.794806e-002
2.102117e+003;5.786481e-002
2.104046e+003;5.797517e-002
2.105974e+003;5.809424e-002
2.107903e+003;5.826809e-002
2.109832e+003;5.851290e-002
2.111760e+003;5.849569e-002
2.113688e+003;5.846020e-002
2.115617e+003;5.857117e-002
2.117546e+003;5.863989e-002
2.119474e+003;5.856640e-002
2.121403e+003;5.848488e-002
2.123331e+003;5.841529e-002
2.125260e+003;5.835237e-002
2.127188e+003;5.845615e-002
2.129117e+003;5.849254e-002
2.131045e+003;5.860371e-002
2.132974e+003;5.865972e-002
2.134903e+003;5.853190e-002
2.136831e+003;5.857129e-002
2.138760e+003;5.869170e-002
2.140688e+003;5.886480e-002
2.142617e+003;5.888582e-002
2.144545e+003;5.861456e-002
2.146474e+003;5.847146e-002
2.148402e+003;5.846673e-002
2.150331e+003;5.830022e-002
2.152260e+003;5.821440e-002
2.154188e+003;5.837590e-002
2.156117e+003;5.852916e-002
2.158045e+003;5.828741e-002
2.159974e+003;5.797483e-002
2.161902e+003;5.795344e-002
2.163831e+003;5.786545e-002
2.165759e+003;5.781170e-002
2.167688e+003;5.765722e-002
2.169616e+003;5.766399e-002
2.171545e+003;5.753849e-002
2.173474e+003;5.719734e-002
2.175402e+003;5.709254e-002
2.177331e+003;5.710142e-002
2.179259e+003;5.712300e-002
2.181188e+003;5.705872e-002
2.183116e+003;5.679377e-002
2.185045e+003;5.662040e-002
2.186973e+003;5.660613e-002
2.188902e+003;5.644369e-002
2.190831e+003;5.643336e-002
2.192759e+003;5.655570e-002
2.194688e+003;5.651487e-002
2.196616e+003;5.661001e-002
2.198545e+003;5.666102e-002
2.200473e+003;5.666381e-002
2.202402e+003;5.676775e-002
2.204330e+003;5.668178e-002
2.206259e+003;5.650747e-002
2.208188e+003;5.637099e-002
2.210116e+003;5.626880e-002
2.212044e+003;5.630241e-002
2.213973e+003;5.648264e-002
2.215902e+003;5.642430e-002
2.217830e+003;5.639038e-002
2.219759e+003;5.644679e-002
2.221687e+003;5.638065e-002
2.223616e+003;5.634519e-002
2.225544e+003;5.638631e-002
2.227473e+003;5.659926e-002
2.229401e+003;5.675231e-002
2.231330e+003;5.668220e-002
2.233259e+003;5.668310e-002
2.235187e+003;5.669915e-002
2.237116e+003;5.672410e-002
2.239044e+003;5.646249e-002
2.240973e+003;5.624598e-002
2.242901e+003;5.630426e-002
2.244830e+003;5.637126e-002
2.246758e+003;5.645056e-002
2.248687e+003;5.658257e-002
2.250615e+003;5.668340e-002
2.252544e+003;5.650328e-002
2.254473e+003;5.621547e-002
2.256401e+003;5.611230e-002
2.258330e+003;5.621917e-002
2.260258e+003;5.636115e-002
2.262187e+003;5.642743e-002
2.264115e+003;5.624745e-002
2.266044e+003;5.605745e-002
2.267972e+003;5.591414e-002
2.269901e+003;5.593799e-002
2.271830e+003;5.609364e-002
2.273758e+003;5.615838e-002
2.275687e+003;5.591549e-002
2.277615e+003;5.577201e-002
2.279544e+003;5.588218e-002
2.281472e+003;5.566359e-002
2.283401e+003;5.569037e-002
2.285329e+003;5.589748e-002
2.287258e+003;5.577932e-002
2.289187e+003;5.567708e-002
2.291115e+003;5.546194e-002
2.293043e+003;5.512983e-002
2.294972e+003;5.504422e-002
2.296901e+003;5.521015e-002
2.298829e+003;5.535688e-002
2.300758e+003;5.533603e-002
2.302686e+003;5.516403e-002
2.304615e+003;5.506735e-002
2.306543e+003;5.503854e-002
2.308472e+003;5.484530e-002
2.310400e+003;5.479576e-002
2.312329e+003;5.497028e-002
2.314258e+003;5.511700e-002
2.316186e+003;5.514458e-002
2.318115e+003;5.519183e-002
2.320043e+003;5.508657e-002
2.321972e+003;5.490595e-002
2.323900e+003;5.514202e-002
2.325829e+003;5.527570e-002
2.327757e+003;5.511351e-002
2.329686e+003;5.492478e-002
2.331615e+003;5.495129e-002
2.333543e+003;5.479854e-002
2.335472e+003;5.466677e-002
2.337400e+003;5.495908e-002
2.339329e+003;5.520410e-002
2.341257e+003;5.550344e-002
2.343186e+003;5.568258e-002
2.345114e+003;5.554515e-002
2.347043e+003;5.558217e-002
2.348971e+003;5.582106e-002
2.350900e+003;5.598933e-002
2.352829e+003;5.613960e-002
2.354757e+003;5.602589e-002
2.356686e+003;5.595009e-002
2.358614e+003;5.595695e-002
2.360543e+003;5.568446e-002
2.362471e+003;5.571727e-002
2.364400e+003;5.595839e-002
2.366328e+003;5.600580e-002
2.368257e+003;5.613572e-002
2.370186e+003;5.640178e-002
2.372114e+003;5.632870e-002
2.374042e+003;5.635379e-002
2.375971e+003;5.645781e-002
2.377900e+003;5.665101e-002
2.379828e+003;5.674910e-002
2.381757e+003;5.679966e-002
2.383685e+003;5.696899e-002
2.385614e+003;5.721110e-002
2.387542e+003;5.707686e-002
2.389471e+003;5.702037e-002
2.391399e+003;5.731132e-002
2.393328e+003;5.746447e-002
2.395257e+003;5.750797e-002
2.397185e+003;5.767836e-002
2.399114e+003;5.767920e-002
2.401042e+003;5.761075e-002
2.402971e+003;5.774296e-002
2.404899e+003;5.816784e-002
2.406828e+003;5.856939e-002
2.408756e+003;5.862870e-002
2.410685e+003;5.859389e-002
2.412614e+003;5.848939e-002
2.414542e+003;5.852553e-002
2.416471e+003;5.861865e-002
2.418399e+003;5.835513e-002
2.420328e+003;5.827146e-002
2.422256e+003;5.853265e-002
2.424185e+003;5.868248e-002
2.426113e+003;5.908773e-002
2.428042e+003;5.957519e-002
2.429970e+003;5.932537e-002
2.431899e+003;5.893565e-002
2.433828e+003;5.929643e-002
2.435756e+003;5.965102e-002
2.437685e+003;5.948235e-002
2.439613e+003;5.932963e-002
2.441542e+003;5.925294e-002
2.443470e+003;5.938916e-002
2.445399e+003;5.979975e-002
2.447327e+003;6.016476e-002
2.449256e+003;6.010421e-002
2.451185e+003;5.993138e-002
2.453113e+003;5.983568e-002
2.455042e+003;5.964623e-002
2.456970e+003;5.959792e-002
2.458899e+003;5.976906e-002
2.460827e+003;5.985421e-002
2.462756e+003;5.983276e-002
2.464684e+003;5.982302e-002
2.466613e+003;5.979066e-002
2.468542e+003;6.001164e-002
2.470470e+003;6.029478e-002
2.472398e+003;6.035798e-002
2.474327e+003;6.032211e-002
2.476256e+003;6.027651e-002
2.478184e+003;6.049895e-002
2.480113e+003;6.083139e-002
2.482041e+003;6.076225e-002
2.483970e+003;6.080253e-002
2.485898e+003;6.068912e-002
2.487827e+003;6.071210e-002
2.489755e+003;6.102739e-002
2.491684e+003;6.089516e-002
2.493613e+003;6.057468e-002
2.495541e+003;6.072425e-002
2.497470e+003;6.090347e-002
2.499398e+003;6.103692e-002
2.501327e+003;6.129047e-002
2.503255e+003;6.151599e-002
2.505184e+003;6.172620e-002
2.507112e+003;6.163363e-002
2.509041e+003;6.134622e-002
2.510969e+003;6.146625e-002
2.512898e+003;6.173624e-002
2.514827e+003;6.188103e-002
2.516755e+003;6.182376e-002
2.518684e+003;6.182922e-002
2.520612e+003;6.230592e-002
2.522541e+003;6.235304e-002
2.524469e+003;6.217243e-002
2.526398e+003;6.232677e-002
2.528326e+003;6.231093e-002
2.530255e+003;6.221617e-002
2.532184e+003;6.230921e-002
2.534112e+003;6.239986e-002
2.536041e+003;6.255654e-002
2.537969e+003;6.269249e-002
2.539898e+003;6.235836e-002
2.541826e+003;6.201543e-002
2.543755e+003;6.212854e-002
2.545683e+003;6.237397e-002
2.547612e+003;6.240503e-002
2.549541e+003;6.231192e-002
2.551469e+003;6.235729e-002
2.553397e+003;6.247657e-002
2.555326e+003;6.251663e-002
2.557255e+003;6.256140e-002
2.559183e+003;6.288726e-002
2.561112e+003;6.304058e-002
2.563040e+003;6.289928e-002
2.564969e+003;6.306315e-002
2.566897e+003;6.315764e-002
2.568826e+003;6.310576e-002
2.570754e+003;6.296049e-002
2.572683e+003;6.294088e-002
2.574612e+003;6.290063e-002
2.576540e+003;6.282009e-002
2.578469e+003;6.302135e-002
2.580397e+003;6.323027e-002
2.582326e+003;6.312557e-002
2.584254e+003;6.286137e-002
2.586183e+003;6.309683e-002
2.588111e+003;6.370298e-002
2.590040e+003;6.391387e-002
2.591969e+003;6.366204e-002
2.593897e+003;6.366262e-002
2.595826e+003;6.384569e-002
2.597754e+003;6.397644e-002
2.599683e+003;6.416891e-002
2.601611e+003;6.401131e-002
2.603540e+003;6.378368e-002
2.605468e+003;6.412839e-002
2.607397e+003;6.437437e-002
2.609325e+003;6.418397e-002
2.611254e+003;6.413645e-002
2.613183e+003;6.432331e-002
2.615111e+003;6.438890e-002
2.617040e+003;6.473925e-002
2.618968e+003;6.503769e-002
2.620897e+003;6.485507e-002
2.622825e+003;6.478994e-002
2.624754e+003;6.489993e-002
2.626682e+003;6.505936e-002
2.628611e+003;6.506917e-002
2.630540e+003;6.502464e-002
2.632468e+003;6.497065e-002
2.634396e+003;6.498435e-002
2.636325e+003;6.540143e-002
2.638254e+003;6.548283e-002
2.640182e+003;6.512772e-002
2.642111e+003;6.512556e-002
2.644039e+003;6.555618e-002
2.645968e+003;6.575067e-002
2.647896e+003;6.560937e-002
2.649825e+003;6.544257e-002
2.651753e+003;6.551384e-002
2.653682e+003;6.587921e-002
2.655611e+003;6.603526e-002
2.657539e+003;6.623296e-002
2.659468e+003;6.624747e-002
2.661396e+003;6.601169e-002
2.663325e+003;6.590759e-002
2.665253e+003;6.606334e-002
2.667182e+003;6.626315e-002
2.669110e+003;6.649667e-002
2.671039e+003;6.684265e-002
2.672968e+003;6.656584e-002
2.674896e+003;6.643141e-002
2.676825e+003;6.682940e-002
2.678753e+003;6.698993e-002
2.680682e+003;6.697728e-002
2.682610e+003;6.696951e-002
2.684539e+003;6.716641e-002
2.686467e+003;6.742275e-002
2.688396e+003;6.766945e-002
2.690324e+003;6.771258e-002
2.692253e+003;6.789451e-002
2.694182e+003;6.799808e-002
2.696110e+003;6.775182e-002
2.698039e+003;6.779934e-002
2.699967e+003;6.801036e-002
2.701896e+003;6.797754e-002
2.703824e+003;6.812241e-002
2.705753e+003;6.850891e-002
2.707681e+003;6.854387e-002
2.709610e+003;6.842174e-002
2.711539e+003;6.849033e-002
2.713467e+003;6.875720e-002
2.715396e+003;6.872746e-002
2.717324e+003;6.870840e-002
2.719253e+003;6.900325e-002
2.721181e+003;6.913968e-002
2.723110e+003;6.879939e-002
2.725038e+003;6.880879e-002
2.726967e+003;6.953390e-002
2.728896e+003;6.986223e-002
2.730824e+003;6.985581e-002
2.732752e+003;6.980161e-002
2.734681e+003;6.983596e-002
2.736610e+003;7.005335e-002
2.738538e+003;7.008544e-002
2.740467e+003;6.999037e-002
2.742395e+003;6.996799e-002
2.744324e+003;6.979324e-002
2.746252e+003;6.990251e-002
2.748181e+003;7.011954e-002
2.750109e+003;7.002902e-002
2.752038e+003;6.996510e-002
2.753967e+003;7.004265e-002
2.755895e+003;7.021021e-002
2.757824e+003;7.043616e-002
2.759752e+003;7.052304e-002
2.761681e+003;7.066766e-002
2.763609e+003;7.086082e-002
2.765538e+003;7.094968e-002
2.767466e+003;7.091125e-002
2.769395e+003;7.107127e-002
2.771323e+003;7.130177e-002
2.773252e+003;7.138464e-002
2.775181e+003;7.156815e-002
2.777109e+003;7.180063e-002
2.779038e+003;7.165755e-002
2.780966e+003;7.189251e-002
2.782895e+003;7.218609e-002
2.784823e+003;7.231151e-002
2.786752e+003;7.249474e-002
2.788680e+003;7.288124e-002
2.790609e+003;7.278645e-002
2.792538e+003;7.294822e-002
2.794466e+003;7.345992e-002
2.796395e+003;7.377993e-002
2.798323e+003;7.409845e-002
2.800252e+003;7.437024e-002
2.802180e+003;7.470673e-002
2.804109e+003;7.525007e-002
2.806037e+003;7.560484e-002
2.807966e+003;7.599716e-002
2.809895e+003;7.617667e-002
2.811823e+003;7.627373e-002
2.813751e+003;7.694160e-002
2.815680e+003;7.778410e-002
2.817609e+003;7.851325e-002
2.819537e+003;7.902306e-002
2.821466e+003;7.941879e-002
2.823394e+003;7.968004e-002
2.825323e+003;8.019692e-002
2.827251e+003;8.088311e-002
2.829180e+003;8.161084e-002
2.831108e+003;8.252431e-002
2.833037e+003;8.352923e-002
2.834966e+003;8.462737e-002
2.836894e+003;8.611903e-002
2.838823e+003;8.800026e-002
2.840751e+003;9.034019e-002
2.842680e+003;9.400668e-002
2.844608e+003;9.993085e-002
2.846537e+003;1.076812e-001
2.848465e+003;1.149631e-001
2.850394e+003;1.168962e-001
2.852323e+003;1.130790e-001
2.854251e+003;1.080885e-001
2.856180e+003;1.040620e-001
2.858108e+003;1.017639e-001
2.860037e+003;1.008864e-001
2.861965e+003;1.009353e-001
2.863894e+003;1.013667e-001
2.865822e+003;1.017876e-001
2.867751e+003;1.023790e-001
2.869679e+003;1.030500e-001
2.871608e+003;1.033493e-001
2.873536e+003;1.038546e-001
2.875465e+003;1.044878e-001
2.877394e+003;1.043928e-001
2.879322e+003;1.048674e-001
2.881251e+003;1.058157e-001
2.883179e+003;1.066639e-001
2.885108e+003;1.075407e-001
2.887036e+003;1.087630e-001
2.888965e+003;1.100776e-001
2.890893e+003;1.110676e-001
2.892822e+003;1.125069e-001
2.894750e+003;1.140326e-001
2.896679e+003;1.149712e-001
2.898608e+003;1.157641e-001
2.900536e+003;1.165582e-001
2.902465e+003;1.173337e-001
2.904393e+003;1.174939e-001
2.906322e+003;1.175462e-001
2.908250e+003;1.179492e-001
2.910179e+003;1.192548e-001
2.912107e+003;1.218655e-001
2.914036e+003;1.260938e-001
2.915965e+003;1.301679e-001
2.917893e+003;1.316009e-001
2.919822e+003;1.300952e-001
2.921750e+003;1.259983e-001
2.923679e+003;1.204291e-001
2.925607e+003;1.147742e-001
2.927536e+003;1.094886e-001
2.929464e+003;1.054187e-001
2.931393e+003;1.019448e-001
2.933322e+003;9.887204e-002
2.935250e+003;9.654896e-002
2.937178e+003;9.476904e-002
2.939107e+003;9.322405e-002
2.941036e+003;9.247931e-002
2.942964e+003;9.188374e-002
2.944893e+003;9.077533e-002
2.946821e+003;8.996348e-002
2.948750e+003;8.914705e-002
2.950678e+003;8.811105e-002
2.952607e+003;8.737482e-002
2.954535e+003;8.719973e-002
2.956464e+003;8.754475e-002
2.958393e+003;8.762760e-002
2.960321e+003;8.729821e-002
2.962250e+003;8.682558e-002
2.964178e+003;8.615039e-002
2.966107e+003;8.528866e-002
2.968035e+003;8.423965e-002
2.969964e+003;8.289069e-002
2.971892e+003;8.111624e-002
2.973821e+003;7.894448e-002
2.975750e+003;7.717857e-002
2.977678e+003;7.551076e-002
2.979607e+003;7.392769e-002
2.981535e+003;7.302611e-002
2.983464e+003;7.237456e-002
2.985392e+003;7.163207e-002
2.987321e+003;7.096704e-002
2.989249e+003;7.044466e-002
2.991178e+003;7.002345e-002
2.993106e+003;6.957532e-002
2.995035e+003;6.910386e-002
2.996964e+003;6.884800e-002
2.998892e+003;6.870041e-002
3.000821e+003;6.844370e-002
3.002749e+003;6.812733e-002
3.004678e+003;6.808996e-002
3.006606e+003;6.812876e-002
3.008535e+003;6.814171e-002
3.010463e+003;6.789289e-002
3.012392e+003;6.793081e-002
3.014321e+003;6.807791e-002
3.016249e+003;6.793550e-002
3.018177e+003;6.776359e-002
3.020106e+003;6.793109e-002
3.022035e+003;6.818276e-002
3.023963e+003;6.851919e-002
3.025892e+003;6.888357e-002
3.027820e+003;6.909535e-002
3.029749e+003;6.909551e-002
3.031677e+003;6.933321e-002
3.033606e+003;6.982254e-002
3.035534e+003;6.955684e-002
3.037463e+003;6.918728e-002
3.039392e+003;6.942219e-002
3.041320e+003;6.975172e-002
3.043249e+003;7.000524e-002
3.045177e+003;7.010771e-002
3.047106e+003;7.013567e-002
3.049034e+003;7.053890e-002
3.050963e+003;7.065830e-002
3.052891e+003;7.083277e-002
3.054820e+003;7.137468e-002
3.056749e+003;7.156740e-002
3.058677e+003;7.139448e-002
3.060606e+003;7.187887e-002
3.062534e+003;7.260011e-002
3.064463e+003;7.261880e-002
3.066391e+003;7.224638e-002
3.068320e+003;7.228328e-002
3.070248e+003;7.267570e-002
3.072177e+003;7.310067e-002
3.074105e+003;7.334010e-002
3.076034e+003;7.339424e-002
3.077963e+003;7.361703e-002
3.079891e+003;7.435124e-002
3.081820e+003;7.496978e-002
3.083748e+003;7.493547e-002
3.085677e+003;7.497776e-002
3.087605e+003;7.539849e-002
3.089534e+003;7.569776e-002
3.091462e+003;7.582403e-002
3.093391e+003;7.585982e-002
3.095320e+003;7.613394e-002
3.097248e+003;7.656594e-002
3.099177e+003;7.683320e-002
3.101105e+003;7.654753e-002
3.103034e+003;7.659910e-002
3.104962e+003;7.706895e-002
3.106891e+003;7.774970e-002
3.108819e+003;7.833631e-002
3.110748e+003;7.873320e-002
3.112677e+003;7.894075e-002
3.114605e+003;7.930654e-002
3.116533e+003;7.954277e-002
3.118462e+003;7.977746e-002
3.120391e+003;8.016300e-002
3.122319e+003;8.034715e-002
3.124248e+003;8.094259e-002
3.126176e+003;8.162896e-002
3.128105e+003;8.173813e-002
3.130033e+003;8.194228e-002
3.131962e+003;8.210196e-002
3.133890e+003;8.233596e-002
3.135819e+003;8.237264e-002
3.137748e+003;8.269155e-002
3.139676e+003;8.363064e-002
3.141605e+003;8.432260e-002
3.143533e+003;8.461682e-002
3.145462e+003;8.490555e-002
3.147390e+003;8.545160e-002
3.149319e+003;8.634453e-002
3.151247e+003;8.686981e-002
3.153176e+003;8.707646e-002
3.155104e+003;8.700399e-002
3.157033e+003;8.710574e-002
3.158962e+003;8.766085e-002
3.160890e+003;8.809076e-002
3.162819e+003;8.843371e-002
3.164747e+003;8.880743e-002
3.166676e+003;8.969023e-002
3.168604e+003;9.058262e-002
3.170533e+003;9.129386e-002
3.172461e+003;9.169354e-002
3.174390e+003;9.202334e-002
3.176319e+003;9.231506e-002
3.178247e+003;9.249321e-002
3.180176e+003;9.323345e-002
3.182104e+003;9.440795e-002
3.184033e+003;9.549819e-002
3.185961e+003;9.600581e-002
3.187890e+003;9.623241e-002
3.189818e+003;9.671403e-002
3.191747e+003;9.710700e-002
3.193676e+003;9.779875e-002
3.195604e+003;9.869263e-002
3.197532e+003;9.921896e-002
3.199461e+003;9.975150e-002
3.201390e+003;1.006156e-001
3.203318e+003;1.013594e-001
3.205247e+003;1.022657e-001
3.207175e+003;1.029947e-001
3.209104e+003;1.035935e-001
3.211032e+003;1.044589e-001
3.212961e+003;1.053670e-001
3.214889e+003;1.059290e-001
3.216818e+003;1.066317e-001
3.218747e+003;1.077024e-001
3.220675e+003;1.087343e-001
3.222604e+003;1.098562e-001
3.224532e+003;1.106551e-001
3.226461e+003;1.113035e-001
3.228389e+003;1.125438e-001
3.230318e+003;1.134216e-001
3.232246e+003;1.142375e-001
3.234175e+003;1.148580e-001
3.236104e+003;1.155293e-001
3.238032e+003;1.166960e-001
3.239961e+003;1.184581e-001
3.241889e+003;1.204001e-001
3.243818e+003;1.216111e-001
3.245746e+003;1.222490e-001
3.247675e+003;1.233867e-001
3.249603e+003;1.250446e-001
3.251532e+003;1.266724e-001
3.253460e+003;1.282254e-001
3.255389e+003;1.301462e-001
3.257318e+003;1.316545e-001
3.259246e+003;1.331388e-001
3.261175e+003;1.348175e-001
3.263103e+003;1.360700e-001
3.265032e+003;1.372168e-001
3.266960e+003;1.388608e-001
3.268889e+003;1.408036e-001
3.270817e+003;1.423131e-001
3.272746e+003;1.431814e-001
3.274675e+003;1.436941e-001
3.276603e+003;1.439902e-001
3.278531e+003;1.441857e-001
3.280460e+003;1.448181e-001
3.282389e+003;1.457201e-001
3.284317e+003;1.459867e-001
3.286246e+003;1.463006e-001
3.288174e+003;1.475904e-001
3.290103e+003;1.481477e-001
3.292031e+003;1.473607e-001
3.293960e+003;1.464801e-001
3.295888e+003;1.463136e-001
3.297817e+003;1.464758e-001
3.299746e+003;1.467686e-001
3.301674e+003;1.470001e-001
3.303603e+003;1.469456e-001
3.305531e+003;1.462423e-001
3.307460e+003;1.456684e-001
3.309388e+003;1.456634e-001
3.311317e+003;1.461869e-001
3.313245e+003;1.466676e-001
3.315174e+003;1.468575e-001
3.317103e+003;1.473458e-001
3.319031e+003;1.479561e-001
3.320960e+003;1.489133e-001
3.322888e+003;1.501518e-001
3.324817e+003;1.510216e-001
3.326745e+003;1.520181e-001
3.328674e+003;1.529996e-001
3.330602e+003;1.541977e-001
3.332531e+003;1.549447e-001
3.334459e+003;1.549855e-001
3.336388e+003;1.547613e-001
3.338317e+003;1.545303e-001
3.340245e+003;1.539594e-001
3.342174e+003;1.530600e-001
3.344102e+003;1.521416e-001
3.346031e+003;1.508782e-001
3.347959e+003;1.493214e-001
3.349888e+003;1.475681e-001
3.351816e+003;1.460519e-001
3.353745e+003;1.444936e-001
3.355674e+003;1.430955e-001
3.357602e+003;1.420162e-001
3.359531e+003;1.402462e-001
3.361459e+003;1.383719e-001
3.363388e+003;1.371633e-001
3.365316e+003;1.365961e-001
3.367245e+003;1.358804e-001
3.369173e+003;1.348136e-001
3.371102e+003;1.334611e-001
3.373031e+003;1.323020e-001
3.374959e+003;1.313199e-001
3.376887e+003;1.302084e-001
3.378816e+003;1.292287e-001
3.380745e+003;1.279007e-001
3.382673e+003;1.266623e-001
3.384602e+003;1.259849e-001
3.386530e+003;1.256765e-001
3.388459e+003;1.251508e-001
3.390387e+003;1.241127e-001
3.392316e+003;1.235766e-001
3.394244e+003;1.233879e-001
3.396173e+003;1.228049e-001
3.398102e+003;1.218402e-001
3.400030e+003;1.211897e-001
3.401959e+003;1.208337e-001
3.403887e+003;1.204927e-001
3.405816e+003;1.197945e-001
3.407744e+003;1.187053e-001
3.409673e+003;1.173533e-001
3.411601e+003;1.159690e-001
3.413530e+003;1.148251e-001
3.415458e+003;1.133883e-001
3.417387e+003;1.121484e-001
3.419316e+003;1.108906e-001
3.421244e+003;1.097968e-001
3.423173e+003;1.083371e-001
3.425101e+003;1.069850e-001
3.427030e+003;1.051870e-001
3.428958e+003;1.034431e-001
3.430887e+003;1.025215e-001
3.432815e+003;1.021749e-001
3.434744e+003;1.008365e-001
3.436673e+003;9.942978e-002
3.438601e+003;9.899383e-002
3.440530e+003;9.843100e-002
3.442458e+003;9.739566e-002
3.444387e+003;9.621463e-002
3.446315e+003;9.523336e-002
3.448244e+003;9.434405e-002
3.450172e+003;9.345187e-002
3.452101e+003;9.261274e-002
3.454030e+003;9.191482e-002
3.455958e+003;9.101135e-002
3.457886e+003;9.001770e-002
3.459815e+003;8.913346e-002
3.461744e+003;8.776227e-002
3.463672e+003;8.671184e-002
3.465601e+003;8.597200e-002
3.467529e+003;8.521858e-002
3.469458e+003;8.438034e-002
3.471386e+003;8.366222e-002
3.473315e+003;8.322804e-002
3.475243e+003;8.273047e-002
3.477172e+003;8.186074e-002
3.479101e+003;8.035249e-002
3.481029e+003;7.931764e-002
3.482958e+003;7.824349e-002
3.484886e+003;7.701728e-002
3.486815e+003;7.660978e-002
3.488743e+003;7.618354e-002
3.490672e+003;7.531410e-002
3.492600e+003;7.490835e-002
3.494529e+003;7.452410e-002
3.496458e+003;7.389638e-002
3.498386e+003;7.298651e-002
3.500315e+003;7.145295e-002
3.502243e+003;7.060072e-002
3.504172e+003;7.101382e-002
3.506100e+003;7.077684e-002
3.508029e+003;7.000629e-002
3.509957e+003;6.942814e-002
3.511886e+003;6.822641e-002
3.513814e+003;6.731932e-002
3.515743e+003;6.670892e-002
3.517672e+003;6.616770e-002
3.519600e+003;6.569245e-002
3.521529e+003;6.511190e-002
3.523457e+003;6.430624e-002
3.525386e+003;6.340472e-002
3.527314e+003;6.322463e-002
3.529243e+003;6.301952e-002
3.531171e+003;6.260522e-002
3.533100e+003;6.232015e-002
3.535029e+003;6.178036e-002
3.536957e+003;6.086592e-002
3.538885e+003;6.000734e-002
3.540814e+003;5.956535e-002
3.542743e+003;5.873786e-002
3.544671e+003;5.792057e-002
3.546600e+003;5.740135e-002
3.548528e+003;5.689000e-002
3.550457e+003;5.670228e-002
3.552385e+003;5.651487e-002
3.554314e+003;5.587027e-002
3.556242e+003;5.542223e-002
3.558171e+003;5.518137e-002
3.560100e+003;5.459511e-002
3.562028e+003;5.353877e-002
3.563957e+003;5.278919e-002
3.565885e+003;5.222962e-002
3.567814e+003;5.187103e-002
3.569742e+003;5.173066e-002
3.571671e+003;5.115820e-002
3.573599e+003;5.084084e-002
3.575528e+003;5.042005e-002
3.577457e+003;5.003050e-002
3.579385e+003;4.998373e-002
3.581314e+003;4.962770e-002
3.583242e+003;4.908887e-002
3.585171e+003;4.885951e-002
3.587099e+003;4.884397e-002
3.589028e+003;4.866640e-002
3.590956e+003;4.845205e-002
3.592885e+003;4.782137e-002
3.594813e+003;4.681332e-002
3.596742e+003;4.662448e-002
3.598671e+003;4.697651e-002
3.600599e+003;4.669369e-002
3.602528e+003;4.615211e-002
3.604456e+003;4.576025e-002
3.606385e+003;4.527717e-002
3.608313e+003;4.463074e-002
3.610242e+003;4.424362e-002
3.612170e+003;4.430303e-002
3.614099e+003;4.455139e-002
3.616028e+003;4.442494e-002
3.617956e+003;4.413299e-002
3.619885e+003;4.410940e-002
3.621813e+003;4.415639e-002
3.623742e+003;4.401476e-002
3.625670e+003;4.340631e-002
3.627599e+003;4.258851e-002
3.629527e+003;4.223830e-002
3.631456e+003;4.226923e-002
3.633385e+003;4.223710e-002
3.635313e+003;4.244431e-002
3.637241e+003;4.239032e-002
3.639170e+003;4.178217e-002
3.641099e+003;4.104032e-002
3.643027e+003;4.082143e-002
3.644956e+003;4.060702e-002
3.646884e+003;3.987538e-002
3.648813e+003;3.940627e-002
3.650741e+003;3.938479e-002
3.652670e+003;3.975325e-002
3.654598e+003;3.945645e-002
3.656527e+003;3.884569e-002
3.658456e+003;3.848686e-002
3.660384e+003;3.841305e-002
3.662313e+003;3.826180e-002
3.664241e+003;3.815022e-002
3.666170e+003;3.795191e-002
3.668098e+003;3.709278e-002
3.670027e+003;3.643863e-002
3.671955e+003;3.689953e-002
3.673884e+003;3.704803e-002
3.675813e+003;3.660697e-002
3.677741e+003;3.670363e-002
3.679669e+003;3.715301e-002
3.681598e+003;3.707917e-002
3.683527e+003;3.627704e-002
3.685455e+003;3.583792e-002
3.687384e+003;3.579021e-002
3.689312e+003;3.594279e-002
3.691241e+003;3.613612e-002
3.693169e+003;3.564052e-002
3.695098e+003;3.506308e-002
3.697026e+003;3.487770e-002
3.698955e+003;3.459841e-002
3.700884e+003;3.434678e-002
3.702812e+003;3.468744e-002
3.704741e+003;3.539647e-002
3.706669e+003;3.524613e-002
3.708598e+003;3.493199e-002
3.710526e+003;3.463605e-002
3.712455e+003;3.387865e-002
3.714383e+003;3.374932e-002
3.716312e+003;3.371966e-002
3.718240e+003;3.399527e-002
3.720169e+003;3.406156e-002
3.722098e+003;3.383359e-002
3.724026e+003;3.380680e-002
3.725955e+003;3.365951e-002
3.727883e+003;3.401712e-002
3.729812e+003;3.372149e-002
3.731740e+003;3.296643e-002
3.733669e+003;3.314281e-002
3.735597e+003;3.360892e-002
3.737526e+003;3.380905e-002
3.739455e+003;3.369649e-002
3.741383e+003;3.348603e-002
3.743312e+003;3.294898e-002
3.745240e+003;3.292771e-002
3.747169e+003;3.324377e-002
3.749097e+003;3.330126e-002
3.751026e+003;3.362367e-002
3.752954e+003;3.358490e-002
3.754883e+003;3.379580e-002
3.756812e+003;3.420182e-002
3.758740e+003;3.382660e-002
3.760668e+003;3.350483e-002
3.762597e+003;3.418199e-002
3.764526e+003;3.451317e-002
3.766454e+003;3.454330e-002
3.768383e+003;3.371705e-002
3.770311e+003;3.325375e-002
3.772240e+003;3.336168e-002
3.774168e+003;3.287964e-002
3.776097e+003;3.308423e-002
3.778025e+003;3.421884e-002
3.779954e+003;3.494050e-002
3.781883e+003;3.445010e-002
3.783811e+003;3.430181e-002
3.785740e+003;3.397162e-002
3.787668e+003;3.381407e-002
3.789597e+003;3.405923e-002
3.791525e+003;3.402734e-002
3.793454e+003;3.433932e-002
3.795382e+003;3.424086e-002
3.797311e+003;3.387288e-002
3.799240e+003;3.342137e-002
3.801168e+003;3.328526e-002
3.803097e+003;3.390054e-002
3.805025e+003;3.470866e-002
3.806954e+003;3.428108e-002
3.808882e+003;3.336179e-002
3.810811e+003;3.332895e-002
3.812739e+003;3.366227e-002
3.814668e+003;3.366083e-002
3.816596e+003;3.356260e-002
3.818525e+003;3.358039e-002
3.820454e+003;3.310236e-002
3.822382e+003;3.348457e-002
3.824311e+003;3.434753e-002
3.826239e+003;3.410604e-002
3.828168e+003;3.396578e-002
3.830096e+003;3.376697e-002
3.832025e+003;3.342423e-002
3.833953e+003;3.337718e-002
3.835882e+003;3.315192e-002
3.837811e+003;3.326584e-002
3.839739e+003;3.446718e-002
3.841667e+003;3.455306e-002
3.843596e+003;3.371397e-002
3.845525e+003;3.370824e-002
3.847453e+003;3.398753e-002
3.849382e+003;3.365725e-002
3.851310e+003;3.357384e-002
3.853239e+003;3.333396e-002
3.855167e+003;3.350816e-002
3.857096e+003;3.398362e-002
3.859024e+003;3.381328e-002
3.860953e+003;3.362986e-002
3.862882e+003;3.386074e-002
3.864810e+003;3.380758e-002
3.866739e+003;3.400727e-002
3.868667e+003;3.429733e-002
3.870596e+003;3.441632e-002
3.872524e+003;3.435043e-002
3.874453e+003;3.468030e-002
3.876381e+003;3.540514e-002
3.878310e+003;3.513701e-002
3.880239e+003;3.481929e-002
3.882167e+003;3.529177e-002
3.884096e+003;3.508154e-002
3.886024e+003;3.484434e-002
3.887953e+003;3.537257e-002
3.889881e+003;3.590950e-002
3.891810e+003;3.578211e-002
3.893738e+003;3.540158e-002
3.895667e+003;3.545576e-002
3.897595e+003;3.565767e-002
3.899524e+003;3.560887e-002
3.901453e+003;3.533767e-002
3.903381e+003;3.465048e-002
3.905310e+003;3.482417e-002
3.907238e+003;3.525975e-002
3.909167e+003;3.507813e-002
3.911095e+003;3.522604e-002
3.913024e+003;3.547517e-002
3.914952e+003;3.539104e-002
3.916881e+003;3.565627e-002
3.918810e+003;3.605017e-002
3.920738e+003;3.599603e-002
3.922667e+003;3.547862e-002
3.924595e+003;3.563883e-002
3.926524e+003;3.711713e-002
3.928452e+003;3.798280e-002
3.930381e+003;3.770389e-002
3.932309e+003;3.679453e-002
3.934238e+003;3.607807e-002
3.936167e+003;3.638216e-002
3.938095e+003;3.703850e-002
3.940023e+003;3.678552e-002
3.941952e+003;3.623882e-002
3.943881e+003;3.592296e-002
3.945809e+003;3.613831e-002
3.947738e+003;3.644165e-002
3.949666e+003;3.659118e-002
3.951595e+003;3.707563e-002
3.953523e+003;3.734969e-002
3.955452e+003;3.708967e-002
3.957380e+003;3.686721e-002
3.959309e+003;3.693224e-002
3.961238e+003;3.665841e-002
3.963166e+003;3.589895e-002
3.965095e+003;3.601737e-002
3.967023e+003;3.642061e-002
3.968952e+003;3.638901e-002
3.970880e+003;3.618081e-002
3.972809e+003;3.629440e-002
3.974737e+003;3.652955e-002
3.976666e+003;3.721365e-002
3.978594e+003;3.779537e-002
3.980523e+003;3.791828e-002
3.982452e+003;3.781229e-002
3.984380e+003;3.810146e-002
3.986309e+003;3.791630e-002
3.988237e+003;3.776479e-002
3.990166e+003;3.716431e-002
3.992094e+003;3.683709e-002
3.994023e+003;3.740581e-002
3.995951e+003;3.654688e-002
3.997880e+003;3.615736e-002
3.999809e+003;3.683121e-002
4.001737e+003;0.000000e+000
