3.992094e+002;0.000000e+000
4.011380e+002;0.000000e+000
4.030665e+002;0.000000e+000
4.049951e+002;0.000000e+000
4.069236e+002;0.000000e+000
4.088522e+002;0.000000e+000
4.107807e+002;0.000000e+000
4.127093e+002;0.000000e+000
4.146378e+002;0.000000e+000
4.165664e+002;0.000000e+000
4.184949e+002;0.000000e+000
4.204235e+002;0.000000e+000
4.223520e+002;0.000000e+000
4.242806e+002;0.000000e+000
4.262091e+002;0.000000e+000
4.281377e+002;0.000000e+000
4.300662e+002;0.000000e+000
4.319948e+002;0.000000e+000
4.339233e+002;0.000000e+000
4.358519e+002;0.000000e+000
4.377804e+002;0.000000e+000
4.397090e+002;0.000000e+000
4.416375e+002;0.000000e+000
4.435660e+002;0.000000e+000
4.454946e+002;0.000000e+000
4.474232e+002;0.000000e+000
4.493517e+002;0.000000e+000
4.512802e+002;0.000000e+000
4.532088e+002;0.000000e+000
4.551373e+002;0.000000e+000
4.570659e+002;0.000000e+000
4.589944e+002;0.000000e+000
4.609230e+002;0.000000e+000
4.628515e+002;0.000000e+000
4.647801e+002;0.000000e+000
4.667086e+002;0.000000e+000
4.686372e+002;0.000000e+000
4.705657e+002;0.000000e+000
4.724943e+002;0.000000e+000
4.744228e+002;0.000000e+000
4.763513e+002;0.000000e+000
4.782799e+002;0.000000e+000
4.802085e+002;0.000000e+000
4.821370e+002;0.000000e+000
4.840656e+002;0.000000e+000
4.859941e+002;0.000000e+000
4.879226e+002;0.000000e+000
4.898512e+002;0.000000e+000
4.917798e+002;0.000000e+000
4.937083e+002;0.000000e+000
4.956368e+002;0.000000e+000
4.975654e+002;0.000000e+000
4.994939e+002;0.000000e+000
5.014225e+002;0.000000e+000
5.033510e+002;0.000000e+000
5.052796e+002;0.000000e+000
5.072081e+002;0.000000e+000
5.091367e+002;0.000000e+000
5.110652e+002;0.000000e+000
5.129938e+002;0.000000e+000
5.149223e+002;0.000000e+000
5.168509e+002;0.000000e+000
5.187794e+002;0.000000e+000
5.207079e+002;0.000000e+000
5.226365e+002;0.000000e+000
5.245651e+002;0.000000e+000
5.264936e+002;0.000000e+000
5.284222e+002;0.000000e+000
5.303507e+002;0.000000e+000
5.322792e+002;0.000000e+000
5.342078e+002;0.000000e+000
5.361364e+002;0.000000e+000
5.380649e+002;0.000000e+000
5.399935e+002;0.000000e+000
5.419220e+002;0.000000e+000
5.438505e+002;0.000000e+000
5.457791e+002;0.000000e+000
5.477076e+002;0.000000e+000
5.496362e+002;0.000000e+000
5.515648e+002;0.000000e+000
5.534933e+002;0.000000e+000
5.554218e+002;0.000000e+000
5.573504e+002;0.000000e+000
5.592789e+002;0.000000e+000
5.612075e+002;0.000000e+000
5.631360e+002;0.000000e+000
5.650646e+002;0.000000e+000
5.669931e+002;0.000000e+000
5.689217e+002;0.000000e+000
5.708502e+002;0.000000e+000
5.727787e+002;0.000000e+000
5.747073e+002;0.000000e+000
5.766359e+002;0.000000e+000
5.785644e+002;0.000000e+000
5.804930e+002;0.000000e+000
5.824215e+002;0.000000e+000
5.843500e+002;0.000000e+000
5.862786e+002;0.000000e+000
5.882072e+002;0.000000e+000
5.901357e+002;0.000000e+000
5.920643e+002;0.000000e+000
5.939928e+002;0.000000e+000
5.959213e+002;0.000000e+000
5.978499e+002;0.000000e+000
5.997784e+002;2.604045e-001
6.017070e+002;2.696754e-001
6.036355e+002;2.685710e-001
6.055641e+002;2.631971e-001
6.074926e+002;2.662415e-001
6.094211e+002;2.683691e-001
6.113497e+002;2.673318e-001
6.132783e+002;2.669686e-001
6.152068e+002;2.679445e-001
6.171354e+002;2.654563e-001
6.190639e+002;2.612393e-001
6.209924e+002;2.605114e-001
6.229210e+002;2.552978e-001
6.248495e+002;2.467661e-001
6.267781e+002;2.401574e-001
6.287067e+002;2.367283e-001
6.306352e+002;2.368712e-001
6.325637e+002;2.382323e-001
6.344923e+002;2.365763e-001
6.364208e+002;2.286007e-001
6.383494e+002;2.267841e-001
6.402780e+002;2.277402e-001
6.422065e+002;2.263554e-001
6.441350e+002;2.247997e-001
6.460636e+002;2.257409e-001
6.479921e+002;2.247066e-001
6.499207e+002;2.227344e-001
6.518492e+002;2.205940e-001
6.537778e+002;2.249831e-001
6.557063e+002;2.347719e-001
6.576349e+002;2.404350e-001
6.595634e+002;2.443823e-001
6.614919e+002;2.478354e-001
6.634205e+002;2.498435e-001
6.653491e+002;2.467332e-001
6.672776e+002;2.414637e-001
6.692062e+002;2.385119e-001
6.711347e+002;2.325307e-001
6.730632e+002;2.247718e-001
6.749918e+002;2.183048e-001
6.769203e+002;2.121664e-001
6.788489e+002;2.070567e-001
6.807775e+002;2.033118e-001
6.827060e+002;2.005487e-001
6.846345e+002;1.990805e-001
6.865631e+002;1.990472e-001
6.884916e+002;1.996090e-001
6.904202e+002;1.995052e-001
6.923488e+002;2.006299e-001
6.942773e+002;2.038832e-001
6.962058e+002;2.063001e-001
6.981344e+002;2.077668e-001
7.000629e+002;2.092773e-001
7.019915e+002;2.094052e-001
7.039200e+002;2.052716e-001
7.058486e+002;1.979989e-001
7.077771e+002;1.926473e-001
7.097057e+002;1.899260e-001
7.116342e+002;1.869497e-001
7.135627e+002;1.833553e-001
7.154913e+002;1.790731e-001
7.174199e+002;1.744797e-001
7.193484e+002;1.706609e-001
7.212770e+002;1.667656e-001
7.232055e+002;1.617776e-001
7.251340e+002;1.564133e-001
7.270626e+002;1.531907e-001
7.289911e+002;1.511614e-001
7.309197e+002;1.485935e-001
7.328483e+002;1.459203e-001
7.347768e+002;1.447959e-001
7.367053e+002;1.438829e-001
7.386339e+002;1.417857e-001
7.405624e+002;1.392136e-001
7.424910e+002;1.380694e-001
7.444196e+002;1.375136e-001
7.463481e+002;1.365329e-001
7.482766e+002;1.352386e-001
7.502052e+002;1.330635e-001
7.521337e+002;1.314542e-001
7.540623e+002;1.314069e-001
7.559908e+002;1.315693e-001
7.579194e+002;1.315183e-001
7.598479e+002;1.307009e-001
7.617765e+002;1.299695e-001
7.637050e+002;1.289643e-001
7.656335e+002;1.268303e-001
7.675621e+002;1.254612e-001
7.694907e+002;1.246209e-001
7.714192e+002;1.227860e-001
7.733478e+002;1.217093e-001
7.752763e+002;1.216286e-001
7.772048e+002;1.208259e-001
7.791334e+002;1.195361e-001
7.810620e+002;1.188263e-001
7.829905e+002;1.183314e-001
7.849191e+002;1.177906e-001
7.868476e+002;1.179279e-001
7.887761e+002;1.180997e-001
7.907047e+002;1.179150e-001
7.926332e+002;1.177540e-001
7.945618e+002;1.172827e-001
7.964903e+002;1.168076e-001
7.984189e+002;1.171347e-001
8.003474e+002;1.181910e-001
8.022759e+002;1.187010e-001
8.042045e+002;1.182992e-001
8.061331e+002;1.182090e-001
8.080616e+002;1.181064e-001
8.099902e+002;1.175997e-001
8.119187e+002;1.177079e-001
8.138472e+002;1.182417e-001
8.157758e+002;1.184678e-001
8.177043e+002;1.177845e-001
8.196329e+002;1.172453e-001
8.215615e+002;1.173313e-001
8.234900e+002;1.170747e-001
8.254185e+002;1.170597e-001
8.273471e+002;1.175659e-001
8.292756e+002;1.168171e-001
8.312042e+002;1.157024e-001
8.331328e+002;1.155218e-001
8.350613e+002;1.155746e-001
8.369898e+002;1.159454e-001
8.389184e+002;1.169186e-001
8.408469e+002;1.174540e-001
8.427755e+002;1.171227e-001
8.447040e+002;1.161323e-001
8.466326e+002;1.160920e-001
8.485611e+002;1.163347e-001
8.504897e+002;1.163470e-001
8.524182e+002;1.165588e-001
8.543467e+002;1.176175e-001
8.562753e+002;1.184578e-001
8.582039e+002;1.186307e-001
8.601324e+002;1.194874e-001
8.620610e+002;1.205809e-001
8.639895e+002;1.218881e-001
8.659180e+002;1.237427e-001
8.678466e+002;1.253322e-001
8.697751e+002;1.267659e-001
8.717037e+002;1.287773e-001
8.736323e+002;1.316412e-001
8.755608e+002;1.338713e-001
8.774893e+002;1.355395e-001
8.794179e+002;1.380792e-001
8.813464e+002;1.410540e-001
8.832750e+002;1.441225e-001
8.852036e+002;1.473033e-001
8.871321e+002;1.503536e-001
8.890606e+002;1.535232e-001
8.909892e+002;1.567276e-001
8.929177e+002;1.590097e-001
8.948463e+002;1.606422e-001
8.967748e+002;1.617747e-001
8.987034e+002;1.619726e-001
9.006319e+002;1.614836e-001
9.025605e+002;1.607518e-001
9.044890e+002;1.596469e-001
9.064175e+002;1.582960e-001
9.083461e+002;1.572808e-001
9.102747e+002;1.564565e-001
9.122032e+002;1.556045e-001
9.141318e+002;1.544069e-001
9.160603e+002;1.532558e-001
9.179888e+002;1.530306e-001
9.199174e+002;1.536213e-001
9.218459e+002;1.545935e-001
9.237745e+002;1.561204e-001
9.257031e+002;1.581139e-001
9.276316e+002;1.603933e-001
9.295601e+002;1.630213e-001
9.314887e+002;1.656462e-001
9.334172e+002;1.680024e-001
9.353458e+002;1.704185e-001
9.372744e+002;1.729576e-001
9.392029e+002;1.754888e-001
9.411314e+002;1.779293e-001
9.430600e+002;1.805135e-001
9.449885e+002;1.834354e-001
9.469171e+002;1.871536e-001
9.488456e+002;1.916179e-001
9.507742e+002;1.961191e-001
9.527027e+002;2.001651e-001
9.546313e+002;2.052568e-001
9.565598e+002;2.107676e-001
9.584883e+002;2.162234e-001
9.604169e+002;2.220551e-001
9.623455e+002;2.286567e-001
9.642740e+002;2.355261e-001
9.662026e+002;2.427227e-001
9.681311e+002;2.508052e-001
9.700596e+002;2.599135e-001
9.719882e+002;2.713425e-001
9.739167e+002;2.847695e-001
9.758453e+002;2.994322e-001
9.777739e+002;3.160013e-001
9.797024e+002;3.334019e-001
9.816309e+002;3.479682e-001
9.835595e+002;3.571477e-001
9.854880e+002;3.605044e-001
9.874166e+002;3.608599e-001
9.893452e+002;3.630478e-001
9.912737e+002;3.678431e-001
9.932022e+002;3.738633e-001
9.951307e+002;3.808251e-001
9.970593e+002;3.876082e-001
9.989879e+002;3.923840e-001
1.000916e+003;3.947845e-001
1.002845e+003;3.958187e-001
1.004773e+003;3.966502e-001
1.006702e+003;3.975202e-001
1.008631e+003;3.984755e-001
1.010559e+003;4.003851e-001
1.012488e+003;4.034305e-001
1.014416e+003;4.075897e-001
1.016345e+003;4.122592e-001
1.018273e+003;4.171497e-001
1.020202e+003;4.226295e-001
1.022130e+003;4.285431e-001
1.024059e+003;4.343877e-001
1.025988e+003;4.400601e-001
1.027916e+003;4.441589e-001
1.029845e+003;4.453683e-001
1.031773e+003;4.439287e-001
1.033702e+003;4.383701e-001
1.035630e+003;4.284250e-001
1.037559e+003;4.173889e-001
1.039487e+003;4.084325e-001
1.041416e+003;4.026730e-001
1.043344e+003;4.012943e-001
1.045273e+003;4.046915e-001
1.047202e+003;4.108106e-001
1.049130e+003;4.178351e-001
1.051059e+003;4.235072e-001
1.052987e+003;4.261799e-001
1.054916e+003;4.245822e-001
1.056844e+003;4.188530e-001
1.058773e+003;4.074393e-001
1.060701e+003;3.900153e-001
1.062630e+003;3.691244e-001
1.064558e+003;3.471137e-001
1.066487e+003;3.272594e-001
1.068416e+003;3.109502e-001
1.070344e+003;2.980351e-001
1.072273e+003;2.882310e-001
1.074201e+003;2.809834e-001
1.076130e+003;2.749018e-001
1.078058e+003;2.695568e-001
1.079987e+003;2.642014e-001
1.081915e+003;2.600626e-001
1.083844e+003;2.589851e-001
1.085773e+003;2.596409e-001
1.087701e+003;2.600520e-001
1.089630e+003;2.607940e-001
1.091558e+003;2.619998e-001
1.093487e+003;2.646833e-001
1.095415e+003;2.689032e-001
1.097344e+003;2.734109e-001
1.099272e+003;2.773755e-001
1.101201e+003;2.800969e-001
1.103129e+003;2.811113e-001
1.105058e+003;2.804366e-001
1.106987e+003;2.782212e-001
1.108915e+003;2.755432e-001
1.110844e+003;2.708892e-001
1.112772e+003;2.630834e-001
1.114701e+003;2.519031e-001
1.116629e+003;2.385994e-001
1.118558e+003;2.259639e-001
1.120486e+003;2.156865e-001
1.122415e+003;2.070671e-001
1.124344e+003;1.987699e-001
1.126272e+003;1.901440e-001
1.128201e+003;1.814460e-001
1.130129e+003;1.740533e-001
1.132058e+003;1.688677e-001
1.133986e+003;1.653094e-001
1.135915e+003;1.623282e-001
1.137843e+003;1.606377e-001
1.139772e+003;1.611282e-001
1.141700e+003;1.642864e-001
1.143629e+003;1.691950e-001
1.145557e+003;1.742908e-001
1.147486e+003;1.788132e-001
1.149415e+003;1.824369e-001
1.151343e+003;1.856771e-001
1.153272e+003;1.893926e-001
1.155200e+003;1.932706e-001
1.157129e+003;1.957876e-001
1.159057e+003;1.965365e-001
1.160986e+003;1.953671e-001
1.162914e+003;1.911768e-001
1.164843e+003;1.840885e-001
1.166771e+003;1.752848e-001
1.168700e+003;1.657296e-001
1.170629e+003;1.563429e-001
1.172557e+003;1.481482e-001
1.174486e+003;1.414303e-001
1.176414e+003;1.362302e-001
1.178343e+003;1.318577e-001
1.180271e+003;1.283448e-001
1.182200e+003;1.254302e-001
1.184128e+003;1.230939e-001
1.186057e+003;1.220437e-001
1.187986e+003;1.219963e-001
1.189914e+003;1.229082e-001
1.191843e+003;1.246127e-001
1.193771e+003;1.264739e-001
1.195700e+003;1.287780e-001
1.197628e+003;1.309010e-001
1.199557e+003;1.324024e-001
1.201485e+003;1.333897e-001
1.203414e+003;1.338464e-001
1.205343e+003;1.334050e-001
1.207271e+003;1.313802e-001
1.209200e+003;1.273677e-001
1.211128e+003;1.227817e-001
1.213057e+003;1.196497e-001
1.214985e+003;1.186339e-001
1.216914e+003;1.189582e-001
1.218842e+003;1.199640e-001
1.220771e+003;1.212639e-001
1.222699e+003;1.227011e-001
1.224628e+003;1.242406e-001
1.226557e+003;1.264457e-001
1.228485e+003;1.289785e-001
1.230414e+003;1.309167e-001
1.232342e+003;1.327414e-001
1.234271e+003;1.346635e-001
1.236199e+003;1.357993e-001
1.238128e+003;1.361877e-001
1.240056e+003;1.367408e-001
1.241985e+003;1.379147e-001
1.243913e+003;1.391385e-001
1.245842e+003;1.403430e-001
1.247771e+003;1.414226e-001
1.249699e+003;1.418967e-001
1.251628e+003;1.419672e-001
1.253556e+003;1.421956e-001
1.255485e+003;1.424737e-001
1.257413e+003;1.429770e-001
1.259342e+003;1.437836e-001
1.261270e+003;1.441049e-001
1.263199e+003;1.440593e-001
1.265127e+003;1.436170e-001
1.267056e+003;1.426456e-001
1.268985e+003;1.419846e-001
1.270913e+003;1.420162e-001
1.272842e+003;1.425643e-001
1.274770e+003;1.427931e-001
1.276699e+003;1.424078e-001
1.278627e+003;1.416710e-001
1.280556e+003;1.402578e-001
1.282484e+003;1.382705e-001
1.284413e+003;1.367207e-001
1.286342e+003;1.356425e-001
1.288270e+003;1.347695e-001
1.290199e+003;1.347507e-001
1.292127e+003;1.353309e-001
1.294056e+003;1.359055e-001
1.295984e+003;1.367528e-001
1.297913e+003;1.386065e-001
1.299841e+003;1.412788e-001
1.301770e+003;1.445163e-001
1.303698e+003;1.484595e-001
1.305627e+003;1.531558e-001
1.307556e+003;1.584736e-001
1.309484e+003;1.632744e-001
1.311413e+003;1.667491e-001
1.313341e+003;1.689285e-001
1.315270e+003;1.691813e-001
1.317198e+003;1.668891e-001
1.319127e+003;1.630659e-001
1.321055e+003;1.589340e-001
1.322984e+003;1.552568e-001
1.324912e+003;1.527756e-001
1.326841e+003;1.515591e-001
1.328770e+003;1.517729e-001
1.330698e+003;1.530495e-001
1.332627e+003;1.546245e-001
1.334555e+003;1.555010e-001
1.336484e+003;1.545588e-001
1.338412e+003;1.523819e-001
1.340341e+003;1.500997e-001
1.342269e+003;1.474935e-001
1.344198e+003;1.441781e-001
1.346126e+003;1.409951e-001
1.348055e+003;1.388752e-001
1.349984e+003;1.381941e-001
1.351912e+003;1.385465e-001
1.353841e+003;1.393673e-001
1.355769e+003;1.404893e-001
1.357698e+003;1.415255e-001
1.359626e+003;1.417277e-001
1.361555e+003;1.407743e-001
1.363483e+003;1.393426e-001
1.365412e+003;1.384173e-001
1.367341e+003;1.377398e-001
1.369269e+003;1.372606e-001
1.371198e+003;1.358657e-001
1.373126e+003;1.326566e-001
1.375055e+003;1.290553e-001
1.376983e+003;1.262468e-001
1.378912e+003;1.231910e-001
1.380840e+003;1.199441e-001
1.382769e+003;1.170399e-001
1.384698e+003;1.143064e-001
1.386626e+003;1.114187e-001
1.388555e+003;1.103427e-001
1.390483e+003;1.107331e-001
1.392412e+003;1.101547e-001
1.394340e+003;1.091177e-001
1.396269e+003;1.095785e-001
1.398197e+003;1.099033e-001
1.400126e+003;1.101920e-001
1.402054e+003;1.106008e-001
1.403983e+003;1.101427e-001
1.405911e+003;1.097990e-001
1.407840e+003;1.101864e-001
1.409769e+003;1.105009e-001
1.411697e+003;1.108015e-001
1.413626e+003;1.114844e-001
1.415554e+003;1.124136e-001
1.417483e+003;1.125090e-001
1.419411e+003;1.136404e-001
1.421340e+003;1.176469e-001
1.423268e+003;1.204543e-001
1.425197e+003;1.221925e-001
1.427125e+003;1.231387e-001
1.429054e+003;1.229073e-001
1.430983e+003;1.227651e-001
1.432911e+003;1.220617e-001
1.434840e+003;1.188927e-001
1.436768e+003;1.159011e-001
1.438697e+003;1.168606e-001
1.440625e+003;1.179310e-001
1.442554e+003;1.185586e-001
1.444482e+003;1.191978e-001
1.446411e+003;1.193932e-001
1.448340e+003;1.200213e-001
1.450268e+003;1.216255e-001
1.452197e+003;1.222591e-001
1.454125e+003;1.199224e-001
1.456054e+003;1.136559e-001
1.457982e+003;1.113655e-001
1.459911e+003;1.127476e-001
1.461839e+003;1.115396e-001
1.463768e+003;1.074881e-001
1.465697e+003;1.046221e-001
1.467625e+003;1.033903e-001
1.469554e+003;1.003753e-001
1.471482e+003;9.575943e-002
1.473411e+003;9.312192e-002
1.475339e+003;9.229101e-002
1.477268e+003;9.106823e-002
1.479196e+003;8.978470e-002
1.481125e+003;8.810374e-002
1.483053e+003;8.628665e-002
1.484982e+003;8.360441e-002
1.486911e+003;8.057059e-002
1.488839e+003;7.816074e-002
1.490768e+003;7.787340e-002
1.492696e+003;7.936727e-002
1.494625e+003;7.818740e-002
1.496553e+003;7.546546e-002
1.498482e+003;7.501671e-002
1.500410e+003;7.507969e-002
1.502339e+003;7.432514e-002
1.504267e+003;7.040055e-002
1.506196e+003;6.623945e-002
1.508125e+003;6.867848e-002
1.510053e+003;7.233404e-002
1.511982e+003;7.300282e-002
1.513910e+003;7.295845e-002
1.515839e+003;7.179450e-002
1.517767e+003;7.105140e-002
1.519696e+003;6.959189e-002
1.521624e+003;6.912538e-002
1.523553e+003;7.169963e-002
1.525481e+003;7.286306e-002
1.527410e+003;7.422379e-002
1.529339e+003;7.598239e-002
1.531267e+003;7.626805e-002
1.533196e+003;7.567886e-002
1.535124e+003;7.721102e-002
1.537053e+003;7.597722e-002
1.538981e+003;7.134476e-002
1.540910e+003;7.210150e-002
1.542838e+003;7.618547e-002
1.544767e+003;7.880899e-002
1.546695e+003;8.085860e-002
1.548624e+003;8.187962e-002
1.550553e+003;8.265223e-002
1.552481e+003;8.247007e-002
1.554410e+003;8.127566e-002
1.556338e+003;7.877733e-002
1.558267e+003;7.383546e-002
1.560195e+003;7.557140e-002
1.562124e+003;8.137088e-002
1.564052e+003;8.308082e-002
1.565981e+003;8.312029e-002
1.567910e+003;8.170737e-002
1.569838e+003;8.051774e-002
1.571767e+003;8.201523e-002
1.573695e+003;8.133397e-002
1.575624e+003;7.820715e-002
1.577552e+003;7.979856e-002
1.579481e+003;8.255024e-002
1.581409e+003;8.292839e-002
1.583338e+003;8.307171e-002
1.585266e+003;8.315107e-002
1.587195e+003;8.308210e-002
1.589124e+003;8.263540e-002
1.591052e+003;8.246791e-002
1.592981e+003;8.242576e-002
1.594909e+003;8.249515e-002
1.596838e+003;8.294547e-002
1.598766e+003;8.345637e-002
1.600695e+003;8.350176e-002
1.602623e+003;8.359843e-002
1.604552e+003;8.370814e-002
1.606480e+003;8.348501e-002
1.608409e+003;8.298847e-002
1.610338e+003;8.279919e-002
1.612266e+003;8.273713e-002
1.614195e+003;8.107308e-002
1.616123e+003;7.799746e-002
1.618052e+003;7.963709e-002
1.619980e+003;8.222159e-002
1.621909e+003;8.166690e-002
1.623837e+003;8.135094e-002
1.625766e+003;8.206646e-002
1.627694e+003;8.249623e-002
1.629623e+003;8.308683e-002
1.631552e+003;8.322840e-002
1.633480e+003;8.092938e-002
1.635409e+003;7.839794e-002
1.637337e+003;8.078863e-002
1.639266e+003;8.346553e-002
1.641194e+003;8.405802e-002
1.643123e+003;8.346742e-002
1.645051e+003;8.094247e-002
1.646980e+003;8.028361e-002
1.648909e+003;8.240393e-002
1.650837e+003;7.913245e-002
1.652766e+003;7.355882e-002
1.654694e+003;7.848312e-002
1.656623e+003;8.426857e-002
1.658551e+003;8.531338e-002
1.660480e+003;8.449166e-002
1.662408e+003;8.348509e-002
1.664337e+003;8.425477e-002
1.666266e+003;8.420039e-002
1.668194e+003;8.184189e-002
1.670123e+003;8.098363e-002
1.672051e+003;8.159681e-002
1.673980e+003;8.006375e-002
1.675908e+003;7.959252e-002
1.677837e+003;8.113721e-002
1.679765e+003;8.083294e-002
1.681694e+003;7.829896e-002
1.683622e+003;7.326887e-002
1.685551e+003;7.432152e-002
1.687479e+003;7.830031e-002
1.689408e+003;7.893367e-002
1.691337e+003;7.908852e-002
1.693265e+003;7.752648e-002
1.695194e+003;7.365963e-002
1.697122e+003;7.402575e-002
1.699051e+003;7.291592e-002
1.700979e+003;7.337611e-002
1.702908e+003;7.776032e-002
1.704836e+003;7.845315e-002
1.706765e+003;7.936906e-002
1.708693e+003;8.081482e-002
1.710622e+003;8.215769e-002
1.712551e+003;8.285805e-002
1.714479e+003;8.359505e-002
1.716408e+003;8.467053e-002
1.718336e+003;9.025600e-002
1.720265e+003;9.988860e-002
1.722193e+003;1.083575e-001
1.724122e+003;1.159088e-001
1.726050e+003;1.229526e-001
1.727979e+003;1.281899e-001
1.729908e+003;1.307424e-001
1.731836e+003;1.284245e-001
1.733765e+003;1.229239e-001
1.735693e+003;1.200863e-001
1.737622e+003;1.145273e-001
1.739550e+003;1.047174e-001
1.741479e+003;9.590833e-002
1.743407e+003;8.794070e-002
1.745336e+003;8.096566e-002
1.747265e+003;7.479907e-002
1.749193e+003;6.959667e-002
1.751122e+003;6.658596e-002
1.753050e+003;6.657816e-002
1.754979e+003;6.582515e-002
1.756907e+003;6.455541e-002
1.758836e+003;6.418931e-002
1.760764e+003;6.295053e-002
1.762693e+003;6.260958e-002
1.764621e+003;6.335063e-002
1.766550e+003;6.229445e-002
1.768479e+003;6.131081e-002
1.770407e+003;6.028046e-002
1.772336e+003;5.913318e-002
1.774264e+003;6.053163e-002
1.776193e+003;6.183965e-002
1.778121e+003;6.185436e-002
1.780050e+003;6.141606e-002
1.781978e+003;6.136339e-002
1.783907e+003;6.114550e-002
1.785835e+003;6.119673e-002
1.787764e+003;6.138152e-002
1.789693e+003;6.034629e-002
1.791621e+003;5.863705e-002
1.793550e+003;5.906830e-002
1.795478e+003;6.073416e-002
1.797407e+003;6.102495e-002
1.799335e+003;6.043539e-002
1.801264e+003;6.007689e-002
1.803192e+003;6.034888e-002
1.805121e+003;6.040070e-002
1.807049e+003;6.021446e-002
1.808978e+003;5.983519e-002
1.810907e+003;5.970033e-002
1.812835e+003;6.007366e-002
1.814764e+003;6.038082e-002
1.816692e+003;6.033239e-002
1.818621e+003;6.040969e-002
1.820549e+003;6.030997e-002
1.822478e+003;6.000590e-002
1.824406e+003;5.937829e-002
1.826335e+003;5.924375e-002
1.828264e+003;5.856773e-002
1.830192e+003;5.825983e-002
1.832121e+003;5.922169e-002
1.834049e+003;5.977096e-002
1.835978e+003;5.958219e-002
1.837906e+003;5.943432e-002
1.839835e+003;5.958344e-002
1.841763e+003;5.879863e-002
1.843692e+003;5.706862e-002
1.845620e+003;5.757663e-002
1.847549e+003;5.874218e-002
1.849478e+003;5.892172e-002
1.851406e+003;5.904328e-002
1.853335e+003;5.919321e-002
1.855263e+003;5.914366e-002
1.857192e+003;5.891625e-002
1.859120e+003;5.896388e-002
1.861049e+003;5.912441e-002
1.862977e+003;5.918702e-002
1.864906e+003;5.886487e-002
1.866834e+003;5.798616e-002
1.868763e+003;5.747805e-002
1.870692e+003;5.821000e-002
1.872620e+003;5.898012e-002
1.874549e+003;5.912099e-002
1.876477e+003;5.890191e-002
1.878406e+003;5.873892e-002
1.880334e+003;5.886825e-002
1.882263e+003;5.887413e-002
1.884191e+003;5.888252e-002
1.886120e+003;5.883323e-002
1.888048e+003;5.836385e-002
1.889977e+003;5.803273e-002
1.891906e+003;5.835817e-002
1.893834e+003;5.838674e-002
1.895763e+003;5.833255e-002
1.897691e+003;5.841161e-002
1.899620e+003;5.854232e-002
1.901548e+003;5.844508e-002
1.903477e+003;5.838019e-002
1.905405e+003;5.844171e-002
1.907334e+003;5.851514e-002
1.909262e+003;5.853117e-002
1.911191e+003;5.866674e-002
1.913120e+003;5.880557e-002
1.915048e+003;5.858411e-002
1.916977e+003;5.794185e-002
1.918905e+003;5.800986e-002
1.920834e+003;5.819682e-002
1.922762e+003;5.808428e-002
1.924691e+003;5.856844e-002
1.926619e+003;5.907813e-002
1.928548e+003;5.921524e-002
1.930477e+003;5.918482e-002
1.932405e+003;5.917749e-002
1.934334e+003;5.915376e-002
1.936262e+003;5.928906e-002
1.938191e+003;5.943209e-002
1.940119e+003;5.925557e-002
1.942048e+003;5.898995e-002
1.943976e+003;5.923210e-002
1.945905e+003;5.947449e-002
1.947833e+003;5.953928e-002
1.949762e+003;5.976636e-002
1.951691e+003;5.984690e-002
1.953619e+003;5.974180e-002
1.955548e+003;5.967231e-002
1.957476e+003;5.960354e-002
1.959405e+003;5.961563e-002
1.961333e+003;5.968793e-002
1.963262e+003;5.973397e-002
1.965190e+003;5.962042e-002
1.967119e+003;5.938726e-002
1.969047e+003;5.964611e-002
1.970976e+003;6.007666e-002
1.972905e+003;6.018911e-002
1.974833e+003;5.984903e-002
1.976762e+003;5.956592e-002
1.978690e+003;5.961624e-002
1.980619e+003;5.979279e-002
1.982547e+003;5.978511e-002
1.984476e+003;5.990749e-002
1.986404e+003;6.010691e-002
1.988333e+003;5.999726e-002
1.990261e+003;5.972249e-002
1.992190e+003;5.953472e-002
1.994119e+003;5.976515e-002
1.996047e+003;5.999871e-002
1.997976e+003;6.019703e-002
1.999904e+003;6.026425e-002
2.001833e+003;6.001746e-002
2.003761e+003;5.999467e-002
2.005690e+003;6.022219e-002
2.007618e+003;6.017754e-002
2.009547e+003;6.001396e-002
2.011476e+003;6.003580e-002
2.013404e+003;6.026044e-002
2.015333e+003;6.041650e-002
2.017261e+003;6.040123e-002
2.019190e+003;6.065955e-002
2.021118e+003;6.092455e-002
2.023047e+003;6.091487e-002
2.024975e+003;6.084149e-002
2.026904e+003;6.083226e-002
2.028833e+003;6.092954e-002
2.030761e+003;6.106270e-002
2.032690e+003;6.125433e-002
2.034618e+003;6.120295e-002
2.036547e+003;6.107154e-002
2.038475e+003;6.098506e-002
2.040404e+003;6.090404e-002
2.042332e+003;6.114630e-002
2.044261e+003;6.125392e-002
2.046189e+003;6.130798e-002
2.048118e+003;6.118559e-002
2.050047e+003;6.092024e-002
2.051975e+003;6.104797e-002
2.053904e+003;6.113615e-002
2.055832e+003;6.084454e-002
2.057761e+003;6.071560e-002
2.059689e+003;6.080825e-002
2.061618e+003;6.081458e-002
2.063546e+003;6.074541e-002
2.065475e+003;6.078973e-002
2.067404e+003;6.074803e-002
2.069332e+003;6.078919e-002
2.071260e+003;6.102887e-002
2.073189e+003;6.095074e-002
2.075118e+003;6.062328e-002
2.077046e+003;6.055468e-002
2.078975e+003;6.066599e-002
2.080903e+003;6.069918e-002
2.082832e+003;6.049347e-002
2.084760e+003;6.048924e-002
2.086689e+003;6.065860e-002
2.088617e+003;6.068787e-002
2.090546e+003;6.057418e-002
2.092475e+003;6.059262e-002
2.094403e+003;6.059174e-002
2.096332e+003;6.055753e-002
2.098260e+003;6.072330e-002
2.100189e+003;6.080947e-002
2.102117e+003;6.075661e-002
2.104046e+003;6.075447e-002
2.105974e+003;6.055193e-002
2.107903e+003;6.041060e-002
2.109832e+003;6.055330e-002
2.111760e+003;6.057590e-002
2.113688e+003;6.062363e-002
2.115617e+003;6.079449e-002
2.117546e+003;6.087259e-002
2.119474e+003;6.067998e-002
2.121403e+003;6.044704e-002
2.123331e+003;6.078786e-002
2.125260e+003;6.116659e-002
2.127188e+003;6.109305e-002
2.129117e+003;6.111598e-002
2.131045e+003;6.106243e-002
2.132974e+003;6.100992e-002
2.134903e+003;6.111346e-002
2.136831e+003;6.111414e-002
2.138760e+003;6.092101e-002
2.140688e+003;6.073481e-002
2.142617e+003;6.075570e-002
2.144545e+003;6.076640e-002
2.146474e+003;6.070802e-002
2.148402e+003;6.065171e-002
2.150331e+003;6.068729e-002
2.152260e+003;6.075497e-002
2.154188e+003;6.094563e-002
2.156117e+003;6.088041e-002
2.158045e+003;6.064058e-002
2.159974e+003;6.030342e-002
2.161902e+003;6.001320e-002
2.163831e+003;6.000962e-002
2.165759e+003;5.995108e-002
2.167688e+003;5.983869e-002
2.169616e+003;5.981214e-002
2.171545e+003;5.970956e-002
2.173474e+003;5.975534e-002
2.175402e+003;5.984747e-002
2.177331e+003;5.959822e-002
2.179259e+003;5.939975e-002
2.181188e+003;5.945818e-002
2.183116e+003;5.951279e-002
2.185045e+003;5.948668e-002
2.186973e+003;5.930217e-002
2.188902e+003;5.912654e-002
2.190831e+003;5.904530e-002
2.192759e+003;5.891804e-002
2.194688e+003;5.878986e-002
2.196616e+003;5.874298e-002
2.198545e+003;5.876024e-002
2.200473e+003;5.895675e-002
2.202402e+003;5.906310e-002
2.204330e+003;5.916002e-002
2.206259e+003;5.912297e-002
2.208188e+003;5.879575e-002
2.210116e+003;5.871772e-002
2.212044e+003;5.907024e-002
2.213973e+003;5.924827e-002
2.215902e+003;5.924239e-002
2.217830e+003;5.909244e-002
2.219759e+003;5.905300e-002
2.221687e+003;5.911852e-002
2.223616e+003;5.889910e-002
2.225544e+003;5.901269e-002
2.227473e+003;5.921383e-002
2.229401e+003;5.909753e-002
2.231330e+003;5.908937e-002
2.233259e+003;5.908398e-002
2.235187e+003;5.884146e-002
2.237116e+003;5.893967e-002
2.239044e+003;5.919834e-002
2.240973e+003;5.907483e-002
2.242901e+003;5.895838e-002
2.244830e+003;5.903304e-002
2.246758e+003;5.919982e-002
2.248687e+003;5.938034e-002
2.250615e+003;5.918148e-002
2.252544e+003;5.863682e-002
2.254473e+003;5.859321e-002
2.256401e+003;5.872788e-002
2.258330e+003;5.870873e-002
2.260258e+003;5.867432e-002
2.262187e+003;5.859776e-002
2.264115e+003;5.848159e-002
2.266044e+003;5.830534e-002
2.267972e+003;5.802448e-002
2.269901e+003;5.792697e-002
2.271830e+003;5.812113e-002
2.273758e+003;5.804697e-002
2.275687e+003;5.783687e-002
2.277615e+003;5.786666e-002
2.279544e+003;5.782907e-002
2.281472e+003;5.778690e-002
2.283401e+003;5.797703e-002
2.285329e+003;5.811378e-002
2.287258e+003;5.788006e-002
2.289187e+003;5.751137e-002
2.291115e+003;5.750475e-002
2.293043e+003;5.752446e-002
2.294972e+003;5.730588e-002
2.296901e+003;5.713468e-002
2.298829e+003;5.726017e-002
2.300758e+003;5.735473e-002
2.302686e+003;5.735200e-002
2.304615e+003;5.735597e-002
2.306543e+003;5.723858e-002
2.308472e+003;5.713921e-002
2.310400e+003;5.726448e-002
2.312329e+003;5.732701e-002
2.314258e+003;5.715785e-002
2.316186e+003;5.692604e-002
2.318115e+003;5.689699e-002
2.320043e+003;5.695716e-002
2.321972e+003;5.702060e-002
2.323900e+003;5.702335e-002
2.325829e+003;5.681269e-002
2.327757e+003;5.651838e-002
2.329686e+003;5.654811e-002
2.331615e+003;5.646713e-002
2.333543e+003;5.617953e-002
2.335472e+003;5.610156e-002
2.337400e+003;5.606706e-002
2.339329e+003;5.635594e-002
2.341257e+003;5.686866e-002
2.343186e+003;5.718971e-002
2.345114e+003;5.719803e-002
2.347043e+003;5.720895e-002
2.348971e+003;5.736153e-002
2.350900e+003;5.749742e-002
2.352829e+003;5.752283e-002
2.354757e+003;5.737688e-002
2.356686e+003;5.717648e-002
2.358614e+003;5.725257e-002
2.360543e+003;5.745634e-002
2.362471e+003;5.732829e-002
2.364400e+003;5.717644e-002
2.366328e+003;5.748414e-002
2.368257e+003;5.794836e-002
2.370186e+003;5.829859e-002
2.372114e+003;5.841195e-002
2.374042e+003;5.852591e-002
2.375971e+003;5.870049e-002
2.377900e+003;5.894745e-002
2.379828e+003;5.896749e-002
2.381757e+003;5.907456e-002
2.383685e+003;5.939094e-002
2.385614e+003;5.987637e-002
2.387542e+003;5.993598e-002
2.389471e+003;5.977013e-002
2.391399e+003;5.962650e-002
2.393328e+003;5.964083e-002
2.395257e+003;5.977496e-002
2.397185e+003;5.975359e-002
2.399114e+003;5.980667e-002
2.401042e+003;6.001727e-002
2.402971e+003;6.003344e-002
2.404899e+003;6.009101e-002
2.406828e+003;6.025085e-002
2.408756e+003;6.016723e-002
2.410685e+003;6.005688e-002
2.412614e+003;6.014105e-002
2.414542e+003;6.045279e-002
2.416471e+003;6.058965e-002
2.418399e+003;6.059921e-002
2.420328e+003;6.081919e-002
2.422256e+003;6.095208e-002
2.424185e+003;6.098014e-002
2.426113e+003;6.109279e-002
2.428042e+003;6.118067e-002
2.429970e+003;6.126689e-002
2.431899e+003;6.127608e-002
2.433828e+003;6.118979e-002
2.435756e+003;6.143915e-002
2.437685e+003;6.191897e-002
2.439613e+003;6.191576e-002
2.441542e+003;6.163970e-002
2.443470e+003;6.173067e-002
2.445399e+003;6.190017e-002
2.447327e+003;6.180428e-002
2.449256e+003;6.194614e-002
2.451185e+003;6.243594e-002
2.453113e+003;6.272066e-002
2.455042e+003;6.263860e-002
2.456970e+003;6.252864e-002
2.458899e+003;6.234474e-002
2.460827e+003;6.237649e-002
2.462756e+003;6.257835e-002
2.464684e+003;6.256373e-002
2.466613e+003;6.239248e-002
2.468542e+003;6.276695e-002
2.470470e+003;6.280030e-002
2.472398e+003;6.269333e-002
2.474327e+003;6.298236e-002
2.476256e+003;6.314316e-002
2.478184e+003;6.317557e-002
2.480113e+003;6.305438e-002
2.482041e+003;6.285153e-002
2.483970e+003;6.267033e-002
2.485898e+003;6.277395e-002
2.487827e+003;6.295072e-002
2.489755e+003;6.302354e-002
2.491684e+003;6.268142e-002
2.493613e+003;6.270730e-002
2.495541e+003;6.289649e-002
2.497470e+003;6.300098e-002
2.499398e+003;6.316867e-002
2.501327e+003;6.338176e-002
2.503255e+003;6.345990e-002
2.505184e+003;6.343743e-002
2.507112e+003;6.330857e-002
2.509041e+003;6.334783e-002
2.510969e+003;6.383307e-002
2.512898e+003;6.419514e-002
2.514827e+003;6.426602e-002
2.516755e+003;6.427766e-002
2.518684e+003;6.433357e-002
2.520612e+003;6.432254e-002
2.522541e+003;6.432039e-002
2.524469e+003;6.448656e-002
2.526398e+003;6.482429e-002
2.528326e+003;6.481425e-002
2.530255e+003;6.477614e-002
2.532184e+003;6.474841e-002
2.534112e+003;6.482460e-002
2.536041e+003;6.501529e-002
2.537969e+003;6.491993e-002
2.539898e+003;6.456183e-002
2.541826e+003;6.458409e-002
2.543755e+003;6.498123e-002
2.545683e+003;6.509100e-002
2.547612e+003;6.481010e-002
2.549541e+003;6.470387e-002
2.551469e+003;6.503341e-002
2.553397e+003;6.502403e-002
2.555326e+003;6.484372e-002
2.557255e+003;6.505393e-002
2.559183e+003;6.533976e-002
2.561112e+003;6.535786e-002
2.563040e+003;6.516822e-002
2.564969e+003;6.497034e-002
2.566897e+003;6.502037e-002
2.568826e+003;6.526732e-002
2.570754e+003;6.532913e-002
2.572683e+003;6.511047e-002
2.574612e+003;6.504215e-002
2.576540e+003;6.521280e-002
2.578469e+003;6.557719e-002
2.580397e+003;6.573983e-002
2.582326e+003;6.545736e-002
2.584254e+003;6.528188e-002
2.586183e+003;6.556173e-002
2.588111e+003;6.579531e-002
2.590040e+003;6.592047e-002
2.591969e+003;6.576670e-002
2.593897e+003;6.552555e-002
2.595826e+003;6.560713e-002
2.597754e+003;6.577141e-002
2.599683e+003;6.575687e-002
2.601611e+003;6.577827e-002
2.603540e+003;6.608278e-002
2.605468e+003;6.637883e-002
2.607397e+003;6.635578e-002
2.609325e+003;6.649207e-002
2.611254e+003;6.656873e-002
2.613183e+003;6.645686e-002
2.615111e+003;6.645207e-002
2.617040e+003;6.657920e-002
2.618968e+003;6.665198e-002
2.620897e+003;6.672028e-002
2.622825e+003;6.701645e-002
2.624754e+003;6.715748e-002
2.626682e+003;6.703168e-002
2.628611e+003;6.709684e-002
2.630540e+003;6.750329e-002
2.632468e+003;6.732288e-002
2.634396e+003;6.692406e-002
2.636325e+003;6.679586e-002
2.638254e+003;6.711482e-002
2.640182e+003;6.759527e-002
2.642111e+003;6.781301e-002
2.644039e+003;6.767987e-002
2.645968e+003;6.751556e-002
2.647896e+003;6.771584e-002
2.649825e+003;6.778644e-002
2.651753e+003;6.763662e-002
2.653682e+003;6.772157e-002
2.655611e+003;6.781665e-002
2.657539e+003;6.771320e-002
2.659468e+003;6.765721e-002
2.661396e+003;6.791671e-002
2.663325e+003;6.814380e-002
2.665253e+003;6.798905e-002
2.667182e+003;6.796708e-002
2.669110e+003;6.838172e-002
2.671039e+003;6.844882e-002
2.672968e+003;6.825204e-002
2.674896e+003;6.841170e-002
2.676825e+003;6.888796e-002
2.678753e+003;6.891949e-002
2.680682e+003;6.877812e-002
2.682610e+003;6.876861e-002
2.684539e+003;6.867534e-002
2.686467e+003;6.885930e-002
2.688396e+003;6.918813e-002
2.690324e+003;6.942546e-002
2.692253e+003;6.959585e-002
2.694182e+003;6.963339e-002
2.696110e+003;6.969617e-002
2.698039e+003;6.973476e-002
2.699967e+003;6.968753e-002
2.701896e+003;6.967921e-002
2.703824e+003;6.992618e-002
2.705753e+003;7.012773e-002
2.707681e+003;7.023140e-002
2.709610e+003;7.035115e-002
2.711539e+003;7.039568e-002
2.713467e+003;7.050499e-002
2.715396e+003;7.087501e-002
2.717324e+003;7.115503e-002
2.719253e+003;7.101515e-002
2.721181e+003;7.093415e-002
2.723110e+003;7.102026e-002
2.725038e+003;7.112314e-002
2.726967e+003;7.118570e-002
2.728896e+003;7.108215e-002
2.730824e+003;7.116053e-002
2.732752e+003;7.142138e-002
2.734681e+003;7.135015e-002
2.736610e+003;7.146716e-002
2.738538e+003;7.190862e-002
2.740467e+003;7.184411e-002
2.742395e+003;7.158225e-002
2.744324e+003;7.183070e-002
2.746252e+003;7.200567e-002
2.748181e+003;7.221195e-002
2.750109e+003;7.208308e-002
2.752038e+003;7.197955e-002
2.753967e+003;7.213296e-002
2.755895e+003;7.224455e-002
2.757824e+003;7.227433e-002
2.759752e+003;7.229784e-002
2.761681e+003;7.217099e-002
2.763609e+003;7.205038e-002
2.765538e+003;7.224552e-002
2.767466e+003;7.228833e-002
2.769395e+003;7.234434e-002
2.771323e+003;7.261097e-002
2.773252e+003;7.293473e-002
2.775181e+003;7.307585e-002
2.777109e+003;7.308698e-002
2.779038e+003;7.329738e-002
2.780966e+003;7.361366e-002
2.782895e+003;7.397019e-002
2.784823e+003;7.402155e-002
2.786752e+003;7.437488e-002
2.788680e+003;7.471449e-002
2.790609e+003;7.465880e-002
2.792538e+003;7.461328e-002
2.794466e+003;7.476774e-002
2.796395e+003;7.521804e-002
2.798323e+003;7.558161e-002
2.800252e+003;7.580395e-002
2.802180e+003;7.581946e-002
2.804109e+003;7.601511e-002
2.806037e+003;7.666926e-002
2.807966e+003;7.737393e-002
2.809895e+003;7.769858e-002
2.811823e+003;7.764077e-002
2.813751e+003;7.792181e-002
2.815680e+003;7.858054e-002
2.817609e+003;7.891154e-002
2.819537e+003;7.909480e-002
2.821466e+003;7.971125e-002
2.823394e+003;8.032985e-002
2.825323e+003;8.065309e-002
2.827251e+003;8.131762e-002
2.829180e+003;8.209284e-002
2.831108e+003;8.284145e-002
2.833037e+003;8.373462e-002
2.834966e+003;8.451106e-002
2.836894e+003;8.553418e-002
2.838823e+003;8.717673e-002
2.840751e+003;8.871572e-002
2.842680e+003;9.039613e-002
2.844608e+003;9.214339e-002
2.846537e+003;9.431765e-002
2.848465e+003;9.728948e-002
2.850394e+003;9.975392e-002
2.852323e+003;1.004317e-001
2.854251e+003;9.938075e-002
2.856180e+003;9.878825e-002
2.858108e+003;9.937271e-002
2.860037e+003;1.000023e-001
2.861965e+003;1.011399e-001
2.863894e+003;1.025016e-001
2.865822e+003;1.036820e-001
2.867751e+003;1.046645e-001
2.869679e+003;1.053863e-001
2.871608e+003;1.063503e-001
2.873536e+003;1.070326e-001
2.875465e+003;1.069947e-001
2.877394e+003;1.067041e-001
2.879322e+003;1.065132e-001
2.881251e+003;1.062582e-001
2.883179e+003;1.063336e-001
2.885108e+003;1.066024e-001
2.887036e+003;1.072953e-001
2.888965e+003;1.081256e-001
2.890893e+003;1.086344e-001
2.892822e+003;1.089772e-001
2.894750e+003;1.094487e-001
2.896679e+003;1.101488e-001
2.898608e+003;1.107309e-001
2.900536e+003;1.111301e-001
2.902465e+003;1.110549e-001
2.904393e+003;1.105875e-001
2.906322e+003;1.104991e-001
2.908250e+003;1.103735e-001
2.910179e+003;1.103342e-001
2.912107e+003;1.105037e-001
2.914036e+003;1.102725e-001
2.915965e+003;1.100297e-001
2.917893e+003;1.097711e-001
2.919822e+003;1.097925e-001
2.921750e+003;1.095341e-001
2.923679e+003;1.079752e-001
2.925607e+003;1.058265e-001
2.927536e+003;1.037959e-001
2.929464e+003;1.024756e-001
2.931393e+003;1.018814e-001
2.933322e+003;1.010486e-001
2.935250e+003;9.970048e-002
2.937178e+003;9.850091e-002
2.939107e+003;9.745947e-002
2.941036e+003;9.698349e-002
2.942964e+003;9.639045e-002
2.944893e+003;9.546211e-002
2.946821e+003;9.457591e-002
2.948750e+003;9.412464e-002
2.950678e+003;9.366908e-002
2.952607e+003;9.333486e-002
2.954535e+003;9.291028e-002
2.956464e+003;9.252007e-002
2.958393e+003;9.239716e-002
2.960321e+003;9.187314e-002
2.962250e+003;9.106430e-002
2.964178e+003;8.995912e-002
2.966107e+003;8.848875e-002
2.968035e+003;8.714117e-002
2.969964e+003;8.563292e-002
2.971892e+003;8.380915e-002
2.973821e+003;8.224694e-002
2.975750e+003;8.032961e-002
2.977678e+003;7.852619e-002
2.979607e+003;7.705075e-002
2.981535e+003;7.562022e-002
2.983464e+003;7.438003e-002
2.985392e+003;7.338059e-002
2.987321e+003;7.212611e-002
2.989249e+003;7.124059e-002
2.991178e+003;7.104805e-002
2.993106e+003;7.059909e-002
2.995035e+003;6.993170e-002
2.996964e+003;6.955708e-002
2.998892e+003;6.915227e-002
3.000821e+003;6.891250e-002
3.002749e+003;6.914648e-002
3.004678e+003;6.916533e-002
3.006606e+003;6.907830e-002
3.008535e+003;6.915654e-002
3.010463e+003;6.927856e-002
3.012392e+003;6.939163e-002
3.014321e+003;6.920041e-002
3.016249e+003;6.918308e-002
3.018177e+003;6.959173e-002
3.020106e+003;7.024737e-002
3.022035e+003;7.071480e-002
3.023963e+003;7.097937e-002
3.025892e+003;7.138886e-002
3.027820e+003;7.157858e-002
3.029749e+003;7.152838e-002
3.031677e+003;7.144842e-002
3.033606e+003;7.114656e-002
3.035534e+003;7.131880e-002
3.037463e+003;7.170425e-002
3.039392e+003;7.158241e-002
3.041320e+003;7.182284e-002
3.043249e+003;7.234825e-002
3.045177e+003;7.250363e-002
3.047106e+003;7.243355e-002
3.049034e+003;7.250571e-002
3.050963e+003;7.267132e-002
3.052891e+003;7.259894e-002
3.054820e+003;7.273301e-002
3.056749e+003;7.311322e-002
3.058677e+003;7.360047e-002
3.060606e+003;7.400901e-002
3.062534e+003;7.398477e-002
3.064463e+003;7.387030e-002
3.066391e+003;7.435423e-002
3.068320e+003;7.484122e-002
3.070248e+003;7.476266e-002
3.072177e+003;7.485799e-002
3.074105e+003;7.511727e-002
3.076034e+003;7.532987e-002
3.077963e+003;7.536199e-002
3.079891e+003;7.524566e-002
3.081820e+003;7.535588e-002
3.083748e+003;7.575219e-002
3.085677e+003;7.665614e-002
3.087605e+003;7.747982e-002
3.089534e+003;7.763273e-002
3.091462e+003;7.733189e-002
3.093391e+003;7.762643e-002
3.095320e+003;7.809597e-002
3.097248e+003;7.811377e-002
3.099177e+003;7.815871e-002
3.101105e+003;7.857705e-002
3.103034e+003;7.916636e-002
3.104962e+003;7.965624e-002
3.106891e+003;8.004311e-002
3.108819e+003;8.027751e-002
3.110748e+003;8.028752e-002
3.112677e+003;8.031570e-002
3.114605e+003;8.053090e-002
3.116533e+003;8.082160e-002
3.118462e+003;8.141533e-002
3.120391e+003;8.207807e-002
3.122319e+003;8.231565e-002
3.124248e+003;8.292983e-002
3.126176e+003;8.371569e-002
3.128105e+003;8.405641e-002
3.130033e+003;8.408492e-002
3.131962e+003;8.440344e-002
3.133890e+003;8.466139e-002
3.135819e+003;8.487904e-002
3.137748e+003;8.502679e-002
3.139676e+003;8.543833e-002
3.141605e+003;8.639563e-002
3.143533e+003;8.725401e-002
3.145462e+003;8.751418e-002
3.147390e+003;8.779337e-002
3.149319e+003;8.827534e-002
3.151247e+003;8.831704e-002
3.153176e+003;8.865578e-002
3.155104e+003;8.929516e-002
3.157033e+003;8.967536e-002
3.158962e+003;9.007689e-002
3.160890e+003;9.109173e-002
3.162819e+003;9.160200e-002
3.164747e+003;9.188379e-002
3.166676e+003;9.249784e-002
3.168604e+003;9.294381e-002
3.170533e+003;9.348536e-002
3.172461e+003;9.428373e-002
3.174390e+003;9.446445e-002
3.176319e+003;9.475449e-002
3.178247e+003;9.561335e-002
3.180176e+003;9.609614e-002
3.182104e+003;9.680992e-002
3.184033e+003;9.738811e-002
3.185961e+003;9.797355e-002
3.187890e+003;9.873976e-002
3.189818e+003;9.898759e-002
3.191747e+003;9.903961e-002
3.193676e+003;9.986946e-002
3.195604e+003;1.008232e-001
3.197532e+003;1.015520e-001
3.199461e+003;1.020278e-001
3.201390e+003;1.023704e-001
3.203318e+003;1.026047e-001
3.205247e+003;1.029691e-001
3.207175e+003;1.036055e-001
3.209104e+003;1.047511e-001
3.211032e+003;1.060893e-001
3.212961e+003;1.070425e-001
3.214889e+003;1.080292e-001
3.216818e+003;1.087613e-001
3.218747e+003;1.090840e-001
3.220675e+003;1.095251e-001
3.222604e+003;1.102227e-001
3.224532e+003;1.111714e-001
3.226461e+003;1.121225e-001
3.228389e+003;1.129792e-001
3.230318e+003;1.135240e-001
3.232246e+003;1.145653e-001
3.234175e+003;1.158008e-001
3.236104e+003;1.165225e-001
3.238032e+003;1.174201e-001
3.239961e+003;1.182491e-001
3.241889e+003;1.189135e-001
3.243818e+003;1.200592e-001
3.245746e+003;1.216561e-001
3.247675e+003;1.228472e-001
3.249603e+003;1.239149e-001
3.251532e+003;1.250419e-001
3.253460e+003;1.260842e-001
3.255389e+003;1.269402e-001
3.257318e+003;1.278759e-001
3.259246e+003;1.286063e-001
3.261175e+003;1.296204e-001
3.263103e+003;1.309955e-001
3.265032e+003;1.318846e-001
3.266960e+003;1.322800e-001
3.268889e+003;1.325701e-001
3.270817e+003;1.330381e-001
3.272746e+003;1.335027e-001
3.274675e+003;1.343291e-001
3.276603e+003;1.350843e-001
3.278531e+003;1.352131e-001
3.280460e+003;1.357928e-001
3.282389e+003;1.364618e-001
3.284317e+003;1.366802e-001
3.286246e+003;1.367244e-001
3.288174e+003;1.363581e-001
3.290103e+003;1.364956e-001
3.292031e+003;1.368473e-001
3.293960e+003;1.367654e-001
3.295888e+003;1.368604e-001
3.297817e+003;1.371728e-001
3.299746e+003;1.373750e-001
3.301674e+003;1.373112e-001
3.303603e+003;1.370632e-001
3.305531e+003;1.369630e-001
3.307460e+003;1.368086e-001
3.309388e+003;1.364875e-001
3.311317e+003;1.365203e-001
3.313245e+003;1.367699e-001
3.315174e+003;1.371868e-001
3.317103e+003;1.378678e-001
3.319031e+003;1.391623e-001
3.320960e+003;1.397808e-001
3.322888e+003;1.397482e-001
3.324817e+003;1.402306e-001
3.326745e+003;1.410575e-001
3.328674e+003;1.411999e-001
3.330602e+003;1.414075e-001
3.332531e+003;1.413072e-001
3.334459e+003;1.405628e-001
3.336388e+003;1.401803e-001
3.338317e+003;1.396136e-001
3.340245e+003;1.384676e-001
3.342174e+003;1.376091e-001
3.344102e+003;1.372915e-001
3.346031e+003;1.364703e-001
3.347959e+003;1.353276e-001
3.349888e+003;1.343706e-001
3.351816e+003;1.329718e-001
3.353745e+003;1.314262e-001
3.355674e+003;1.307894e-001
3.357602e+003;1.299217e-001
3.359531e+003;1.281648e-001
3.361459e+003;1.268509e-001
3.363388e+003;1.261924e-001
3.365316e+003;1.252153e-001
3.367245e+003;1.241002e-001
3.369173e+003;1.234812e-001
3.371102e+003;1.229066e-001
3.373031e+003;1.221680e-001
3.374959e+003;1.212754e-001
3.376887e+003;1.205881e-001
3.378816e+003;1.199874e-001
3.380745e+003;1.191993e-001
3.382673e+003;1.186419e-001
3.384602e+003;1.178546e-001
3.386530e+003;1.172976e-001
3.388459e+003;1.172131e-001
3.390387e+003;1.161970e-001
3.392316e+003;1.154259e-001
3.394244e+003;1.155355e-001
3.396173e+003;1.149568e-001
3.398102e+003;1.143330e-001
3.400030e+003;1.136031e-001
3.401959e+003;1.127172e-001
3.403887e+003;1.114825e-001
3.405816e+003;1.104660e-001
3.407744e+003;1.101249e-001
3.409673e+003;1.096915e-001
3.411601e+003;1.090806e-001
3.413530e+003;1.081564e-001
3.415458e+003;1.067330e-001
3.417387e+003;1.054431e-001
3.419316e+003;1.038940e-001
3.421244e+003;1.024111e-001
3.423173e+003;1.018849e-001
3.425101e+003;1.012388e-001
3.427030e+003;1.003927e-001
3.428958e+003;9.973124e-002
3.430887e+003;9.898151e-002
3.432815e+003;9.806769e-002
3.434744e+003;9.667913e-002
3.436673e+003;9.602326e-002
3.438601e+003;9.528795e-002
3.440530e+003;9.424314e-002
3.442458e+003;9.358156e-002
3.444387e+003;9.303559e-002
3.446315e+003;9.221984e-002
3.448244e+003;9.105650e-002
3.450172e+003;8.972115e-002
3.452101e+003;8.923497e-002
3.454030e+003;8.871496e-002
3.455958e+003;8.760571e-002
3.457886e+003;8.688527e-002
3.459815e+003;8.619734e-002
3.461744e+003;8.508890e-002
3.463672e+003;8.398457e-002
3.465601e+003;8.343088e-002
3.467529e+003;8.273292e-002
3.469458e+003;8.219933e-002
3.471386e+003;8.121594e-002
3.473315e+003;7.969015e-002
3.475243e+003;7.895613e-002
3.477172e+003;7.892942e-002
3.479101e+003;7.829416e-002
3.481029e+003;7.709432e-002
3.482958e+003;7.633606e-002
3.484886e+003;7.549286e-002
3.486815e+003;7.407970e-002
3.488743e+003;7.317333e-002
3.490672e+003;7.277588e-002
3.492600e+003;7.214970e-002
3.494529e+003;7.107443e-002
3.496458e+003;6.982861e-002
3.498386e+003;6.898563e-002
3.500315e+003;6.807132e-002
3.502243e+003;6.743161e-002
3.504172e+003;6.767499e-002
3.506100e+003;6.797661e-002
3.508029e+003;6.748274e-002
3.509957e+003;6.637041e-002
3.511886e+003;6.533938e-002
3.513814e+003;6.414552e-002
3.515743e+003;6.364650e-002
3.517672e+003;6.374415e-002
3.519600e+003;6.303078e-002
3.521529e+003;6.156138e-002
3.523457e+003;6.036548e-002
3.525386e+003;6.003268e-002
3.527314e+003;5.960244e-002
3.529243e+003;5.948098e-002
3.531171e+003;5.973298e-002
3.533100e+003;5.931056e-002
3.535029e+003;5.796256e-002
3.536957e+003;5.675945e-002
3.538885e+003;5.605790e-002
3.540814e+003;5.535508e-002
3.542743e+003;5.472111e-002
3.544671e+003;5.404836e-002
3.546600e+003;5.385609e-002
3.548528e+003;5.387256e-002
3.550457e+003;5.310817e-002
3.552385e+003;5.230615e-002
3.554314e+003;5.199124e-002
3.556242e+003;5.178695e-002
3.558171e+003;5.138778e-002
3.560100e+003;5.048920e-002
3.562028e+003;4.915962e-002
3.563957e+003;4.817045e-002
3.565885e+003;4.677542e-002
3.567814e+003;4.648075e-002
3.569742e+003;4.751065e-002
3.571671e+003;4.782485e-002
3.573599e+003;4.755726e-002
3.575528e+003;4.721777e-002
3.577457e+003;4.657804e-002
3.579385e+003;4.620603e-002
3.581314e+003;4.614544e-002
3.583242e+003;4.583072e-002
3.585171e+003;4.415305e-002
3.587099e+003;4.263281e-002
3.589028e+003;4.319270e-002
3.590956e+003;4.410379e-002
3.592885e+003;4.389805e-002
3.594813e+003;4.287993e-002
3.596742e+003;4.262630e-002
3.598671e+003;4.255075e-002
3.600599e+003;4.225152e-002
3.602528e+003;4.236738e-002
3.604456e+003;4.202742e-002
3.606385e+003;4.097153e-002
3.608313e+003;3.965501e-002
3.610242e+003;3.945659e-002
3.612170e+003;3.927201e-002
3.614099e+003;3.941092e-002
3.616028e+003;3.928496e-002
3.617956e+003;3.813608e-002
3.619885e+003;3.825312e-002
3.621813e+003;3.921856e-002
3.623742e+003;3.862812e-002
3.625670e+003;3.691306e-002
3.627599e+003;3.367852e-002
3.629527e+003;3.380576e-002
3.631456e+003;3.649124e-002
3.633385e+003;3.684939e-002
3.635313e+003;3.697579e-002
3.637241e+003;3.718553e-002
3.639170e+003;3.667410e-002
3.641099e+003;3.622752e-002
3.643027e+003;3.609384e-002
3.644956e+003;3.551375e-002
3.646884e+003;3.299213e-002
3.648813e+003;3.034640e-002
3.650741e+003;3.120951e-002
3.652670e+003;3.312868e-002
3.654598e+003;3.243766e-002
3.656527e+003;3.228202e-002
3.658456e+003;3.376189e-002
3.660384e+003;3.435997e-002
3.662313e+003;3.442094e-002
3.664241e+003;3.375572e-002
3.666170e+003;3.251125e-002
3.668098e+003;3.017943e-002
3.670027e+003;2.918275e-002
3.671955e+003;3.065571e-002
3.673884e+003;2.839825e-002
3.675813e+003;2.653589e-002
3.677741e+003;2.937919e-002
3.679669e+003;3.124458e-002
3.681598e+003;3.182067e-002
3.683527e+003;3.183198e-002
3.685455e+003;3.067495e-002
3.687384e+003;2.737798e-002
3.689312e+003;2.715518e-002
3.691241e+003;2.946737e-002
3.693169e+003;3.095933e-002
3.695098e+003;3.123995e-002
3.697026e+003;3.101716e-002
3.698955e+003;3.056633e-002
3.700884e+003;2.955649e-002
3.702812e+003;3.027648e-002
3.704741e+003;3.124255e-002
3.706669e+003;3.051141e-002
3.708598e+003;2.885402e-002
3.710526e+003;2.723751e-002
3.712455e+003;2.749996e-002
3.714383e+003;2.950478e-002
3.716312e+003;3.024479e-002
3.718240e+003;2.957323e-002
3.720169e+003;2.888483e-002
3.722098e+003;2.882956e-002
3.724026e+003;2.905647e-002
3.725955e+003;2.858410e-002
3.727883e+003;2.882290e-002
3.729812e+003;2.881072e-002
3.731740e+003;2.734862e-002
3.733669e+003;2.617154e-002
3.735597e+003;2.519082e-002
3.737526e+003;2.709554e-002
3.739455e+003;2.887736e-002
3.741383e+003;2.679482e-002
3.743312e+003;2.178538e-002
3.745240e+003;2.315181e-002
3.747169e+003;2.558792e-002
3.749097e+003;2.310861e-002
3.751026e+003;2.238840e-002
3.752954e+003;2.530218e-002
3.754883e+003;2.863843e-002
3.756812e+003;2.922837e-002
3.758740e+003;2.894174e-002
3.760668e+003;2.860502e-002
3.762597e+003;2.919619e-002
3.764526e+003;2.889698e-002
3.766454e+003;2.931726e-002
3.768383e+003;2.906848e-002
3.770311e+003;2.861206e-002
3.772240e+003;2.907068e-002
3.774168e+003;3.001423e-002
3.776097e+003;2.982368e-002
3.778025e+003;2.883975e-002
3.779954e+003;2.920590e-002
3.781883e+003;2.970286e-002
3.783811e+003;2.891146e-002
3.785740e+003;2.874027e-002
3.787668e+003;2.957089e-002
3.789597e+003;3.073220e-002
3.791525e+003;3.034722e-002
3.793454e+003;2.968966e-002
3.795382e+003;2.906480e-002
3.797311e+003;2.958139e-002
3.799240e+003;2.785805e-002
3.801168e+003;2.515869e-002
3.803097e+003;2.683203e-002
3.805025e+003;2.754977e-002
3.806954e+003;2.741500e-002
3.808882e+003;2.912011e-002
3.810811e+003;3.008549e-002
3.812739e+003;2.999094e-002
3.814668e+003;2.715973e-002
3.816596e+003;2.682125e-002
3.818525e+003;2.828935e-002
3.820454e+003;2.643781e-002
3.822382e+003;2.699578e-002
3.824311e+003;2.905906e-002
3.826239e+003;2.914130e-002
3.828168e+003;2.885555e-002
3.830096e+003;2.834413e-002
3.832025e+003;2.846182e-002
3.833953e+003;2.846256e-002
3.835882e+003;2.669918e-002
3.837811e+003;2.568946e-002
3.839739e+003;2.764736e-002
3.841667e+003;2.899395e-002
3.843596e+003;2.954220e-002
3.845525e+003;3.039405e-002
3.847453e+003;3.031044e-002
3.849382e+003;2.867715e-002
3.851310e+003;2.414663e-002
3.853239e+003;2.076004e-002
3.855167e+003;2.551472e-002
3.857096e+003;3.015549e-002
3.859024e+003;3.065663e-002
3.860953e+003;2.981697e-002
3.862882e+003;2.795119e-002
3.864810e+003;2.749322e-002
3.866739e+003;2.886195e-002
3.868667e+003;2.813858e-002
3.870596e+003;2.825176e-002
3.872524e+003;2.881518e-002
3.874453e+003;2.953333e-002
3.876381e+003;3.102413e-002
3.878310e+003;2.999474e-002
3.880239e+003;2.893197e-002
3.882167e+003;2.971602e-002
3.884096e+003;2.902112e-002
3.886024e+003;2.850909e-002
3.887953e+003;2.995128e-002
3.889881e+003;2.951365e-002
3.891810e+003;2.958231e-002
3.893738e+003;3.135366e-002
3.895667e+003;3.207656e-002
3.897595e+003;3.093066e-002
3.899524e+003;2.933378e-002
3.901453e+003;2.844395e-002
3.903381e+003;2.857880e-002
3.905310e+003;3.035077e-002
3.907238e+003;3.217795e-002
3.909167e+003;3.229925e-002
3.911095e+003;3.197625e-002
3.913024e+003;3.176499e-002
3.914952e+003;3.150209e-002
3.916881e+003;3.126324e-002
3.918810e+003;3.131217e-002
3.920738e+003;3.166105e-002
3.922667e+003;3.172310e-002
3.924595e+003;3.211337e-002
3.926524e+003;3.307647e-002
3.928452e+003;3.275536e-002
3.930381e+003;3.144103e-002
3.932309e+003;3.099100e-002
3.934238e+003;3.220557e-002
3.936167e+003;3.306292e-002
3.938095e+003;3.322402e-002
3.940023e+003;3.297197e-002
3.941952e+003;3.214588e-002
3.943881e+003;3.194180e-002
3.945809e+003;3.161009e-002
3.947738e+003;3.091774e-002
3.949666e+003;3.171020e-002
3.951595e+003;3.263096e-002
3.953523e+003;3.322857e-002
3.955452e+003;3.286503e-002
3.957380e+003;3.307826e-002
3.959309e+003;3.376289e-002
3.961238e+003;3.333778e-002
3.963166e+003;3.277393e-002
3.965095e+003;3.222238e-002
3.967023e+003;3.158906e-002
3.968952e+003;3.186881e-002
3.970880e+003;3.234095e-002
3.972809e+003;3.205908e-002
3.974737e+003;3.185173e-002
3.976666e+003;3.241356e-002
3.978594e+003;3.362689e-002
3.980523e+003;3.371981e-002
3.982452e+003;3.281910e-002
3.984380e+003;3.331213e-002
3.986309e+003;3.377840e-002
3.988237e+003;3.394256e-002
3.990166e+003;3.403275e-002
3.992094e+003;3.348439e-002
3.994023e+003;3.317750e-002
3.995951e+003;3.303052e-002
3.997880e+003;3.284458e-002
3.999809e+003;3.289108e-002
4.001737e+003;0.000000e+000
