3.992094e+002;0.000000e+000
4.011380e+002;0.000000e+000
4.030665e+002;0.000000e+000
4.049951e+002;0.000000e+000
4.069236e+002;0.000000e+000
4.088522e+002;0.000000e+000
4.107807e+002;0.000000e+000
4.127093e+002;0.000000e+000
4.146378e+002;0.000000e+000
4.165664e+002;0.000000e+000
4.184949e+002;0.000000e+000
4.204235e+002;0.000000e+000
4.223520e+002;0.000000e+000
4.242806e+002;0.000000e+000
4.262091e+002;0.000000e+000
4.281377e+002;0.000000e+000
4.300662e+002;0.000000e+000
4.319948e+002;0.000000e+000
4.339233e+002;0.000000e+000
4.358519e+002;0.000000e+000
4.377804e+002;0.000000e+000
4.397090e+002;0.000000e+000
4.416375e+002;0.000000e+000
4.435660e+002;0.000000e+000
4.454946e+002;0.000000e+000
4.474232e+002;0.000000e+000
4.493517e+002;0.000000e+000
4.512802e+002;0.000000e+000
4.532088e+002;0.000000e+000
4.551373e+002;0.000000e+000
4.570659e+002;0.000000e+000
4.589944e+002;0.000000e+000
4.609230e+002;0.000000e+000
4.628515e+002;0.000000e+000
4.647801e+002;0.000000e+000
4.667086e+002;0.000000e+000
4.686372e+002;0.000000e+000
4.705657e+002;0.000000e+000
4.724943e+002;0.000000e+000
4.744228e+002;0.000000e+000
4.763513e+002;0.000000e+000
4.782799e+002;0.000000e+000
4.802085e+002;0.000000e+000
4.821370e+002;0.000000e+000
4.840656e+002;0.000000e+000
4.859941e+002;0.000000e+000
4.879226e+002;0.000000e+000
4.898512e+002;0.000000e+000
4.917798e+002;0.000000e+000
4.937083e+002;0.000000e+000
4.956368e+002;0.000000e+000
4.975654e+002;0.000000e+000
4.994939e+002;0.000000e+000
5.014225e+002;0.000000e+000
5.033510e+002;0.000000e+000
5.052796e+002;0.000000e+000
5.072081e+002;0.000000e+000
5.091367e+002;0.000000e+000
5.110652e+002;0.000000e+000
5.129938e+002;0.000000e+000
5.149223e+002;0.000000e+000
5.168509e+002;0.000000e+000
5.187794e+002;0.000000e+000
5.207079e+002;0.000000e+000
5.226365e+002;0.000000e+000
5.245651e+002;0.000000e+000
5.264936e+002;0.000000e+000
5.284222e+002;0.000000e+000
5.303507e+002;0.000000e+000
5.322792e+002;0.000000e+000
5.342078e+002;0.000000e+000
5.361364e+002;0.000000e+000
5.380649e+002;0.000000e+000
5.399935e+002;0.000000e+000
5.419220e+002;0.000000e+000
5.438505e+002;0.000000e+000
5.457791e+002;0.000000e+000
5.477076e+002;0.000000e+000
5.496362e+002;0.000000e+000
5.515648e+002;0.000000e+000
5.534933e+002;0.000000e+000
5.554218e+002;0.000000e+000
5.573504e+002;0.000000e+000
5.592789e+002;0.000000e+000
5.612075e+002;0.000000e+000
5.631360e+002;0.000000e+000
5.650646e+002;0.000000e+000
5.669931e+002;0.000000e+000
5.689217e+002;0.000000e+000
5.708502e+002;0.000000e+000
5.727787e+002;0.000000e+000
5.747073e+002;0.000000e+000
5.766359e+002;0.000000e+000
5.785644e+002;0.000000e+000
5.804930e+002;0.000000e+000
5.824215e+002;0.000000e+000
5.843500e+002;0.000000e+000
5.862786e+002;0.000000e+000
5.882072e+002;0.000000e+000
5.901357e+002;0.000000e+000
5.920643e+002;0.000000e+000
5.939928e+002;0.000000e+000
5.959213e+002;0.000000e+000
5.978499e+002;0.000000e+000
5.997784e+002;1.894781e-001
6.017070e+002;1.923144e-001
6.036355e+002;1.937887e-001
6.055641e+002;1.962969e-001
6.074926e+002;2.001339e-001
6.094211e+002;1.968412e-001
6.113497e+002;1.937590e-001
6.132783e+002;1.959354e-001
6.152068e+002;1.962958e-001
6.171354e+002;1.932195e-001
6.190639e+002;1.932230e-001
6.209924e+002;1.923936e-001
6.229210e+002;1.881690e-001
6.248495e+002;1.836611e-001
6.267781e+002;1.828440e-001
6.287067e+002;1.818672e-001
6.306352e+002;1.780756e-001
6.325637e+002;1.740849e-001
6.344923e+002;1.731542e-001
6.364208e+002;1.707044e-001
6.383494e+002;1.667365e-001
6.402780e+002;1.643827e-001
6.422065e+002;1.647361e-001
6.441350e+002;1.665455e-001
6.460636e+002;1.614418e-001
6.479921e+002;1.576573e-001
6.499207e+002;1.599769e-001
6.518492e+002;1.619358e-001
6.537778e+002;1.620484e-001
6.557063e+002;1.653706e-001
6.576349e+002;1.714606e-001
6.595634e+002;1.771725e-001
6.614919e+002;1.808883e-001
6.634205e+002;1.813386e-001
6.653491e+002;1.797640e-001
6.672776e+002;1.773379e-001
6.692062e+002;1.751304e-001
6.711347e+002;1.711296e-001
6.730632e+002;1.670402e-001
6.749918e+002;1.655238e-001
6.769203e+002;1.628449e-001
6.788489e+002;1.577302e-001
6.807775e+002;1.533472e-001
6.827060e+002;1.518466e-001
6.846345e+002;1.514992e-001
6.865631e+002;1.504920e-001
6.884916e+002;1.490959e-001
6.904202e+002;1.489221e-001
6.923488e+002;1.496533e-001
6.942773e+002;1.506573e-001
6.962058e+002;1.512202e-001
6.981344e+002;1.523955e-001
7.000629e+002;1.528536e-001
7.019915e+002;1.514261e-001
7.039200e+002;1.495629e-001
7.058486e+002;1.480706e-001
7.077771e+002;1.463109e-001
7.097057e+002;1.436755e-001
7.116342e+002;1.411798e-001
7.135627e+002;1.387744e-001
7.154913e+002;1.361897e-001
7.174199e+002;1.340399e-001
7.193484e+002;1.316525e-001
7.212770e+002;1.280716e-001
7.232055e+002;1.256479e-001
7.251340e+002;1.232562e-001
7.270626e+002;1.201488e-001
7.289911e+002;1.181970e-001
7.309197e+002;1.171201e-001
7.328483e+002;1.143558e-001
7.347768e+002;1.112692e-001
7.367053e+002;1.105193e-001
7.386339e+002;1.097407e-001
7.405624e+002;1.082212e-001
7.424910e+002;1.067616e-001
7.444196e+002;1.060393e-001
7.463481e+002;1.051724e-001
7.482766e+002;1.041948e-001
7.502052e+002;1.034238e-001
7.521337e+002;1.020040e-001
7.540623e+002;1.011995e-001
7.559908e+002;1.013164e-001
7.579194e+002;1.006139e-001
7.598479e+002;9.989965e-002
7.617765e+002;9.916741e-002
7.637050e+002;9.817476e-002
7.656335e+002;9.759320e-002
7.675621e+002;9.725263e-002
7.694907e+002;9.658191e-002
7.714192e+002;9.652740e-002
7.733478e+002;9.627844e-002
7.752763e+002;9.543379e-002
7.772048e+002;9.596337e-002
7.791334e+002;9.726067e-002
7.810620e+002;9.788637e-002
7.829905e+002;9.875909e-002
7.849191e+002;1.003372e-001
7.868476e+002;1.020198e-001
7.887761e+002;1.041672e-001
7.907047e+002;1.062820e-001
7.926332e+002;1.082719e-001
7.945618e+002;1.103434e-001
7.964903e+002;1.123727e-001
7.984189e+002;1.136392e-001
8.003474e+002;1.143206e-001
8.022759e+002;1.146471e-001
8.042045e+002;1.148072e-001
8.061331e+002;1.143869e-001
8.080616e+002;1.140732e-001
8.099902e+002;1.127092e-001
8.119187e+002;1.105265e-001
8.138472e+002;1.098066e-001
8.157758e+002;1.093401e-001
8.177043e+002;1.082144e-001
8.196329e+002;1.072473e-001
8.215615e+002;1.060362e-001
8.234900e+002;1.042067e-001
8.254185e+002;1.021197e-001
8.273471e+002;9.938971e-002
8.292756e+002;9.612412e-002
8.312042e+002;9.376574e-002
8.331328e+002;9.229072e-002
8.350613e+002;9.143620e-002
8.369898e+002;9.076566e-002
8.389184e+002;9.014054e-002
8.408469e+002;9.002875e-002
8.427755e+002;9.034896e-002
8.447040e+002;9.032550e-002
8.466326e+002;9.002613e-002
8.485611e+002;8.953530e-002
8.504897e+002;8.968107e-002
8.524182e+002;9.030029e-002
8.543467e+002;9.108899e-002
8.562753e+002;9.171289e-002
8.582039e+002;9.191944e-002
8.601324e+002;9.260990e-002
8.620610e+002;9.376516e-002
8.639895e+002;9.461625e-002
8.659180e+002;9.490882e-002
8.678466e+002;9.540139e-002
8.697751e+002;9.633999e-002
8.717037e+002;9.763373e-002
8.736323e+002;9.875290e-002
8.755608e+002;9.935392e-002
8.774893e+002;1.005822e-001
8.794179e+002;1.021762e-001
8.813464e+002;1.035725e-001
8.832750e+002;1.046770e-001
8.852036e+002;1.063067e-001
8.871321e+002;1.083595e-001
8.890606e+002;1.106676e-001
8.909892e+002;1.127301e-001
8.929177e+002;1.139537e-001
8.948463e+002;1.142597e-001
8.967748e+002;1.145003e-001
8.987034e+002;1.146414e-001
9.006319e+002;1.143370e-001
9.025605e+002;1.137812e-001
9.044890e+002;1.133929e-001
9.064175e+002;1.124066e-001
9.083461e+002;1.109661e-001
9.102747e+002;1.095589e-001
9.122032e+002;1.087505e-001
9.141318e+002;1.082414e-001
9.160603e+002;1.075144e-001
9.179888e+002;1.072244e-001
9.199174e+002;1.072938e-001
9.218459e+002;1.074448e-001
9.237745e+002;1.081307e-001
9.257031e+002;1.092990e-001
9.276316e+002;1.103063e-001
9.295601e+002;1.112826e-001
9.314887e+002;1.124822e-001
9.334172e+002;1.138199e-001
9.353458e+002;1.152968e-001
9.372744e+002;1.162030e-001
9.392029e+002;1.170241e-001
9.411314e+002;1.183661e-001
9.430600e+002;1.201651e-001
9.449885e+002;1.218121e-001
9.469171e+002;1.235272e-001
9.488456e+002;1.259333e-001
9.507742e+002;1.285413e-001
9.527027e+002;1.313760e-001
9.546313e+002;1.345942e-001
9.565598e+002;1.379342e-001
9.584883e+002;1.412668e-001
9.604169e+002;1.448948e-001
9.623455e+002;1.490451e-001
9.642740e+002;1.532913e-001
9.662026e+002;1.574992e-001
9.681311e+002;1.618795e-001
9.700596e+002;1.672699e-001
9.719882e+002;1.736652e-001
9.739167e+002;1.811663e-001
9.758453e+002;1.900112e-001
9.777739e+002;1.994564e-001
9.797024e+002;2.091380e-001
9.816309e+002;2.179376e-001
9.835595e+002;2.241186e-001
9.854880e+002;2.267029e-001
9.874166e+002;2.266857e-001
9.893452e+002;2.268544e-001
9.912737e+002;2.288637e-001
9.932022e+002;2.322282e-001
9.951307e+002;2.367062e-001
9.970593e+002;2.417330e-001
9.989879e+002;2.460010e-001
1.000916e+003;2.486895e-001
1.002845e+003;2.503985e-001
1.004773e+003;2.519972e-001
1.006702e+003;2.537101e-001
1.008631e+003;2.555369e-001
1.010559e+003;2.578464e-001
1.012488e+003;2.599776e-001
1.014416e+003;2.619675e-001
1.016345e+003;2.638517e-001
1.018273e+003;2.652953e-001
1.020202e+003;2.658515e-001
1.022130e+003;2.673214e-001
1.024059e+003;2.693688e-001
1.025988e+003;2.709680e-001
1.027916e+003;2.717797e-001
1.029845e+003;2.718804e-001
1.031773e+003;2.710381e-001
1.033702e+003;2.678705e-001
1.035630e+003;2.622170e-001
1.037559e+003;2.561672e-001
1.039487e+003;2.505655e-001
1.041416e+003;2.466379e-001
1.043344e+003;2.453177e-001
1.045273e+003;2.462460e-001
1.047202e+003;2.484646e-001
1.049130e+003;2.513705e-001
1.051059e+003;2.544937e-001
1.052987e+003;2.567680e-001
1.054916e+003;2.566536e-001
1.056844e+003;2.537477e-001
1.058773e+003;2.485716e-001
1.060701e+003;2.403295e-001
1.062630e+003;2.295997e-001
1.064558e+003;2.183763e-001
1.066487e+003;2.080720e-001
1.068416e+003;2.001802e-001
1.070344e+003;1.947322e-001
1.072273e+003;1.906337e-001
1.074201e+003;1.872130e-001
1.076130e+003;1.842156e-001
1.078058e+003;1.811919e-001
1.079987e+003;1.788529e-001
1.081915e+003;1.772016e-001
1.083844e+003;1.764910e-001
1.085773e+003;1.766608e-001
1.087701e+003;1.769525e-001
1.089630e+003;1.775561e-001
1.091558e+003;1.787657e-001
1.093487e+003;1.806347e-001
1.095415e+003;1.826865e-001
1.097344e+003;1.844984e-001
1.099272e+003;1.865903e-001
1.101201e+003;1.887722e-001
1.103129e+003;1.895329e-001
1.105058e+003;1.885837e-001
1.106987e+003;1.871473e-001
1.108915e+003;1.851790e-001
1.110844e+003;1.821899e-001
1.112772e+003;1.777735e-001
1.114701e+003;1.705196e-001
1.116629e+003;1.619085e-001
1.118558e+003;1.543387e-001
1.120486e+003;1.486973e-001
1.122415e+003;1.444651e-001
1.124344e+003;1.399118e-001
1.126272e+003;1.344964e-001
1.128201e+003;1.295958e-001
1.130129e+003;1.257967e-001
1.132058e+003;1.224036e-001
1.133986e+003;1.196552e-001
1.135915e+003;1.176690e-001
1.137843e+003;1.162600e-001
1.139772e+003;1.161314e-001
1.141700e+003;1.171957e-001
1.143629e+003;1.194128e-001
1.145557e+003;1.220797e-001
1.147486e+003;1.241413e-001
1.149415e+003;1.257251e-001
1.151343e+003;1.277061e-001
1.153272e+003;1.297478e-001
1.155200e+003;1.313461e-001
1.157129e+003;1.328816e-001
1.159057e+003;1.341671e-001
1.160986e+003;1.341824e-001
1.162914e+003;1.326026e-001
1.164843e+003;1.291787e-001
1.166771e+003;1.238271e-001
1.168700e+003;1.179801e-001
1.170629e+003;1.126518e-001
1.172557e+003;1.083606e-001
1.174486e+003;1.049071e-001
1.176414e+003;1.019976e-001
1.178343e+003;9.954615e-002
1.180271e+003;9.751700e-002
1.182200e+003;9.607166e-002
1.184128e+003;9.520902e-002
1.186057e+003;9.465563e-002
1.187986e+003;9.476632e-002
1.189914e+003;9.513509e-002
1.191843e+003;9.561880e-002
1.193771e+003;9.670335e-002
1.195700e+003;9.843852e-002
1.197628e+003;1.002425e-001
1.199557e+003;1.015703e-001
1.201485e+003;1.024120e-001
1.203414e+003;1.029794e-001
1.205343e+003;1.028656e-001
1.207271e+003;1.018152e-001
1.209200e+003;9.960670e-002
1.211128e+003;9.698234e-002
1.213057e+003;9.535125e-002
1.214985e+003;9.499665e-002
1.216914e+003;9.520902e-002
1.218842e+003;9.607171e-002
1.220771e+003;9.722544e-002
1.222699e+003;9.852997e-002
1.224628e+003;1.000523e-001
1.226557e+003;1.017672e-001
1.228485e+003;1.035795e-001
1.230414e+003;1.051637e-001
1.232342e+003;1.064695e-001
1.234271e+003;1.073948e-001
1.236199e+003;1.077596e-001
1.238128e+003;1.082213e-001
1.240056e+003;1.091777e-001
1.241985e+003;1.100257e-001
1.243913e+003;1.110431e-001
1.245842e+003;1.121076e-001
1.247771e+003;1.128433e-001
1.249699e+003;1.137664e-001
1.251628e+003;1.152768e-001
1.253556e+003;1.173168e-001
1.255485e+003;1.200515e-001
1.257413e+003;1.232609e-001
1.259342e+003;1.259692e-001
1.261270e+003;1.272070e-001
1.263199e+003;1.261927e-001
1.265127e+003;1.229074e-001
1.267056e+003;1.186868e-001
1.268985e+003;1.150884e-001
1.270913e+003;1.128061e-001
1.272842e+003;1.120053e-001
1.274770e+003;1.117385e-001
1.276699e+003;1.112942e-001
1.278627e+003;1.108312e-001
1.280556e+003;1.104205e-001
1.282484e+003;1.093852e-001
1.284413e+003;1.080595e-001
1.286342e+003;1.073957e-001
1.288270e+003;1.073670e-001
1.290199e+003;1.075278e-001
1.292127e+003;1.077042e-001
1.294056e+003;1.078600e-001
1.295984e+003;1.081632e-001
1.297913e+003;1.087698e-001
1.299841e+003;1.099837e-001
1.301770e+003;1.117331e-001
1.303698e+003;1.139916e-001
1.305627e+003;1.165854e-001
1.307556e+003;1.192315e-001
1.309484e+003;1.217571e-001
1.311413e+003;1.238384e-001
1.313341e+003;1.252156e-001
1.315270e+003;1.253222e-001
1.317198e+003;1.239760e-001
1.319127e+003;1.216123e-001
1.321055e+003;1.189295e-001
1.322984e+003;1.165954e-001
1.324912e+003;1.148993e-001
1.326841e+003;1.140487e-001
1.328770e+003;1.141407e-001
1.330698e+003;1.150425e-001
1.332627e+003;1.160564e-001
1.334555e+003;1.166335e-001
1.336484e+003;1.161204e-001
1.338412e+003;1.146620e-001
1.340341e+003;1.130549e-001
1.342269e+003;1.112376e-001
1.344198e+003;1.092210e-001
1.346126e+003;1.074284e-001
1.348055e+003;1.062682e-001
1.349984e+003;1.056260e-001
1.351912e+003;1.057802e-001
1.353841e+003;1.066314e-001
1.355769e+003;1.075681e-001
1.357698e+003;1.081349e-001
1.359626e+003;1.085536e-001
1.361555e+003;1.084775e-001
1.363483e+003;1.079475e-001
1.365412e+003;1.076963e-001
1.367341e+003;1.076475e-001
1.369269e+003;1.074866e-001
1.371198e+003;1.069002e-001
1.373126e+003;1.053634e-001
1.375055e+003;1.033895e-001
1.376983e+003;1.019087e-001
1.378912e+003;1.003761e-001
1.380840e+003;9.866373e-002
1.382769e+003;9.702571e-002
1.384698e+003;9.552519e-002
1.386626e+003;9.419939e-002
1.388555e+003;9.384272e-002
1.390483e+003;9.388870e-002
1.392412e+003;9.371977e-002
1.394340e+003;9.361962e-002
1.396269e+003;9.393580e-002
1.398197e+003;9.429620e-002
1.400126e+003;9.469973e-002
1.402054e+003;9.512746e-002
1.403983e+003;9.537932e-002
1.405911e+003;9.552334e-002
1.407840e+003;9.582656e-002
1.409769e+003;9.605062e-002
1.411697e+003;9.641916e-002
1.413626e+003;9.685037e-002
1.415554e+003;9.715411e-002
1.417483e+003;9.736361e-002
1.419411e+003;9.802425e-002
1.421340e+003;9.956919e-002
1.423268e+003;1.008409e-001
1.425197e+003;1.015425e-001
1.427125e+003;1.018319e-001
1.429054e+003;1.016239e-001
1.430983e+003;1.014239e-001
1.432911e+003;1.006986e-001
1.434840e+003;9.897503e-002
1.436768e+003;9.755553e-002
1.438697e+003;9.765252e-002
1.440625e+003;9.771957e-002
1.442554e+003;9.745044e-002
1.444482e+003;9.739060e-002
1.446411e+003;9.728508e-002
1.448340e+003;9.707978e-002
1.450268e+003;9.702741e-002
1.452197e+003;9.674967e-002
1.454125e+003;9.575608e-002
1.456054e+003;9.348856e-002
1.457982e+003;9.266359e-002
1.459911e+003;9.358181e-002
1.461839e+003;9.355082e-002
1.463768e+003;9.194975e-002
1.465697e+003;9.015571e-002
1.467625e+003;8.900391e-002
1.469554e+003;8.803650e-002
1.471482e+003;8.711546e-002
1.473411e+003;8.570040e-002
1.475339e+003;8.378203e-002
1.477268e+003;8.215261e-002
1.479196e+003;8.118802e-002
1.481125e+003;7.993142e-002
1.483053e+003;7.811964e-002
1.484982e+003;7.589273e-002
1.486911e+003;7.397149e-002
1.488839e+003;7.284746e-002
1.490768e+003;7.240963e-002
1.492696e+003;7.237628e-002
1.494625e+003;7.200341e-002
1.496553e+003;7.159717e-002
1.498482e+003;7.174166e-002
1.500410e+003;7.219947e-002
1.502339e+003;7.279727e-002
1.504267e+003;7.213143e-002
1.506196e+003;7.113551e-002
1.508125e+003;7.219341e-002
1.510053e+003;7.395349e-002
1.511982e+003;7.471028e-002
1.513910e+003;7.499482e-002
1.515839e+003;7.500596e-002
1.517767e+003;7.503794e-002
1.519696e+003;7.458055e-002
1.521624e+003;7.428570e-002
1.523553e+003;7.528451e-002
1.525481e+003;7.621631e-002
1.527410e+003;7.710706e-002
1.529339e+003;7.796483e-002
1.531267e+003;7.848784e-002
1.533196e+003;7.903108e-002
1.535124e+003;8.038343e-002
1.537053e+003;8.091760e-002
1.538981e+003;7.989182e-002
1.540910e+003;8.020867e-002
1.542838e+003;8.130483e-002
1.544767e+003;8.149267e-002
1.546695e+003;8.131362e-002
1.548624e+003;8.086103e-002
1.550553e+003;8.036497e-002
1.552481e+003;7.939412e-002
1.554410e+003;7.826817e-002
1.556338e+003;7.697780e-002
1.558267e+003;7.474872e-002
1.560195e+003;7.453279e-002
1.562124e+003;7.585434e-002
1.564052e+003;7.605510e-002
1.565981e+003;7.572699e-002
1.567910e+003;7.525090e-002
1.569838e+003;7.483198e-002
1.571767e+003;7.519779e-002
1.573695e+003;7.522990e-002
1.575624e+003;7.458416e-002
1.577552e+003;7.483091e-002
1.579481e+003;7.493461e-002
1.581409e+003;7.452390e-002
1.583338e+003;7.423833e-002
1.585266e+003;7.371420e-002
1.587195e+003;7.327341e-002
1.589124e+003;7.297283e-002
1.591052e+003;7.333563e-002
1.592981e+003;7.361707e-002
1.594909e+003;7.347562e-002
1.596838e+003;7.373623e-002
1.598766e+003;7.401852e-002
1.600695e+003;7.432698e-002
1.602623e+003;7.473098e-002
1.604552e+003;7.485087e-002
1.606480e+003;7.475805e-002
1.608409e+003;7.513775e-002
1.610338e+003;7.581808e-002
1.612266e+003;7.613891e-002
1.614195e+003;7.605822e-002
1.616123e+003;7.570355e-002
1.618052e+003;7.681101e-002
1.619980e+003;7.839512e-002
1.621909e+003;7.895970e-002
1.623837e+003;7.957922e-002
1.625766e+003;8.054023e-002
1.627694e+003;8.139007e-002
1.629623e+003;8.257933e-002
1.631552e+003;8.363064e-002
1.633480e+003;8.385493e-002
1.635409e+003;8.379694e-002
1.637337e+003;8.517077e-002
1.639266e+003;8.687349e-002
1.641194e+003;8.785543e-002
1.643123e+003;8.825670e-002
1.645051e+003;8.827481e-002
1.646980e+003;8.883698e-002
1.648909e+003;8.969170e-002
1.650837e+003;8.847848e-002
1.652766e+003;8.635969e-002
1.654694e+003;8.711679e-002
1.656623e+003;8.789182e-002
1.658551e+003;8.716255e-002
1.660480e+003;8.583079e-002
1.662408e+003;8.434997e-002
1.664337e+003;8.349364e-002
1.666266e+003;8.244739e-002
1.668194e+003;8.067567e-002
1.670123e+003;7.950632e-002
1.672051e+003;7.879581e-002
1.673980e+003;7.726628e-002
1.675908e+003;7.595887e-002
1.677837e+003;7.538209e-002
1.679765e+003;7.411287e-002
1.681694e+003;7.216844e-002
1.683622e+003;6.969531e-002
1.685551e+003;6.919792e-002
1.687479e+003;6.948105e-002
1.689408e+003;6.852555e-002
1.691337e+003;6.742883e-002
1.693265e+003;6.603098e-002
1.695194e+003;6.407931e-002
1.697122e+003;6.331842e-002
1.699051e+003;6.211569e-002
1.700979e+003;6.129875e-002
1.702908e+003;6.200308e-002
1.704836e+003;6.181864e-002
1.706765e+003;6.165574e-002
1.708693e+003;6.169202e-002
1.710622e+003;6.178464e-002
1.712551e+003;6.202231e-002
1.714479e+003;6.241115e-002
1.716408e+003;6.285238e-002
1.718336e+003;6.488135e-002
1.720265e+003;6.799196e-002
1.722193e+003;7.053083e-002
1.724122e+003;7.298891e-002
1.726050e+003;7.558733e-002
1.727979e+003;7.765380e-002
1.729908e+003;7.899412e-002
1.731836e+003;7.902667e-002
1.733765e+003;7.764711e-002
1.735693e+003;7.700684e-002
1.737622e+003;7.574848e-002
1.739550e+003;7.254713e-002
1.741479e+003;6.878313e-002
1.743407e+003;6.461031e-002
1.745336e+003;6.021012e-002
1.747265e+003;5.631214e-002
1.749193e+003;5.316580e-002
1.751122e+003;5.099534e-002
1.753050e+003;4.995410e-002
1.754979e+003;4.908794e-002
1.756907e+003;4.825260e-002
1.758836e+003;4.792340e-002
1.760764e+003;4.750078e-002
1.762693e+003;4.706745e-002
1.764621e+003;4.705559e-002
1.766550e+003;4.672601e-002
1.768479e+003;4.622416e-002
1.770407e+003;4.561415e-002
1.772336e+003;4.498997e-002
1.774264e+003;4.523826e-002
1.776193e+003;4.554221e-002
1.778121e+003;4.552812e-002
1.780050e+003;4.538739e-002
1.781978e+003;4.527845e-002
1.783907e+003;4.508914e-002
1.785835e+003;4.510789e-002
1.787764e+003;4.509690e-002
1.789693e+003;4.471223e-002
1.791621e+003;4.408109e-002
1.793550e+003;4.394128e-002
1.795478e+003;4.416747e-002
1.797407e+003;4.408080e-002
1.799335e+003;4.403177e-002
1.801264e+003;4.384172e-002
1.803192e+003;4.396533e-002
1.805121e+003;4.404695e-002
1.807049e+003;4.368582e-002
1.808978e+003;4.361646e-002
1.810907e+003;4.367267e-002
1.812835e+003;4.342696e-002
1.814764e+003;4.328655e-002
1.816692e+003;4.342806e-002
1.818621e+003;4.342949e-002
1.820549e+003;4.332696e-002
1.822478e+003;4.318988e-002
1.824406e+003;4.284332e-002
1.826335e+003;4.272098e-002
1.828264e+003;4.242707e-002
1.830192e+003;4.220949e-002
1.832121e+003;4.242352e-002
1.834049e+003;4.255302e-002
1.835978e+003;4.250676e-002
1.837906e+003;4.227690e-002
1.839835e+003;4.205728e-002
1.841763e+003;4.180953e-002
1.843692e+003;4.140345e-002
1.845620e+003;4.168274e-002
1.847549e+003;4.208177e-002
1.849478e+003;4.209178e-002
1.851406e+003;4.188659e-002
1.853335e+003;4.175492e-002
1.855263e+003;4.172873e-002
1.857192e+003;4.163197e-002
1.859120e+003;4.164287e-002
1.861049e+003;4.163306e-002
1.862977e+003;4.156272e-002
1.864906e+003;4.158453e-002
1.866834e+003;4.139693e-002
1.868763e+003;4.119258e-002
1.870692e+003;4.127834e-002
1.872620e+003;4.130917e-002
1.874549e+003;4.121115e-002
1.876477e+003;4.123593e-002
1.878406e+003;4.132819e-002
1.880334e+003;4.134525e-002
1.882263e+003;4.130556e-002
1.884191e+003;4.141369e-002
1.886120e+003;4.128694e-002
1.888048e+003;4.104050e-002
1.889977e+003;4.109302e-002
1.891906e+003;4.139915e-002
1.893834e+003;4.142051e-002
1.895763e+003;4.122828e-002
1.897691e+003;4.111630e-002
1.899620e+003;4.116959e-002
1.901548e+003;4.131106e-002
1.903477e+003;4.130611e-002
1.905405e+003;4.122023e-002
1.907334e+003;4.125061e-002
1.909262e+003;4.119418e-002
1.911191e+003;4.126570e-002
1.913120e+003;4.131471e-002
1.915048e+003;4.135071e-002
1.916977e+003;4.125655e-002
1.918905e+003;4.132057e-002
1.920834e+003;4.145700e-002
1.922762e+003;4.147869e-002
1.924691e+003;4.162993e-002
1.926619e+003;4.173004e-002
1.928548e+003;4.187276e-002
1.930477e+003;4.206217e-002
1.932405e+003;4.195939e-002
1.934334e+003;4.203987e-002
1.936262e+003;4.227781e-002
1.938191e+003;4.240650e-002
1.940119e+003;4.234363e-002
1.942048e+003;4.231105e-002
1.943976e+003;4.268124e-002
1.945905e+003;4.289909e-002
1.947833e+003;4.302584e-002
1.949762e+003;4.300762e-002
1.951691e+003;4.293106e-002
1.953619e+003;4.312298e-002
1.955548e+003;4.332905e-002
1.957476e+003;4.334699e-002
1.959405e+003;4.349475e-002
1.961333e+003;4.377728e-002
1.963262e+003;4.373749e-002
1.965190e+003;4.364621e-002
1.967119e+003;4.357532e-002
1.969047e+003;4.359848e-002
1.970976e+003;4.378260e-002
1.972905e+003;4.380272e-002
1.974833e+003;4.366167e-002
1.976762e+003;4.369373e-002
1.978690e+003;4.383787e-002
1.980619e+003;4.392023e-002
1.982547e+003;4.396877e-002
1.984476e+003;4.404915e-002
1.986404e+003;4.403555e-002
1.988333e+003;4.426321e-002
1.990261e+003;4.451597e-002
1.992190e+003;4.462123e-002
1.994119e+003;4.476295e-002
1.996047e+003;4.477864e-002
1.997976e+003;4.476247e-002
1.999904e+003;4.475068e-002
2.001833e+003;4.490494e-002
2.003761e+003;4.495686e-002
2.005690e+003;4.489686e-002
2.007618e+003;4.519351e-002
2.009547e+003;4.534436e-002
2.011476e+003;4.532604e-002
2.013404e+003;4.536716e-002
2.015333e+003;4.568508e-002
2.017261e+003;4.589837e-002
2.019190e+003;4.605488e-002
2.021118e+003;4.637868e-002
2.023047e+003;4.652533e-002
2.024975e+003;4.663562e-002
2.026904e+003;4.680502e-002
2.028833e+003;4.694406e-002
2.030761e+003;4.700955e-002
2.032690e+003;4.697053e-002
2.034618e+003;4.712026e-002
2.036547e+003;4.734770e-002
2.038475e+003;4.751468e-002
2.040404e+003;4.757020e-002
2.042332e+003;4.767362e-002
2.044261e+003;4.775838e-002
2.046189e+003;4.784235e-002
2.048118e+003;4.783528e-002
2.050047e+003;4.772842e-002
2.051975e+003;4.762008e-002
2.053904e+003;4.771947e-002
2.055832e+003;4.794442e-002
2.057761e+003;4.791686e-002
2.059689e+003;4.777551e-002
2.061618e+003;4.770904e-002
2.063546e+003;4.769226e-002
2.065475e+003;4.761568e-002
2.067404e+003;4.757512e-002
2.069332e+003;4.763376e-002
2.071260e+003;4.754736e-002
2.073189e+003;4.764640e-002
2.075118e+003;4.779552e-002
2.077046e+003;4.783502e-002
2.078975e+003;4.774237e-002
2.080903e+003;4.767902e-002
2.082832e+003;4.772602e-002
2.084760e+003;4.784453e-002
2.086689e+003;4.784708e-002
2.088617e+003;4.783569e-002
2.090546e+003;4.760706e-002
2.092475e+003;4.770198e-002
2.094403e+003;4.807883e-002
2.096332e+003;4.807528e-002
2.098260e+003;4.783373e-002
2.100189e+003;4.769122e-002
2.102117e+003;4.786628e-002
2.104046e+003;4.805081e-002
2.105974e+003;4.797846e-002
2.107903e+003;4.794350e-002
2.109832e+003;4.826660e-002
2.111760e+003;4.859032e-002
2.113688e+003;4.862089e-002
2.115617e+003;4.843534e-002
2.117546e+003;4.844782e-002
2.119474e+003;4.856627e-002
2.121403e+003;4.854348e-002
2.123331e+003;4.853563e-002
2.125260e+003;4.878076e-002
2.127188e+003;4.888502e-002
2.129117e+003;4.899787e-002
2.131045e+003;4.903701e-002
2.132974e+003;4.900125e-002
2.134903e+003;4.880270e-002
2.136831e+003;4.861033e-002
2.138760e+003;4.869172e-002
2.140688e+003;4.878405e-002
2.142617e+003;4.866911e-002
2.144545e+003;4.850521e-002
2.146474e+003;4.852222e-002
2.148402e+003;4.855760e-002
2.150331e+003;4.842930e-002
2.152260e+003;4.831234e-002
2.154188e+003;4.828564e-002
2.156117e+003;4.836789e-002
2.158045e+003;4.819659e-002
2.159974e+003;4.783373e-002
2.161902e+003;4.777011e-002
2.163831e+003;4.793033e-002
2.165759e+003;4.785729e-002
2.167688e+003;4.748078e-002
2.169616e+003;4.733514e-002
2.171545e+003;4.719091e-002
2.173474e+003;4.692475e-002
2.175402e+003;4.676516e-002
2.177331e+003;4.650693e-002
2.179259e+003;4.640538e-002
2.181188e+003;4.624469e-002
2.183116e+003;4.600054e-002
2.185045e+003;4.610226e-002
2.186973e+003;4.606302e-002
2.188902e+003;4.578573e-002
2.190831e+003;4.576297e-002
2.192759e+003;4.584998e-002
2.194688e+003;4.562155e-002
2.196616e+003;4.580620e-002
2.198545e+003;4.592245e-002
2.200473e+003;4.564710e-002
2.202402e+003;4.586280e-002
2.204330e+003;4.590938e-002
2.206259e+003;4.558571e-002
2.208188e+003;4.543628e-002
2.210116e+003;4.551450e-002
2.212044e+003;4.570492e-002
2.213973e+003;4.585370e-002
2.215902e+003;4.577730e-002
2.217830e+003;4.578706e-002
2.219759e+003;4.589808e-002
2.221687e+003;4.577181e-002
2.223616e+003;4.573927e-002
2.225544e+003;4.596032e-002
2.227473e+003;4.614316e-002
2.229401e+003;4.603937e-002
2.231330e+003;4.594982e-002
2.233259e+003;4.610134e-002
2.235187e+003;4.606048e-002
2.237116e+003;4.605598e-002
2.239044e+003;4.609371e-002
2.240973e+003;4.603119e-002
2.242901e+003;4.599395e-002
2.244830e+003;4.581493e-002
2.246758e+003;4.559476e-002
2.248687e+003;4.577984e-002
2.250615e+003;4.619770e-002
2.252544e+003;4.637153e-002
2.254473e+003;4.624804e-002
2.256401e+003;4.608092e-002
2.258330e+003;4.581069e-002
2.260258e+003;4.555836e-002
2.262187e+003;4.559067e-002
2.264115e+003;4.551734e-002
2.266044e+003;4.552208e-002
2.267972e+003;4.540498e-002
2.269901e+003;4.526212e-002
2.271830e+003;4.537503e-002
2.273758e+003;4.526882e-002
2.275687e+003;4.512171e-002
2.277615e+003;4.511285e-002
2.279544e+003;4.485167e-002
2.281472e+003;4.448187e-002
2.283401e+003;4.455477e-002
2.285329e+003;4.491431e-002
2.287258e+003;4.504080e-002
2.289187e+003;4.497182e-002
2.291115e+003;4.475351e-002
2.293043e+003;4.462659e-002
2.294972e+003;4.441378e-002
2.296901e+003;4.438486e-002
2.298829e+003;4.444119e-002
2.300758e+003;4.439124e-002
2.302686e+003;4.442516e-002
2.304615e+003;4.463625e-002
2.306543e+003;4.460096e-002
2.308472e+003;4.433590e-002
2.310400e+003;4.450158e-002
2.312329e+003;4.465281e-002
2.314258e+003;4.464010e-002
2.316186e+003;4.455877e-002
2.318115e+003;4.462821e-002
2.320043e+003;4.460522e-002
2.321972e+003;4.447287e-002
2.323900e+003;4.464565e-002
2.325829e+003;4.483227e-002
2.327757e+003;4.462424e-002
2.329686e+003;4.446039e-002
2.331615e+003;4.455286e-002
2.333543e+003;4.446010e-002
2.335472e+003;4.447320e-002
2.337400e+003;4.473985e-002
2.339329e+003;4.495528e-002
2.341257e+003;4.512947e-002
2.343186e+003;4.504882e-002
2.345114e+003;4.499740e-002
2.347043e+003;4.534064e-002
2.348971e+003;4.581850e-002
2.350900e+003;4.599863e-002
2.352829e+003;4.597910e-002
2.354757e+003;4.593428e-002
2.356686e+003;4.601104e-002
2.358614e+003;4.608070e-002
2.360543e+003;4.599056e-002
2.362471e+003;4.591063e-002
2.364400e+003;4.600198e-002
2.366328e+003;4.621240e-002
2.368257e+003;4.642193e-002
2.370186e+003;4.633647e-002
2.372114e+003;4.630919e-002
2.374042e+003;4.666982e-002
2.375971e+003;4.695779e-002
2.377900e+003;4.706084e-002
2.379828e+003;4.727152e-002
2.381757e+003;4.745365e-002
2.383685e+003;4.775080e-002
2.385614e+003;4.796707e-002
2.387542e+003;4.787645e-002
2.389471e+003;4.791101e-002
2.391399e+003;4.811581e-002
2.393328e+003;4.820825e-002
2.395257e+003;4.828793e-002
2.397185e+003;4.852825e-002
2.399114e+003;4.859651e-002
2.401042e+003;4.844086e-002
2.402971e+003;4.852032e-002
2.404899e+003;4.887682e-002
2.406828e+003;4.901315e-002
2.408756e+003;4.892841e-002
2.410685e+003;4.931972e-002
2.412614e+003;4.951880e-002
2.414542e+003;4.940544e-002
2.416471e+003;4.930465e-002
2.418399e+003;4.940080e-002
2.420328e+003;4.976222e-002
2.422256e+003;4.996901e-002
2.424185e+003;5.009397e-002
2.426113e+003;5.055144e-002
2.428042e+003;5.082996e-002
2.429970e+003;5.058200e-002
2.431899e+003;5.033629e-002
2.433828e+003;5.070077e-002
2.435756e+003;5.099728e-002
2.437685e+003;5.087619e-002
2.439613e+003;5.091799e-002
2.441542e+003;5.112194e-002
2.443470e+003;5.123675e-002
2.445399e+003;5.131886e-002
2.447327e+003;5.129712e-002
2.449256e+003;5.148252e-002
2.451185e+003;5.168863e-002
2.453113e+003;5.169509e-002
2.455042e+003;5.164702e-002
2.456970e+003;5.156739e-002
2.458899e+003;5.179599e-002
2.460827e+003;5.223111e-002
2.462756e+003;5.245373e-002
2.464684e+003;5.243878e-002
2.466613e+003;5.227166e-002
2.468542e+003;5.210871e-002
2.470470e+003;5.208514e-002
2.472398e+003;5.251890e-002
2.474327e+003;5.278347e-002
2.476256e+003;5.283222e-002
2.478184e+003;5.318988e-002
2.480113e+003;5.350841e-002
2.482041e+003;5.342012e-002
2.483970e+003;5.325386e-002
2.485898e+003;5.317989e-002
2.487827e+003;5.337374e-002
2.489755e+003;5.382507e-002
2.491684e+003;5.400240e-002
2.493613e+003;5.370285e-002
2.495541e+003;5.379248e-002
2.497470e+003;5.429625e-002
2.499398e+003;5.447058e-002
2.501327e+003;5.440327e-002
2.503255e+003;5.448654e-002
2.505184e+003;5.480324e-002
2.507112e+003;5.484628e-002
2.509041e+003;5.484353e-002
2.510969e+003;5.497472e-002
2.512898e+003;5.530043e-002
2.514827e+003;5.549440e-002
2.516755e+003;5.534958e-002
2.518684e+003;5.539091e-002
2.520612e+003;5.557174e-002
2.522541e+003;5.550219e-002
2.524469e+003;5.546048e-002
2.526398e+003;5.552855e-002
2.528326e+003;5.560409e-002
2.530255e+003;5.562966e-002
2.532184e+003;5.583809e-002
2.534112e+003;5.615287e-002
2.536041e+003;5.625209e-002
2.537969e+003;5.616735e-002
2.539898e+003;5.586345e-002
2.541826e+003;5.568307e-002
2.543755e+003;5.588305e-002
2.545683e+003;5.605918e-002
2.547612e+003;5.606009e-002
2.549541e+003;5.611543e-002
2.551469e+003;5.623803e-002
2.553397e+003;5.645977e-002
2.555326e+003;5.655193e-002
2.557255e+003;5.643781e-002
2.559183e+003;5.649977e-002
2.561112e+003;5.643068e-002
2.563040e+003;5.636356e-002
2.564969e+003;5.642955e-002
2.566897e+003;5.647245e-002
2.568826e+003;5.672663e-002
2.570754e+003;5.675627e-002
2.572683e+003;5.665736e-002
2.574612e+003;5.670930e-002
2.576540e+003;5.686949e-002
2.578469e+003;5.711068e-002
2.580397e+003;5.707807e-002
2.582326e+003;5.689079e-002
2.584254e+003;5.671331e-002
2.586183e+003;5.679396e-002
2.588111e+003;5.720834e-002
2.590040e+003;5.749885e-002
2.591969e+003;5.744881e-002
2.593897e+003;5.755623e-002
2.595826e+003;5.768885e-002
2.597754e+003;5.757511e-002
2.599683e+003;5.756002e-002
2.601611e+003;5.783051e-002
2.603540e+003;5.814117e-002
2.605468e+003;5.815125e-002
2.607397e+003;5.814704e-002
2.609325e+003;5.815367e-002
2.611254e+003;5.805788e-002
2.613183e+003;5.816424e-002
2.615111e+003;5.845694e-002
2.617040e+003;5.883190e-002
2.618968e+003;5.909104e-002
2.620897e+003;5.892104e-002
2.622825e+003;5.882773e-002
2.624754e+003;5.887280e-002
2.626682e+003;5.887497e-002
2.628611e+003;5.903417e-002
2.630540e+003;5.929768e-002
2.632468e+003;5.926176e-002
2.634396e+003;5.927167e-002
2.636325e+003;5.963403e-002
2.638254e+003;5.982640e-002
2.640182e+003;5.974104e-002
2.642111e+003;5.981157e-002
2.644039e+003;5.995774e-002
2.645968e+003;5.995146e-002
2.647896e+003;6.005037e-002
2.649825e+003;6.041624e-002
2.651753e+003;6.064195e-002
2.653682e+003;6.063666e-002
2.655611e+003;6.073142e-002
2.657539e+003;6.074464e-002
2.659468e+003;6.052637e-002
2.661396e+003;6.044586e-002
2.663325e+003;6.072586e-002
2.665253e+003;6.088125e-002
2.667182e+003;6.092421e-002
2.669110e+003;6.112559e-002
2.671039e+003;6.154802e-002
2.672968e+003;6.162900e-002
2.674896e+003;6.159743e-002
2.676825e+003;6.193621e-002
2.678753e+003;6.201761e-002
2.680682e+003;6.185260e-002
2.682610e+003;6.171956e-002
2.684539e+003;6.190010e-002
2.686467e+003;6.226630e-002
2.688396e+003;6.245996e-002
2.690324e+003;6.232967e-002
2.692253e+003;6.236157e-002
2.694182e+003;6.270918e-002
2.696110e+003;6.293674e-002
2.698039e+003;6.320600e-002
2.699967e+003;6.355543e-002
2.701896e+003;6.335941e-002
2.703824e+003;6.324890e-002
2.705753e+003;6.357036e-002
2.707681e+003;6.367313e-002
2.709610e+003;6.383768e-002
2.711539e+003;6.394818e-002
2.713467e+003;6.403431e-002
2.715396e+003;6.420540e-002
2.717324e+003;6.423598e-002
2.719253e+003;6.428692e-002
2.721181e+003;6.440646e-002
2.723110e+003;6.451081e-002
2.725038e+003;6.489220e-002
2.726967e+003;6.517161e-002
2.728896e+003;6.498823e-002
2.730824e+003;6.489916e-002
2.732752e+003;6.491005e-002
2.734681e+003;6.506344e-002
2.736610e+003;6.518273e-002
2.738538e+003;6.514712e-002
2.740467e+003;6.514000e-002
2.742395e+003;6.518877e-002
2.744324e+003;6.492201e-002
2.746252e+003;6.481125e-002
2.748181e+003;6.496800e-002
2.750109e+003;6.505035e-002
2.752038e+003;6.515951e-002
2.753967e+003;6.530903e-002
2.755895e+003;6.535167e-002
2.757824e+003;6.554871e-002
2.759752e+003;6.582049e-002
2.761681e+003;6.619403e-002
2.763609e+003;6.657453e-002
2.765538e+003;6.641191e-002
2.767466e+003;6.627457e-002
2.769395e+003;6.628399e-002
2.771323e+003;6.626322e-002
2.773252e+003;6.633995e-002
2.775181e+003;6.660728e-002
2.777109e+003;6.684694e-002
2.779038e+003;6.673995e-002
2.780966e+003;6.708864e-002
2.782895e+003;6.753457e-002
2.784823e+003;6.764416e-002
2.786752e+003;6.767138e-002
2.788680e+003;6.776424e-002
2.790609e+003;6.776401e-002
2.792538e+003;6.794651e-002
2.794466e+003;6.843644e-002
2.796395e+003;6.872071e-002
2.798323e+003;6.872649e-002
2.800252e+003;6.887770e-002
2.802180e+003;6.908821e-002
2.804109e+003;6.939999e-002
2.806037e+003;7.001096e-002
2.807966e+003;7.081643e-002
2.809895e+003;7.104270e-002
2.811823e+003;7.102319e-002
2.813751e+003;7.116759e-002
2.815680e+003;7.141802e-002
2.817609e+003;7.204045e-002
2.819537e+003;7.244071e-002
2.821466e+003;7.258374e-002
2.823394e+003;7.295711e-002
2.825323e+003;7.351600e-002
2.827251e+003;7.378040e-002
2.829180e+003;7.414407e-002
2.831108e+003;7.461820e-002
2.833037e+003;7.536246e-002
2.834966e+003;7.631363e-002
2.836894e+003;7.729696e-002
2.838823e+003;7.822540e-002
2.840751e+003;7.943892e-002
2.842680e+003;8.180961e-002
2.844608e+003;8.517069e-002
2.846537e+003;8.907195e-002
2.848465e+003;9.276212e-002
2.850394e+003;9.364651e-002
2.852323e+003;9.178869e-002
2.854251e+003;8.927806e-002
2.856180e+003;8.738568e-002
2.858108e+003;8.623674e-002
2.860037e+003;8.549315e-002
2.861965e+003;8.545724e-002
2.863894e+003;8.613414e-002
2.865822e+003;8.682092e-002
2.867751e+003;8.697562e-002
2.869679e+003;8.742665e-002
2.871608e+003;8.783616e-002
2.873536e+003;8.796947e-002
2.875465e+003;8.839395e-002
2.877394e+003;8.833908e-002
2.879322e+003;8.862181e-002
2.881251e+003;8.903547e-002
2.883179e+003;8.909810e-002
2.885108e+003;8.928226e-002
2.887036e+003;9.025722e-002
2.888965e+003;9.130232e-002
2.890893e+003;9.150979e-002
2.892822e+003;9.173352e-002
2.894750e+003;9.243356e-002
2.896679e+003;9.326302e-002
2.898608e+003;9.359295e-002
2.900536e+003;9.384358e-002
2.902465e+003;9.454110e-002
2.904393e+003;9.471522e-002
2.906322e+003;9.487526e-002
2.908250e+003;9.544746e-002
2.910179e+003;9.655103e-002
2.912107e+003;9.875780e-002
2.914036e+003;1.017986e-001
2.915965e+003;1.033669e-001
2.917893e+003;1.027168e-001
2.919822e+003;1.011187e-001
2.921750e+003;9.845681e-002
2.923679e+003;9.537898e-002
2.925607e+003;9.244303e-002
2.927536e+003;8.956796e-002
2.929464e+003;8.748902e-002
2.931393e+003;8.577391e-002
2.933322e+003;8.424432e-002
2.935250e+003;8.293445e-002
2.937178e+003;8.185890e-002
2.939107e+003;8.088255e-002
2.941036e+003;8.007789e-002
2.942964e+003;8.002686e-002
2.944893e+003;7.972515e-002
2.946821e+003;7.925559e-002
2.948750e+003;7.857868e-002
2.950678e+003;7.790072e-002
2.952607e+003;7.779369e-002
2.954535e+003;7.766145e-002
2.956464e+003;7.773396e-002
2.958393e+003;7.762001e-002
2.960321e+003;7.705040e-002
2.962250e+003;7.659918e-002
2.964178e+003;7.649058e-002
2.966107e+003;7.617402e-002
2.968035e+003;7.548620e-002
2.969964e+003;7.465605e-002
2.971892e+003;7.356306e-002
2.973821e+003;7.245398e-002
2.975750e+003;7.159413e-002
2.977678e+003;7.084779e-002
2.979607e+003;6.991555e-002
2.981535e+003;6.915119e-002
2.983464e+003;6.866591e-002
2.985392e+003;6.819102e-002
2.987321e+003;6.767552e-002
2.989249e+003;6.723440e-002
2.991178e+003;6.678639e-002
2.993106e+003;6.642454e-002
2.995035e+003;6.632799e-002
2.996964e+003;6.635995e-002
2.998892e+003;6.588758e-002
3.000821e+003;6.528165e-002
3.002749e+003;6.511155e-002
3.004678e+003;6.529528e-002
3.006606e+003;6.565796e-002
3.008535e+003;6.592267e-002
3.010463e+003;6.588924e-002
3.012392e+003;6.579546e-002
3.014321e+003;6.590366e-002
3.016249e+003;6.584624e-002
3.018177e+003;6.564563e-002
3.020106e+003;6.607075e-002
3.022035e+003;6.658928e-002
3.023963e+003;6.668400e-002
3.025892e+003;6.677657e-002
3.027820e+003;6.681213e-002
3.029749e+003;6.683806e-002
3.031677e+003;6.705678e-002
3.033606e+003;6.736822e-002
3.035534e+003;6.744705e-002
3.037463e+003;6.773660e-002
3.039392e+003;6.803102e-002
3.041320e+003;6.819354e-002
3.043249e+003;6.829803e-002
3.045177e+003;6.849355e-002
3.047106e+003;6.887238e-002
3.049034e+003;6.909147e-002
3.050963e+003;6.889339e-002
3.052891e+003;6.887646e-002
3.054820e+003;6.920807e-002
3.056749e+003;6.951026e-002
3.058677e+003;6.974714e-002
3.060606e+003;7.004686e-002
3.062534e+003;7.032687e-002
3.064463e+003;7.027312e-002
3.066391e+003;7.023471e-002
3.068320e+003;7.044883e-002
3.070248e+003;7.063133e-002
3.072177e+003;7.076159e-002
3.074105e+003;7.114152e-002
3.076034e+003;7.162090e-002
3.077963e+003;7.189591e-002
3.079891e+003;7.203626e-002
3.081820e+003;7.233213e-002
3.083748e+003;7.247701e-002
3.085677e+003;7.247689e-002
3.087605e+003;7.255732e-002
3.089534e+003;7.274504e-002
3.091462e+003;7.301670e-002
3.093391e+003;7.354496e-002
3.095320e+003;7.398241e-002
3.097248e+003;7.376084e-002
3.099177e+003;7.355557e-002
3.101105e+003;7.350796e-002
3.103034e+003;7.355890e-002
3.104962e+003;7.369555e-002
3.106891e+003;7.404359e-002
3.108819e+003;7.454003e-002
3.110748e+003;7.518218e-002
3.112677e+003;7.549889e-002
3.114605e+003;7.578576e-002
3.116533e+003;7.600852e-002
3.118462e+003;7.573795e-002
3.120391e+003;7.575700e-002
3.122319e+003;7.596727e-002
3.124248e+003;7.610603e-002
3.126176e+003;7.678815e-002
3.128105e+003;7.707065e-002
3.130033e+003;7.704803e-002
3.131962e+003;7.745800e-002
3.133890e+003;7.801273e-002
3.135819e+003;7.824814e-002
3.137748e+003;7.824135e-002
3.139676e+003;7.828432e-002
3.141605e+003;7.848538e-002
3.143533e+003;7.875179e-002
3.145462e+003;7.937957e-002
3.147390e+003;7.985239e-002
3.149319e+003;8.000682e-002
3.151247e+003;8.017384e-002
3.153176e+003;8.051211e-002
3.155104e+003;8.102456e-002
3.157033e+003;8.114237e-002
3.158962e+003;8.105934e-002
3.160890e+003;8.149910e-002
3.162819e+003;8.217971e-002
3.164747e+003;8.270125e-002
3.166676e+003;8.309245e-002
3.168604e+003;8.334926e-002
3.170533e+003;8.354842e-002
3.172461e+003;8.383913e-002
3.174390e+003;8.439793e-002
3.176319e+003;8.492960e-002
3.178247e+003;8.493166e-002
3.180176e+003;8.514626e-002
3.182104e+003;8.595637e-002
3.184033e+003;8.672738e-002
3.185961e+003;8.683796e-002
3.187890e+003;8.690834e-002
3.189818e+003;8.753028e-002
3.191747e+003;8.792832e-002
3.193676e+003;8.811450e-002
3.195604e+003;8.859061e-002
3.197532e+003;8.913431e-002
3.199461e+003;8.960062e-002
3.201390e+003;9.039580e-002
3.203318e+003;9.138758e-002
3.205247e+003;9.173921e-002
3.207175e+003;9.178832e-002
3.209104e+003;9.207244e-002
3.211032e+003;9.294578e-002
3.212961e+003;9.382935e-002
3.214889e+003;9.404823e-002
3.216818e+003;9.414625e-002
3.218747e+003;9.453843e-002
3.220675e+003;9.507854e-002
3.222604e+003;9.581669e-002
3.224532e+003;9.639993e-002
3.226461e+003;9.672893e-002
3.228389e+003;9.712096e-002
3.230318e+003;9.753475e-002
3.232246e+003;9.845365e-002
3.234175e+003;9.854573e-002
3.236104e+003;9.878576e-002
3.238032e+003;1.002064e-001
3.239961e+003;1.010288e-001
3.241889e+003;1.018337e-001
3.243818e+003;1.028279e-001
3.245746e+003;1.032607e-001
3.247675e+003;1.039713e-001
3.249603e+003;1.050881e-001
3.251532e+003;1.059662e-001
3.253460e+003;1.065417e-001
3.255389e+003;1.071133e-001
3.257318e+003;1.079294e-001
3.259246e+003;1.088209e-001
3.261175e+003;1.092889e-001
3.263103e+003;1.098068e-001
3.265032e+003;1.103538e-001
3.266960e+003;1.109231e-001
3.268889e+003;1.117310e-001
3.270817e+003;1.125024e-001
3.272746e+003;1.134190e-001
3.274675e+003;1.138512e-001
3.276603e+003;1.134919e-001
3.278531e+003;1.130438e-001
3.280460e+003;1.131736e-001
3.282389e+003;1.137051e-001
3.284317e+003;1.140038e-001
3.286246e+003;1.144542e-001
3.288174e+003;1.150784e-001
3.290103e+003;1.150141e-001
3.292031e+003;1.145841e-001
3.293960e+003;1.140648e-001
3.295888e+003;1.141257e-001
3.297817e+003;1.141825e-001
3.299746e+003;1.140819e-001
3.301674e+003;1.140836e-001
3.303603e+003;1.143491e-001
3.305531e+003;1.142171e-001
3.307460e+003;1.139000e-001
3.309388e+003;1.137300e-001
3.311317e+003;1.137924e-001
3.313245e+003;1.135667e-001
3.315174e+003;1.134023e-001
3.317103e+003;1.134774e-001
3.319031e+003;1.137861e-001
3.320960e+003;1.145669e-001
3.322888e+003;1.148926e-001
3.324817e+003;1.149653e-001
3.326745e+003;1.151187e-001
3.328674e+003;1.149182e-001
3.330602e+003;1.151608e-001
3.332531e+003;1.159004e-001
3.334459e+003;1.158087e-001
3.336388e+003;1.152495e-001
3.338317e+003;1.146736e-001
3.340245e+003;1.138237e-001
3.342174e+003;1.132698e-001
3.344102e+003;1.126167e-001
3.346031e+003;1.115734e-001
3.347959e+003;1.110434e-001
3.349888e+003;1.108363e-001
3.351816e+003;1.103799e-001
3.353745e+003;1.098163e-001
3.355674e+003;1.089035e-001
3.357602e+003;1.077422e-001
3.359531e+003;1.065938e-001
3.361459e+003;1.055604e-001
3.363388e+003;1.048906e-001
3.365316e+003;1.044599e-001
3.367245e+003;1.039479e-001
3.369173e+003;1.031680e-001
3.371102e+003;1.022255e-001
3.373031e+003;1.014140e-001
3.374959e+003;1.010273e-001
3.376887e+003;1.008871e-001
3.378816e+003;1.004853e-001
3.380745e+003;9.985178e-002
3.382673e+003;9.953948e-002
3.384602e+003;9.903333e-002
3.386530e+003;9.819287e-002
3.388459e+003;9.747780e-002
3.390387e+003;9.735287e-002
3.392316e+003;9.735361e-002
3.394244e+003;9.655848e-002
3.396173e+003;9.591052e-002
3.398102e+003;9.543441e-002
3.400030e+003;9.509290e-002
3.401959e+003;9.522106e-002
3.403887e+003;9.490915e-002
3.405816e+003;9.417259e-002
3.407744e+003;9.358395e-002
3.409673e+003;9.323616e-002
3.411601e+003;9.255393e-002
3.413530e+003;9.154046e-002
3.415458e+003;9.087911e-002
3.417387e+003;9.053965e-002
3.419316e+003;8.997502e-002
3.421244e+003;8.936289e-002
3.423173e+003;8.856481e-002
3.425101e+003;8.755334e-002
3.427030e+003;8.650399e-002
3.428958e+003;8.574343e-002
3.430887e+003;8.539424e-002
3.432815e+003;8.503340e-002
3.434744e+003;8.445185e-002
3.436673e+003;8.367037e-002
3.438601e+003;8.314589e-002
3.440530e+003;8.285043e-002
3.442458e+003;8.259512e-002
3.444387e+003;8.197998e-002
3.446315e+003;8.105618e-002
3.448244e+003;8.025227e-002
3.450172e+003;7.981230e-002
3.452101e+003;7.959383e-002
3.454030e+003;7.923627e-002
3.455958e+003;7.878059e-002
3.457886e+003;7.823631e-002
3.459815e+003;7.758855e-002
3.461744e+003;7.674216e-002
3.463672e+003;7.566782e-002
3.465601e+003;7.513507e-002
3.467529e+003;7.535474e-002
3.469458e+003;7.457016e-002
3.471386e+003;7.336736e-002
3.473315e+003;7.283645e-002
3.475243e+003;7.276867e-002
3.477172e+003;7.215088e-002
3.479101e+003;7.113332e-002
3.481029e+003;7.070307e-002
3.482958e+003;7.020102e-002
3.484886e+003;6.928587e-002
3.486815e+003;6.905364e-002
3.488743e+003;6.901370e-002
3.490672e+003;6.827108e-002
3.492600e+003;6.767518e-002
3.494529e+003;6.738552e-002
3.496458e+003;6.739408e-002
3.498386e+003;6.715690e-002
3.500315e+003;6.639531e-002
3.502243e+003;6.542138e-002
3.504172e+003;6.494941e-002
3.506100e+003;6.472117e-002
3.508029e+003;6.458901e-002
3.509957e+003;6.443790e-002
3.511886e+003;6.389222e-002
3.513814e+003;6.330497e-002
3.515743e+003;6.226848e-002
3.517672e+003;6.119677e-002
3.519600e+003;6.069476e-002
3.521529e+003;6.078138e-002
3.523457e+003;6.056115e-002
3.525386e+003;5.978123e-002
3.527314e+003;5.990155e-002
3.529243e+003;6.025176e-002
3.531171e+003;6.002640e-002
3.533100e+003;5.954311e-002
3.535029e+003;5.849997e-002
3.536957e+003;5.786136e-002
3.538885e+003;5.797945e-002
3.540814e+003;5.797574e-002
3.542743e+003;5.689650e-002
3.544671e+003;5.571983e-002
3.546600e+003;5.543887e-002
3.548528e+003;5.541425e-002
3.550457e+003;5.534559e-002
3.552385e+003;5.514894e-002
3.554314e+003;5.511091e-002
3.556242e+003;5.491110e-002
3.558171e+003;5.417375e-002
3.560100e+003;5.349042e-002
3.562028e+003;5.311671e-002
3.563957e+003;5.267655e-002
3.565885e+003;5.196199e-002
3.567814e+003;5.126095e-002
3.569742e+003;5.113371e-002
3.571671e+003;5.123396e-002
3.573599e+003;5.154978e-002
3.575528e+003;5.103566e-002
3.577457e+003;4.982405e-002
3.579385e+003;4.929459e-002
3.581314e+003;4.920289e-002
3.583242e+003;4.923814e-002
3.585171e+003;4.929166e-002
3.587099e+003;4.921161e-002
3.589028e+003;4.954918e-002
3.590956e+003;4.947988e-002
3.592885e+003;4.846701e-002
3.594813e+003;4.735587e-002
3.596742e+003;4.732550e-002
3.598671e+003;4.778535e-002
3.600599e+003;4.744463e-002
3.602528e+003;4.693741e-002
3.604456e+003;4.629352e-002
3.606385e+003;4.538677e-002
3.608313e+003;4.510395e-002
3.610242e+003;4.506271e-002
3.612170e+003;4.486901e-002
3.614099e+003;4.494099e-002
3.616028e+003;4.440027e-002
3.617956e+003;4.353309e-002
3.619885e+003;4.305131e-002
3.621813e+003;4.312573e-002
3.623742e+003;4.312931e-002
3.625670e+003;4.240124e-002
3.627599e+003;4.095107e-002
3.629527e+003;4.043199e-002
3.631456e+003;4.063816e-002
3.633385e+003;4.015976e-002
3.635313e+003;4.006709e-002
3.637241e+003;3.995715e-002
3.639170e+003;3.916829e-002
3.641099e+003;3.857478e-002
3.643027e+003;3.849183e-002
3.644956e+003;3.753443e-002
3.646884e+003;3.582435e-002
3.648813e+003;3.531301e-002
3.650741e+003;3.580532e-002
3.652670e+003;3.609453e-002
3.654598e+003;3.546748e-002
3.656527e+003;3.495181e-002
3.658456e+003;3.468429e-002
3.660384e+003;3.416866e-002
3.662313e+003;3.327471e-002
3.664241e+003;3.326205e-002
3.666170e+003;3.316805e-002
3.668098e+003;3.222656e-002
3.670027e+003;3.135676e-002
3.671955e+003;3.108513e-002
3.673884e+003;3.044597e-002
3.675813e+003;3.030152e-002
3.677741e+003;3.083154e-002
3.679669e+003;3.089429e-002
3.681598e+003;3.084598e-002
3.683527e+003;3.062762e-002
3.685455e+003;2.981236e-002
3.687384e+003;2.871580e-002
3.689312e+003;2.886681e-002
3.691241e+003;2.899062e-002
3.693169e+003;2.867903e-002
3.695098e+003;2.843911e-002
3.697026e+003;2.883851e-002
3.698955e+003;2.847003e-002
3.700884e+003;2.758914e-002
3.702812e+003;2.802713e-002
3.704741e+003;2.902576e-002
3.706669e+003;2.875152e-002
3.708598e+003;2.801932e-002
3.710526e+003;2.710559e-002
3.712455e+003;2.675355e-002
3.714383e+003;2.743293e-002
3.716312e+003;2.754917e-002
3.718240e+003;2.755383e-002
3.720169e+003;2.743844e-002
3.722098e+003;2.760450e-002
3.724026e+003;2.771262e-002
3.725955e+003;2.715494e-002
3.727883e+003;2.697896e-002
3.729812e+003;2.667554e-002
3.731740e+003;2.576783e-002
3.733669e+003;2.496370e-002
3.735597e+003;2.474617e-002
3.737526e+003;2.583298e-002
3.739455e+003;2.586998e-002
3.741383e+003;2.481286e-002
3.743312e+003;2.378718e-002
3.745240e+003;2.431571e-002
3.747169e+003;2.453734e-002
3.749097e+003;2.447185e-002
3.751026e+003;2.527155e-002
3.752954e+003;2.555516e-002
3.754883e+003;2.597015e-002
3.756812e+003;2.651230e-002
3.758740e+003;2.627755e-002
3.760668e+003;2.549606e-002
3.762597e+003;2.606538e-002
3.764526e+003;2.678470e-002
3.766454e+003;2.696232e-002
3.768383e+003;2.627906e-002
3.770311e+003;2.579279e-002
3.772240e+003;2.593754e-002
3.774168e+003;2.582092e-002
3.776097e+003;2.608420e-002
3.778025e+003;2.692478e-002
3.779954e+003;2.730751e-002
3.781883e+003;2.680113e-002
3.783811e+003;2.656665e-002
3.785740e+003;2.664577e-002
3.787668e+003;2.714770e-002
3.789597e+003;2.716806e-002
3.791525e+003;2.650761e-002
3.793454e+003;2.654868e-002
3.795382e+003;2.656679e-002
3.797311e+003;2.654452e-002
3.799240e+003;2.589829e-002
3.801168e+003;2.547210e-002
3.803097e+003;2.613558e-002
3.805025e+003;2.656876e-002
3.806954e+003;2.616151e-002
3.808882e+003;2.569361e-002
3.810811e+003;2.624605e-002
3.812739e+003;2.678544e-002
3.814668e+003;2.639486e-002
3.816596e+003;2.635510e-002
3.818525e+003;2.641081e-002
3.820454e+003;2.607847e-002
3.822382e+003;2.643517e-002
3.824311e+003;2.664154e-002
3.826239e+003;2.659909e-002
3.828168e+003;2.728542e-002
3.830096e+003;2.734569e-002
3.832025e+003;2.691861e-002
3.833953e+003;2.669411e-002
3.835882e+003;2.609856e-002
3.837811e+003;2.569034e-002
3.839739e+003;2.644623e-002
3.841667e+003;2.678925e-002
3.843596e+003;2.682967e-002
3.845525e+003;2.714086e-002
3.847453e+003;2.676923e-002
3.849382e+003;2.584107e-002
3.851310e+003;2.509806e-002
3.853239e+003;2.493268e-002
3.855167e+003;2.592329e-002
3.857096e+003;2.633324e-002
3.859024e+003;2.652913e-002
3.860953e+003;2.689178e-002
3.862882e+003;2.640517e-002
3.864810e+003;2.581350e-002
3.866739e+003;2.671236e-002
3.868667e+003;2.714940e-002
3.870596e+003;2.733063e-002
3.872524e+003;2.766354e-002
3.874453e+003;2.758762e-002
3.876381e+003;2.765333e-002
3.878310e+003;2.786173e-002
3.880239e+003;2.787508e-002
3.882167e+003;2.788349e-002
3.884096e+003;2.787087e-002
3.886024e+003;2.819267e-002
3.887953e+003;2.861741e-002
3.889881e+003;2.867304e-002
3.891810e+003;2.782248e-002
3.893738e+003;2.729538e-002
3.895667e+003;2.826407e-002
3.897595e+003;2.877301e-002
3.899524e+003;2.845521e-002
3.901453e+003;2.816510e-002
3.903381e+003;2.789162e-002
3.905310e+003;2.848315e-002
3.907238e+003;2.966053e-002
3.909167e+003;3.021491e-002
3.911095e+003;3.009920e-002
3.913024e+003;2.926604e-002
3.914952e+003;2.840985e-002
3.916881e+003;2.886256e-002
3.918810e+003;2.951106e-002
3.920738e+003;2.960959e-002
3.922667e+003;2.985033e-002
3.924595e+003;3.023587e-002
3.926524e+003;3.097019e-002
3.928452e+003;3.076122e-002
3.930381e+003;3.058854e-002
3.932309e+003;3.011436e-002
3.934238e+003;2.931499e-002
3.936167e+003;2.977403e-002
3.938095e+003;3.027747e-002
3.940023e+003;3.005492e-002
3.941952e+003;2.967391e-002
3.943881e+003;2.971989e-002
3.945809e+003;3.044540e-002
3.947738e+003;3.054894e-002
3.949666e+003;3.065358e-002
3.951595e+003;3.066406e-002
3.953523e+003;3.044359e-002
3.955452e+003;3.048564e-002
3.957380e+003;3.038541e-002
3.959309e+003;3.055285e-002
3.961238e+003;3.077648e-002
3.963166e+003;3.062190e-002
3.965095e+003;3.111564e-002
3.967023e+003;3.118068e-002
3.968952e+003;3.080767e-002
3.970880e+003;3.067580e-002
3.972809e+003;3.070631e-002
3.974737e+003;3.079120e-002
3.976666e+003;3.114380e-002
3.978594e+003;3.180117e-002
3.980523e+003;3.205558e-002
3.982452e+003;3.215965e-002
3.984380e+003;3.168632e-002
3.986309e+003;3.060138e-002
3.988237e+003;3.011028e-002
3.990166e+003;3.020191e-002
3.992094e+003;3.088170e-002
3.994023e+003;3.165656e-002
3.995951e+003;3.137588e-002
3.997880e+003;3.084833e-002
3.999809e+003;3.117587e-002
4.001737e+003;0.000000e+000
