3.992094e+002;0.000000e+000
4.011380e+002;0.000000e+000
4.030665e+002;0.000000e+000
4.049951e+002;0.000000e+000
4.069236e+002;0.000000e+000
4.088522e+002;0.000000e+000
4.107807e+002;0.000000e+000
4.127093e+002;0.000000e+000
4.146378e+002;0.000000e+000
4.165664e+002;0.000000e+000
4.184949e+002;0.000000e+000
4.204235e+002;0.000000e+000
4.223520e+002;0.000000e+000
4.242806e+002;0.000000e+000
4.262091e+002;0.000000e+000
4.281377e+002;0.000000e+000
4.300662e+002;0.000000e+000
4.319948e+002;0.000000e+000
4.339233e+002;0.000000e+000
4.358519e+002;0.000000e+000
4.377804e+002;0.000000e+000
4.397090e+002;0.000000e+000
4.416375e+002;0.000000e+000
4.435660e+002;0.000000e+000
4.454946e+002;0.000000e+000
4.474232e+002;0.000000e+000
4.493517e+002;0.000000e+000
4.512802e+002;0.000000e+000
4.532088e+002;0.000000e+000
4.551373e+002;0.000000e+000
4.570659e+002;0.000000e+000
4.589944e+002;0.000000e+000
4.609230e+002;0.000000e+000
4.628515e+002;0.000000e+000
4.647801e+002;0.000000e+000
4.667086e+002;0.000000e+000
4.686372e+002;0.000000e+000
4.705657e+002;0.000000e+000
4.724943e+002;0.000000e+000
4.744228e+002;0.000000e+000
4.763513e+002;0.000000e+000
4.782799e+002;0.000000e+000
4.802085e+002;0.000000e+000
4.821370e+002;0.000000e+000
4.840656e+002;0.000000e+000
4.859941e+002;0.000000e+000
4.879226e+002;0.000000e+000
4.898512e+002;0.000000e+000
4.917798e+002;0.000000e+000
4.937083e+002;0.000000e+000
4.956368e+002;0.000000e+000
4.975654e+002;0.000000e+000
4.994939e+002;0.000000e+000
5.014225e+002;0.000000e+000
5.033510e+002;0.000000e+000
5.052796e+002;0.000000e+000
5.072081e+002;0.000000e+000
5.091367e+002;0.000000e+000
5.110652e+002;0.000000e+000
5.129938e+002;0.000000e+000
5.149223e+002;0.000000e+000
5.168509e+002;0.000000e+000
5.187794e+002;0.000000e+000
5.207079e+002;0.000000e+000
5.226365e+002;0.000000e+000
5.245651e+002;0.000000e+000
5.264936e+002;0.000000e+000
5.284222e+002;0.000000e+000
5.303507e+002;0.000000e+000
5.322792e+002;0.000000e+000
5.342078e+002;0.000000e+000
5.361364e+002;0.000000e+000
5.380649e+002;0.000000e+000
5.399935e+002;0.000000e+000
5.419220e+002;0.000000e+000
5.438505e+002;0.000000e+000
5.457791e+002;0.000000e+000
5.477076e+002;0.000000e+000
5.496362e+002;0.000000e+000
5.515648e+002;0.000000e+000
5.534933e+002;0.000000e+000
5.554218e+002;0.000000e+000
5.573504e+002;0.000000e+000
5.592789e+002;0.000000e+000
5.612075e+002;0.000000e+000
5.631360e+002;0.000000e+000
5.650646e+002;0.000000e+000
5.669931e+002;0.000000e+000
5.689217e+002;0.000000e+000
5.708502e+002;0.000000e+000
5.727787e+002;0.000000e+000
5.747073e+002;0.000000e+000
5.766359e+002;0.000000e+000
5.785644e+002;0.000000e+000
5.804930e+002;0.000000e+000
5.824215e+002;0.000000e+000
5.843500e+002;0.000000e+000
5.862786e+002;0.000000e+000
5.882072e+002;0.000000e+000
5.901357e+002;0.000000e+000
5.920643e+002;0.000000e+000
5.939928e+002;0.000000e+000
5.959213e+002;0.000000e+000
5.978499e+002;0.000000e+000
5.997784e+002;2.597063e-001
6.017070e+002;2.571289e-001
6.036355e+002;2.572896e-001
6.055641e+002;2.586709e-001
6.074926e+002;2.603242e-001
6.094211e+002;2.664050e-001
6.113497e+002;2.715227e-001
6.132783e+002;2.711903e-001
6.152068e+002;2.704565e-001
6.171354e+002;2.692446e-001
6.190639e+002;2.594129e-001
6.209924e+002;2.447675e-001
6.229210e+002;2.378599e-001
6.248495e+002;2.403679e-001
6.267781e+002;2.426158e-001
6.287067e+002;2.397517e-001
6.306352e+002;2.315803e-001
6.325637e+002;2.261432e-001
6.344923e+002;2.272118e-001
6.364208e+002;2.259691e-001
6.383494e+002;2.219629e-001
6.402780e+002;2.170194e-001
6.422065e+002;2.147360e-001
6.441350e+002;2.155055e-001
6.460636e+002;2.144654e-001
6.479921e+002;2.138207e-001
6.499207e+002;2.179089e-001
6.518492e+002;2.203226e-001
6.537778e+002;2.255632e-001
6.557063e+002;2.327276e-001
6.576349e+002;2.374407e-001
6.595634e+002;2.401461e-001
6.614919e+002;2.408153e-001
6.634205e+002;2.427730e-001
6.653491e+002;2.419993e-001
6.672776e+002;2.371601e-001
6.692062e+002;2.324756e-001
6.711347e+002;2.275937e-001
6.730632e+002;2.219998e-001
6.749918e+002;2.146748e-001
6.769203e+002;2.088477e-001
6.788489e+002;2.049226e-001
6.807775e+002;2.015234e-001
6.827060e+002;1.980148e-001
6.846345e+002;1.956085e-001
6.865631e+002;1.949535e-001
6.884916e+002;1.955338e-001
6.904202e+002;1.961142e-001
6.923488e+002;1.973910e-001
6.942773e+002;2.005898e-001
6.962058e+002;2.021563e-001
6.981344e+002;2.015616e-001
7.000629e+002;2.012262e-001
7.019915e+002;2.004423e-001
7.039200e+002;1.975983e-001
7.058486e+002;1.934503e-001
7.077771e+002;1.904942e-001
7.097057e+002;1.877435e-001
7.116342e+002;1.837638e-001
7.135627e+002;1.797741e-001
7.154913e+002;1.758762e-001
7.174199e+002;1.713538e-001
7.193484e+002;1.667156e-001
7.212770e+002;1.619551e-001
7.232055e+002;1.566576e-001
7.251340e+002;1.519064e-001
7.270626e+002;1.497209e-001
7.289911e+002;1.478856e-001
7.309197e+002;1.445585e-001
7.328483e+002;1.406302e-001
7.347768e+002;1.385117e-001
7.367053e+002;1.370213e-001
7.386339e+002;1.348859e-001
7.405624e+002;1.326652e-001
7.424910e+002;1.310566e-001
7.444196e+002;1.291171e-001
7.463481e+002;1.277757e-001
7.482766e+002;1.271263e-001
7.502052e+002;1.248778e-001
7.521337e+002;1.229014e-001
7.540623e+002;1.227077e-001
7.559908e+002;1.226666e-001
7.579194e+002;1.220893e-001
7.598479e+002;1.206801e-001
7.617765e+002;1.195820e-001
7.637050e+002;1.183013e-001
7.656335e+002;1.175409e-001
7.675621e+002;1.169730e-001
7.694907e+002;1.156414e-001
7.714192e+002;1.141614e-001
7.733478e+002;1.127788e-001
7.752763e+002;1.123070e-001
7.772048e+002;1.117585e-001
7.791334e+002;1.108635e-001
7.810620e+002;1.100484e-001
7.829905e+002;1.093437e-001
7.849191e+002;1.090117e-001
7.868476e+002;1.093392e-001
7.887761e+002;1.092573e-001
7.907047e+002;1.085957e-001
7.926332e+002;1.081741e-001
7.945618e+002;1.085300e-001
7.964903e+002;1.091952e-001
7.984189e+002;1.094797e-001
8.003474e+002;1.095761e-001
8.022759e+002;1.090810e-001
8.042045e+002;1.081263e-001
8.061331e+002;1.083624e-001
8.080616e+002;1.090247e-001
8.099902e+002;1.085301e-001
8.119187e+002;1.079355e-001
8.138472e+002;1.078448e-001
8.157758e+002;1.078794e-001
8.177043e+002;1.071464e-001
8.196329e+002;1.062522e-001
8.215615e+002;1.055954e-001
8.234900e+002;1.049480e-001
8.254185e+002;1.041825e-001
8.273471e+002;1.035226e-001
8.292756e+002;1.035061e-001
8.312042e+002;1.035774e-001
8.331328e+002;1.035527e-001
8.350613e+002;1.036024e-001
8.369898e+002;1.036308e-001
8.389184e+002;1.037343e-001
8.408469e+002;1.037905e-001
8.427755e+002;1.035006e-001
8.447040e+002;1.027994e-001
8.466326e+002;1.024756e-001
8.485611e+002;1.025689e-001
8.504897e+002;1.031988e-001
8.524182e+002;1.040041e-001
8.543467e+002;1.044435e-001
8.562753e+002;1.048030e-001
8.582039e+002;1.053240e-001
8.601324e+002;1.059064e-001
8.620610e+002;1.070733e-001
8.639895e+002;1.083108e-001
8.659180e+002;1.091240e-001
8.678466e+002;1.103863e-001
8.697751e+002;1.121271e-001
8.717037e+002;1.139572e-001
8.736323e+002;1.159115e-001
8.755608e+002;1.179710e-001
8.774893e+002;1.200239e-001
8.794179e+002;1.222607e-001
8.813464e+002;1.250460e-001
8.832750e+002;1.282729e-001
8.852036e+002;1.311313e-001
8.871321e+002;1.338193e-001
8.890606e+002;1.370320e-001
8.909892e+002;1.400945e-001
8.929177e+002;1.421306e-001
8.948463e+002;1.435577e-001
8.967748e+002;1.445277e-001
8.987034e+002;1.448394e-001
9.006319e+002;1.445756e-001
9.025605e+002;1.435289e-001
9.044890e+002;1.423626e-001
9.064175e+002;1.412648e-001
9.083461e+002;1.400387e-001
9.102747e+002;1.387404e-001
9.122032e+002;1.374367e-001
9.141318e+002;1.360936e-001
9.160603e+002;1.352027e-001
9.179888e+002;1.348164e-001
9.199174e+002;1.353407e-001
9.218459e+002;1.363770e-001
9.237745e+002;1.379844e-001
9.257031e+002;1.399052e-001
9.276316e+002;1.418435e-001
9.295601e+002;1.437129e-001
9.314887e+002;1.456476e-001
9.334172e+002;1.476766e-001
9.353458e+002;1.496616e-001
9.372744e+002;1.513167e-001
9.392029e+002;1.534299e-001
9.411314e+002;1.560018e-001
9.430600e+002;1.587799e-001
9.449885e+002;1.615666e-001
9.469171e+002;1.647610e-001
9.488456e+002;1.686791e-001
9.507742e+002;1.728037e-001
9.527027e+002;1.770685e-001
9.546313e+002;1.818796e-001
9.565598e+002;1.874267e-001
9.584883e+002;1.931774e-001
9.604169e+002;1.990046e-001
9.623455e+002;2.053728e-001
9.642740e+002;2.119695e-001
9.662026e+002;2.185590e-001
9.681311e+002;2.260603e-001
9.700596e+002;2.348585e-001
9.719882e+002;2.454578e-001
9.739167e+002;2.585888e-001
9.758453e+002;2.735675e-001
9.777739e+002;2.904896e-001
9.797024e+002;3.086230e-001
9.816309e+002;3.242433e-001
9.835595e+002;3.338301e-001
9.854880e+002;3.367130e-001
9.874166e+002;3.360744e-001
9.893452e+002;3.363909e-001
9.912737e+002;3.397356e-001
9.932022e+002;3.459566e-001
9.951307e+002;3.545738e-001
9.970593e+002;3.630541e-001
9.989879e+002;3.696701e-001
1.000916e+003;3.732733e-001
1.002845e+003;3.739778e-001
1.004773e+003;3.738796e-001
1.006702e+003;3.733255e-001
1.008631e+003;3.731317e-001
1.010559e+003;3.747407e-001
1.012488e+003;3.776672e-001
1.014416e+003;3.811683e-001
1.016345e+003;3.850244e-001
1.018273e+003;3.903091e-001
1.020202e+003;3.971349e-001
1.022130e+003;4.041556e-001
1.024059e+003;4.106416e-001
1.025988e+003;4.176602e-001
1.027916e+003;4.238503e-001
1.029845e+003;4.276290e-001
1.031773e+003;4.280108e-001
1.033702e+003;4.233847e-001
1.035630e+003;4.149358e-001
1.037559e+003;4.046942e-001
1.039487e+003;3.949892e-001
1.041416e+003;3.879368e-001
1.043344e+003;3.862199e-001
1.045273e+003;3.900411e-001
1.047202e+003;3.968647e-001
1.049130e+003;4.053645e-001
1.051059e+003;4.131042e-001
1.052987e+003;4.177195e-001
1.054916e+003;4.182304e-001
1.056844e+003;4.135666e-001
1.058773e+003;4.027564e-001
1.060701e+003;3.844468e-001
1.062630e+003;3.620724e-001
1.064558e+003;3.393038e-001
1.066487e+003;3.190468e-001
1.068416e+003;3.023362e-001
1.070344e+003;2.889949e-001
1.072273e+003;2.792980e-001
1.074201e+003;2.724459e-001
1.076130e+003;2.658002e-001
1.078058e+003;2.589959e-001
1.079987e+003;2.530720e-001
1.081915e+003;2.494129e-001
1.083844e+003;2.486764e-001
1.085773e+003;2.489422e-001
1.087701e+003;2.496557e-001
1.089630e+003;2.512775e-001
1.091558e+003;2.534358e-001
1.093487e+003;2.569429e-001
1.095415e+003;2.616879e-001
1.097344e+003;2.668634e-001
1.099272e+003;2.712747e-001
1.101201e+003;2.749260e-001
1.103129e+003;2.771416e-001
1.105058e+003;2.770761e-001
1.106987e+003;2.749961e-001
1.108915e+003;2.718715e-001
1.110844e+003;2.666130e-001
1.112772e+003;2.575608e-001
1.114701e+003;2.449048e-001
1.116629e+003;2.308697e-001
1.118558e+003;2.176012e-001
1.120486e+003;2.072258e-001
1.122415e+003;1.993584e-001
1.124344e+003;1.913244e-001
1.126272e+003;1.822661e-001
1.128201e+003;1.735635e-001
1.130129e+003;1.665631e-001
1.132058e+003;1.613115e-001
1.133986e+003;1.571836e-001
1.135915e+003;1.539010e-001
1.137843e+003;1.525234e-001
1.139772e+003;1.530353e-001
1.141700e+003;1.550670e-001
1.143629e+003;1.588066e-001
1.145557e+003;1.637232e-001
1.147486e+003;1.677068e-001
1.149415e+003;1.704260e-001
1.151343e+003;1.728888e-001
1.153272e+003;1.758453e-001
1.155200e+003;1.792339e-001
1.157129e+003;1.821215e-001
1.159057e+003;1.838432e-001
1.160986e+003;1.839466e-001
1.162914e+003;1.808494e-001
1.164843e+003;1.743145e-001
1.166771e+003;1.654851e-001
1.168700e+003;1.547641e-001
1.170629e+003;1.443726e-001
1.172557e+003;1.354864e-001
1.174486e+003;1.280900e-001
1.176414e+003;1.226549e-001
1.178343e+003;1.186109e-001
1.180271e+003;1.153136e-001
1.182200e+003;1.127096e-001
1.184128e+003;1.105831e-001
1.186057e+003;1.092987e-001
1.187986e+003;1.090381e-001
1.189914e+003;1.100585e-001
1.191843e+003;1.118121e-001
1.193771e+003;1.140315e-001
1.195700e+003;1.170894e-001
1.197628e+003;1.196278e-001
1.199557e+003;1.215241e-001
1.201485e+003;1.230156e-001
1.203414e+003;1.235327e-001
1.205343e+003;1.227872e-001
1.207271e+003;1.205248e-001
1.209200e+003;1.163069e-001
1.211128e+003;1.115175e-001
1.213057e+003;1.081617e-001
1.214985e+003;1.066893e-001
1.216914e+003;1.068691e-001
1.218842e+003;1.079820e-001
1.220771e+003;1.094389e-001
1.222699e+003;1.107740e-001
1.224628e+003;1.125414e-001
1.226557e+003;1.147935e-001
1.228485e+003;1.172860e-001
1.230414e+003;1.194165e-001
1.232342e+003;1.214176e-001
1.234271e+003;1.232583e-001
1.236199e+003;1.241702e-001
1.238128e+003;1.245206e-001
1.240056e+003;1.248659e-001
1.241985e+003;1.259243e-001
1.243913e+003;1.276122e-001
1.245842e+003;1.291181e-001
1.247771e+003;1.301858e-001
1.249699e+003;1.304665e-001
1.251628e+003;1.304083e-001
1.253556e+003;1.304597e-001
1.255485e+003;1.309051e-001
1.257413e+003;1.319596e-001
1.259342e+003;1.329144e-001
1.261270e+003;1.329334e-001
1.263199e+003;1.325509e-001
1.265127e+003;1.322698e-001
1.267056e+003;1.315744e-001
1.268985e+003;1.313489e-001
1.270913e+003;1.320316e-001
1.272842e+003;1.330620e-001
1.274770e+003;1.338625e-001
1.276699e+003;1.341339e-001
1.278627e+003;1.338528e-001
1.280556e+003;1.328655e-001
1.282484e+003;1.312644e-001
1.284413e+003;1.294904e-001
1.286342e+003;1.282534e-001
1.288270e+003;1.275996e-001
1.290199e+003;1.274551e-001
1.292127e+003;1.278301e-001
1.294056e+003;1.284380e-001
1.295984e+003;1.293067e-001
1.297913e+003;1.313664e-001
1.299841e+003;1.340482e-001
1.301770e+003;1.375394e-001
1.303698e+003;1.421447e-001
1.305627e+003;1.472435e-001
1.307556e+003;1.525848e-001
1.309484e+003;1.577423e-001
1.311413e+003;1.621184e-001
1.313341e+003;1.649254e-001
1.315270e+003;1.650043e-001
1.317198e+003;1.622632e-001
1.319127e+003;1.579346e-001
1.321055e+003;1.532812e-001
1.322984e+003;1.492535e-001
1.324912e+003;1.465555e-001
1.326841e+003;1.453262e-001
1.328770e+003;1.457664e-001
1.330698e+003;1.473416e-001
1.332627e+003;1.491048e-001
1.334555e+003;1.498288e-001
1.336484e+003;1.489737e-001
1.338412e+003;1.467841e-001
1.340341e+003;1.439120e-001
1.342269e+003;1.407910e-001
1.344198e+003;1.372165e-001
1.346126e+003;1.338976e-001
1.348055e+003;1.317128e-001
1.349984e+003;1.307196e-001
1.351912e+003;1.311720e-001
1.353841e+003;1.325228e-001
1.355769e+003;1.335411e-001
1.357698e+003;1.344140e-001
1.359626e+003;1.348007e-001
1.361555e+003;1.339602e-001
1.363483e+003;1.326060e-001
1.365412e+003;1.320367e-001
1.367341e+003;1.316294e-001
1.369269e+003;1.310336e-001
1.371198e+003;1.294194e-001
1.373126e+003;1.260091e-001
1.375055e+003;1.221384e-001
1.376983e+003;1.189897e-001
1.378912e+003;1.157693e-001
1.380840e+003;1.126779e-001
1.382769e+003;1.098957e-001
1.384698e+003;1.069921e-001
1.386626e+003;1.037568e-001
1.388555e+003;1.026846e-001
1.390483e+003;1.030343e-001
1.392412e+003;1.023391e-001
1.394340e+003;1.013616e-001
1.396269e+003;1.018987e-001
1.398197e+003;1.022006e-001
1.400126e+003;1.024799e-001
1.402054e+003;1.031514e-001
1.403983e+003;1.031407e-001
1.405911e+003;1.033795e-001
1.407840e+003;1.039510e-001
1.409769e+003;1.042733e-001
1.411697e+003;1.048481e-001
1.413626e+003;1.058348e-001
1.415554e+003;1.069127e-001
1.417483e+003;1.073059e-001
1.419411e+003;1.086221e-001
1.421340e+003;1.124896e-001
1.423268e+003;1.154281e-001
1.425197e+003;1.173489e-001
1.427125e+003;1.184336e-001
1.429054e+003;1.181013e-001
1.430983e+003;1.174439e-001
1.432911e+003;1.160551e-001
1.434840e+003;1.124841e-001
1.436768e+003;1.093694e-001
1.438697e+003;1.101540e-001
1.440625e+003;1.108053e-001
1.442554e+003;1.107309e-001
1.444482e+003;1.109179e-001
1.446411e+003;1.110501e-001
1.448340e+003;1.114295e-001
1.450268e+003;1.124766e-001
1.452197e+003;1.125783e-001
1.454125e+003;1.103949e-001
1.456054e+003;1.050321e-001
1.457982e+003;1.032760e-001
1.459911e+003;1.047693e-001
1.461839e+003;1.037993e-001
1.463768e+003;9.986487e-002
1.465697e+003;9.705947e-002
1.467625e+003;9.613863e-002
1.469554e+003;9.392641e-002
1.471482e+003;9.022459e-002
1.473411e+003;8.773603e-002
1.475339e+003;8.646533e-002
1.477268e+003;8.529479e-002
1.479196e+003;8.442960e-002
1.481125e+003;8.307371e-002
1.483053e+003;8.139762e-002
1.484982e+003;7.866406e-002
1.486911e+003;7.568778e-002
1.488839e+003;7.315125e-002
1.490768e+003;7.245990e-002
1.492696e+003;7.324957e-002
1.494625e+003;7.173341e-002
1.496553e+003;6.946500e-002
1.498482e+003;6.933935e-002
1.500410e+003;6.953043e-002
1.502339e+003;6.919711e-002
1.504267e+003;6.579442e-002
1.506196e+003;6.189024e-002
1.508125e+003;6.390262e-002
1.510053e+003;6.717824e-002
1.511982e+003;6.793857e-002
1.513910e+003;6.792977e-002
1.515839e+003;6.697848e-002
1.517767e+003;6.635578e-002
1.519696e+003;6.490123e-002
1.521624e+003;6.425695e-002
1.523553e+003;6.676247e-002
1.525481e+003;6.806450e-002
1.527410e+003;6.938479e-002
1.529339e+003;7.096271e-002
1.531267e+003;7.117524e-002
1.533196e+003;7.047074e-002
1.535124e+003;7.167326e-002
1.537053e+003;7.062076e-002
1.538981e+003;6.631981e-002
1.540910e+003;6.679736e-002
1.542838e+003;7.065148e-002
1.544767e+003;7.312745e-002
1.546695e+003;7.505326e-002
1.548624e+003;7.585441e-002
1.550553e+003;7.624000e-002
1.552481e+003;7.584668e-002
1.554410e+003;7.473850e-002
1.556338e+003;7.278191e-002
1.558267e+003;6.843714e-002
1.560195e+003;6.977619e-002
1.562124e+003;7.495284e-002
1.564052e+003;7.675316e-002
1.565981e+003;7.678661e-002
1.567910e+003;7.559916e-002
1.569838e+003;7.502085e-002
1.571767e+003;7.656804e-002
1.573695e+003;7.563418e-002
1.575624e+003;7.258938e-002
1.577552e+003;7.419434e-002
1.579481e+003;7.699236e-002
1.581409e+003;7.755037e-002
1.583338e+003;7.747377e-002
1.585266e+003;7.756146e-002
1.587195e+003;7.789996e-002
1.589124e+003;7.772470e-002
1.591052e+003;7.736542e-002
1.592981e+003;7.716876e-002
1.594909e+003;7.738506e-002
1.596838e+003;7.802494e-002
1.598766e+003;7.871914e-002
1.600695e+003;7.874627e-002
1.602623e+003;7.867168e-002
1.604552e+003;7.863785e-002
1.606480e+003;7.846716e-002
1.608409e+003;7.819184e-002
1.610338e+003;7.825825e-002
1.612266e+003;7.837273e-002
1.614195e+003;7.714434e-002
1.616123e+003;7.465066e-002
1.618052e+003;7.620237e-002
1.619980e+003;7.838599e-002
1.621909e+003;7.770167e-002
1.623837e+003;7.751297e-002
1.625766e+003;7.821302e-002
1.627694e+003;7.851337e-002
1.629623e+003;7.916135e-002
1.631552e+003;7.949335e-002
1.633480e+003;7.736459e-002
1.635409e+003;7.503231e-002
1.637337e+003;7.724143e-002
1.639266e+003;7.947361e-002
1.641194e+003;7.980509e-002
1.643123e+003;7.923861e-002
1.645051e+003;7.707865e-002
1.646980e+003;7.634065e-002
1.648909e+003;7.792629e-002
1.650837e+003;7.468257e-002
1.652766e+003;6.946418e-002
1.654694e+003;7.369751e-002
1.656623e+003;7.862343e-002
1.658551e+003;7.940996e-002
1.660480e+003;7.876804e-002
1.662408e+003;7.779726e-002
1.664337e+003;7.812508e-002
1.666266e+003;7.789742e-002
1.668194e+003;7.569090e-002
1.670123e+003;7.473637e-002
1.672051e+003;7.510249e-002
1.673980e+003;7.343826e-002
1.675908e+003;7.276589e-002
1.677837e+003;7.391213e-002
1.679765e+003;7.323996e-002
1.681694e+003;7.091273e-002
1.683622e+003;6.634617e-002
1.685551e+003;6.708086e-002
1.687479e+003;7.053703e-002
1.689408e+003;7.093583e-002
1.691337e+003;7.089701e-002
1.693265e+003;6.919167e-002
1.695194e+003;6.520087e-002
1.697122e+003;6.504223e-002
1.699051e+003;6.398331e-002
1.700979e+003;6.436335e-002
1.702908e+003;6.814950e-002
1.704836e+003;6.875316e-002
1.706765e+003;6.940877e-002
1.708693e+003;7.041808e-002
1.710622e+003;7.144833e-002
1.712551e+003;7.169061e-002
1.714479e+003;7.136534e-002
1.716408e+003;7.107751e-002
1.718336e+003;7.462351e-002
1.720265e+003;8.145074e-002
1.722193e+003;8.709570e-002
1.724122e+003;9.189103e-002
1.726050e+003;9.679882e-002
1.727979e+003;1.006488e-001
1.729908e+003;1.027292e-001
1.731836e+003;1.010954e-001
1.733765e+003;9.699571e-002
1.735693e+003;9.585436e-002
1.737622e+003;9.243229e-002
1.739550e+003;8.511240e-002
1.741479e+003;7.856462e-002
1.743407e+003;7.247818e-002
1.745336e+003;6.727263e-002
1.747265e+003;6.294666e-002
1.749193e+003;5.933658e-002
1.751122e+003;5.722641e-002
1.753050e+003;5.784721e-002
1.754979e+003;5.772048e-002
1.756907e+003;5.685136e-002
1.758836e+003;5.677013e-002
1.760764e+003;5.592654e-002
1.762693e+003;5.577634e-002
1.764621e+003;5.667498e-002
1.766550e+003;5.591738e-002
1.768479e+003;5.508311e-002
1.770407e+003;5.403361e-002
1.772336e+003;5.286272e-002
1.774264e+003;5.422180e-002
1.776193e+003;5.536885e-002
1.778121e+003;5.537834e-002
1.780050e+003;5.498228e-002
1.781978e+003;5.487027e-002
1.783907e+003;5.465673e-002
1.785835e+003;5.457662e-002
1.787764e+003;5.475242e-002
1.789693e+003;5.393539e-002
1.791621e+003;5.258210e-002
1.793550e+003;5.312622e-002
1.795478e+003;5.448936e-002
1.797407e+003;5.443666e-002
1.799335e+003;5.377114e-002
1.801264e+003;5.346067e-002
1.803192e+003;5.385241e-002
1.805121e+003;5.409482e-002
1.807049e+003;5.402487e-002
1.808978e+003;5.374024e-002
1.810907e+003;5.341615e-002
1.812835e+003;5.356310e-002
1.814764e+003;5.397309e-002
1.816692e+003;5.399043e-002
1.818621e+003;5.403429e-002
1.820549e+003;5.387552e-002
1.822478e+003;5.349484e-002
1.824406e+003;5.288166e-002
1.826335e+003;5.284622e-002
1.828264e+003;5.236439e-002
1.830192e+003;5.212649e-002
1.832121e+003;5.303895e-002
1.834049e+003;5.339509e-002
1.835978e+003;5.317768e-002
1.837906e+003;5.301749e-002
1.839835e+003;5.310087e-002
1.841763e+003;5.233736e-002
1.843692e+003;5.067936e-002
1.845620e+003;5.121655e-002
1.847549e+003;5.244876e-002
1.849478e+003;5.281950e-002
1.851406e+003;5.275515e-002
1.853335e+003;5.247273e-002
1.855263e+003;5.233762e-002
1.857192e+003;5.231494e-002
1.859120e+003;5.235542e-002
1.861049e+003;5.256382e-002
1.862977e+003;5.265564e-002
1.864906e+003;5.229744e-002
1.866834e+003;5.145282e-002
1.868763e+003;5.098613e-002
1.870692e+003;5.155418e-002
1.872620e+003;5.218616e-002
1.874549e+003;5.234648e-002
1.876477e+003;5.209911e-002
1.878406e+003;5.191098e-002
1.880334e+003;5.203138e-002
1.882263e+003;5.227065e-002
1.884191e+003;5.239201e-002
1.886120e+003;5.225813e-002
1.888048e+003;5.180151e-002
1.889977e+003;5.159351e-002
1.891906e+003;5.193563e-002
1.893834e+003;5.195807e-002
1.895763e+003;5.199172e-002
1.897691e+003;5.209287e-002
1.899620e+003;5.210837e-002
1.901548e+003;5.214379e-002
1.903477e+003;5.220600e-002
1.905405e+003;5.218661e-002
1.907334e+003;5.204625e-002
1.909262e+003;5.194761e-002
1.911191e+003;5.213639e-002
1.913120e+003;5.231374e-002
1.915048e+003;5.219300e-002
1.916977e+003;5.172215e-002
1.918905e+003;5.195912e-002
1.920834e+003;5.215406e-002
1.922762e+003;5.195194e-002
1.924691e+003;5.231243e-002
1.926619e+003;5.266402e-002
1.928548e+003;5.276536e-002
1.930477e+003;5.298440e-002
1.932405e+003;5.310185e-002
1.934334e+003;5.307208e-002
1.936262e+003;5.319509e-002
1.938191e+003;5.344361e-002
1.940119e+003;5.335238e-002
1.942048e+003;5.296647e-002
1.943976e+003;5.313049e-002
1.945905e+003;5.338655e-002
1.947833e+003;5.363394e-002
1.949762e+003;5.384236e-002
1.951691e+003;5.397223e-002
1.953619e+003;5.403617e-002
1.955548e+003;5.407437e-002
1.957476e+003;5.406499e-002
1.959405e+003;5.392001e-002
1.961333e+003;5.402603e-002
1.963262e+003;5.414395e-002
1.965190e+003;5.403182e-002
1.967119e+003;5.401853e-002
1.969047e+003;5.432933e-002
1.970976e+003;5.439655e-002
1.972905e+003;5.440575e-002
1.974833e+003;5.442655e-002
1.976762e+003;5.448710e-002
1.978690e+003;5.448628e-002
1.980619e+003;5.453229e-002
1.982547e+003;5.459368e-002
1.984476e+003;5.489580e-002
1.986404e+003;5.504253e-002
1.988333e+003;5.473731e-002
1.990261e+003;5.450194e-002
1.992190e+003;5.458760e-002
1.994119e+003;5.507506e-002
1.996047e+003;5.540378e-002
1.997976e+003;5.546044e-002
1.999904e+003;5.540747e-002
2.001833e+003;5.531221e-002
2.003761e+003;5.532196e-002
2.005690e+003;5.537337e-002
2.007618e+003;5.544203e-002
2.009547e+003;5.535443e-002
2.011476e+003;5.544677e-002
2.013404e+003;5.585554e-002
2.015333e+003;5.603596e-002
2.017261e+003;5.604802e-002
2.019190e+003;5.633708e-002
2.021118e+003;5.666294e-002
2.023047e+003;5.663168e-002
2.024975e+003;5.657159e-002
2.026904e+003;5.675982e-002
2.028833e+003;5.711994e-002
2.030761e+003;5.708487e-002
2.032690e+003;5.695006e-002
2.034618e+003;5.694969e-002
2.036547e+003;5.717255e-002
2.038475e+003;5.739708e-002
2.040404e+003;5.741205e-002
2.042332e+003;5.748947e-002
2.044261e+003;5.739522e-002
2.046189e+003;5.736392e-002
2.048118e+003;5.756123e-002
2.050047e+003;5.757125e-002
2.051975e+003;5.756702e-002
2.053904e+003;5.746099e-002
2.055832e+003;5.711231e-002
2.057761e+003;5.695807e-002
2.059689e+003;5.692388e-002
2.061618e+003;5.692135e-002
2.063546e+003;5.695852e-002
2.065475e+003;5.698146e-002
2.067404e+003;5.708340e-002
2.069332e+003;5.715872e-002
2.071260e+003;5.719810e-002
2.073189e+003;5.704716e-002
2.075118e+003;5.688052e-002
2.077046e+003;5.688951e-002
2.078975e+003;5.707610e-002
2.080903e+003;5.712667e-002
2.082832e+003;5.693567e-002
2.084760e+003;5.681847e-002
2.086689e+003;5.688675e-002
2.088617e+003;5.700428e-002
2.090546e+003;5.695293e-002
2.092475e+003;5.683191e-002
2.094403e+003;5.683939e-002
2.096332e+003;5.701788e-002
2.098260e+003;5.720521e-002
2.100189e+003;5.722448e-002
2.102117e+003;5.709659e-002
2.104046e+003;5.695320e-002
2.105974e+003;5.678354e-002
2.107903e+003;5.666539e-002
2.109832e+003;5.702011e-002
2.111760e+003;5.726206e-002
2.113688e+003;5.723144e-002
2.115617e+003;5.740993e-002
2.117546e+003;5.768752e-002
2.119474e+003;5.739681e-002
2.121403e+003;5.716881e-002
2.123331e+003;5.739413e-002
2.125260e+003;5.771693e-002
2.127188e+003;5.790244e-002
2.129117e+003;5.797067e-002
2.131045e+003;5.805280e-002
2.132974e+003;5.813428e-002
2.134903e+003;5.812553e-002
2.136831e+003;5.799676e-002
2.138760e+003;5.783638e-002
2.140688e+003;5.773827e-002
2.142617e+003;5.766849e-002
2.144545e+003;5.727983e-002
2.146474e+003;5.695274e-002
2.148402e+003;5.705929e-002
2.150331e+003;5.750399e-002
2.152260e+003;5.762687e-002
2.154188e+003;5.755692e-002
2.156117e+003;5.752964e-002
2.158045e+003;5.724248e-002
2.159974e+003;5.684819e-002
2.161902e+003;5.670198e-002
2.163831e+003;5.663025e-002
2.165759e+003;5.644230e-002
2.167688e+003;5.626748e-002
2.169616e+003;5.613398e-002
2.171545e+003;5.597222e-002
2.173474e+003;5.589906e-002
2.175402e+003;5.576266e-002
2.177331e+003;5.554813e-002
2.179259e+003;5.545935e-002
2.181188e+003;5.540563e-002
2.183116e+003;5.537228e-002
2.185045e+003;5.539370e-002
2.186973e+003;5.526837e-002
2.188902e+003;5.528161e-002
2.190831e+003;5.511091e-002
2.192759e+003;5.481094e-002
2.194688e+003;5.458207e-002
2.196616e+003;5.450239e-002
2.198545e+003;5.440778e-002
2.200473e+003;5.454943e-002
2.202402e+003;5.493516e-002
2.204330e+003;5.495479e-002
2.206259e+003;5.471461e-002
2.208188e+003;5.432557e-002
2.210116e+003;5.424418e-002
2.212044e+003;5.461367e-002
2.213973e+003;5.453808e-002
2.215902e+003;5.448380e-002
2.217830e+003;5.478978e-002
2.219759e+003;5.482459e-002
2.221687e+003;5.482884e-002
2.223616e+003;5.481113e-002
2.225544e+003;5.473137e-002
2.227473e+003;5.484391e-002
2.229401e+003;5.509079e-002
2.231330e+003;5.523789e-002
2.233259e+003;5.512584e-002
2.235187e+003;5.504742e-002
2.237116e+003;5.508669e-002
2.239044e+003;5.494200e-002
2.240973e+003;5.481842e-002
2.242901e+003;5.483199e-002
2.244830e+003;5.479978e-002
2.246758e+003;5.476445e-002
2.248687e+003;5.474171e-002
2.250615e+003;5.467639e-002
2.252544e+003;5.448759e-002
2.254473e+003;5.430106e-002
2.256401e+003;5.413952e-002
2.258330e+003;5.409606e-002
2.260258e+003;5.407527e-002
2.262187e+003;5.389671e-002
2.264115e+003;5.363574e-002
2.266044e+003;5.353112e-002
2.267972e+003;5.342604e-002
2.269901e+003;5.322853e-002
2.271830e+003;5.323887e-002
2.273758e+003;5.309492e-002
2.275687e+003;5.305785e-002
2.277615e+003;5.318651e-002
2.279544e+003;5.314146e-002
2.281472e+003;5.291912e-002
2.283401e+003;5.283383e-002
2.285329e+003;5.274085e-002
2.287258e+003;5.276783e-002
2.289187e+003;5.277052e-002
2.291115e+003;5.265392e-002
2.293043e+003;5.257896e-002
2.294972e+003;5.248929e-002
2.296901e+003;5.241119e-002
2.298829e+003;5.234062e-002
2.300758e+003;5.220750e-002
2.302686e+003;5.214039e-002
2.304615e+003;5.230720e-002
2.306543e+003;5.237762e-002
2.308472e+003;5.237429e-002
2.310400e+003;5.251304e-002
2.312329e+003;5.249655e-002
2.314258e+003;5.239156e-002
2.316186e+003;5.222214e-002
2.318115e+003;5.194709e-002
2.320043e+003;5.170028e-002
2.321972e+003;5.169390e-002
2.323900e+003;5.172947e-002
2.325829e+003;5.166199e-002
2.327757e+003;5.159303e-002
2.329686e+003;5.140523e-002
2.331615e+003;5.118724e-002
2.333543e+003;5.100357e-002
2.335472e+003;5.113479e-002
2.337400e+003;5.139475e-002
2.339329e+003;5.175421e-002
2.341257e+003;5.189657e-002
2.343186e+003;5.203310e-002
2.345114e+003;5.237287e-002
2.347043e+003;5.270049e-002
2.348971e+003;5.276102e-002
2.350900e+003;5.296947e-002
2.352829e+003;5.300346e-002
2.354757e+003;5.270610e-002
2.356686e+003;5.243437e-002
2.358614e+003;5.225454e-002
2.360543e+003;5.213210e-002
2.362471e+003;5.228395e-002
2.364400e+003;5.245358e-002
2.366328e+003;5.243276e-002
2.368257e+003;5.271762e-002
2.370186e+003;5.354552e-002
2.372114e+003;5.381847e-002
2.374042e+003;5.382796e-002
2.375971e+003;5.415131e-002
2.377900e+003;5.447182e-002
2.379828e+003;5.465098e-002
2.381757e+003;5.479151e-002
2.383685e+003;5.513536e-002
2.385614e+003;5.559791e-002
2.387542e+003;5.545769e-002
2.389471e+003;5.506363e-002
2.391399e+003;5.509263e-002
2.393328e+003;5.540514e-002
2.395257e+003;5.591067e-002
2.397185e+003;5.604312e-002
2.399114e+003;5.593272e-002
2.401042e+003;5.601952e-002
2.402971e+003;5.601677e-002
2.404899e+003;5.604727e-002
2.406828e+003;5.612230e-002
2.408756e+003;5.604727e-002
2.410685e+003;5.591821e-002
2.412614e+003;5.608753e-002
2.414542e+003;5.638480e-002
2.416471e+003;5.669484e-002
2.418399e+003;5.664625e-002
2.420328e+003;5.645192e-002
2.422256e+003;5.662965e-002
2.424185e+003;5.713589e-002
2.426113e+003;5.764995e-002
2.428042e+003;5.759070e-002
2.429970e+003;5.727351e-002
2.431899e+003;5.741432e-002
2.433828e+003;5.772593e-002
2.435756e+003;5.783600e-002
2.437685e+003;5.799622e-002
2.439613e+003;5.787465e-002
2.441542e+003;5.782612e-002
2.443470e+003;5.826191e-002
2.445399e+003;5.848993e-002
2.447327e+003;5.824081e-002
2.449256e+003;5.804413e-002
2.451185e+003;5.842173e-002
2.453113e+003;5.867804e-002
2.455042e+003;5.841111e-002
2.456970e+003;5.834448e-002
2.458899e+003;5.834096e-002
2.460827e+003;5.837564e-002
2.462756e+003;5.859563e-002
2.464684e+003;5.875937e-002
2.466613e+003;5.882075e-002
2.468542e+003;5.906989e-002
2.470470e+003;5.896441e-002
2.472398e+003;5.881411e-002
2.474327e+003;5.912031e-002
2.476256e+003;5.951074e-002
2.478184e+003;5.957667e-002
2.480113e+003;5.947194e-002
2.482041e+003;5.951412e-002
2.483970e+003;5.963768e-002
2.485898e+003;5.992289e-002
2.487827e+003;5.972074e-002
2.489755e+003;5.958895e-002
2.491684e+003;5.959085e-002
2.493613e+003;5.973169e-002
2.495541e+003;5.986204e-002
2.497470e+003;5.987174e-002
2.499398e+003;6.000460e-002
2.501327e+003;6.010166e-002
2.503255e+003;6.027612e-002
2.505184e+003;6.042556e-002
2.507112e+003;6.025942e-002
2.509041e+003;6.027643e-002
2.510969e+003;6.073733e-002
2.512898e+003;6.132725e-002
2.514827e+003;6.150106e-002
2.516755e+003;6.114973e-002
2.518684e+003;6.116873e-002
2.520612e+003;6.130245e-002
2.522541e+003;6.130401e-002
2.524469e+003;6.148098e-002
2.526398e+003;6.176631e-002
2.528326e+003;6.174687e-002
2.530255e+003;6.180569e-002
2.532184e+003;6.198199e-002
2.534112e+003;6.216792e-002
2.536041e+003;6.238854e-002
2.537969e+003;6.197706e-002
2.539898e+003;6.160690e-002
2.541826e+003;6.164970e-002
2.543755e+003;6.189265e-002
2.545683e+003;6.184072e-002
2.547612e+003;6.168423e-002
2.549541e+003;6.178212e-002
2.551469e+003;6.206630e-002
2.553397e+003;6.223720e-002
2.555326e+003;6.229518e-002
2.557255e+003;6.241084e-002
2.559183e+003;6.252765e-002
2.561112e+003;6.259860e-002
2.563040e+003;6.243502e-002
2.564969e+003;6.210686e-002
2.566897e+003;6.196063e-002
2.568826e+003;6.248656e-002
2.570754e+003;6.297784e-002
2.572683e+003;6.300393e-002
2.574612e+003;6.282729e-002
2.576540e+003;6.274926e-002
2.578469e+003;6.280477e-002
2.580397e+003;6.268349e-002
2.582326e+003;6.271756e-002
2.584254e+003;6.297520e-002
2.586183e+003;6.296983e-002
2.588111e+003;6.312216e-002
2.590040e+003;6.334852e-002
2.591969e+003;6.322398e-002
2.593897e+003;6.321823e-002
2.595826e+003;6.333272e-002
2.597754e+003;6.320991e-002
2.599683e+003;6.309955e-002
2.601611e+003;6.334415e-002
2.603540e+003;6.361535e-002
2.605468e+003;6.362882e-002
2.607397e+003;6.375524e-002
2.609325e+003;6.403887e-002
2.611254e+003;6.408242e-002
2.613183e+003;6.408802e-002
2.615111e+003;6.402413e-002
2.617040e+003;6.416768e-002
2.618968e+003;6.454691e-002
2.620897e+003;6.465453e-002
2.622825e+003;6.479629e-002
2.624754e+003;6.493460e-002
2.626682e+003;6.496099e-002
2.628611e+003;6.508349e-002
2.630540e+003;6.541187e-002
2.632468e+003;6.512795e-002
2.634396e+003;6.489408e-002
2.636325e+003;6.530410e-002
2.638254e+003;6.546506e-002
2.640182e+003;6.551207e-002
2.642111e+003;6.565183e-002
2.644039e+003;6.547651e-002
2.645968e+003;6.541021e-002
2.647896e+003;6.536195e-002
2.649825e+003;6.530572e-002
2.651753e+003;6.562246e-002
2.653682e+003;6.569739e-002
2.655611e+003;6.567238e-002
2.657539e+003;6.597184e-002
2.659468e+003;6.624088e-002
2.661396e+003;6.647875e-002
2.663325e+003;6.641659e-002
2.665253e+003;6.620850e-002
2.667182e+003;6.633590e-002
2.669110e+003;6.672870e-002
2.671039e+003;6.693731e-002
2.672968e+003;6.664626e-002
2.674896e+003;6.656074e-002
2.676825e+003;6.680796e-002
2.678753e+003;6.692173e-002
2.680682e+003;6.710430e-002
2.682610e+003;6.706037e-002
2.684539e+003;6.697578e-002
2.686467e+003;6.752791e-002
2.688396e+003;6.784283e-002
2.690324e+003;6.783745e-002
2.692253e+003;6.775003e-002
2.694182e+003;6.773063e-002
2.696110e+003;6.814768e-002
2.698039e+003;6.849700e-002
2.699967e+003;6.852028e-002
2.701896e+003;6.856098e-002
2.703824e+003;6.880701e-002
2.705753e+003;6.895214e-002
2.707681e+003;6.883449e-002
2.709610e+003;6.913922e-002
2.711539e+003;6.939999e-002
2.713467e+003;6.924036e-002
2.715396e+003;6.952647e-002
2.717324e+003;6.974033e-002
2.719253e+003;6.969441e-002
2.721181e+003;6.955501e-002
2.723110e+003;6.942406e-002
2.725038e+003;6.978149e-002
2.726967e+003;7.017029e-002
2.728896e+003;7.001357e-002
2.730824e+003;7.001248e-002
2.732752e+003;7.017858e-002
2.734681e+003;7.024472e-002
2.736610e+003;7.050791e-002
2.738538e+003;7.064610e-002
2.740467e+003;7.038804e-002
2.742395e+003;7.043286e-002
2.744324e+003;7.066497e-002
2.746252e+003;7.054713e-002
2.748181e+003;7.068396e-002
2.750109e+003;7.077548e-002
2.752038e+003;7.087166e-002
2.753967e+003;7.118890e-002
2.755895e+003;7.115967e-002
2.757824e+003;7.111146e-002
2.759752e+003;7.124996e-002
2.761681e+003;7.117435e-002
2.763609e+003;7.103529e-002
2.765538e+003;7.100411e-002
2.767466e+003;7.110748e-002
2.769395e+003;7.140744e-002
2.771323e+003;7.155127e-002
2.773252e+003;7.160304e-002
2.775181e+003;7.184989e-002
2.777109e+003;7.206254e-002
2.779038e+003;7.238278e-002
2.780966e+003;7.274273e-002
2.782895e+003;7.298145e-002
2.784823e+003;7.270132e-002
2.786752e+003;7.275374e-002
2.788680e+003;7.341155e-002
2.790609e+003;7.376980e-002
2.792538e+003;7.378331e-002
2.794466e+003;7.388047e-002
2.796395e+003;7.417072e-002
2.798323e+003;7.441220e-002
2.800252e+003;7.453243e-002
2.802180e+003;7.483946e-002
2.804109e+003;7.535951e-002
2.806037e+003;7.575945e-002
2.807966e+003;7.634819e-002
2.809895e+003;7.696558e-002
2.811823e+003;7.701091e-002
2.813751e+003;7.708272e-002
2.815680e+003;7.740292e-002
2.817609e+003;7.764430e-002
2.819537e+003;7.798992e-002
2.821466e+003;7.866425e-002
2.823394e+003;7.954153e-002
2.825323e+003;8.000323e-002
2.827251e+003;8.068812e-002
2.829180e+003;8.144654e-002
2.831108e+003;8.192904e-002
2.833037e+003;8.281840e-002
2.834966e+003;8.367395e-002
2.836894e+003;8.472381e-002
2.838823e+003;8.661492e-002
2.840751e+003;8.870032e-002
2.842680e+003;9.059189e-002
2.844608e+003;9.294636e-002
2.846537e+003;9.666178e-002
2.848465e+003;1.005684e-001
2.850394e+003;1.023129e-001
2.852323e+003;1.013842e-001
2.854251e+003;9.930740e-002
2.856180e+003;9.772957e-002
2.858108e+003;9.756748e-002
2.860037e+003;9.840602e-002
2.861965e+003;9.921775e-002
2.863894e+003;1.000808e-001
2.865822e+003;1.009638e-001
2.867751e+003;1.020404e-001
2.869679e+003;1.029038e-001
2.871608e+003;1.038511e-001
2.873536e+003;1.047300e-001
2.875465e+003;1.045968e-001
2.877394e+003;1.042110e-001
2.879322e+003;1.044341e-001
2.881251e+003;1.046652e-001
2.883179e+003;1.050289e-001
2.885108e+003;1.057769e-001
2.887036e+003;1.065485e-001
2.888965e+003;1.070426e-001
2.890893e+003;1.078665e-001
2.892822e+003;1.091530e-001
2.894750e+003;1.098909e-001
2.896679e+003;1.102182e-001
2.898608e+003;1.106406e-001
2.900536e+003;1.111971e-001
2.902465e+003;1.112843e-001
2.904393e+003;1.108113e-001
2.906322e+003;1.104429e-001
2.908250e+003;1.106015e-001
2.910179e+003;1.113593e-001
2.912107e+003;1.124840e-001
2.914036e+003;1.131723e-001
2.915965e+003;1.134569e-001
2.917893e+003;1.131514e-001
2.919822e+003;1.119203e-001
2.921750e+003;1.093699e-001
2.923679e+003;1.063061e-001
2.925607e+003;1.039570e-001
2.927536e+003;1.021333e-001
2.929464e+003;1.000604e-001
2.931393e+003;9.785408e-002
2.933322e+003;9.617300e-002
2.935250e+003;9.514239e-002
2.937178e+003;9.436505e-002
2.939107e+003;9.369037e-002
2.941036e+003;9.274480e-002
2.942964e+003;9.167561e-002
2.944893e+003;9.113084e-002
2.946821e+003;9.037356e-002
2.948750e+003;8.949157e-002
2.950678e+003;8.909249e-002
2.952607e+003;8.873715e-002
2.954535e+003;8.776531e-002
2.956464e+003;8.737494e-002
2.958393e+003;8.736631e-002
2.960321e+003;8.654398e-002
2.962250e+003;8.553987e-002
2.964178e+003;8.473665e-002
2.966107e+003;8.347168e-002
2.968035e+003;8.215929e-002
2.969964e+003;8.098551e-002
2.971892e+003;7.977610e-002
2.973821e+003;7.842834e-002
2.975750e+003;7.654646e-002
2.977678e+003;7.517423e-002
2.979607e+003;7.425752e-002
2.981535e+003;7.348147e-002
2.983464e+003;7.264480e-002
2.985392e+003;7.159413e-002
2.987321e+003;7.067148e-002
2.989249e+003;7.052483e-002
2.991178e+003;7.027747e-002
2.993106e+003;6.970916e-002
2.995035e+003;6.932221e-002
2.996964e+003;6.897898e-002
2.998892e+003;6.907822e-002
3.000821e+003;6.943335e-002
3.002749e+003;6.940384e-002
3.004678e+003;6.932485e-002
3.006606e+003;6.937931e-002
3.008535e+003;6.939361e-002
3.010463e+003;6.956314e-002
3.012392e+003;6.960927e-002
3.014321e+003;6.922854e-002
3.016249e+003;6.952889e-002
3.018177e+003;6.992995e-002
3.020106e+003;7.027787e-002
3.022035e+003;7.068298e-002
3.023963e+003;7.079744e-002
3.025892e+003;7.083815e-002
3.027820e+003;7.102120e-002
3.029749e+003;7.144814e-002
3.031677e+003;7.174638e-002
3.033606e+003;7.153475e-002
3.035534e+003;7.175725e-002
3.037463e+003;7.239249e-002
3.039392e+003;7.250727e-002
3.041320e+003;7.248824e-002
3.043249e+003;7.257141e-002
3.045177e+003;7.267747e-002
3.047106e+003;7.280342e-002
3.049034e+003;7.268530e-002
3.050963e+003;7.307710e-002
3.052891e+003;7.396343e-002
3.054820e+003;7.443957e-002
3.056749e+003;7.410717e-002
3.058677e+003;7.398234e-002
3.060606e+003;7.414014e-002
3.062534e+003;7.439611e-002
3.064463e+003;7.464208e-002
3.066391e+003;7.479423e-002
3.068320e+003;7.535923e-002
3.070248e+003;7.575018e-002
3.072177e+003;7.569038e-002
3.074105e+003;7.562625e-002
3.076034e+003;7.566305e-002
3.077963e+003;7.603762e-002
3.079891e+003;7.661689e-002
3.081820e+003;7.698397e-002
3.083748e+003;7.715605e-002
3.085677e+003;7.761850e-002
3.087605e+003;7.817264e-002
3.089534e+003;7.843584e-002
3.091462e+003;7.834595e-002
3.093391e+003;7.853052e-002
3.095320e+003;7.921141e-002
3.097248e+003;7.951245e-002
3.099177e+003;7.987844e-002
3.101105e+003;8.051287e-002
3.103034e+003;8.085824e-002
3.104962e+003;8.078971e-002
3.106891e+003;8.075268e-002
3.108819e+003;8.132833e-002
3.110748e+003;8.165531e-002
3.112677e+003;8.190130e-002
3.114605e+003;8.228421e-002
3.116533e+003;8.227016e-002
3.118462e+003;8.242336e-002
3.120391e+003;8.318743e-002
3.122319e+003;8.367074e-002
3.124248e+003;8.403888e-002
3.126176e+003;8.484415e-002
3.128105e+003;8.569612e-002
3.130033e+003;8.616485e-002
3.131962e+003;8.644083e-002
3.133890e+003;8.645203e-002
3.135819e+003;8.643149e-002
3.137748e+003;8.641786e-002
3.139676e+003;8.688944e-002
3.141605e+003;8.782675e-002
3.143533e+003;8.863436e-002
3.145462e+003;8.903112e-002
3.147390e+003;8.903534e-002
3.149319e+003;8.976201e-002
3.151247e+003;9.021721e-002
3.153176e+003;9.009051e-002
3.155104e+003;9.073392e-002
3.157033e+003;9.159832e-002
3.158962e+003;9.233158e-002
3.160890e+003;9.320503e-002
3.162819e+003;9.339061e-002
3.164747e+003;9.348429e-002
3.166676e+003;9.391914e-002
3.168604e+003;9.455284e-002
3.170533e+003;9.512577e-002
3.172461e+003;9.594300e-002
3.174390e+003;9.667967e-002
3.176319e+003;9.683133e-002
3.178247e+003;9.724467e-002
3.180176e+003;9.800465e-002
3.182104e+003;9.880294e-002
3.184033e+003;9.944757e-002
3.185961e+003;1.001630e-001
3.187890e+003;1.007694e-001
3.189818e+003;1.009206e-001
3.191747e+003;1.013905e-001
3.193676e+003;1.024278e-001
3.195604e+003;1.031228e-001
3.197532e+003;1.033260e-001
3.199461e+003;1.038895e-001
3.201390e+003;1.047482e-001
3.203318e+003;1.053751e-001
3.205247e+003;1.059015e-001
3.207175e+003;1.068503e-001
3.209104e+003;1.080230e-001
3.211032e+003;1.089192e-001
3.212961e+003;1.096168e-001
3.214889e+003;1.107461e-001
3.216818e+003;1.121306e-001
3.218747e+003;1.126008e-001
3.220675e+003;1.124154e-001
3.222604e+003;1.128197e-001
3.224532e+003;1.135366e-001
3.226461e+003;1.145379e-001
3.228389e+003;1.157282e-001
3.230318e+003;1.166573e-001
3.232246e+003;1.177631e-001
3.234175e+003;1.185153e-001
3.236104e+003;1.188027e-001
3.238032e+003;1.195173e-001
3.239961e+003;1.208949e-001
3.241889e+003;1.225406e-001
3.243818e+003;1.236534e-001
3.245746e+003;1.248732e-001
3.247675e+003;1.262384e-001
3.249603e+003;1.275812e-001
3.251532e+003;1.286552e-001
3.253460e+003;1.295023e-001
3.255389e+003;1.308869e-001
3.257318e+003;1.320553e-001
3.259246e+003;1.326555e-001
3.261175e+003;1.336381e-001
3.263103e+003;1.351661e-001
3.265032e+003;1.366558e-001
3.266960e+003;1.376059e-001
3.268889e+003;1.383806e-001
3.270817e+003;1.390360e-001
3.272746e+003;1.394698e-001
3.274675e+003;1.398661e-001
3.276603e+003;1.403487e-001
3.278531e+003;1.410725e-001
3.280460e+003;1.418844e-001
3.282389e+003;1.421706e-001
3.284317e+003;1.428724e-001
3.286246e+003;1.432816e-001
3.288174e+003;1.435008e-001
3.290103e+003;1.437619e-001
3.292031e+003;1.440732e-001
3.293960e+003;1.446467e-001
3.295888e+003;1.445144e-001
3.297817e+003;1.443443e-001
3.299746e+003;1.443028e-001
3.301674e+003;1.442035e-001
3.303603e+003;1.440891e-001
3.305531e+003;1.442172e-001
3.307460e+003;1.440830e-001
3.309388e+003;1.439346e-001
3.311317e+003;1.435304e-001
3.313245e+003;1.431036e-001
3.315174e+003;1.431228e-001
3.317103e+003;1.436630e-001
3.319031e+003;1.443812e-001
3.320960e+003;1.451436e-001
3.322888e+003;1.459522e-001
3.324817e+003;1.466294e-001
3.326745e+003;1.470399e-001
3.328674e+003;1.475673e-001
3.330602e+003;1.488290e-001
3.332531e+003;1.491641e-001
3.334459e+003;1.488287e-001
3.336388e+003;1.482013e-001
3.338317e+003;1.476637e-001
3.340245e+003;1.474130e-001
3.342174e+003;1.467031e-001
3.344102e+003;1.460126e-001
3.346031e+003;1.453003e-001
3.347959e+003;1.439386e-001
3.349888e+003;1.428734e-001
3.351816e+003;1.418799e-001
3.353745e+003;1.404133e-001
3.355674e+003;1.390948e-001
3.357602e+003;1.375444e-001
3.359531e+003;1.361601e-001
3.361459e+003;1.353422e-001
3.363388e+003;1.345780e-001
3.365316e+003;1.337944e-001
3.367245e+003;1.328254e-001
3.369173e+003;1.316871e-001
3.371102e+003;1.310722e-001
3.373031e+003;1.303411e-001
3.374959e+003;1.289690e-001
3.376887e+003;1.277255e-001
3.378816e+003;1.267810e-001
3.380745e+003;1.259778e-001
3.382673e+003;1.252300e-001
3.384602e+003;1.244189e-001
3.386530e+003;1.236801e-001
3.388459e+003;1.233700e-001
3.390387e+003;1.231567e-001
3.392316e+003;1.226096e-001
3.394244e+003;1.221842e-001
3.396173e+003;1.216818e-001
3.398102e+003;1.209331e-001
3.400030e+003;1.200327e-001
3.401959e+003;1.189724e-001
3.403887e+003;1.179650e-001
3.405816e+003;1.171438e-001
3.407744e+003;1.166672e-001
3.409673e+003;1.158855e-001
3.411601e+003;1.147238e-001
3.413530e+003;1.135930e-001
3.415458e+003;1.124080e-001
3.417387e+003;1.109806e-001
3.419316e+003;1.098435e-001
3.421244e+003;1.085336e-001
3.423173e+003;1.072258e-001
3.425101e+003;1.065863e-001
3.427030e+003;1.059189e-001
3.428958e+003;1.045186e-001
3.430887e+003;1.030127e-001
3.432815e+003;1.023304e-001
3.434744e+003;1.018585e-001
3.436673e+003;1.010591e-001
3.438601e+003;9.986053e-002
3.440530e+003;9.852153e-002
3.442458e+003;9.774663e-002
3.444387e+003;9.731398e-002
3.446315e+003;9.641743e-002
3.448244e+003;9.539755e-002
3.450172e+003;9.416827e-002
3.452101e+003;9.296913e-002
3.454030e+003;9.215911e-002
3.455958e+003;9.168261e-002
3.457886e+003;9.106986e-002
3.459815e+003;9.010242e-002
3.461744e+003;8.942252e-002
3.463672e+003;8.840232e-002
3.465601e+003;8.745955e-002
3.467529e+003;8.733110e-002
3.469458e+003;8.645716e-002
3.471386e+003;8.520685e-002
3.473315e+003;8.445540e-002
3.475243e+003;8.335516e-002
3.477172e+003;8.218399e-002
3.479101e+003;8.152828e-002
3.481029e+003;8.047806e-002
3.482958e+003;7.951432e-002
3.484886e+003;7.859936e-002
3.486815e+003;7.747099e-002
3.488743e+003;7.667097e-002
3.490672e+003;7.586791e-002
3.492600e+003;7.533073e-002
3.494529e+003;7.478600e-002
3.496458e+003;7.370175e-002
3.498386e+003;7.267778e-002
3.500315e+003;7.197537e-002
3.502243e+003;7.157663e-002
3.504172e+003;7.162324e-002
3.506100e+003;7.153412e-002
3.508029e+003;7.001649e-002
3.509957e+003;6.912923e-002
3.511886e+003;6.907982e-002
3.513814e+003;6.820416e-002
3.515743e+003;6.741478e-002
3.517672e+003;6.703991e-002
3.519600e+003;6.605111e-002
3.521529e+003;6.462092e-002
3.523457e+003;6.351409e-002
3.525386e+003;6.352752e-002
3.527314e+003;6.362978e-002
3.529243e+003;6.314737e-002
3.531171e+003;6.285413e-002
3.533100e+003;6.239780e-002
3.535029e+003;6.173235e-002
3.536957e+003;6.126147e-002
3.538885e+003;6.063613e-002
3.540814e+003;5.933122e-002
3.542743e+003;5.832190e-002
3.544671e+003;5.767367e-002
3.546600e+003;5.692940e-002
3.548528e+003;5.654468e-002
3.550457e+003;5.639748e-002
3.552385e+003;5.630358e-002
3.554314e+003;5.603475e-002
3.556242e+003;5.536313e-002
3.558171e+003;5.451648e-002
3.560100e+003;5.373180e-002
3.562028e+003;5.318333e-002
3.563957e+003;5.208174e-002
3.565885e+003;5.027432e-002
3.567814e+003;5.010862e-002
3.569742e+003;5.122926e-002
3.571671e+003;5.170950e-002
3.573599e+003;5.105027e-002
3.575528e+003;5.054202e-002
3.577457e+003;5.046825e-002
3.579385e+003;4.934029e-002
3.581314e+003;4.870376e-002
3.583242e+003;4.885565e-002
3.585171e+003;4.804008e-002
3.587099e+003;4.666439e-002
3.589028e+003;4.639446e-002
3.590956e+003;4.689264e-002
3.592885e+003;4.665185e-002
3.594813e+003;4.646714e-002
3.596742e+003;4.665709e-002
3.598671e+003;4.651799e-002
3.600599e+003;4.576953e-002
3.602528e+003;4.526878e-002
3.604456e+003;4.478518e-002
3.606385e+003;4.384520e-002
3.608313e+003;4.286263e-002
3.610242e+003;4.299302e-002
3.612170e+003;4.317898e-002
3.614099e+003;4.285597e-002
3.616028e+003;4.233607e-002
3.617956e+003;4.125863e-002
3.619885e+003;4.122008e-002
3.621813e+003;4.201030e-002
3.623742e+003;4.168054e-002
3.625670e+003;4.045479e-002
3.627599e+003;3.757439e-002
3.629527e+003;3.756525e-002
3.631456e+003;4.026273e-002
3.633385e+003;4.076425e-002
3.635313e+003;4.072142e-002
3.637241e+003;4.011186e-002
3.639170e+003;3.962597e-002
3.641099e+003;3.943061e-002
3.643027e+003;3.912380e-002
3.644956e+003;3.799241e-002
3.646884e+003;3.552878e-002
3.648813e+003;3.333889e-002
3.650741e+003;3.370835e-002
3.652670e+003;3.517243e-002
3.654598e+003;3.469362e-002
3.656527e+003;3.458890e-002
3.658456e+003;3.578463e-002
3.660384e+003;3.647084e-002
3.662313e+003;3.616039e-002
3.664241e+003;3.503251e-002
3.666170e+003;3.435108e-002
3.668098e+003;3.249243e-002
3.670027e+003;3.048638e-002
3.671955e+003;3.127236e-002
3.673884e+003;2.962204e-002
3.675813e+003;2.834813e-002
3.677741e+003;3.075169e-002
3.679669e+003;3.262482e-002
3.681598e+003;3.314953e-002
3.683527e+003;3.238314e-002
3.685455e+003;3.114280e-002
3.687384e+003;2.798723e-002
3.689312e+003;2.753382e-002
3.691241e+003;2.980970e-002
3.693169e+003;3.152600e-002
3.695098e+003;3.143219e-002
3.697026e+003;3.048969e-002
3.698955e+003;3.013809e-002
3.700884e+003;2.979352e-002
3.702812e+003;3.007630e-002
3.704741e+003;3.053792e-002
3.706669e+003;2.999002e-002
3.708598e+003;2.865715e-002
3.710526e+003;2.741553e-002
3.712455e+003;2.759641e-002
3.714383e+003;2.911249e-002
3.716312e+003;2.975214e-002
3.718240e+003;2.947032e-002
3.720169e+003;2.899714e-002
3.722098e+003;2.838506e-002
3.724026e+003;2.849780e-002
3.725955e+003;2.848167e-002
3.727883e+003;2.857487e-002
3.729812e+003;2.832893e-002
3.731740e+003;2.698880e-002
3.733669e+003;2.595383e-002
3.735597e+003;2.510853e-002
3.737526e+003;2.683584e-002
3.739455e+003;2.825289e-002
3.741383e+003;2.686020e-002
3.743312e+003;2.245427e-002
3.745240e+003;2.326264e-002
3.747169e+003;2.566960e-002
3.749097e+003;2.361834e-002
3.751026e+003;2.309872e-002
3.752954e+003;2.594208e-002
3.754883e+003;2.849108e-002
3.756812e+003;2.843656e-002
3.758740e+003;2.822556e-002
3.760668e+003;2.821028e-002
3.762597e+003;2.873336e-002
3.764526e+003;2.869085e-002
3.766454e+003;2.901761e-002
3.768383e+003;2.874140e-002
3.770311e+003;2.851351e-002
3.772240e+003;2.871534e-002
3.774168e+003;2.939397e-002
3.776097e+003;2.933633e-002
3.778025e+003;2.854108e-002
3.779954e+003;2.921780e-002
3.781883e+003;3.016867e-002
3.783811e+003;2.937579e-002
3.785740e+003;2.870787e-002
3.787668e+003;2.916649e-002
3.789597e+003;3.028916e-002
3.791525e+003;3.013638e-002
3.793454e+003;2.948893e-002
3.795382e+003;2.903653e-002
3.797311e+003;2.902126e-002
3.799240e+003;2.696409e-002
3.801168e+003;2.510824e-002
3.803097e+003;2.719010e-002
3.805025e+003;2.772364e-002
3.806954e+003;2.780252e-002
3.808882e+003;2.958643e-002
3.810811e+003;3.013930e-002
3.812739e+003;3.002580e-002
3.814668e+003;2.769179e-002
3.816596e+003;2.726154e-002
3.818525e+003;2.832652e-002
3.820454e+003;2.650603e-002
3.822382e+003;2.702991e-002
3.824311e+003;2.864714e-002
3.826239e+003;2.916280e-002
3.828168e+003;2.939507e-002
3.830096e+003;2.880778e-002
3.832025e+003;2.872476e-002
3.833953e+003;2.849692e-002
3.835882e+003;2.631536e-002
3.837811e+003;2.529466e-002
3.839739e+003;2.721730e-002
3.841667e+003;2.827697e-002
3.843596e+003;2.874876e-002
3.845525e+003;3.005840e-002
3.847453e+003;3.049736e-002
3.849382e+003;2.849936e-002
3.851310e+003;2.411945e-002
3.853239e+003;2.118295e-002
3.855167e+003;2.529206e-002
3.857096e+003;2.967142e-002
3.859024e+003;3.072082e-002
3.860953e+003;3.040638e-002
3.862882e+003;2.872695e-002
3.864810e+003;2.779033e-002
3.866739e+003;2.885558e-002
3.868667e+003;2.849554e-002
3.870596e+003;2.877461e-002
3.872524e+003;3.019399e-002
3.874453e+003;3.132477e-002
3.876381e+003;3.172535e-002
3.878310e+003;3.017726e-002
3.880239e+003;2.931549e-002
3.882167e+003;3.010598e-002
3.884096e+003;2.956050e-002
3.886024e+003;2.958749e-002
3.887953e+003;3.081322e-002
3.889881e+003;2.935934e-002
3.891810e+003;2.890289e-002
3.893738e+003;3.069233e-002
3.895667e+003;3.182299e-002
3.897595e+003;3.098246e-002
3.899524e+003;3.007630e-002
3.901453e+003;2.958923e-002
3.903381e+003;2.935813e-002
3.905310e+003;3.068067e-002
3.907238e+003;3.230689e-002
3.909167e+003;3.256039e-002
3.911095e+003;3.241923e-002
3.913024e+003;3.251803e-002
3.914952e+003;3.191809e-002
3.916881e+003;3.112265e-002
3.918810e+003;3.139536e-002
3.920738e+003;3.156579e-002
3.922667e+003;3.171323e-002
3.924595e+003;3.206136e-002
3.926524e+003;3.229376e-002
3.928452e+003;3.184870e-002
3.930381e+003;3.134347e-002
3.932309e+003;3.136142e-002
3.934238e+003;3.203596e-002
3.936167e+003;3.260810e-002
3.938095e+003;3.286299e-002
3.940023e+003;3.283611e-002
3.941952e+003;3.236907e-002
3.943881e+003;3.233141e-002
3.945809e+003;3.263096e-002
3.947738e+003;3.224340e-002
3.949666e+003;3.261067e-002
3.951595e+003;3.326673e-002
3.953523e+003;3.386482e-002
3.955452e+003;3.458363e-002
3.957380e+003;3.503075e-002
3.959309e+003;3.461632e-002
3.961238e+003;3.385057e-002
3.963166e+003;3.367770e-002
3.965095e+003;3.370663e-002
3.967023e+003;3.350855e-002
3.968952e+003;3.349441e-002
3.970880e+003;3.381933e-002
3.972809e+003;3.319684e-002
3.974737e+003;3.282622e-002
3.976666e+003;3.297883e-002
3.978594e+003;3.340806e-002
3.980523e+003;3.352158e-002
3.982452e+003;3.278966e-002
3.984380e+003;3.360949e-002
3.986309e+003;3.444246e-002
3.988237e+003;3.447277e-002
3.990166e+003;3.452282e-002
3.992094e+003;3.489569e-002
3.994023e+003;3.513514e-002
3.995951e+003;3.489755e-002
3.997880e+003;3.480310e-002
3.999809e+003;3.412450e-002
4.001737e+003;0.000000e+000
