3.992094e+002;0.000000e+000
4.011380e+002;0.000000e+000
4.030665e+002;0.000000e+000
4.049951e+002;0.000000e+000
4.069236e+002;0.000000e+000
4.088522e+002;0.000000e+000
4.107807e+002;0.000000e+000
4.127093e+002;0.000000e+000
4.146378e+002;0.000000e+000
4.165664e+002;0.000000e+000
4.184949e+002;0.000000e+000
4.204235e+002;0.000000e+000
4.223520e+002;0.000000e+000
4.242806e+002;0.000000e+000
4.262091e+002;0.000000e+000
4.281377e+002;0.000000e+000
4.300662e+002;0.000000e+000
4.319948e+002;0.000000e+000
4.339233e+002;0.000000e+000
4.358519e+002;0.000000e+000
4.377804e+002;0.000000e+000
4.397090e+002;0.000000e+000
4.416375e+002;0.000000e+000
4.435660e+002;0.000000e+000
4.454946e+002;0.000000e+000
4.474232e+002;0.000000e+000
4.493517e+002;0.000000e+000
4.512802e+002;0.000000e+000
4.532088e+002;0.000000e+000
4.551373e+002;0.000000e+000
4.570659e+002;0.000000e+000
4.589944e+002;0.000000e+000
4.609230e+002;0.000000e+000
4.628515e+002;0.000000e+000
4.647801e+002;0.000000e+000
4.667086e+002;0.000000e+000
4.686372e+002;0.000000e+000
4.705657e+002;0.000000e+000
4.724943e+002;0.000000e+000
4.744228e+002;0.000000e+000
4.763513e+002;0.000000e+000
4.782799e+002;0.000000e+000
4.802085e+002;0.000000e+000
4.821370e+002;0.000000e+000
4.840656e+002;0.000000e+000
4.859941e+002;0.000000e+000
4.879226e+002;0.000000e+000
4.898512e+002;0.000000e+000
4.917798e+002;0.000000e+000
4.937083e+002;0.000000e+000
4.956368e+002;0.000000e+000
4.975654e+002;0.000000e+000
4.994939e+002;0.000000e+000
5.014225e+002;0.000000e+000
5.033510e+002;0.000000e+000
5.052796e+002;0.000000e+000
5.072081e+002;0.000000e+000
5.091367e+002;0.000000e+000
5.110652e+002;0.000000e+000
5.129938e+002;0.000000e+000
5.149223e+002;0.000000e+000
5.168509e+002;0.000000e+000
5.187794e+002;0.000000e+000
5.207079e+002;0.000000e+000
5.226365e+002;0.000000e+000
5.245651e+002;0.000000e+000
5.264936e+002;0.000000e+000
5.284222e+002;0.000000e+000
5.303507e+002;0.000000e+000
5.322792e+002;0.000000e+000
5.342078e+002;0.000000e+000
5.361364e+002;0.000000e+000
5.380649e+002;0.000000e+000
5.399935e+002;0.000000e+000
5.419220e+002;0.000000e+000
5.438505e+002;0.000000e+000
5.457791e+002;0.000000e+000
5.477076e+002;0.000000e+000
5.496362e+002;0.000000e+000
5.515648e+002;0.000000e+000
5.534933e+002;0.000000e+000
5.554218e+002;0.000000e+000
5.573504e+002;0.000000e+000
5.592789e+002;0.000000e+000
5.612075e+002;0.000000e+000
5.631360e+002;0.000000e+000
5.650646e+002;0.000000e+000
5.669931e+002;0.000000e+000
5.689217e+002;0.000000e+000
5.708502e+002;0.000000e+000
5.727787e+002;0.000000e+000
5.747073e+002;0.000000e+000
5.766359e+002;0.000000e+000
5.785644e+002;0.000000e+000
5.804930e+002;0.000000e+000
5.824215e+002;0.000000e+000
5.843500e+002;0.000000e+000
5.862786e+002;0.000000e+000
5.882072e+002;0.000000e+000
5.901357e+002;0.000000e+000
5.920643e+002;0.000000e+000
5.939928e+002;0.000000e+000
5.959213e+002;0.000000e+000
5.978499e+002;0.000000e+000
5.997784e+002;2.526229e-001
6.017070e+002;2.576145e-001
6.036355e+002;2.606605e-001
6.055641e+002;2.632444e-001
6.074926e+002;2.703186e-001
6.094211e+002;2.725932e-001
6.113497e+002;2.635843e-001
6.132783e+002;2.606131e-001
6.152068e+002;2.629895e-001
6.171354e+002;2.615453e-001
6.190639e+002;2.607447e-001
6.209924e+002;2.623031e-001
6.229210e+002;2.555536e-001
6.248495e+002;2.461070e-001
6.267781e+002;2.409406e-001
6.287067e+002;2.391465e-001
6.306352e+002;2.388767e-001
6.325637e+002;2.334277e-001
6.344923e+002;2.261789e-001
6.364208e+002;2.228879e-001
6.383494e+002;2.248925e-001
6.402780e+002;2.252589e-001
6.422065e+002;2.214833e-001
6.441350e+002;2.199193e-001
6.460636e+002;2.197325e-001
6.479921e+002;2.209552e-001
6.499207e+002;2.218021e-001
6.518492e+002;2.179673e-001
6.537778e+002;2.209166e-001
6.557063e+002;2.299916e-001
6.576349e+002;2.355666e-001
6.595634e+002;2.382642e-001
6.614919e+002;2.388728e-001
6.634205e+002;2.402613e-001
6.653491e+002;2.418747e-001
6.672776e+002;2.377409e-001
6.692062e+002;2.344897e-001
6.711347e+002;2.313371e-001
6.730632e+002;2.254892e-001
6.749918e+002;2.186115e-001
6.769203e+002;2.116027e-001
6.788489e+002;2.067980e-001
6.807775e+002;2.049615e-001
6.827060e+002;2.042410e-001
6.846345e+002;2.026495e-001
6.865631e+002;2.009270e-001
6.884916e+002;2.004647e-001
6.904202e+002;2.020051e-001
6.923488e+002;2.049151e-001
6.942773e+002;2.080467e-001
6.962058e+002;2.106684e-001
6.981344e+002;2.127544e-001
7.000629e+002;2.138127e-001
7.019915e+002;2.129874e-001
7.039200e+002;2.090705e-001
7.058486e+002;2.031472e-001
7.077771e+002;1.970358e-001
7.097057e+002;1.917404e-001
7.116342e+002;1.870424e-001
7.135627e+002;1.833277e-001
7.154913e+002;1.800724e-001
7.174199e+002;1.761400e-001
7.193484e+002;1.727942e-001
7.212770e+002;1.687066e-001
7.232055e+002;1.628374e-001
7.251340e+002;1.579211e-001
7.270626e+002;1.557805e-001
7.289911e+002;1.540197e-001
7.309197e+002;1.518183e-001
7.328483e+002;1.491608e-001
7.347768e+002;1.461781e-001
7.367053e+002;1.443039e-001
7.386339e+002;1.420890e-001
7.405624e+002;1.407789e-001
7.424910e+002;1.407009e-001
7.444196e+002;1.398453e-001
7.463481e+002;1.382292e-001
7.482766e+002;1.359527e-001
7.502052e+002;1.349841e-001
7.521337e+002;1.347112e-001
7.540623e+002;1.342856e-001
7.559908e+002;1.342731e-001
7.579194e+002;1.341571e-001
7.598479e+002;1.337650e-001
7.617765e+002;1.334907e-001
7.637050e+002;1.321549e-001
7.656335e+002;1.304104e-001
7.675621e+002;1.290831e-001
7.694907e+002;1.273123e-001
7.714192e+002;1.253894e-001
7.733478e+002;1.243653e-001
7.752763e+002;1.241951e-001
7.772048e+002;1.239231e-001
7.791334e+002;1.234839e-001
7.810620e+002;1.227708e-001
7.829905e+002;1.218988e-001
7.849191e+002;1.214876e-001
7.868476e+002;1.224944e-001
7.887761e+002;1.236089e-001
7.907047e+002;1.243216e-001
7.926332e+002;1.252812e-001
7.945618e+002;1.263396e-001
7.964903e+002;1.262733e-001
7.984189e+002;1.261667e-001
8.003474e+002;1.272475e-001
8.022759e+002;1.275169e-001
8.042045e+002;1.272404e-001
8.061331e+002;1.275821e-001
8.080616e+002;1.269179e-001
8.099902e+002;1.260295e-001
8.119187e+002;1.258453e-001
8.138472e+002;1.260825e-001
8.157758e+002;1.256107e-001
8.177043e+002;1.241314e-001
8.196329e+002;1.232416e-001
8.215615e+002;1.224328e-001
8.234900e+002;1.214516e-001
8.254185e+002;1.207177e-001
8.273471e+002;1.200161e-001
8.292756e+002;1.190031e-001
8.312042e+002;1.178641e-001
8.331328e+002;1.172539e-001
8.350613e+002;1.172580e-001
8.369898e+002;1.175716e-001
8.389184e+002;1.173785e-001
8.408469e+002;1.164711e-001
8.427755e+002;1.161871e-001
8.447040e+002;1.162415e-001
8.466326e+002;1.161856e-001
8.485611e+002;1.163755e-001
8.504897e+002;1.165427e-001
8.524182e+002;1.163132e-001
8.543467e+002;1.170403e-001
8.562753e+002;1.178813e-001
8.582039e+002;1.181577e-001
8.601324e+002;1.185823e-001
8.620610e+002;1.192870e-001
8.639895e+002;1.204467e-001
8.659180e+002;1.215317e-001
8.678466e+002;1.225242e-001
8.697751e+002;1.234685e-001
8.717037e+002;1.248207e-001
8.736323e+002;1.263777e-001
8.755608e+002;1.280718e-001
8.774893e+002;1.299413e-001
8.794179e+002;1.318807e-001
8.813464e+002;1.337902e-001
8.832750e+002;1.359164e-001
8.852036e+002;1.382005e-001
8.871321e+002;1.405420e-001
8.890606e+002;1.434748e-001
8.909892e+002;1.463771e-001
8.929177e+002;1.485464e-001
8.948463e+002;1.495691e-001
8.967748e+002;1.502039e-001
8.987034e+002;1.509894e-001
9.006319e+002;1.508244e-001
9.025605e+002;1.503009e-001
9.044890e+002;1.499707e-001
9.064175e+002;1.490243e-001
9.083461e+002;1.477121e-001
9.102747e+002;1.466778e-001
9.122032e+002;1.454326e-001
9.141318e+002;1.440736e-001
9.160603e+002;1.433840e-001
9.179888e+002;1.432256e-001
9.199174e+002;1.437739e-001
9.218459e+002;1.446505e-001
9.237745e+002;1.460345e-001
9.257031e+002;1.477496e-001
9.276316e+002;1.494207e-001
9.295601e+002;1.511939e-001
9.314887e+002;1.534438e-001
9.334172e+002;1.559347e-001
9.353458e+002;1.576215e-001
9.372744e+002;1.593926e-001
9.392029e+002;1.613247e-001
9.411314e+002;1.632818e-001
9.430600e+002;1.656877e-001
9.449885e+002;1.681076e-001
9.469171e+002;1.709099e-001
9.488456e+002;1.744011e-001
9.507742e+002;1.781383e-001
9.527027e+002;1.815055e-001
9.546313e+002;1.853268e-001
9.565598e+002;1.900502e-001
9.584883e+002;1.950322e-001
9.604169e+002;2.000473e-001
9.623455e+002;2.054703e-001
9.642740e+002;2.113813e-001
9.662026e+002;2.176670e-001
9.681311e+002;2.245000e-001
9.700596e+002;2.323408e-001
9.719882e+002;2.414673e-001
9.739167e+002;2.522647e-001
9.758453e+002;2.651707e-001
9.777739e+002;2.800573e-001
9.797024e+002;2.954094e-001
9.816309e+002;3.079841e-001
9.835595e+002;3.150379e-001
9.854880e+002;3.166921e-001
9.874166e+002;3.166044e-001
9.893452e+002;3.181529e-001
9.912737e+002;3.225800e-001
9.932022e+002;3.290214e-001
9.951307e+002;3.365580e-001
9.970593e+002;3.443655e-001
9.989879e+002;3.502994e-001
1.000916e+003;3.528073e-001
1.002845e+003;3.531736e-001
1.004773e+003;3.535722e-001
1.006702e+003;3.537960e-001
1.008631e+003;3.546372e-001
1.010559e+003;3.577720e-001
1.012488e+003;3.618074e-001
1.014416e+003;3.658665e-001
1.016345e+003;3.696575e-001
1.018273e+003;3.735688e-001
1.020202e+003;3.787184e-001
1.022130e+003;3.851090e-001
1.024059e+003;3.915333e-001
1.025988e+003;3.980100e-001
1.027916e+003;4.037717e-001
1.029845e+003;4.076940e-001
1.031773e+003;4.077630e-001
1.033702e+003;4.026833e-001
1.035630e+003;3.942598e-001
1.037559e+003;3.848185e-001
1.039487e+003;3.757709e-001
1.041416e+003;3.698463e-001
1.043344e+003;3.692434e-001
1.045273e+003;3.727214e-001
1.047202e+003;3.787700e-001
1.049130e+003;3.862101e-001
1.051059e+003;3.937131e-001
1.052987e+003;3.988647e-001
1.054916e+003;3.993177e-001
1.056844e+003;3.946614e-001
1.058773e+003;3.851188e-001
1.060701e+003;3.693358e-001
1.062630e+003;3.492487e-001
1.064558e+003;3.289925e-001
1.066487e+003;3.106445e-001
1.068416e+003;2.954449e-001
1.070344e+003;2.839446e-001
1.072273e+003;2.757797e-001
1.074201e+003;2.695040e-001
1.076130e+003;2.640210e-001
1.078058e+003;2.586303e-001
1.079987e+003;2.533003e-001
1.081915e+003;2.495787e-001
1.083844e+003;2.481522e-001
1.085773e+003;2.482410e-001
1.087701e+003;2.492110e-001
1.089630e+003;2.509718e-001
1.091558e+003;2.530620e-001
1.093487e+003;2.563502e-001
1.095415e+003;2.604795e-001
1.097344e+003;2.649452e-001
1.099272e+003;2.689706e-001
1.101201e+003;2.715451e-001
1.103129e+003;2.724876e-001
1.105058e+003;2.722390e-001
1.106987e+003;2.706267e-001
1.108915e+003;2.674202e-001
1.110844e+003;2.624273e-001
1.112772e+003;2.551259e-001
1.114701e+003;2.440252e-001
1.116629e+003;2.306752e-001
1.118558e+003;2.181557e-001
1.120486e+003;2.084149e-001
1.122415e+003;2.007903e-001
1.124344e+003;1.928780e-001
1.126272e+003;1.843895e-001
1.128201e+003;1.761309e-001
1.130129e+003;1.692185e-001
1.132058e+003;1.643016e-001
1.133986e+003;1.606326e-001
1.135915e+003;1.581476e-001
1.137843e+003;1.573277e-001
1.139772e+003;1.584822e-001
1.141700e+003;1.618553e-001
1.143629e+003;1.668264e-001
1.145557e+003;1.722014e-001
1.147486e+003;1.764410e-001
1.149415e+003;1.800007e-001
1.151343e+003;1.835180e-001
1.153272e+003;1.874646e-001
1.155200e+003;1.912519e-001
1.157129e+003;1.945533e-001
1.159057e+003;1.971313e-001
1.160986e+003;1.975515e-001
1.162914e+003;1.946193e-001
1.164843e+003;1.886082e-001
1.166771e+003;1.800258e-001
1.168700e+003;1.699567e-001
1.170629e+003;1.603771e-001
1.172557e+003;1.521369e-001
1.174486e+003;1.451093e-001
1.176414e+003;1.399013e-001
1.178343e+003;1.355767e-001
1.180271e+003;1.316876e-001
1.182200e+003;1.288412e-001
1.184128e+003;1.265930e-001
1.186057e+003;1.251606e-001
1.187986e+003;1.247383e-001
1.189914e+003;1.251047e-001
1.191843e+003;1.263285e-001
1.193771e+003;1.279621e-001
1.195700e+003;1.300449e-001
1.197628e+003;1.320757e-001
1.199557e+003;1.339623e-001
1.201485e+003;1.352177e-001
1.203414e+003;1.354327e-001
1.205343e+003;1.348931e-001
1.207271e+003;1.331236e-001
1.209200e+003;1.295045e-001
1.211128e+003;1.251736e-001
1.213057e+003;1.222569e-001
1.214985e+003;1.213754e-001
1.216914e+003;1.218796e-001
1.218842e+003;1.229482e-001
1.220771e+003;1.241350e-001
1.222699e+003;1.253417e-001
1.224628e+003;1.270226e-001
1.226557e+003;1.292164e-001
1.228485e+003;1.313951e-001
1.230414e+003;1.331600e-001
1.232342e+003;1.353987e-001
1.234271e+003;1.377456e-001
1.236199e+003;1.390755e-001
1.238128e+003;1.397157e-001
1.240056e+003;1.400794e-001
1.241985e+003;1.408242e-001
1.243913e+003;1.419716e-001
1.245842e+003;1.434599e-001
1.247771e+003;1.451332e-001
1.249699e+003;1.454727e-001
1.251628e+003;1.452268e-001
1.253556e+003;1.457633e-001
1.255485e+003;1.467902e-001
1.257413e+003;1.482496e-001
1.259342e+003;1.493670e-001
1.261270e+003;1.493890e-001
1.263199e+003;1.484728e-001
1.265127e+003;1.469271e-001
1.267056e+003;1.450898e-001
1.268985e+003;1.438143e-001
1.270913e+003;1.436286e-001
1.272842e+003;1.438115e-001
1.274770e+003;1.436363e-001
1.276699e+003;1.430644e-001
1.278627e+003;1.421257e-001
1.280556e+003;1.407023e-001
1.282484e+003;1.388848e-001
1.284413e+003;1.373118e-001
1.286342e+003;1.362901e-001
1.288270e+003;1.355891e-001
1.290199e+003;1.352182e-001
1.292127e+003;1.350588e-001
1.294056e+003;1.351757e-001
1.295984e+003;1.357286e-001
1.297913e+003;1.372220e-001
1.299841e+003;1.396956e-001
1.301770e+003;1.430562e-001
1.303698e+003;1.470677e-001
1.305627e+003;1.512857e-001
1.307556e+003;1.560801e-001
1.309484e+003;1.607658e-001
1.311413e+003;1.643001e-001
1.313341e+003;1.662274e-001
1.315270e+003;1.657598e-001
1.317198e+003;1.629655e-001
1.319127e+003;1.591888e-001
1.321055e+003;1.549036e-001
1.322984e+003;1.511227e-001
1.324912e+003;1.489594e-001
1.326841e+003;1.482321e-001
1.328770e+003;1.486277e-001
1.330698e+003;1.501372e-001
1.332627e+003;1.520541e-001
1.334555e+003;1.528452e-001
1.336484e+003;1.520172e-001
1.338412e+003;1.498798e-001
1.340341e+003;1.471784e-001
1.342269e+003;1.443461e-001
1.344198e+003;1.411330e-001
1.346126e+003;1.381316e-001
1.348055e+003;1.359147e-001
1.349984e+003;1.347842e-001
1.351912e+003;1.350305e-001
1.353841e+003;1.360861e-001
1.355769e+003;1.371883e-001
1.357698e+003;1.382132e-001
1.359626e+003;1.388090e-001
1.361555e+003;1.379293e-001
1.363483e+003;1.362462e-001
1.365412e+003;1.352566e-001
1.367341e+003;1.348790e-001
1.369269e+003;1.344228e-001
1.371198e+003;1.331256e-001
1.373126e+003;1.303187e-001
1.375055e+003;1.270096e-001
1.376983e+003;1.242042e-001
1.378912e+003;1.214091e-001
1.380840e+003;1.184564e-001
1.382769e+003;1.156638e-001
1.384698e+003;1.130312e-001
1.386626e+003;1.108025e-001
1.388555e+003;1.100110e-001
1.390483e+003;1.099571e-001
1.392412e+003;1.096137e-001
1.394340e+003;1.092526e-001
1.396269e+003;1.095455e-001
1.398197e+003;1.095906e-001
1.400126e+003;1.096433e-001
1.402054e+003;1.099176e-001
1.403983e+003;1.097217e-001
1.405911e+003;1.097589e-001
1.407840e+003;1.100607e-001
1.409769e+003;1.101700e-001
1.411697e+003;1.106685e-001
1.413626e+003;1.118053e-001
1.415554e+003;1.127826e-001
1.417483e+003;1.132875e-001
1.419411e+003;1.149058e-001
1.421340e+003;1.180092e-001
1.423268e+003;1.201483e-001
1.425197e+003;1.217224e-001
1.427125e+003;1.228147e-001
1.429054e+003;1.229583e-001
1.430983e+003;1.228740e-001
1.432911e+003;1.220951e-001
1.434840e+003;1.196856e-001
1.436768e+003;1.176783e-001
1.438697e+003;1.180977e-001
1.440625e+003;1.186282e-001
1.442554e+003;1.194176e-001
1.444482e+003;1.208156e-001
1.446411e+003;1.219166e-001
1.448340e+003;1.229353e-001
1.450268e+003;1.244503e-001
1.452197e+003;1.250104e-001
1.454125e+003;1.232554e-001
1.456054e+003;1.188002e-001
1.457982e+003;1.161578e-001
1.459911e+003;1.157045e-001
1.461839e+003;1.141101e-001
1.463768e+003;1.108007e-001
1.465697e+003;1.081673e-001
1.467625e+003;1.064348e-001
1.469554e+003;1.037116e-001
1.471482e+003;1.005617e-001
1.473411e+003;9.821854e-002
1.475339e+003;9.567335e-002
1.477268e+003;9.322976e-002
1.479196e+003;9.167410e-002
1.481125e+003;9.025722e-002
1.483053e+003;8.857772e-002
1.484982e+003;8.610348e-002
1.486911e+003;8.352397e-002
1.488839e+003;8.159405e-002
1.490768e+003;8.139458e-002
1.492696e+003;8.271785e-002
1.494625e+003;8.230632e-002
1.496553e+003;8.029481e-002
1.498482e+003;7.927588e-002
1.500410e+003;7.889195e-002
1.502339e+003;7.838833e-002
1.504267e+003;7.611942e-002
1.506196e+003;7.378947e-002
1.508125e+003;7.515220e-002
1.510053e+003;7.716718e-002
1.511982e+003;7.774720e-002
1.513910e+003;7.810532e-002
1.515839e+003;7.771058e-002
1.517767e+003;7.740316e-002
1.519696e+003;7.694805e-002
1.521624e+003;7.728552e-002
1.523553e+003;7.910017e-002
1.525481e+003;7.994706e-002
1.527410e+003;8.110937e-002
1.529339e+003;8.254295e-002
1.531267e+003;8.317302e-002
1.533196e+003;8.345276e-002
1.535124e+003;8.515271e-002
1.537053e+003;8.509760e-002
1.538981e+003;8.269412e-002
1.540910e+003;8.355413e-002
1.542838e+003;8.650921e-002
1.544767e+003;8.837824e-002
1.546695e+003;8.965170e-002
1.548624e+003;9.043281e-002
1.550553e+003;9.118707e-002
1.552481e+003;9.151171e-002
1.554410e+003;9.097303e-002
1.556338e+003;8.943148e-002
1.558267e+003;8.630674e-002
1.560195e+003;8.671836e-002
1.562124e+003;8.970465e-002
1.564052e+003;9.055177e-002
1.565981e+003;9.029438e-002
1.567910e+003;8.932687e-002
1.569838e+003;8.838157e-002
1.571767e+003;8.873540e-002
1.573695e+003;8.803146e-002
1.575624e+003;8.639769e-002
1.577552e+003;8.727228e-002
1.579481e+003;8.857537e-002
1.581409e+003;8.882503e-002
1.583338e+003;8.871483e-002
1.585266e+003;8.821448e-002
1.587195e+003;8.794800e-002
1.589124e+003;8.760369e-002
1.591052e+003;8.731210e-002
1.592981e+003;8.714502e-002
1.594909e+003;8.725685e-002
1.596838e+003;8.776145e-002
1.598766e+003;8.816828e-002
1.600695e+003;8.818756e-002
1.602623e+003;8.816174e-002
1.604552e+003;8.785969e-002
1.606480e+003;8.738689e-002
1.608409e+003;8.708712e-002
1.610338e+003;8.695655e-002
1.612266e+003;8.707979e-002
1.614195e+003;8.658548e-002
1.616123e+003;8.511490e-002
1.618052e+003;8.601619e-002
1.619980e+003;8.741944e-002
1.621909e+003;8.696286e-002
1.623837e+003;8.690972e-002
1.625766e+003;8.760028e-002
1.627694e+003;8.787043e-002
1.629623e+003;8.825962e-002
1.631552e+003;8.865956e-002
1.633480e+003;8.760352e-002
1.635409e+003;8.633427e-002
1.637337e+003;8.780136e-002
1.639266e+003;8.946995e-002
1.641194e+003;9.021346e-002
1.643123e+003;9.005781e-002
1.645051e+003;8.892696e-002
1.646980e+003;8.876662e-002
1.648909e+003;8.970950e-002
1.650837e+003;8.789247e-002
1.652766e+003;8.512384e-002
1.654694e+003;8.793733e-002
1.656623e+003;9.110223e-002
1.658551e+003;9.165858e-002
1.660480e+003;9.116194e-002
1.662408e+003;9.025783e-002
1.664337e+003;9.037670e-002
1.666266e+003;9.020244e-002
1.668194e+003;8.860385e-002
1.670123e+003;8.790334e-002
1.672051e+003;8.800428e-002
1.673980e+003;8.702335e-002
1.675908e+003;8.633415e-002
1.677837e+003;8.645830e-002
1.679765e+003;8.595472e-002
1.681694e+003;8.477185e-002
1.683622e+003;8.214380e-002
1.685551e+003;8.233652e-002
1.687479e+003;8.408050e-002
1.689408e+003;8.436043e-002
1.691337e+003;8.431464e-002
1.693265e+003;8.323013e-002
1.695194e+003;8.090290e-002
1.697122e+003;8.105773e-002
1.699051e+003;8.079553e-002
1.700979e+003;8.127575e-002
1.702908e+003;8.365446e-002
1.704836e+003;8.430719e-002
1.706765e+003;8.534108e-002
1.708693e+003;8.644423e-002
1.710622e+003;8.767338e-002
1.712551e+003;8.873817e-002
1.714479e+003;9.020191e-002
1.716408e+003;9.228069e-002
1.718336e+003;9.730453e-002
1.720265e+003;1.049845e-001
1.722193e+003;1.126643e-001
1.724122e+003;1.197857e-001
1.726050e+003;1.259302e-001
1.727979e+003;1.305633e-001
1.729908e+003;1.328031e-001
1.731836e+003;1.311933e-001
1.733765e+003;1.263094e-001
1.735693e+003;1.216534e-001
1.737622e+003;1.148252e-001
1.739550e+003;1.051066e-001
1.741479e+003;9.581726e-002
1.743407e+003;8.750490e-002
1.745336e+003;8.056065e-002
1.747265e+003;7.480938e-002
1.749193e+003;7.008960e-002
1.751122e+003;6.709351e-002
1.753050e+003;6.609544e-002
1.754979e+003;6.499909e-002
1.756907e+003;6.387878e-002
1.758836e+003;6.338169e-002
1.760764e+003;6.240809e-002
1.762693e+003;6.202453e-002
1.764621e+003;6.223968e-002
1.766550e+003;6.144163e-002
1.768479e+003;6.071305e-002
1.770407e+003;6.009097e-002
1.772336e+003;5.946336e-002
1.774264e+003;6.016476e-002
1.776193e+003;6.072311e-002
1.778121e+003;6.063536e-002
1.780050e+003;6.049491e-002
1.781978e+003;6.052322e-002
1.783907e+003;6.033909e-002
1.785835e+003;6.031275e-002
1.787764e+003;6.029177e-002
1.789693e+003;5.953639e-002
1.791621e+003;5.878095e-002
1.793550e+003;5.911025e-002
1.795478e+003;5.992852e-002
1.797407e+003;5.998163e-002
1.799335e+003;5.942642e-002
1.801264e+003;5.913428e-002
1.803192e+003;5.926977e-002
1.805121e+003;5.921292e-002
1.807049e+003;5.907373e-002
1.808978e+003;5.896616e-002
1.810907e+003;5.889625e-002
1.812835e+003;5.904549e-002
1.814764e+003;5.910163e-002
1.816692e+003;5.899489e-002
1.818621e+003;5.909347e-002
1.820549e+003;5.912832e-002
1.822478e+003;5.879662e-002
1.824406e+003;5.815503e-002
1.826335e+003;5.811700e-002
1.828264e+003;5.795401e-002
1.830192e+003;5.778172e-002
1.832121e+003;5.831576e-002
1.834049e+003;5.864334e-002
1.835978e+003;5.828920e-002
1.837906e+003;5.795397e-002
1.839835e+003;5.816523e-002
1.841763e+003;5.801668e-002
1.843692e+003;5.731230e-002
1.845620e+003;5.758022e-002
1.847549e+003;5.799460e-002
1.849478e+003;5.803698e-002
1.851406e+003;5.805421e-002
1.853335e+003;5.803576e-002
1.855263e+003;5.793572e-002
1.857192e+003;5.773244e-002
1.859120e+003;5.774459e-002
1.861049e+003;5.794832e-002
1.862977e+003;5.799134e-002
1.864906e+003;5.771273e-002
1.866834e+003;5.747544e-002
1.868763e+003;5.731034e-002
1.870692e+003;5.745449e-002
1.872620e+003;5.787291e-002
1.874549e+003;5.789744e-002
1.876477e+003;5.761787e-002
1.878406e+003;5.759513e-002
1.880334e+003;5.769827e-002
1.882263e+003;5.778653e-002
1.884191e+003;5.781923e-002
1.886120e+003;5.777680e-002
1.888048e+003;5.752484e-002
1.889977e+003;5.741372e-002
1.891906e+003;5.768832e-002
1.893834e+003;5.764496e-002
1.895763e+003;5.754175e-002
1.897691e+003;5.744775e-002
1.899620e+003;5.741198e-002
1.901548e+003;5.736773e-002
1.903477e+003;5.741716e-002
1.905405e+003;5.751470e-002
1.907334e+003;5.739560e-002
1.909262e+003;5.728686e-002
1.911191e+003;5.748773e-002
1.913120e+003;5.764484e-002
1.915048e+003;5.752159e-002
1.916977e+003;5.708801e-002
1.918905e+003;5.709681e-002
1.920834e+003;5.747063e-002
1.922762e+003;5.767398e-002
1.924691e+003;5.794780e-002
1.926619e+003;5.810469e-002
1.928548e+003;5.810617e-002
1.930477e+003;5.822349e-002
1.932405e+003;5.838837e-002
1.934334e+003;5.838000e-002
1.936262e+003;5.848011e-002
1.938191e+003;5.847521e-002
1.940119e+003;5.809621e-002
1.942048e+003;5.789415e-002
1.943976e+003;5.832357e-002
1.945905e+003;5.843746e-002
1.947833e+003;5.825017e-002
1.949762e+003;5.841282e-002
1.951691e+003;5.860174e-002
1.953619e+003;5.864774e-002
1.955548e+003;5.882929e-002
1.957476e+003;5.886290e-002
1.959405e+003;5.853458e-002
1.961333e+003;5.842518e-002
1.963262e+003;5.864755e-002
1.965190e+003;5.868623e-002
1.967119e+003;5.862730e-002
1.969047e+003;5.875849e-002
1.970976e+003;5.888157e-002
1.972905e+003;5.895356e-002
1.974833e+003;5.879150e-002
1.976762e+003;5.857895e-002
1.978690e+003;5.855313e-002
1.980619e+003;5.863177e-002
1.982547e+003;5.864042e-002
1.984476e+003;5.883505e-002
1.986404e+003;5.894616e-002
1.988333e+003;5.883809e-002
1.990261e+003;5.874336e-002
1.992190e+003;5.886715e-002
1.994119e+003;5.912954e-002
1.996047e+003;5.923194e-002
1.997976e+003;5.928842e-002
1.999904e+003;5.932389e-002
2.001833e+003;5.923923e-002
2.003761e+003;5.912126e-002
2.005690e+003;5.910695e-002
2.007618e+003;5.921983e-002
2.009547e+003;5.926529e-002
2.011476e+003;5.929146e-002
2.013404e+003;5.945355e-002
2.015333e+003;5.943064e-002
2.017261e+003;5.915786e-002
2.019190e+003;5.932967e-002
2.021118e+003;5.970200e-002
2.023047e+003;5.978427e-002
2.024975e+003;5.980112e-002
2.026904e+003;5.987372e-002
2.028833e+003;5.980542e-002
2.030761e+003;5.957424e-002
2.032690e+003;5.947015e-002
2.034618e+003;5.969215e-002
2.036547e+003;6.003104e-002
2.038475e+003;6.011840e-002
2.040404e+003;6.015231e-002
2.042332e+003;6.010208e-002
2.044261e+003;6.012267e-002
2.046189e+003;6.034203e-002
2.048118e+003;6.041684e-002
2.050047e+003;6.031279e-002
2.051975e+003;6.037347e-002
2.053904e+003;6.037477e-002
2.055832e+003;6.017575e-002
2.057761e+003;6.007358e-002
2.059689e+003;6.002838e-002
2.061618e+003;5.993005e-002
2.063546e+003;5.982511e-002
2.065475e+003;5.977286e-002
2.067404e+003;5.970416e-002
2.069332e+003;5.980112e-002
2.071260e+003;5.990517e-002
2.073189e+003;5.984747e-002
2.075118e+003;5.976321e-002
2.077046e+003;5.975480e-002
2.078975e+003;5.981184e-002
2.080903e+003;5.977815e-002
2.082832e+003;5.954714e-002
2.084760e+003;5.956694e-002
2.086689e+003;5.978819e-002
2.088617e+003;5.974096e-002
2.090546e+003;5.949242e-002
2.092475e+003;5.935933e-002
2.094403e+003;5.940583e-002
2.096332e+003;5.949463e-002
2.098260e+003;5.947924e-002
2.100189e+003;5.951906e-002
2.102117e+003;5.951769e-002
2.104046e+003;5.957044e-002
2.105974e+003;5.952184e-002
2.107903e+003;5.956193e-002
2.109832e+003;5.982686e-002
2.111760e+003;5.977994e-002
2.113688e+003;5.974302e-002
2.115617e+003;5.998117e-002
2.117546e+003;6.017305e-002
2.119474e+003;5.985067e-002
2.121403e+003;5.944614e-002
2.123331e+003;5.967519e-002
2.125260e+003;6.002416e-002
2.127188e+003;5.997729e-002
2.129117e+003;5.990791e-002
2.131045e+003;5.999304e-002
2.132974e+003;6.006030e-002
2.134903e+003;6.029261e-002
2.136831e+003;6.039514e-002
2.138760e+003;6.031146e-002
2.140688e+003;6.002557e-002
2.142617e+003;5.971070e-002
2.144545e+003;5.953316e-002
2.146474e+003;5.938771e-002
2.148402e+003;5.929768e-002
2.150331e+003;5.967500e-002
2.152260e+003;6.011038e-002
2.154188e+003;6.011920e-002
2.156117e+003;5.988064e-002
2.158045e+003;5.965197e-002
2.159974e+003;5.922811e-002
2.161902e+003;5.911928e-002
2.163831e+003;5.932864e-002
2.165759e+003;5.917882e-002
2.167688e+003;5.916283e-002
2.169616e+003;5.924007e-002
2.171545e+003;5.897185e-002
2.173474e+003;5.892073e-002
2.175402e+003;5.883126e-002
2.177331e+003;5.867774e-002
2.179259e+003;5.864838e-002
2.181188e+003;5.828628e-002
2.183116e+003;5.820534e-002
2.185045e+003;5.844697e-002
2.186973e+003;5.846953e-002
2.188902e+003;5.834338e-002
2.190831e+003;5.799536e-002
2.192759e+003;5.783180e-002
2.194688e+003;5.793246e-002
2.196616e+003;5.807219e-002
2.198545e+003;5.808977e-002
2.200473e+003;5.810454e-002
2.202402e+003;5.812147e-002
2.204330e+003;5.802069e-002
2.206259e+003;5.772798e-002
2.208188e+003;5.748550e-002
2.210116e+003;5.763561e-002
2.212044e+003;5.802966e-002
2.213973e+003;5.808204e-002
2.215902e+003;5.809291e-002
2.217830e+003;5.812693e-002
2.219759e+003;5.820440e-002
2.221687e+003;5.812659e-002
2.223616e+003;5.788828e-002
2.225544e+003;5.786893e-002
2.227473e+003;5.801364e-002
2.229401e+003;5.806068e-002
2.231330e+003;5.821171e-002
2.233259e+003;5.840861e-002
2.235187e+003;5.832088e-002
2.237116e+003;5.816746e-002
2.239044e+003;5.806080e-002
2.240973e+003;5.789074e-002
2.242901e+003;5.797688e-002
2.244830e+003;5.825100e-002
2.246758e+003;5.832436e-002
2.248687e+003;5.808735e-002
2.250615e+003;5.800883e-002
2.252544e+003;5.800115e-002
2.254473e+003;5.769540e-002
2.256401e+003;5.759876e-002
2.258330e+003;5.780136e-002
2.260258e+003;5.788843e-002
2.262187e+003;5.776545e-002
2.264115e+003;5.751114e-002
2.266044e+003;5.745498e-002
2.267972e+003;5.752287e-002
2.269901e+003;5.732138e-002
2.271830e+003;5.728742e-002
2.273758e+003;5.735159e-002
2.275687e+003;5.733022e-002
2.277615e+003;5.738286e-002
2.279544e+003;5.712674e-002
2.281472e+003;5.689563e-002
2.283401e+003;5.693884e-002
2.285329e+003;5.700907e-002
2.287258e+003;5.718752e-002
2.289187e+003;5.710399e-002
2.291115e+003;5.704395e-002
2.293043e+003;5.702022e-002
2.294972e+003;5.676518e-002
2.296901e+003;5.668846e-002
2.298829e+003;5.696808e-002
2.300758e+003;5.700061e-002
2.302686e+003;5.677225e-002
2.304615e+003;5.695947e-002
2.306543e+003;5.691912e-002
2.308472e+003;5.670387e-002
2.310400e+003;5.670122e-002
2.312329e+003;5.675752e-002
2.314258e+003;5.679438e-002
2.316186e+003;5.661243e-002
2.318115e+003;5.662677e-002
2.320043e+003;5.657269e-002
2.321972e+003;5.640476e-002
2.323900e+003;5.636601e-002
2.325829e+003;5.637107e-002
2.327757e+003;5.615736e-002
2.329686e+003;5.582570e-002
2.331615e+003;5.563245e-002
2.333543e+003;5.569858e-002
2.335472e+003;5.594689e-002
2.337400e+003;5.608701e-002
2.339329e+003;5.616185e-002
2.341257e+003;5.630015e-002
2.343186e+003;5.673097e-002
2.345114e+003;5.703779e-002
2.347043e+003;5.692846e-002
2.348971e+003;5.692286e-002
2.350900e+003;5.710154e-002
2.352829e+003;5.705544e-002
2.354757e+003;5.691485e-002
2.356686e+003;5.674283e-002
2.358614e+003;5.669307e-002
2.360543e+003;5.665456e-002
2.362471e+003;5.657061e-002
2.364400e+003;5.659654e-002
2.366328e+003;5.682319e-002
2.368257e+003;5.717493e-002
2.370186e+003;5.766338e-002
2.372114e+003;5.806814e-002
2.374042e+003;5.861513e-002
2.375971e+003;5.881824e-002
2.377900e+003;5.887667e-002
2.379828e+003;5.894748e-002
2.381757e+003;5.901201e-002
2.383685e+003;5.923510e-002
2.385614e+003;5.959705e-002
2.387542e+003;5.961567e-002
2.389471e+003;5.953190e-002
2.391399e+003;5.943269e-002
2.393328e+003;5.957112e-002
2.395257e+003;5.992765e-002
2.397185e+003;6.013834e-002
2.399114e+003;5.997634e-002
2.401042e+003;5.969569e-002
2.402971e+003;5.967227e-002
2.404899e+003;5.987151e-002
2.406828e+003;5.996374e-002
2.408756e+003;6.002960e-002
2.410685e+003;6.000065e-002
2.412614e+003;5.999791e-002
2.414542e+003;6.027906e-002
2.416471e+003;6.056504e-002
2.418399e+003;6.076175e-002
2.420328e+003;6.078957e-002
2.422256e+003;6.076164e-002
2.424185e+003;6.083219e-002
2.426113e+003;6.115625e-002
2.428042e+003;6.105271e-002
2.429970e+003;6.100988e-002
2.431899e+003;6.139472e-002
2.433828e+003;6.145201e-002
2.435756e+003;6.138919e-002
2.437685e+003;6.147793e-002
2.439613e+003;6.138984e-002
2.441542e+003;6.131374e-002
2.443470e+003;6.167529e-002
2.445399e+003;6.189100e-002
2.447327e+003;6.191847e-002
2.449256e+003;6.201447e-002
2.451185e+003;6.235721e-002
2.453113e+003;6.248365e-002
2.455042e+003;6.217243e-002
2.456970e+003;6.234975e-002
2.458899e+003;6.243464e-002
2.460827e+003;6.240702e-002
2.462756e+003;6.260457e-002
2.464684e+003;6.253132e-002
2.466613e+003;6.227338e-002
2.468542e+003;6.239363e-002
2.470470e+003;6.268667e-002
2.472398e+003;6.285674e-002
2.474327e+003;6.287558e-002
2.476256e+003;6.281749e-002
2.478184e+003;6.293870e-002
2.480113e+003;6.295045e-002
2.482041e+003;6.271392e-002
2.483970e+003;6.266500e-002
2.485898e+003;6.302760e-002
2.487827e+003;6.326407e-002
2.489755e+003;6.346221e-002
2.491684e+003;6.336481e-002
2.493613e+003;6.344084e-002
2.495541e+003;6.365717e-002
2.497470e+003;6.355548e-002
2.499398e+003;6.347547e-002
2.501327e+003;6.383967e-002
2.503255e+003;6.412586e-002
2.505184e+003;6.388442e-002
2.507112e+003;6.364156e-002
2.509041e+003;6.387448e-002
2.510969e+003;6.436185e-002
2.512898e+003;6.464595e-002
2.514827e+003;6.466522e-002
2.516755e+003;6.462473e-002
2.518684e+003;6.463861e-002
2.520612e+003;6.456836e-002
2.522541e+003;6.468033e-002
2.524469e+003;6.487946e-002
2.526398e+003;6.498408e-002
2.528326e+003;6.496765e-002
2.530255e+003;6.486776e-002
2.532184e+003;6.484984e-002
2.534112e+003;6.525470e-002
2.536041e+003;6.565696e-002
2.537969e+003;6.549223e-002
2.539898e+003;6.507433e-002
2.541826e+003;6.507044e-002
2.543755e+003;6.529193e-002
2.545683e+003;6.531481e-002
2.547612e+003;6.521065e-002
2.549541e+003;6.521749e-002
2.551469e+003;6.536376e-002
2.553397e+003;6.564813e-002
2.555326e+003;6.570186e-002
2.557255e+003;6.569774e-002
2.559183e+003;6.588326e-002
2.561112e+003;6.601308e-002
2.563040e+003;6.588222e-002
2.564969e+003;6.561091e-002
2.566897e+003;6.559499e-002
2.568826e+003;6.586359e-002
2.570754e+003;6.604563e-002
2.572683e+003;6.601169e-002
2.574612e+003;6.582457e-002
2.576540e+003;6.564289e-002
2.578469e+003;6.590243e-002
2.580397e+003;6.603873e-002
2.582326e+003;6.597088e-002
2.584254e+003;6.639763e-002
2.586183e+003;6.644678e-002
2.588111e+003;6.636443e-002
2.590040e+003;6.679481e-002
2.591969e+003;6.676394e-002
2.593897e+003;6.629116e-002
2.595826e+003;6.618874e-002
2.597754e+003;6.637663e-002
2.599683e+003;6.645964e-002
2.601611e+003;6.681174e-002
2.603540e+003;6.704243e-002
2.605468e+003;6.705012e-002
2.607397e+003;6.703578e-002
2.609325e+003;6.710549e-002
2.611254e+003;6.727139e-002
2.613183e+003;6.717832e-002
2.615111e+003;6.704865e-002
2.617040e+003;6.703230e-002
2.618968e+003;6.721781e-002
2.620897e+003;6.743800e-002
2.622825e+003;6.775925e-002
2.624754e+003;6.797650e-002
2.626682e+003;6.770848e-002
2.628611e+003;6.753155e-002
2.630540e+003;6.787053e-002
2.632468e+003;6.791245e-002
2.634396e+003;6.749207e-002
2.636325e+003;6.749976e-002
2.638254e+003;6.792341e-002
2.640182e+003;6.812590e-002
2.642111e+003;6.808551e-002
2.644039e+003;6.818645e-002
2.645968e+003;6.825639e-002
2.647896e+003;6.800874e-002
2.649825e+003;6.798301e-002
2.651753e+003;6.825053e-002
2.653682e+003;6.849145e-002
2.655611e+003;6.849983e-002
2.657539e+003;6.867945e-002
2.659468e+003;6.880685e-002
2.661396e+003;6.880067e-002
2.663325e+003;6.888752e-002
2.665253e+003;6.872071e-002
2.667182e+003;6.865349e-002
2.669110e+003;6.903441e-002
2.671039e+003;6.927238e-002
2.672968e+003;6.932769e-002
2.674896e+003;6.926318e-002
2.676825e+003;6.927025e-002
2.678753e+003;6.921957e-002
2.680682e+003;6.927845e-002
2.682610e+003;6.950431e-002
2.684539e+003;6.966886e-002
2.686467e+003;6.966127e-002
2.688396e+003;6.954976e-002
2.690324e+003;6.962316e-002
2.692253e+003;6.981623e-002
2.694182e+003;6.984639e-002
2.696110e+003;7.024487e-002
2.698039e+003;7.075976e-002
2.699967e+003;7.093290e-002
2.701896e+003;7.074276e-002
2.703824e+003;7.079139e-002
2.705753e+003;7.097937e-002
2.707681e+003;7.113867e-002
2.709610e+003;7.120815e-002
2.711539e+003;7.122279e-002
2.713467e+003;7.121549e-002
2.715396e+003;7.138253e-002
2.717324e+003;7.170722e-002
2.719253e+003;7.200360e-002
2.721181e+003;7.193345e-002
2.723110e+003;7.188106e-002
2.725038e+003;7.211985e-002
2.726967e+003;7.231182e-002
2.728896e+003;7.235178e-002
2.730824e+003;7.236704e-002
2.732752e+003;7.230407e-002
2.734681e+003;7.204385e-002
2.736610e+003;7.218237e-002
2.738538e+003;7.251815e-002
2.740467e+003;7.216969e-002
2.742395e+003;7.186792e-002
2.744324e+003;7.226818e-002
2.746252e+003;7.256984e-002
2.748181e+003;7.273215e-002
2.750109e+003;7.275417e-002
2.752038e+003;7.270516e-002
2.753967e+003;7.297456e-002
2.755895e+003;7.327604e-002
2.757824e+003;7.334077e-002
2.759752e+003;7.365546e-002
2.761681e+003;7.386036e-002
2.763609e+003;7.364035e-002
2.765538e+003;7.351848e-002
2.767466e+003;7.329974e-002
2.769395e+003;7.327918e-002
2.771323e+003;7.348049e-002
2.773252e+003;7.385125e-002
2.775181e+003;7.426888e-002
2.777109e+003;7.423695e-002
2.779038e+003;7.401305e-002
2.780966e+003;7.400052e-002
2.782895e+003;7.449939e-002
2.784823e+003;7.492375e-002
2.786752e+003;7.504082e-002
2.788680e+003;7.505724e-002
2.790609e+003;7.508111e-002
2.792538e+003;7.521461e-002
2.794466e+003;7.570328e-002
2.796395e+003;7.618515e-002
2.798323e+003;7.621595e-002
2.800252e+003;7.648595e-002
2.802180e+003;7.701938e-002
2.804109e+003;7.764295e-002
2.806037e+003;7.802930e-002
2.807966e+003;7.831027e-002
2.809895e+003;7.836825e-002
2.811823e+003;7.839599e-002
2.813751e+003;7.910410e-002
2.815680e+003;7.985825e-002
2.817609e+003;8.016751e-002
2.819537e+003;8.048867e-002
2.821466e+003;8.106385e-002
2.823394e+003;8.158949e-002
2.825323e+003;8.199770e-002
2.827251e+003;8.258991e-002
2.829180e+003;8.335231e-002
2.831108e+003;8.425678e-002
2.833037e+003;8.542486e-002
2.834966e+003;8.629866e-002
2.836894e+003;8.732799e-002
2.838823e+003;8.922257e-002
2.840751e+003;9.151813e-002
2.842680e+003;9.418214e-002
2.844608e+003;9.747196e-002
2.846537e+003;1.016802e-001
2.848465e+003;1.062986e-001
2.850394e+003;1.088064e-001
2.852323e+003;1.078024e-001
2.854251e+003;1.052455e-001
2.856180e+003;1.034927e-001
2.858108e+003;1.024791e-001
2.860037e+003;1.018800e-001
2.861965e+003;1.021869e-001
2.863894e+003;1.032597e-001
2.865822e+003;1.043210e-001
2.867751e+003;1.050922e-001
2.869679e+003;1.057675e-001
2.871608e+003;1.068175e-001
2.873536e+003;1.073945e-001
2.875465e+003;1.073010e-001
2.877394e+003;1.071728e-001
2.879322e+003;1.070158e-001
2.881251e+003;1.067073e-001
2.883179e+003;1.066697e-001
2.885108e+003;1.072884e-001
2.887036e+003;1.086442e-001
2.888965e+003;1.099369e-001
2.890893e+003;1.104689e-001
2.892822e+003;1.109607e-001
2.894750e+003;1.116313e-001
2.896679e+003;1.123862e-001
2.898608e+003;1.130006e-001
2.900536e+003;1.137812e-001
2.902465e+003;1.142750e-001
2.904393e+003;1.143540e-001
2.906322e+003;1.150770e-001
2.908250e+003;1.158442e-001
2.910179e+003;1.167659e-001
2.912107e+003;1.187841e-001
2.914036e+003;1.207056e-001
2.915965e+003;1.220918e-001
2.917893e+003;1.227391e-001
2.919822e+003;1.225152e-001
2.921750e+003;1.208371e-001
2.923679e+003;1.177569e-001
2.925607e+003;1.145986e-001
2.927536e+003;1.124402e-001
2.929464e+003;1.099709e-001
2.931393e+003;1.073925e-001
2.933322e+003;1.055537e-001
2.935250e+003;1.036898e-001
2.937178e+003;1.022222e-001
2.939107e+003;1.011445e-001
2.941036e+003;1.003528e-001
2.942964e+003;9.949832e-002
2.944893e+003;9.841213e-002
2.946821e+003;9.744695e-002
2.948750e+003;9.677692e-002
2.950678e+003;9.619760e-002
2.952607e+003;9.613297e-002
2.954535e+003;9.623295e-002
2.956464e+003;9.594696e-002
2.958393e+003;9.580664e-002
2.960321e+003;9.551875e-002
2.962250e+003;9.466004e-002
2.964178e+003;9.326705e-002
2.966107e+003;9.145060e-002
2.968035e+003;8.951482e-002
2.969964e+003;8.772638e-002
2.971892e+003;8.588457e-002
2.973821e+003;8.417344e-002
2.975750e+003;8.231593e-002
2.977678e+003;8.056799e-002
2.979607e+003;7.865278e-002
2.981535e+003;7.699528e-002
2.983464e+003;7.615325e-002
2.985392e+003;7.556525e-002
2.987321e+003;7.445215e-002
2.989249e+003;7.354202e-002
2.991178e+003;7.337031e-002
2.993106e+003;7.317494e-002
2.995035e+003;7.269255e-002
2.996964e+003;7.217854e-002
2.998892e+003;7.200947e-002
3.000821e+003;7.203916e-002
3.002749e+003;7.172434e-002
3.004678e+003;7.138971e-002
3.006606e+003;7.109027e-002
3.008535e+003;7.094628e-002
3.010463e+003;7.165153e-002
3.012392e+003;7.211047e-002
3.014321e+003;7.197193e-002
3.016249e+003;7.218663e-002
3.018177e+003;7.234579e-002
3.020106e+003;7.246334e-002
3.022035e+003;7.249079e-002
3.023963e+003;7.293105e-002
3.025892e+003;7.339801e-002
3.027820e+003;7.363407e-002
3.029749e+003;7.411621e-002
3.031677e+003;7.456458e-002
3.033606e+003;7.446325e-002
3.035534e+003;7.426494e-002
3.037463e+003;7.425807e-002
3.039392e+003;7.393951e-002
3.041320e+003;7.356110e-002
3.043249e+003;7.375429e-002
3.045177e+003;7.398839e-002
3.047106e+003;7.408850e-002
3.049034e+003;7.424289e-002
3.050963e+003;7.426671e-002
3.052891e+003;7.444783e-002
3.054820e+003;7.466927e-002
3.056749e+003;7.477431e-002
3.058677e+003;7.485615e-002
3.060606e+003;7.534599e-002
3.062534e+003;7.577748e-002
3.064463e+003;7.566999e-002
3.066391e+003;7.589076e-002
3.068320e+003;7.632153e-002
3.070248e+003;7.646715e-002
3.072177e+003;7.660404e-002
3.074105e+003;7.653891e-002
3.076034e+003;7.644135e-002
3.077963e+003;7.649410e-002
3.079891e+003;7.675695e-002
3.081820e+003;7.714731e-002
3.083748e+003;7.759307e-002
3.085677e+003;7.822858e-002
3.087605e+003;7.832896e-002
3.089534e+003;7.810691e-002
3.091462e+003;7.816062e-002
3.093391e+003;7.880315e-002
3.095320e+003;7.946084e-002
3.097248e+003;7.920612e-002
3.099177e+003;7.953517e-002
3.101105e+003;8.046821e-002
3.103034e+003;8.087927e-002
3.104962e+003;8.110770e-002
3.106891e+003;8.116238e-002
3.108819e+003;8.087213e-002
3.110748e+003;8.085353e-002
3.112677e+003;8.115195e-002
3.114605e+003;8.143631e-002
3.116533e+003;8.128905e-002
3.118462e+003;8.160964e-002
3.120391e+003;8.246253e-002
3.122319e+003;8.270542e-002
3.124248e+003;8.290316e-002
3.126176e+003;8.380204e-002
3.128105e+003;8.440364e-002
3.130033e+003;8.428656e-002
3.131962e+003;8.437716e-002
3.133890e+003;8.473577e-002
3.135819e+003;8.496115e-002
3.137748e+003;8.487473e-002
3.139676e+003;8.509514e-002
3.141605e+003;8.544930e-002
3.143533e+003;8.607399e-002
3.145462e+003;8.677306e-002
3.147390e+003;8.715887e-002
3.149319e+003;8.762890e-002
3.151247e+003;8.792406e-002
3.153176e+003;8.849058e-002
3.155104e+003;8.905189e-002
3.157033e+003;8.951307e-002
3.158962e+003;8.981159e-002
3.160890e+003;9.015641e-002
3.162819e+003;9.031335e-002
3.164747e+003;9.042460e-002
3.166676e+003;9.089488e-002
3.168604e+003;9.142438e-002
3.170533e+003;9.230990e-002
3.172461e+003;9.287786e-002
3.174390e+003;9.288123e-002
3.176319e+003;9.346995e-002
3.178247e+003;9.443204e-002
3.180176e+003;9.471741e-002
3.182104e+003;9.521554e-002
3.184033e+003;9.562202e-002
3.185961e+003;9.601532e-002
3.187890e+003;9.670235e-002
3.189818e+003;9.690753e-002
3.191747e+003;9.719402e-002
3.193676e+003;9.768023e-002
3.195604e+003;9.830720e-002
3.197532e+003;9.923936e-002
3.199461e+003;9.997302e-002
3.201390e+003;1.003683e-001
3.203318e+003;1.005242e-001
3.205247e+003;1.006174e-001
3.207175e+003;1.014125e-001
3.209104e+003;1.029843e-001
3.211032e+003;1.040332e-001
3.212961e+003;1.041813e-001
3.214889e+003;1.049735e-001
3.216818e+003;1.058175e-001
3.218747e+003;1.060618e-001
3.220675e+003;1.063602e-001
3.222604e+003;1.070882e-001
3.224532e+003;1.076128e-001
3.226461e+003;1.078471e-001
3.228389e+003;1.083192e-001
3.230318e+003;1.097823e-001
3.232246e+003;1.114560e-001
3.234175e+003;1.119067e-001
3.236104e+003;1.120969e-001
3.238032e+003;1.129865e-001
3.239961e+003;1.141193e-001
3.241889e+003;1.150639e-001
3.243818e+003;1.156929e-001
3.245746e+003;1.166349e-001
3.247675e+003;1.180793e-001
3.249603e+003;1.196102e-001
3.251532e+003;1.208166e-001
3.253460e+003;1.215247e-001
3.255389e+003;1.223371e-001
3.257318e+003;1.234095e-001
3.259246e+003;1.238296e-001
3.261175e+003;1.241984e-001
3.263103e+003;1.255892e-001
3.265032e+003;1.271608e-001
3.266960e+003;1.282570e-001
3.268889e+003;1.287066e-001
3.270817e+003;1.285556e-001
3.272746e+003;1.287670e-001
3.274675e+003;1.298381e-001
3.276603e+003;1.302956e-001
3.278531e+003;1.304239e-001
3.280460e+003;1.313332e-001
3.282389e+003;1.318875e-001
3.284317e+003;1.320001e-001
3.286246e+003;1.323452e-001
3.288174e+003;1.325080e-001
3.290103e+003;1.324365e-001
3.292031e+003;1.325423e-001
3.293960e+003;1.326614e-001
3.295888e+003;1.327091e-001
3.297817e+003;1.324742e-001
3.299746e+003;1.324798e-001
3.301674e+003;1.326451e-001
3.303603e+003;1.325321e-001
3.305531e+003;1.322041e-001
3.307460e+003;1.319864e-001
3.309388e+003;1.325174e-001
3.311317e+003;1.326370e-001
3.313245e+003;1.327516e-001
3.315174e+003;1.327906e-001
3.317103e+003;1.328316e-001
3.319031e+003;1.337291e-001
3.320960e+003;1.340763e-001
3.322888e+003;1.340599e-001
3.324817e+003;1.350646e-001
3.326745e+003;1.355433e-001
3.328674e+003;1.351644e-001
3.330602e+003;1.358492e-001
3.332531e+003;1.368036e-001
3.334459e+003;1.364491e-001
3.336388e+003;1.360747e-001
3.338317e+003;1.361466e-001
3.340245e+003;1.358528e-001
3.342174e+003;1.351353e-001
3.344102e+003;1.339807e-001
3.346031e+003;1.326598e-001
3.347959e+003;1.314678e-001
3.349888e+003;1.304796e-001
3.351816e+003;1.294299e-001
3.353745e+003;1.283743e-001
3.355674e+003;1.278292e-001
3.357602e+003;1.268196e-001
3.359531e+003;1.255005e-001
3.361459e+003;1.243014e-001
3.363388e+003;1.228370e-001
3.365316e+003;1.216832e-001
3.367245e+003;1.206244e-001
3.369173e+003;1.203382e-001
3.371102e+003;1.205325e-001
3.373031e+003;1.199492e-001
3.374959e+003;1.191080e-001
3.376887e+003;1.189023e-001
3.378816e+003;1.182095e-001
3.380745e+003;1.170433e-001
3.382673e+003;1.157411e-001
3.384602e+003;1.149269e-001
3.386530e+003;1.149581e-001
3.388459e+003;1.149635e-001
3.390387e+003;1.145709e-001
3.392316e+003;1.141124e-001
3.394244e+003;1.134451e-001
3.396173e+003;1.128394e-001
3.398102e+003;1.122781e-001
3.400030e+003;1.114772e-001
3.401959e+003;1.104225e-001
3.403887e+003;1.087978e-001
3.405816e+003;1.082171e-001
3.407744e+003;1.085833e-001
3.409673e+003;1.080567e-001
3.411601e+003;1.073987e-001
3.413530e+003;1.064259e-001
3.415458e+003;1.045751e-001
3.417387e+003;1.032212e-001
3.419316e+003;1.020350e-001
3.421244e+003;1.008904e-001
3.423173e+003;1.007198e-001
3.425101e+003;1.002721e-001
3.427030e+003;9.932681e-002
3.428958e+003;9.825053e-002
3.430887e+003;9.772584e-002
3.432815e+003;9.759560e-002
3.434744e+003;9.681712e-002
3.436673e+003;9.562268e-002
3.438601e+003;9.427356e-002
3.440530e+003;9.341489e-002
3.442458e+003;9.305952e-002
3.444387e+003;9.232707e-002
3.446315e+003;9.173061e-002
3.448244e+003;9.126651e-002
3.450172e+003;8.992611e-002
3.452101e+003;8.875772e-002
3.454030e+003;8.784050e-002
3.455958e+003;8.707238e-002
3.457886e+003;8.674004e-002
3.459815e+003;8.610300e-002
3.461744e+003;8.560233e-002
3.463672e+003;8.488572e-002
3.465601e+003;8.400595e-002
3.467529e+003;8.370014e-002
3.469458e+003;8.296826e-002
3.471386e+003;8.209888e-002
3.473315e+003;8.204240e-002
3.475243e+003;8.163919e-002
3.477172e+003;8.076956e-002
3.479101e+003;7.993300e-002
3.481029e+003;7.883061e-002
3.482958e+003;7.778834e-002
3.484886e+003;7.723204e-002
3.486815e+003;7.628428e-002
3.488743e+003;7.539825e-002
3.490672e+003;7.487725e-002
3.492600e+003;7.449593e-002
3.494529e+003;7.362712e-002
3.496458e+003;7.220898e-002
3.498386e+003;7.156435e-002
3.500315e+003;7.102042e-002
3.502243e+003;7.033014e-002
3.504172e+003;7.031207e-002
3.506100e+003;7.047514e-002
3.508029e+003;6.973052e-002
3.509957e+003;6.897145e-002
3.511886e+003;6.852261e-002
3.513814e+003;6.774333e-002
3.515743e+003;6.729673e-002
3.517672e+003;6.734064e-002
3.519600e+003;6.696495e-002
3.521529e+003;6.569589e-002
3.523457e+003;6.472321e-002
3.525386e+003;6.462065e-002
3.527314e+003;6.397840e-002
3.529243e+003;6.333288e-002
3.531171e+003;6.307193e-002
3.533100e+003;6.274459e-002
3.535029e+003;6.220145e-002
3.536957e+003;6.161041e-002
3.538885e+003;6.110217e-002
3.540814e+003;6.043684e-002
3.542743e+003;6.002362e-002
3.544671e+003;5.976602e-002
3.546600e+003;5.966208e-002
3.548528e+003;5.936142e-002
3.550457e+003;5.816451e-002
3.552385e+003;5.717202e-002
3.554314e+003;5.690953e-002
3.556242e+003;5.649604e-002
3.558171e+003;5.595367e-002
3.560100e+003;5.552177e-002
3.562028e+003;5.532275e-002
3.563957e+003;5.459778e-002
3.565885e+003;5.312147e-002
3.567814e+003;5.278601e-002
3.569742e+003;5.315262e-002
3.571671e+003;5.343286e-002
3.573599e+003;5.299769e-002
3.575528e+003;5.228773e-002
3.577457e+003;5.223832e-002
3.579385e+003;5.207341e-002
3.581314e+003;5.160877e-002
3.583242e+003;5.144962e-002
3.585171e+003;5.042995e-002
3.587099e+003;4.958338e-002
3.589028e+003;5.015451e-002
3.590956e+003;5.075819e-002
3.592885e+003;5.000347e-002
3.594813e+003;4.888557e-002
3.596742e+003;4.898645e-002
3.598671e+003;4.922296e-002
3.600599e+003;4.891765e-002
3.602528e+003;4.868364e-002
3.604456e+003;4.805119e-002
3.606385e+003;4.718183e-002
3.608313e+003;4.633448e-002
3.610242e+003;4.635350e-002
3.612170e+003;4.633625e-002
3.614099e+003;4.576423e-002
3.616028e+003;4.515307e-002
3.617956e+003;4.473250e-002
3.619885e+003;4.506278e-002
3.621813e+003;4.549397e-002
3.623742e+003;4.500802e-002
3.625670e+003;4.370780e-002
3.627599e+003;4.171330e-002
3.629527e+003;4.157410e-002
3.631456e+003;4.348079e-002
3.633385e+003;4.379322e-002
3.635313e+003;4.349463e-002
3.637241e+003;4.353657e-002
3.639170e+003;4.304955e-002
3.641099e+003;4.273154e-002
3.643027e+003;4.271078e-002
3.644956e+003;4.228892e-002
3.646884e+003;4.102237e-002
3.648813e+003;3.933941e-002
3.650741e+003;3.938795e-002
3.652670e+003;4.034864e-002
3.654598e+003;3.994494e-002
3.656527e+003;3.990924e-002
3.658456e+003;4.033973e-002
3.660384e+003;4.031188e-002
3.662313e+003;4.046050e-002
3.664241e+003;4.007781e-002
3.666170e+003;3.976771e-002
3.668098e+003;3.872164e-002
3.670027e+003;3.714680e-002
3.671955e+003;3.726141e-002
3.673884e+003;3.620655e-002
3.675813e+003;3.532336e-002
3.677741e+003;3.689062e-002
3.679669e+003;3.820984e-002
3.681598e+003;3.855421e-002
3.683527e+003;3.797849e-002
3.685455e+003;3.700769e-002
3.687384e+003;3.516992e-002
3.689312e+003;3.469419e-002
3.691241e+003;3.559236e-002
3.693169e+003;3.649690e-002
3.695098e+003;3.700602e-002
3.697026e+003;3.709465e-002
3.698955e+003;3.696082e-002
3.700884e+003;3.613399e-002
3.702812e+003;3.595848e-002
3.704741e+003;3.633893e-002
3.706669e+003;3.583572e-002
3.708598e+003;3.455704e-002
3.710526e+003;3.353715e-002
3.712455e+003;3.421336e-002
3.714383e+003;3.560024e-002
3.716312e+003;3.596888e-002
3.718240e+003;3.589334e-002
3.720169e+003;3.561639e-002
3.722098e+003;3.516212e-002
3.724026e+003;3.508783e-002
3.725955e+003;3.484869e-002
3.727883e+003;3.503650e-002
3.729812e+003;3.508736e-002
3.731740e+003;3.390054e-002
3.733669e+003;3.298859e-002
3.735597e+003;3.238200e-002
3.737526e+003;3.303936e-002
3.739455e+003;3.409260e-002
3.741383e+003;3.361089e-002
3.743312e+003;3.135195e-002
3.745240e+003;3.223794e-002
3.747169e+003;3.360373e-002
3.749097e+003;3.230875e-002
3.751026e+003;3.218309e-002
3.752954e+003;3.377259e-002
3.754883e+003;3.490578e-002
3.756812e+003;3.468289e-002
3.758740e+003;3.496610e-002
3.760668e+003;3.535920e-002
3.762597e+003;3.592886e-002
3.764526e+003;3.573858e-002
3.766454e+003;3.587941e-002
3.768383e+003;3.559196e-002
3.770311e+003;3.553669e-002
3.772240e+003;3.570318e-002
3.774168e+003;3.618977e-002
3.776097e+003;3.577006e-002
3.778025e+003;3.489249e-002
3.779954e+003;3.504361e-002
3.781883e+003;3.558740e-002
3.783811e+003;3.575768e-002
3.785740e+003;3.536980e-002
3.787668e+003;3.525501e-002
3.789597e+003;3.598357e-002
3.791525e+003;3.572124e-002
3.793454e+003;3.523136e-002
3.795382e+003;3.510985e-002
3.797311e+003;3.541905e-002
3.799240e+003;3.493817e-002
3.801168e+003;3.405561e-002
3.803097e+003;3.506703e-002
3.805025e+003;3.513852e-002
3.806954e+003;3.498287e-002
3.808882e+003;3.633342e-002
3.810811e+003;3.684272e-002
3.812739e+003;3.640425e-002
3.814668e+003;3.482280e-002
3.816596e+003;3.507759e-002
3.818525e+003;3.565832e-002
3.820454e+003;3.385314e-002
3.822382e+003;3.407199e-002
3.824311e+003;3.575300e-002
3.826239e+003;3.612294e-002
3.828168e+003;3.583925e-002
3.830096e+003;3.531197e-002
3.832025e+003;3.550609e-002
3.833953e+003;3.580985e-002
3.835882e+003;3.488488e-002
3.837811e+003;3.444469e-002
3.839739e+003;3.492402e-002
3.841667e+003;3.513087e-002
3.843596e+003;3.566059e-002
3.845525e+003;3.652273e-002
3.847453e+003;3.667878e-002
3.849382e+003;3.532688e-002
3.851310e+003;3.249643e-002
3.853239e+003;3.092816e-002
3.855167e+003;3.380203e-002
3.857096e+003;3.646168e-002
3.859024e+003;3.687132e-002
3.860953e+003;3.686584e-002
3.862882e+003;3.571386e-002
3.864810e+003;3.516323e-002
3.866739e+003;3.586185e-002
3.868667e+003;3.538605e-002
3.870596e+003;3.594527e-002
3.872524e+003;3.659659e-002
3.874453e+003;3.681862e-002
3.876381e+003;3.759820e-002
3.878310e+003;3.696060e-002
3.880239e+003;3.604477e-002
3.882167e+003;3.648248e-002
3.884096e+003;3.645657e-002
3.886024e+003;3.638850e-002
3.887953e+003;3.739577e-002
3.889881e+003;3.706004e-002
3.891810e+003;3.666393e-002
3.893738e+003;3.701118e-002
3.895667e+003;3.800341e-002
3.897595e+003;3.810262e-002
3.899524e+003;3.733113e-002
3.901453e+003;3.671297e-002
3.903381e+003;3.619535e-002
3.905310e+003;3.725109e-002
3.907238e+003;3.914110e-002
3.909167e+003;3.948929e-002
3.911095e+003;3.873907e-002
3.913024e+003;3.809748e-002
3.914952e+003;3.815869e-002
3.916881e+003;3.844650e-002
3.918810e+003;3.865977e-002
3.920738e+003;3.872233e-002
3.922667e+003;3.833784e-002
3.924595e+003;3.842177e-002
3.926524e+003;3.907051e-002
3.928452e+003;3.859976e-002
3.930381e+003;3.744305e-002
3.932309e+003;3.736612e-002
3.934238e+003;3.813709e-002
3.936167e+003;3.820829e-002
3.938095e+003;3.808044e-002
3.940023e+003;3.835648e-002
3.941952e+003;3.853129e-002
3.943881e+003;3.814769e-002
3.945809e+003;3.799259e-002
3.947738e+003;3.791051e-002
3.949666e+003;3.789999e-002
3.951595e+003;3.796168e-002
3.953523e+003;3.853223e-002
3.955452e+003;3.950101e-002
3.957380e+003;4.044763e-002
3.959309e+003;4.060302e-002
3.961238e+003;4.022006e-002
3.963166e+003;3.962724e-002
3.965095e+003;3.877424e-002
3.967023e+003;3.849657e-002
3.968952e+003;3.900823e-002
3.970880e+003;3.903531e-002
3.972809e+003;3.828789e-002
3.974737e+003;3.831634e-002
3.976666e+003;3.922697e-002
3.978594e+003;3.997960e-002
3.980523e+003;3.960488e-002
3.982452e+003;3.866984e-002
3.984380e+003;3.880975e-002
3.986309e+003;3.926132e-002
3.988237e+003;3.947601e-002
3.990166e+003;3.919397e-002
3.992094e+003;3.908353e-002
3.994023e+003;3.932454e-002
3.995951e+003;3.944517e-002
3.997880e+003;3.867477e-002
3.999809e+003;3.862044e-002
4.001737e+003;0.000000e+000
