3.992094e+002;0.000000e+000
4.011380e+002;0.000000e+000
4.030665e+002;0.000000e+000
4.049951e+002;0.000000e+000
4.069236e+002;0.000000e+000
4.088522e+002;0.000000e+000
4.107807e+002;0.000000e+000
4.127093e+002;0.000000e+000
4.146378e+002;0.000000e+000
4.165664e+002;0.000000e+000
4.184949e+002;0.000000e+000
4.204235e+002;0.000000e+000
4.223520e+002;0.000000e+000
4.242806e+002;0.000000e+000
4.262091e+002;0.000000e+000
4.281377e+002;0.000000e+000
4.300662e+002;0.000000e+000
4.319948e+002;0.000000e+000
4.339233e+002;0.000000e+000
4.358519e+002;0.000000e+000
4.377804e+002;0.000000e+000
4.397090e+002;0.000000e+000
4.416375e+002;0.000000e+000
4.435660e+002;0.000000e+000
4.454946e+002;0.000000e+000
4.474232e+002;0.000000e+000
4.493517e+002;0.000000e+000
4.512802e+002;0.000000e+000
4.532088e+002;0.000000e+000
4.551373e+002;0.000000e+000
4.570659e+002;0.000000e+000
4.589944e+002;0.000000e+000
4.609230e+002;0.000000e+000
4.628515e+002;0.000000e+000
4.647801e+002;0.000000e+000
4.667086e+002;0.000000e+000
4.686372e+002;0.000000e+000
4.705657e+002;0.000000e+000
4.724943e+002;0.000000e+000
4.744228e+002;0.000000e+000
4.763513e+002;0.000000e+000
4.782799e+002;0.000000e+000
4.802085e+002;0.000000e+000
4.821370e+002;0.000000e+000
4.840656e+002;0.000000e+000
4.859941e+002;0.000000e+000
4.879226e+002;0.000000e+000
4.898512e+002;0.000000e+000
4.917798e+002;0.000000e+000
4.937083e+002;0.000000e+000
4.956368e+002;0.000000e+000
4.975654e+002;0.000000e+000
4.994939e+002;0.000000e+000
5.014225e+002;0.000000e+000
5.033510e+002;0.000000e+000
5.052796e+002;0.000000e+000
5.072081e+002;0.000000e+000
5.091367e+002;0.000000e+000
5.110652e+002;0.000000e+000
5.129938e+002;0.000000e+000
5.149223e+002;0.000000e+000
5.168509e+002;0.000000e+000
5.187794e+002;0.000000e+000
5.207079e+002;0.000000e+000
5.226365e+002;0.000000e+000
5.245651e+002;0.000000e+000
5.264936e+002;0.000000e+000
5.284222e+002;0.000000e+000
5.303507e+002;0.000000e+000
5.322792e+002;0.000000e+000
5.342078e+002;0.000000e+000
5.361364e+002;0.000000e+000
5.380649e+002;0.000000e+000
5.399935e+002;0.000000e+000
5.419220e+002;0.000000e+000
5.438505e+002;0.000000e+000
5.457791e+002;0.000000e+000
5.477076e+002;0.000000e+000
5.496362e+002;0.000000e+000
5.515648e+002;0.000000e+000
5.534933e+002;0.000000e+000
5.554218e+002;0.000000e+000
5.573504e+002;0.000000e+000
5.592789e+002;0.000000e+000
5.612075e+002;0.000000e+000
5.631360e+002;0.000000e+000
5.650646e+002;0.000000e+000
5.669931e+002;0.000000e+000
5.689217e+002;0.000000e+000
5.708502e+002;0.000000e+000
5.727787e+002;0.000000e+000
5.747073e+002;0.000000e+000
5.766359e+002;0.000000e+000
5.785644e+002;0.000000e+000
5.804930e+002;0.000000e+000
5.824215e+002;0.000000e+000
5.843500e+002;0.000000e+000
5.862786e+002;0.000000e+000
5.882072e+002;0.000000e+000
5.901357e+002;0.000000e+000
5.920643e+002;0.000000e+000
5.939928e+002;0.000000e+000
5.959213e+002;0.000000e+000
5.978499e+002;0.000000e+000
5.997784e+002;2.131433e-001
6.017070e+002;2.192862e-001
6.036355e+002;2.237085e-001
6.055641e+002;2.287181e-001
6.074926e+002;2.342888e-001
6.094211e+002;2.325749e-001
6.113497e+002;2.294760e-001
6.132783e+002;2.285271e-001
6.152068e+002;2.331083e-001
6.171354e+002;2.321803e-001
6.190639e+002;2.246088e-001
6.209924e+002;2.205261e-001
6.229210e+002;2.193113e-001
6.248495e+002;2.166592e-001
6.267781e+002;2.122093e-001
6.287067e+002;2.085030e-001
6.306352e+002;2.058113e-001
6.325637e+002;2.050344e-001
6.344923e+002;2.068947e-001
6.364208e+002;2.092049e-001
6.383494e+002;2.068650e-001
6.402780e+002;2.018808e-001
6.422065e+002;2.023437e-001
6.441350e+002;2.055095e-001
6.460636e+002;2.033690e-001
6.479921e+002;2.004935e-001
6.499207e+002;2.009953e-001
6.518492e+002;2.047718e-001
6.537778e+002;2.067427e-001
6.557063e+002;2.077056e-001
6.576349e+002;2.123465e-001
6.595634e+002;2.204675e-001
6.614919e+002;2.256868e-001
6.634205e+002;2.265871e-001
6.653491e+002;2.231897e-001
6.672776e+002;2.210068e-001
6.692062e+002;2.176808e-001
6.711347e+002;2.115745e-001
6.730632e+002;2.070134e-001
6.749918e+002;2.025523e-001
6.769203e+002;1.975622e-001
6.788489e+002;1.921906e-001
6.807775e+002;1.878877e-001
6.827060e+002;1.866514e-001
6.846345e+002;1.864277e-001
6.865631e+002;1.858830e-001
6.884916e+002;1.849097e-001
6.904202e+002;1.837453e-001
6.923488e+002;1.833716e-001
6.942773e+002;1.835833e-001
6.962058e+002;1.837791e-001
6.981344e+002;1.850837e-001
7.000629e+002;1.853145e-001
7.019915e+002;1.835836e-001
7.039200e+002;1.828436e-001
7.058486e+002;1.825194e-001
7.077771e+002;1.801111e-001
7.097057e+002;1.767185e-001
7.116342e+002;1.731182e-001
7.135627e+002;1.693604e-001
7.154913e+002;1.655955e-001
7.174199e+002;1.634909e-001
7.193484e+002;1.614928e-001
7.212770e+002;1.570445e-001
7.232055e+002;1.532785e-001
7.251340e+002;1.508330e-001
7.270626e+002;1.481829e-001
7.289911e+002;1.455946e-001
7.309197e+002;1.431155e-001
7.328483e+002;1.408358e-001
7.347768e+002;1.384527e-001
7.367053e+002;1.371266e-001
7.386339e+002;1.359706e-001
7.405624e+002;1.341320e-001
7.424910e+002;1.323415e-001
7.444196e+002;1.315784e-001
7.463481e+002;1.312778e-001
7.482766e+002;1.304760e-001
7.502052e+002;1.290689e-001
7.521337e+002;1.272842e-001
7.540623e+002;1.266962e-001
7.559908e+002;1.264999e-001
7.579194e+002;1.259425e-001
7.598479e+002;1.255068e-001
7.617765e+002;1.250288e-001
7.637050e+002;1.238815e-001
7.656335e+002;1.223181e-001
7.675621e+002;1.217545e-001
7.694907e+002;1.220167e-001
7.714192e+002;1.221815e-001
7.733478e+002;1.222400e-001
7.752763e+002;1.223558e-001
7.772048e+002;1.234026e-001
7.791334e+002;1.247219e-001
7.810620e+002;1.260730e-001
7.829905e+002;1.279826e-001
7.849191e+002;1.302130e-001
7.868476e+002;1.327451e-001
7.887761e+002;1.354676e-001
7.907047e+002;1.379270e-001
7.926332e+002;1.398953e-001
7.945618e+002;1.419376e-001
7.964903e+002;1.442348e-001
7.984189e+002;1.462668e-001
8.003474e+002;1.475027e-001
8.022759e+002;1.475858e-001
8.042045e+002;1.468557e-001
8.061331e+002;1.456268e-001
8.080616e+002;1.441699e-001
8.099902e+002;1.423504e-001
8.119187e+002;1.401623e-001
8.138472e+002;1.389757e-001
8.157758e+002;1.377932e-001
8.177043e+002;1.361050e-001
8.196329e+002;1.350002e-001
8.215615e+002;1.338874e-001
8.234900e+002;1.314348e-001
8.254185e+002;1.280125e-001
8.273471e+002;1.244999e-001
8.292756e+002;1.211544e-001
8.312042e+002;1.188213e-001
8.331328e+002;1.167949e-001
8.350613e+002;1.149055e-001
8.369898e+002;1.145494e-001
8.389184e+002;1.147303e-001
8.408469e+002;1.144629e-001
8.427755e+002;1.144280e-001
8.447040e+002;1.144637e-001
8.466326e+002;1.141317e-001
8.485611e+002;1.139183e-001
8.504897e+002;1.143706e-001
8.524182e+002;1.152631e-001
8.543467e+002;1.159291e-001
8.562753e+002;1.161311e-001
8.582039e+002;1.165693e-001
8.601324e+002;1.172332e-001
8.620610e+002;1.182723e-001
8.639895e+002;1.192215e-001
8.659180e+002;1.197094e-001
8.678466e+002;1.199857e-001
8.697751e+002;1.207057e-001
8.717037e+002;1.217165e-001
8.736323e+002;1.226726e-001
8.755608e+002;1.236458e-001
8.774893e+002;1.256744e-001
8.794179e+002;1.274545e-001
8.813464e+002;1.279437e-001
8.832750e+002;1.285300e-001
8.852036e+002;1.302799e-001
8.871321e+002;1.324225e-001
8.890606e+002;1.345496e-001
8.909892e+002;1.365419e-001
8.929177e+002;1.380568e-001
8.948463e+002;1.388682e-001
8.967748e+002;1.392638e-001
8.987034e+002;1.393281e-001
9.006319e+002;1.392818e-001
9.025605e+002;1.390839e-001
9.044890e+002;1.383540e-001
9.064175e+002;1.377588e-001
9.083461e+002;1.371343e-001
9.102747e+002;1.361677e-001
9.122032e+002;1.353776e-001
9.141318e+002;1.348255e-001
9.160603e+002;1.341925e-001
9.179888e+002;1.342738e-001
9.199174e+002;1.345947e-001
9.218459e+002;1.353981e-001
9.237745e+002;1.366385e-001
9.257031e+002;1.379921e-001
9.276316e+002;1.396130e-001
9.295601e+002;1.411857e-001
9.314887e+002;1.424429e-001
9.334172e+002;1.441338e-001
9.353458e+002;1.460036e-001
9.372744e+002;1.473425e-001
9.392029e+002;1.485507e-001
9.411314e+002;1.505562e-001
9.430600e+002;1.530157e-001
9.449885e+002;1.552552e-001
9.469171e+002;1.580752e-001
9.488456e+002;1.613787e-001
9.507742e+002;1.643140e-001
9.527027e+002;1.670718e-001
9.546313e+002;1.706716e-001
9.565598e+002;1.747317e-001
9.584883e+002;1.786482e-001
9.604169e+002;1.831225e-001
9.623455e+002;1.881452e-001
9.642740e+002;1.932634e-001
9.662026e+002;1.985946e-001
9.681311e+002;2.047227e-001
9.700596e+002;2.116083e-001
9.719882e+002;2.194828e-001
9.739167e+002;2.292388e-001
9.758453e+002;2.408908e-001
9.777739e+002;2.533144e-001
9.797024e+002;2.658130e-001
9.816309e+002;2.763998e-001
9.835595e+002;2.826050e-001
9.854880e+002;2.838627e-001
9.874166e+002;2.823202e-001
9.893452e+002;2.823806e-001
9.912737e+002;2.858959e-001
9.932022e+002;2.916622e-001
9.951307e+002;2.991609e-001
9.970593e+002;3.069082e-001
9.989879e+002;3.126290e-001
1.000916e+003;3.156846e-001
1.002845e+003;3.168601e-001
1.004773e+003;3.173663e-001
1.006702e+003;3.187408e-001
1.008631e+003;3.207563e-001
1.010559e+003;3.235975e-001
1.012488e+003;3.268433e-001
1.014416e+003;3.295949e-001
1.016345e+003;3.320088e-001
1.018273e+003;3.342234e-001
1.020202e+003;3.361537e-001
1.022130e+003;3.388811e-001
1.024059e+003;3.421692e-001
1.025988e+003;3.454728e-001
1.027916e+003;3.480211e-001
1.029845e+003;3.490758e-001
1.031773e+003;3.479105e-001
1.033702e+003;3.437999e-001
1.035630e+003;3.363720e-001
1.037559e+003;3.276809e-001
1.039487e+003;3.190034e-001
1.041416e+003;3.124071e-001
1.043344e+003;3.103161e-001
1.045273e+003;3.124328e-001
1.047202e+003;3.166155e-001
1.049130e+003;3.223868e-001
1.051059e+003;3.287329e-001
1.052987e+003;3.330374e-001
1.054916e+003;3.339992e-001
1.056844e+003;3.320467e-001
1.058773e+003;3.255523e-001
1.060701e+003;3.130220e-001
1.062630e+003;2.965131e-001
1.064558e+003;2.799872e-001
1.066487e+003;2.650226e-001
1.068416e+003;2.526659e-001
1.070344e+003;2.438814e-001
1.072273e+003;2.375056e-001
1.074201e+003;2.325824e-001
1.076130e+003;2.286339e-001
1.078058e+003;2.244641e-001
1.079987e+003;2.203287e-001
1.081915e+003;2.179876e-001
1.083844e+003;2.177703e-001
1.085773e+003;2.181043e-001
1.087701e+003;2.188834e-001
1.089630e+003;2.198764e-001
1.091558e+003;2.217077e-001
1.093487e+003;2.247865e-001
1.095415e+003;2.277591e-001
1.097344e+003;2.313115e-001
1.099272e+003;2.350734e-001
1.101201e+003;2.374875e-001
1.103129e+003;2.384423e-001
1.105058e+003;2.374273e-001
1.106987e+003;2.352241e-001
1.108915e+003;2.329387e-001
1.110844e+003;2.294828e-001
1.112772e+003;2.225286e-001
1.114701e+003;2.115401e-001
1.116629e+003;1.994393e-001
1.118558e+003;1.891596e-001
1.120486e+003;1.819554e-001
1.122415e+003;1.761158e-001
1.124344e+003;1.695292e-001
1.126272e+003;1.620377e-001
1.128201e+003;1.549342e-001
1.130129e+003;1.493284e-001
1.132058e+003;1.453874e-001
1.133986e+003;1.420053e-001
1.135915e+003;1.394180e-001
1.137843e+003;1.379060e-001
1.139772e+003;1.379318e-001
1.141700e+003;1.399754e-001
1.143629e+003;1.430046e-001
1.145557e+003;1.458783e-001
1.147486e+003;1.487543e-001
1.149415e+003;1.515999e-001
1.151343e+003;1.544776e-001
1.153272e+003;1.575546e-001
1.155200e+003;1.610195e-001
1.157129e+003;1.642667e-001
1.159057e+003;1.666403e-001
1.160986e+003;1.675235e-001
1.162914e+003;1.656984e-001
1.164843e+003;1.607796e-001
1.166771e+003;1.534945e-001
1.168700e+003;1.453566e-001
1.170629e+003;1.373887e-001
1.172557e+003;1.303655e-001
1.174486e+003;1.252116e-001
1.176414e+003;1.215189e-001
1.178343e+003;1.186174e-001
1.180271e+003;1.159561e-001
1.182200e+003;1.138707e-001
1.184128e+003;1.127776e-001
1.186057e+003;1.120459e-001
1.187986e+003;1.120071e-001
1.189914e+003;1.124547e-001
1.191843e+003;1.127583e-001
1.193771e+003;1.137910e-001
1.195700e+003;1.155839e-001
1.197628e+003;1.175610e-001
1.199557e+003;1.192296e-001
1.201485e+003;1.203765e-001
1.203414e+003;1.211378e-001
1.205343e+003;1.211891e-001
1.207271e+003;1.197350e-001
1.209200e+003;1.164932e-001
1.211128e+003;1.130131e-001
1.213057e+003;1.106478e-001
1.214985e+003;1.096793e-001
1.216914e+003;1.095306e-001
1.218842e+003;1.100848e-001
1.220771e+003;1.111849e-001
1.222699e+003;1.128364e-001
1.224628e+003;1.145475e-001
1.226557e+003;1.162025e-001
1.228485e+003;1.180010e-001
1.230414e+003;1.195596e-001
1.232342e+003;1.208273e-001
1.234271e+003;1.220956e-001
1.236199e+003;1.229060e-001
1.238128e+003;1.232454e-001
1.240056e+003;1.238782e-001
1.241985e+003;1.247949e-001
1.243913e+003;1.262871e-001
1.245842e+003;1.282786e-001
1.247771e+003;1.297163e-001
1.249699e+003;1.306652e-001
1.251628e+003;1.323986e-001
1.253556e+003;1.352604e-001
1.255485e+003;1.389264e-001
1.257413e+003;1.429762e-001
1.259342e+003;1.459931e-001
1.261270e+003;1.468431e-001
1.263199e+003;1.452098e-001
1.265127e+003;1.412104e-001
1.267056e+003;1.357351e-001
1.268985e+003;1.311538e-001
1.270913e+003;1.286891e-001
1.272842e+003;1.276450e-001
1.274770e+003;1.271184e-001
1.276699e+003;1.267875e-001
1.278627e+003;1.265806e-001
1.280556e+003;1.261782e-001
1.282484e+003;1.250511e-001
1.284413e+003;1.236665e-001
1.286342e+003;1.226829e-001
1.288270e+003;1.222259e-001
1.290199e+003;1.221873e-001
1.292127e+003;1.221122e-001
1.294056e+003;1.221409e-001
1.295984e+003;1.226623e-001
1.297913e+003;1.236127e-001
1.299841e+003;1.252112e-001
1.301770e+003;1.278052e-001
1.303698e+003;1.310484e-001
1.305627e+003;1.346370e-001
1.307556e+003;1.384671e-001
1.309484e+003;1.421806e-001
1.311413e+003;1.451254e-001
1.313341e+003;1.468990e-001
1.315270e+003;1.469075e-001
1.317198e+003;1.447200e-001
1.319127e+003;1.410114e-001
1.321055e+003;1.371918e-001
1.322984e+003;1.340030e-001
1.324912e+003;1.315856e-001
1.326841e+003;1.305571e-001
1.328770e+003;1.307145e-001
1.330698e+003;1.321406e-001
1.332627e+003;1.338083e-001
1.334555e+003;1.345882e-001
1.336484e+003;1.339670e-001
1.338412e+003;1.321472e-001
1.340341e+003;1.298388e-001
1.342269e+003;1.270831e-001
1.344198e+003;1.239356e-001
1.346126e+003;1.212304e-001
1.348055e+003;1.194612e-001
1.349984e+003;1.187519e-001
1.351912e+003;1.191461e-001
1.353841e+003;1.200992e-001
1.355769e+003;1.209970e-001
1.357698e+003;1.217850e-001
1.359626e+003;1.224108e-001
1.361555e+003;1.220271e-001
1.363483e+003;1.209554e-001
1.365412e+003;1.205512e-001
1.367341e+003;1.207167e-001
1.369269e+003;1.206097e-001
1.371198e+003;1.198890e-001
1.373126e+003;1.178839e-001
1.375055e+003;1.151086e-001
1.376983e+003;1.124873e-001
1.378912e+003;1.097722e-001
1.380840e+003;1.072574e-001
1.382769e+003;1.052615e-001
1.384698e+003;1.032825e-001
1.386626e+003;1.013685e-001
1.388555e+003;1.007774e-001
1.390483e+003;1.007868e-001
1.392412e+003;1.006195e-001
1.394340e+003;1.005085e-001
1.396269e+003;1.008256e-001
1.398197e+003;1.011012e-001
1.400126e+003;1.015460e-001
1.402054e+003;1.019609e-001
1.403983e+003;1.020031e-001
1.405911e+003;1.022077e-001
1.407840e+003;1.026653e-001
1.409769e+003;1.029153e-001
1.411697e+003;1.031644e-001
1.413626e+003;1.037332e-001
1.415554e+003;1.043763e-001
1.417483e+003;1.048601e-001
1.419411e+003;1.059554e-001
1.421340e+003;1.082533e-001
1.423268e+003;1.103133e-001
1.425197e+003;1.118121e-001
1.427125e+003;1.125997e-001
1.429054e+003;1.125507e-001
1.430983e+003;1.121805e-001
1.432911e+003;1.110776e-001
1.434840e+003;1.087022e-001
1.436768e+003;1.066428e-001
1.438697e+003;1.064467e-001
1.440625e+003;1.066096e-001
1.442554e+003;1.066470e-001
1.444482e+003;1.066048e-001
1.446411e+003;1.065216e-001
1.448340e+003;1.066229e-001
1.450268e+003;1.068917e-001
1.452197e+003;1.065147e-001
1.454125e+003;1.049999e-001
1.456054e+003;1.022726e-001
1.457982e+003;1.011942e-001
1.459911e+003;1.017370e-001
1.461839e+003;1.013640e-001
1.463768e+003;9.851650e-002
1.465697e+003;9.566558e-002
1.467625e+003;9.431061e-002
1.469554e+003;9.313194e-002
1.471482e+003;9.227978e-002
1.473411e+003;9.129423e-002
1.475339e+003;8.935662e-002
1.477268e+003;8.779698e-002
1.479196e+003;8.718422e-002
1.481125e+003;8.640359e-002
1.483053e+003;8.499036e-002
1.484982e+003;8.295554e-002
1.486911e+003;8.103825e-002
1.488839e+003;7.940057e-002
1.490768e+003;7.863916e-002
1.492696e+003;7.860016e-002
1.494625e+003;7.780645e-002
1.496553e+003;7.700537e-002
1.498482e+003;7.702080e-002
1.500410e+003;7.706183e-002
1.502339e+003;7.712111e-002
1.504267e+003;7.596014e-002
1.506196e+003;7.448626e-002
1.508125e+003;7.547918e-002
1.510053e+003;7.668310e-002
1.511982e+003;7.661309e-002
1.513910e+003;7.636692e-002
1.515839e+003;7.584991e-002
1.517767e+003;7.549594e-002
1.519696e+003;7.477608e-002
1.521624e+003;7.419296e-002
1.523553e+003;7.505665e-002
1.525481e+003;7.576647e-002
1.527410e+003;7.624960e-002
1.529339e+003;7.672109e-002
1.531267e+003;7.678068e-002
1.533196e+003;7.659286e-002
1.535124e+003;7.725603e-002
1.537053e+003;7.699932e-002
1.538981e+003;7.542911e-002
1.540910e+003;7.575922e-002
1.542838e+003;7.744548e-002
1.544767e+003;7.850741e-002
1.546695e+003;7.912946e-002
1.548624e+003;7.947274e-002
1.550553e+003;7.970241e-002
1.552481e+003;7.926911e-002
1.554410e+003;7.875052e-002
1.556338e+003;7.804913e-002
1.558267e+003;7.630403e-002
1.560195e+003;7.695885e-002
1.562124e+003;7.905386e-002
1.564052e+003;7.946323e-002
1.565981e+003;7.929695e-002
1.567910e+003;7.889203e-002
1.569838e+003;7.855906e-002
1.571767e+003;7.905322e-002
1.573695e+003;7.879112e-002
1.575624e+003;7.772109e-002
1.577552e+003;7.826464e-002
1.579481e+003;7.913416e-002
1.581409e+003;7.950071e-002
1.583338e+003;7.981150e-002
1.585266e+003;7.974000e-002
1.587195e+003;7.958277e-002
1.589124e+003;7.952729e-002
1.591052e+003;7.969051e-002
1.592981e+003;7.958189e-002
1.594909e+003;7.932252e-002
1.596838e+003;7.942130e-002
1.598766e+003;7.977925e-002
1.600695e+003;8.012208e-002
1.602623e+003;8.038184e-002
1.604552e+003;8.035481e-002
1.606480e+003;8.025439e-002
1.608409e+003;8.043910e-002
1.610338e+003;8.054973e-002
1.612266e+003;8.039679e-002
1.614195e+003;7.964700e-002
1.616123e+003;7.848188e-002
1.618052e+003;7.925038e-002
1.619980e+003;8.037630e-002
1.621909e+003;8.008363e-002
1.623837e+003;8.004339e-002
1.625766e+003;8.048923e-002
1.627694e+003;8.043651e-002
1.629623e+003;8.067886e-002
1.631552e+003;8.089960e-002
1.633480e+003;8.009470e-002
1.635409e+003;7.918668e-002
1.637337e+003;7.996961e-002
1.639266e+003;8.067212e-002
1.641194e+003;8.073588e-002
1.643123e+003;8.041713e-002
1.645051e+003;7.959347e-002
1.646980e+003;7.952677e-002
1.648909e+003;8.041673e-002
1.650837e+003;7.915022e-002
1.652766e+003;7.681824e-002
1.654694e+003;7.843810e-002
1.656623e+003;8.045302e-002
1.658551e+003;8.067024e-002
1.660480e+003;8.031052e-002
1.662408e+003;7.971037e-002
1.664337e+003;7.945348e-002
1.666266e+003;7.914171e-002
1.668194e+003;7.837535e-002
1.670123e+003;7.804159e-002
1.672051e+003;7.817042e-002
1.673980e+003;7.747321e-002
1.675908e+003;7.695212e-002
1.677837e+003;7.716511e-002
1.679765e+003;7.667591e-002
1.681694e+003;7.528175e-002
1.683622e+003;7.317705e-002
1.685551e+003;7.340201e-002
1.687479e+003;7.472460e-002
1.689408e+003;7.464279e-002
1.691337e+003;7.438537e-002
1.693265e+003;7.354411e-002
1.695194e+003;7.192609e-002
1.697122e+003;7.185686e-002
1.699051e+003;7.160136e-002
1.700979e+003;7.177535e-002
1.702908e+003;7.324035e-002
1.704836e+003;7.367274e-002
1.706765e+003;7.414337e-002
1.708693e+003;7.472767e-002
1.710622e+003;7.538497e-002
1.712551e+003;7.604381e-002
1.714479e+003;7.659551e-002
1.716408e+003;7.708850e-002
1.718336e+003;7.954977e-002
1.720265e+003;8.370183e-002
1.722193e+003;8.702832e-002
1.724122e+003;9.000396e-002
1.726050e+003;9.304548e-002
1.727979e+003;9.545960e-002
1.729908e+003;9.706494e-002
1.731836e+003;9.685584e-002
1.733765e+003;9.516875e-002
1.735693e+003;9.442677e-002
1.737622e+003;9.256475e-002
1.739550e+003;8.846434e-002
1.741479e+003;8.407725e-002
1.743407e+003;7.954942e-002
1.745336e+003;7.510683e-002
1.747265e+003;7.123196e-002
1.749193e+003;6.811683e-002
1.751122e+003;6.591480e-002
1.753050e+003;6.518339e-002
1.754979e+003;6.480698e-002
1.756907e+003;6.425285e-002
1.758836e+003;6.400697e-002
1.760764e+003;6.360503e-002
1.762693e+003;6.340116e-002
1.764621e+003;6.366500e-002
1.766550e+003;6.319907e-002
1.768479e+003;6.242228e-002
1.770407e+003;6.174721e-002
1.772336e+003;6.137137e-002
1.774264e+003;6.208752e-002
1.776193e+003;6.269225e-002
1.778121e+003;6.255803e-002
1.780050e+003;6.227667e-002
1.781978e+003;6.213484e-002
1.783907e+003;6.204211e-002
1.785835e+003;6.212372e-002
1.787764e+003;6.211405e-002
1.789693e+003;6.167640e-002
1.791621e+003;6.105667e-002
1.793550e+003;6.106037e-002
1.795478e+003;6.141129e-002
1.797407e+003;6.133015e-002
1.799335e+003;6.117586e-002
1.801264e+003;6.103448e-002
1.803192e+003;6.130688e-002
1.805121e+003;6.137396e-002
1.807049e+003;6.116068e-002
1.808978e+003;6.100069e-002
1.810907e+003;6.085533e-002
1.812835e+003;6.079990e-002
1.814764e+003;6.066557e-002
1.816692e+003;6.070673e-002
1.818621e+003;6.083142e-002
1.820549e+003;6.077471e-002
1.822478e+003;6.068314e-002
1.824406e+003;6.041688e-002
1.826335e+003;6.040287e-002
1.828264e+003;6.015882e-002
1.830192e+003;5.984892e-002
1.832121e+003;6.013450e-002
1.834049e+003;6.036083e-002
1.835978e+003;6.013937e-002
1.837906e+003;6.000780e-002
1.839835e+003;5.996763e-002
1.841763e+003;5.950067e-002
1.843692e+003;5.892077e-002
1.845620e+003;5.926650e-002
1.847549e+003;5.957192e-002
1.849478e+003;5.943539e-002
1.851406e+003;5.943755e-002
1.853335e+003;5.954114e-002
1.855263e+003;5.948243e-002
1.857192e+003;5.933730e-002
1.859120e+003;5.918053e-002
1.861049e+003;5.902620e-002
1.862977e+003;5.909017e-002
1.864906e+003;5.902093e-002
1.866834e+003;5.859624e-002
1.868763e+003;5.847874e-002
1.870692e+003;5.880603e-002
1.872620e+003;5.889553e-002
1.874549e+003;5.891367e-002
1.876477e+003;5.892726e-002
1.878406e+003;5.891606e-002
1.880334e+003;5.881802e-002
1.882263e+003;5.889022e-002
1.884191e+003;5.894141e-002
1.886120e+003;5.866921e-002
1.888048e+003;5.831318e-002
1.889977e+003;5.828355e-002
1.891906e+003;5.865801e-002
1.893834e+003;5.880053e-002
1.895763e+003;5.873038e-002
1.897691e+003;5.854672e-002
1.899620e+003;5.870577e-002
1.901548e+003;5.873630e-002
1.903477e+003;5.860151e-002
1.905405e+003;5.849618e-002
1.907334e+003;5.834028e-002
1.909262e+003;5.823706e-002
1.911191e+003;5.839167e-002
1.913120e+003;5.845274e-002
1.915048e+003;5.864243e-002
1.916977e+003;5.864929e-002
1.918905e+003;5.866321e-002
1.920834e+003;5.866667e-002
1.922762e+003;5.849193e-002
1.924691e+003;5.854372e-002
1.926619e+003;5.875094e-002
1.928548e+003;5.905923e-002
1.930477e+003;5.927516e-002
1.932405e+003;5.915308e-002
1.934334e+003;5.899584e-002
1.936262e+003;5.900028e-002
1.938191e+003;5.903262e-002
1.940119e+003;5.909275e-002
1.942048e+003;5.925697e-002
1.943976e+003;5.950553e-002
1.945905e+003;5.950466e-002
1.947833e+003;5.954479e-002
1.949762e+003;5.960624e-002
1.951691e+003;5.965493e-002
1.953619e+003;5.973173e-002
1.955548e+003;5.972853e-002
1.957476e+003;5.978275e-002
1.959405e+003;5.991589e-002
1.961333e+003;5.984648e-002
1.963262e+003;5.961810e-002
1.965190e+003;5.966611e-002
1.967119e+003;5.968207e-002
1.969047e+003;5.955642e-002
1.970976e+003;5.970139e-002
1.972905e+003;5.974819e-002
1.974833e+003;5.959016e-002
1.976762e+003;5.967451e-002
1.978690e+003;5.963441e-002
1.980619e+003;5.961563e-002
1.982547e+003;5.978781e-002
1.984476e+003;5.995214e-002
1.986404e+003;5.988874e-002
1.988333e+003;5.997052e-002
1.990261e+003;6.010094e-002
1.992190e+003;6.016841e-002
1.994119e+003;6.039860e-002
1.996047e+003;6.054298e-002
1.997976e+003;6.063182e-002
1.999904e+003;6.067258e-002
2.001833e+003;6.054351e-002
2.003761e+003;6.032265e-002
2.005690e+003;6.017880e-002
2.007618e+003;6.036620e-002
2.009547e+003;6.032497e-002
2.011476e+003;6.030197e-002
2.013404e+003;6.041593e-002
2.015333e+003;6.073534e-002
2.017261e+003;6.098231e-002
2.019190e+003;6.087884e-002
2.021118e+003;6.084331e-002
2.023047e+003;6.096111e-002
2.024975e+003;6.110926e-002
2.026904e+003;6.107696e-002
2.028833e+003;6.122217e-002
2.030761e+003;6.154871e-002
2.032690e+003;6.155352e-002
2.034618e+003;6.164237e-002
2.036547e+003;6.186189e-002
2.038475e+003;6.189800e-002
2.040404e+003;6.176501e-002
2.042332e+003;6.163748e-002
2.044261e+003;6.164478e-002
2.046189e+003;6.175148e-002
2.048118e+003;6.187274e-002
2.050047e+003;6.176699e-002
2.051975e+003;6.162645e-002
2.053904e+003;6.162099e-002
2.055832e+003;6.166723e-002
2.057761e+003;6.160411e-002
2.059689e+003;6.162824e-002
2.061618e+003;6.166914e-002
2.063546e+003;6.157223e-002
2.065475e+003;6.154344e-002
2.067404e+003;6.149828e-002
2.069332e+003;6.161045e-002
2.071260e+003;6.167372e-002
2.073189e+003;6.160671e-002
2.075118e+003;6.161094e-002
2.077046e+003;6.147220e-002
2.078975e+003;6.129402e-002
2.080903e+003;6.145743e-002
2.082832e+003;6.149156e-002
2.084760e+003;6.128886e-002
2.086689e+003;6.108905e-002
2.088617e+003;6.100355e-002
2.090546e+003;6.089402e-002
2.092475e+003;6.113669e-002
2.094403e+003;6.129619e-002
2.096332e+003;6.123850e-002
2.098260e+003;6.117155e-002
2.100189e+003;6.115736e-002
2.102117e+003;6.128978e-002
2.104046e+003;6.141571e-002
2.105974e+003;6.121279e-002
2.107903e+003;6.118521e-002
2.109832e+003;6.141216e-002
2.111760e+003;6.156868e-002
2.113688e+003;6.158246e-002
2.115617e+003;6.145247e-002
2.117546e+003;6.152221e-002
2.119474e+003;6.173342e-002
2.121403e+003;6.187014e-002
2.123331e+003;6.188393e-002
2.125260e+003;6.188130e-002
2.127188e+003;6.191232e-002
2.129117e+003;6.184546e-002
2.131045e+003;6.191477e-002
2.132974e+003;6.222546e-002
2.134903e+003;6.201814e-002
2.136831e+003;6.174897e-002
2.138760e+003;6.186109e-002
2.140688e+003;6.201658e-002
2.142617e+003;6.194599e-002
2.144545e+003;6.173724e-002
2.146474e+003;6.156051e-002
2.148402e+003;6.146656e-002
2.150331e+003;6.151034e-002
2.152260e+003;6.158040e-002
2.154188e+003;6.149225e-002
2.156117e+003;6.151550e-002
2.158045e+003;6.148351e-002
2.159974e+003;6.125327e-002
2.161902e+003;6.112860e-002
2.163831e+003;6.120787e-002
2.165759e+003;6.119604e-002
2.167688e+003;6.097221e-002
2.169616e+003;6.077879e-002
2.171545e+003;6.040078e-002
2.173474e+003;6.007293e-002
2.175402e+003;6.008286e-002
2.177331e+003;6.003466e-002
2.179259e+003;5.991761e-002
2.181188e+003;5.981534e-002
2.183116e+003;5.964269e-002
2.185045e+003;5.967888e-002
2.186973e+003;5.957614e-002
2.188902e+003;5.915858e-002
2.190831e+003;5.904230e-002
2.192759e+003;5.926582e-002
2.194688e+003;5.931276e-002
2.196616e+003;5.946898e-002
2.198545e+003;5.967888e-002
2.200473e+003;5.956744e-002
2.202402e+003;5.941575e-002
2.204330e+003;5.921839e-002
2.206259e+003;5.917206e-002
2.208188e+003;5.909856e-002
2.210116e+003;5.896733e-002
2.212044e+003;5.902897e-002
2.213973e+003;5.915919e-002
2.215902e+003;5.917954e-002
2.217830e+003;5.917153e-002
2.219759e+003;5.912809e-002
2.221687e+003;5.908967e-002
2.223616e+003;5.909901e-002
2.225544e+003;5.918850e-002
2.227473e+003;5.944158e-002
2.229401e+003;5.932135e-002
2.231330e+003;5.904108e-002
2.233259e+003;5.899117e-002
2.235187e+003;5.896081e-002
2.237116e+003;5.913007e-002
2.239044e+003;5.911879e-002
2.240973e+003;5.902673e-002
2.242901e+003;5.896126e-002
2.244830e+003;5.892483e-002
2.246758e+003;5.882997e-002
2.248687e+003;5.882743e-002
2.250615e+003;5.908140e-002
2.252544e+003;5.923274e-002
2.254473e+003;5.916188e-002
2.256401e+003;5.908797e-002
2.258330e+003;5.894946e-002
2.260258e+003;5.858194e-002
2.262187e+003;5.832080e-002
2.264115e+003;5.833323e-002
2.266044e+003;5.836643e-002
2.267972e+003;5.798729e-002
2.269901e+003;5.779497e-002
2.271830e+003;5.801062e-002
2.273758e+003;5.802611e-002
2.275687e+003;5.814189e-002
2.277615e+003;5.842950e-002
2.279544e+003;5.821853e-002
2.281472e+003;5.746481e-002
2.283401e+003;5.734614e-002
2.285329e+003;5.775485e-002
2.287258e+003;5.787749e-002
2.289187e+003;5.771333e-002
2.291115e+003;5.746152e-002
2.293043e+003;5.731824e-002
2.294972e+003;5.718782e-002
2.296901e+003;5.703617e-002
2.298829e+003;5.708691e-002
2.300758e+003;5.723529e-002
2.302686e+003;5.705018e-002
2.304615e+003;5.695391e-002
2.306543e+003;5.696064e-002
2.308472e+003;5.690692e-002
2.310400e+003;5.709387e-002
2.312329e+003;5.718268e-002
2.314258e+003;5.723832e-002
2.316186e+003;5.720090e-002
2.318115e+003;5.700855e-002
2.320043e+003;5.666067e-002
2.321972e+003;5.663553e-002
2.323900e+003;5.694088e-002
2.325829e+003;5.705003e-002
2.327757e+003;5.714772e-002
2.329686e+003;5.697431e-002
2.331615e+003;5.683067e-002
2.333543e+003;5.682062e-002
2.335472e+003;5.672935e-002
2.337400e+003;5.673203e-002
2.339329e+003;5.672527e-002
2.341257e+003;5.697564e-002
2.343186e+003;5.730119e-002
2.345114e+003;5.729499e-002
2.347043e+003;5.749473e-002
2.348971e+003;5.786768e-002
2.350900e+003;5.788108e-002
2.352829e+003;5.769744e-002
2.354757e+003;5.744144e-002
2.356686e+003;5.734096e-002
2.358614e+003;5.728758e-002
2.360543e+003;5.739046e-002
2.362471e+003;5.742544e-002
2.364400e+003;5.743361e-002
2.366328e+003;5.764480e-002
2.368257e+003;5.788162e-002
2.370186e+003;5.787612e-002
2.372114e+003;5.767053e-002
2.374042e+003;5.780969e-002
2.375971e+003;5.806617e-002
2.377900e+003;5.822982e-002
2.379828e+003;5.846775e-002
2.381757e+003;5.870948e-002
2.383685e+003;5.878508e-002
2.385614e+003;5.895614e-002
2.387542e+003;5.912859e-002
2.389471e+003;5.903611e-002
2.391399e+003;5.891971e-002
2.393328e+003;5.909347e-002
2.395257e+003;5.914503e-002
2.397185e+003;5.918600e-002
2.399114e+003;5.917354e-002
2.401042e+003;5.916967e-002
2.402971e+003;5.939630e-002
2.404899e+003;5.966436e-002
2.406828e+003;5.981085e-002
2.408756e+003;5.965600e-002
2.410685e+003;5.989441e-002
2.412614e+003;6.002244e-002
2.414542e+003;5.975096e-002
2.416471e+003;5.957937e-002
2.418399e+003;5.963129e-002
2.420328e+003;5.974720e-002
2.422256e+003;5.981211e-002
2.424185e+003;6.007525e-002
2.426113e+003;6.063551e-002
2.428042e+003;6.110171e-002
2.429970e+003;6.075356e-002
2.431899e+003;6.025119e-002
2.433828e+003;6.039053e-002
2.435756e+003;6.060774e-002
2.437685e+003;6.048044e-002
2.439613e+003;6.041513e-002
2.441542e+003;6.061140e-002
2.443470e+003;6.073645e-002
2.445399e+003;6.066363e-002
2.447327e+003;6.068017e-002
2.449256e+003;6.112704e-002
2.451185e+003;6.147419e-002
2.453113e+003;6.120951e-002
2.455042e+003;6.085810e-002
2.456970e+003;6.095601e-002
2.458899e+003;6.126510e-002
2.460827e+003;6.120447e-002
2.462756e+003;6.117746e-002
2.464684e+003;6.130470e-002
2.466613e+003;6.135961e-002
2.468542e+003;6.117178e-002
2.470470e+003;6.111357e-002
2.472398e+003;6.137171e-002
2.474327e+003;6.152844e-002
2.476256e+003;6.174900e-002
2.478184e+003;6.213526e-002
2.480113e+003;6.216788e-002
2.482041e+003;6.197591e-002
2.483970e+003;6.193552e-002
2.485898e+003;6.182896e-002
2.487827e+003;6.187167e-002
2.489755e+003;6.210334e-002
2.491684e+003;6.208136e-002
2.493613e+003;6.197587e-002
2.495541e+003;6.225934e-002
2.497470e+003;6.265291e-002
2.499398e+003;6.268606e-002
2.501327e+003;6.267932e-002
2.503255e+003;6.274761e-002
2.505184e+003;6.268043e-002
2.507112e+003;6.244539e-002
2.509041e+003;6.225101e-002
2.510969e+003;6.241142e-002
2.512898e+003;6.272388e-002
2.514827e+003;6.305480e-002
2.516755e+003;6.310809e-002
2.518684e+003;6.312204e-002
2.520612e+003;6.324445e-002
2.522541e+003;6.307476e-002
2.524469e+003;6.299672e-002
2.526398e+003;6.311231e-002
2.528326e+003;6.311963e-002
2.530255e+003;6.313549e-002
2.532184e+003;6.332755e-002
2.534112e+003;6.348974e-002
2.536041e+003;6.352564e-002
2.537969e+003;6.340799e-002
2.539898e+003;6.325755e-002
2.541826e+003;6.319772e-002
2.543755e+003;6.327419e-002
2.545683e+003;6.333587e-002
2.547612e+003;6.311032e-002
2.549541e+003;6.300366e-002
2.551469e+003;6.326449e-002
2.553397e+003;6.346884e-002
2.555326e+003;6.337562e-002
2.557255e+003;6.330225e-002
2.559183e+003;6.377550e-002
2.561112e+003;6.383134e-002
2.563040e+003;6.369561e-002
2.564969e+003;6.381998e-002
2.566897e+003;6.377101e-002
2.568826e+003;6.366783e-002
2.570754e+003;6.380935e-002
2.572683e+003;6.385732e-002
2.574612e+003;6.356814e-002
2.576540e+003;6.353284e-002
2.578469e+003;6.385452e-002
2.580397e+003;6.366987e-002
2.582326e+003;6.342505e-002
2.584254e+003;6.359575e-002
2.586183e+003;6.379864e-002
2.588111e+003;6.380544e-002
2.590040e+003;6.386105e-002
2.591969e+003;6.421693e-002
2.593897e+003;6.444248e-002
2.595826e+003;6.432138e-002
2.597754e+003;6.410485e-002
2.599683e+003;6.419341e-002
2.601611e+003;6.445308e-002
2.603540e+003;6.444213e-002
2.605468e+003;6.440715e-002
2.607397e+003;6.457213e-002
2.609325e+003;6.458851e-002
2.611254e+003;6.477568e-002
2.613183e+003;6.493875e-002
2.615111e+003;6.486330e-002
2.617040e+003;6.484360e-002
2.618968e+003;6.500290e-002
2.620897e+003;6.515805e-002
2.622825e+003;6.519108e-002
2.624754e+003;6.541437e-002
2.626682e+003;6.543143e-002
2.628611e+003;6.524865e-002
2.630540e+003;6.529016e-002
2.632468e+003;6.541256e-002
2.634396e+003;6.561095e-002
2.636325e+003;6.570117e-002
2.638254e+003;6.550579e-002
2.640182e+003;6.548545e-002
2.642111e+003;6.557599e-002
2.644039e+003;6.551642e-002
2.645968e+003;6.562991e-002
2.647896e+003;6.570441e-002
2.649825e+003;6.586891e-002
2.651753e+003;6.605964e-002
2.653682e+003;6.606720e-002
2.655611e+003;6.601566e-002
2.657539e+003;6.614301e-002
2.659468e+003;6.628183e-002
2.661396e+003;6.629055e-002
2.663325e+003;6.626747e-002
2.665253e+003;6.638655e-002
2.667182e+003;6.661230e-002
2.669110e+003;6.654000e-002
2.671039e+003;6.680888e-002
2.672968e+003;6.707475e-002
2.674896e+003;6.683910e-002
2.676825e+003;6.687048e-002
2.678753e+003;6.703253e-002
2.680682e+003;6.712232e-002
2.682610e+003;6.704920e-002
2.684539e+003;6.707224e-002
2.686467e+003;6.723592e-002
2.688396e+003;6.744326e-002
2.690324e+003;6.756302e-002
2.692253e+003;6.763700e-002
2.694182e+003;6.768741e-002
2.696110e+003;6.774144e-002
2.698039e+003;6.786786e-002
2.699967e+003;6.786899e-002
2.701896e+003;6.771123e-002
2.703824e+003;6.782734e-002
2.705753e+003;6.829672e-002
2.707681e+003;6.853840e-002
2.709610e+003;6.848866e-002
2.711539e+003;6.850321e-002
2.713467e+003;6.850010e-002
2.715396e+003;6.852967e-002
2.717324e+003;6.865213e-002
2.719253e+003;6.879365e-002
2.721181e+003;6.873631e-002
2.723110e+003;6.863665e-002
2.725038e+003;6.913677e-002
2.726967e+003;6.973091e-002
2.728896e+003;6.982643e-002
2.730824e+003;6.957660e-002
2.732752e+003;6.920002e-002
2.734681e+003;6.897793e-002
2.736610e+003;6.911233e-002
2.738538e+003;6.951974e-002
2.740467e+003;6.983410e-002
2.742395e+003;6.982647e-002
2.744324e+003;6.963447e-002
2.746252e+003;6.968142e-002
2.748181e+003;6.966723e-002
2.750109e+003;6.931603e-002
2.752038e+003;6.926768e-002
2.753967e+003;6.957792e-002
2.755895e+003;6.976017e-002
2.757824e+003;7.014521e-002
2.759752e+003;7.034935e-002
2.761681e+003;7.021905e-002
2.763609e+003;7.040983e-002
2.765538e+003;7.048741e-002
2.767466e+003;7.037289e-002
2.769395e+003;7.054034e-002
2.771323e+003;7.061994e-002
2.773252e+003;7.034281e-002
2.775181e+003;7.016589e-002
2.777109e+003;7.048862e-002
2.779038e+003;7.056580e-002
2.780966e+003;7.068536e-002
2.782895e+003;7.099053e-002
2.784823e+003;7.121912e-002
2.786752e+003;7.150295e-002
2.788680e+003;7.168026e-002
2.790609e+003;7.184129e-002
2.792538e+003;7.236011e-002
2.794466e+003;7.272052e-002
2.796395e+003;7.249720e-002
2.798323e+003;7.233213e-002
2.800252e+003;7.244094e-002
2.802180e+003;7.262099e-002
2.804109e+003;7.324698e-002
2.806037e+003;7.368193e-002
2.807966e+003;7.386225e-002
2.809895e+003;7.377302e-002
2.811823e+003;7.382616e-002
2.813751e+003;7.404834e-002
2.815680e+003;7.424041e-002
2.817609e+003;7.491484e-002
2.819537e+003;7.553181e-002
2.821466e+003;7.601030e-002
2.823394e+003;7.634163e-002
2.825323e+003;7.659534e-002
2.827251e+003;7.701606e-002
2.829180e+003;7.772136e-002
2.831108e+003;7.849503e-002
2.833037e+003;7.913372e-002
2.834966e+003;7.970098e-002
2.836894e+003;8.043300e-002
2.838823e+003;8.130012e-002
2.840751e+003;8.256058e-002
2.842680e+003;8.496780e-002
2.844608e+003;8.875800e-002
2.846537e+003;9.359945e-002
2.848465e+003;9.762762e-002
2.850394e+003;9.843553e-002
2.852323e+003;9.602698e-002
2.854251e+003;9.290092e-002
2.856180e+003;9.066840e-002
2.858108e+003;8.948502e-002
2.860037e+003;8.906154e-002
2.861965e+003;8.897568e-002
2.863894e+003;8.926183e-002
2.865822e+003;8.982773e-002
2.867751e+003;9.023675e-002
2.869679e+003;9.070812e-002
2.871608e+003;9.109336e-002
2.873536e+003;9.133556e-002
2.875465e+003;9.165245e-002
2.877394e+003;9.184276e-002
2.879322e+003;9.225307e-002
2.881251e+003;9.247869e-002
2.883179e+003;9.282924e-002
2.885108e+003;9.347237e-002
2.887036e+003;9.448649e-002
2.888965e+003;9.537230e-002
2.890893e+003;9.597845e-002
2.892822e+003;9.680213e-002
2.894750e+003;9.791883e-002
2.896679e+003;9.838678e-002
2.898608e+003;9.837826e-002
2.900536e+003;9.871875e-002
2.902465e+003;9.895259e-002
2.904393e+003;9.879890e-002
2.906322e+003;9.891044e-002
2.908250e+003;9.889164e-002
2.910179e+003;9.931478e-002
2.912107e+003;1.013964e-001
2.914036e+003;1.045491e-001
2.915965e+003;1.067238e-001
2.917893e+003;1.069709e-001
2.919822e+003;1.053135e-001
2.921750e+003;1.022585e-001
2.923679e+003;9.896000e-002
2.925607e+003;9.555901e-002
2.927536e+003;9.250010e-002
2.929464e+003;9.028194e-002
2.931393e+003;8.801998e-002
2.933322e+003;8.594745e-002
2.935250e+003;8.471055e-002
2.937178e+003;8.410937e-002
2.939107e+003;8.338941e-002
2.941036e+003;8.253289e-002
2.942964e+003;8.206770e-002
2.944893e+003;8.182629e-002
2.946821e+003;8.156715e-002
2.948750e+003;8.065432e-002
2.950678e+003;7.994635e-002
2.952607e+003;7.974780e-002
2.954535e+003;7.959689e-002
2.956464e+003;7.977256e-002
2.958393e+003;7.993512e-002
2.960321e+003;7.994950e-002
2.962250e+003;8.005574e-002
2.964178e+003;7.979140e-002
2.966107e+003;7.901034e-002
2.968035e+003;7.836500e-002
2.969964e+003;7.778081e-002
2.971892e+003;7.658333e-002
2.973821e+003;7.512960e-002
2.975750e+003;7.398716e-002
2.977678e+003;7.331809e-002
2.979607e+003;7.263078e-002
2.981535e+003;7.195832e-002
2.983464e+003;7.108719e-002
2.985392e+003;7.051867e-002
2.987321e+003;7.023997e-002
2.989249e+003;6.993058e-002
2.991178e+003;6.960355e-002
2.993106e+003;6.914415e-002
2.995035e+003;6.858081e-002
2.996964e+003;6.834546e-002
2.998892e+003;6.822006e-002
3.000821e+003;6.803861e-002
3.002749e+003;6.768749e-002
3.004678e+003;6.755941e-002
3.006606e+003;6.776715e-002
3.008535e+003;6.794232e-002
3.010463e+003;6.784558e-002
3.012392e+003;6.765381e-002
3.014321e+003;6.765826e-002
3.016249e+003;6.770051e-002
3.018177e+003;6.758729e-002
3.020106e+003;6.771290e-002
3.022035e+003;6.789726e-002
3.023963e+003;6.814686e-002
3.025892e+003;6.840984e-002
3.027820e+003;6.854787e-002
3.029749e+003;6.862198e-002
3.031677e+003;6.889063e-002
3.033606e+003;6.910635e-002
3.035534e+003;6.899032e-002
3.037463e+003;6.897094e-002
3.039392e+003;6.916770e-002
3.041320e+003;6.938545e-002
3.043249e+003;6.963381e-002
3.045177e+003;6.964050e-002
3.047106e+003;6.948354e-002
3.049034e+003;6.981324e-002
3.050963e+003;6.993338e-002
3.052891e+003;7.001220e-002
3.054820e+003;7.016947e-002
3.056749e+003;7.015335e-002
3.058677e+003;7.013271e-002
3.060606e+003;7.052385e-002
3.062534e+003;7.112388e-002
3.064463e+003;7.128584e-002
3.066391e+003;7.089058e-002
3.068320e+003;7.052249e-002
3.070248e+003;7.107618e-002
3.072177e+003;7.185443e-002
3.074105e+003;7.191038e-002
3.076034e+003;7.201295e-002
3.077963e+003;7.198256e-002
3.079891e+003;7.221755e-002
3.081820e+003;7.266736e-002
3.083748e+003;7.270489e-002
3.085677e+003;7.285824e-002
3.087605e+003;7.302152e-002
3.089534e+003;7.326823e-002
3.091462e+003;7.351165e-002
3.093391e+003;7.376485e-002
3.095320e+003;7.388754e-002
3.097248e+003;7.380522e-002
3.099177e+003;7.391024e-002
3.101105e+003;7.374718e-002
3.103034e+003;7.390326e-002
3.104962e+003;7.441884e-002
3.106891e+003;7.456426e-002
3.108819e+003;7.471295e-002
3.110748e+003;7.540598e-002
3.112677e+003;7.626627e-002
3.114605e+003;7.680266e-002
3.116533e+003;7.647292e-002
3.118462e+003;7.596286e-002
3.120391e+003;7.589751e-002
3.122319e+003;7.635305e-002
3.124248e+003;7.705870e-002
3.126176e+003;7.753440e-002
3.128105e+003;7.754748e-002
3.130033e+003;7.782968e-002
3.131962e+003;7.794948e-002
3.133890e+003;7.815475e-002
3.135819e+003;7.840635e-002
3.137748e+003;7.860071e-002
3.139676e+003;7.911273e-002
3.141605e+003;7.939030e-002
3.143533e+003;7.979984e-002
3.145462e+003;8.049624e-002
3.147390e+003;8.073604e-002
3.149319e+003;8.082679e-002
3.151247e+003;8.091360e-002
3.153176e+003;8.130424e-002
3.155104e+003;8.142364e-002
3.157033e+003;8.131750e-002
3.158962e+003;8.183045e-002
3.160890e+003;8.256411e-002
3.162819e+003;8.281431e-002
3.164747e+003;8.259308e-002
3.166676e+003;8.295117e-002
3.168604e+003;8.384757e-002
3.170533e+003;8.462556e-002
3.172461e+003;8.491582e-002
3.174390e+003;8.533693e-002
3.176319e+003;8.542740e-002
3.178247e+003;8.535253e-002
3.180176e+003;8.582962e-002
3.182104e+003;8.663061e-002
3.184033e+003;8.739249e-002
3.185961e+003;8.760644e-002
3.187890e+003;8.764131e-002
3.189818e+003;8.808256e-002
3.191747e+003;8.839428e-002
3.193676e+003;8.914822e-002
3.195604e+003;8.958083e-002
3.197532e+003;8.990879e-002
3.199461e+003;9.078534e-002
3.201390e+003;9.170245e-002
3.203318e+003;9.200139e-002
3.205247e+003;9.180433e-002
3.207175e+003;9.208612e-002
3.209104e+003;9.279010e-002
3.211032e+003;9.391659e-002
3.212961e+003;9.474093e-002
3.214889e+003;9.488615e-002
3.216818e+003;9.527680e-002
3.218747e+003;9.587733e-002
3.220675e+003;9.683464e-002
3.222604e+003;9.749635e-002
3.224532e+003;9.745371e-002
3.226461e+003;9.811046e-002
3.228389e+003;9.914505e-002
3.230318e+003;9.957503e-002
3.232246e+003;1.003152e-001
3.234175e+003;1.008303e-001
3.236104e+003;1.008774e-001
3.238032e+003;1.018251e-001
3.239961e+003;1.032747e-001
3.241889e+003;1.042987e-001
3.243818e+003;1.048419e-001
3.245746e+003;1.056349e-001
3.247675e+003;1.068246e-001
3.249603e+003;1.080214e-001
3.251532e+003;1.086459e-001
3.253460e+003;1.094128e-001
3.255389e+003;1.108666e-001
3.257318e+003;1.117330e-001
3.259246e+003;1.124279e-001
3.261175e+003;1.137313e-001
3.263103e+003;1.148169e-001
3.265032e+003;1.153991e-001
3.266960e+003;1.160979e-001
3.268889e+003;1.173470e-001
3.270817e+003;1.182567e-001
3.272746e+003;1.182344e-001
3.274675e+003;1.184468e-001
3.276603e+003;1.188841e-001
3.278531e+003;1.189869e-001
3.280460e+003;1.192345e-001
3.282389e+003;1.194538e-001
3.284317e+003;1.197368e-001
3.286246e+003;1.204531e-001
3.288174e+003;1.206561e-001
3.290103e+003;1.206251e-001
3.292031e+003;1.204883e-001
3.293960e+003;1.196455e-001
3.295888e+003;1.195444e-001
3.297817e+003;1.200335e-001
3.299746e+003;1.198782e-001
3.301674e+003;1.198528e-001
3.303603e+003;1.199661e-001
3.305531e+003;1.194619e-001
3.307460e+003;1.193255e-001
3.309388e+003;1.193778e-001
3.311317e+003;1.200462e-001
3.313245e+003;1.203381e-001
3.315174e+003;1.200851e-001
3.317103e+003;1.200251e-001
3.319031e+003;1.206334e-001
3.320960e+003;1.216029e-001
3.322888e+003;1.226146e-001
3.324817e+003;1.230702e-001
3.326745e+003;1.232102e-001
3.328674e+003;1.237590e-001
3.330602e+003;1.244447e-001
3.332531e+003;1.249087e-001
3.334459e+003;1.247539e-001
3.336388e+003;1.244987e-001
3.338317e+003;1.242060e-001
3.340245e+003;1.236061e-001
3.342174e+003;1.229485e-001
3.344102e+003;1.223545e-001
3.346031e+003;1.210151e-001
3.347959e+003;1.193895e-001
3.349888e+003;1.190180e-001
3.351816e+003;1.188067e-001
3.353745e+003;1.173725e-001
3.355674e+003;1.160013e-001
3.357602e+003;1.150807e-001
3.359531e+003;1.137210e-001
3.361459e+003;1.126115e-001
3.363388e+003;1.122596e-001
3.365316e+003;1.114000e-001
3.367245e+003;1.100572e-001
3.369173e+003;1.091408e-001
3.371102e+003;1.086665e-001
3.373031e+003;1.082217e-001
3.374959e+003;1.079990e-001
3.376887e+003;1.072434e-001
3.378816e+003;1.063885e-001
3.380745e+003;1.056947e-001
3.382673e+003;1.049917e-001
3.384602e+003;1.042715e-001
3.386530e+003;1.037534e-001
3.388459e+003;1.033925e-001
3.390387e+003;1.029989e-001
3.392316e+003;1.028723e-001
3.394244e+003;1.025497e-001
3.396173e+003;1.018044e-001
3.398102e+003;1.008544e-001
3.400030e+003;1.000810e-001
3.401959e+003;1.000937e-001
3.403887e+003;9.995979e-002
3.405816e+003;9.934156e-002
3.407744e+003;9.905477e-002
3.409673e+003;9.880523e-002
3.411601e+003;9.793722e-002
3.413530e+003;9.633961e-002
3.415458e+003;9.502732e-002
3.417387e+003;9.432531e-002
3.419316e+003;9.344201e-002
3.421244e+003;9.277767e-002
3.423173e+003;9.202857e-002
3.425101e+003;9.134288e-002
3.427030e+003;9.019955e-002
3.428958e+003;8.884694e-002
3.430887e+003;8.822881e-002
3.432815e+003;8.829933e-002
3.434744e+003;8.788350e-002
3.436673e+003;8.689988e-002
3.438601e+003;8.608741e-002
3.440530e+003;8.539170e-002
3.442458e+003;8.470581e-002
3.444387e+003;8.465470e-002
3.446315e+003;8.421149e-002
3.448244e+003;8.297864e-002
3.450172e+003;8.212454e-002
3.452101e+003;8.207370e-002
3.454030e+003;8.166031e-002
3.455958e+003;8.066270e-002
3.457886e+003;7.992563e-002
3.459815e+003;7.919101e-002
3.461744e+003;7.847117e-002
3.463672e+003;7.822734e-002
3.465601e+003;7.788331e-002
3.467529e+003;7.746248e-002
3.469458e+003;7.687155e-002
3.471386e+003;7.670994e-002
3.473315e+003;7.620589e-002
3.475243e+003;7.533290e-002
3.477172e+003;7.455250e-002
3.479101e+003;7.352193e-002
3.481029e+003;7.311655e-002
3.482958e+003;7.286987e-002
3.484886e+003;7.190534e-002
3.486815e+003;7.101187e-002
3.488743e+003;7.038524e-002
3.490672e+003;7.007656e-002
3.492600e+003;7.041170e-002
3.494529e+003;7.020608e-002
3.496458e+003;6.965073e-002
3.498386e+003;6.923896e-002
3.500315e+003;6.840678e-002
3.502243e+003;6.781197e-002
3.504172e+003;6.748645e-002
3.506100e+003;6.650258e-002
3.508029e+003;6.585538e-002
3.509957e+003;6.580414e-002
3.511886e+003;6.526305e-002
3.513814e+003;6.513549e-002
3.515743e+003;6.530464e-002
3.517672e+003;6.457286e-002
3.519600e+003;6.378863e-002
3.521529e+003;6.339291e-002
3.523457e+003;6.309806e-002
3.525386e+003;6.238582e-002
3.527314e+003;6.233350e-002
3.529243e+003;6.258356e-002
3.531171e+003;6.227582e-002
3.533100e+003;6.186139e-002
3.535029e+003;6.141423e-002
3.536957e+003;6.071584e-002
3.538885e+003;6.045706e-002
3.540814e+003;6.029657e-002
3.542743e+003;5.964323e-002
3.544671e+003;5.899481e-002
3.546600e+003;5.867599e-002
3.548528e+003;5.817932e-002
3.550457e+003;5.787124e-002
3.552385e+003;5.760931e-002
3.554314e+003;5.737182e-002
3.556242e+003;5.746443e-002
3.558171e+003;5.719697e-002
3.560100e+003;5.653649e-002
3.562028e+003;5.598956e-002
3.563957e+003;5.540717e-002
3.565885e+003;5.461713e-002
3.567814e+003;5.443831e-002
3.569742e+003;5.491847e-002
3.571671e+003;5.463543e-002
3.573599e+003;5.443579e-002
3.575528e+003;5.396574e-002
3.577457e+003;5.312270e-002
3.579385e+003;5.307957e-002
3.581314e+003;5.315120e-002
3.583242e+003;5.289442e-002
3.585171e+003;5.277662e-002
3.587099e+003;5.266416e-002
3.589028e+003;5.245071e-002
3.590956e+003;5.242928e-002
3.592885e+003;5.216557e-002
3.594813e+003;5.161250e-002
3.596742e+003;5.112410e-002
3.598671e+003;5.119653e-002
3.600599e+003;5.147916e-002
3.602528e+003;5.132669e-002
3.604456e+003;5.059667e-002
3.606385e+003;4.982859e-002
3.608313e+003;4.959174e-002
3.610242e+003;4.973569e-002
3.612170e+003;4.981978e-002
3.614099e+003;5.002946e-002
3.616028e+003;4.998217e-002
3.617956e+003;4.971310e-002
3.619885e+003;4.964969e-002
3.621813e+003;4.976196e-002
3.623742e+003;4.966982e-002
3.625670e+003;4.881020e-002
3.627599e+003;4.730174e-002
3.629527e+003;4.716225e-002
3.631456e+003;4.762407e-002
3.633385e+003;4.723579e-002
3.635313e+003;4.712015e-002
3.637241e+003;4.708189e-002
3.639170e+003;4.731142e-002
3.641099e+003;4.735317e-002
3.643027e+003;4.669941e-002
3.644956e+003;4.580624e-002
3.646884e+003;4.449780e-002
3.648813e+003;4.360577e-002
3.650741e+003;4.423269e-002
3.652670e+003;4.470668e-002
3.654598e+003;4.384281e-002
3.656527e+003;4.347735e-002
3.658456e+003;4.386913e-002
3.660384e+003;4.421127e-002
3.662313e+003;4.405546e-002
3.664241e+003;4.427698e-002
3.666170e+003;4.387034e-002
3.668098e+003;4.196753e-002
3.670027e+003;4.088958e-002
3.671955e+003;4.216249e-002
3.673884e+003;4.284058e-002
3.675813e+003;4.228472e-002
3.677741e+003;4.222044e-002
3.679669e+003;4.218221e-002
3.681598e+003;4.198424e-002
3.683527e+003;4.180019e-002
3.685455e+003;4.102532e-002
3.687384e+003;3.993012e-002
3.689312e+003;3.985541e-002
3.691241e+003;4.019668e-002
3.693169e+003;4.050898e-002
3.695098e+003;4.051600e-002
3.697026e+003;4.047396e-002
3.698955e+003;4.032864e-002
3.700884e+003;3.992863e-002
3.702812e+003;4.018229e-002
3.704741e+003;4.066185e-002
3.706669e+003;4.049851e-002
3.708598e+003;4.013235e-002
3.710526e+003;3.975859e-002
3.712455e+003;3.937253e-002
3.714383e+003;3.928921e-002
3.716312e+003;3.910172e-002
3.718240e+003;3.917979e-002
3.720169e+003;3.930045e-002
3.722098e+003;3.960662e-002
3.724026e+003;3.972708e-002
3.725955e+003;3.916325e-002
3.727883e+003;3.923655e-002
3.729812e+003;3.863696e-002
3.731740e+003;3.781861e-002
3.733669e+003;3.761279e-002
3.735597e+003;3.748845e-002
3.737526e+003;3.834403e-002
3.739455e+003;3.893052e-002
3.741383e+003;3.825920e-002
3.743312e+003;3.615516e-002
3.745240e+003;3.586865e-002
3.747169e+003;3.642360e-002
3.749097e+003;3.638685e-002
3.751026e+003;3.747790e-002
3.752954e+003;3.824447e-002
3.754883e+003;3.859763e-002
3.756812e+003;3.904321e-002
3.758740e+003;3.895557e-002
3.760668e+003;3.871066e-002
3.762597e+003;3.939734e-002
3.764526e+003;3.949158e-002
3.766454e+003;3.888175e-002
3.768383e+003;3.795925e-002
3.770311e+003;3.798565e-002
3.772240e+003;3.855160e-002
3.774168e+003;3.798594e-002
3.776097e+003;3.762627e-002
3.778025e+003;3.881627e-002
3.779954e+003;3.986267e-002
3.781883e+003;3.943798e-002
3.783811e+003;3.926726e-002
3.785740e+003;3.939673e-002
3.787668e+003;3.914393e-002
3.789597e+003;3.881475e-002
3.791525e+003;3.819280e-002
3.793454e+003;3.854002e-002
3.795382e+003;3.901160e-002
3.797311e+003;3.902469e-002
3.799240e+003;3.821173e-002
3.801168e+003;3.752435e-002
3.803097e+003;3.817399e-002
3.805025e+003;3.818296e-002
3.806954e+003;3.782179e-002
3.808882e+003;3.816487e-002
3.810811e+003;3.886069e-002
3.812739e+003;3.931402e-002
3.814668e+003;3.824783e-002
3.816596e+003;3.744037e-002
3.818525e+003;3.739480e-002
3.820454e+003;3.717784e-002
3.822382e+003;3.809408e-002
3.824311e+003;3.897010e-002
3.826239e+003;3.925972e-002
3.828168e+003;3.937532e-002
3.830096e+003;3.848295e-002
3.832025e+003;3.793448e-002
3.833953e+003;3.809766e-002
3.835882e+003;3.791514e-002
3.837811e+003;3.797263e-002
3.839739e+003;3.881149e-002
3.841667e+003;3.890693e-002
3.843596e+003;3.872425e-002
3.845525e+003;3.891527e-002
3.847453e+003;3.862638e-002
3.849382e+003;3.827429e-002
3.851310e+003;3.735745e-002
3.853239e+003;3.633835e-002
3.855167e+003;3.801979e-002
3.857096e+003;3.976658e-002
3.859024e+003;3.945409e-002
3.860953e+003;3.913613e-002
3.862882e+003;3.928475e-002
3.864810e+003;3.884660e-002
3.866739e+003;3.961465e-002
3.868667e+003;3.933404e-002
3.870596e+003;3.872863e-002
3.872524e+003;3.908066e-002
3.874453e+003;3.975587e-002
3.876381e+003;4.039424e-002
3.878310e+003;3.996241e-002
3.880239e+003;3.993419e-002
3.882167e+003;4.030410e-002
3.884096e+003;4.006313e-002
3.886024e+003;4.002894e-002
3.887953e+003;4.052208e-002
3.889881e+003;4.047654e-002
3.891810e+003;3.999987e-002
3.893738e+003;4.024296e-002
3.895667e+003;4.088710e-002
3.897595e+003;4.051247e-002
3.899524e+003;4.015885e-002
3.901453e+003;4.048359e-002
3.903381e+003;4.060131e-002
3.905310e+003;4.079035e-002
3.907238e+003;4.110602e-002
3.909167e+003;4.127506e-002
3.911095e+003;4.144847e-002
3.913024e+003;4.121589e-002
3.914952e+003;4.051662e-002
3.916881e+003;4.034482e-002
3.918810e+003;4.079424e-002
3.920738e+003;4.166100e-002
3.922667e+003;4.182398e-002
3.924595e+003;4.134237e-002
3.926524e+003;4.166975e-002
3.928452e+003;4.208765e-002
3.930381e+003;4.211788e-002
3.932309e+003;4.124999e-002
3.934238e+003;4.104604e-002
3.936167e+003;4.208352e-002
3.938095e+003;4.242769e-002
3.940023e+003;4.165338e-002
3.941952e+003;4.141307e-002
3.943881e+003;4.178698e-002
3.945809e+003;4.191677e-002
3.947738e+003;4.210313e-002
3.949666e+003;4.248333e-002
3.951595e+003;4.236675e-002
3.953523e+003;4.225784e-002
3.955452e+003;4.206629e-002
3.957380e+003;4.223465e-002
3.959309e+003;4.243324e-002
3.961238e+003;4.292137e-002
3.963166e+003;4.302738e-002
3.965095e+003;4.290443e-002
3.967023e+003;4.228621e-002
3.968952e+003;4.148503e-002
3.970880e+003;4.113564e-002
3.972809e+003;4.073066e-002
3.974737e+003;4.132476e-002
3.976666e+003;4.306813e-002
3.978594e+003;4.368838e-002
3.980523e+003;4.309913e-002
3.982452e+003;4.305079e-002
3.984380e+003;4.381272e-002
3.986309e+003;4.334820e-002
3.988237e+003;4.227219e-002
3.990166e+003;4.184138e-002
3.992094e+003;4.207349e-002
3.994023e+003;4.249839e-002
3.995951e+003;4.185306e-002
3.997880e+003;4.165637e-002
3.999809e+003;4.241772e-002
4.001737e+003;0.000000e+000
