3.992094e+002;0.000000e+000
4.011380e+002;0.000000e+000
4.030665e+002;0.000000e+000
4.049951e+002;0.000000e+000
4.069236e+002;0.000000e+000
4.088522e+002;0.000000e+000
4.107807e+002;0.000000e+000
4.127093e+002;0.000000e+000
4.146378e+002;0.000000e+000
4.165664e+002;0.000000e+000
4.184949e+002;0.000000e+000
4.204235e+002;0.000000e+000
4.223520e+002;0.000000e+000
4.242806e+002;0.000000e+000
4.262091e+002;0.000000e+000
4.281377e+002;0.000000e+000
4.300662e+002;0.000000e+000
4.319948e+002;0.000000e+000
4.339233e+002;0.000000e+000
4.358519e+002;0.000000e+000
4.377804e+002;0.000000e+000
4.397090e+002;0.000000e+000
4.416375e+002;0.000000e+000
4.435660e+002;0.000000e+000
4.454946e+002;0.000000e+000
4.474232e+002;0.000000e+000
4.493517e+002;0.000000e+000
4.512802e+002;0.000000e+000
4.532088e+002;0.000000e+000
4.551373e+002;0.000000e+000
4.570659e+002;0.000000e+000
4.589944e+002;0.000000e+000
4.609230e+002;0.000000e+000
4.628515e+002;0.000000e+000
4.647801e+002;0.000000e+000
4.667086e+002;0.000000e+000
4.686372e+002;0.000000e+000
4.705657e+002;0.000000e+000
4.724943e+002;0.000000e+000
4.744228e+002;0.000000e+000
4.763513e+002;0.000000e+000
4.782799e+002;0.000000e+000
4.802085e+002;0.000000e+000
4.821370e+002;0.000000e+000
4.840656e+002;0.000000e+000
4.859941e+002;0.000000e+000
4.879226e+002;0.000000e+000
4.898512e+002;0.000000e+000
4.917798e+002;0.000000e+000
4.937083e+002;0.000000e+000
4.956368e+002;0.000000e+000
4.975654e+002;0.000000e+000
4.994939e+002;0.000000e+000
5.014225e+002;0.000000e+000
5.033510e+002;0.000000e+000
5.052796e+002;0.000000e+000
5.072081e+002;0.000000e+000
5.091367e+002;0.000000e+000
5.110652e+002;0.000000e+000
5.129938e+002;0.000000e+000
5.149223e+002;0.000000e+000
5.168509e+002;0.000000e+000
5.187794e+002;0.000000e+000
5.207079e+002;0.000000e+000
5.226365e+002;0.000000e+000
5.245651e+002;0.000000e+000
5.264936e+002;0.000000e+000
5.284222e+002;0.000000e+000
5.303507e+002;0.000000e+000
5.322792e+002;0.000000e+000
5.342078e+002;0.000000e+000
5.361364e+002;0.000000e+000
5.380649e+002;0.000000e+000
5.399935e+002;0.000000e+000
5.419220e+002;0.000000e+000
5.438505e+002;0.000000e+000
5.457791e+002;0.000000e+000
5.477076e+002;0.000000e+000
5.496362e+002;0.000000e+000
5.515648e+002;0.000000e+000
5.534933e+002;0.000000e+000
5.554218e+002;0.000000e+000
5.573504e+002;0.000000e+000
5.592789e+002;0.000000e+000
5.612075e+002;0.000000e+000
5.631360e+002;0.000000e+000
5.650646e+002;0.000000e+000
5.669931e+002;0.000000e+000
5.689217e+002;0.000000e+000
5.708502e+002;0.000000e+000
5.727787e+002;0.000000e+000
5.747073e+002;0.000000e+000
5.766359e+002;0.000000e+000
5.785644e+002;0.000000e+000
5.804930e+002;0.000000e+000
5.824215e+002;0.000000e+000
5.843500e+002;0.000000e+000
5.862786e+002;0.000000e+000
5.882072e+002;0.000000e+000
5.901357e+002;0.000000e+000
5.920643e+002;0.000000e+000
5.939928e+002;0.000000e+000
5.959213e+002;0.000000e+000
5.978499e+002;0.000000e+000
5.997784e+002;2.770241e-001
6.017070e+002;2.797046e-001
6.036355e+002;2.857598e-001
6.055641e+002;2.917832e-001
6.074926e+002;2.897875e-001
6.094211e+002;2.836641e-001
6.113497e+002;2.778760e-001
6.132783e+002;2.822945e-001
6.152068e+002;2.871470e-001
6.171354e+002;2.829610e-001
6.190639e+002;2.779144e-001
6.209924e+002;2.762069e-001
6.229210e+002;2.702155e-001
6.248495e+002;2.637319e-001
6.267781e+002;2.636147e-001
6.287067e+002;2.628979e-001
6.306352e+002;2.522065e-001
6.325637e+002;2.433160e-001
6.344923e+002;2.421261e-001
6.364208e+002;2.417955e-001
6.383494e+002;2.447723e-001
6.402780e+002;2.434245e-001
6.422065e+002;2.394588e-001
6.441350e+002;2.404767e-001
6.460636e+002;2.419735e-001
6.479921e+002;2.372304e-001
6.499207e+002;2.342371e-001
6.518492e+002;2.338211e-001
6.537778e+002;2.390805e-001
6.557063e+002;2.485015e-001
6.576349e+002;2.539842e-001
6.595634e+002;2.573618e-001
6.614919e+002;2.629814e-001
6.634205e+002;2.647375e-001
6.653491e+002;2.617236e-001
6.672776e+002;2.568143e-001
6.692062e+002;2.527953e-001
6.711347e+002;2.488157e-001
6.730632e+002;2.434068e-001
6.749918e+002;2.336025e-001
6.769203e+002;2.256669e-001
6.788489e+002;2.208790e-001
6.807775e+002;2.169157e-001
6.827060e+002;2.150492e-001
6.846345e+002;2.126575e-001
6.865631e+002;2.115907e-001
6.884916e+002;2.130159e-001
6.904202e+002;2.141331e-001
6.923488e+002;2.151890e-001
6.942773e+002;2.164537e-001
6.962058e+002;2.165339e-001
6.981344e+002;2.161836e-001
7.000629e+002;2.169381e-001
7.019915e+002;2.169586e-001
7.039200e+002;2.135587e-001
7.058486e+002;2.081724e-001
7.077771e+002;2.037565e-001
7.097057e+002;2.005907e-001
7.116342e+002;1.967098e-001
7.135627e+002;1.931076e-001
7.154913e+002;1.898611e-001
7.174199e+002;1.858999e-001
7.193484e+002;1.821049e-001
7.212770e+002;1.769383e-001
7.232055e+002;1.706154e-001
7.251340e+002;1.651518e-001
7.270626e+002;1.609505e-001
7.289911e+002;1.575321e-001
7.309197e+002;1.558207e-001
7.328483e+002;1.537355e-001
7.347768e+002;1.501185e-001
7.367053e+002;1.478661e-001
7.386339e+002;1.462238e-001
7.405624e+002;1.444302e-001
7.424910e+002;1.431263e-001
7.444196e+002;1.411412e-001
7.463481e+002;1.386559e-001
7.482766e+002;1.363935e-001
7.502052e+002;1.345814e-001
7.521337e+002;1.332966e-001
7.540623e+002;1.334126e-001
7.559908e+002;1.341293e-001
7.579194e+002;1.332198e-001
7.598479e+002;1.315847e-001
7.617765e+002;1.313938e-001
7.637050e+002;1.304319e-001
7.656335e+002;1.290309e-001
7.675621e+002;1.276079e-001
7.694907e+002;1.257717e-001
7.714192e+002;1.238473e-001
7.733478e+002;1.224522e-001
7.752763e+002;1.219944e-001
7.772048e+002;1.215151e-001
7.791334e+002;1.209999e-001
7.810620e+002;1.206762e-001
7.829905e+002;1.201872e-001
7.849191e+002;1.207452e-001
7.868476e+002;1.217871e-001
7.887761e+002;1.218567e-001
7.907047e+002;1.224210e-001
7.926332e+002;1.231597e-001
7.945618e+002;1.233696e-001
7.964903e+002;1.234882e-001
7.984189e+002;1.236747e-001
8.003474e+002;1.249103e-001
8.022759e+002;1.254985e-001
8.042045e+002;1.248104e-001
8.061331e+002;1.244136e-001
8.080616e+002;1.245925e-001
8.099902e+002;1.248808e-001
8.119187e+002;1.246784e-001
8.138472e+002;1.247095e-001
8.157758e+002;1.249876e-001
8.177043e+002;1.241561e-001
8.196329e+002;1.237275e-001
8.215615e+002;1.232200e-001
8.234900e+002;1.221098e-001
8.254185e+002;1.216222e-001
8.273471e+002;1.208037e-001
8.292756e+002;1.192312e-001
8.312042e+002;1.178212e-001
8.331328e+002;1.166478e-001
8.350613e+002;1.164402e-001
8.369898e+002;1.160982e-001
8.389184e+002;1.153871e-001
8.408469e+002;1.147802e-001
8.427755e+002;1.146809e-001
8.447040e+002;1.145496e-001
8.466326e+002;1.140236e-001
8.485611e+002;1.138943e-001
8.504897e+002;1.144251e-001
8.524182e+002;1.147402e-001
8.543467e+002;1.154778e-001
8.562753e+002;1.164331e-001
8.582039e+002;1.172111e-001
8.601324e+002;1.184238e-001
8.620610e+002;1.196599e-001
8.639895e+002;1.208403e-001
8.659180e+002;1.224160e-001
8.678466e+002;1.248591e-001
8.697751e+002;1.270625e-001
8.717037e+002;1.288079e-001
8.736323e+002;1.310885e-001
8.755608e+002;1.328386e-001
8.774893e+002;1.340026e-001
8.794179e+002;1.361400e-001
8.813464e+002;1.395049e-001
8.832750e+002;1.429621e-001
8.852036e+002;1.457597e-001
8.871321e+002;1.489196e-001
8.890606e+002;1.529109e-001
8.909892e+002;1.560964e-001
8.929177e+002;1.585404e-001
8.948463e+002;1.605783e-001
8.967748e+002;1.615385e-001
8.987034e+002;1.617683e-001
9.006319e+002;1.611754e-001
9.025605e+002;1.602124e-001
9.044890e+002;1.593243e-001
9.064175e+002;1.575544e-001
9.083461e+002;1.555308e-001
9.102747e+002;1.539703e-001
9.122032e+002;1.526814e-001
9.141318e+002;1.516606e-001
9.160603e+002;1.503545e-001
9.179888e+002;1.496065e-001
9.199174e+002;1.504189e-001
9.218459e+002;1.520663e-001
9.237745e+002;1.537758e-001
9.257031e+002;1.554858e-001
9.276316e+002;1.575564e-001
9.295601e+002;1.600880e-001
9.314887e+002;1.626552e-001
9.334172e+002;1.652399e-001
9.353458e+002;1.678485e-001
9.372744e+002;1.700168e-001
9.392029e+002;1.721021e-001
9.411314e+002;1.749793e-001
9.430600e+002;1.783474e-001
9.449885e+002;1.816323e-001
9.469171e+002;1.855800e-001
9.488456e+002;1.902737e-001
9.507742e+002;1.953015e-001
9.527027e+002;2.004925e-001
9.546313e+002;2.064649e-001
9.565598e+002;2.129424e-001
9.584883e+002;2.197476e-001
9.604169e+002;2.268109e-001
9.623455e+002;2.344863e-001
9.642740e+002;2.427306e-001
9.662026e+002;2.509924e-001
9.681311e+002;2.601186e-001
9.700596e+002;2.711763e-001
9.719882e+002;2.845472e-001
9.739167e+002;3.001982e-001
9.758453e+002;3.180628e-001
9.777739e+002;3.384608e-001
9.797024e+002;3.605414e-001
9.816309e+002;3.799122e-001
9.835595e+002;3.931680e-001
9.854880e+002;3.996252e-001
9.874166e+002;4.021735e-001
9.893452e+002;4.051420e-001
9.912737e+002;4.100992e-001
9.932022e+002;4.168756e-001
9.951307e+002;4.255136e-001
9.970593e+002;4.345893e-001
9.989879e+002;4.416582e-001
1.000916e+003;4.459693e-001
1.002845e+003;4.481446e-001
1.004773e+003;4.500504e-001
1.006702e+003;4.520749e-001
1.008631e+003;4.537196e-001
1.010559e+003;4.561432e-001
1.012488e+003;4.599696e-001
1.014416e+003;4.637766e-001
1.016345e+003;4.675818e-001
1.018273e+003;4.733469e-001
1.020202e+003;4.802425e-001
1.022130e+003;4.869497e-001
1.024059e+003;4.933377e-001
1.025988e+003;5.004075e-001
1.027916e+003;5.064247e-001
1.029845e+003;5.090358e-001
1.031773e+003;5.087809e-001
1.033702e+003;5.032921e-001
1.035630e+003;4.920639e-001
1.037559e+003;4.793201e-001
1.039487e+003;4.682064e-001
1.041416e+003;4.600460e-001
1.043344e+003;4.573831e-001
1.045273e+003;4.606927e-001
1.047202e+003;4.672678e-001
1.049130e+003;4.747269e-001
1.051059e+003;4.817009e-001
1.052987e+003;4.855364e-001
1.054916e+003;4.844259e-001
1.056844e+003;4.782691e-001
1.058773e+003;4.656478e-001
1.060701e+003;4.452906e-001
1.062630e+003;4.206990e-001
1.064558e+003;3.952344e-001
1.066487e+003;3.718227e-001
1.068416e+003;3.515213e-001
1.070344e+003;3.362874e-001
1.072273e+003;3.257686e-001
1.074201e+003;3.170559e-001
1.076130e+003;3.096348e-001
1.078058e+003;3.030379e-001
1.079987e+003;2.965456e-001
1.081915e+003;2.916597e-001
1.083844e+003;2.897018e-001
1.085773e+003;2.892572e-001
1.087701e+003;2.897360e-001
1.089630e+003;2.905519e-001
1.091558e+003;2.912786e-001
1.093487e+003;2.936361e-001
1.095415e+003;2.972747e-001
1.097344e+003;3.007706e-001
1.099272e+003;3.036045e-001
1.101201e+003;3.059269e-001
1.103129e+003;3.073376e-001
1.105058e+003;3.069209e-001
1.106987e+003;3.044905e-001
1.108915e+003;3.011212e-001
1.110844e+003;2.965239e-001
1.112772e+003;2.888629e-001
1.114701e+003;2.768307e-001
1.116629e+003;2.619430e-001
1.118558e+003;2.468730e-001
1.120486e+003;2.339699e-001
1.122415e+003;2.240073e-001
1.124344e+003;2.150590e-001
1.126272e+003;2.052493e-001
1.128201e+003;1.958818e-001
1.130129e+003;1.877384e-001
1.132058e+003;1.815707e-001
1.133986e+003;1.771882e-001
1.135915e+003;1.734900e-001
1.137843e+003;1.710756e-001
1.139772e+003;1.707328e-001
1.141700e+003;1.728406e-001
1.143629e+003;1.769242e-001
1.145557e+003;1.816765e-001
1.147486e+003;1.862183e-001
1.149415e+003;1.901215e-001
1.151343e+003;1.930025e-001
1.153272e+003;1.959742e-001
1.155200e+003;1.990523e-001
1.157129e+003;2.010256e-001
1.159057e+003;2.019865e-001
1.160986e+003;2.012073e-001
1.162914e+003;1.972011e-001
1.164843e+003;1.899693e-001
1.166771e+003;1.805217e-001
1.168700e+003;1.700707e-001
1.170629e+003;1.598616e-001
1.172557e+003;1.506334e-001
1.174486e+003;1.425657e-001
1.176414e+003;1.363550e-001
1.178343e+003;1.316301e-001
1.180271e+003;1.278021e-001
1.182200e+003;1.246300e-001
1.184128e+003;1.220967e-001
1.186057e+003;1.206517e-001
1.187986e+003;1.202348e-001
1.189914e+003;1.211182e-001
1.191843e+003;1.230912e-001
1.193771e+003;1.253412e-001
1.195700e+003;1.278813e-001
1.197628e+003;1.304842e-001
1.199557e+003;1.322585e-001
1.201485e+003;1.330731e-001
1.203414e+003;1.334691e-001
1.205343e+003;1.330786e-001
1.207271e+003;1.311508e-001
1.209200e+003;1.271366e-001
1.211128e+003;1.221601e-001
1.213057e+003;1.184767e-001
1.214985e+003;1.167902e-001
1.216914e+003;1.167239e-001
1.218842e+003;1.178448e-001
1.220771e+003;1.193020e-001
1.222699e+003;1.209745e-001
1.224628e+003;1.231388e-001
1.226557e+003;1.254149e-001
1.228485e+003;1.276653e-001
1.230414e+003;1.297904e-001
1.232342e+003;1.320485e-001
1.234271e+003;1.340136e-001
1.236199e+003;1.350155e-001
1.238128e+003;1.351937e-001
1.240056e+003;1.354467e-001
1.241985e+003;1.366701e-001
1.243913e+003;1.385323e-001
1.245842e+003;1.401004e-001
1.247771e+003;1.414400e-001
1.249699e+003;1.423712e-001
1.251628e+003;1.432831e-001
1.253556e+003;1.447490e-001
1.255485e+003;1.462510e-001
1.257413e+003;1.478787e-001
1.259342e+003;1.492745e-001
1.261270e+003;1.498334e-001
1.263199e+003;1.495000e-001
1.265127e+003;1.482840e-001
1.267056e+003;1.460412e-001
1.268985e+003;1.440404e-001
1.270913e+003;1.432011e-001
1.272842e+003;1.430676e-001
1.274770e+003;1.431616e-001
1.276699e+003;1.429397e-001
1.278627e+003;1.421243e-001
1.280556e+003;1.411299e-001
1.282484e+003;1.394882e-001
1.284413e+003;1.376805e-001
1.286342e+003;1.365454e-001
1.288270e+003;1.357199e-001
1.290199e+003;1.355040e-001
1.292127e+003;1.359615e-001
1.294056e+003;1.366433e-001
1.295984e+003;1.374952e-001
1.297913e+003;1.393855e-001
1.299841e+003;1.426146e-001
1.301770e+003;1.465141e-001
1.303698e+003;1.509552e-001
1.305627e+003;1.560824e-001
1.307556e+003;1.616488e-001
1.309484e+003;1.669789e-001
1.311413e+003;1.714659e-001
1.313341e+003;1.745515e-001
1.315270e+003;1.752768e-001
1.317198e+003;1.732845e-001
1.319127e+003;1.698411e-001
1.321055e+003;1.657086e-001
1.322984e+003;1.615097e-001
1.324912e+003;1.585479e-001
1.326841e+003;1.572273e-001
1.328770e+003;1.572313e-001
1.330698e+003;1.583615e-001
1.332627e+003;1.601963e-001
1.334555e+003;1.615251e-001
1.336484e+003;1.611950e-001
1.338412e+003;1.590217e-001
1.340341e+003;1.565604e-001
1.342269e+003;1.539510e-001
1.344198e+003;1.505899e-001
1.346126e+003;1.473594e-001
1.348055e+003;1.449987e-001
1.349984e+003;1.441343e-001
1.351912e+003;1.446068e-001
1.353841e+003;1.458315e-001
1.355769e+003;1.472920e-001
1.357698e+003;1.485698e-001
1.359626e+003;1.490245e-001
1.361555e+003;1.483108e-001
1.363483e+003;1.470141e-001
1.365412e+003;1.460932e-001
1.367341e+003;1.452123e-001
1.369269e+003;1.445184e-001
1.371198e+003;1.431518e-001
1.373126e+003;1.400257e-001
1.375055e+003;1.366192e-001
1.376983e+003;1.335350e-001
1.378912e+003;1.301377e-001
1.380840e+003;1.266188e-001
1.382769e+003;1.233928e-001
1.384698e+003;1.205361e-001
1.386626e+003;1.175886e-001
1.388555e+003;1.164566e-001
1.390483e+003;1.165497e-001
1.392412e+003;1.157479e-001
1.394340e+003;1.147017e-001
1.396269e+003;1.151719e-001
1.398197e+003;1.155529e-001
1.400126e+003;1.159407e-001
1.402054e+003;1.166260e-001
1.403983e+003;1.165803e-001
1.405911e+003;1.167613e-001
1.407840e+003;1.173693e-001
1.409769e+003;1.175459e-001
1.411697e+003;1.178761e-001
1.413626e+003;1.188160e-001
1.415554e+003;1.198730e-001
1.417483e+003;1.199336e-001
1.419411e+003;1.210181e-001
1.421340e+003;1.250362e-001
1.423268e+003;1.277448e-001
1.425197e+003;1.293506e-001
1.427125e+003;1.306001e-001
1.429054e+003;1.306052e-001
1.430983e+003;1.302833e-001
1.432911e+003;1.291433e-001
1.434840e+003;1.256388e-001
1.436768e+003;1.221578e-001
1.438697e+003;1.227933e-001
1.440625e+003;1.237023e-001
1.442554e+003;1.237727e-001
1.444482e+003;1.238281e-001
1.446411e+003;1.237134e-001
1.448340e+003;1.240777e-001
1.450268e+003;1.254382e-001
1.452197e+003;1.256952e-001
1.454125e+003;1.232848e-001
1.456054e+003;1.174810e-001
1.457982e+003;1.155565e-001
1.459911e+003;1.173372e-001
1.461839e+003;1.167227e-001
1.463768e+003;1.125410e-001
1.465697e+003;1.092358e-001
1.467625e+003;1.078741e-001
1.469554e+003;1.053916e-001
1.471482e+003;1.020723e-001
1.473411e+003;1.001760e-001
1.475339e+003;9.774737e-002
1.477268e+003;9.435804e-002
1.479196e+003;9.188366e-002
1.481125e+003;8.978259e-002
1.483053e+003;8.779722e-002
1.484982e+003;8.469602e-002
1.486911e+003;8.127116e-002
1.488839e+003;7.859401e-002
1.490768e+003;7.803156e-002
1.492696e+003;7.911961e-002
1.494625e+003;7.751349e-002
1.496553e+003;7.472346e-002
1.498482e+003;7.443795e-002
1.500410e+003;7.456394e-002
1.502339e+003;7.384548e-002
1.504267e+003;6.987862e-002
1.506196e+003;6.536715e-002
1.508125e+003;6.755125e-002
1.510053e+003;7.110748e-002
1.511982e+003;7.179829e-002
1.513910e+003;7.187800e-002
1.515839e+003;7.076269e-002
1.517767e+003;7.011040e-002
1.519696e+003;6.871318e-002
1.521624e+003;6.807695e-002
1.523553e+003;7.059070e-002
1.525481e+003;7.188899e-002
1.527410e+003;7.336917e-002
1.529339e+003;7.504952e-002
1.531267e+003;7.536668e-002
1.533196e+003;7.481717e-002
1.535124e+003;7.617947e-002
1.537053e+003;7.506661e-002
1.538981e+003;7.036225e-002
1.540910e+003;7.078012e-002
1.542838e+003;7.496863e-002
1.544767e+003;7.801360e-002
1.546695e+003;8.024530e-002
1.548624e+003;8.083026e-002
1.550553e+003;8.115079e-002
1.552481e+003;8.086985e-002
1.554410e+003;7.979748e-002
1.556338e+003;7.754946e-002
1.558267e+003;7.272859e-002
1.560195e+003;7.419768e-002
1.562124e+003;7.980254e-002
1.564052e+003;8.159581e-002
1.565981e+003;8.155251e-002
1.567910e+003;8.034296e-002
1.569838e+003;7.960466e-002
1.571767e+003;8.121423e-002
1.573695e+003;8.034033e-002
1.575624e+003;7.708668e-002
1.577552e+003;7.863832e-002
1.579481e+003;8.144374e-002
1.581409e+003;8.191951e-002
1.583338e+003;8.197565e-002
1.585266e+003;8.199870e-002
1.587195e+003;8.214920e-002
1.589124e+003;8.201727e-002
1.591052e+003;8.180745e-002
1.592981e+003;8.162176e-002
1.594909e+003;8.174261e-002
1.596838e+003;8.226147e-002
1.598766e+003;8.266999e-002
1.600695e+003;8.283371e-002
1.602623e+003;8.295502e-002
1.604552e+003;8.274743e-002
1.606480e+003;8.244699e-002
1.608409e+003;8.215608e-002
1.610338e+003;8.219849e-002
1.612266e+003;8.247716e-002
1.614195e+003;8.106416e-002
1.616123e+003;7.803957e-002
1.618052e+003;7.958134e-002
1.619980e+003;8.220561e-002
1.621909e+003;8.154799e-002
1.623837e+003;8.114120e-002
1.625766e+003;8.204665e-002
1.627694e+003;8.241863e-002
1.629623e+003;8.300772e-002
1.631552e+003;8.356553e-002
1.633480e+003;8.128354e-002
1.635409e+003;7.843819e-002
1.637337e+003;8.063086e-002
1.639266e+003;8.298498e-002
1.641194e+003;8.350870e-002
1.643123e+003;8.286005e-002
1.645051e+003;8.020648e-002
1.646980e+003;7.955765e-002
1.648909e+003;8.164547e-002
1.650837e+003;7.823754e-002
1.652766e+003;7.247117e-002
1.654694e+003;7.723308e-002
1.656623e+003;8.296537e-002
1.658551e+003;8.377495e-002
1.660480e+003;8.266386e-002
1.662408e+003;8.142604e-002
1.664337e+003;8.209912e-002
1.666266e+003;8.203220e-002
1.668194e+003;7.958404e-002
1.670123e+003;7.868383e-002
1.672051e+003;7.933322e-002
1.673980e+003;7.776159e-002
1.675908e+003;7.705843e-002
1.677837e+003;7.818367e-002
1.679765e+003;7.741218e-002
1.681694e+003;7.465656e-002
1.683622e+003;6.958115e-002
1.685551e+003;7.053309e-002
1.687479e+003;7.441208e-002
1.689408e+003;7.497592e-002
1.691337e+003;7.497607e-002
1.693265e+003;7.336885e-002
1.695194e+003;6.932672e-002
1.697122e+003;6.939661e-002
1.699051e+003;6.838699e-002
1.700979e+003;6.864693e-002
1.702908e+003;7.267433e-002
1.704836e+003;7.350031e-002
1.706765e+003;7.455643e-002
1.708693e+003;7.607263e-002
1.710622e+003;7.763534e-002
1.712551e+003;7.833336e-002
1.714479e+003;7.885937e-002
1.716408e+003;7.951141e-002
1.718336e+003;8.432345e-002
1.720265e+003;9.302914e-002
1.722193e+003;1.004321e-001
1.724122e+003;1.067100e-001
1.726050e+003;1.124043e-001
1.727979e+003;1.164950e-001
1.729908e+003;1.184947e-001
1.731836e+003;1.161804e-001
1.733765e+003;1.110432e-001
1.735693e+003;1.089538e-001
1.737622e+003;1.040531e-001
1.739550e+003;9.468815e-002
1.741479e+003;8.643840e-002
1.743407e+003;7.892402e-002
1.745336e+003;7.241989e-002
1.747265e+003;6.704556e-002
1.749193e+003;6.231399e-002
1.751122e+003;5.931238e-002
1.753050e+003;5.935474e-002
1.754979e+003;5.879074e-002
1.756907e+003;5.774599e-002
1.758836e+003;5.762150e-002
1.760764e+003;5.651521e-002
1.762693e+003;5.605669e-002
1.764621e+003;5.664916e-002
1.766550e+003;5.564706e-002
1.768479e+003;5.470626e-002
1.770407e+003;5.365891e-002
1.772336e+003;5.258573e-002
1.774264e+003;5.419702e-002
1.776193e+003;5.558435e-002
1.778121e+003;5.558209e-002
1.780050e+003;5.514909e-002
1.781978e+003;5.501300e-002
1.783907e+003;5.474272e-002
1.785835e+003;5.475839e-002
1.787764e+003;5.485053e-002
1.789693e+003;5.381716e-002
1.791621e+003;5.232660e-002
1.793550e+003;5.286411e-002
1.795478e+003;5.437413e-002
1.797407e+003;5.449751e-002
1.799335e+003;5.395688e-002
1.801264e+003;5.363151e-002
1.803192e+003;5.393749e-002
1.805121e+003;5.401729e-002
1.807049e+003;5.381948e-002
1.808978e+003;5.353484e-002
1.810907e+003;5.340603e-002
1.812835e+003;5.373086e-002
1.814764e+003;5.397670e-002
1.816692e+003;5.375186e-002
1.818621e+003;5.390470e-002
1.820549e+003;5.379904e-002
1.822478e+003;5.331615e-002
1.824406e+003;5.271242e-002
1.826335e+003;5.269128e-002
1.828264e+003;5.200528e-002
1.830192e+003;5.162717e-002
1.832121e+003;5.261756e-002
1.834049e+003;5.302846e-002
1.835978e+003;5.261120e-002
1.837906e+003;5.240820e-002
1.839835e+003;5.264778e-002
1.841763e+003;5.203012e-002
1.843692e+003;5.059037e-002
1.845620e+003;5.122862e-002
1.847549e+003;5.210942e-002
1.849478e+003;5.211719e-002
1.851406e+003;5.221706e-002
1.853335e+003;5.229939e-002
1.855263e+003;5.229154e-002
1.857192e+003;5.227068e-002
1.859120e+003;5.228612e-002
1.861049e+003;5.219015e-002
1.862977e+003;5.209373e-002
1.864906e+003;5.187596e-002
1.866834e+003;5.132177e-002
1.868763e+003;5.074586e-002
1.870692e+003;5.116164e-002
1.872620e+003;5.202208e-002
1.874549e+003;5.218257e-002
1.876477e+003;5.197282e-002
1.878406e+003;5.201999e-002
1.880334e+003;5.213348e-002
1.882263e+003;5.211704e-002
1.884191e+003;5.214005e-002
1.886120e+003;5.216202e-002
1.888048e+003;5.166729e-002
1.889977e+003;5.136957e-002
1.891906e+003;5.181689e-002
1.893834e+003;5.192289e-002
1.895763e+003;5.196102e-002
1.897691e+003;5.188511e-002
1.899620e+003;5.182540e-002
1.901548e+003;5.182286e-002
1.903477e+003;5.172954e-002
1.905405e+003;5.163474e-002
1.907334e+003;5.168920e-002
1.909262e+003;5.169390e-002
1.911191e+003;5.207150e-002
1.913120e+003;5.250899e-002
1.915048e+003;5.230626e-002
1.916977e+003;5.147442e-002
1.918905e+003;5.154135e-002
1.920834e+003;5.192024e-002
1.922762e+003;5.176944e-002
1.924691e+003;5.200610e-002
1.926619e+003;5.245467e-002
1.928548e+003;5.274774e-002
1.930477e+003;5.281471e-002
1.932405e+003;5.292736e-002
1.934334e+003;5.294925e-002
1.936262e+003;5.296464e-002
1.938191e+003;5.298365e-002
1.940119e+003;5.286785e-002
1.942048e+003;5.266375e-002
1.943976e+003;5.279282e-002
1.945905e+003;5.304733e-002
1.947833e+003;5.331409e-002
1.949762e+003;5.362547e-002
1.951691e+003;5.374527e-002
1.953619e+003;5.362453e-002
1.955548e+003;5.356789e-002
1.957476e+003;5.357314e-002
1.959405e+003;5.337096e-002
1.961333e+003;5.341802e-002
1.963262e+003;5.353742e-002
1.965190e+003;5.335478e-002
1.967119e+003;5.315371e-002
1.969047e+003;5.348720e-002
1.970976e+003;5.394222e-002
1.972905e+003;5.410368e-002
1.974833e+003;5.386063e-002
1.976762e+003;5.369090e-002
1.978690e+003;5.370555e-002
1.980619e+003;5.378273e-002
1.982547e+003;5.373941e-002
1.984476e+003;5.378723e-002
1.986404e+003;5.386389e-002
1.988333e+003;5.373758e-002
1.990261e+003;5.354053e-002
1.992190e+003;5.362757e-002
1.994119e+003;5.414703e-002
1.996047e+003;5.454529e-002
1.997976e+003;5.454116e-002
1.999904e+003;5.434807e-002
2.001833e+003;5.430151e-002
2.003761e+003;5.420085e-002
2.005690e+003;5.432862e-002
2.007618e+003;5.448357e-002
2.009547e+003;5.426783e-002
2.011476e+003;5.436403e-002
2.013404e+003;5.471991e-002
2.015333e+003;5.485470e-002
2.017261e+003;5.492914e-002
2.019190e+003;5.516553e-002
2.021118e+003;5.532467e-002
2.023047e+003;5.544331e-002
2.024975e+003;5.547908e-002
2.026904e+003;5.539434e-002
2.028833e+003;5.552441e-002
2.030761e+003;5.561056e-002
2.032690e+003;5.555750e-002
2.034618e+003;5.572563e-002
2.036547e+003;5.589032e-002
2.038475e+003;5.586345e-002
2.040404e+003;5.578550e-002
2.042332e+003;5.601108e-002
2.044261e+003;5.615699e-002
2.046189e+003;5.615084e-002
2.048118e+003;5.606797e-002
2.050047e+003;5.606258e-002
2.051975e+003;5.633440e-002
2.053904e+003;5.630384e-002
2.055832e+003;5.607140e-002
2.057761e+003;5.591949e-002
2.059689e+003;5.573848e-002
2.061618e+003;5.565199e-002
2.063546e+003;5.576688e-002
2.065475e+003;5.572737e-002
2.067404e+003;5.556266e-002
2.069332e+003;5.561459e-002
2.071260e+003;5.581424e-002
2.073189e+003;5.595122e-002
2.075118e+003;5.578956e-002
2.077046e+003;5.572334e-002
2.078975e+003;5.590208e-002
2.080903e+003;5.571795e-002
2.082832e+003;5.528101e-002
2.084760e+003;5.536106e-002
2.086689e+003;5.554195e-002
2.088617e+003;5.560499e-002
2.090546e+003;5.553717e-002
2.092475e+003;5.537585e-002
2.094403e+003;5.524007e-002
2.096332e+003;5.522295e-002
2.098260e+003;5.537025e-002
2.100189e+003;5.562796e-002
2.102117e+003;5.555449e-002
2.104046e+003;5.538511e-002
2.105974e+003;5.536731e-002
2.107903e+003;5.543834e-002
2.109832e+003;5.569595e-002
2.111760e+003;5.579345e-002
2.113688e+003;5.574677e-002
2.115617e+003;5.584100e-002
2.117546e+003;5.597278e-002
2.119474e+003;5.585591e-002
2.121403e+003;5.569663e-002
2.123331e+003;5.606016e-002
2.125260e+003;5.663017e-002
2.127188e+003;5.656446e-002
2.129117e+003;5.636149e-002
2.131045e+003;5.654819e-002
2.132974e+003;5.663066e-002
2.134903e+003;5.647811e-002
2.136831e+003;5.647656e-002
2.138760e+003;5.649086e-002
2.140688e+003;5.616762e-002
2.142617e+003;5.594644e-002
2.144545e+003;5.592009e-002
2.146474e+003;5.594372e-002
2.148402e+003;5.588938e-002
2.150331e+003;5.598658e-002
2.152260e+003;5.618112e-002
2.154188e+003;5.629551e-002
2.156117e+003;5.607151e-002
2.158045e+003;5.573584e-002
2.159974e+003;5.555860e-002
2.161902e+003;5.543378e-002
2.163831e+003;5.544843e-002
2.165759e+003;5.519368e-002
2.167688e+003;5.486121e-002
2.169616e+003;5.495998e-002
2.171545e+003;5.488794e-002
2.173474e+003;5.479155e-002
2.175402e+003;5.480636e-002
2.177331e+003;5.472945e-002
2.179259e+003;5.459860e-002
2.181188e+003;5.433755e-002
2.183116e+003;5.422488e-002
2.185045e+003;5.415427e-002
2.186973e+003;5.413629e-002
2.188902e+003;5.416257e-002
2.190831e+003;5.375456e-002
2.192759e+003;5.339648e-002
2.194688e+003;5.320015e-002
2.196616e+003;5.310844e-002
2.198545e+003;5.318131e-002
2.200473e+003;5.348506e-002
2.202402e+003;5.370091e-002
2.204330e+003;5.348454e-002
2.206259e+003;5.323618e-002
2.208188e+003;5.315401e-002
2.210116e+003;5.315566e-002
2.212044e+003;5.320790e-002
2.213973e+003;5.305710e-002
2.215902e+003;5.303011e-002
2.217830e+003;5.330083e-002
2.219759e+003;5.359282e-002
2.221687e+003;5.355125e-002
2.223616e+003;5.331870e-002
2.225544e+003;5.341176e-002
2.227473e+003;5.343391e-002
2.229401e+003;5.343852e-002
2.231330e+003;5.362881e-002
2.233259e+003;5.369198e-002
2.235187e+003;5.351651e-002
2.237116e+003;5.346557e-002
2.239044e+003;5.339175e-002
2.240973e+003;5.327494e-002
2.242901e+003;5.342469e-002
2.244830e+003;5.335605e-002
2.246758e+003;5.315869e-002
2.248687e+003;5.320618e-002
2.250615e+003;5.324727e-002
2.252544e+003;5.304381e-002
2.254473e+003;5.288896e-002
2.256401e+003;5.287212e-002
2.258330e+003;5.272368e-002
2.260258e+003;5.260952e-002
2.262187e+003;5.269140e-002
2.264115e+003;5.265485e-002
2.266044e+003;5.255615e-002
2.267972e+003;5.243840e-002
2.269901e+003;5.223877e-002
2.271830e+003;5.213945e-002
2.273758e+003;5.205062e-002
2.275687e+003;5.200819e-002
2.277615e+003;5.208958e-002
2.279544e+003;5.201454e-002
2.281472e+003;5.194317e-002
2.283401e+003;5.189186e-002
2.285329e+003;5.174612e-002
2.287258e+003;5.171200e-002
2.289187e+003;5.169188e-002
2.291115e+003;5.177165e-002
2.293043e+003;5.160918e-002
2.294972e+003;5.121673e-002
2.296901e+003;5.117781e-002
2.298829e+003;5.131192e-002
2.300758e+003;5.135380e-002
2.302686e+003;5.127948e-002
2.304615e+003;5.130472e-002
2.306543e+003;5.145275e-002
2.308472e+003;5.138841e-002
2.310400e+003;5.110058e-002
2.312329e+003;5.104695e-002
2.314258e+003;5.125346e-002
2.316186e+003;5.119843e-002
2.318115e+003;5.104069e-002
2.320043e+003;5.078400e-002
2.321972e+003;5.053677e-002
2.323900e+003;5.050063e-002
2.325829e+003;5.048246e-002
2.327757e+003;5.042039e-002
2.329686e+003;5.032777e-002
2.331615e+003;5.017009e-002
2.333543e+003;4.989366e-002
2.335472e+003;4.998529e-002
2.337400e+003;5.020848e-002
2.339329e+003;5.059946e-002
2.341257e+003;5.098695e-002
2.343186e+003;5.122762e-002
2.345114e+003;5.133001e-002
2.347043e+003;5.136823e-002
2.348971e+003;5.154221e-002
2.350900e+003;5.172540e-002
2.352829e+003;5.158019e-002
2.354757e+003;5.127598e-002
2.356686e+003;5.116995e-002
2.358614e+003;5.112268e-002
2.360543e+003;5.107106e-002
2.362471e+003;5.111344e-002
2.364400e+003;5.142761e-002
2.366328e+003;5.174854e-002
2.368257e+003;5.184616e-002
2.370186e+003;5.212496e-002
2.372114e+003;5.225589e-002
2.374042e+003;5.247336e-002
2.375971e+003;5.284757e-002
2.377900e+003;5.320251e-002
2.379828e+003;5.341116e-002
2.381757e+003;5.365572e-002
2.383685e+003;5.404592e-002
2.385614e+003;5.415063e-002
2.387542e+003;5.388606e-002
2.389471e+003;5.365175e-002
2.391399e+003;5.382972e-002
2.393328e+003;5.433838e-002
2.395257e+003;5.461454e-002
2.397185e+003;5.452373e-002
2.399114e+003;5.460075e-002
2.401042e+003;5.478797e-002
2.402971e+003;5.457914e-002
2.404899e+003;5.459860e-002
2.406828e+003;5.492711e-002
2.408756e+003;5.501082e-002
2.410685e+003;5.478726e-002
2.412614e+003;5.479486e-002
2.414542e+003;5.507100e-002
2.416471e+003;5.531262e-002
2.418399e+003;5.525256e-002
2.420328e+003;5.512468e-002
2.422256e+003;5.537574e-002
2.424185e+003;5.585042e-002
2.426113e+003;5.608512e-002
2.428042e+003;5.604282e-002
2.429970e+003;5.605650e-002
2.431899e+003;5.618293e-002
2.433828e+003;5.630279e-002
2.435756e+003;5.643724e-002
2.437685e+003;5.659480e-002
2.439613e+003;5.665731e-002
2.441542e+003;5.661145e-002
2.443470e+003;5.677829e-002
2.445399e+003;5.687716e-002
2.447327e+003;5.682576e-002
2.449256e+003;5.683116e-002
2.451185e+003;5.707452e-002
2.453113e+003;5.729022e-002
2.455042e+003;5.706586e-002
2.456970e+003;5.689098e-002
2.458899e+003;5.690983e-002
2.460827e+003;5.685544e-002
2.462756e+003;5.710297e-002
2.464684e+003;5.741580e-002
2.466613e+003;5.754591e-002
2.468542e+003;5.805587e-002
2.470470e+003;5.815204e-002
2.472398e+003;5.785958e-002
2.474327e+003;5.763001e-002
2.476256e+003;5.765245e-002
2.478184e+003;5.821792e-002
2.480113e+003;5.844098e-002
2.482041e+003;5.810143e-002
2.483970e+003;5.789142e-002
2.485898e+003;5.832891e-002
2.487827e+003;5.861744e-002
2.489755e+003;5.859408e-002
2.491684e+003;5.832341e-002
2.493613e+003;5.826434e-002
2.495541e+003;5.842715e-002
2.497470e+003;5.871347e-002
2.499398e+003;5.902552e-002
2.501327e+003;5.932138e-002
2.503255e+003;5.957416e-002
2.505184e+003;5.947756e-002
2.507112e+003;5.906367e-002
2.509041e+003;5.902958e-002
2.510969e+003;5.970884e-002
2.512898e+003;6.019532e-002
2.514827e+003;6.011559e-002
2.516755e+003;6.007076e-002
2.518684e+003;6.034652e-002
2.520612e+003;6.045782e-002
2.522541e+003;6.018603e-002
2.524469e+003;6.007377e-002
2.526398e+003;6.029394e-002
2.528326e+003;6.040930e-002
2.530255e+003;6.041182e-002
2.532184e+003;6.043128e-002
2.534112e+003;6.055140e-002
2.536041e+003;6.075387e-002
2.537969e+003;6.078790e-002
2.539898e+003;6.049210e-002
2.541826e+003;6.055403e-002
2.543755e+003;6.108062e-002
2.545683e+003;6.104889e-002
2.547612e+003;6.061277e-002
2.549541e+003;6.058854e-002
2.551469e+003;6.084088e-002
2.553397e+003;6.092779e-002
2.555326e+003;6.091506e-002
2.557255e+003;6.119932e-002
2.559183e+003;6.144270e-002
2.561112e+003;6.132424e-002
2.563040e+003;6.109286e-002
2.564969e+003;6.088700e-002
2.566897e+003;6.079007e-002
2.568826e+003;6.087004e-002
2.570754e+003;6.102918e-002
2.572683e+003;6.125392e-002
2.574612e+003;6.125926e-002
2.576540e+003;6.118711e-002
2.578469e+003;6.119646e-002
2.580397e+003;6.097541e-002
2.582326e+003;6.111281e-002
2.584254e+003;6.170451e-002
2.586183e+003;6.206114e-002
2.588111e+003;6.232034e-002
2.590040e+003;6.235400e-002
2.591969e+003;6.208798e-002
2.593897e+003;6.198497e-002
2.595826e+003;6.202820e-002
2.597754e+003;6.195845e-002
2.599683e+003;6.183075e-002
2.601611e+003;6.208981e-002
2.603540e+003;6.265980e-002
2.605468e+003;6.288737e-002
2.607397e+003;6.269440e-002
2.609325e+003;6.264965e-002
2.611254e+003;6.278341e-002
2.613183e+003;6.296754e-002
2.615111e+003;6.322069e-002
2.617040e+003;6.324694e-002
2.618968e+003;6.319715e-002
2.620897e+003;6.315052e-002
2.622825e+003;6.334894e-002
2.624754e+003;6.345607e-002
2.626682e+003;6.363204e-002
2.628611e+003;6.370386e-002
2.630540e+003;6.380501e-002
2.632468e+003;6.383026e-002
2.634396e+003;6.397283e-002
2.636325e+003;6.408768e-002
2.638254e+003;6.398627e-002
2.640182e+003;6.416065e-002
2.642111e+003;6.446876e-002
2.644039e+003;6.447891e-002
2.645968e+003;6.444870e-002
2.647896e+003;6.452665e-002
2.649825e+003;6.471387e-002
2.651753e+003;6.486796e-002
2.653682e+003;6.485926e-002
2.655611e+003;6.495372e-002
2.657539e+003;6.515621e-002
2.659468e+003;6.525269e-002
2.661396e+003;6.524692e-002
2.663325e+003;6.527068e-002
2.665253e+003;6.512087e-002
2.667182e+003;6.511771e-002
2.669110e+003;6.555799e-002
2.671039e+003;6.555873e-002
2.672968e+003;6.539188e-002
2.674896e+003;6.563908e-002
2.676825e+003;6.579535e-002
2.678753e+003;6.577630e-002
2.680682e+003;6.591912e-002
2.682610e+003;6.627256e-002
2.684539e+003;6.671236e-002
2.686467e+003;6.691277e-002
2.688396e+003;6.678496e-002
2.690324e+003;6.669068e-002
2.692253e+003;6.676348e-002
2.694182e+003;6.683010e-002
2.696110e+003;6.710759e-002
2.698039e+003;6.760010e-002
2.699967e+003;6.788971e-002
2.701896e+003;6.783710e-002
2.703824e+003;6.784377e-002
2.705753e+003;6.789157e-002
2.707681e+003;6.774655e-002
2.709610e+003;6.784512e-002
2.711539e+003;6.811159e-002
2.713467e+003;6.833619e-002
2.715396e+003;6.876647e-002
2.717324e+003;6.886656e-002
2.719253e+003;6.862613e-002
2.721181e+003;6.865496e-002
2.723110e+003;6.881077e-002
2.725038e+003;6.868873e-002
2.726967e+003;6.871749e-002
2.728896e+003;6.891491e-002
2.730824e+003;6.902303e-002
2.732752e+003;6.940863e-002
2.734681e+003;6.960974e-002
2.736610e+003;6.955221e-002
2.738538e+003;6.990030e-002
2.740467e+003;6.989601e-002
2.742395e+003;6.962308e-002
2.744324e+003;6.969807e-002
2.746252e+003;6.971803e-002
2.748181e+003;6.985651e-002
2.750109e+003;7.000025e-002
2.752038e+003;7.009716e-002
2.753967e+003;7.040589e-002
2.755895e+003;7.045148e-002
2.757824e+003;7.043258e-002
2.759752e+003;7.054295e-002
2.761681e+003;7.055235e-002
2.763609e+003;7.063304e-002
2.765538e+003;7.059097e-002
2.767466e+003;7.047401e-002
2.769395e+003;7.056989e-002
2.771323e+003;7.088457e-002
2.773252e+003;7.124130e-002
2.775181e+003;7.163250e-002
2.777109e+003;7.189685e-002
2.779038e+003;7.201616e-002
2.780966e+003;7.203224e-002
2.782895e+003;7.247701e-002
2.784823e+003;7.275824e-002
2.786752e+003;7.290891e-002
2.788680e+003;7.331778e-002
2.790609e+003;7.351624e-002
2.792538e+003;7.363493e-002
2.794466e+003;7.383593e-002
2.796395e+003;7.411990e-002
2.798323e+003;7.436709e-002
2.800252e+003;7.454089e-002
2.802180e+003;7.486402e-002
2.804109e+003;7.543539e-002
2.806037e+003;7.586448e-002
2.807966e+003;7.637094e-002
2.809895e+003;7.697115e-002
2.811823e+003;7.696700e-002
2.813751e+003;7.711572e-002
2.815680e+003;7.765987e-002
2.817609e+003;7.811131e-002
2.819537e+003;7.843425e-002
2.821466e+003;7.917304e-002
2.823394e+003;8.026296e-002
2.825323e+003;8.079993e-002
2.827251e+003;8.125721e-002
2.829180e+003;8.227144e-002
2.831108e+003;8.346373e-002
2.833037e+003;8.477165e-002
2.834966e+003;8.572409e-002
2.836894e+003;8.731348e-002
2.838823e+003;8.950680e-002
2.840751e+003;9.171543e-002
2.842680e+003;9.490623e-002
2.844608e+003;9.929753e-002
2.846537e+003;1.052962e-001
2.848465e+003;1.130597e-001
2.850394e+003;1.187441e-001
2.852323e+003;1.185043e-001
2.854251e+003;1.143747e-001
2.856180e+003;1.103176e-001
2.858108e+003;1.077325e-001
2.860037e+003;1.064502e-001
2.861965e+003;1.061874e-001
2.863894e+003;1.069012e-001
2.865822e+003;1.081002e-001
2.867751e+003;1.090217e-001
2.869679e+003;1.095625e-001
2.871608e+003;1.105457e-001
2.873536e+003;1.115084e-001
2.875465e+003;1.117019e-001
2.877394e+003;1.113546e-001
2.879322e+003;1.115561e-001
2.881251e+003;1.119220e-001
2.883179e+003;1.124420e-001
2.885108e+003;1.132920e-001
2.887036e+003;1.144286e-001
2.888965e+003;1.152861e-001
2.890893e+003;1.158996e-001
2.892822e+003;1.171288e-001
2.894750e+003;1.179314e-001
2.896679e+003;1.186946e-001
2.898608e+003;1.198658e-001
2.900536e+003;1.207837e-001
2.902465e+003;1.212008e-001
2.904393e+003;1.212508e-001
2.906322e+003;1.217576e-001
2.908250e+003;1.227369e-001
2.910179e+003;1.238202e-001
2.912107e+003;1.258173e-001
2.914036e+003;1.287890e-001
2.915965e+003;1.325355e-001
2.917893e+003;1.357049e-001
2.919822e+003;1.371277e-001
2.921750e+003;1.359344e-001
2.923679e+003;1.326290e-001
2.925607e+003;1.284389e-001
2.927536e+003;1.240251e-001
2.929464e+003;1.194189e-001
2.931393e+003;1.150490e-001
2.933322e+003;1.114634e-001
2.935250e+003;1.083535e-001
2.937178e+003;1.053643e-001
2.939107e+003;1.030147e-001
2.941036e+003;1.015077e-001
2.942964e+003;1.003190e-001
2.944893e+003;9.884620e-002
2.946821e+003;9.733732e-002
2.948750e+003;9.612499e-002
2.950678e+003;9.494922e-002
2.952607e+003;9.432350e-002
2.954535e+003;9.391095e-002
2.956464e+003;9.327329e-002
2.958393e+003;9.256439e-002
2.960321e+003;9.193762e-002
2.962250e+003;9.104183e-002
2.964178e+003;8.975838e-002
2.966107e+003;8.805411e-002
2.968035e+003;8.665133e-002
2.969964e+003;8.528680e-002
2.971892e+003;8.341972e-002
2.973821e+003;8.137536e-002
2.975750e+003;7.916652e-002
2.977678e+003;7.752775e-002
2.979607e+003;7.584893e-002
2.981535e+003;7.427859e-002
2.983464e+003;7.344321e-002
2.985392e+003;7.239327e-002
2.987321e+003;7.092831e-002
2.989249e+003;7.020070e-002
2.991178e+003;6.995062e-002
2.993106e+003;6.966042e-002
2.995035e+003;6.941096e-002
2.996964e+003;6.878006e-002
2.998892e+003;6.808198e-002
3.000821e+003;6.774616e-002
3.002749e+003;6.770410e-002
3.004678e+003;6.765249e-002
3.006606e+003;6.750120e-002
3.008535e+003;6.764455e-002
3.010463e+003;6.810020e-002
3.012392e+003;6.802675e-002
3.014321e+003;6.781111e-002
3.016249e+003;6.819319e-002
3.018177e+003;6.838591e-002
3.020106e+003;6.860859e-002
3.022035e+003;6.887339e-002
3.023963e+003;6.915608e-002
3.025892e+003;6.939918e-002
3.027820e+003;6.950089e-002
3.029749e+003;6.986803e-002
3.031677e+003;7.021087e-002
3.033606e+003;7.011713e-002
3.035534e+003;7.041921e-002
3.037463e+003;7.093681e-002
3.039392e+003;7.043064e-002
3.041320e+003;7.009373e-002
3.043249e+003;7.054264e-002
3.045177e+003;7.074245e-002
3.047106e+003;7.086527e-002
3.049034e+003;7.114569e-002
3.050963e+003;7.151302e-002
3.052891e+003;7.182871e-002
3.054820e+003;7.213268e-002
3.056749e+003;7.241746e-002
3.058677e+003;7.274140e-002
3.060606e+003;7.283982e-002
3.062534e+003;7.290976e-002
3.064463e+003;7.299796e-002
3.066391e+003;7.337949e-002
3.068320e+003;7.376198e-002
3.070248e+003;7.394053e-002
3.072177e+003;7.400512e-002
3.074105e+003;7.400316e-002
3.076034e+003;7.452767e-002
3.077963e+003;7.514645e-002
3.079891e+003;7.516237e-002
3.081820e+003;7.545095e-002
3.083748e+003;7.587912e-002
3.085677e+003;7.634645e-002
3.087605e+003;7.682900e-002
3.089534e+003;7.707699e-002
3.091462e+003;7.688568e-002
3.093391e+003;7.683173e-002
3.095320e+003;7.718106e-002
3.097248e+003;7.726529e-002
3.099177e+003;7.770234e-002
3.101105e+003;7.889636e-002
3.103034e+003;7.956422e-002
3.104962e+003;7.974365e-002
3.106891e+003;7.979374e-002
3.108819e+003;8.005650e-002
3.110748e+003;8.049553e-002
3.112677e+003;8.073337e-002
3.114605e+003;8.094482e-002
3.116533e+003;8.123380e-002
3.118462e+003;8.188074e-002
3.120391e+003;8.277289e-002
3.122319e+003;8.275136e-002
3.124248e+003;8.260494e-002
3.126176e+003;8.338109e-002
3.128105e+003;8.446945e-002
3.130033e+003;8.486393e-002
3.131962e+003;8.508120e-002
3.133890e+003;8.548895e-002
3.135819e+003;8.581040e-002
3.137748e+003;8.597446e-002
3.139676e+003;8.629308e-002
3.141605e+003;8.672730e-002
3.143533e+003;8.707958e-002
3.145462e+003;8.752748e-002
3.147390e+003;8.841365e-002
3.149319e+003;8.890752e-002
3.151247e+003;8.923627e-002
3.153176e+003;9.017786e-002
3.155104e+003;9.085231e-002
3.157033e+003;9.096281e-002
3.158962e+003;9.132980e-002
3.160890e+003;9.219804e-002
3.162819e+003;9.271745e-002
3.164747e+003;9.322302e-002
3.166676e+003;9.410806e-002
3.168604e+003;9.478787e-002
3.170533e+003;9.492333e-002
3.172461e+003;9.527223e-002
3.174390e+003;9.615521e-002
3.176319e+003;9.723663e-002
3.178247e+003;9.798127e-002
3.180176e+003;9.823653e-002
3.182104e+003;9.873364e-002
3.184033e+003;9.927192e-002
3.185961e+003;9.988985e-002
3.187890e+003;1.007197e-001
3.189818e+003;1.011941e-001
3.191747e+003;1.017360e-001
3.193676e+003;1.031438e-001
3.195604e+003;1.043106e-001
3.197532e+003;1.046707e-001
3.199461e+003;1.046345e-001
3.201390e+003;1.052755e-001
3.203318e+003;1.063438e-001
3.205247e+003;1.069928e-001
3.207175e+003;1.075951e-001
3.209104e+003;1.085597e-001
3.211032e+003;1.098149e-001
3.212961e+003;1.108229e-001
3.214889e+003;1.115747e-001
3.216818e+003;1.122739e-001
3.218747e+003;1.128235e-001
3.220675e+003;1.134841e-001
3.222604e+003;1.144937e-001
3.224532e+003;1.155257e-001
3.226461e+003;1.162579e-001
3.228389e+003;1.173028e-001
3.230318e+003;1.186823e-001
3.232246e+003;1.198763e-001
3.234175e+003;1.205944e-001
3.236104e+003;1.212434e-001
3.238032e+003;1.224300e-001
3.239961e+003;1.236927e-001
3.241889e+003;1.249475e-001
3.243818e+003;1.261697e-001
3.245746e+003;1.275704e-001
3.247675e+003;1.285949e-001
3.249603e+003;1.296055e-001
3.251532e+003;1.310589e-001
3.253460e+003;1.325906e-001
3.255389e+003;1.341602e-001
3.257318e+003;1.353025e-001
3.259246e+003;1.359849e-001
3.261175e+003;1.367671e-001
3.263103e+003;1.381056e-001
3.265032e+003;1.398405e-001
3.266960e+003;1.411009e-001
3.268889e+003;1.413129e-001
3.270817e+003;1.413632e-001
3.272746e+003;1.420554e-001
3.274675e+003;1.431098e-001
3.276603e+003;1.439486e-001
3.278531e+003;1.446077e-001
3.280460e+003;1.453813e-001
3.282389e+003;1.459637e-001
3.284317e+003;1.461316e-001
3.286246e+003;1.462183e-001
3.288174e+003;1.462185e-001
3.290103e+003;1.462232e-001
3.292031e+003;1.463563e-001
3.293960e+003;1.464982e-001
3.295888e+003;1.465379e-001
3.297817e+003;1.464631e-001
3.299746e+003;1.464202e-001
3.301674e+003;1.462702e-001
3.303603e+003;1.460506e-001
3.305531e+003;1.467244e-001
3.307460e+003;1.472546e-001
3.309388e+003;1.468678e-001
3.311317e+003;1.466774e-001
3.313245e+003;1.470450e-001
3.315174e+003;1.477704e-001
3.317103e+003;1.484573e-001
3.319031e+003;1.495896e-001
3.320960e+003;1.502546e-001
3.322888e+003;1.499362e-001
3.324817e+003;1.502172e-001
3.326745e+003;1.505977e-001
3.328674e+003;1.508830e-001
3.330602e+003;1.517338e-001
3.332531e+003;1.520815e-001
3.334459e+003;1.516145e-001
3.336388e+003;1.507847e-001
3.338317e+003;1.498899e-001
3.340245e+003;1.490219e-001
3.342174e+003;1.480639e-001
3.344102e+003;1.470408e-001
3.346031e+003;1.459936e-001
3.347959e+003;1.449707e-001
3.349888e+003;1.442440e-001
3.351816e+003;1.430654e-001
3.353745e+003;1.415562e-001
3.355674e+003;1.403468e-001
3.357602e+003;1.390294e-001
3.359531e+003;1.380096e-001
3.361459e+003;1.370701e-001
3.363388e+003;1.362761e-001
3.365316e+003;1.354666e-001
3.367245e+003;1.345535e-001
3.369173e+003;1.340675e-001
3.371102e+003;1.332431e-001
3.373031e+003;1.317287e-001
3.374959e+003;1.303859e-001
3.376887e+003;1.301288e-001
3.378816e+003;1.297309e-001
3.380745e+003;1.286375e-001
3.382673e+003;1.274906e-001
3.384602e+003;1.265088e-001
3.386530e+003;1.264726e-001
3.388459e+003;1.262017e-001
3.390387e+003;1.251990e-001
3.392316e+003;1.243866e-001
3.394244e+003;1.241472e-001
3.396173e+003;1.238680e-001
3.398102e+003;1.231165e-001
3.400030e+003;1.218750e-001
3.401959e+003;1.206676e-001
3.403887e+003;1.196696e-001
3.405816e+003;1.186259e-001
3.407744e+003;1.178545e-001
3.409673e+003;1.172855e-001
3.411601e+003;1.166613e-001
3.413530e+003;1.157057e-001
3.415458e+003;1.137421e-001
3.417387e+003;1.120939e-001
3.419316e+003;1.110687e-001
3.421244e+003;1.098879e-001
3.423173e+003;1.088915e-001
3.425101e+003;1.085163e-001
3.427030e+003;1.080305e-001
3.428958e+003;1.070509e-001
3.430887e+003;1.057483e-001
3.432815e+003;1.046329e-001
3.434744e+003;1.033905e-001
3.436673e+003;1.024157e-001
3.438601e+003;1.021974e-001
3.440530e+003;1.015593e-001
3.442458e+003;1.009379e-001
3.444387e+003;1.000786e-001
3.446315e+003;9.861583e-002
3.448244e+003;9.728156e-002
3.450172e+003;9.615079e-002
3.452101e+003;9.510296e-002
3.454030e+003;9.390832e-002
3.455958e+003;9.310439e-002
3.457886e+003;9.211717e-002
3.459815e+003;9.113983e-002
3.461744e+003;9.046296e-002
3.463672e+003;8.957517e-002
3.465601e+003;8.871516e-002
3.467529e+003;8.825930e-002
3.469458e+003;8.767662e-002
3.471386e+003;8.650969e-002
3.473315e+003;8.545523e-002
3.475243e+003;8.441636e-002
3.477172e+003;8.320276e-002
3.479101e+003;8.182321e-002
3.481029e+003;8.039951e-002
3.482958e+003;7.917050e-002
3.484886e+003;7.846720e-002
3.486815e+003;7.792439e-002
3.488743e+003;7.746845e-002
3.490672e+003;7.705732e-002
3.492600e+003;7.621880e-002
3.494529e+003;7.500813e-002
3.496458e+003;7.385549e-002
3.498386e+003;7.280863e-002
3.500315e+003;7.144345e-002
3.502243e+003;7.029719e-002
3.504172e+003;6.990851e-002
3.506100e+003;6.999391e-002
3.508029e+003;6.969014e-002
3.509957e+003;6.854088e-002
3.511886e+003;6.752551e-002
3.513814e+003;6.697465e-002
3.515743e+003;6.646226e-002
3.517672e+003;6.597184e-002
3.519600e+003;6.480021e-002
3.521529e+003;6.360412e-002
3.523457e+003;6.247573e-002
3.525386e+003;6.188936e-002
3.527314e+003;6.156581e-002
3.529243e+003;6.113539e-002
3.531171e+003;6.065818e-002
3.533100e+003;5.998318e-002
3.535029e+003;5.893971e-002
3.536957e+003;5.796582e-002
3.538885e+003;5.711317e-002
3.540814e+003;5.612463e-002
3.542743e+003;5.546578e-002
3.544671e+003;5.484748e-002
3.546600e+003;5.405572e-002
3.548528e+003;5.341124e-002
3.550457e+003;5.263925e-002
3.552385e+003;5.236562e-002
3.554314e+003;5.225996e-002
3.556242e+003;5.147692e-002
3.558171e+003;5.045091e-002
3.560100e+003;4.935617e-002
3.562028e+003;4.866770e-002
3.563957e+003;4.777943e-002
3.565885e+003;4.626636e-002
3.567814e+003;4.601568e-002
3.569742e+003;4.693195e-002
3.571671e+003;4.704961e-002
3.573599e+003;4.621531e-002
3.575528e+003;4.605606e-002
3.577457e+003;4.579379e-002
3.579385e+003;4.441341e-002
3.581314e+003;4.394528e-002
3.583242e+003;4.405212e-002
3.585171e+003;4.290432e-002
3.587099e+003;4.173292e-002
3.589028e+003;4.182620e-002
3.590956e+003;4.226474e-002
3.592885e+003;4.187443e-002
3.594813e+003;4.134918e-002
3.596742e+003;4.107437e-002
3.598671e+003;4.055987e-002
3.600599e+003;3.973017e-002
3.602528e+003;3.956768e-002
3.604456e+003;3.987720e-002
3.606385e+003;3.879670e-002
3.608313e+003;3.670381e-002
3.610242e+003;3.636890e-002
3.612170e+003;3.642136e-002
3.614099e+003;3.652721e-002
3.616028e+003;3.635831e-002
3.617956e+003;3.519428e-002
3.619885e+003;3.499552e-002
3.621813e+003;3.568944e-002
3.623742e+003;3.576031e-002
3.625670e+003;3.463132e-002
3.627599e+003;3.120011e-002
3.629527e+003;3.053618e-002
3.631456e+003;3.309017e-002
3.633385e+003;3.373767e-002
3.635313e+003;3.378814e-002
3.637241e+003;3.352970e-002
3.639170e+003;3.304851e-002
3.641099e+003;3.301562e-002
3.643027e+003;3.281149e-002
3.644956e+003;3.197825e-002
3.646884e+003;2.920877e-002
3.648813e+003;2.612016e-002
3.650741e+003;2.659356e-002
3.652670e+003;2.873255e-002
3.654598e+003;2.811960e-002
3.656527e+003;2.759613e-002
3.658456e+003;2.905768e-002
3.660384e+003;2.986127e-002
3.662313e+003;2.953415e-002
3.664241e+003;2.868756e-002
3.666170e+003;2.808181e-002
3.668098e+003;2.596480e-002
3.670027e+003;2.441503e-002
3.671955e+003;2.564957e-002
3.673884e+003;2.375848e-002
3.675813e+003;2.210326e-002
3.677741e+003;2.494173e-002
3.679669e+003;2.702900e-002
3.681598e+003;2.732667e-002
3.683527e+003;2.646993e-002
3.685455e+003;2.507381e-002
3.687384e+003;2.191336e-002
3.689312e+003;2.135485e-002
3.691241e+003;2.358643e-002
3.693169e+003;2.512675e-002
3.695098e+003;2.522095e-002
3.697026e+003;2.503930e-002
3.698955e+003;2.453134e-002
3.700884e+003;2.359493e-002
3.702812e+003;2.421554e-002
3.704741e+003;2.468784e-002
3.706669e+003;2.394075e-002
3.708598e+003;2.273615e-002
3.710526e+003;2.158653e-002
3.712455e+003;2.213917e-002
3.714383e+003;2.384633e-002
3.716312e+003;2.441507e-002
3.718240e+003;2.402622e-002
3.720169e+003;2.374094e-002
3.722098e+003;2.348618e-002
3.724026e+003;2.323908e-002
3.725955e+003;2.280945e-002
3.727883e+003;2.322541e-002
3.729812e+003;2.272023e-002
3.731740e+003;2.086919e-002
3.733669e+003;1.968892e-002
3.735597e+003;1.892309e-002
3.737526e+003;2.069769e-002
3.739455e+003;2.244918e-002
3.741383e+003;2.126148e-002
3.743312e+003;1.651403e-002
3.745240e+003;1.709647e-002
3.747169e+003;1.928554e-002
3.749097e+003;1.712104e-002
3.751026e+003;1.676770e-002
3.752954e+003;1.947388e-002
3.754883e+003;2.239995e-002
3.756812e+003;2.253778e-002
3.758740e+003;2.232380e-002
3.760668e+003;2.274673e-002
3.762597e+003;2.304411e-002
3.764526e+003;2.259128e-002
3.766454e+003;2.327603e-002
3.768383e+003;2.293242e-002
3.770311e+003;2.334120e-002
3.772240e+003;2.427934e-002
3.774168e+003;2.422030e-002
3.776097e+003;2.346652e-002
3.778025e+003;2.278748e-002
3.779954e+003;2.321307e-002
3.781883e+003;2.394743e-002
3.783811e+003;2.392524e-002
3.785740e+003;2.339032e-002
3.787668e+003;2.302660e-002
3.789597e+003;2.419224e-002
3.791525e+003;2.443382e-002
3.793454e+003;2.389747e-002
3.795382e+003;2.302531e-002
3.797311e+003;2.333483e-002
3.799240e+003;2.148298e-002
3.801168e+003;1.945132e-002
3.803097e+003;2.181099e-002
3.805025e+003;2.215249e-002
3.806954e+003;2.159580e-002
3.808882e+003;2.336529e-002
3.810811e+003;2.415392e-002
3.812739e+003;2.379292e-002
3.814668e+003;2.071646e-002
3.816596e+003;2.021006e-002
3.818525e+003;2.160830e-002
3.820454e+003;1.993671e-002
3.822382e+003;2.071851e-002
3.824311e+003;2.276754e-002
3.826239e+003;2.335599e-002
3.828168e+003;2.345152e-002
3.830096e+003;2.270753e-002
3.832025e+003;2.252309e-002
3.833953e+003;2.201088e-002
3.835882e+003;1.974700e-002
3.837811e+003;1.886841e-002
3.839739e+003;2.055555e-002
3.841667e+003;2.184109e-002
3.843596e+003;2.268930e-002
3.845525e+003;2.384006e-002
3.847453e+003;2.438573e-002
3.849382e+003;2.264123e-002
3.851310e+003;1.772735e-002
3.853239e+003;1.419018e-002
3.855167e+003;1.865163e-002
3.857096e+003;2.323775e-002
3.859024e+003;2.390945e-002
3.860953e+003;2.368313e-002
3.862882e+003;2.219936e-002
3.864810e+003;2.145625e-002
3.866739e+003;2.232226e-002
3.868667e+003;2.170080e-002
3.870596e+003;2.239897e-002
3.872524e+003;2.379890e-002
3.874453e+003;2.415223e-002
3.876381e+003;2.500146e-002
3.878310e+003;2.399806e-002
3.880239e+003;2.242137e-002
3.882167e+003;2.303590e-002
3.884096e+003;2.282394e-002
3.886024e+003;2.313933e-002
3.887953e+003;2.462023e-002
3.889881e+003;2.420100e-002
3.891810e+003;2.411300e-002
3.893738e+003;2.510038e-002
3.895667e+003;2.557397e-002
3.897595e+003;2.426434e-002
3.899524e+003;2.307765e-002
3.901453e+003;2.270644e-002
3.903381e+003;2.237051e-002
3.905310e+003;2.378658e-002
3.907238e+003;2.571562e-002
3.909167e+003;2.637947e-002
3.911095e+003;2.660353e-002
3.913024e+003;2.630008e-002
3.914952e+003;2.529666e-002
3.916881e+003;2.480668e-002
3.918810e+003;2.493254e-002
3.920738e+003;2.516245e-002
3.922667e+003;2.519209e-002
3.924595e+003;2.557685e-002
3.926524e+003;2.664908e-002
3.928452e+003;2.603164e-002
3.930381e+003;2.432664e-002
3.932309e+003;2.396795e-002
3.934238e+003;2.546380e-002
3.936167e+003;2.623753e-002
3.938095e+003;2.625668e-002
3.940023e+003;2.624756e-002
3.941952e+003;2.594982e-002
3.943881e+003;2.597363e-002
3.945809e+003;2.604842e-002
3.947738e+003;2.559519e-002
3.949666e+003;2.600620e-002
3.951595e+003;2.713846e-002
3.953523e+003;2.795511e-002
3.955452e+003;2.784731e-002
3.957380e+003;2.775960e-002
3.959309e+003;2.771227e-002
3.961238e+003;2.742104e-002
3.963166e+003;2.765492e-002
3.965095e+003;2.776596e-002
3.967023e+003;2.681455e-002
3.968952e+003;2.670221e-002
3.970880e+003;2.737791e-002
3.972809e+003;2.716033e-002
3.974737e+003;2.642095e-002
3.976666e+003;2.610056e-002
3.978594e+003;2.648190e-002
3.980523e+003;2.618685e-002
3.982452e+003;2.561965e-002
3.984380e+003;2.680701e-002
3.986309e+003;2.801586e-002
3.988237e+003;2.771965e-002
3.990166e+003;2.696130e-002
3.992094e+003;2.674076e-002
3.994023e+003;2.713010e-002
3.995951e+003;2.711899e-002
3.997880e+003;2.662044e-002
3.999809e+003;2.632764e-002
4.001737e+003;0.000000e+000
