3.992094e+002;0.000000e+000
4.011380e+002;0.000000e+000
4.030665e+002;0.000000e+000
4.049951e+002;0.000000e+000
4.069236e+002;0.000000e+000
4.088522e+002;0.000000e+000
4.107807e+002;0.000000e+000
4.127093e+002;0.000000e+000
4.146378e+002;0.000000e+000
4.165664e+002;0.000000e+000
4.184949e+002;0.000000e+000
4.204235e+002;0.000000e+000
4.223520e+002;0.000000e+000
4.242806e+002;0.000000e+000
4.262091e+002;0.000000e+000
4.281377e+002;0.000000e+000
4.300662e+002;0.000000e+000
4.319948e+002;0.000000e+000
4.339233e+002;0.000000e+000
4.358519e+002;0.000000e+000
4.377804e+002;0.000000e+000
4.397090e+002;0.000000e+000
4.416375e+002;0.000000e+000
4.435660e+002;0.000000e+000
4.454946e+002;0.000000e+000
4.474232e+002;0.000000e+000
4.493517e+002;0.000000e+000
4.512802e+002;0.000000e+000
4.532088e+002;0.000000e+000
4.551373e+002;0.000000e+000
4.570659e+002;0.000000e+000
4.589944e+002;0.000000e+000
4.609230e+002;0.000000e+000
4.628515e+002;0.000000e+000
4.647801e+002;0.000000e+000
4.667086e+002;0.000000e+000
4.686372e+002;0.000000e+000
4.705657e+002;0.000000e+000
4.724943e+002;0.000000e+000
4.744228e+002;0.000000e+000
4.763513e+002;0.000000e+000
4.782799e+002;0.000000e+000
4.802085e+002;0.000000e+000
4.821370e+002;0.000000e+000
4.840656e+002;0.000000e+000
4.859941e+002;0.000000e+000
4.879226e+002;0.000000e+000
4.898512e+002;0.000000e+000
4.917798e+002;0.000000e+000
4.937083e+002;0.000000e+000
4.956368e+002;0.000000e+000
4.975654e+002;0.000000e+000
4.994939e+002;0.000000e+000
5.014225e+002;0.000000e+000
5.033510e+002;0.000000e+000
5.052796e+002;0.000000e+000
5.072081e+002;0.000000e+000
5.091367e+002;0.000000e+000
5.110652e+002;0.000000e+000
5.129938e+002;0.000000e+000
5.149223e+002;0.000000e+000
5.168509e+002;0.000000e+000
5.187794e+002;0.000000e+000
5.207079e+002;0.000000e+000
5.226365e+002;0.000000e+000
5.245651e+002;0.000000e+000
5.264936e+002;0.000000e+000
5.284222e+002;0.000000e+000
5.303507e+002;0.000000e+000
5.322792e+002;0.000000e+000
5.342078e+002;0.000000e+000
5.361364e+002;0.000000e+000
5.380649e+002;0.000000e+000
5.399935e+002;0.000000e+000
5.419220e+002;0.000000e+000
5.438505e+002;0.000000e+000
5.457791e+002;0.000000e+000
5.477076e+002;0.000000e+000
5.496362e+002;0.000000e+000
5.515648e+002;0.000000e+000
5.534933e+002;0.000000e+000
5.554218e+002;0.000000e+000
5.573504e+002;0.000000e+000
5.592789e+002;0.000000e+000
5.612075e+002;0.000000e+000
5.631360e+002;0.000000e+000
5.650646e+002;0.000000e+000
5.669931e+002;0.000000e+000
5.689217e+002;0.000000e+000
5.708502e+002;0.000000e+000
5.727787e+002;0.000000e+000
5.747073e+002;0.000000e+000
5.766359e+002;0.000000e+000
5.785644e+002;0.000000e+000
5.804930e+002;0.000000e+000
5.824215e+002;0.000000e+000
5.843500e+002;0.000000e+000
5.862786e+002;0.000000e+000
5.882072e+002;0.000000e+000
5.901357e+002;0.000000e+000
5.920643e+002;0.000000e+000
5.939928e+002;0.000000e+000
5.959213e+002;0.000000e+000
5.978499e+002;0.000000e+000
5.997784e+002;2.108460e-001
6.017070e+002;2.078838e-001
6.036355e+002;2.133979e-001
6.055641e+002;2.159842e-001
6.074926e+002;2.144904e-001
6.094211e+002;2.131858e-001
6.113497e+002;2.089452e-001
6.132783e+002;2.082308e-001
6.152068e+002;2.118786e-001
6.171354e+002;2.097992e-001
6.190639e+002;2.049211e-001
6.209924e+002;2.028476e-001
6.229210e+002;2.084882e-001
6.248495e+002;2.143137e-001
6.267781e+002;2.111819e-001
6.287067e+002;2.082877e-001
6.306352e+002;2.069967e-001
6.325637e+002;2.022579e-001
6.344923e+002;2.011430e-001
6.364208e+002;2.009853e-001
6.383494e+002;1.998867e-001
6.402780e+002;2.007896e-001
6.422065e+002;2.007718e-001
6.441350e+002;1.966708e-001
6.460636e+002;1.944391e-001
6.479921e+002;1.972944e-001
6.499207e+002;1.992224e-001
6.518492e+002;1.997716e-001
6.537778e+002;2.004347e-001
6.557063e+002;1.988941e-001
6.576349e+002;1.985527e-001
6.595634e+002;1.987190e-001
6.614919e+002;1.989578e-001
6.634205e+002;2.020492e-001
6.653491e+002;2.032818e-001
6.672776e+002;2.013480e-001
6.692062e+002;2.000480e-001
6.711347e+002;1.993918e-001
6.730632e+002;1.984856e-001
6.749918e+002;1.940854e-001
6.769203e+002;1.895695e-001
6.788489e+002;1.867680e-001
6.807775e+002;1.838969e-001
6.827060e+002;1.810818e-001
6.846345e+002;1.779368e-001
6.865631e+002;1.764393e-001
6.884916e+002;1.756301e-001
6.904202e+002;1.745580e-001
6.923488e+002;1.744047e-001
6.942773e+002;1.736299e-001
6.962058e+002;1.729641e-001
6.981344e+002;1.723535e-001
7.000629e+002;1.722519e-001
7.019915e+002;1.719646e-001
7.039200e+002;1.702217e-001
7.058486e+002;1.678480e-001
7.077771e+002;1.661606e-001
7.097057e+002;1.661194e-001
7.116342e+002;1.662691e-001
7.135627e+002;1.653219e-001
7.154913e+002;1.635324e-001
7.174199e+002;1.614645e-001
7.193484e+002;1.589928e-001
7.212770e+002;1.557542e-001
7.232055e+002;1.538315e-001
7.251340e+002;1.516694e-001
7.270626e+002;1.480276e-001
7.289911e+002;1.450096e-001
7.309197e+002;1.421879e-001
7.328483e+002;1.391708e-001
7.347768e+002;1.371924e-001
7.367053e+002;1.358377e-001
7.386339e+002;1.339117e-001
7.405624e+002;1.316002e-001
7.424910e+002;1.297739e-001
7.444196e+002;1.287715e-001
7.463481e+002;1.271843e-001
7.482766e+002;1.250905e-001
7.502052e+002;1.235675e-001
7.521337e+002;1.217165e-001
7.540623e+002;1.196616e-001
7.559908e+002;1.179602e-001
7.579194e+002;1.158796e-001
7.598479e+002;1.143761e-001
7.617765e+002;1.131383e-001
7.637050e+002;1.118234e-001
7.656335e+002;1.104779e-001
7.675621e+002;1.088152e-001
7.694907e+002;1.074625e-001
7.714192e+002;1.061798e-001
7.733478e+002;1.048360e-001
7.752763e+002;1.029766e-001
7.772048e+002;1.011912e-001
7.791334e+002;9.992905e-002
7.810620e+002;9.890278e-002
7.829905e+002;9.838125e-002
7.849191e+002;9.850449e-002
7.868476e+002;9.780555e-002
7.887761e+002;9.669693e-002
7.907047e+002;9.578037e-002
7.926332e+002;9.494069e-002
7.945618e+002;9.410951e-002
7.964903e+002;9.299356e-002
7.984189e+002;9.238765e-002
8.003474e+002;9.270206e-002
8.022759e+002;9.308452e-002
8.042045e+002;9.305850e-002
8.061331e+002;9.253712e-002
8.080616e+002;9.220222e-002
8.099902e+002;9.247304e-002
8.119187e+002;9.287171e-002
8.138472e+002;9.276700e-002
8.157758e+002;9.243983e-002
8.177043e+002;9.140978e-002
8.196329e+002;9.059479e-002
8.215615e+002;8.991694e-002
8.234900e+002;8.922480e-002
8.254185e+002;8.837633e-002
8.273471e+002;8.703403e-002
8.292756e+002;8.616199e-002
8.312042e+002;8.635823e-002
8.331328e+002;8.581020e-002
8.350613e+002;8.484612e-002
8.369898e+002;8.390947e-002
8.389184e+002;8.330430e-002
8.408469e+002;8.292334e-002
8.427755e+002;8.187746e-002
8.447040e+002;8.059508e-002
8.466326e+002;7.986785e-002
8.485611e+002;7.921193e-002
8.504897e+002;7.796316e-002
8.524182e+002;7.702313e-002
8.543467e+002;7.711387e-002
8.562753e+002;7.663906e-002
8.582039e+002;7.628416e-002
8.601324e+002;7.661657e-002
8.620610e+002;7.628420e-002
8.639895e+002;7.593614e-002
8.659180e+002;7.612016e-002
8.678466e+002;7.678950e-002
8.697751e+002;7.773753e-002
8.717037e+002;7.867021e-002
8.736323e+002;8.001263e-002
8.755608e+002;8.172681e-002
8.774893e+002;8.360132e-002
8.794179e+002;8.610611e-002
8.813464e+002;8.881901e-002
8.832750e+002;9.152631e-002
8.852036e+002;9.504922e-002
8.871321e+002;9.882648e-002
8.890606e+002;1.022729e-001
8.909892e+002;1.061535e-001
8.929177e+002;1.100677e-001
8.948463e+002;1.129090e-001
8.967748e+002;1.144734e-001
8.987034e+002;1.161733e-001
9.006319e+002;1.173853e-001
9.025605e+002;1.175805e-001
9.044890e+002;1.169453e-001
9.064175e+002;1.151807e-001
9.083461e+002;1.133303e-001
9.102747e+002;1.112464e-001
9.122032e+002;1.089932e-001
9.141318e+002;1.066286e-001
9.160603e+002;1.042487e-001
9.179888e+002;1.024052e-001
9.199174e+002;1.014468e-001
9.218459e+002;1.006263e-001
9.237745e+002;9.987384e-002
9.257031e+002;1.000362e-001
9.276316e+002;1.006971e-001
9.295601e+002;1.010545e-001
9.314887e+002;1.012967e-001
9.334172e+002;1.015166e-001
9.353458e+002;1.018989e-001
9.372744e+002;1.026187e-001
9.392029e+002;1.032303e-001
9.411314e+002;1.036850e-001
9.430600e+002;1.045641e-001
9.449885e+002;1.058012e-001
9.469171e+002;1.073609e-001
9.488456e+002;1.091336e-001
9.507742e+002;1.111906e-001
9.527027e+002;1.135165e-001
9.546313e+002;1.157477e-001
9.565598e+002;1.184483e-001
9.584883e+002;1.218737e-001
9.604169e+002;1.255272e-001
9.623455e+002;1.293453e-001
9.642740e+002;1.332197e-001
9.662026e+002;1.370152e-001
9.681311e+002;1.416971e-001
9.700596e+002;1.470078e-001
9.719882e+002;1.526042e-001
9.739167e+002;1.591009e-001
9.758453e+002;1.671308e-001
9.777739e+002;1.769956e-001
9.797024e+002;1.886136e-001
9.816309e+002;2.015438e-001
9.835595e+002;2.144521e-001
9.854880e+002;2.257929e-001
9.874166e+002;2.352031e-001
9.893452e+002;2.425981e-001
9.912737e+002;2.491155e-001
9.932022e+002;2.555444e-001
9.951307e+002;2.614489e-001
9.970593e+002;2.672420e-001
9.989879e+002;2.724726e-001
1.000916e+003;2.766943e-001
1.002845e+003;2.798153e-001
1.004773e+003;2.823129e-001
1.006702e+003;2.851903e-001
1.008631e+003;2.886007e-001
1.010559e+003;2.925242e-001
1.012488e+003;2.971104e-001
1.014416e+003;3.023091e-001
1.016345e+003;3.072123e-001
1.018273e+003;3.111322e-001
1.020202e+003;3.143979e-001
1.022130e+003;3.172225e-001
1.024059e+003;3.200725e-001
1.025988e+003;3.220623e-001
1.027916e+003;3.229893e-001
1.029845e+003;3.241322e-001
1.031773e+003;3.252938e-001
1.033702e+003;3.260355e-001
1.035630e+003;3.254694e-001
1.037559e+003;3.240233e-001
1.039487e+003;3.222549e-001
1.041416e+003;3.204738e-001
1.043344e+003;3.181410e-001
1.045273e+003;3.159961e-001
1.047202e+003;3.148869e-001
1.049130e+003;3.147344e-001
1.051059e+003;3.152898e-001
1.052987e+003;3.164876e-001
1.054916e+003;3.170281e-001
1.056844e+003;3.160139e-001
1.058773e+003;3.140205e-001
1.060701e+003;3.109700e-001
1.062630e+003;3.068399e-001
1.064558e+003;3.010978e-001
1.066487e+003;2.946450e-001
1.068416e+003;2.881683e-001
1.070344e+003;2.811287e-001
1.072273e+003;2.752745e-001
1.074201e+003;2.710493e-001
1.076130e+003;2.667778e-001
1.078058e+003;2.624408e-001
1.079987e+003;2.585221e-001
1.081915e+003;2.548104e-001
1.083844e+003;2.517074e-001
1.085773e+003;2.491946e-001
1.087701e+003;2.467779e-001
1.089630e+003;2.444569e-001
1.091558e+003;2.421215e-001
1.093487e+003;2.396533e-001
1.095415e+003;2.374829e-001
1.097344e+003;2.359271e-001
1.099272e+003;2.342620e-001
1.101201e+003;2.327529e-001
1.103129e+003;2.314042e-001
1.105058e+003;2.290763e-001
1.106987e+003;2.261150e-001
1.108915e+003;2.234807e-001
1.110844e+003;2.207398e-001
1.112772e+003;2.177976e-001
1.114701e+003;2.144343e-001
1.116629e+003;2.105809e-001
1.118558e+003;2.063075e-001
1.120486e+003;2.018648e-001
1.122415e+003;1.969400e-001
1.124344e+003;1.920291e-001
1.126272e+003;1.873791e-001
1.128201e+003;1.823228e-001
1.130129e+003;1.770851e-001
1.132058e+003;1.728385e-001
1.133986e+003;1.689709e-001
1.135915e+003;1.652685e-001
1.137843e+003;1.621852e-001
1.139772e+003;1.596884e-001
1.141700e+003;1.583498e-001
1.143629e+003;1.574712e-001
1.145557e+003;1.562845e-001
1.147486e+003;1.556326e-001
1.149415e+003;1.554188e-001
1.151343e+003;1.551672e-001
1.153272e+003;1.551106e-001
1.155200e+003;1.557819e-001
1.157129e+003;1.561622e-001
1.159057e+003;1.560565e-001
1.160986e+003;1.559677e-001
1.162914e+003;1.555201e-001
1.164843e+003;1.534034e-001
1.166771e+003;1.496024e-001
1.168700e+003;1.451060e-001
1.170629e+003;1.405084e-001
1.172557e+003;1.355818e-001
1.174486e+003;1.303492e-001
1.176414e+003;1.252750e-001
1.178343e+003;1.209599e-001
1.180271e+003;1.175151e-001
1.182200e+003;1.147894e-001
1.184128e+003;1.127034e-001
1.186057e+003;1.111756e-001
1.187986e+003;1.106385e-001
1.189914e+003;1.113219e-001
1.191843e+003;1.126218e-001
1.193771e+003;1.145279e-001
1.195700e+003;1.164849e-001
1.197628e+003;1.181751e-001
1.199557e+003;1.196704e-001
1.201485e+003;1.204848e-001
1.203414e+003;1.206708e-001
1.205343e+003;1.205239e-001
1.207271e+003;1.199672e-001
1.209200e+003;1.187774e-001
1.211128e+003;1.161286e-001
1.213057e+003;1.131241e-001
1.214985e+003;1.111505e-001
1.216914e+003;1.106489e-001
1.218842e+003;1.111198e-001
1.220771e+003;1.119635e-001
1.222699e+003;1.130762e-001
1.224628e+003;1.146552e-001
1.226557e+003;1.163030e-001
1.228485e+003;1.177448e-001
1.230414e+003;1.193918e-001
1.232342e+003;1.207771e-001
1.234271e+003;1.213907e-001
1.236199e+003;1.219721e-001
1.238128e+003;1.226423e-001
1.240056e+003;1.229197e-001
1.241985e+003;1.229668e-001
1.243913e+003;1.229143e-001
1.245842e+003;1.232690e-001
1.247771e+003;1.242047e-001
1.249699e+003;1.246165e-001
1.251628e+003;1.246937e-001
1.253556e+003;1.253004e-001
1.255485e+003;1.258649e-001
1.257413e+003;1.262632e-001
1.259342e+003;1.264597e-001
1.261270e+003;1.261383e-001
1.263199e+003;1.255790e-001
1.265127e+003;1.249777e-001
1.267056e+003;1.239868e-001
1.268985e+003;1.230608e-001
1.270913e+003;1.223634e-001
1.272842e+003;1.221093e-001
1.274770e+003;1.221206e-001
1.276699e+003;1.219827e-001
1.278627e+003;1.213693e-001
1.280556e+003;1.204419e-001
1.282484e+003;1.192903e-001
1.284413e+003;1.179314e-001
1.286342e+003;1.169611e-001
1.288270e+003;1.165632e-001
1.290199e+003;1.164434e-001
1.292127e+003;1.167141e-001
1.294056e+003;1.172123e-001
1.295984e+003;1.176401e-001
1.297913e+003;1.183384e-001
1.299841e+003;1.197169e-001
1.301770e+003;1.217077e-001
1.303698e+003;1.237932e-001
1.305627e+003;1.259056e-001
1.307556e+003;1.284682e-001
1.309484e+003;1.315005e-001
1.311413e+003;1.341720e-001
1.313341e+003;1.364384e-001
1.315270e+003;1.385002e-001
1.317198e+003;1.395756e-001
1.319127e+003;1.395846e-001
1.321055e+003;1.389451e-001
1.322984e+003;1.378006e-001
1.324912e+003;1.362602e-001
1.326841e+003;1.348514e-001
1.328770e+003;1.340416e-001
1.330698e+003;1.338346e-001
1.332627e+003;1.342377e-001
1.334555e+003;1.347265e-001
1.336484e+003;1.346716e-001
1.338412e+003;1.342672e-001
1.340341e+003;1.336910e-001
1.342269e+003;1.330222e-001
1.344198e+003;1.321326e-001
1.346126e+003;1.309768e-001
1.348055e+003;1.297250e-001
1.349984e+003;1.284672e-001
1.351912e+003;1.279497e-001
1.353841e+003;1.283024e-001
1.355769e+003;1.290116e-001
1.357698e+003;1.295679e-001
1.359626e+003;1.296125e-001
1.361555e+003;1.296336e-001
1.363483e+003;1.294877e-001
1.365412e+003;1.289297e-001
1.367341e+003;1.280942e-001
1.369269e+003;1.273836e-001
1.371198e+003;1.265245e-001
1.373126e+003;1.250370e-001
1.375055e+003;1.234712e-001
1.376983e+003;1.220808e-001
1.378912e+003;1.202997e-001
1.380840e+003;1.182076e-001
1.382769e+003;1.159275e-001
1.384698e+003;1.140261e-001
1.386626e+003;1.118309e-001
1.388555e+003;1.104616e-001
1.390483e+003;1.099945e-001
1.392412e+003;1.091773e-001
1.394340e+003;1.081049e-001
1.396269e+003;1.078323e-001
1.398197e+003;1.076748e-001
1.400126e+003;1.082732e-001
1.402054e+003;1.091486e-001
1.403983e+003;1.096370e-001
1.405911e+003;1.103511e-001
1.407840e+003;1.109303e-001
1.409769e+003;1.109272e-001
1.411697e+003;1.109647e-001
1.413626e+003;1.115430e-001
1.415554e+003;1.118787e-001
1.417483e+003;1.107194e-001
1.419411e+003;1.100428e-001
1.421340e+003;1.121369e-001
1.423268e+003;1.133485e-001
1.425197e+003;1.138049e-001
1.427125e+003;1.143931e-001
1.429054e+003;1.141407e-001
1.430983e+003;1.137590e-001
1.432911e+003;1.131431e-001
1.434840e+003;1.105123e-001
1.436768e+003;1.079534e-001
1.438697e+003;1.082422e-001
1.440625e+003;1.078054e-001
1.442554e+003;1.064807e-001
1.444482e+003;1.052188e-001
1.446411e+003;1.038208e-001
1.448340e+003;1.025776e-001
1.450268e+003;1.019350e-001
1.452197e+003;1.010950e-001
1.454125e+003;9.897831e-002
1.456054e+003;9.476187e-002
1.457982e+003;9.416807e-002
1.459911e+003;9.633005e-002
1.461839e+003;9.601210e-002
1.463768e+003;9.346128e-002
1.465697e+003;9.158035e-002
1.467625e+003;9.025461e-002
1.469554e+003;8.706982e-002
1.471482e+003;8.194644e-002
1.473411e+003;7.838134e-002
1.475339e+003;7.685032e-002
1.477268e+003;7.521540e-002
1.479196e+003;7.341747e-002
1.481125e+003;7.110393e-002
1.483053e+003;6.883441e-002
1.484982e+003;6.569527e-002
1.486911e+003;6.211554e-002
1.488839e+003;5.897602e-002
1.490768e+003;5.697617e-002
1.492696e+003;5.601779e-002
1.494625e+003;5.345579e-002
1.496553e+003;5.092481e-002
1.498482e+003;5.086360e-002
1.500410e+003;5.107274e-002
1.502339e+003;5.017151e-002
1.504267e+003;4.632449e-002
1.506196e+003;4.249630e-002
1.508125e+003;4.395495e-002
1.510053e+003;4.617146e-002
1.511982e+003;4.612134e-002
1.513910e+003;4.550534e-002
1.515839e+003;4.406397e-002
1.517767e+003;4.307871e-002
1.519696e+003;4.131974e-002
1.521624e+003;4.011938e-002
1.523553e+003;4.164364e-002
1.525481e+003;4.215472e-002
1.527410e+003;4.281630e-002
1.529339e+003;4.377725e-002
1.531267e+003;4.355481e-002
1.533196e+003;4.257104e-002
1.535124e+003;4.311376e-002
1.537053e+003;4.144723e-002
1.538981e+003;3.730661e-002
1.540910e+003;3.767654e-002
1.542838e+003;4.088004e-002
1.544767e+003;4.265422e-002
1.546695e+003;4.402792e-002
1.548624e+003;4.446993e-002
1.550553e+003;4.448590e-002
1.552481e+003;4.446179e-002
1.554410e+003;4.424359e-002
1.556338e+003;4.281129e-002
1.558267e+003;3.961824e-002
1.560195e+003;4.193815e-002
1.562124e+003;4.725453e-002
1.564052e+003;4.917509e-002
1.565981e+003;4.982219e-002
1.567910e+003;4.982580e-002
1.569838e+003;5.017891e-002
1.571767e+003;5.206575e-002
1.573695e+003;5.169057e-002
1.575624e+003;4.991191e-002
1.577552e+003;5.222495e-002
1.579481e+003;5.507803e-002
1.581409e+003;5.595111e-002
1.583338e+003;5.668367e-002
1.585266e+003;5.733238e-002
1.587195e+003;5.761991e-002
1.589124e+003;5.774614e-002
1.591052e+003;5.798112e-002
1.592981e+003;5.817572e-002
1.594909e+003;5.851222e-002
1.596838e+003;5.882557e-002
1.598766e+003;5.905346e-002
1.600695e+003;5.907118e-002
1.602623e+003;5.916503e-002
1.604552e+003;5.912149e-002
1.606480e+003;5.928815e-002
1.608409e+003;5.956888e-002
1.610338e+003;5.983492e-002
1.612266e+003;5.998817e-002
1.614195e+003;5.870698e-002
1.616123e+003;5.636729e-002
1.618052e+003;5.740759e-002
1.619980e+003;5.898931e-002
1.621909e+003;5.809602e-002
1.623837e+003;5.764102e-002
1.625766e+003;5.806917e-002
1.627694e+003;5.775122e-002
1.629623e+003;5.754553e-002
1.631552e+003;5.712081e-002
1.633480e+003;5.504008e-002
1.635409e+003;5.273562e-002
1.637337e+003;5.389757e-002
1.639266e+003;5.549500e-002
1.641194e+003;5.561821e-002
1.643123e+003;5.440766e-002
1.645051e+003;5.155415e-002
1.646980e+003;5.036919e-002
1.648909e+003;5.103763e-002
1.650837e+003;4.759649e-002
1.652766e+003;4.272628e-002
1.654694e+003;4.583816e-002
1.656623e+003;4.945496e-002
1.658551e+003;4.928220e-002
1.660480e+003;4.770723e-002
1.662408e+003;4.611051e-002
1.664337e+003;4.580451e-002
1.666266e+003;4.492692e-002
1.668194e+003;4.228943e-002
1.670123e+003;4.066258e-002
1.672051e+003;4.032705e-002
1.673980e+003;3.872178e-002
1.675908e+003;3.801386e-002
1.677837e+003;3.859520e-002
1.679765e+003;3.744770e-002
1.681694e+003;3.460236e-002
1.683622e+003;3.012459e-002
1.685551e+003;3.048688e-002
1.687479e+003;3.312217e-002
1.689408e+003;3.314094e-002
1.691337e+003;3.262985e-002
1.693265e+003;3.052473e-002
1.695194e+003;2.666810e-002
1.697122e+003;2.630835e-002
1.699051e+003;2.508546e-002
1.700979e+003;2.493447e-002
1.702908e+003;2.787635e-002
1.704836e+003;2.800526e-002
1.706765e+003;2.814484e-002
1.708693e+003;2.838728e-002
1.710622e+003;2.829557e-002
1.712551e+003;2.745870e-002
1.714479e+003;2.584736e-002
1.716408e+003;2.380916e-002
1.718336e+003;2.429486e-002
1.720265e+003;2.694170e-002
1.722193e+003;2.794723e-002
1.724122e+003;2.809083e-002
1.726050e+003;2.855109e-002
1.727979e+003;2.844880e-002
1.729908e+003;2.811613e-002
1.731836e+003;2.628698e-002
1.733765e+003;2.400976e-002
1.735693e+003;2.606636e-002
1.737622e+003;2.767505e-002
1.739550e+003;2.654519e-002
1.741479e+003;2.616404e-002
1.743407e+003;2.560331e-002
1.745336e+003;2.446827e-002
1.747265e+003;2.286036e-002
1.749193e+003;2.113091e-002
1.751122e+003;1.966885e-002
1.753050e+003;1.988565e-002
1.754979e+003;1.961979e-002
1.756907e+003;1.882194e-002
1.758836e+003;1.843696e-002
1.760764e+003;1.740852e-002
1.762693e+003;1.747919e-002
1.764621e+003;1.809067e-002
1.766550e+003;1.706638e-002
1.768479e+003;1.624455e-002
1.770407e+003;1.535610e-002
1.772336e+003;1.447466e-002
1.774264e+003;1.571094e-002
1.776193e+003;1.680283e-002
1.778121e+003;1.690720e-002
1.780050e+003;1.652408e-002
1.781978e+003;1.654116e-002
1.783907e+003;1.637920e-002
1.785835e+003;1.629402e-002
1.787764e+003;1.643767e-002
1.789693e+003;1.559054e-002
1.791621e+003;1.435779e-002
1.793550e+003;1.481212e-002
1.795478e+003;1.590859e-002
1.797407e+003;1.580821e-002
1.799335e+003;1.532198e-002
1.801264e+003;1.508545e-002
1.803192e+003;1.535315e-002
1.805121e+003;1.546716e-002
1.807049e+003;1.558587e-002
1.808978e+003;1.539657e-002
1.810907e+003;1.517101e-002
1.812835e+003;1.547152e-002
1.814764e+003;1.573540e-002
1.816692e+003;1.560542e-002
1.818621e+003;1.555177e-002
1.820549e+003;1.532308e-002
1.822478e+003;1.491036e-002
1.824406e+003;1.452091e-002
1.826335e+003;1.464362e-002
1.828264e+003;1.418614e-002
1.830192e+003;1.392868e-002
1.832121e+003;1.465260e-002
1.834049e+003;1.496307e-002
1.835978e+003;1.478919e-002
1.837906e+003;1.481065e-002
1.839835e+003;1.485210e-002
1.841763e+003;1.392724e-002
1.843692e+003;1.269111e-002
1.845620e+003;1.332365e-002
1.847549e+003;1.401490e-002
1.849478e+003;1.399735e-002
1.851406e+003;1.396316e-002
1.853335e+003;1.402791e-002
1.855263e+003;1.419871e-002
1.857192e+003;1.435341e-002
1.859120e+003;1.436166e-002
1.861049e+003;1.424257e-002
1.862977e+003;1.411207e-002
1.864906e+003;1.401754e-002
1.866834e+003;1.355987e-002
1.868763e+003;1.302227e-002
1.870692e+003;1.354302e-002
1.872620e+003;1.405532e-002
1.874549e+003;1.393658e-002
1.876477e+003;1.369253e-002
1.878406e+003;1.355136e-002
1.880334e+003;1.367310e-002
1.882263e+003;1.375535e-002
1.884191e+003;1.375302e-002
1.886120e+003;1.377710e-002
1.888048e+003;1.349790e-002
1.889977e+003;1.335214e-002
1.891906e+003;1.370467e-002
1.893834e+003;1.374122e-002
1.895763e+003;1.370244e-002
1.897691e+003;1.370053e-002
1.899620e+003;1.372159e-002
1.901548e+003;1.384527e-002
1.903477e+003;1.405008e-002
1.905405e+003;1.401449e-002
1.907334e+003;1.369212e-002
1.909262e+003;1.330595e-002
1.911191e+003;1.349407e-002
1.913120e+003;1.379205e-002
1.915048e+003;1.365413e-002
1.916977e+003;1.300189e-002
1.918905e+003;1.309117e-002
1.920834e+003;1.368032e-002
1.922762e+003;1.384660e-002
1.924691e+003;1.404967e-002
1.926619e+003;1.408458e-002
1.928548e+003;1.406210e-002
1.930477e+003;1.416067e-002
1.932405e+003;1.421442e-002
1.934334e+003;1.409519e-002
1.936262e+003;1.399865e-002
1.938191e+003;1.397805e-002
1.940119e+003;1.375880e-002
1.942048e+003;1.360479e-002
1.943976e+003;1.385830e-002
1.945905e+003;1.397873e-002
1.947833e+003;1.416807e-002
1.949762e+003;1.439163e-002
1.951691e+003;1.425578e-002
1.953619e+003;1.408246e-002
1.955548e+003;1.414688e-002
1.957476e+003;1.417574e-002
1.959405e+003;1.414585e-002
1.961333e+003;1.450697e-002
1.963262e+003;1.484048e-002
1.965190e+003;1.468063e-002
1.967119e+003;1.445541e-002
1.969047e+003;1.449803e-002
1.970976e+003;1.451598e-002
1.972905e+003;1.454106e-002
1.974833e+003;1.458344e-002
1.976762e+003;1.454753e-002
1.978690e+003;1.472464e-002
1.980619e+003;1.496937e-002
1.982547e+003;1.503609e-002
1.984476e+003;1.502240e-002
1.986404e+003;1.490110e-002
1.988333e+003;1.468231e-002
1.990261e+003;1.430663e-002
1.992190e+003;1.413774e-002
1.994119e+003;1.442092e-002
1.996047e+003;1.452650e-002
1.997976e+003;1.440862e-002
1.999904e+003;1.452071e-002
2.001833e+003;1.471977e-002
2.003761e+003;1.480756e-002
2.005690e+003;1.459725e-002
2.007618e+003;1.456583e-002
2.009547e+003;1.470671e-002
2.011476e+003;1.486914e-002
2.013404e+003;1.488913e-002
2.015333e+003;1.476067e-002
2.017261e+003;1.479985e-002
2.019190e+003;1.508706e-002
2.021118e+003;1.516889e-002
2.023047e+003;1.501924e-002
2.024975e+003;1.494043e-002
2.026904e+003;1.513139e-002
2.028833e+003;1.522345e-002
2.030761e+003;1.536025e-002
2.032690e+003;1.520076e-002
2.034618e+003;1.496725e-002
2.036547e+003;1.515478e-002
2.038475e+003;1.516961e-002
2.040404e+003;1.508806e-002
2.042332e+003;1.518845e-002
2.044261e+003;1.527664e-002
2.046189e+003;1.531302e-002
2.048118e+003;1.533959e-002
2.050047e+003;1.536674e-002
2.051975e+003;1.548604e-002
2.053904e+003;1.561555e-002
2.055832e+003;1.547588e-002
2.057761e+003;1.544271e-002
2.059689e+003;1.527736e-002
2.061618e+003;1.513615e-002
2.063546e+003;1.530873e-002
2.065475e+003;1.542565e-002
2.067404e+003;1.550538e-002
2.069332e+003;1.545387e-002
2.071260e+003;1.534395e-002
2.073189e+003;1.521844e-002
2.075118e+003;1.527479e-002
2.077046e+003;1.543355e-002
2.078975e+003;1.529356e-002
2.080903e+003;1.523885e-002
2.082832e+003;1.521548e-002
2.084760e+003;1.513365e-002
2.086689e+003;1.513413e-002
2.088617e+003;1.499877e-002
2.090546e+003;1.487672e-002
2.092475e+003;1.504055e-002
2.094403e+003;1.502233e-002
2.096332e+003;1.485237e-002
2.098260e+003;1.483763e-002
2.100189e+003;1.498505e-002
2.102117e+003;1.503372e-002
2.104046e+003;1.492743e-002
2.105974e+003;1.483523e-002
2.107903e+003;1.501955e-002
2.109832e+003;1.497246e-002
2.111760e+003;1.494338e-002
2.113688e+003;1.502086e-002
2.115617e+003;1.493889e-002
2.117546e+003;1.492784e-002
2.119474e+003;1.499112e-002
2.121403e+003;1.502614e-002
2.123331e+003;1.488128e-002
2.125260e+003;1.479803e-002
2.127188e+003;1.500395e-002
2.129117e+003;1.496248e-002
2.131045e+003;1.489304e-002
2.132974e+003;1.475792e-002
2.134903e+003;1.481709e-002
2.136831e+003;1.514586e-002
2.138760e+003;1.509241e-002
2.140688e+003;1.475429e-002
2.142617e+003;1.456203e-002
2.144545e+003;1.449683e-002
2.146474e+003;1.472341e-002
2.148402e+003;1.492147e-002
2.150331e+003;1.482066e-002
2.152260e+003;1.472186e-002
2.154188e+003;1.463238e-002
2.156117e+003;1.434485e-002
2.158045e+003;1.421319e-002
2.159974e+003;1.428817e-002
2.161902e+003;1.446572e-002
2.163831e+003;1.457847e-002
2.165759e+003;1.434392e-002
2.167688e+003;1.405744e-002
2.169616e+003;1.398089e-002
2.171545e+003;1.398568e-002
2.173474e+003;1.391400e-002
2.175402e+003;1.379369e-002
2.177331e+003;1.387510e-002
2.179259e+003;1.375022e-002
2.181188e+003;1.331415e-002
2.183116e+003;1.319653e-002
2.185045e+003;1.319814e-002
2.186973e+003;1.308421e-002
2.188902e+003;1.297997e-002
2.190831e+003;1.312556e-002
2.192759e+003;1.328067e-002
2.194688e+003;1.320555e-002
2.196616e+003;1.278480e-002
2.198545e+003;1.244237e-002
2.200473e+003;1.266129e-002
2.202402e+003;1.296266e-002
2.204330e+003;1.266112e-002
2.206259e+003;1.248380e-002
2.208188e+003;1.279221e-002
2.210116e+003;1.300096e-002
2.212044e+003;1.281640e-002
2.213973e+003;1.258973e-002
2.215902e+003;1.250477e-002
2.217830e+003;1.261353e-002
2.219759e+003;1.272212e-002
2.221687e+003;1.267927e-002
2.223616e+003;1.279845e-002
2.225544e+003;1.284452e-002
2.227473e+003;1.276051e-002
2.229401e+003;1.278238e-002
2.231330e+003;1.267678e-002
2.233259e+003;1.249488e-002
2.235187e+003;1.231885e-002
2.237116e+003;1.222114e-002
2.239044e+003;1.240691e-002
2.240973e+003;1.266624e-002
2.242901e+003;1.272130e-002
2.244830e+003;1.274703e-002
2.246758e+003;1.293600e-002
2.248687e+003;1.289586e-002
2.250615e+003;1.274543e-002
2.252544e+003;1.277593e-002
2.254473e+003;1.255975e-002
2.256401e+003;1.220154e-002
2.258330e+003;1.238840e-002
2.260258e+003;1.262465e-002
2.262187e+003;1.272083e-002
2.264115e+003;1.273557e-002
2.266044e+003;1.234943e-002
2.267972e+003;1.206170e-002
2.269901e+003;1.217452e-002
2.271830e+003;1.238182e-002
2.273758e+003;1.258587e-002
2.275687e+003;1.254672e-002
2.277615e+003;1.223695e-002
2.279544e+003;1.214136e-002
2.281472e+003;1.234554e-002
2.283401e+003;1.260600e-002
2.285329e+003;1.281900e-002
2.287258e+003;1.273348e-002
2.289187e+003;1.275822e-002
2.291115e+003;1.273222e-002
2.293043e+003;1.255821e-002
2.294972e+003;1.247892e-002
2.296901e+003;1.242062e-002
2.298829e+003;1.231653e-002
2.300758e+003;1.225791e-002
2.302686e+003;1.218607e-002
2.304615e+003;1.214129e-002
2.306543e+003;1.212695e-002
2.308472e+003;1.210692e-002
2.310400e+003;1.224608e-002
2.312329e+003;1.215673e-002
2.314258e+003;1.196340e-002
2.316186e+003;1.199276e-002
2.318115e+003;1.188776e-002
2.320043e+003;1.166851e-002
2.321972e+003;1.172849e-002
2.323900e+003;1.177788e-002
2.325829e+003;1.186450e-002
2.327757e+003;1.174557e-002
2.329686e+003;1.154501e-002
2.331615e+003;1.143172e-002
2.333543e+003;1.121378e-002
2.335472e+003;1.137334e-002
2.337400e+003;1.181571e-002
2.339329e+003;1.186937e-002
2.341257e+003;1.181343e-002
2.343186e+003;1.212392e-002
2.345114e+003;1.263833e-002
2.347043e+003;1.323517e-002
2.348971e+003;1.331053e-002
2.350900e+003;1.282691e-002
2.352829e+003;1.262749e-002
2.354757e+003;1.289326e-002
2.356686e+003;1.284927e-002
2.358614e+003;1.244892e-002
2.360543e+003;1.233276e-002
2.362471e+003;1.232853e-002
2.364400e+003;1.256043e-002
2.366328e+003;1.298546e-002
2.368257e+003;1.337480e-002
2.370186e+003;1.346184e-002
2.372114e+003;1.361553e-002
2.374042e+003;1.407017e-002
2.375971e+003;1.462535e-002
2.377900e+003;1.495525e-002
2.379828e+003;1.495857e-002
2.381757e+003;1.498940e-002
2.383685e+003;1.496725e-002
2.385614e+003;1.503056e-002
2.387542e+003;1.544841e-002
2.389471e+003;1.571520e-002
2.391399e+003;1.559803e-002
2.393328e+003;1.557670e-002
2.395257e+003;1.576756e-002
2.397185e+003;1.566917e-002
2.399114e+003;1.544518e-002
2.401042e+003;1.563856e-002
2.402971e+003;1.605053e-002
2.404899e+003;1.622061e-002
2.406828e+003;1.655114e-002
2.408756e+003;1.669566e-002
2.410685e+003;1.649751e-002
2.412614e+003;1.662715e-002
2.414542e+003;1.688942e-002
2.416471e+003;1.692811e-002
2.418399e+003;1.701149e-002
2.420328e+003;1.721511e-002
2.422256e+003;1.730141e-002
2.424185e+003;1.739310e-002
2.426113e+003;1.743560e-002
2.428042e+003;1.756813e-002
2.429970e+003;1.769953e-002
2.431899e+003;1.781265e-002
2.433828e+003;1.798038e-002
2.435756e+003;1.825270e-002
2.437685e+003;1.835393e-002
2.439613e+003;1.848329e-002
2.441542e+003;1.864406e-002
2.443470e+003;1.871701e-002
2.445399e+003;1.888177e-002
2.447327e+003;1.924425e-002
2.449256e+003;1.942318e-002
2.451185e+003;1.942578e-002
2.453113e+003;1.941944e-002
2.455042e+003;1.944865e-002
2.456970e+003;1.958267e-002
2.458899e+003;1.994233e-002
2.460827e+003;2.011031e-002
2.462756e+003;2.002917e-002
2.464684e+003;1.995323e-002
2.466613e+003;2.004146e-002
2.468542e+003;2.034306e-002
2.470470e+003;2.079525e-002
2.472398e+003;2.096174e-002
2.474327e+003;2.093605e-002
2.476256e+003;2.111161e-002
2.478184e+003;2.143421e-002
2.480113e+003;2.140410e-002
2.482041e+003;2.112336e-002
2.483970e+003;2.106107e-002
2.485898e+003;2.150088e-002
2.487827e+003;2.179318e-002
2.489755e+003;2.183534e-002
2.491684e+003;2.176326e-002
2.493613e+003;2.174480e-002
2.495541e+003;2.196407e-002
2.497470e+003;2.198993e-002
2.499398e+003;2.217732e-002
2.501327e+003;2.251356e-002
2.503255e+003;2.283449e-002
2.505184e+003;2.279248e-002
2.507112e+003;2.264689e-002
2.509041e+003;2.267436e-002
2.510969e+003;2.291541e-002
2.512898e+003;2.329466e-002
2.514827e+003;2.346890e-002
2.516755e+003;2.347303e-002
2.518684e+003;2.351640e-002
2.520612e+003;2.362012e-002
2.522541e+003;2.363698e-002
2.524469e+003;2.383975e-002
2.526398e+003;2.402016e-002
2.528326e+003;2.414575e-002
2.530255e+003;2.425730e-002
2.532184e+003;2.431729e-002
2.534112e+003;2.434385e-002
2.536041e+003;2.447753e-002
2.537969e+003;2.452128e-002
2.539898e+003;2.431525e-002
2.541826e+003;2.424476e-002
2.543755e+003;2.451469e-002
2.545683e+003;2.492657e-002
2.547612e+003;2.522601e-002
2.549541e+003;2.531373e-002
2.551469e+003;2.540457e-002
2.553397e+003;2.538086e-002
2.555326e+003;2.527577e-002
2.557255e+003;2.551858e-002
2.559183e+003;2.580063e-002
2.561112e+003;2.580598e-002
2.563040e+003;2.551661e-002
2.564969e+003;2.560911e-002
2.566897e+003;2.584490e-002
2.568826e+003;2.568191e-002
2.570754e+003;2.566925e-002
2.572683e+003;2.568605e-002
2.574612e+003;2.581579e-002
2.576540e+003;2.627259e-002
2.578469e+003;2.674305e-002
2.580397e+003;2.686855e-002
2.582326e+003;2.695287e-002
2.584254e+003;2.696818e-002
2.586183e+003;2.724905e-002
2.588111e+003;2.754419e-002
2.590040e+003;2.715949e-002
2.591969e+003;2.714421e-002
2.593897e+003;2.775356e-002
2.595826e+003;2.818797e-002
2.597754e+003;2.798999e-002
2.599683e+003;2.787342e-002
2.601611e+003;2.807389e-002
2.603540e+003;2.832631e-002
2.605468e+003;2.869407e-002
2.607397e+003;2.905520e-002
2.609325e+003;2.911472e-002
2.611254e+003;2.901776e-002
2.613183e+003;2.923028e-002
2.615111e+003;2.940656e-002
2.617040e+003;2.917801e-002
2.618968e+003;2.936618e-002
2.620897e+003;2.977357e-002
2.622825e+003;3.009370e-002
2.624754e+003;3.033442e-002
2.626682e+003;3.036736e-002
2.628611e+003;3.058257e-002
2.630540e+003;3.075525e-002
2.632468e+003;3.099253e-002
2.634396e+003;3.129650e-002
2.636325e+003;3.139989e-002
2.638254e+003;3.150013e-002
2.640182e+003;3.160360e-002
2.642111e+003;3.176638e-002
2.644039e+003;3.199936e-002
2.645968e+003;3.228045e-002
2.647896e+003;3.236072e-002
2.649825e+003;3.249211e-002
2.651753e+003;3.267594e-002
2.653682e+003;3.304894e-002
2.655611e+003;3.343110e-002
2.657539e+003;3.345504e-002
2.659468e+003;3.365643e-002
2.661396e+003;3.386550e-002
2.663325e+003;3.383154e-002
2.665253e+003;3.412202e-002
2.667182e+003;3.445846e-002
2.669110e+003;3.454904e-002
2.671039e+003;3.485630e-002
2.672968e+003;3.504286e-002
2.674896e+003;3.518659e-002
2.676825e+003;3.549074e-002
2.678753e+003;3.568501e-002
2.680682e+003;3.587117e-002
2.682610e+003;3.625889e-002
2.684539e+003;3.651563e-002
2.686467e+003;3.641149e-002
2.688396e+003;3.661090e-002
2.690324e+003;3.697911e-002
2.692253e+003;3.705661e-002
2.694182e+003;3.711637e-002
2.696110e+003;3.748501e-002
2.698039e+003;3.790860e-002
2.699967e+003;3.803520e-002
2.701896e+003;3.803407e-002
2.703824e+003;3.818698e-002
2.705753e+003;3.861947e-002
2.707681e+003;3.888776e-002
2.709610e+003;3.909248e-002
2.711539e+003;3.935650e-002
2.713467e+003;3.953298e-002
2.715396e+003;3.955842e-002
2.717324e+003;3.965236e-002
2.719253e+003;4.004812e-002
2.721181e+003;4.033759e-002
2.723110e+003;4.060575e-002
2.725038e+003;4.096553e-002
2.726967e+003;4.089056e-002
2.728896e+003;4.083836e-002
2.730824e+003;4.103923e-002
2.732752e+003;4.137393e-002
2.734681e+003;4.174306e-002
2.736610e+003;4.191545e-002
2.738538e+003;4.208951e-002
2.740467e+003;4.201698e-002
2.742395e+003;4.195209e-002
2.744324e+003;4.217553e-002
2.746252e+003;4.248695e-002
2.748181e+003;4.256197e-002
2.750109e+003;4.234108e-002
2.752038e+003;4.249375e-002
2.753967e+003;4.282423e-002
2.755895e+003;4.319885e-002
2.757824e+003;4.331547e-002
2.759752e+003;4.331917e-002
2.761681e+003;4.360833e-002
2.763609e+003;4.397233e-002
2.765538e+003;4.446362e-002
2.767466e+003;4.458418e-002
2.769395e+003;4.451303e-002
2.771323e+003;4.473349e-002
2.773252e+003;4.484116e-002
2.775181e+003;4.491957e-002
2.777109e+003;4.541852e-002
2.779038e+003;4.596305e-002
2.780966e+003;4.619689e-002
2.782895e+003;4.643852e-002
2.784823e+003;4.677420e-002
2.786752e+003;4.699475e-002
2.788680e+003;4.720506e-002
2.790609e+003;4.758225e-002
2.792538e+003;4.799427e-002
2.794466e+003;4.832144e-002
2.796395e+003;4.881108e-002
2.798323e+003;4.936508e-002
2.800252e+003;4.971979e-002
2.802180e+003;4.976040e-002
2.804109e+003;4.992295e-002
2.806037e+003;5.043405e-002
2.807966e+003;5.116902e-002
2.809895e+003;5.179024e-002
2.811823e+003;5.246420e-002
2.813751e+003;5.331184e-002
2.815680e+003;5.376503e-002
2.817609e+003;5.383009e-002
2.819537e+003;5.426760e-002
2.821466e+003;5.497837e-002
2.823394e+003;5.583369e-002
2.825323e+003;5.642075e-002
2.827251e+003;5.700741e-002
2.829180e+003;5.798733e-002
2.831108e+003;5.894103e-002
2.833037e+003;6.005547e-002
2.834966e+003;6.157700e-002
2.836894e+003;6.284862e-002
2.838823e+003;6.380966e-002
2.840751e+003;6.517026e-002
2.842680e+003;6.715508e-002
2.844608e+003;6.930993e-002
2.846537e+003;7.164942e-002
2.848465e+003;7.398567e-002
2.850394e+003;7.635222e-002
2.852323e+003;7.837531e-002
2.854251e+003;7.950361e-002
2.856180e+003;8.023705e-002
2.858108e+003;8.128446e-002
2.860037e+003;8.239872e-002
2.861965e+003;8.326267e-002
2.863894e+003;8.383335e-002
2.865822e+003;8.449822e-002
2.867751e+003;8.544869e-002
2.869679e+003;8.666568e-002
2.871608e+003;8.769009e-002
2.873536e+003;8.838347e-002
2.875465e+003;8.931173e-002
2.877394e+003;9.003429e-002
2.879322e+003;9.048871e-002
2.881251e+003;9.135707e-002
2.883179e+003;9.209476e-002
2.885108e+003;9.276397e-002
2.887036e+003;9.339920e-002
2.888965e+003;9.386719e-002
2.890893e+003;9.456566e-002
2.892822e+003;9.498835e-002
2.894750e+003;9.511665e-002
2.896679e+003;9.542187e-002
2.898608e+003;9.601846e-002
2.900536e+003;9.664030e-002
2.902465e+003;9.660041e-002
2.904393e+003;9.648921e-002
2.906322e+003;9.645433e-002
2.908250e+003;9.624560e-002
2.910179e+003;9.632658e-002
2.912107e+003;9.641842e-002
2.914036e+003;9.654011e-002
2.915965e+003;9.621244e-002
2.917893e+003;9.517317e-002
2.919822e+003;9.455103e-002
2.921750e+003;9.413164e-002
2.923679e+003;9.367220e-002
2.925607e+003;9.292087e-002
2.927536e+003;9.159177e-002
2.929464e+003;9.033060e-002
2.931393e+003;8.945322e-002
2.933322e+003;8.828890e-002
2.935250e+003;8.697335e-002
2.937178e+003;8.558300e-002
2.939107e+003;8.420795e-002
2.941036e+003;8.290356e-002
2.942964e+003;8.158234e-002
2.944893e+003;8.059803e-002
2.946821e+003;7.920155e-002
2.948750e+003;7.734621e-002
2.950678e+003;7.607255e-002
2.952607e+003;7.487587e-002
2.954535e+003;7.358810e-002
2.956464e+003;7.241781e-002
2.958393e+003;7.121475e-002
2.960321e+003;6.979744e-002
2.962250e+003;6.805799e-002
2.964178e+003;6.660902e-002
2.966107e+003;6.540485e-002
2.968035e+003;6.397060e-002
2.969964e+003;6.275952e-002
2.971892e+003;6.200473e-002
2.973821e+003;6.103085e-002
2.975750e+003;5.960856e-002
2.977678e+003;5.806981e-002
2.979607e+003;5.669137e-002
2.981535e+003;5.563373e-002
2.983464e+003;5.478463e-002
2.985392e+003;5.375295e-002
2.987321e+003;5.252713e-002
2.989249e+003;5.155508e-002
2.991178e+003;5.085719e-002
2.993106e+003;5.018828e-002
2.995035e+003;4.949700e-002
2.996964e+003;4.910015e-002
2.998892e+003;4.899572e-002
3.000821e+003;4.875088e-002
3.002749e+003;4.821569e-002
3.004678e+003;4.810478e-002
3.006606e+003;4.813980e-002
3.008535e+003;4.799116e-002
3.010463e+003;4.762289e-002
3.012392e+003;4.745151e-002
3.014321e+003;4.799497e-002
3.016249e+003;4.830578e-002
3.018177e+003;4.842015e-002
3.020106e+003;4.865543e-002
3.022035e+003;4.886236e-002
3.023963e+003;4.919131e-002
3.025892e+003;4.958152e-002
3.027820e+003;4.989381e-002
3.029749e+003;5.004470e-002
3.031677e+003;5.058111e-002
3.033606e+003;5.104494e-002
3.035534e+003;5.138934e-002
3.037463e+003;5.175440e-002
3.039392e+003;5.173212e-002
3.041320e+003;5.211457e-002
3.043249e+003;5.277090e-002
3.045177e+003;5.325491e-002
3.047106e+003;5.390526e-002
3.049034e+003;5.434379e-002
3.050963e+003;5.436117e-002
3.052891e+003;5.466132e-002
3.054820e+003;5.544474e-002
3.056749e+003;5.595952e-002
3.058677e+003;5.654679e-002
3.060606e+003;5.709798e-002
3.062534e+003;5.757810e-002
3.064463e+003;5.845281e-002
3.066391e+003;5.923096e-002
3.068320e+003;5.973119e-002
3.070248e+003;6.028621e-002
3.072177e+003;6.089428e-002
3.074105e+003;6.135690e-002
3.076034e+003;6.182151e-002
3.077963e+003;6.229648e-002
3.079891e+003;6.269429e-002
3.081820e+003;6.316588e-002
3.083748e+003;6.397767e-002
3.085677e+003;6.486511e-002
3.087605e+003;6.553750e-002
3.089534e+003;6.644917e-002
3.091462e+003;6.720172e-002
3.093391e+003;6.762651e-002
3.095320e+003;6.824479e-002
3.097248e+003;6.894628e-002
3.099177e+003;6.936617e-002
3.101105e+003;6.954972e-002
3.103034e+003;6.989068e-002
3.104962e+003;7.077801e-002
3.106891e+003;7.199755e-002
3.108819e+003;7.277356e-002
3.110748e+003;7.317227e-002
3.112677e+003;7.368361e-002
3.114605e+003;7.450026e-002
3.116533e+003;7.528183e-002
3.118462e+003;7.606233e-002
3.120391e+003;7.663721e-002
3.122319e+003;7.717980e-002
3.124248e+003;7.776749e-002
3.126176e+003;7.798295e-002
3.128105e+003;7.903843e-002
3.130033e+003;8.046550e-002
3.131962e+003;8.097293e-002
3.133890e+003;8.111437e-002
3.135819e+003;8.189362e-002
3.137748e+003;8.294098e-002
3.139676e+003;8.375470e-002
3.141605e+003;8.432063e-002
3.143533e+003;8.470608e-002
3.145462e+003;8.554512e-002
3.147390e+003;8.631935e-002
3.149319e+003;8.676286e-002
3.151247e+003;8.785113e-002
3.153176e+003;8.850342e-002
3.155104e+003;8.887053e-002
3.157033e+003;8.989998e-002
3.158962e+003;9.078419e-002
3.160890e+003;9.141850e-002
3.162819e+003;9.193537e-002
3.164747e+003;9.236810e-002
3.166676e+003;9.274919e-002
3.168604e+003;9.315206e-002
3.170533e+003;9.418502e-002
3.172461e+003;9.550504e-002
3.174390e+003;9.644651e-002
3.176319e+003;9.711860e-002
3.178247e+003;9.789670e-002
3.180176e+003;9.875885e-002
3.182104e+003;9.936801e-002
3.184033e+003;9.980070e-002
3.185961e+003;1.004011e-001
3.187890e+003;1.012526e-001
3.189818e+003;1.022624e-001
3.191747e+003;1.031266e-001
3.193676e+003;1.036195e-001
3.195604e+003;1.041418e-001
3.197532e+003;1.048748e-001
3.199461e+003;1.057618e-001
3.201390e+003;1.064152e-001
3.203318e+003;1.075855e-001
3.205247e+003;1.082221e-001
3.207175e+003;1.083002e-001
3.209104e+003;1.090612e-001
3.211032e+003;1.103437e-001
3.212961e+003;1.110886e-001
3.214889e+003;1.118229e-001
3.216818e+003;1.125158e-001
3.218747e+003;1.129345e-001
3.220675e+003;1.138649e-001
3.222604e+003;1.146363e-001
3.224532e+003;1.152482e-001
3.226461e+003;1.164680e-001
3.228389e+003;1.176380e-001
3.230318e+003;1.183694e-001
3.232246e+003;1.188906e-001
3.234175e+003;1.194111e-001
3.236104e+003;1.198086e-001
3.238032e+003;1.202539e-001
3.239961e+003;1.212705e-001
3.241889e+003;1.225321e-001
3.243818e+003;1.230271e-001
3.245746e+003;1.235741e-001
3.247675e+003;1.248195e-001
3.249603e+003;1.257253e-001
3.251532e+003;1.263770e-001
3.253460e+003;1.268254e-001
3.255389e+003;1.277547e-001
3.257318e+003;1.282724e-001
3.259246e+003;1.289752e-001
3.261175e+003;1.299931e-001
3.263103e+003;1.300659e-001
3.265032e+003;1.303939e-001
3.266960e+003;1.310820e-001
3.268889e+003;1.317012e-001
3.270817e+003;1.323528e-001
3.272746e+003;1.324888e-001
3.274675e+003;1.325112e-001
3.276603e+003;1.332358e-001
3.278531e+003;1.339577e-001
3.280460e+003;1.339951e-001
3.282389e+003;1.336063e-001
3.284317e+003;1.343246e-001
3.286246e+003;1.350141e-001
3.288174e+003;1.345867e-001
3.290103e+003;1.344194e-001
3.292031e+003;1.348142e-001
3.293960e+003;1.355533e-001
3.295888e+003;1.360353e-001
3.297817e+003;1.360859e-001
3.299746e+003;1.363824e-001
3.301674e+003;1.366827e-001
3.303603e+003;1.364383e-001
3.305531e+003;1.366027e-001
3.307460e+003;1.371173e-001
3.309388e+003;1.376007e-001
3.311317e+003;1.379196e-001
3.313245e+003;1.375865e-001
3.315174e+003;1.376813e-001
3.317103e+003;1.380494e-001
3.319031e+003;1.380681e-001
3.320960e+003;1.383322e-001
3.322888e+003;1.385706e-001
3.324817e+003;1.383955e-001
3.326745e+003;1.378542e-001
3.328674e+003;1.375568e-001
3.330602e+003;1.376917e-001
3.332531e+003;1.377843e-001
3.334459e+003;1.374093e-001
3.336388e+003;1.368993e-001
3.338317e+003;1.363900e-001
3.340245e+003;1.361981e-001
3.342174e+003;1.359698e-001
3.344102e+003;1.354919e-001
3.346031e+003;1.349620e-001
3.347959e+003;1.343340e-001
3.349888e+003;1.340067e-001
3.351816e+003;1.337704e-001
3.353745e+003;1.330213e-001
3.355674e+003;1.323457e-001
3.357602e+003;1.318283e-001
3.359531e+003;1.320266e-001
3.361459e+003;1.320844e-001
3.363388e+003;1.315090e-001
3.365316e+003;1.311181e-001
3.367245e+003;1.302368e-001
3.369173e+003;1.293668e-001
3.371102e+003;1.296252e-001
3.373031e+003;1.296473e-001
3.374959e+003;1.291109e-001
3.376887e+003;1.284923e-001
3.378816e+003;1.277409e-001
3.380745e+003;1.275304e-001
3.382673e+003;1.272423e-001
3.384602e+003;1.266576e-001
3.386530e+003;1.260379e-001
3.388459e+003;1.250212e-001
3.390387e+003;1.244842e-001
3.392316e+003;1.252275e-001
3.394244e+003;1.252643e-001
3.396173e+003;1.241492e-001
3.398102e+003;1.230555e-001
3.400030e+003;1.228810e-001
3.401959e+003;1.221486e-001
3.403887e+003;1.208219e-001
3.405816e+003;1.199751e-001
3.407744e+003;1.198462e-001
3.409673e+003;1.200387e-001
3.411601e+003;1.198261e-001
3.413530e+003;1.189287e-001
3.415458e+003;1.176784e-001
3.417387e+003;1.169310e-001
3.419316e+003;1.161456e-001
3.421244e+003;1.154874e-001
3.423173e+003;1.148756e-001
3.425101e+003;1.141653e-001
3.427030e+003;1.137807e-001
3.428958e+003;1.130325e-001
3.430887e+003;1.122555e-001
3.432815e+003;1.114711e-001
3.434744e+003;1.104768e-001
3.436673e+003;1.104141e-001
3.438601e+003;1.098296e-001
3.440530e+003;1.087848e-001
3.442458e+003;1.082833e-001
3.444387e+003;1.076356e-001
3.446315e+003;1.066759e-001
3.448244e+003;1.061869e-001
3.450172e+003;1.051147e-001
3.452101e+003;1.040238e-001
3.454030e+003;1.033750e-001
3.455958e+003;1.026360e-001
3.457886e+003;1.019662e-001
3.459815e+003;1.013783e-001
3.461744e+003;1.002116e-001
3.463672e+003;9.914784e-002
3.465601e+003;9.825531e-002
3.467529e+003;9.747884e-002
3.469458e+003;9.654164e-002
3.471386e+003;9.540981e-002
3.473315e+003;9.457027e-002
3.475243e+003;9.383959e-002
3.477172e+003;9.296934e-002
3.479101e+003;9.179266e-002
3.481029e+003;9.084795e-002
3.482958e+003;8.989803e-002
3.484886e+003;8.867850e-002
3.486815e+003;8.789822e-002
3.488743e+003;8.743836e-002
3.490672e+003;8.661266e-002
3.492600e+003;8.520185e-002
3.494529e+003;8.380526e-002
3.496458e+003;8.301888e-002
3.498386e+003;8.242784e-002
3.500315e+003;8.120268e-002
3.502243e+003;8.007985e-002
3.504172e+003;7.876061e-002
3.506100e+003;7.779143e-002
3.508029e+003;7.714869e-002
3.509957e+003;7.616518e-002
3.511886e+003;7.516398e-002
3.513814e+003;7.443210e-002
3.515743e+003;7.345612e-002
3.517672e+003;7.195429e-002
3.519600e+003;7.060099e-002
3.521529e+003;6.920069e-002
3.523457e+003;6.815416e-002
3.525386e+003;6.695324e-002
3.527314e+003;6.580120e-002
3.529243e+003;6.549319e-002
3.531171e+003;6.494845e-002
3.533100e+003;6.326120e-002
3.535029e+003;6.137358e-002
3.536957e+003;6.039742e-002
3.538885e+003;5.976241e-002
3.540814e+003;5.866048e-002
3.542743e+003;5.725431e-002
3.544671e+003;5.579156e-002
3.546600e+003;5.484545e-002
3.548528e+003;5.412500e-002
3.550457e+003;5.304175e-002
3.552385e+003;5.158004e-002
3.554314e+003;5.060013e-002
3.556242e+003;4.963832e-002
3.558171e+003;4.807754e-002
3.560100e+003;4.669306e-002
3.562028e+003;4.553562e-002
3.563957e+003;4.432401e-002
3.565885e+003;4.260539e-002
3.567814e+003;4.138235e-002
3.569742e+003;4.104247e-002
3.571671e+003;4.026600e-002
3.573599e+003;3.928453e-002
3.575528e+003;3.824465e-002
3.577457e+003;3.718917e-002
3.579385e+003;3.614515e-002
3.581314e+003;3.474103e-002
3.583242e+003;3.332995e-002
3.585171e+003;3.123098e-002
3.587099e+003;2.929851e-002
3.589028e+003;2.898545e-002
3.590956e+003;2.880643e-002
3.592885e+003;2.763942e-002
3.594813e+003;2.630145e-002
3.596742e+003;2.559881e-002
3.598671e+003;2.455792e-002
3.600599e+003;2.308845e-002
3.602528e+003;2.292470e-002
3.604456e+003;2.274502e-002
3.606385e+003;2.150913e-002
3.608313e+003;2.002064e-002
3.610242e+003;1.905744e-002
3.612170e+003;1.838331e-002
3.614099e+003;1.823408e-002
3.616028e+003;1.705339e-002
3.617956e+003;1.520546e-002
3.619885e+003;1.450402e-002
3.621813e+003;1.494907e-002
3.623742e+003;1.524664e-002
3.625670e+003;1.392659e-002
3.627599e+003;1.071477e-002
3.629527e+003;1.012950e-002
3.631456e+003;1.197474e-002
3.633385e+003;1.214838e-002
3.635313e+003;1.161875e-002
3.637241e+003;1.097975e-002
3.639170e+003;9.931438e-003
3.641099e+003;9.133815e-003
3.643027e+003;8.895962e-003
3.644956e+003;7.556536e-003
3.646884e+003;4.459432e-003
3.648813e+003;2.654112e-003
3.650741e+003;3.696481e-003
3.652670e+003;5.552258e-003
3.654598e+003;5.228454e-003
3.656527e+003;4.514604e-003
3.658456e+003;5.178523e-003
3.660384e+003;5.598305e-003
3.662313e+003;5.708577e-003
3.664241e+003;5.486887e-003
3.666170e+003;4.262637e-003
3.668098e+003;1.748686e-003
3.670027e+003;4.576233e-004
3.671955e+003;1.495659e-003
3.673884e+003;1.713368e-004
3.675813e+003;-3.429675e-004
3.677741e+003;1.797359e-003
3.679669e+003;2.406820e-003
3.681598e+003;2.970196e-003
3.683527e+003;3.085909e-003
3.685455e+003;2.367174e-003
3.687384e+003;-1.318715e-005
3.689312e+003;-3.776632e-004
3.691241e+003;1.124566e-003
3.693169e+003;2.079460e-003
3.695098e+003;2.073167e-003
3.697026e+003;1.832695e-003
3.698955e+003;1.505234e-003
3.700884e+003;7.176796e-004
3.702812e+003;7.648102e-004
3.704741e+003;1.247564e-003
3.706669e+003;1.273916e-003
3.708598e+003;5.327907e-004
3.710526e+003;-5.236659e-004
3.712455e+003;-5.095014e-004
3.714383e+003;6.109905e-004
3.716312e+003;1.176359e-003
3.718240e+003;1.025682e-003
3.720169e+003;4.032296e-004
3.722098e+003;-2.822928e-005
3.724026e+003;-4.168062e-005
3.725955e+003;3.375682e-004
3.727883e+003;6.690274e-004
3.729812e+003;-5.393522e-004
3.731740e+003;-1.768040e-003
3.733669e+003;-2.279066e-003
3.735597e+003;-2.916023e-003
3.737526e+003;-1.251193e-003
3.739455e+003;-1.591799e-004
3.741383e+003;-1.823443e-003
3.743312e+003;-5.368884e-003
3.745240e+003;-4.287188e-003
3.747169e+003;-3.131085e-003
3.749097e+003;-5.099719e-003
3.751026e+003;-5.051971e-003
3.752954e+003;-2.671120e-003
3.754883e+003;-6.860945e-004
3.756812e+003;-7.956804e-004
3.758740e+003;-7.358466e-004
3.760668e+003;-3.303201e-004
3.762597e+003;-7.378324e-005
3.764526e+003;-6.683292e-004
3.766454e+003;-1.621277e-004
3.768383e+003;1.665968e-004
3.770311e+003;5.250942e-004
3.772240e+003;6.240971e-004
3.774168e+003;5.726021e-004
3.776097e+003;4.968308e-004
3.778025e+003;3.122349e-004
3.779954e+003;4.655508e-004
3.781883e+003;8.794721e-004
3.783811e+003;1.125662e-003
3.785740e+003;1.441301e-003
3.787668e+003;1.499815e-003
3.789597e+003;1.421122e-003
3.791525e+003;1.570574e-003
3.793454e+003;1.253678e-003
3.795382e+003;2.973141e-004
3.797311e+003;3.216850e-004
3.799240e+003;-1.492771e-003
3.801168e+003;-3.528945e-003
3.803097e+003;-1.550916e-003
3.805025e+003;-1.308412e-003
3.806954e+003;-2.438895e-003
3.808882e+003;-8.397981e-004
3.810811e+003;6.760627e-004
3.812739e+003;4.165620e-004
3.814668e+003;-1.885667e-003
3.816596e+003;-1.964474e-003
3.818525e+003;-1.243329e-003
3.820454e+003;-2.616978e-003
3.822382e+003;-1.478010e-003
3.824311e+003;-2.470765e-004
3.826239e+003;-2.159471e-004
3.828168e+003;2.468856e-004
3.830096e+003;9.676217e-005
3.832025e+003;-3.368094e-004
3.833953e+003;-1.264904e-003
3.835882e+003;-2.575774e-003
3.837811e+003;-3.046995e-003
3.839739e+003;-1.567456e-003
3.841667e+003;-7.191750e-004
3.843596e+003;-3.585279e-004
3.845525e+003;6.419492e-004
3.847453e+003;5.561131e-004
3.849382e+003;-1.207084e-003
3.851310e+003;-4.511279e-003
3.853239e+003;-6.436008e-003
3.855167e+003;-2.873038e-003
3.857096e+003;-1.079373e-004
3.859024e+003;-3.215462e-004
3.860953e+003;-3.847477e-004
3.862882e+003;-6.255838e-004
3.864810e+003;-9.026266e-004
3.866739e+003;-9.875299e-004
3.868667e+003;-2.023842e-003
3.870596e+003;-1.100775e-003
3.872524e+003;3.811424e-004
3.874453e+003;3.336554e-004
3.876381e+003;7.737059e-004
3.878310e+003;6.355449e-004
3.880239e+003;4.276064e-004
3.882167e+003;5.041950e-004
3.884096e+003;-5.310127e-004
3.886024e+003;-5.043715e-004
3.887953e+003;9.662355e-004
3.889881e+003;1.018840e-003
3.891810e+003;1.022394e-003
3.893738e+003;1.797060e-003
3.895667e+003;1.465869e-003
3.897595e+003;-9.534930e-005
3.899524e+003;-7.242691e-004
3.901453e+003;-5.653293e-004
3.903381e+003;-5.490483e-004
3.905310e+003;7.857884e-004
3.907238e+003;2.415550e-003
3.909167e+003;2.326764e-003
3.911095e+003;1.516605e-003
3.913024e+003;1.493364e-003
3.914952e+003;1.608718e-003
3.916881e+003;1.224404e-003
3.918810e+003;1.325627e-003
3.920738e+003;2.114419e-003
3.922667e+003;2.404188e-003
3.924595e+003;2.517384e-003
3.926524e+003;2.802587e-003
3.928452e+003;2.659246e-003
3.930381e+003;2.599376e-003
3.932309e+003;2.123175e-003
3.934238e+003;1.802616e-003
3.936167e+003;1.828669e-003
3.938095e+003;1.945808e-003
3.940023e+003;1.869098e-003
3.941952e+003;1.613008e-003
3.943881e+003;1.939818e-003
3.945809e+003;2.158471e-003
3.947738e+003;1.548560e-003
3.949666e+003;1.881244e-003
3.951595e+003;2.400257e-003
3.953523e+003;2.588542e-003
3.955452e+003;2.426812e-003
3.957380e+003;1.967310e-003
3.959309e+003;1.623783e-003
3.961238e+003;1.912926e-003
3.963166e+003;2.629776e-003
3.965095e+003;2.201829e-003
3.967023e+003;2.048898e-003
3.968952e+003;2.638410e-003
3.970880e+003;3.053341e-003
3.972809e+003;2.470263e-003
3.974737e+003;1.421022e-003
3.976666e+003;1.630601e-003
3.978594e+003;2.113320e-003
3.980523e+003;1.914091e-003
3.982452e+003;1.897351e-003
3.984380e+003;2.025794e-003
3.986309e+003;2.250287e-003
3.988237e+003;2.245757e-003
3.990166e+003;2.467830e-003
3.992094e+003;2.637643e-003
3.994023e+003;2.322933e-003
3.995951e+003;2.051461e-003
3.997880e+003;1.651255e-003
3.999809e+003;1.424679e-003
4.001737e+003;0.000000e+000
