3.992094e+002;0.000000e+000
4.011380e+002;0.000000e+000
4.030665e+002;0.000000e+000
4.049951e+002;0.000000e+000
4.069236e+002;0.000000e+000
4.088522e+002;0.000000e+000
4.107807e+002;0.000000e+000
4.127093e+002;0.000000e+000
4.146378e+002;0.000000e+000
4.165664e+002;0.000000e+000
4.184949e+002;0.000000e+000
4.204235e+002;0.000000e+000
4.223520e+002;0.000000e+000
4.242806e+002;0.000000e+000
4.262091e+002;0.000000e+000
4.281377e+002;0.000000e+000
4.300662e+002;0.000000e+000
4.319948e+002;0.000000e+000
4.339233e+002;0.000000e+000
4.358519e+002;0.000000e+000
4.377804e+002;0.000000e+000
4.397090e+002;0.000000e+000
4.416375e+002;0.000000e+000
4.435660e+002;0.000000e+000
4.454946e+002;0.000000e+000
4.474232e+002;0.000000e+000
4.493517e+002;0.000000e+000
4.512802e+002;0.000000e+000
4.532088e+002;0.000000e+000
4.551373e+002;0.000000e+000
4.570659e+002;0.000000e+000
4.589944e+002;0.000000e+000
4.609230e+002;0.000000e+000
4.628515e+002;0.000000e+000
4.647801e+002;0.000000e+000
4.667086e+002;0.000000e+000
4.686372e+002;0.000000e+000
4.705657e+002;0.000000e+000
4.724943e+002;0.000000e+000
4.744228e+002;0.000000e+000
4.763513e+002;0.000000e+000
4.782799e+002;0.000000e+000
4.802085e+002;0.000000e+000
4.821370e+002;0.000000e+000
4.840656e+002;0.000000e+000
4.859941e+002;0.000000e+000
4.879226e+002;0.000000e+000
4.898512e+002;0.000000e+000
4.917798e+002;0.000000e+000
4.937083e+002;0.000000e+000
4.956368e+002;0.000000e+000
4.975654e+002;0.000000e+000
4.994939e+002;0.000000e+000
5.014225e+002;0.000000e+000
5.033510e+002;0.000000e+000
5.052796e+002;0.000000e+000
5.072081e+002;0.000000e+000
5.091367e+002;0.000000e+000
5.110652e+002;0.000000e+000
5.129938e+002;0.000000e+000
5.149223e+002;0.000000e+000
5.168509e+002;0.000000e+000
5.187794e+002;0.000000e+000
5.207079e+002;0.000000e+000
5.226365e+002;0.000000e+000
5.245651e+002;0.000000e+000
5.264936e+002;0.000000e+000
5.284222e+002;0.000000e+000
5.303507e+002;0.000000e+000
5.322792e+002;0.000000e+000
5.342078e+002;0.000000e+000
5.361364e+002;0.000000e+000
5.380649e+002;0.000000e+000
5.399935e+002;0.000000e+000
5.419220e+002;0.000000e+000
5.438505e+002;0.000000e+000
5.457791e+002;0.000000e+000
5.477076e+002;0.000000e+000
5.496362e+002;0.000000e+000
5.515648e+002;0.000000e+000
5.534933e+002;0.000000e+000
5.554218e+002;0.000000e+000
5.573504e+002;0.000000e+000
5.592789e+002;0.000000e+000
5.612075e+002;0.000000e+000
5.631360e+002;0.000000e+000
5.650646e+002;0.000000e+000
5.669931e+002;0.000000e+000
5.689217e+002;0.000000e+000
5.708502e+002;0.000000e+000
5.727787e+002;0.000000e+000
5.747073e+002;0.000000e+000
5.766359e+002;0.000000e+000
5.785644e+002;0.000000e+000
5.804930e+002;0.000000e+000
5.824215e+002;0.000000e+000
5.843500e+002;0.000000e+000
5.862786e+002;0.000000e+000
5.882072e+002;0.000000e+000
5.901357e+002;0.000000e+000
5.920643e+002;0.000000e+000
5.939928e+002;0.000000e+000
5.959213e+002;0.000000e+000
5.978499e+002;0.000000e+000
5.997784e+002;2.192978e-001
6.017070e+002;2.227777e-001
6.036355e+002;2.278671e-001
6.055641e+002;2.263202e-001
6.074926e+002;2.263272e-001
6.094211e+002;2.261044e-001
6.113497e+002;2.242775e-001
6.132783e+002;2.220723e-001
6.152068e+002;2.206371e-001
6.171354e+002;2.206255e-001
6.190639e+002;2.226470e-001
6.209924e+002;2.209868e-001
6.229210e+002;2.175924e-001
6.248495e+002;2.159297e-001
6.267781e+002;2.118486e-001
6.287067e+002;2.113064e-001
6.306352e+002;2.146035e-001
6.325637e+002;2.125760e-001
6.344923e+002;2.105805e-001
6.364208e+002;2.060700e-001
6.383494e+002;2.026813e-001
6.402780e+002;2.009188e-001
6.422065e+002;2.000310e-001
6.441350e+002;1.998766e-001
6.460636e+002;1.978437e-001
6.479921e+002;1.980082e-001
6.499207e+002;1.995691e-001
6.518492e+002;2.011070e-001
6.537778e+002;2.004721e-001
6.557063e+002;2.010918e-001
6.576349e+002;2.035887e-001
6.595634e+002;2.079681e-001
6.614919e+002;2.137029e-001
6.634205e+002;2.152440e-001
6.653491e+002;2.119226e-001
6.672776e+002;2.071156e-001
6.692062e+002;2.043196e-001
6.711347e+002;2.019775e-001
6.730632e+002;1.982035e-001
6.749918e+002;1.924852e-001
6.769203e+002;1.874719e-001
6.788489e+002;1.835835e-001
6.807775e+002;1.797303e-001
6.827060e+002;1.768810e-001
6.846345e+002;1.745785e-001
6.865631e+002;1.732655e-001
6.884916e+002;1.725376e-001
6.904202e+002;1.718494e-001
6.923488e+002;1.717557e-001
6.942773e+002;1.708914e-001
6.962058e+002;1.691882e-001
6.981344e+002;1.685793e-001
7.000629e+002;1.690367e-001
7.019915e+002;1.691716e-001
7.039200e+002;1.681305e-001
7.058486e+002;1.666284e-001
7.077771e+002;1.651456e-001
7.097057e+002;1.645251e-001
7.116342e+002;1.630182e-001
7.135627e+002;1.597930e-001
7.154913e+002;1.571730e-001
7.174199e+002;1.553435e-001
7.193484e+002;1.524649e-001
7.212770e+002;1.492169e-001
7.232055e+002;1.472162e-001
7.251340e+002;1.445429e-001
7.270626e+002;1.413284e-001
7.289911e+002;1.383933e-001
7.309197e+002;1.351648e-001
7.328483e+002;1.329298e-001
7.347768e+002;1.314553e-001
7.367053e+002;1.293300e-001
7.386339e+002;1.267239e-001
7.405624e+002;1.245816e-001
7.424910e+002;1.229034e-001
7.444196e+002;1.219130e-001
7.463481e+002;1.210887e-001
7.482766e+002;1.201347e-001
7.502052e+002;1.184995e-001
7.521337e+002;1.165970e-001
7.540623e+002;1.149498e-001
7.559908e+002;1.134465e-001
7.579194e+002;1.126167e-001
7.598479e+002;1.112495e-001
7.617765e+002;1.092659e-001
7.637050e+002;1.084489e-001
7.656335e+002;1.070060e-001
7.675621e+002;1.053081e-001
7.694907e+002;1.040741e-001
7.714192e+002;1.022056e-001
7.733478e+002;1.007008e-001
7.752763e+002;9.999170e-002
7.772048e+002;9.933144e-002
7.791334e+002;9.789973e-002
7.810620e+002;9.653245e-002
7.829905e+002;9.630176e-002
7.849191e+002;9.602185e-002
7.868476e+002;9.490647e-002
7.887761e+002;9.403663e-002
7.907047e+002;9.335680e-002
7.926332e+002;9.294077e-002
7.945618e+002;9.222467e-002
7.964903e+002;9.096322e-002
7.984189e+002;8.963931e-002
8.003474e+002;8.993018e-002
8.022759e+002;9.080792e-002
8.042045e+002;9.071980e-002
8.061331e+002;9.015021e-002
8.080616e+002;8.969271e-002
8.099902e+002;8.906752e-002
8.119187e+002;8.869471e-002
8.138472e+002;8.823214e-002
8.157758e+002;8.830794e-002
8.177043e+002;8.827948e-002
8.196329e+002;8.768619e-002
8.215615e+002;8.714794e-002
8.234900e+002;8.660270e-002
8.254185e+002;8.612845e-002
8.273471e+002;8.557812e-002
8.292756e+002;8.484359e-002
8.312042e+002;8.501752e-002
8.331328e+002;8.524172e-002
8.350613e+002;8.486160e-002
8.369898e+002;8.417441e-002
8.389184e+002;8.361622e-002
8.408469e+002;8.289634e-002
8.427755e+002;8.220877e-002
8.447040e+002;8.192563e-002
8.466326e+002;8.206782e-002
8.485611e+002;8.159593e-002
8.504897e+002;8.029517e-002
8.524182e+002;7.972383e-002
8.543467e+002;8.008805e-002
8.562753e+002;7.995053e-002
8.582039e+002;7.987478e-002
8.601324e+002;7.978486e-002
8.620610e+002;7.963184e-002
8.639895e+002;8.043040e-002
8.659180e+002;8.139738e-002
8.678466e+002;8.187362e-002
8.697751e+002;8.269813e-002
8.717037e+002;8.417714e-002
8.736323e+002;8.626782e-002
8.755608e+002;8.860072e-002
8.774893e+002;9.101532e-002
8.794179e+002;9.376673e-002
8.813464e+002;9.683493e-002
8.832750e+002;9.983864e-002
8.852036e+002;1.033357e-001
8.871321e+002;1.073245e-001
8.890606e+002;1.113295e-001
8.909892e+002;1.152097e-001
8.929177e+002;1.184989e-001
8.948463e+002;1.208493e-001
8.967748e+002;1.219623e-001
8.987034e+002;1.229028e-001
9.006319e+002;1.231797e-001
9.025605e+002;1.220440e-001
9.044890e+002;1.201846e-001
9.064175e+002;1.178252e-001
9.083461e+002;1.153506e-001
9.102747e+002;1.129728e-001
9.122032e+002;1.110140e-001
9.141318e+002;1.088998e-001
9.160603e+002;1.063746e-001
9.179888e+002;1.045258e-001
9.199174e+002;1.038991e-001
9.218459e+002;1.034509e-001
9.237745e+002;1.031983e-001
9.257031e+002;1.039067e-001
9.276316e+002;1.047101e-001
9.295601e+002;1.054494e-001
9.314887e+002;1.060891e-001
9.334172e+002;1.063072e-001
9.353458e+002;1.069596e-001
9.372744e+002;1.078368e-001
9.392029e+002;1.086710e-001
9.411314e+002;1.099332e-001
9.430600e+002;1.112738e-001
9.449885e+002;1.127864e-001
9.469171e+002;1.149380e-001
9.488456e+002;1.175206e-001
9.507742e+002;1.205112e-001
9.527027e+002;1.240564e-001
9.546313e+002;1.276619e-001
9.565598e+002;1.312213e-001
9.584883e+002;1.354650e-001
9.604169e+002;1.404331e-001
9.623455e+002;1.455081e-001
9.642740e+002;1.507790e-001
9.662026e+002;1.561652e-001
9.681311e+002;1.621052e-001
9.700596e+002;1.692887e-001
9.719882e+002;1.775899e-001
9.739167e+002;1.871496e-001
9.758453e+002;1.990656e-001
9.777739e+002;2.132371e-001
9.797024e+002;2.291156e-001
9.816309e+002;2.459047e-001
9.835595e+002;2.606131e-001
9.854880e+002;2.713708e-001
9.874166e+002;2.791374e-001
9.893452e+002;2.860957e-001
9.912737e+002;2.932538e-001
9.932022e+002;3.003092e-001
9.951307e+002;3.068686e-001
9.970593e+002;3.127176e-001
9.989879e+002;3.175256e-001
1.000916e+003;3.211769e-001
1.002845e+003;3.236458e-001
1.004773e+003;3.251608e-001
1.006702e+003;3.273636e-001
1.008631e+003;3.310070e-001
1.010559e+003;3.362517e-001
1.012488e+003;3.421072e-001
1.014416e+003;3.477531e-001
1.016345e+003;3.526265e-001
1.018273e+003;3.565672e-001
1.020202e+003;3.608851e-001
1.022130e+003;3.644477e-001
1.024059e+003;3.677212e-001
1.025988e+003;3.703123e-001
1.027916e+003;3.727306e-001
1.029845e+003;3.754498e-001
1.031773e+003;3.764793e-001
1.033702e+003;3.751944e-001
1.035630e+003;3.717972e-001
1.037559e+003;3.667971e-001
1.039487e+003;3.611597e-001
1.041416e+003;3.567283e-001
1.043344e+003;3.535762e-001
1.045273e+003;3.528729e-001
1.047202e+003;3.536415e-001
1.049130e+003;3.555687e-001
1.051059e+003;3.588745e-001
1.052987e+003;3.619359e-001
1.054916e+003;3.634132e-001
1.056844e+003;3.623501e-001
1.058773e+003;3.576283e-001
1.060701e+003;3.493450e-001
1.062630e+003;3.391218e-001
1.064558e+003;3.278264e-001
1.066487e+003;3.155882e-001
1.068416e+003;3.035242e-001
1.070344e+003;2.936880e-001
1.072273e+003;2.863744e-001
1.074201e+003;2.796009e-001
1.076130e+003;2.731036e-001
1.078058e+003;2.671935e-001
1.079987e+003;2.615728e-001
1.081915e+003;2.566434e-001
1.083844e+003;2.534420e-001
1.085773e+003;2.517663e-001
1.087701e+003;2.502538e-001
1.089630e+003;2.491180e-001
1.091558e+003;2.481907e-001
1.093487e+003;2.474816e-001
1.095415e+003;2.475934e-001
1.097344e+003;2.475347e-001
1.099272e+003;2.472051e-001
1.101201e+003;2.473928e-001
1.103129e+003;2.475055e-001
1.105058e+003;2.465381e-001
1.106987e+003;2.445887e-001
1.108915e+003;2.423659e-001
1.110844e+003;2.394800e-001
1.112772e+003;2.351798e-001
1.114701e+003;2.289411e-001
1.116629e+003;2.214086e-001
1.118558e+003;2.135871e-001
1.120486e+003;2.063795e-001
1.122415e+003;2.003579e-001
1.124344e+003;1.944034e-001
1.126272e+003;1.875484e-001
1.128201e+003;1.804973e-001
1.130129e+003;1.742482e-001
1.132058e+003;1.686822e-001
1.133986e+003;1.640738e-001
1.135915e+003;1.607364e-001
1.137843e+003;1.584879e-001
1.139772e+003;1.572805e-001
1.141700e+003;1.569326e-001
1.143629e+003;1.573998e-001
1.145557e+003;1.581843e-001
1.147486e+003;1.593870e-001
1.149415e+003;1.608998e-001
1.151343e+003;1.625346e-001
1.153272e+003;1.644723e-001
1.155200e+003;1.666254e-001
1.157129e+003;1.684090e-001
1.159057e+003;1.694094e-001
1.160986e+003;1.692045e-001
1.162914e+003;1.673261e-001
1.164843e+003;1.630414e-001
1.166771e+003;1.567829e-001
1.168700e+003;1.493364e-001
1.170629e+003;1.412649e-001
1.172557e+003;1.334528e-001
1.174486e+003;1.265876e-001
1.176414e+003;1.207830e-001
1.178343e+003;1.162138e-001
1.180271e+003;1.123842e-001
1.182200e+003;1.092775e-001
1.184128e+003;1.075140e-001
1.186057e+003;1.066491e-001
1.187986e+003;1.067450e-001
1.189914e+003;1.082935e-001
1.191843e+003;1.103732e-001
1.193771e+003;1.129301e-001
1.195700e+003;1.154352e-001
1.197628e+003;1.173504e-001
1.199557e+003;1.185828e-001
1.201485e+003;1.191995e-001
1.203414e+003;1.194263e-001
1.205343e+003;1.189327e-001
1.207271e+003;1.172963e-001
1.209200e+003;1.143969e-001
1.211128e+003;1.106353e-001
1.213057e+003;1.075447e-001
1.214985e+003;1.061114e-001
1.216914e+003;1.060577e-001
1.218842e+003;1.068513e-001
1.220771e+003;1.079158e-001
1.222699e+003;1.091426e-001
1.224628e+003;1.107665e-001
1.226557e+003;1.125488e-001
1.228485e+003;1.146624e-001
1.230414e+003;1.168178e-001
1.232342e+003;1.181983e-001
1.234271e+003;1.191637e-001
1.236199e+003;1.198368e-001
1.238128e+003;1.201030e-001
1.240056e+003;1.201311e-001
1.241985e+003;1.203131e-001
1.243913e+003;1.207221e-001
1.245842e+003;1.213991e-001
1.247771e+003;1.223729e-001
1.249699e+003;1.227641e-001
1.251628e+003;1.230283e-001
1.253556e+003;1.233446e-001
1.255485e+003;1.236616e-001
1.257413e+003;1.241322e-001
1.259342e+003;1.245501e-001
1.261270e+003;1.247043e-001
1.263199e+003;1.242776e-001
1.265127e+003;1.235669e-001
1.267056e+003;1.226890e-001
1.268985e+003;1.221594e-001
1.270913e+003;1.221495e-001
1.272842e+003;1.225289e-001
1.274770e+003;1.227883e-001
1.276699e+003;1.229504e-001
1.278627e+003;1.227882e-001
1.280556e+003;1.222973e-001
1.282484e+003;1.212010e-001
1.284413e+003;1.197094e-001
1.286342e+003;1.188329e-001
1.288270e+003;1.185743e-001
1.290199e+003;1.185128e-001
1.292127e+003;1.189085e-001
1.294056e+003;1.194953e-001
1.295984e+003;1.202378e-001
1.297913e+003;1.216312e-001
1.299841e+003;1.233894e-001
1.301770e+003;1.256672e-001
1.303698e+003;1.286788e-001
1.305627e+003;1.320992e-001
1.307556e+003;1.354896e-001
1.309484e+003;1.389901e-001
1.311413e+003;1.424874e-001
1.313341e+003;1.451035e-001
1.315270e+003;1.466139e-001
1.317198e+003;1.463321e-001
1.319127e+003;1.445289e-001
1.321055e+003;1.421504e-001
1.322984e+003;1.395543e-001
1.324912e+003;1.373514e-001
1.326841e+003;1.359780e-001
1.328770e+003;1.355255e-001
1.330698e+003;1.358185e-001
1.332627e+003;1.364252e-001
1.334555e+003;1.368199e-001
1.336484e+003;1.365703e-001
1.338412e+003;1.355063e-001
1.340341e+003;1.339558e-001
1.342269e+003;1.321634e-001
1.344198e+003;1.303557e-001
1.346126e+003;1.285244e-001
1.348055e+003;1.268638e-001
1.349984e+003;1.258689e-001
1.351912e+003;1.258555e-001
1.353841e+003;1.266779e-001
1.355769e+003;1.278110e-001
1.357698e+003;1.288302e-001
1.359626e+003;1.292596e-001
1.361555e+003;1.287729e-001
1.363483e+003;1.281470e-001
1.365412e+003;1.276429e-001
1.367341e+003;1.269746e-001
1.369269e+003;1.267885e-001
1.371198e+003;1.260573e-001
1.373126e+003;1.238493e-001
1.375055e+003;1.213470e-001
1.376983e+003;1.190694e-001
1.378912e+003;1.162771e-001
1.380840e+003;1.132298e-001
1.382769e+003;1.105507e-001
1.384698e+003;1.082920e-001
1.386626e+003;1.057054e-001
1.388555e+003;1.042046e-001
1.390483e+003;1.035121e-001
1.392412e+003;1.021975e-001
1.394340e+003;1.007095e-001
1.396269e+003;1.004933e-001
1.398197e+003;1.006239e-001
1.400126e+003;1.013141e-001
1.402054e+003;1.020134e-001
1.403983e+003;1.018955e-001
1.405911e+003;1.021950e-001
1.407840e+003;1.028243e-001
1.409769e+003;1.031134e-001
1.411697e+003;1.033783e-001
1.413626e+003;1.040559e-001
1.415554e+003;1.046628e-001
1.417483e+003;1.040027e-001
1.419411e+003;1.041430e-001
1.421340e+003;1.071205e-001
1.423268e+003;1.094023e-001
1.425197e+003;1.105651e-001
1.427125e+003;1.111800e-001
1.429054e+003;1.108997e-001
1.430983e+003;1.104237e-001
1.432911e+003;1.096258e-001
1.434840e+003;1.067776e-001
1.436768e+003;1.039906e-001
1.438697e+003;1.041415e-001
1.440625e+003;1.036288e-001
1.442554e+003;1.022908e-001
1.444482e+003;1.011675e-001
1.446411e+003;1.001959e-001
1.448340e+003;9.940920e-002
1.450268e+003;9.921616e-002
1.452197e+003;9.840880e-002
1.454125e+003;9.598912e-002
1.456054e+003;9.141555e-002
1.457982e+003;9.059270e-002
1.459911e+003;9.253380e-002
1.461839e+003;9.207936e-002
1.463768e+003;8.947818e-002
1.465697e+003;8.758382e-002
1.467625e+003;8.653609e-002
1.469554e+003;8.373743e-002
1.471482e+003;7.903275e-002
1.473411e+003;7.621086e-002
1.475339e+003;7.547788e-002
1.477268e+003;7.466573e-002
1.479196e+003;7.362053e-002
1.481125e+003;7.175814e-002
1.483053e+003;6.980802e-002
1.484982e+003;6.709444e-002
1.486911e+003;6.384869e-002
1.488839e+003;6.100149e-002
1.490768e+003;5.956717e-002
1.492696e+003;5.898775e-002
1.494625e+003;5.668876e-002
1.496553e+003;5.454638e-002
1.498482e+003;5.473644e-002
1.500410e+003;5.518890e-002
1.502339e+003;5.474663e-002
1.504267e+003;5.116491e-002
1.506196e+003;4.732934e-002
1.508125e+003;4.916340e-002
1.510053e+003;5.167554e-002
1.511982e+003;5.190426e-002
1.513910e+003;5.152691e-002
1.515839e+003;5.015269e-002
1.517767e+003;4.932637e-002
1.519696e+003;4.762019e-002
1.521624e+003;4.645228e-002
1.523553e+003;4.822310e-002
1.525481e+003;4.877879e-002
1.527410e+003;4.929470e-002
1.529339e+003;5.011959e-002
1.531267e+003;4.977381e-002
1.533196e+003;4.852273e-002
1.535124e+003;4.901857e-002
1.537053e+003;4.730946e-002
1.538981e+003;4.303729e-002
1.540910e+003;4.345797e-002
1.542838e+003;4.671686e-002
1.544767e+003;4.870243e-002
1.546695e+003;5.000298e-002
1.548624e+003;5.011747e-002
1.550553e+003;4.995927e-002
1.552481e+003;4.968542e-002
1.554410e+003;4.888235e-002
1.556338e+003;4.682118e-002
1.558267e+003;4.285469e-002
1.560195e+003;4.474459e-002
1.562124e+003;4.989348e-002
1.564052e+003;5.131323e-002
1.565981e+003;5.153822e-002
1.567910e+003;5.105623e-002
1.569838e+003;5.075052e-002
1.571767e+003;5.215750e-002
1.573695e+003;5.150915e-002
1.575624e+003;4.921424e-002
1.577552e+003;5.089578e-002
1.579481e+003;5.333443e-002
1.581409e+003;5.388797e-002
1.583338e+003;5.416869e-002
1.585266e+003;5.450446e-002
1.587195e+003;5.464369e-002
1.589124e+003;5.455059e-002
1.591052e+003;5.467785e-002
1.592981e+003;5.477801e-002
1.594909e+003;5.516113e-002
1.596838e+003;5.562894e-002
1.598766e+003;5.597052e-002
1.600695e+003;5.622222e-002
1.602623e+003;5.643151e-002
1.604552e+003;5.642268e-002
1.606480e+003;5.680597e-002
1.608409e+003;5.742911e-002
1.610338e+003;5.770406e-002
1.612266e+003;5.772332e-002
1.614195e+003;5.630758e-002
1.616123e+003;5.417732e-002
1.618052e+003;5.592744e-002
1.619980e+003;5.798824e-002
1.621909e+003;5.730160e-002
1.623837e+003;5.720823e-002
1.625766e+003;5.810291e-002
1.627694e+003;5.830439e-002
1.629623e+003;5.881316e-002
1.631552e+003;5.902066e-002
1.633480e+003;5.717750e-002
1.635409e+003;5.514146e-002
1.637337e+003;5.694028e-002
1.639266e+003;5.889265e-002
1.641194e+003;5.929009e-002
1.643123e+003;5.853155e-002
1.645051e+003;5.593422e-002
1.646980e+003;5.492343e-002
1.648909e+003;5.605850e-002
1.650837e+003;5.281808e-002
1.652766e+003;4.803250e-002
1.654694e+003;5.149446e-002
1.656623e+003;5.562039e-002
1.658551e+003;5.585561e-002
1.660480e+003;5.451212e-002
1.662408e+003;5.299039e-002
1.664337e+003;5.301323e-002
1.666266e+003;5.258188e-002
1.668194e+003;5.022246e-002
1.670123e+003;4.903285e-002
1.672051e+003;4.935925e-002
1.673980e+003;4.806384e-002
1.675908e+003;4.748544e-002
1.677837e+003;4.820569e-002
1.679765e+003;4.710175e-002
1.681694e+003;4.450543e-002
1.683622e+003;4.040984e-002
1.685551e+003;4.109411e-002
1.687479e+003;4.396614e-002
1.689408e+003;4.409708e-002
1.691337e+003;4.368575e-002
1.693265e+003;4.172150e-002
1.695194e+003;3.800865e-002
1.697122e+003;3.788932e-002
1.699051e+003;3.671697e-002
1.700979e+003;3.642810e-002
1.702908e+003;3.939956e-002
1.704836e+003;3.955178e-002
1.706765e+003;3.984306e-002
1.708693e+003;4.045268e-002
1.710622e+003;4.056973e-002
1.712551e+003;3.977058e-002
1.714479e+003;3.812056e-002
1.716408e+003;3.585491e-002
1.718336e+003;3.627913e-002
1.720265e+003;3.907721e-002
1.722193e+003;4.026189e-002
1.724122e+003;4.058916e-002
1.726050e+003;4.079628e-002
1.727979e+003;4.032036e-002
1.729908e+003;3.981386e-002
1.731836e+003;3.783484e-002
1.733765e+003;3.546309e-002
1.735693e+003;3.778246e-002
1.737622e+003;3.935769e-002
1.739550e+003;3.832387e-002
1.741479e+003;3.825366e-002
1.743407e+003;3.807690e-002
1.745336e+003;3.742015e-002
1.747265e+003;3.614209e-002
1.749193e+003;3.466710e-002
1.751122e+003;3.354900e-002
1.753050e+003;3.408511e-002
1.754979e+003;3.385701e-002
1.756907e+003;3.308695e-002
1.758836e+003;3.291460e-002
1.760764e+003;3.193146e-002
1.762693e+003;3.197319e-002
1.764621e+003;3.279366e-002
1.766550e+003;3.195182e-002
1.768479e+003;3.109688e-002
1.770407e+003;3.003333e-002
1.772336e+003;2.915423e-002
1.774264e+003;3.062968e-002
1.776193e+003;3.190614e-002
1.778121e+003;3.206229e-002
1.780050e+003;3.154153e-002
1.781978e+003;3.140074e-002
1.783907e+003;3.132609e-002
1.785835e+003;3.136317e-002
1.787764e+003;3.162801e-002
1.789693e+003;3.074529e-002
1.791621e+003;2.931123e-002
1.793550e+003;2.970232e-002
1.795478e+003;3.083375e-002
1.797407e+003;3.077673e-002
1.799335e+003;3.035421e-002
1.801264e+003;3.028738e-002
1.803192e+003;3.071456e-002
1.805121e+003;3.076207e-002
1.807049e+003;3.062428e-002
1.808978e+003;3.039003e-002
1.810907e+003;3.021051e-002
1.812835e+003;3.048745e-002
1.814764e+003;3.069159e-002
1.816692e+003;3.039000e-002
1.818621e+003;3.036303e-002
1.820549e+003;3.038915e-002
1.822478e+003;3.010478e-002
1.824406e+003;2.960175e-002
1.826335e+003;2.959806e-002
1.828264e+003;2.912592e-002
1.830192e+003;2.900872e-002
1.832121e+003;2.980718e-002
1.834049e+003;2.999992e-002
1.835978e+003;2.972957e-002
1.837906e+003;2.978156e-002
1.839835e+003;2.976069e-002
1.841763e+003;2.863857e-002
1.843692e+003;2.731531e-002
1.845620e+003;2.811857e-002
1.847549e+003;2.895276e-002
1.849478e+003;2.900182e-002
1.851406e+003;2.902257e-002
1.853335e+003;2.901581e-002
1.855263e+003;2.903958e-002
1.857192e+003;2.905601e-002
1.859120e+003;2.895272e-002
1.861049e+003;2.880842e-002
1.862977e+003;2.871435e-002
1.864906e+003;2.855675e-002
1.866834e+003;2.783844e-002
1.868763e+003;2.735607e-002
1.870692e+003;2.801529e-002
1.872620e+003;2.843426e-002
1.874549e+003;2.812031e-002
1.876477e+003;2.805127e-002
1.878406e+003;2.827167e-002
1.880334e+003;2.822146e-002
1.882263e+003;2.810613e-002
1.884191e+003;2.819547e-002
1.886120e+003;2.826831e-002
1.888048e+003;2.797165e-002
1.889977e+003;2.785561e-002
1.891906e+003;2.813307e-002
1.893834e+003;2.806591e-002
1.895763e+003;2.806227e-002
1.897691e+003;2.809344e-002
1.899620e+003;2.808418e-002
1.901548e+003;2.801098e-002
1.903477e+003;2.791660e-002
1.905405e+003;2.769702e-002
1.907334e+003;2.745940e-002
1.909262e+003;2.725752e-002
1.911191e+003;2.768444e-002
1.913120e+003;2.810525e-002
1.915048e+003;2.800140e-002
1.916977e+003;2.742344e-002
1.918905e+003;2.741363e-002
1.920834e+003;2.779065e-002
1.922762e+003;2.789628e-002
1.924691e+003;2.817083e-002
1.926619e+003;2.825706e-002
1.928548e+003;2.817231e-002
1.930477e+003;2.820335e-002
1.932405e+003;2.826060e-002
1.934334e+003;2.823634e-002
1.936262e+003;2.817991e-002
1.938191e+003;2.819292e-002
1.940119e+003;2.810818e-002
1.942048e+003;2.791670e-002
1.943976e+003;2.805350e-002
1.945905e+003;2.811490e-002
1.947833e+003;2.826311e-002
1.949762e+003;2.839514e-002
1.951691e+003;2.828295e-002
1.953619e+003;2.820555e-002
1.955548e+003;2.844226e-002
1.957476e+003;2.865046e-002
1.959405e+003;2.856114e-002
1.961333e+003;2.867287e-002
1.963262e+003;2.882655e-002
1.965190e+003;2.875644e-002
1.967119e+003;2.858081e-002
1.969047e+003;2.859798e-002
1.970976e+003;2.880941e-002
1.972905e+003;2.901666e-002
1.974833e+003;2.905913e-002
1.976762e+003;2.897752e-002
1.978690e+003;2.906983e-002
1.980619e+003;2.907220e-002
1.982547e+003;2.899813e-002
1.984476e+003;2.904117e-002
1.986404e+003;2.892736e-002
1.988333e+003;2.881699e-002
1.990261e+003;2.873956e-002
1.992190e+003;2.882524e-002
1.994119e+003;2.907387e-002
1.996047e+003;2.914257e-002
1.997976e+003;2.911004e-002
1.999904e+003;2.912886e-002
2.001833e+003;2.933307e-002
2.003761e+003;2.944461e-002
2.005690e+003;2.919909e-002
2.007618e+003;2.924768e-002
2.009547e+003;2.943170e-002
2.011476e+003;2.939476e-002
2.013404e+003;2.927947e-002
2.015333e+003;2.923599e-002
2.017261e+003;2.927285e-002
2.019190e+003;2.953880e-002
2.021118e+003;2.975760e-002
2.023047e+003;2.980806e-002
2.024975e+003;2.974519e-002
2.026904e+003;2.964549e-002
2.028833e+003;2.975469e-002
2.030761e+003;3.012974e-002
2.032690e+003;2.994365e-002
2.034618e+003;2.970449e-002
2.036547e+003;2.999665e-002
2.038475e+003;3.008933e-002
2.040404e+003;2.995182e-002
2.042332e+003;3.007591e-002
2.044261e+003;3.019357e-002
2.046189e+003;3.014643e-002
2.048118e+003;3.014249e-002
2.050047e+003;3.021822e-002
2.051975e+003;3.017119e-002
2.053904e+003;3.026408e-002
2.055832e+003;3.016853e-002
2.057761e+003;3.011358e-002
2.059689e+003;3.002992e-002
2.061618e+003;3.009164e-002
2.063546e+003;3.025381e-002
2.065475e+003;3.018973e-002
2.067404e+003;3.015677e-002
2.069332e+003;3.006394e-002
2.071260e+003;2.998625e-002
2.073189e+003;2.985441e-002
2.075118e+003;2.975963e-002
2.077046e+003;2.989055e-002
2.078975e+003;3.004011e-002
2.080903e+003;3.008216e-002
2.082832e+003;2.992817e-002
2.084760e+003;2.968402e-002
2.086689e+003;2.969502e-002
2.088617e+003;2.966167e-002
2.090546e+003;2.946432e-002
2.092475e+003;2.935700e-002
2.094403e+003;2.937898e-002
2.096332e+003;2.942890e-002
2.098260e+003;2.931081e-002
2.100189e+003;2.945060e-002
2.102117e+003;2.964925e-002
2.104046e+003;2.950337e-002
2.105974e+003;2.945046e-002
2.107903e+003;2.971659e-002
2.109832e+003;2.970044e-002
2.111760e+003;2.952057e-002
2.113688e+003;2.972297e-002
2.115617e+003;2.998430e-002
2.117546e+003;2.992246e-002
2.119474e+003;2.975398e-002
2.121403e+003;2.991500e-002
2.123331e+003;3.007005e-002
2.125260e+003;3.000628e-002
2.127188e+003;2.987582e-002
2.129117e+003;2.995583e-002
2.131045e+003;3.002154e-002
2.132974e+003;2.986698e-002
2.134903e+003;2.999172e-002
2.136831e+003;3.045187e-002
2.138760e+003;3.041548e-002
2.140688e+003;2.999900e-002
2.142617e+003;2.987216e-002
2.144545e+003;2.986723e-002
2.146474e+003;2.991131e-002
2.148402e+003;3.000748e-002
2.150331e+003;3.005037e-002
2.152260e+003;3.002886e-002
2.154188e+003;3.000784e-002
2.156117e+003;2.990279e-002
2.158045e+003;2.971715e-002
2.159974e+003;2.954582e-002
2.161902e+003;2.954791e-002
2.163831e+003;2.956983e-002
2.165759e+003;2.941872e-002
2.167688e+003;2.936448e-002
2.169616e+003;2.940670e-002
2.171545e+003;2.936207e-002
2.173474e+003;2.935161e-002
2.175402e+003;2.921242e-002
2.177331e+003;2.913276e-002
2.179259e+003;2.901010e-002
2.181188e+003;2.886624e-002
2.183116e+003;2.876547e-002
2.185045e+003;2.864448e-002
2.186973e+003;2.844544e-002
2.188902e+003;2.850314e-002
2.190831e+003;2.862523e-002
2.192759e+003;2.859295e-002
2.194688e+003;2.854695e-002
2.196616e+003;2.840395e-002
2.198545e+003;2.828235e-002
2.200473e+003;2.827298e-002
2.202402e+003;2.822397e-002
2.204330e+003;2.808690e-002
2.206259e+003;2.814809e-002
2.208188e+003;2.838017e-002
2.210116e+003;2.840080e-002
2.212044e+003;2.823924e-002
2.213973e+003;2.821658e-002
2.215902e+003;2.807167e-002
2.217830e+003;2.774713e-002
2.219759e+003;2.777482e-002
2.221687e+003;2.796317e-002
2.223616e+003;2.797571e-002
2.225544e+003;2.800978e-002
2.227473e+003;2.820498e-002
2.229401e+003;2.823998e-002
2.231330e+003;2.793981e-002
2.233259e+003;2.770708e-002
2.235187e+003;2.774332e-002
2.237116e+003;2.793758e-002
2.239044e+003;2.812144e-002
2.240973e+003;2.814551e-002
2.242901e+003;2.827280e-002
2.244830e+003;2.834098e-002
2.246758e+003;2.818239e-002
2.248687e+003;2.811154e-002
2.250615e+003;2.813141e-002
2.252544e+003;2.794879e-002
2.254473e+003;2.776469e-002
2.256401e+003;2.756358e-002
2.258330e+003;2.750243e-002
2.260258e+003;2.737202e-002
2.262187e+003;2.751447e-002
2.264115e+003;2.772446e-002
2.266044e+003;2.749347e-002
2.267972e+003;2.727290e-002
2.269901e+003;2.752570e-002
2.271830e+003;2.770913e-002
2.273758e+003;2.763352e-002
2.275687e+003;2.753071e-002
2.277615e+003;2.721046e-002
2.279544e+003;2.694173e-002
2.281472e+003;2.695940e-002
2.283401e+003;2.701387e-002
2.285329e+003;2.711600e-002
2.287258e+003;2.722436e-002
2.289187e+003;2.737241e-002
2.291115e+003;2.748485e-002
2.293043e+003;2.756100e-002
2.294972e+003;2.729199e-002
2.296901e+003;2.692876e-002
2.298829e+003;2.684518e-002
2.300758e+003;2.687814e-002
2.302686e+003;2.683781e-002
2.304615e+003;2.666472e-002
2.306543e+003;2.667149e-002
2.308472e+003;2.677988e-002
2.310400e+003;2.656978e-002
2.312329e+003;2.637376e-002
2.314258e+003;2.649296e-002
2.316186e+003;2.649835e-002
2.318115e+003;2.638566e-002
2.320043e+003;2.636271e-002
2.321972e+003;2.630839e-002
2.323900e+003;2.616946e-002
2.325829e+003;2.625098e-002
2.327757e+003;2.609887e-002
2.329686e+003;2.563199e-002
2.331615e+003;2.550365e-002
2.333543e+003;2.566813e-002
2.335472e+003;2.578797e-002
2.337400e+003;2.596195e-002
2.339329e+003;2.590912e-002
2.341257e+003;2.581241e-002
2.343186e+003;2.592396e-002
2.345114e+003;2.632909e-002
2.347043e+003;2.691554e-002
2.348971e+003;2.726743e-002
2.350900e+003;2.721624e-002
2.352829e+003;2.692488e-002
2.354757e+003;2.678950e-002
2.356686e+003;2.641510e-002
2.358614e+003;2.630934e-002
2.360543e+003;2.655030e-002
2.362471e+003;2.642556e-002
2.364400e+003;2.628836e-002
2.366328e+003;2.642602e-002
2.368257e+003;2.692358e-002
2.370186e+003;2.746307e-002
2.372114e+003;2.783134e-002
2.374042e+003;2.810818e-002
2.375971e+003;2.853481e-002
2.377900e+003;2.891872e-002
2.379828e+003;2.896979e-002
2.381757e+003;2.895478e-002
2.383685e+003;2.892407e-002
2.385614e+003;2.895233e-002
2.387542e+003;2.908074e-002
2.389471e+003;2.894550e-002
2.391399e+003;2.876399e-002
2.393328e+003;2.892368e-002
2.395257e+003;2.900766e-002
2.397185e+003;2.905066e-002
2.399114e+003;2.889259e-002
2.401042e+003;2.893693e-002
2.402971e+003;2.947117e-002
2.404899e+003;2.981967e-002
2.406828e+003;3.009341e-002
2.408756e+003;3.014363e-002
2.410685e+003;3.000322e-002
2.412614e+003;3.011433e-002
2.414542e+003;3.013319e-002
2.416471e+003;3.007072e-002
2.418399e+003;3.009398e-002
2.420328e+003;3.024315e-002
2.422256e+003;3.041800e-002
2.424185e+003;3.054745e-002
2.426113e+003;3.073913e-002
2.428042e+003;3.076563e-002
2.429970e+003;3.072142e-002
2.431899e+003;3.074031e-002
2.433828e+003;3.082656e-002
2.435756e+003;3.111475e-002
2.437685e+003;3.145478e-002
2.439613e+003;3.170442e-002
2.441542e+003;3.173786e-002
2.443470e+003;3.180331e-002
2.445399e+003;3.201695e-002
2.447327e+003;3.231514e-002
2.449256e+003;3.235055e-002
2.451185e+003;3.234441e-002
2.453113e+003;3.242691e-002
2.455042e+003;3.232620e-002
2.456970e+003;3.240303e-002
2.458899e+003;3.231874e-002
2.460827e+003;3.223776e-002
2.462756e+003;3.253760e-002
2.464684e+003;3.267436e-002
2.466613e+003;3.251275e-002
2.468542e+003;3.239620e-002
2.470470e+003;3.251403e-002
2.472398e+003;3.271448e-002
2.474327e+003;3.278041e-002
2.476256e+003;3.283454e-002
2.478184e+003;3.313057e-002
2.480113e+003;3.338405e-002
2.482041e+003;3.337718e-002
2.483970e+003;3.334837e-002
2.485898e+003;3.348901e-002
2.487827e+003;3.360917e-002
2.489755e+003;3.380784e-002
2.491684e+003;3.380751e-002
2.493613e+003;3.356435e-002
2.495541e+003;3.353120e-002
2.497470e+003;3.367605e-002
2.499398e+003;3.390674e-002
2.501327e+003;3.401849e-002
2.503255e+003;3.423150e-002
2.505184e+003;3.431576e-002
2.507112e+003;3.432070e-002
2.509041e+003;3.447625e-002
2.510969e+003;3.470758e-002
2.512898e+003;3.502019e-002
2.514827e+003;3.504505e-002
2.516755e+003;3.493009e-002
2.518684e+003;3.490183e-002
2.520612e+003;3.506922e-002
2.522541e+003;3.516765e-002
2.524469e+003;3.539349e-002
2.526398e+003;3.556733e-002
2.528326e+003;3.553162e-002
2.530255e+003;3.556866e-002
2.532184e+003;3.568156e-002
2.534112e+003;3.576991e-002
2.536041e+003;3.570314e-002
2.537969e+003;3.561876e-002
2.539898e+003;3.531801e-002
2.541826e+003;3.521433e-002
2.543755e+003;3.558499e-002
2.545683e+003;3.597335e-002
2.547612e+003;3.596489e-002
2.549541e+003;3.593016e-002
2.551469e+003;3.610774e-002
2.553397e+003;3.605291e-002
2.555326e+003;3.597522e-002
2.557255e+003;3.615160e-002
2.559183e+003;3.633688e-002
2.561112e+003;3.646832e-002
2.563040e+003;3.631782e-002
2.564969e+003;3.635900e-002
2.566897e+003;3.645261e-002
2.568826e+003;3.645924e-002
2.570754e+003;3.636498e-002
2.572683e+003;3.613637e-002
2.574612e+003;3.626465e-002
2.576540e+003;3.657727e-002
2.578469e+003;3.678703e-002
2.580397e+003;3.700130e-002
2.582326e+003;3.700978e-002
2.584254e+003;3.705077e-002
2.586183e+003;3.741368e-002
2.588111e+003;3.745406e-002
2.590040e+003;3.697186e-002
2.591969e+003;3.671589e-002
2.593897e+003;3.706668e-002
2.595826e+003;3.761341e-002
2.597754e+003;3.789525e-002
2.599683e+003;3.803715e-002
2.601611e+003;3.812779e-002
2.603540e+003;3.831963e-002
2.605468e+003;3.849693e-002
2.607397e+003;3.839546e-002
2.609325e+003;3.831261e-002
2.611254e+003;3.842221e-002
2.613183e+003;3.850975e-002
2.615111e+003;3.842047e-002
2.617040e+003;3.812421e-002
2.618968e+003;3.844443e-002
2.620897e+003;3.903756e-002
2.622825e+003;3.908650e-002
2.624754e+003;3.926393e-002
2.626682e+003;3.954648e-002
2.628611e+003;3.964379e-002
2.630540e+003;3.974719e-002
2.632468e+003;3.991774e-002
2.634396e+003;4.017386e-002
2.636325e+003;4.019752e-002
2.638254e+003;4.013973e-002
2.640182e+003;4.038351e-002
2.642111e+003;4.080997e-002
2.644039e+003;4.106276e-002
2.645968e+003;4.123167e-002
2.647896e+003;4.134127e-002
2.649825e+003;4.150187e-002
2.651753e+003;4.142616e-002
2.653682e+003;4.144675e-002
2.655611e+003;4.174485e-002
2.657539e+003;4.174762e-002
2.659468e+003;4.205359e-002
2.661396e+003;4.239667e-002
2.663325e+003;4.257941e-002
2.665253e+003;4.281187e-002
2.667182e+003;4.287101e-002
2.669110e+003;4.275973e-002
2.671039e+003;4.300177e-002
2.672968e+003;4.338027e-002
2.674896e+003;4.348325e-002
2.676825e+003;4.350929e-002
2.678753e+003;4.379253e-002
2.680682e+003;4.417877e-002
2.682610e+003;4.453561e-002
2.684539e+003;4.458602e-002
2.686467e+003;4.451747e-002
2.688396e+003;4.479877e-002
2.690324e+003;4.494867e-002
2.692253e+003;4.512612e-002
2.694182e+003;4.537489e-002
2.696110e+003;4.538158e-002
2.698039e+003;4.564916e-002
2.699967e+003;4.584663e-002
2.701896e+003;4.598474e-002
2.703824e+003;4.633540e-002
2.705753e+003;4.629279e-002
2.707681e+003;4.606221e-002
2.709610e+003;4.625239e-002
2.711539e+003;4.671184e-002
2.713467e+003;4.726243e-002
2.715396e+003;4.757900e-002
2.717324e+003;4.759845e-002
2.719253e+003;4.764304e-002
2.721181e+003;4.794331e-002
2.723110e+003;4.827579e-002
2.725038e+003;4.839422e-002
2.726967e+003;4.837352e-002
2.728896e+003;4.870680e-002
2.730824e+003;4.904008e-002
2.732752e+003;4.951787e-002
2.734681e+003;4.987615e-002
2.736610e+003;4.982301e-002
2.738538e+003;4.979618e-002
2.740467e+003;4.977269e-002
2.742395e+003;4.975356e-002
2.744324e+003;4.974579e-002
2.746252e+003;5.006303e-002
2.748181e+003;5.050386e-002
2.750109e+003;5.050919e-002
2.752038e+003;5.054488e-002
2.753967e+003;5.082795e-002
2.755895e+003;5.114870e-002
2.757824e+003;5.079138e-002
2.759752e+003;5.069280e-002
2.761681e+003;5.134783e-002
2.763609e+003;5.175638e-002
2.765538e+003;5.194074e-002
2.767466e+003;5.185475e-002
2.769395e+003;5.175242e-002
2.771323e+003;5.203605e-002
2.773252e+003;5.228052e-002
2.775181e+003;5.241627e-002
2.777109e+003;5.267176e-002
2.779038e+003;5.291486e-002
2.780966e+003;5.324521e-002
2.782895e+003;5.351797e-002
2.784823e+003;5.348600e-002
2.786752e+003;5.374733e-002
2.788680e+003;5.402754e-002
2.790609e+003;5.418592e-002
2.792538e+003;5.475313e-002
2.794466e+003;5.513299e-002
2.796395e+003;5.542099e-002
2.798323e+003;5.601734e-002
2.800252e+003;5.643868e-002
2.802180e+003;5.678928e-002
2.804109e+003;5.705819e-002
2.806037e+003;5.726652e-002
2.807966e+003;5.780523e-002
2.809895e+003;5.841403e-002
2.811823e+003;5.899800e-002
2.813751e+003;5.948703e-002
2.815680e+003;5.990060e-002
2.817609e+003;6.049427e-002
2.819537e+003;6.104260e-002
2.821466e+003;6.148553e-002
2.823394e+003;6.233763e-002
2.825323e+003;6.310955e-002
2.827251e+003;6.378283e-002
2.829180e+003;6.469037e-002
2.831108e+003;6.555410e-002
2.833037e+003;6.670228e-002
2.834966e+003;6.775413e-002
2.836894e+003;6.872121e-002
2.838823e+003;6.979841e-002
2.840751e+003;7.124512e-002
2.842680e+003;7.358653e-002
2.844608e+003;7.579274e-002
2.846537e+003;7.747903e-002
2.848465e+003;7.913094e-002
2.850394e+003;8.108114e-002
2.852323e+003;8.287682e-002
2.854251e+003;8.426865e-002
2.856180e+003;8.516771e-002
2.858108e+003;8.572078e-002
2.860037e+003;8.632565e-002
2.861965e+003;8.713656e-002
2.863894e+003;8.785611e-002
2.865822e+003;8.867196e-002
2.867751e+003;8.945041e-002
2.869679e+003;9.039404e-002
2.871608e+003;9.121786e-002
2.873536e+003;9.176204e-002
2.875465e+003;9.233630e-002
2.877394e+003;9.326167e-002
2.879322e+003;9.419667e-002
2.881251e+003;9.489851e-002
2.883179e+003;9.520110e-002
2.885108e+003;9.542736e-002
2.887036e+003;9.595151e-002
2.888965e+003;9.657073e-002
2.890893e+003;9.716339e-002
2.892822e+003;9.756851e-002
2.894750e+003;9.762721e-002
2.896679e+003;9.801183e-002
2.898608e+003;9.907999e-002
2.900536e+003;9.924868e-002
2.902465e+003;9.858078e-002
2.904393e+003;9.840087e-002
2.906322e+003;9.844958e-002
2.908250e+003;9.798052e-002
2.910179e+003;9.727962e-002
2.912107e+003;9.669751e-002
2.914036e+003;9.623965e-002
2.915965e+003;9.585593e-002
2.917893e+003;9.522131e-002
2.919822e+003;9.414604e-002
2.921750e+003;9.303197e-002
2.923679e+003;9.188125e-002
2.925607e+003;9.021982e-002
2.927536e+003;8.912206e-002
2.929464e+003;8.852954e-002
2.931393e+003;8.760470e-002
2.933322e+003;8.614611e-002
2.935250e+003;8.462942e-002
2.937178e+003;8.348099e-002
2.939107e+003;8.227204e-002
2.941036e+003;8.108046e-002
2.942964e+003;7.988243e-002
2.944893e+003;7.906145e-002
2.946821e+003;7.821616e-002
2.948750e+003;7.687583e-002
2.950678e+003;7.580549e-002
2.952607e+003;7.482406e-002
2.954535e+003;7.370442e-002
2.956464e+003;7.222576e-002
2.958393e+003;7.094258e-002
2.960321e+003;6.995401e-002
2.962250e+003;6.883061e-002
2.964178e+003;6.794945e-002
2.966107e+003;6.689124e-002
2.968035e+003;6.603862e-002
2.969964e+003;6.534708e-002
2.971892e+003;6.414183e-002
2.973821e+003;6.267431e-002
2.975750e+003;6.112433e-002
2.977678e+003;5.969686e-002
2.979607e+003;5.860360e-002
2.981535e+003;5.789403e-002
2.983464e+003;5.745899e-002
2.985392e+003;5.649766e-002
2.987321e+003;5.522382e-002
2.989249e+003;5.460067e-002
2.991178e+003;5.438070e-002
2.993106e+003;5.401801e-002
2.995035e+003;5.330791e-002
2.996964e+003;5.296168e-002
2.998892e+003;5.286459e-002
3.000821e+003;5.284843e-002
3.002749e+003;5.294764e-002
3.004678e+003;5.274044e-002
3.006606e+003;5.237455e-002
3.008535e+003;5.203460e-002
3.010463e+003;5.199971e-002
3.012392e+003;5.239395e-002
3.014321e+003;5.243953e-002
3.016249e+003;5.211741e-002
3.018177e+003;5.236835e-002
3.020106e+003;5.298695e-002
3.022035e+003;5.319730e-002
3.023963e+003;5.368910e-002
3.025892e+003;5.432798e-002
3.027820e+003;5.425131e-002
3.029749e+003;5.425131e-002
3.031677e+003;5.472077e-002
3.033606e+003;5.501778e-002
3.035534e+003;5.542667e-002
3.037463e+003;5.573313e-002
3.039392e+003;5.566962e-002
3.041320e+003;5.587800e-002
3.043249e+003;5.609835e-002
3.045177e+003;5.652525e-002
3.047106e+003;5.698195e-002
3.049034e+003;5.723639e-002
3.050963e+003;5.743558e-002
3.052891e+003;5.798824e-002
3.054820e+003;5.893291e-002
3.056749e+003;5.934950e-002
3.058677e+003;5.929932e-002
3.060606e+003;5.924619e-002
3.062534e+003;5.936830e-002
3.064463e+003;5.995815e-002
3.066391e+003;6.061117e-002
3.068320e+003;6.105354e-002
3.070248e+003;6.150992e-002
3.072177e+003;6.196032e-002
3.074105e+003;6.254514e-002
3.076034e+003;6.302917e-002
3.077963e+003;6.356759e-002
3.079891e+003;6.375144e-002
3.081820e+003;6.404974e-002
3.083748e+003;6.492763e-002
3.085677e+003;6.572036e-002
3.087605e+003;6.606323e-002
3.089534e+003;6.655306e-002
3.091462e+003;6.713288e-002
3.093391e+003;6.758888e-002
3.095320e+003;6.795875e-002
3.097248e+003;6.863479e-002
3.099177e+003;6.924289e-002
3.101105e+003;6.940427e-002
3.103034e+003;6.986717e-002
3.104962e+003;7.042241e-002
3.106891e+003;7.092503e-002
3.108819e+003;7.165759e-002
3.110748e+003;7.216449e-002
3.112677e+003;7.295606e-002
3.114605e+003;7.386378e-002
3.116533e+003;7.443493e-002
3.118462e+003;7.486386e-002
3.120391e+003;7.506968e-002
3.122319e+003;7.549968e-002
3.124248e+003;7.637130e-002
3.126176e+003;7.673726e-002
3.128105e+003;7.731038e-002
3.130033e+003;7.840738e-002
3.131962e+003;7.909624e-002
3.133890e+003;7.909929e-002
3.135819e+003;7.947588e-002
3.137748e+003;8.041796e-002
3.139676e+003;8.113122e-002
3.141605e+003;8.195841e-002
3.143533e+003;8.257617e-002
3.145462e+003;8.315324e-002
3.147390e+003;8.395341e-002
3.149319e+003;8.455297e-002
3.151247e+003;8.536077e-002
3.153176e+003;8.596025e-002
3.155104e+003;8.662891e-002
3.157033e+003;8.743844e-002
3.158962e+003;8.770841e-002
3.160890e+003;8.852446e-002
3.162819e+003;8.963972e-002
3.164747e+003;8.993573e-002
3.166676e+003;9.031270e-002
3.168604e+003;9.083504e-002
3.170533e+003;9.132906e-002
3.172461e+003;9.218534e-002
3.174390e+003;9.333305e-002
3.176319e+003;9.448480e-002
3.178247e+003;9.566893e-002
3.180176e+003;9.639459e-002
3.182104e+003;9.666311e-002
3.184033e+003;9.654855e-002
3.185961e+003;9.698341e-002
3.187890e+003;9.837198e-002
3.189818e+003;9.960683e-002
3.191747e+003;1.005596e-001
3.193676e+003;1.013070e-001
3.195604e+003;1.020532e-001
3.197532e+003;1.028114e-001
3.199461e+003;1.032773e-001
3.201390e+003;1.037562e-001
3.203318e+003;1.050222e-001
3.205247e+003;1.061063e-001
3.207175e+003;1.065870e-001
3.209104e+003;1.075376e-001
3.211032e+003;1.086081e-001
3.212961e+003;1.091435e-001
3.214889e+003;1.095578e-001
3.216818e+003;1.102569e-001
3.218747e+003;1.114222e-001
3.220675e+003;1.125866e-001
3.222604e+003;1.129832e-001
3.224532e+003;1.136803e-001
3.226461e+003;1.151625e-001
3.228389e+003;1.163969e-001
3.230318e+003;1.174125e-001
3.232246e+003;1.182172e-001
3.234175e+003;1.187071e-001
3.236104e+003;1.190531e-001
3.238032e+003;1.196302e-001
3.239961e+003;1.205239e-001
3.241889e+003;1.219708e-001
3.243818e+003;1.232075e-001
3.245746e+003;1.242354e-001
3.247675e+003;1.253822e-001
3.249603e+003;1.265314e-001
3.251532e+003;1.276502e-001
3.253460e+003;1.290072e-001
3.255389e+003;1.300115e-001
3.257318e+003;1.305632e-001
3.259246e+003;1.316316e-001
3.261175e+003;1.328437e-001
3.263103e+003;1.338927e-001
3.265032e+003;1.349009e-001
3.266960e+003;1.355957e-001
3.268889e+003;1.362651e-001
3.270817e+003;1.370077e-001
3.272746e+003;1.369957e-001
3.274675e+003;1.370784e-001
3.276603e+003;1.376380e-001
3.278531e+003;1.386342e-001
3.280460e+003;1.390406e-001
3.282389e+003;1.382414e-001
3.284317e+003;1.389883e-001
3.286246e+003;1.405253e-001
3.288174e+003;1.408346e-001
3.290103e+003;1.407098e-001
3.292031e+003;1.412780e-001
3.293960e+003;1.421444e-001
3.295888e+003;1.421543e-001
3.297817e+003;1.420554e-001
3.299746e+003;1.422506e-001
3.301674e+003;1.423625e-001
3.303603e+003;1.427647e-001
3.305531e+003;1.430743e-001
3.307460e+003;1.433253e-001
3.309388e+003;1.433167e-001
3.311317e+003;1.434539e-001
3.313245e+003;1.438006e-001
3.315174e+003;1.445026e-001
3.317103e+003;1.448776e-001
3.319031e+003;1.449734e-001
3.320960e+003;1.453715e-001
3.322888e+003;1.455239e-001
3.324817e+003;1.456902e-001
3.326745e+003;1.463211e-001
3.328674e+003;1.465029e-001
3.330602e+003;1.466553e-001
3.332531e+003;1.469619e-001
3.334459e+003;1.467059e-001
3.336388e+003;1.461125e-001
3.338317e+003;1.458329e-001
3.340245e+003;1.459695e-001
3.342174e+003;1.452803e-001
3.344102e+003;1.442288e-001
3.346031e+003;1.439013e-001
3.347959e+003;1.433415e-001
3.349888e+003;1.425238e-001
3.351816e+003;1.419501e-001
3.353745e+003;1.411133e-001
3.355674e+003;1.406462e-001
3.357602e+003;1.399067e-001
3.359531e+003;1.388681e-001
3.361459e+003;1.382434e-001
3.363388e+003;1.379257e-001
3.365316e+003;1.374762e-001
3.367245e+003;1.362897e-001
3.369173e+003;1.355056e-001
3.371102e+003;1.356196e-001
3.373031e+003;1.355274e-001
3.374959e+003;1.347746e-001
3.376887e+003;1.335488e-001
3.378816e+003;1.326927e-001
3.380745e+003;1.325021e-001
3.382673e+003;1.324089e-001
3.384602e+003;1.317137e-001
3.386530e+003;1.307874e-001
3.388459e+003;1.303997e-001
3.390387e+003;1.299946e-001
3.392316e+003;1.297705e-001
3.394244e+003;1.291891e-001
3.396173e+003;1.279712e-001
3.398102e+003;1.278237e-001
3.400030e+003;1.279842e-001
3.401959e+003;1.270254e-001
3.403887e+003;1.257441e-001
3.405816e+003;1.247761e-001
3.407744e+003;1.243413e-001
3.409673e+003;1.238623e-001
3.411601e+003;1.230562e-001
3.413530e+003;1.220927e-001
3.415458e+003;1.207761e-001
3.417387e+003;1.202799e-001
3.419316e+003;1.201855e-001
3.421244e+003;1.195246e-001
3.423173e+003;1.181194e-001
3.425101e+003;1.170532e-001
3.427030e+003;1.163163e-001
3.428958e+003;1.158248e-001
3.430887e+003;1.155791e-001
3.432815e+003;1.149768e-001
3.434744e+003;1.140096e-001
3.436673e+003;1.135703e-001
3.438601e+003;1.130277e-001
3.440530e+003;1.117610e-001
3.442458e+003;1.104988e-001
3.444387e+003;1.094423e-001
3.446315e+003;1.091351e-001
3.448244e+003;1.087721e-001
3.450172e+003;1.076429e-001
3.452101e+003;1.063004e-001
3.454030e+003;1.055116e-001
3.455958e+003;1.048035e-001
3.457886e+003;1.040009e-001
3.459815e+003;1.034100e-001
3.461744e+003;1.026765e-001
3.463672e+003;1.019809e-001
3.465601e+003;1.007841e-001
3.467529e+003;9.966721e-002
3.469458e+003;9.898718e-002
3.471386e+003;9.776663e-002
3.473315e+003;9.648433e-002
3.475243e+003;9.572940e-002
3.477172e+003;9.501660e-002
3.479101e+003;9.451474e-002
3.481029e+003;9.363928e-002
3.482958e+003;9.223446e-002
3.484886e+003;9.124099e-002
3.486815e+003;9.067877e-002
3.488743e+003;9.041183e-002
3.490672e+003;8.989595e-002
3.492600e+003;8.863481e-002
3.494529e+003;8.725466e-002
3.496458e+003;8.632691e-002
3.498386e+003;8.563187e-002
3.500315e+003;8.435500e-002
3.502243e+003;8.322154e-002
3.504172e+003;8.237224e-002
3.506100e+003;8.194664e-002
3.508029e+003;8.144894e-002
3.509957e+003;8.037594e-002
3.511886e+003;7.955384e-002
3.513814e+003;7.904781e-002
3.515743e+003;7.790104e-002
3.517672e+003;7.640322e-002
3.519600e+003;7.539301e-002
3.521529e+003;7.427406e-002
3.523457e+003;7.347036e-002
3.525386e+003;7.285307e-002
3.527314e+003;7.179579e-002
3.529243e+003;7.107908e-002
3.531171e+003;7.061320e-002
3.533100e+003;7.003965e-002
3.535029e+003;6.926232e-002
3.536957e+003;6.806806e-002
3.538885e+003;6.679755e-002
3.540814e+003;6.584034e-002
3.542743e+003;6.466798e-002
3.544671e+003;6.319263e-002
3.546600e+003;6.238296e-002
3.548528e+003;6.175236e-002
3.550457e+003;6.047096e-002
3.552385e+003;5.968690e-002
3.554314e+003;5.942103e-002
3.556242e+003;5.879582e-002
3.558171e+003;5.765642e-002
3.560100e+003;5.645577e-002
3.562028e+003;5.532674e-002
3.563957e+003;5.387908e-002
3.565885e+003;5.220574e-002
3.567814e+003;5.140672e-002
3.569742e+003;5.193130e-002
3.571671e+003;5.203381e-002
3.573599e+003;5.121151e-002
3.575528e+003;4.993529e-002
3.577457e+003;4.862163e-002
3.579385e+003;4.801373e-002
3.581314e+003;4.746829e-002
3.583242e+003;4.593608e-002
3.585171e+003;4.390931e-002
3.587099e+003;4.257181e-002
3.589028e+003;4.248969e-002
3.590956e+003;4.264026e-002
3.592885e+003;4.169838e-002
3.594813e+003;4.035420e-002
3.596742e+003;3.941265e-002
3.598671e+003;3.863670e-002
3.600599e+003;3.772998e-002
3.602528e+003;3.774321e-002
3.604456e+003;3.726737e-002
3.606385e+003;3.577006e-002
3.608313e+003;3.473669e-002
3.610242e+003;3.408088e-002
3.612170e+003;3.333782e-002
3.614099e+003;3.311323e-002
3.616028e+003;3.206143e-002
3.617956e+003;3.023527e-002
3.619885e+003;2.989346e-002
3.621813e+003;3.093624e-002
3.623742e+003;3.104339e-002
3.625670e+003;2.933807e-002
3.627599e+003;2.618980e-002
3.629527e+003;2.592368e-002
3.631456e+003;2.785540e-002
3.633385e+003;2.797388e-002
3.635313e+003;2.768540e-002
3.637241e+003;2.723670e-002
3.639170e+003;2.632684e-002
3.641099e+003;2.578991e-002
3.643027e+003;2.581667e-002
3.644956e+003;2.459396e-002
3.646884e+003;2.160074e-002
3.648813e+003;1.985090e-002
3.650741e+003;2.085494e-002
3.652670e+003;2.298265e-002
3.654598e+003;2.263980e-002
3.656527e+003;2.186311e-002
3.658456e+003;2.237399e-002
3.660384e+003;2.234023e-002
3.662313e+003;2.214597e-002
3.664241e+003;2.205909e-002
3.666170e+003;2.062368e-002
3.668098e+003;1.829051e-002
3.670027e+003;1.779925e-002
3.671955e+003;1.926961e-002
3.673884e+003;1.779718e-002
3.675813e+003;1.673337e-002
3.677741e+003;1.874981e-002
3.679669e+003;1.989724e-002
3.681598e+003;2.084009e-002
3.683527e+003;2.075174e-002
3.685455e+003;1.913458e-002
3.687384e+003;1.605280e-002
3.689312e+003;1.592403e-002
3.691241e+003;1.828498e-002
3.693169e+003;1.941909e-002
3.695098e+003;1.940707e-002
3.697026e+003;1.925347e-002
3.698955e+003;1.902091e-002
3.700884e+003;1.808365e-002
3.702812e+003;1.861857e-002
3.704741e+003;1.941455e-002
3.706669e+003;1.942685e-002
3.708598e+003;1.844972e-002
3.710526e+003;1.689345e-002
3.712455e+003;1.711174e-002
3.714383e+003;1.849480e-002
3.716312e+003;1.890313e-002
3.718240e+003;1.914659e-002
3.720169e+003;1.873074e-002
3.722098e+003;1.775427e-002
3.724026e+003;1.711163e-002
3.725955e+003;1.731379e-002
3.727883e+003;1.829096e-002
3.729812e+003;1.758207e-002
3.731740e+003;1.580268e-002
3.733669e+003;1.508788e-002
3.735597e+003;1.441228e-002
3.737526e+003;1.603252e-002
3.739455e+003;1.732593e-002
3.741383e+003;1.545617e-002
3.743312e+003;1.174268e-002
3.745240e+003;1.305860e-002
3.747169e+003;1.438091e-002
3.749097e+003;1.215652e-002
3.751026e+003;1.221221e-002
3.752954e+003;1.467432e-002
3.754883e+003;1.667693e-002
3.756812e+003;1.666595e-002
3.758740e+003;1.646117e-002
3.760668e+003;1.673857e-002
3.762597e+003;1.737676e-002
3.764526e+003;1.766527e-002
3.766454e+003;1.773940e-002
3.768383e+003;1.702203e-002
3.770311e+003;1.736183e-002
3.772240e+003;1.828450e-002
3.774168e+003;1.850749e-002
3.776097e+003;1.775500e-002
3.778025e+003;1.676119e-002
3.779954e+003;1.705973e-002
3.781883e+003;1.837132e-002
3.783811e+003;1.902773e-002
3.785740e+003;1.912339e-002
3.787668e+003;1.854850e-002
3.789597e+003;1.828688e-002
3.791525e+003;1.878530e-002
3.793454e+003;1.876555e-002
3.795382e+003;1.795735e-002
3.797311e+003;1.754947e-002
3.799240e+003;1.553031e-002
3.801168e+003;1.430523e-002
3.803097e+003;1.664533e-002
3.805025e+003;1.650591e-002
3.806954e+003;1.533990e-002
3.808882e+003;1.710919e-002
3.810811e+003;1.863939e-002
3.812739e+003;1.855576e-002
3.814668e+003;1.631628e-002
3.816596e+003;1.580828e-002
3.818525e+003;1.621068e-002
3.820454e+003;1.488824e-002
3.822382e+003;1.606896e-002
3.824311e+003;1.774143e-002
3.826239e+003;1.802200e-002
3.828168e+003;1.799768e-002
3.830096e+003;1.693083e-002
3.832025e+003;1.598249e-002
3.833953e+003;1.524489e-002
3.835882e+003;1.424794e-002
3.837811e+003;1.427027e-002
3.839739e+003;1.587030e-002
3.841667e+003;1.670169e-002
3.843596e+003;1.732689e-002
3.845525e+003;1.814373e-002
3.847453e+003;1.844550e-002
3.849382e+003;1.681743e-002
3.851310e+003;1.332693e-002
3.853239e+003;1.107576e-002
3.855167e+003;1.434094e-002
3.857096e+003;1.741528e-002
3.859024e+003;1.745384e-002
3.860953e+003;1.726841e-002
3.862882e+003;1.672789e-002
3.864810e+003;1.664811e-002
3.866739e+003;1.718006e-002
3.868667e+003;1.632343e-002
3.870596e+003;1.720991e-002
3.872524e+003;1.859526e-002
3.874453e+003;1.802138e-002
3.876381e+003;1.792841e-002
3.878310e+003;1.786377e-002
3.880239e+003;1.820450e-002
3.882167e+003;1.873206e-002
3.884096e+003;1.824033e-002
3.886024e+003;1.822012e-002
3.887953e+003;1.882301e-002
3.889881e+003;1.838117e-002
3.891810e+003;1.817050e-002
3.893738e+003;1.902721e-002
3.895667e+003;1.934696e-002
3.897595e+003;1.804700e-002
3.899524e+003;1.719084e-002
3.901453e+003;1.730244e-002
3.903381e+003;1.781530e-002
3.905310e+003;1.912512e-002
3.907238e+003;2.002980e-002
3.909167e+003;1.974343e-002
3.911095e+003;1.911235e-002
3.913024e+003;1.924758e-002
3.914952e+003;1.921838e-002
3.916881e+003;1.913517e-002
3.918810e+003;1.939425e-002
3.920738e+003;2.018364e-002
3.922667e+003;2.014463e-002
3.924595e+003;1.973715e-002
3.926524e+003;2.031292e-002
3.928452e+003;2.032678e-002
3.930381e+003;2.000825e-002
3.932309e+003;1.978025e-002
3.934238e+003;1.934530e-002
3.936167e+003;1.990615e-002
3.938095e+003;2.089808e-002
3.940023e+003;2.039445e-002
3.941952e+003;1.951002e-002
3.943881e+003;1.963938e-002
3.945809e+003;1.958301e-002
3.947738e+003;1.977932e-002
3.949666e+003;2.085087e-002
3.951595e+003;2.111348e-002
3.953523e+003;2.102754e-002
3.955452e+003;2.091404e-002
3.957380e+003;2.057518e-002
3.959309e+003;2.043648e-002
3.961238e+003;1.987861e-002
3.963166e+003;2.008015e-002
3.965095e+003;2.105390e-002
3.967023e+003;2.122690e-002
3.968952e+003;2.093066e-002
3.970880e+003;2.016646e-002
3.972809e+003;1.983716e-002
3.974737e+003;1.987237e-002
3.976666e+003;2.019111e-002
3.978594e+003;2.031258e-002
3.980523e+003;2.077061e-002
3.982452e+003;2.060714e-002
3.984380e+003;1.987122e-002
3.986309e+003;2.000974e-002
3.988237e+003;2.072337e-002
3.990166e+003;2.095848e-002
3.992094e+003;2.041633e-002
3.994023e+003;2.019739e-002
3.995951e+003;2.019478e-002
3.997880e+003;2.014983e-002
3.999809e+003;2.050403e-002
4.001737e+003;0.000000e+000
