3.992094e+002;0.000000e+000
4.011380e+002;0.000000e+000
4.030665e+002;0.000000e+000
4.049951e+002;0.000000e+000
4.069236e+002;0.000000e+000
4.088522e+002;0.000000e+000
4.107807e+002;0.000000e+000
4.127093e+002;0.000000e+000
4.146378e+002;0.000000e+000
4.165664e+002;0.000000e+000
4.184949e+002;0.000000e+000
4.204235e+002;0.000000e+000
4.223520e+002;0.000000e+000
4.242806e+002;0.000000e+000
4.262091e+002;0.000000e+000
4.281377e+002;0.000000e+000
4.300662e+002;0.000000e+000
4.319948e+002;0.000000e+000
4.339233e+002;0.000000e+000
4.358519e+002;0.000000e+000
4.377804e+002;0.000000e+000
4.397090e+002;0.000000e+000
4.416375e+002;0.000000e+000
4.435660e+002;0.000000e+000
4.454946e+002;0.000000e+000
4.474232e+002;0.000000e+000
4.493517e+002;0.000000e+000
4.512802e+002;0.000000e+000
4.532088e+002;0.000000e+000
4.551373e+002;0.000000e+000
4.570659e+002;0.000000e+000
4.589944e+002;0.000000e+000
4.609230e+002;0.000000e+000
4.628515e+002;0.000000e+000
4.647801e+002;0.000000e+000
4.667086e+002;0.000000e+000
4.686372e+002;0.000000e+000
4.705657e+002;0.000000e+000
4.724943e+002;0.000000e+000
4.744228e+002;0.000000e+000
4.763513e+002;0.000000e+000
4.782799e+002;0.000000e+000
4.802085e+002;0.000000e+000
4.821370e+002;0.000000e+000
4.840656e+002;0.000000e+000
4.859941e+002;0.000000e+000
4.879226e+002;0.000000e+000
4.898512e+002;0.000000e+000
4.917798e+002;0.000000e+000
4.937083e+002;0.000000e+000
4.956368e+002;0.000000e+000
4.975654e+002;0.000000e+000
4.994939e+002;0.000000e+000
5.014225e+002;0.000000e+000
5.033510e+002;0.000000e+000
5.052796e+002;0.000000e+000
5.072081e+002;0.000000e+000
5.091367e+002;0.000000e+000
5.110652e+002;0.000000e+000
5.129938e+002;0.000000e+000
5.149223e+002;0.000000e+000
5.168509e+002;0.000000e+000
5.187794e+002;0.000000e+000
5.207079e+002;0.000000e+000
5.226365e+002;0.000000e+000
5.245651e+002;0.000000e+000
5.264936e+002;0.000000e+000
5.284222e+002;0.000000e+000
5.303507e+002;0.000000e+000
5.322792e+002;0.000000e+000
5.342078e+002;0.000000e+000
5.361364e+002;0.000000e+000
5.380649e+002;0.000000e+000
5.399935e+002;0.000000e+000
5.419220e+002;0.000000e+000
5.438505e+002;0.000000e+000
5.457791e+002;0.000000e+000
5.477076e+002;0.000000e+000
5.496362e+002;0.000000e+000
5.515648e+002;0.000000e+000
5.534933e+002;0.000000e+000
5.554218e+002;0.000000e+000
5.573504e+002;0.000000e+000
5.592789e+002;0.000000e+000
5.612075e+002;0.000000e+000
5.631360e+002;0.000000e+000
5.650646e+002;0.000000e+000
5.669931e+002;0.000000e+000
5.689217e+002;0.000000e+000
5.708502e+002;0.000000e+000
5.727787e+002;0.000000e+000
5.747073e+002;0.000000e+000
5.766359e+002;0.000000e+000
5.785644e+002;0.000000e+000
5.804930e+002;0.000000e+000
5.824215e+002;0.000000e+000
5.843500e+002;0.000000e+000
5.862786e+002;0.000000e+000
5.882072e+002;0.000000e+000
5.901357e+002;0.000000e+000
5.920643e+002;0.000000e+000
5.939928e+002;0.000000e+000
5.959213e+002;0.000000e+000
5.978499e+002;0.000000e+000
5.997784e+002;1.818709e-001
6.017070e+002;1.802209e-001
6.036355e+002;1.872042e-001
6.055641e+002;1.917573e-001
6.074926e+002;1.939774e-001
6.094211e+002;1.939962e-001
6.113497e+002;1.940919e-001
6.132783e+002;1.971773e-001
6.152068e+002;1.949597e-001
6.171354e+002;1.918176e-001
6.190639e+002;1.924468e-001
6.209924e+002;1.901186e-001
6.229210e+002;1.880923e-001
6.248495e+002;1.848297e-001
6.267781e+002;1.806129e-001
6.287067e+002;1.810720e-001
6.306352e+002;1.828680e-001
6.325637e+002;1.801966e-001
6.344923e+002;1.775248e-001
6.364208e+002;1.736611e-001
6.383494e+002;1.717636e-001
6.402780e+002;1.737754e-001
6.422065e+002;1.780339e-001
6.441350e+002;1.783670e-001
6.460636e+002;1.748764e-001
6.479921e+002;1.691871e-001
6.499207e+002;1.698187e-001
6.518492e+002;1.728992e-001
6.537778e+002;1.727223e-001
6.557063e+002;1.745736e-001
6.576349e+002;1.776005e-001
6.595634e+002;1.822726e-001
6.614919e+002;1.845239e-001
6.634205e+002;1.834602e-001
6.653491e+002;1.821265e-001
6.672776e+002;1.798160e-001
6.692062e+002;1.782414e-001
6.711347e+002;1.762129e-001
6.730632e+002;1.731129e-001
6.749918e+002;1.693566e-001
6.769203e+002;1.660743e-001
6.788489e+002;1.635099e-001
6.807775e+002;1.597556e-001
6.827060e+002;1.568670e-001
6.846345e+002;1.555397e-001
6.865631e+002;1.549965e-001
6.884916e+002;1.536352e-001
6.904202e+002;1.523004e-001
6.923488e+002;1.520550e-001
6.942773e+002;1.526203e-001
6.962058e+002;1.530767e-001
6.981344e+002;1.532762e-001
7.000629e+002;1.530387e-001
7.019915e+002;1.519063e-001
7.039200e+002;1.516101e-001
7.058486e+002;1.512744e-001
7.077771e+002;1.489632e-001
7.097057e+002;1.463519e-001
7.116342e+002;1.444128e-001
7.135627e+002;1.420014e-001
7.154913e+002;1.396723e-001
7.174199e+002;1.377001e-001
7.193484e+002;1.344839e-001
7.212770e+002;1.315897e-001
7.232055e+002;1.295128e-001
7.251340e+002;1.271988e-001
7.270626e+002;1.238311e-001
7.289911e+002;1.212408e-001
7.309197e+002;1.197093e-001
7.328483e+002;1.176826e-001
7.347768e+002;1.155129e-001
7.367053e+002;1.143959e-001
7.386339e+002;1.138419e-001
7.405624e+002;1.130819e-001
7.424910e+002;1.105534e-001
7.444196e+002;1.090973e-001
7.463481e+002;1.087579e-001
7.482766e+002;1.075232e-001
7.502052e+002;1.064142e-001
7.521337e+002;1.047570e-001
7.540623e+002;1.038689e-001
7.559908e+002;1.041196e-001
7.579194e+002;1.037757e-001
7.598479e+002;1.025611e-001
7.617765e+002;1.011374e-001
7.637050e+002;1.000992e-001
7.656335e+002;9.888132e-002
7.675621e+002;9.843603e-002
7.694907e+002;9.762850e-002
7.714192e+002;9.619201e-002
7.733478e+002;9.540074e-002
7.752763e+002;9.428740e-002
7.772048e+002;9.341522e-002
7.791334e+002;9.321674e-002
7.810620e+002;9.308317e-002
7.829905e+002;9.289026e-002
7.849191e+002;9.327317e-002
7.868476e+002;9.419218e-002
7.887761e+002;9.500019e-002
7.907047e+002;9.566856e-002
7.926332e+002;9.610874e-002
7.945618e+002;9.718063e-002
7.964903e+002;9.807113e-002
7.984189e+002;9.803513e-002
8.003474e+002;9.831194e-002
8.022759e+002;9.880988e-002
8.042045e+002;9.909289e-002
8.061331e+002;9.860369e-002
8.080616e+002;9.763423e-002
8.099902e+002;9.645156e-002
8.119187e+002;9.560344e-002
8.138472e+002;9.610043e-002
8.157758e+002;9.594300e-002
8.177043e+002;9.482534e-002
8.196329e+002;9.476373e-002
8.215615e+002;9.521908e-002
8.234900e+002;9.462811e-002
8.254185e+002;9.333888e-002
8.273471e+002;9.208690e-002
8.292756e+002;9.051867e-002
8.312042e+002;8.835147e-002
8.331328e+002;8.696797e-002
8.350613e+002;8.608874e-002
8.369898e+002;8.499077e-002
8.389184e+002;8.411006e-002
8.408469e+002;8.340326e-002
8.427755e+002;8.316628e-002
8.447040e+002;8.326336e-002
8.466326e+002;8.292378e-002
8.485611e+002;8.242200e-002
8.504897e+002;8.260778e-002
8.524182e+002;8.276407e-002
8.543467e+002;8.254992e-002
8.562753e+002;8.252308e-002
8.582039e+002;8.268230e-002
8.601324e+002;8.288925e-002
8.620610e+002;8.336030e-002
8.639895e+002;8.382350e-002
8.659180e+002;8.380285e-002
8.678466e+002;8.385617e-002
8.697751e+002;8.436936e-002
8.717037e+002;8.533326e-002
8.736323e+002;8.701618e-002
8.755608e+002;8.879662e-002
8.774893e+002;9.052793e-002
8.794179e+002;9.250071e-002
8.813464e+002;9.461872e-002
8.832750e+002;9.691295e-002
8.852036e+002;1.000059e-001
8.871321e+002;1.034023e-001
8.890606e+002;1.065164e-001
8.909892e+002;1.092641e-001
8.929177e+002;1.115456e-001
8.948463e+002;1.130522e-001
8.967748e+002;1.141473e-001
8.987034e+002;1.146837e-001
9.006319e+002;1.142372e-001
9.025605e+002;1.131833e-001
9.044890e+002;1.124560e-001
9.064175e+002;1.112027e-001
9.083461e+002;1.087333e-001
9.102747e+002;1.061552e-001
9.122032e+002;1.038716e-001
9.141318e+002;1.018144e-001
9.160603e+002;9.990583e-002
9.179888e+002;9.851854e-002
9.199174e+002;9.783710e-002
9.218459e+002;9.785237e-002
9.237745e+002;9.812471e-002
9.257031e+002;9.859932e-002
9.276316e+002;9.950769e-002
9.295601e+002;1.006579e-001
9.314887e+002;1.018382e-001
9.334172e+002;1.031319e-001
9.353458e+002;1.043717e-001
9.372744e+002;1.053668e-001
9.392029e+002;1.063830e-001
9.411314e+002;1.078512e-001
9.430600e+002;1.096754e-001
9.449885e+002;1.116420e-001
9.469171e+002;1.138400e-001
9.488456e+002;1.167780e-001
9.507742e+002;1.202038e-001
9.527027e+002;1.240251e-001
9.546313e+002;1.285240e-001
9.565598e+002;1.328282e-001
9.584883e+002;1.375984e-001
9.604169e+002;1.432719e-001
9.623455e+002;1.493990e-001
9.642740e+002;1.557026e-001
9.662026e+002;1.620461e-001
9.681311e+002;1.686263e-001
9.700596e+002;1.763055e-001
9.719882e+002;1.854022e-001
9.739167e+002;1.956891e-001
9.758453e+002;2.080691e-001
9.777739e+002;2.218533e-001
9.797024e+002;2.366806e-001
9.816309e+002;2.514414e-001
9.835595e+002;2.630721e-001
9.854880e+002;2.705418e-001
9.874166e+002;2.744880e-001
9.893452e+002;2.772530e-001
9.912737e+002;2.807066e-001
9.932022e+002;2.848349e-001
9.951307e+002;2.891055e-001
9.970593e+002;2.932065e-001
9.989879e+002;2.971461e-001
1.000916e+003;2.999294e-001
1.002845e+003;3.015614e-001
1.004773e+003;3.025994e-001
1.006702e+003;3.039511e-001
1.008631e+003;3.052753e-001
1.010559e+003;3.070769e-001
1.012488e+003;3.098638e-001
1.014416e+003;3.126832e-001
1.016345e+003;3.152231e-001
1.018273e+003;3.180615e-001
1.020202e+003;3.207427e-001
1.022130e+003;3.232676e-001
1.024059e+003;3.258815e-001
1.025988e+003;3.285486e-001
1.027916e+003;3.307071e-001
1.029845e+003;3.317252e-001
1.031773e+003;3.318463e-001
1.033702e+003;3.301664e-001
1.035630e+003;3.261965e-001
1.037559e+003;3.217116e-001
1.039487e+003;3.165502e-001
1.041416e+003;3.115922e-001
1.043344e+003;3.084675e-001
1.045273e+003;3.076744e-001
1.047202e+003;3.088627e-001
1.049130e+003;3.110724e-001
1.051059e+003;3.135422e-001
1.052987e+003;3.149250e-001
1.054916e+003;3.146425e-001
1.056844e+003;3.131213e-001
1.058773e+003;3.091568e-001
1.060701e+003;3.020269e-001
1.062630e+003;2.913704e-001
1.064558e+003;2.797580e-001
1.066487e+003;2.683501e-001
1.068416e+003;2.579258e-001
1.070344e+003;2.495171e-001
1.072273e+003;2.426669e-001
1.074201e+003;2.372860e-001
1.076130e+003;2.323908e-001
1.078058e+003;2.278306e-001
1.079987e+003;2.239688e-001
1.081915e+003;2.207689e-001
1.083844e+003;2.185620e-001
1.085773e+003;2.169492e-001
1.087701e+003;2.155347e-001
1.089630e+003;2.141881e-001
1.091558e+003;2.142877e-001
1.093487e+003;2.149807e-001
1.095415e+003;2.154942e-001
1.097344e+003;2.164817e-001
1.099272e+003;2.176320e-001
1.101201e+003;2.179634e-001
1.103129e+003;2.176739e-001
1.105058e+003;2.167723e-001
1.106987e+003;2.153531e-001
1.108915e+003;2.131283e-001
1.110844e+003;2.101858e-001
1.112772e+003;2.066391e-001
1.114701e+003;2.010510e-001
1.116629e+003;1.938068e-001
1.118558e+003;1.862770e-001
1.120486e+003;1.797293e-001
1.122415e+003;1.737418e-001
1.124344e+003;1.674388e-001
1.126272e+003;1.607373e-001
1.128201e+003;1.544737e-001
1.130129e+003;1.490214e-001
1.132058e+003;1.442150e-001
1.133986e+003;1.400353e-001
1.135915e+003;1.370874e-001
1.137843e+003;1.350594e-001
1.139772e+003;1.339704e-001
1.141700e+003;1.341364e-001
1.143629e+003;1.356938e-001
1.145557e+003;1.380663e-001
1.147486e+003;1.405385e-001
1.149415e+003;1.428207e-001
1.151343e+003;1.451649e-001
1.153272e+003;1.475912e-001
1.155200e+003;1.499661e-001
1.157129e+003;1.520960e-001
1.159057e+003;1.533742e-001
1.160986e+003;1.532060e-001
1.162914e+003;1.518826e-001
1.164843e+003;1.489834e-001
1.166771e+003;1.438100e-001
1.168700e+003;1.374932e-001
1.170629e+003;1.308002e-001
1.172557e+003;1.244322e-001
1.174486e+003;1.189004e-001
1.176414e+003;1.140929e-001
1.178343e+003;1.103049e-001
1.180271e+003;1.070268e-001
1.182200e+003;1.045335e-001
1.184128e+003;1.028302e-001
1.186057e+003;1.017210e-001
1.187986e+003;1.012062e-001
1.189914e+003;1.013386e-001
1.191843e+003;1.022103e-001
1.193771e+003;1.036237e-001
1.195700e+003;1.052941e-001
1.197628e+003;1.067146e-001
1.199557e+003;1.076717e-001
1.201485e+003;1.083287e-001
1.203414e+003;1.086982e-001
1.205343e+003;1.084651e-001
1.207271e+003;1.073476e-001
1.209200e+003;1.048717e-001
1.211128e+003;1.016890e-001
1.213057e+003;9.910018e-002
1.214985e+003;9.784241e-002
1.216914e+003;9.739076e-002
1.218842e+003;9.765754e-002
1.220771e+003;9.869014e-002
1.222699e+003;1.002240e-001
1.224628e+003;1.019658e-001
1.226557e+003;1.038147e-001
1.228485e+003;1.056676e-001
1.230414e+003;1.073424e-001
1.232342e+003;1.087857e-001
1.234271e+003;1.099540e-001
1.236199e+003;1.106488e-001
1.238128e+003;1.108730e-001
1.240056e+003;1.111326e-001
1.241985e+003;1.116152e-001
1.243913e+003;1.124673e-001
1.245842e+003;1.138617e-001
1.247771e+003;1.152050e-001
1.249699e+003;1.160289e-001
1.251628e+003;1.168084e-001
1.253556e+003;1.179147e-001
1.255485e+003;1.192832e-001
1.257413e+003;1.207169e-001
1.259342e+003;1.218438e-001
1.261270e+003;1.218389e-001
1.263199e+003;1.209427e-001
1.265127e+003;1.196349e-001
1.267056e+003;1.176056e-001
1.268985e+003;1.154336e-001
1.270913e+003;1.140397e-001
1.272842e+003;1.133184e-001
1.274770e+003;1.129037e-001
1.276699e+003;1.124215e-001
1.278627e+003;1.117453e-001
1.280556e+003;1.110778e-001
1.282484e+003;1.097680e-001
1.284413e+003;1.082212e-001
1.286342e+003;1.074957e-001
1.288270e+003;1.072781e-001
1.290199e+003;1.072670e-001
1.292127e+003;1.075427e-001
1.294056e+003;1.078886e-001
1.295984e+003;1.084336e-001
1.297913e+003;1.090318e-001
1.299841e+003;1.101716e-001
1.301770e+003;1.124514e-001
1.303698e+003;1.150053e-001
1.305627e+003;1.179255e-001
1.307556e+003;1.211765e-001
1.309484e+003;1.242770e-001
1.311413e+003;1.271476e-001
1.313341e+003;1.295076e-001
1.315270e+003;1.306607e-001
1.317198e+003;1.303184e-001
1.319127e+003;1.286670e-001
1.321055e+003;1.262350e-001
1.322984e+003;1.236491e-001
1.324912e+003;1.212700e-001
1.326841e+003;1.196442e-001
1.328770e+003;1.188427e-001
1.330698e+003;1.189967e-001
1.332627e+003;1.199204e-001
1.334555e+003;1.208141e-001
1.336484e+003;1.208614e-001
1.338412e+003;1.198911e-001
1.340341e+003;1.184732e-001
1.342269e+003;1.168162e-001
1.344198e+003;1.145756e-001
1.346126e+003;1.124234e-001
1.348055e+003;1.109940e-001
1.349984e+003;1.102359e-001
1.351912e+003;1.101040e-001
1.353841e+003;1.105215e-001
1.355769e+003;1.112855e-001
1.357698e+003;1.121228e-001
1.359626e+003;1.127657e-001
1.361555e+003;1.126179e-001
1.363483e+003;1.119062e-001
1.365412e+003;1.114133e-001
1.367341e+003;1.110140e-001
1.369269e+003;1.103822e-001
1.371198e+003;1.094116e-001
1.373126e+003;1.079332e-001
1.375055e+003;1.058481e-001
1.376983e+003;1.036258e-001
1.378912e+003;1.013786e-001
1.380840e+003;9.908024e-002
1.382769e+003;9.658302e-002
1.384698e+003;9.433021e-002
1.386626e+003;9.223655e-002
1.388555e+003;9.068448e-002
1.390483e+003;8.960298e-002
1.392412e+003;8.870167e-002
1.394340e+003;8.827124e-002
1.396269e+003;8.815151e-002
1.398197e+003;8.788918e-002
1.400126e+003;8.796273e-002
1.402054e+003;8.814710e-002
1.403983e+003;8.814526e-002
1.405911e+003;8.804636e-002
1.407840e+003;8.806507e-002
1.409769e+003;8.806438e-002
1.411697e+003;8.827566e-002
1.413626e+003;8.867375e-002
1.415554e+003;8.907830e-002
1.417483e+003;8.938869e-002
1.419411e+003;9.027819e-002
1.421340e+003;9.221525e-002
1.423268e+003;9.399869e-002
1.425197e+003;9.522721e-002
1.427125e+003;9.588870e-002
1.429054e+003;9.605025e-002
1.430983e+003;9.584271e-002
1.432911e+003;9.518513e-002
1.434840e+003;9.364116e-002
1.436768e+003;9.204971e-002
1.438697e+003;9.170782e-002
1.440625e+003;9.130899e-002
1.442554e+003;9.074719e-002
1.444482e+003;9.022630e-002
1.446411e+003;8.976445e-002
1.448340e+003;8.960034e-002
1.450268e+003;8.955786e-002
1.452197e+003;8.908851e-002
1.454125e+003;8.765753e-002
1.456054e+003;8.511441e-002
1.457982e+003;8.385107e-002
1.459911e+003;8.380040e-002
1.461839e+003;8.278392e-002
1.463768e+003;8.034696e-002
1.465697e+003;7.773004e-002
1.467625e+003;7.571768e-002
1.469554e+003;7.366072e-002
1.471482e+003;7.139588e-002
1.473411e+003;6.935762e-002
1.475339e+003;6.759821e-002
1.477268e+003;6.559280e-002
1.479196e+003;6.388181e-002
1.481125e+003;6.232030e-002
1.483053e+003;6.037861e-002
1.484982e+003;5.768181e-002
1.486911e+003;5.484207e-002
1.488839e+003;5.237231e-002
1.490768e+003;5.073383e-002
1.492696e+003;4.980324e-002
1.494625e+003;4.857779e-002
1.496553e+003;4.734552e-002
1.498482e+003;4.647890e-002
1.500410e+003;4.571607e-002
1.502339e+003;4.528919e-002
1.504267e+003;4.380715e-002
1.506196e+003;4.201322e-002
1.508125e+003;4.235061e-002
1.510053e+003;4.296350e-002
1.511982e+003;4.260616e-002
1.513910e+003;4.204122e-002
1.515839e+003;4.144041e-002
1.517767e+003;4.112216e-002
1.519696e+003;4.054357e-002
1.521624e+003;4.004489e-002
1.523553e+003;4.053437e-002
1.525481e+003;4.078864e-002
1.527410e+003;4.095839e-002
1.529339e+003;4.120198e-002
1.531267e+003;4.122802e-002
1.533196e+003;4.105591e-002
1.535124e+003;4.166928e-002
1.537053e+003;4.139277e-002
1.538981e+003;4.005136e-002
1.540910e+003;4.049258e-002
1.542838e+003;4.193103e-002
1.544767e+003;4.271447e-002
1.546695e+003;4.321667e-002
1.548624e+003;4.341901e-002
1.550553e+003;4.370007e-002
1.552481e+003;4.360177e-002
1.554410e+003;4.321934e-002
1.556338e+003;4.265993e-002
1.558267e+003;4.129306e-002
1.560195e+003;4.199585e-002
1.562124e+003;4.387093e-002
1.564052e+003;4.441088e-002
1.565981e+003;4.434445e-002
1.567910e+003;4.395488e-002
1.569838e+003;4.355126e-002
1.571767e+003;4.391180e-002
1.573695e+003;4.385524e-002
1.575624e+003;4.319984e-002
1.577552e+003;4.360097e-002
1.579481e+003;4.426927e-002
1.581409e+003;4.449945e-002
1.583338e+003;4.471366e-002
1.585266e+003;4.481982e-002
1.587195e+003;4.487338e-002
1.589124e+003;4.481254e-002
1.591052e+003;4.504437e-002
1.592981e+003;4.512840e-002
1.594909e+003;4.488161e-002
1.596838e+003;4.491729e-002
1.598766e+003;4.523002e-002
1.600695e+003;4.557963e-002
1.602623e+003;4.604088e-002
1.604552e+003;4.622957e-002
1.606480e+003;4.615093e-002
1.608409e+003;4.628320e-002
1.610338e+003;4.650951e-002
1.612266e+003;4.644619e-002
1.614195e+003;4.600069e-002
1.616123e+003;4.535440e-002
1.618052e+003;4.604243e-002
1.619980e+003;4.702842e-002
1.621909e+003;4.706996e-002
1.623837e+003;4.743540e-002
1.625766e+003;4.803220e-002
1.627694e+003;4.798098e-002
1.629623e+003;4.819070e-002
1.631552e+003;4.844993e-002
1.633480e+003;4.788889e-002
1.635409e+003;4.711704e-002
1.637337e+003;4.776567e-002
1.639266e+003;4.847598e-002
1.641194e+003;4.868549e-002
1.643123e+003;4.847705e-002
1.645051e+003;4.762015e-002
1.646980e+003;4.764078e-002
1.648909e+003;4.852707e-002
1.650837e+003;4.762089e-002
1.652766e+003;4.584460e-002
1.654694e+003;4.706512e-002
1.656623e+003;4.863527e-002
1.658551e+003;4.879844e-002
1.660480e+003;4.861830e-002
1.662408e+003;4.822543e-002
1.664337e+003;4.809294e-002
1.666266e+003;4.777950e-002
1.668194e+003;4.706523e-002
1.670123e+003;4.651711e-002
1.672051e+003;4.612956e-002
1.673980e+003;4.538673e-002
1.675908e+003;4.481820e-002
1.677837e+003;4.466552e-002
1.679765e+003;4.408630e-002
1.681694e+003;4.295871e-002
1.683622e+003;4.110103e-002
1.685551e+003;4.109911e-002
1.687479e+003;4.191490e-002
1.689408e+003;4.163219e-002
1.691337e+003;4.130731e-002
1.693265e+003;4.063089e-002
1.695194e+003;3.927851e-002
1.697122e+003;3.906148e-002
1.699051e+003;3.873356e-002
1.700979e+003;3.885964e-002
1.702908e+003;4.008915e-002
1.704836e+003;4.044733e-002
1.706765e+003;4.105110e-002
1.708693e+003;4.219605e-002
1.710622e+003;4.355899e-002
1.712551e+003;4.487676e-002
1.714479e+003;4.638381e-002
1.716408e+003;4.848020e-002
1.718336e+003;5.246637e-002
1.720265e+003;5.752756e-002
1.722193e+003;6.215243e-002
1.724122e+003;6.648616e-002
1.726050e+003;7.043562e-002
1.727979e+003;7.341181e-002
1.729908e+003;7.537358e-002
1.731836e+003;7.576505e-002
1.733765e+003;7.460219e-002
1.735693e+003;7.355529e-002
1.737622e+003;7.093314e-002
1.739550e+003;6.624307e-002
1.741479e+003;6.103615e-002
1.743407e+003;5.529674e-002
1.745336e+003;4.926605e-002
1.747265e+003;4.376350e-002
1.749193e+003;3.908022e-002
1.751122e+003;3.528563e-002
1.753050e+003;3.275828e-002
1.754979e+003;3.072953e-002
1.756907e+003;2.895024e-002
1.758836e+003;2.788780e-002
1.760764e+003;2.689044e-002
1.762693e+003;2.626629e-002
1.764621e+003;2.608392e-002
1.766550e+003;2.527858e-002
1.768479e+003;2.456023e-002
1.770407e+003;2.399439e-002
1.772336e+003;2.353277e-002
1.774264e+003;2.379694e-002
1.776193e+003;2.390682e-002
1.778121e+003;2.357562e-002
1.780050e+003;2.347195e-002
1.781978e+003;2.348475e-002
1.783907e+003;2.327072e-002
1.785835e+003;2.321433e-002
1.787764e+003;2.310526e-002
1.789693e+003;2.269346e-002
1.791621e+003;2.220075e-002
1.793550e+003;2.232244e-002
1.795478e+003;2.256521e-002
1.797407e+003;2.231173e-002
1.799335e+003;2.214883e-002
1.801264e+003;2.207638e-002
1.803192e+003;2.236967e-002
1.805121e+003;2.243184e-002
1.807049e+003;2.215723e-002
1.808978e+003;2.202936e-002
1.810907e+003;2.187440e-002
1.812835e+003;2.172111e-002
1.814764e+003;2.171651e-002
1.816692e+003;2.177287e-002
1.818621e+003;2.166419e-002
1.820549e+003;2.146613e-002
1.822478e+003;2.132788e-002
1.824406e+003;2.108479e-002
1.826335e+003;2.102156e-002
1.828264e+003;2.086095e-002
1.830192e+003;2.061902e-002
1.832121e+003;2.067642e-002
1.834049e+003;2.072855e-002
1.835978e+003;2.069342e-002
1.837906e+003;2.063997e-002
1.839835e+003;2.050361e-002
1.841763e+003;2.017434e-002
1.843692e+003;1.975404e-002
1.845620e+003;2.002161e-002
1.847549e+003;2.022550e-002
1.849478e+003;1.992721e-002
1.851406e+003;1.988746e-002
1.853335e+003;2.010454e-002
1.855263e+003;2.005770e-002
1.857192e+003;1.994452e-002
1.859120e+003;1.990789e-002
1.861049e+003;1.975279e-002
1.862977e+003;1.961307e-002
1.864906e+003;1.957480e-002
1.866834e+003;1.943427e-002
1.868763e+003;1.929597e-002
1.870692e+003;1.918216e-002
1.872620e+003;1.912093e-002
1.874549e+003;1.916332e-002
1.876477e+003;1.919081e-002
1.878406e+003;1.914992e-002
1.880334e+003;1.897017e-002
1.882263e+003;1.890444e-002
1.884191e+003;1.905899e-002
1.886120e+003;1.887942e-002
1.888048e+003;1.852195e-002
1.889977e+003;1.854010e-002
1.891906e+003;1.883686e-002
1.893834e+003;1.897505e-002
1.895763e+003;1.880488e-002
1.897691e+003;1.848741e-002
1.899620e+003;1.845387e-002
1.901548e+003;1.855545e-002
1.903477e+003;1.853706e-002
1.905405e+003;1.837716e-002
1.907334e+003;1.852122e-002
1.909262e+003;1.862310e-002
1.911191e+003;1.854971e-002
1.913120e+003;1.846262e-002
1.915048e+003;1.845006e-002
1.916977e+003;1.825799e-002
1.918905e+003;1.843109e-002
1.920834e+003;1.870618e-002
1.922762e+003;1.854719e-002
1.924691e+003;1.843247e-002
1.926619e+003;1.837540e-002
1.928548e+003;1.849588e-002
1.930477e+003;1.860038e-002
1.932405e+003;1.846168e-002
1.934334e+003;1.852731e-002
1.936262e+003;1.861971e-002
1.938191e+003;1.851047e-002
1.940119e+003;1.841954e-002
1.942048e+003;1.848671e-002
1.943976e+003;1.876977e-002
1.945905e+003;1.883648e-002
1.947833e+003;1.871874e-002
1.949762e+003;1.873603e-002
1.951691e+003;1.879516e-002
1.953619e+003;1.901001e-002
1.955548e+003;1.911345e-002
1.957476e+003;1.900596e-002
1.959405e+003;1.904016e-002
1.961333e+003;1.906045e-002
1.963262e+003;1.895625e-002
1.965190e+003;1.876873e-002
1.967119e+003;1.856811e-002
1.969047e+003;1.859111e-002
1.970976e+003;1.873562e-002
1.972905e+003;1.864793e-002
1.974833e+003;1.858834e-002
1.976762e+003;1.884966e-002
1.978690e+003;1.904279e-002
1.980619e+003;1.890506e-002
1.982547e+003;1.883194e-002
1.984476e+003;1.897730e-002
1.986404e+003;1.893040e-002
1.988333e+003;1.898083e-002
1.990261e+003;1.905969e-002
1.992190e+003;1.883499e-002
1.994119e+003;1.877804e-002
1.996047e+003;1.893407e-002
1.997976e+003;1.902593e-002
1.999904e+003;1.904428e-002
2.001833e+003;1.905910e-002
2.003761e+003;1.911515e-002
2.005690e+003;1.924889e-002
2.007618e+003;1.941206e-002
2.009547e+003;1.916328e-002
2.011476e+003;1.899765e-002
2.013404e+003;1.912083e-002
2.015333e+003;1.924387e-002
2.017261e+003;1.928416e-002
2.019190e+003;1.934918e-002
2.021118e+003;1.939834e-002
2.023047e+003;1.950448e-002
2.024975e+003;1.959220e-002
2.026904e+003;1.952243e-002
2.028833e+003;1.954087e-002
2.030761e+003;1.974051e-002
2.032690e+003;1.988628e-002
2.034618e+003;1.998258e-002
2.036547e+003;2.000107e-002
2.038475e+003;1.995905e-002
2.040404e+003;1.992506e-002
2.042332e+003;1.995281e-002
2.044261e+003;2.001738e-002
2.046189e+003;2.013436e-002
2.048118e+003;2.008806e-002
2.050047e+003;1.995860e-002
2.051975e+003;1.996745e-002
2.053904e+003;2.023321e-002
2.055832e+003;2.045697e-002
2.057761e+003;2.025925e-002
2.059689e+003;2.009056e-002
2.061618e+003;2.005492e-002
2.063546e+003;1.999323e-002
2.065475e+003;1.995735e-002
2.067404e+003;1.981126e-002
2.069332e+003;1.967436e-002
2.071260e+003;1.959178e-002
2.073189e+003;1.968792e-002
2.075118e+003;1.969249e-002
2.077046e+003;1.949391e-002
2.078975e+003;1.940385e-002
2.080903e+003;1.950732e-002
2.082832e+003;1.960745e-002
2.084760e+003;1.964260e-002
2.086689e+003;1.949193e-002
2.088617e+003;1.942921e-002
2.090546e+003;1.920377e-002
2.092475e+003;1.923677e-002
2.094403e+003;1.945804e-002
2.096332e+003;1.957771e-002
2.098260e+003;1.952870e-002
2.100189e+003;1.923871e-002
2.102117e+003;1.927543e-002
2.104046e+003;1.937772e-002
2.105974e+003;1.935399e-002
2.107903e+003;1.936438e-002
2.109832e+003;1.957847e-002
2.111760e+003;1.989315e-002
2.113688e+003;1.995132e-002
2.115617e+003;1.977096e-002
2.117546e+003;1.965075e-002
2.119474e+003;1.965089e-002
2.121403e+003;1.968102e-002
2.123331e+003;1.963349e-002
2.125260e+003;1.969537e-002
2.127188e+003;1.980807e-002
2.129117e+003;1.985135e-002
2.131045e+003;1.997109e-002
2.132974e+003;2.011516e-002
2.134903e+003;1.995794e-002
2.136831e+003;1.985856e-002
2.138760e+003;1.996575e-002
2.140688e+003;1.995857e-002
2.142617e+003;1.982020e-002
2.144545e+003;1.963293e-002
2.146474e+003;1.936400e-002
2.148402e+003;1.924685e-002
2.150331e+003;1.935600e-002
2.152260e+003;1.947291e-002
2.154188e+003;1.964239e-002
2.156117e+003;1.992436e-002
2.158045e+003;1.973268e-002
2.159974e+003;1.937963e-002
2.161902e+003;1.925710e-002
2.163831e+003;1.921197e-002
2.165759e+003;1.923144e-002
2.167688e+003;1.912970e-002
2.169616e+003;1.908112e-002
2.171545e+003;1.898398e-002
2.173474e+003;1.863251e-002
2.175402e+003;1.832175e-002
2.177331e+003;1.826805e-002
2.179259e+003;1.825899e-002
2.181188e+003;1.815461e-002
2.183116e+003;1.786374e-002
2.185045e+003;1.775372e-002
2.186973e+003;1.783809e-002
2.188902e+003;1.764546e-002
2.190831e+003;1.747471e-002
2.192759e+003;1.749724e-002
2.194688e+003;1.741452e-002
2.196616e+003;1.769291e-002
2.198545e+003;1.791698e-002
2.200473e+003;1.785117e-002
2.202402e+003;1.781202e-002
2.204330e+003;1.768483e-002
2.206259e+003;1.752576e-002
2.208188e+003;1.743173e-002
2.210116e+003;1.747261e-002
2.212044e+003;1.762855e-002
2.213973e+003;1.759225e-002
2.215902e+003;1.741783e-002
2.217830e+003;1.747685e-002
2.219759e+003;1.764173e-002
2.221687e+003;1.764056e-002
2.223616e+003;1.753505e-002
2.225544e+003;1.765484e-002
2.227473e+003;1.774502e-002
2.229401e+003;1.755554e-002
2.231330e+003;1.753798e-002
2.233259e+003;1.762599e-002
2.235187e+003;1.758493e-002
2.237116e+003;1.754850e-002
2.239044e+003;1.730741e-002
2.240973e+003;1.711798e-002
2.242901e+003;1.711388e-002
2.244830e+003;1.725242e-002
2.246758e+003;1.710102e-002
2.248687e+003;1.701835e-002
2.250615e+003;1.732706e-002
2.252544e+003;1.751597e-002
2.254473e+003;1.748475e-002
2.256401e+003;1.737000e-002
2.258330e+003;1.716620e-002
2.260258e+003;1.710643e-002
2.262187e+003;1.710240e-002
2.264115e+003;1.699268e-002
2.266044e+003;1.699240e-002
2.267972e+003;1.676171e-002
2.269901e+003;1.661820e-002
2.271830e+003;1.689039e-002
2.273758e+003;1.703041e-002
2.275687e+003;1.705832e-002
2.277615e+003;1.710071e-002
2.279544e+003;1.711305e-002
2.281472e+003;1.688842e-002
2.283401e+003;1.656546e-002
2.285329e+003;1.660942e-002
2.287258e+003;1.692005e-002
2.289187e+003;1.698117e-002
2.291115e+003;1.674728e-002
2.293043e+003;1.649996e-002
2.294972e+003;1.631008e-002
2.296901e+003;1.614540e-002
2.298829e+003;1.630812e-002
2.300758e+003;1.652202e-002
2.302686e+003;1.634982e-002
2.304615e+003;1.620734e-002
2.306543e+003;1.638880e-002
2.308472e+003;1.632787e-002
2.310400e+003;1.634810e-002
2.312329e+003;1.645952e-002
2.314258e+003;1.649968e-002
2.316186e+003;1.636637e-002
2.318115e+003;1.627527e-002
2.320043e+003;1.622711e-002
2.321972e+003;1.610730e-002
2.323900e+003;1.622990e-002
2.325829e+003;1.623090e-002
2.327757e+003;1.595599e-002
2.329686e+003;1.585189e-002
2.331615e+003;1.604977e-002
2.333543e+003;1.599160e-002
2.335472e+003;1.595558e-002
2.337400e+003;1.606899e-002
2.339329e+003;1.609440e-002
2.341257e+003;1.619750e-002
2.343186e+003;1.631497e-002
2.345114e+003;1.630513e-002
2.347043e+003;1.660181e-002
2.348971e+003;1.712446e-002
2.350900e+003;1.727517e-002
2.352829e+003;1.714372e-002
2.354757e+003;1.679060e-002
2.356686e+003;1.651947e-002
2.358614e+003;1.669194e-002
2.360543e+003;1.686197e-002
2.362471e+003;1.685990e-002
2.364400e+003;1.678430e-002
2.366328e+003;1.687299e-002
2.368257e+003;1.704274e-002
2.370186e+003;1.725528e-002
2.372114e+003;1.735500e-002
2.374042e+003;1.762603e-002
2.375971e+003;1.794875e-002
2.377900e+003;1.791829e-002
2.379828e+003;1.790207e-002
2.381757e+003;1.803433e-002
2.383685e+003;1.813644e-002
2.385614e+003;1.823090e-002
2.387542e+003;1.830603e-002
2.389471e+003;1.839175e-002
2.391399e+003;1.849812e-002
2.393328e+003;1.868169e-002
2.395257e+003;1.867360e-002
2.397185e+003;1.852665e-002
2.399114e+003;1.844236e-002
2.401042e+003;1.852419e-002
2.402971e+003;1.879558e-002
2.404899e+003;1.906723e-002
2.406828e+003;1.929635e-002
2.408756e+003;1.922621e-002
2.410685e+003;1.939210e-002
2.412614e+003;1.950926e-002
2.414542e+003;1.938829e-002
2.416471e+003;1.920882e-002
2.418399e+003;1.920103e-002
2.420328e+003;1.934471e-002
2.422256e+003;1.956669e-002
2.424185e+003;2.002064e-002
2.426113e+003;2.061902e-002
2.428042e+003;2.084180e-002
2.429970e+003;2.044828e-002
2.431899e+003;2.009278e-002
2.433828e+003;2.046575e-002
2.435756e+003;2.073262e-002
2.437685e+003;2.059672e-002
2.439613e+003;2.059633e-002
2.441542e+003;2.062267e-002
2.443470e+003;2.077728e-002
2.445399e+003;2.096206e-002
2.447327e+003;2.105418e-002
2.449256e+003;2.123601e-002
2.451185e+003;2.134218e-002
2.453113e+003;2.122975e-002
2.455042e+003;2.108176e-002
2.456970e+003;2.109894e-002
2.458899e+003;2.131765e-002
2.460827e+003;2.141594e-002
2.462756e+003;2.157511e-002
2.464684e+003;2.191204e-002
2.466613e+003;2.192908e-002
2.468542e+003;2.170878e-002
2.470470e+003;2.173125e-002
2.472398e+003;2.202517e-002
2.474327e+003;2.209416e-002
2.476256e+003;2.205215e-002
2.478184e+003;2.218283e-002
2.480113e+003;2.261181e-002
2.482041e+003;2.285485e-002
2.483970e+003;2.261533e-002
2.485898e+003;2.222663e-002
2.487827e+003;2.239067e-002
2.489755e+003;2.300382e-002
2.491684e+003;2.318899e-002
2.493613e+003;2.285205e-002
2.495541e+003;2.289054e-002
2.497470e+003;2.333739e-002
2.499398e+003;2.349136e-002
2.501327e+003;2.332868e-002
2.503255e+003;2.343498e-002
2.505184e+003;2.375375e-002
2.507112e+003;2.377696e-002
2.509041e+003;2.370291e-002
2.510969e+003;2.380219e-002
2.512898e+003;2.402412e-002
2.514827e+003;2.430765e-002
2.516755e+003;2.429777e-002
2.518684e+003;2.415073e-002
2.520612e+003;2.447494e-002
2.522541e+003;2.482882e-002
2.524469e+003;2.479542e-002
2.526398e+003;2.469030e-002
2.528326e+003;2.475136e-002
2.530255e+003;2.481717e-002
2.532184e+003;2.505499e-002
2.534112e+003;2.538785e-002
2.536041e+003;2.545839e-002
2.537969e+003;2.524209e-002
2.539898e+003;2.504021e-002
2.541826e+003;2.496626e-002
2.543755e+003;2.501350e-002
2.545683e+003;2.521175e-002
2.547612e+003;2.521649e-002
2.549541e+003;2.510880e-002
2.551469e+003;2.526326e-002
2.553397e+003;2.548485e-002
2.555326e+003;2.565080e-002
2.557255e+003;2.565030e-002
2.559183e+003;2.571745e-002
2.561112e+003;2.568858e-002
2.563040e+003;2.577071e-002
2.564969e+003;2.591542e-002
2.566897e+003;2.586899e-002
2.568826e+003;2.594619e-002
2.570754e+003;2.615222e-002
2.572683e+003;2.621226e-002
2.574612e+003;2.596709e-002
2.576540e+003;2.590648e-002
2.578469e+003;2.626453e-002
2.580397e+003;2.640588e-002
2.582326e+003;2.631198e-002
2.584254e+003;2.617379e-002
2.586183e+003;2.623651e-002
2.588111e+003;2.665834e-002
2.590040e+003;2.684793e-002
2.591969e+003;2.671961e-002
2.593897e+003;2.689555e-002
2.595826e+003;2.696669e-002
2.597754e+003;2.660592e-002
2.599683e+003;2.664555e-002
2.601611e+003;2.700329e-002
2.603540e+003;2.728394e-002
2.605468e+003;2.758681e-002
2.607397e+003;2.756227e-002
2.609325e+003;2.743120e-002
2.611254e+003;2.741190e-002
2.613183e+003;2.755962e-002
2.615111e+003;2.769002e-002
2.617040e+003;2.803600e-002
2.618968e+003;2.847307e-002
2.620897e+003;2.853382e-002
2.622825e+003;2.838477e-002
2.624754e+003;2.867053e-002
2.626682e+003;2.915515e-002
2.628611e+003;2.923134e-002
2.630540e+003;2.914229e-002
2.632468e+003;2.904064e-002
2.634396e+003;2.890229e-002
2.636325e+003;2.913910e-002
2.638254e+003;2.947673e-002
2.640182e+003;2.956756e-002
2.642111e+003;2.974565e-002
2.644039e+003;3.012289e-002
2.645968e+003;3.028777e-002
2.647896e+003;3.025633e-002
2.649825e+003;3.036352e-002
2.651753e+003;3.047849e-002
2.653682e+003;3.057639e-002
2.655611e+003;3.081102e-002
2.657539e+003;3.111464e-002
2.659468e+003;3.121528e-002
2.661396e+003;3.130269e-002
2.663325e+003;3.148160e-002
2.665253e+003;3.166960e-002
2.667182e+003;3.186948e-002
2.669110e+003;3.223662e-002
2.671039e+003;3.265389e-002
2.672968e+003;3.271548e-002
2.674896e+003;3.244837e-002
2.676825e+003;3.256981e-002
2.678753e+003;3.295727e-002
2.680682e+003;3.318887e-002
2.682610e+003;3.329228e-002
2.684539e+003;3.345336e-002
2.686467e+003;3.370076e-002
2.688396e+003;3.399480e-002
2.690324e+003;3.406654e-002
2.692253e+003;3.441424e-002
2.694182e+003;3.467614e-002
2.696110e+003;3.475542e-002
2.698039e+003;3.510863e-002
2.699967e+003;3.513528e-002
2.701896e+003;3.502842e-002
2.703824e+003;3.519406e-002
2.705753e+003;3.568400e-002
2.707681e+003;3.605388e-002
2.709610e+003;3.616636e-002
2.711539e+003;3.630748e-002
2.713467e+003;3.659555e-002
2.715396e+003;3.674650e-002
2.717324e+003;3.691212e-002
2.719253e+003;3.720751e-002
2.721181e+003;3.708072e-002
2.723110e+003;3.688607e-002
2.725038e+003;3.725408e-002
2.726967e+003;3.791398e-002
2.728896e+003;3.825004e-002
2.730824e+003;3.834623e-002
2.732752e+003;3.842181e-002
2.734681e+003;3.839285e-002
2.736610e+003;3.826372e-002
2.738538e+003;3.842192e-002
2.740467e+003;3.878243e-002
2.742395e+003;3.886265e-002
2.744324e+003;3.863030e-002
2.746252e+003;3.854552e-002
2.748181e+003;3.872584e-002
2.750109e+003;3.896252e-002
2.752038e+003;3.893041e-002
2.753967e+003;3.892929e-002
2.755895e+003;3.923669e-002
2.757824e+003;3.960013e-002
2.759752e+003;3.961087e-002
2.761681e+003;3.950606e-002
2.763609e+003;3.964034e-002
2.765538e+003;4.008289e-002
2.767466e+003;4.028451e-002
2.769395e+003;4.047981e-002
2.771323e+003;4.065486e-002
2.773252e+003;4.079734e-002
2.775181e+003;4.114081e-002
2.777109e+003;4.161534e-002
2.779038e+003;4.163638e-002
2.780966e+003;4.186196e-002
2.782895e+003;4.218122e-002
2.784823e+003;4.219820e-002
2.786752e+003;4.244165e-002
2.788680e+003;4.289884e-002
2.790609e+003;4.311684e-002
2.792538e+003;4.336464e-002
2.794466e+003;4.369678e-002
2.796395e+003;4.386939e-002
2.798323e+003;4.422601e-002
2.800252e+003;4.454427e-002
2.802180e+003;4.473126e-002
2.804109e+003;4.518575e-002
2.806037e+003;4.570043e-002
2.807966e+003;4.616044e-002
2.809895e+003;4.652629e-002
2.811823e+003;4.676501e-002
2.813751e+003;4.709474e-002
2.815680e+003;4.755767e-002
2.817609e+003;4.840996e-002
2.819537e+003;4.934070e-002
2.821466e+003;5.013235e-002
2.823394e+003;5.066606e-002
2.825323e+003;5.126118e-002
2.827251e+003;5.164191e-002
2.829180e+003;5.218253e-002
2.831108e+003;5.296056e-002
2.833037e+003;5.379383e-002
2.834966e+003;5.454112e-002
2.836894e+003;5.557878e-002
2.838823e+003;5.663535e-002
2.840751e+003;5.750112e-002
2.842680e+003;5.871104e-002
2.844608e+003;6.030251e-002
2.846537e+003;6.207636e-002
2.848465e+003;6.382086e-002
2.850394e+003;6.514839e-002
2.852323e+003;6.612924e-002
2.854251e+003;6.707928e-002
2.856180e+003;6.781308e-002
2.858108e+003;6.815504e-002
2.860037e+003;6.867731e-002
2.861965e+003;7.015385e-002
2.863894e+003;7.169385e-002
2.865822e+003;7.266403e-002
2.867751e+003;7.342391e-002
2.869679e+003;7.421526e-002
2.871608e+003;7.497387e-002
2.873536e+003;7.577105e-002
2.875465e+003;7.668990e-002
2.877394e+003;7.709796e-002
2.879322e+003;7.741638e-002
2.881251e+003;7.777150e-002
2.883179e+003;7.810540e-002
2.885108e+003;7.846716e-002
2.887036e+003;7.906733e-002
2.888965e+003;7.945336e-002
2.890893e+003;7.945985e-002
2.892822e+003;7.979307e-002
2.894750e+003;8.061120e-002
2.896679e+003;8.106892e-002
2.898608e+003;8.129592e-002
2.900536e+003;8.182649e-002
2.902465e+003;8.193275e-002
2.904393e+003;8.144890e-002
2.906322e+003;8.091528e-002
2.908250e+003;8.006108e-002
2.910179e+003;7.924823e-002
2.912107e+003;7.894389e-002
2.914036e+003;7.883855e-002
2.915965e+003;7.819454e-002
2.917893e+003;7.717557e-002
2.919822e+003;7.606936e-002
2.921750e+003;7.475431e-002
2.923679e+003;7.366359e-002
2.925607e+003;7.236008e-002
2.927536e+003;7.091547e-002
2.929464e+003;7.010545e-002
2.931393e+003;6.890725e-002
2.933322e+003;6.782246e-002
2.935250e+003;6.707971e-002
2.937178e+003;6.670189e-002
2.939107e+003;6.646817e-002
2.941036e+003;6.605015e-002
2.942964e+003;6.565577e-002
2.944893e+003;6.512402e-002
2.946821e+003;6.448206e-002
2.948750e+003;6.321478e-002
2.950678e+003;6.198298e-002
2.952607e+003;6.142839e-002
2.954535e+003;6.089184e-002
2.956464e+003;6.018740e-002
2.958393e+003;5.946567e-002
2.960321e+003;5.862225e-002
2.962250e+003;5.789585e-002
2.964178e+003;5.752348e-002
2.966107e+003;5.707833e-002
2.968035e+003;5.668748e-002
2.969964e+003;5.617018e-002
2.971892e+003;5.518404e-002
2.973821e+003;5.358862e-002
2.975750e+003;5.210803e-002
2.977678e+003;5.107151e-002
2.979607e+003;4.994195e-002
2.981535e+003;4.902080e-002
2.983464e+003;4.800496e-002
2.985392e+003;4.691102e-002
2.987321e+003;4.613380e-002
2.989249e+003;4.546814e-002
2.991178e+003;4.476534e-002
2.993106e+003;4.394190e-002
2.995035e+003;4.284072e-002
2.996964e+003;4.232800e-002
2.998892e+003;4.208871e-002
3.000821e+003;4.163310e-002
3.002749e+003;4.132524e-002
3.004678e+003;4.110890e-002
3.006606e+003;4.100598e-002
3.008535e+003;4.103497e-002
3.010463e+003;4.077972e-002
3.012392e+003;4.047817e-002
3.014321e+003;4.041409e-002
3.016249e+003;4.061153e-002
3.018177e+003;4.047774e-002
3.020106e+003;4.029909e-002
3.022035e+003;4.065977e-002
3.023963e+003;4.106611e-002
3.025892e+003;4.123323e-002
3.027820e+003;4.161961e-002
3.029749e+003;4.178005e-002
3.031677e+003;4.175350e-002
3.033606e+003;4.199924e-002
3.035534e+003;4.191589e-002
3.037463e+003;4.183573e-002
3.039392e+003;4.224031e-002
3.041320e+003;4.267312e-002
3.043249e+003;4.302222e-002
3.045177e+003;4.340305e-002
3.047106e+003;4.376420e-002
3.049034e+003;4.404218e-002
3.050963e+003;4.432134e-002
3.052891e+003;4.476967e-002
3.054820e+003;4.525962e-002
3.056749e+003;4.553665e-002
3.058677e+003;4.560852e-002
3.060606e+003;4.616538e-002
3.062534e+003;4.697352e-002
3.064463e+003;4.743935e-002
3.066391e+003;4.750473e-002
3.068320e+003;4.725755e-002
3.070248e+003;4.763476e-002
3.072177e+003;4.854533e-002
3.074105e+003;4.911818e-002
3.076034e+003;4.956904e-002
3.077963e+003;4.993889e-002
3.079891e+003;5.069984e-002
3.081820e+003;5.141030e-002
3.083748e+003;5.135652e-002
3.085677e+003;5.143645e-002
3.087605e+003;5.183268e-002
3.089534e+003;5.232955e-002
3.091462e+003;5.292137e-002
3.093391e+003;5.333544e-002
3.095320e+003;5.368144e-002
3.097248e+003;5.389221e-002
3.099177e+003;5.416065e-002
3.101105e+003;5.447918e-002
3.103034e+003;5.499006e-002
3.104962e+003;5.556221e-002
3.106891e+003;5.593245e-002
3.108819e+003;5.659039e-002
3.110748e+003;5.740805e-002
3.112677e+003;5.799634e-002
3.114605e+003;5.852116e-002
3.116533e+003;5.863572e-002
3.118462e+003;5.873907e-002
3.120391e+003;5.907407e-002
3.122319e+003;5.981302e-002
3.124248e+003;6.088948e-002
3.126176e+003;6.188760e-002
3.128105e+003;6.192065e-002
3.130033e+003;6.195638e-002
3.131962e+003;6.226144e-002
3.133890e+003;6.266091e-002
3.135819e+003;6.303687e-002
3.137748e+003;6.364148e-002
3.139676e+003;6.468910e-002
3.141605e+003;6.549677e-002
3.143533e+003;6.572842e-002
3.145462e+003;6.626395e-002
3.147390e+003;6.691420e-002
3.149319e+003;6.706528e-002
3.151247e+003;6.723855e-002
3.153176e+003;6.765733e-002
3.155104e+003;6.834848e-002
3.157033e+003;6.899436e-002
3.158962e+003;6.931370e-002
3.160890e+003;6.981830e-002
3.162819e+003;7.024149e-002
3.164747e+003;7.067429e-002
3.166676e+003;7.169061e-002
3.168604e+003;7.276377e-002
3.170533e+003;7.353979e-002
3.172461e+003;7.372916e-002
3.174390e+003;7.401054e-002
3.176319e+003;7.445562e-002
3.178247e+003;7.471846e-002
3.180176e+003;7.524841e-002
3.182104e+003;7.633768e-002
3.184033e+003;7.737152e-002
3.185961e+003;7.788232e-002
3.187890e+003;7.812198e-002
3.189818e+003;7.853723e-002
3.191747e+003;7.912569e-002
3.193676e+003;7.969195e-002
3.195604e+003;8.022964e-002
3.197532e+003;8.104436e-002
3.199461e+003;8.173129e-002
3.201390e+003;8.258434e-002
3.203318e+003;8.332036e-002
3.205247e+003;8.358131e-002
3.207175e+003;8.409184e-002
3.209104e+003;8.455901e-002
3.211032e+003;8.512928e-002
3.212961e+003;8.615382e-002
3.214889e+003;8.666475e-002
3.216818e+003;8.711749e-002
3.218747e+003;8.763681e-002
3.220675e+003;8.846267e-002
3.222604e+003;8.961154e-002
3.224532e+003;9.046696e-002
3.226461e+003;9.075267e-002
3.228389e+003;9.088115e-002
3.230318e+003;9.134239e-002
3.232246e+003;9.237655e-002
3.234175e+003;9.305608e-002
3.236104e+003;9.349062e-002
3.238032e+003;9.438353e-002
3.239961e+003;9.506468e-002
3.241889e+003;9.608762e-002
3.243818e+003;9.731933e-002
3.245746e+003;9.764381e-002
3.247675e+003;9.815287e-002
3.249603e+003;9.911641e-002
3.251532e+003;9.956177e-002
3.253460e+003;1.000872e-001
3.255389e+003;1.013987e-001
3.257318e+003;1.026122e-001
3.259246e+003;1.031902e-001
3.261175e+003;1.033320e-001
3.263103e+003;1.035649e-001
3.265032e+003;1.038244e-001
3.266960e+003;1.041635e-001
3.268889e+003;1.054148e-001
3.270817e+003;1.065287e-001
3.272746e+003;1.067810e-001
3.274675e+003;1.065409e-001
3.276603e+003;1.067151e-001
3.278531e+003;1.067230e-001
3.280460e+003;1.065140e-001
3.282389e+003;1.069412e-001
3.284317e+003;1.074008e-001
3.286246e+003;1.076176e-001
3.288174e+003;1.081048e-001
3.290103e+003;1.082015e-001
3.292031e+003;1.078014e-001
3.293960e+003;1.074299e-001
3.295888e+003;1.074726e-001
3.297817e+003;1.076942e-001
3.299746e+003;1.076607e-001
3.301674e+003;1.077622e-001
3.303603e+003;1.082741e-001
3.305531e+003;1.086227e-001
3.307460e+003;1.085450e-001
3.309388e+003;1.081522e-001
3.311317e+003;1.081870e-001
3.313245e+003;1.085595e-001
3.315174e+003;1.085303e-001
3.317103e+003;1.086148e-001
3.319031e+003;1.095598e-001
3.320960e+003;1.104023e-001
3.322888e+003;1.105719e-001
3.324817e+003;1.101560e-001
3.326745e+003;1.097372e-001
3.328674e+003;1.102071e-001
3.330602e+003;1.105165e-001
3.332531e+003;1.102014e-001
3.334459e+003;1.095577e-001
3.336388e+003;1.092422e-001
3.338317e+003;1.089960e-001
3.340245e+003;1.082566e-001
3.342174e+003;1.074849e-001
3.344102e+003;1.072618e-001
3.346031e+003;1.064778e-001
3.347959e+003;1.053055e-001
3.349888e+003;1.046248e-001
3.351816e+003;1.041968e-001
3.353745e+003;1.036467e-001
3.355674e+003;1.029484e-001
3.357602e+003;1.024003e-001
3.359531e+003;1.016444e-001
3.361459e+003;1.010290e-001
3.363388e+003;1.011619e-001
3.365316e+003;1.013815e-001
3.367245e+003;1.006991e-001
3.369173e+003;9.956044e-002
3.371102e+003;9.856336e-002
3.373031e+003;9.765016e-002
3.374959e+003;9.744716e-002
3.376887e+003;9.769475e-002
3.378816e+003;9.727310e-002
3.380745e+003;9.624052e-002
3.382673e+003;9.522527e-002
3.384602e+003;9.410814e-002
3.386530e+003;9.368934e-002
3.388459e+003;9.353980e-002
3.390387e+003;9.294139e-002
3.392316e+003;9.285414e-002
3.394244e+003;9.285887e-002
3.396173e+003;9.214360e-002
3.398102e+003;9.078636e-002
3.400030e+003;9.016317e-002
3.401959e+003;9.003955e-002
3.403887e+003;8.932158e-002
3.405816e+003;8.859097e-002
3.407744e+003;8.801597e-002
3.409673e+003;8.760223e-002
3.411601e+003;8.713482e-002
3.413530e+003;8.631543e-002
3.415458e+003;8.557303e-002
3.417387e+003;8.461782e-002
3.419316e+003;8.377211e-002
3.421244e+003;8.307336e-002
3.423173e+003;8.278371e-002
3.425101e+003;8.218399e-002
3.427030e+003;8.087038e-002
3.428958e+003;8.013973e-002
3.430887e+003;7.993400e-002
3.432815e+003;7.947127e-002
3.434744e+003;7.844525e-002
3.436673e+003;7.780158e-002
3.438601e+003;7.717188e-002
3.440530e+003;7.659159e-002
3.442458e+003;7.616778e-002
3.444387e+003;7.562625e-002
3.446315e+003;7.467274e-002
3.448244e+003;7.343776e-002
3.450172e+003;7.274120e-002
3.452101e+003;7.242478e-002
3.454030e+003;7.202069e-002
3.455958e+003;7.131442e-002
3.457886e+003;7.022808e-002
3.459815e+003;6.950423e-002
3.461744e+003;6.873635e-002
3.463672e+003;6.823762e-002
3.465601e+003;6.801052e-002
3.467529e+003;6.750674e-002
3.469458e+003;6.672372e-002
3.471386e+003;6.558979e-002
3.473315e+003;6.455018e-002
3.475243e+003;6.382152e-002
3.477172e+003;6.285758e-002
3.479101e+003;6.180175e-002
3.481029e+003;6.104142e-002
3.482958e+003;6.028538e-002
3.484886e+003;5.995283e-002
3.486815e+003;5.977827e-002
3.488743e+003;5.908405e-002
3.490672e+003;5.833334e-002
3.492600e+003;5.775473e-002
3.494529e+003;5.700511e-002
3.496458e+003;5.633010e-002
3.498386e+003;5.544892e-002
3.500315e+003;5.450667e-002
3.502243e+003;5.411216e-002
3.504172e+003;5.325903e-002
3.506100e+003;5.220002e-002
3.508029e+003;5.142183e-002
3.509957e+003;5.159407e-002
3.511886e+003;5.150136e-002
3.513814e+003;5.022532e-002
3.515743e+003;4.862011e-002
3.517672e+003;4.815064e-002
3.519600e+003;4.768009e-002
3.521529e+003;4.690725e-002
3.523457e+003;4.624255e-002
3.525386e+003;4.499460e-002
3.527314e+003;4.437146e-002
3.529243e+003;4.412188e-002
3.531171e+003;4.354375e-002
3.533100e+003;4.294126e-002
3.535029e+003;4.242966e-002
3.536957e+003;4.200530e-002
3.538885e+003;4.120496e-002
3.540814e+003;4.018265e-002
3.542743e+003;3.929965e-002
3.544671e+003;3.830812e-002
3.546600e+003;3.733062e-002
3.548528e+003;3.622273e-002
3.550457e+003;3.569124e-002
3.552385e+003;3.534033e-002
3.554314e+003;3.467847e-002
3.556242e+003;3.397273e-002
3.558171e+003;3.340723e-002
3.560100e+003;3.274132e-002
3.562028e+003;3.199013e-002
3.563957e+003;3.106716e-002
3.565885e+003;2.935349e-002
3.567814e+003;2.865581e-002
3.569742e+003;2.873471e-002
3.571671e+003;2.814413e-002
3.573599e+003;2.782262e-002
3.575528e+003;2.685837e-002
3.577457e+003;2.544005e-002
3.579385e+003;2.458267e-002
3.581314e+003;2.418604e-002
3.583242e+003;2.370035e-002
3.585171e+003;2.315132e-002
3.587099e+003;2.243121e-002
3.589028e+003;2.195100e-002
3.590956e+003;2.181301e-002
3.592885e+003;2.069373e-002
3.594813e+003;1.929766e-002
3.596742e+003;1.882312e-002
3.598671e+003;1.862161e-002
3.600599e+003;1.792603e-002
3.602528e+003;1.727600e-002
3.604456e+003;1.662119e-002
3.606385e+003;1.550802e-002
3.608313e+003;1.456425e-002
3.610242e+003;1.423476e-002
3.612170e+003;1.362113e-002
3.614099e+003;1.311935e-002
3.616028e+003;1.208259e-002
3.617956e+003;1.087724e-002
3.619885e+003;1.078817e-002
3.621813e+003;1.114232e-002
3.623742e+003;1.081660e-002
3.625670e+003;9.817242e-003
3.627599e+003;8.436697e-003
3.629527e+003;7.773955e-003
3.631456e+003;7.918421e-003
3.633385e+003;7.325781e-003
3.635313e+003;6.796476e-003
3.637241e+003;6.630480e-003
3.639170e+003;6.385320e-003
3.641099e+003;6.351965e-003
3.643027e+003;6.246707e-003
3.644956e+003;5.397874e-003
3.646884e+003;3.900240e-003
3.648813e+003;2.608876e-003
3.650741e+003;2.554112e-003
3.652670e+003;3.223750e-003
3.654598e+003;2.802687e-003
3.656527e+003;2.252052e-003
3.658456e+003;1.898183e-003
3.660384e+003;1.591158e-003
3.662313e+003;1.479799e-003
3.664241e+003;1.651422e-003
3.666170e+003;1.479966e-003
3.668098e+003;2.305084e-004
3.670027e+003;-6.636645e-004
3.671955e+003;-2.449240e-004
3.673884e+003;-9.956292e-004
3.675813e+003;-1.513771e-003
3.677741e+003;-3.871312e-004
3.679669e+003;1.598017e-004
3.681598e+003;-2.684684e-004
3.683527e+003;-7.261546e-004
3.685455e+003;-8.081820e-004
3.687384e+003;-1.421672e-003
3.689312e+003;-1.522422e-003
3.691241e+003;-1.074400e-003
3.693169e+003;-1.099915e-003
3.695098e+003;-1.335797e-003
3.697026e+003;-1.144465e-003
3.698955e+003;-1.811069e-003
3.700884e+003;-2.209117e-003
3.702812e+003;-1.323145e-003
3.704741e+003;-5.757859e-004
3.706669e+003;-9.369469e-004
3.708598e+003;-1.646750e-003
3.710526e+003;-2.269177e-003
3.712455e+003;-2.704148e-003
3.714383e+003;-2.202623e-003
3.716312e+003;-1.856140e-003
3.718240e+003;-1.890781e-003
3.720169e+003;-2.050456e-003
3.722098e+003;-2.268650e-003
3.724026e+003;-2.612663e-003
3.725955e+003;-2.900851e-003
3.727883e+003;-2.428912e-003
3.729812e+003;-2.785342e-003
3.731740e+003;-3.603314e-003
3.733669e+003;-3.658844e-003
3.735597e+003;-4.113039e-003
3.737526e+003;-3.633347e-003
3.739455e+003;-3.266957e-003
3.741383e+003;-3.831830e-003
3.743312e+003;-5.257009e-003
3.745240e+003;-5.232980e-003
3.747169e+003;-4.561874e-003
3.749097e+003;-4.722045e-003
3.751026e+003;-4.450741e-003
3.752954e+003;-4.173066e-003
3.754883e+003;-3.732403e-003
3.756812e+003;-3.219797e-003
3.758740e+003;-3.001653e-003
3.760668e+003;-3.173914e-003
3.762597e+003;-2.599654e-003
3.764526e+003;-2.332788e-003
3.766454e+003;-2.686827e-003
3.768383e+003;-3.421657e-003
3.770311e+003;-3.984916e-003
3.772240e+003;-4.166699e-003
3.774168e+003;-4.552135e-003
3.776097e+003;-4.142544e-003
3.778025e+003;-2.987701e-003
3.779954e+003;-2.096392e-003
3.781883e+003;-2.487854e-003
3.783811e+003;-2.857600e-003
3.785740e+003;-3.043441e-003
3.787668e+003;-3.177565e-003
3.789597e+003;-3.469486e-003
3.791525e+003;-3.777110e-003
3.793454e+003;-3.451341e-003
3.795382e+003;-3.133454e-003
3.797311e+003;-3.059530e-003
3.799240e+003;-3.838661e-003
3.801168e+003;-4.194133e-003
3.803097e+003;-3.402951e-003
3.805025e+003;-3.276626e-003
3.806954e+003;-3.836395e-003
3.808882e+003;-4.127808e-003
3.810811e+003;-3.618560e-003
3.812739e+003;-3.026101e-003
3.814668e+003;-3.704577e-003
3.816596e+003;-4.310548e-003
3.818525e+003;-4.172540e-003
3.820454e+003;-4.195774e-003
3.822382e+003;-3.906541e-003
3.824311e+003;-3.621584e-003
3.826239e+003;-3.718999e-003
3.828168e+003;-3.286590e-003
3.830096e+003;-3.731943e-003
3.832025e+003;-4.305332e-003
3.833953e+003;-4.041875e-003
3.835882e+003;-4.165518e-003
3.837811e+003;-4.546070e-003
3.839739e+003;-4.175166e-003
3.841667e+003;-3.658450e-003
3.843596e+003;-3.305202e-003
3.845525e+003;-3.092134e-003
3.847453e+003;-3.614848e-003
3.849382e+003;-4.174247e-003
3.851310e+003;-4.531085e-003
3.853239e+003;-5.041589e-003
3.855167e+003;-3.866510e-003
3.857096e+003;-3.165625e-003
3.859024e+003;-3.889432e-003
3.860953e+003;-4.139558e-003
3.862882e+003;-3.919150e-003
3.864810e+003;-4.231673e-003
3.866739e+003;-3.655427e-003
3.868667e+003;-3.525658e-003
3.870596e+003;-3.824112e-003
3.872524e+003;-3.937046e-003
3.874453e+003;-3.727343e-003
3.876381e+003;-2.834722e-003
3.878310e+003;-2.890845e-003
3.880239e+003;-3.692684e-003
3.882167e+003;-3.495913e-003
3.884096e+003;-3.265214e-003
3.886024e+003;-3.311679e-003
3.887953e+003;-3.223842e-003
3.889881e+003;-3.323583e-003
3.891810e+003;-3.454070e-003
3.893738e+003;-3.400814e-003
3.895667e+003;-2.995434e-003
3.897595e+003;-2.889429e-003
3.899524e+003;-2.792420e-003
3.901453e+003;-3.279256e-003
3.903381e+003;-4.085763e-003
3.905310e+003;-3.139408e-003
3.907238e+003;-2.422025e-003
3.909167e+003;-2.473325e-003
3.911095e+003;-2.232852e-003
3.913024e+003;-2.418565e-003
3.914952e+003;-3.086772e-003
3.916881e+003;-2.969700e-003
3.918810e+003;-2.081784e-003
3.920738e+003;-1.569074e-003
3.922667e+003;-1.772825e-003
3.924595e+003;-2.121749e-003
3.926524e+003;-2.208722e-003
3.928452e+003;-2.119968e-003
3.930381e+003;-1.750715e-003
3.932309e+003;-2.251707e-003
3.934238e+003;-2.676487e-003
3.936167e+003;-2.353781e-003
3.938095e+003;-2.313046e-003
3.940023e+003;-2.747776e-003
3.941952e+003;-2.710470e-003
3.943881e+003;-2.392468e-003
3.945809e+003;-2.138433e-003
3.947738e+003;-2.542506e-003
3.949666e+003;-2.260113e-003
3.951595e+003;-1.565905e-003
3.953523e+003;-1.990366e-003
3.955452e+003;-2.296732e-003
3.957380e+003;-2.257805e-003
3.959309e+003;-2.285394e-003
3.961238e+003;-2.230512e-003
3.963166e+003;-2.024172e-003
3.965095e+003;-1.584954e-003
3.967023e+003;-2.246664e-003
3.968952e+003;-3.351860e-003
3.970880e+003;-3.581593e-003
3.972809e+003;-3.096609e-003
3.974737e+003;-2.576137e-003
3.976666e+003;-2.442717e-003
3.978594e+003;-2.206085e-003
3.980523e+003;-1.890253e-003
3.982452e+003;-2.294557e-003
3.984380e+003;-2.903583e-003
3.986309e+003;-2.991419e-003
3.988237e+003;-2.830509e-003
3.990166e+003;-2.221315e-003
3.992094e+003;-1.745138e-003
3.994023e+003;-1.753751e-003
3.995951e+003;-2.498725e-003
3.997880e+003;-3.313258e-003
3.999809e+003;-3.296455e-003
4.001737e+003;0.000000e+000
