3.992094e+002;0.000000e+000
4.011380e+002;0.000000e+000
4.030665e+002;0.000000e+000
4.049951e+002;0.000000e+000
4.069236e+002;0.000000e+000
4.088522e+002;0.000000e+000
4.107807e+002;0.000000e+000
4.127093e+002;0.000000e+000
4.146378e+002;0.000000e+000
4.165664e+002;0.000000e+000
4.184949e+002;0.000000e+000
4.204235e+002;0.000000e+000
4.223520e+002;0.000000e+000
4.242806e+002;0.000000e+000
4.262091e+002;0.000000e+000
4.281377e+002;0.000000e+000
4.300662e+002;0.000000e+000
4.319948e+002;0.000000e+000
4.339233e+002;0.000000e+000
4.358519e+002;0.000000e+000
4.377804e+002;0.000000e+000
4.397090e+002;0.000000e+000
4.416375e+002;0.000000e+000
4.435660e+002;0.000000e+000
4.454946e+002;0.000000e+000
4.474232e+002;0.000000e+000
4.493517e+002;0.000000e+000
4.512802e+002;0.000000e+000
4.532088e+002;0.000000e+000
4.551373e+002;0.000000e+000
4.570659e+002;0.000000e+000
4.589944e+002;0.000000e+000
4.609230e+002;0.000000e+000
4.628515e+002;0.000000e+000
4.647801e+002;0.000000e+000
4.667086e+002;0.000000e+000
4.686372e+002;0.000000e+000
4.705657e+002;0.000000e+000
4.724943e+002;0.000000e+000
4.744228e+002;0.000000e+000
4.763513e+002;0.000000e+000
4.782799e+002;0.000000e+000
4.802085e+002;0.000000e+000
4.821370e+002;0.000000e+000
4.840656e+002;0.000000e+000
4.859941e+002;0.000000e+000
4.879226e+002;0.000000e+000
4.898512e+002;0.000000e+000
4.917798e+002;0.000000e+000
4.937083e+002;0.000000e+000
4.956368e+002;0.000000e+000
4.975654e+002;0.000000e+000
4.994939e+002;0.000000e+000
5.014225e+002;0.000000e+000
5.033510e+002;0.000000e+000
5.052796e+002;0.000000e+000
5.072081e+002;0.000000e+000
5.091367e+002;0.000000e+000
5.110652e+002;0.000000e+000
5.129938e+002;0.000000e+000
5.149223e+002;0.000000e+000
5.168509e+002;0.000000e+000
5.187794e+002;0.000000e+000
5.207079e+002;0.000000e+000
5.226365e+002;0.000000e+000
5.245651e+002;0.000000e+000
5.264936e+002;0.000000e+000
5.284222e+002;0.000000e+000
5.303507e+002;0.000000e+000
5.322792e+002;0.000000e+000
5.342078e+002;0.000000e+000
5.361364e+002;0.000000e+000
5.380649e+002;0.000000e+000
5.399935e+002;0.000000e+000
5.419220e+002;0.000000e+000
5.438505e+002;0.000000e+000
5.457791e+002;0.000000e+000
5.477076e+002;0.000000e+000
5.496362e+002;0.000000e+000
5.515648e+002;0.000000e+000
5.534933e+002;0.000000e+000
5.554218e+002;0.000000e+000
5.573504e+002;0.000000e+000
5.592789e+002;0.000000e+000
5.612075e+002;0.000000e+000
5.631360e+002;0.000000e+000
5.650646e+002;0.000000e+000
5.669931e+002;0.000000e+000
5.689217e+002;0.000000e+000
5.708502e+002;0.000000e+000
5.727787e+002;0.000000e+000
5.747073e+002;0.000000e+000
5.766359e+002;0.000000e+000
5.785644e+002;0.000000e+000
5.804930e+002;0.000000e+000
5.824215e+002;0.000000e+000
5.843500e+002;0.000000e+000
5.862786e+002;0.000000e+000
5.882072e+002;0.000000e+000
5.901357e+002;0.000000e+000
5.920643e+002;0.000000e+000
5.939928e+002;0.000000e+000
5.959213e+002;0.000000e+000
5.978499e+002;0.000000e+000
5.997784e+002;3.650461e-001
6.017070e+002;3.565703e-001
6.036355e+002;3.582726e-001
6.055641e+002;3.605727e-001
6.074926e+002;3.672622e-001
6.094211e+002;3.710929e-001
6.113497e+002;3.687441e-001
6.132783e+002;3.653051e-001
6.152068e+002;3.619311e-001
6.171354e+002;3.569917e-001
6.190639e+002;3.555848e-001
6.209924e+002;3.562601e-001
6.229210e+002;3.569468e-001
6.248495e+002;3.507096e-001
6.267781e+002;3.459082e-001
6.287067e+002;3.462122e-001
6.306352e+002;3.456477e-001
6.325637e+002;3.427748e-001
6.344923e+002;3.402310e-001
6.364208e+002;3.358882e-001
6.383494e+002;3.311948e-001
6.402780e+002;3.296700e-001
6.422065e+002;3.318573e-001
6.441350e+002;3.329047e-001
6.460636e+002;3.315901e-001
6.479921e+002;3.282324e-001
6.499207e+002;3.274651e-001
6.518492e+002;3.313138e-001
6.537778e+002;3.349144e-001
6.557063e+002;3.383056e-001
6.576349e+002;3.385762e-001
6.595634e+002;3.374103e-001
6.614919e+002;3.409933e-001
6.634205e+002;3.443417e-001
6.653491e+002;3.436236e-001
6.672776e+002;3.402812e-001
6.692062e+002;3.358435e-001
6.711347e+002;3.315734e-001
6.730632e+002;3.261842e-001
6.749918e+002;3.194278e-001
6.769203e+002;3.147939e-001
6.788489e+002;3.112974e-001
6.807775e+002;3.069632e-001
6.827060e+002;3.044230e-001
6.846345e+002;3.032977e-001
6.865631e+002;3.024712e-001
6.884916e+002;3.005517e-001
6.904202e+002;2.989886e-001
6.923488e+002;2.984230e-001
6.942773e+002;2.981122e-001
6.962058e+002;2.969320e-001
6.981344e+002;2.956845e-001
7.000629e+002;2.941255e-001
7.019915e+002;2.913919e-001
7.039200e+002;2.897742e-001
7.058486e+002;2.885383e-001
7.077771e+002;2.870056e-001
7.097057e+002;2.848547e-001
7.116342e+002;2.824429e-001
7.135627e+002;2.801716e-001
7.154913e+002;2.767606e-001
7.174199e+002;2.729351e-001
7.193484e+002;2.694124e-001
7.212770e+002;2.653747e-001
7.232055e+002;2.618011e-001
7.251340e+002;2.572765e-001
7.270626e+002;2.514727e-001
7.289911e+002;2.463869e-001
7.309197e+002;2.421821e-001
7.328483e+002;2.391191e-001
7.347768e+002;2.373744e-001
7.367053e+002;2.354734e-001
7.386339e+002;2.321741e-001
7.405624e+002;2.281534e-001
7.424910e+002;2.257926e-001
7.444196e+002;2.247673e-001
7.463481e+002;2.231931e-001
7.482766e+002;2.221549e-001
7.502052e+002;2.205965e-001
7.521337e+002;2.182537e-001
7.540623e+002;2.161434e-001
7.559908e+002;2.140852e-001
7.579194e+002;2.113255e-001
7.598479e+002;2.096189e-001
7.617765e+002;2.087306e-001
7.637050e+002;2.075795e-001
7.656335e+002;2.050525e-001
7.675621e+002;2.029109e-001
7.694907e+002;2.019623e-001
7.714192e+002;2.013513e-001
7.733478e+002;1.999483e-001
7.752763e+002;1.984874e-001
7.772048e+002;1.977316e-001
7.791334e+002;1.963143e-001
7.810620e+002;1.948549e-001
7.829905e+002;1.944848e-001
7.849191e+002;1.943608e-001
7.868476e+002;1.933284e-001
7.887761e+002;1.927838e-001
7.907047e+002;1.924263e-001
7.926332e+002;1.917353e-001
7.945618e+002;1.911029e-001
7.964903e+002;1.904807e-001
7.984189e+002;1.896785e-001
8.003474e+002;1.898200e-001
8.022759e+002;1.898949e-001
8.042045e+002;1.893886e-001
8.061331e+002;1.888814e-001
8.080616e+002;1.886630e-001
8.099902e+002;1.882720e-001
8.119187e+002;1.877127e-001
8.138472e+002;1.875806e-001
8.157758e+002;1.875641e-001
8.177043e+002;1.871516e-001
8.196329e+002;1.868510e-001
8.215615e+002;1.863815e-001
8.234900e+002;1.854439e-001
8.254185e+002;1.852368e-001
8.273471e+002;1.842636e-001
8.292756e+002;1.828494e-001
8.312042e+002;1.826591e-001
8.331328e+002;1.824741e-001
8.350613e+002;1.819092e-001
8.369898e+002;1.811270e-001
8.389184e+002;1.805427e-001
8.408469e+002;1.798356e-001
8.427755e+002;1.795003e-001
8.447040e+002;1.794648e-001
8.466326e+002;1.793884e-001
8.485611e+002;1.790562e-001
8.504897e+002;1.787465e-001
8.524182e+002;1.788754e-001
8.543467e+002;1.791993e-001
8.562753e+002;1.786760e-001
8.582039e+002;1.785890e-001
8.601324e+002;1.796198e-001
8.620610e+002;1.808186e-001
8.639895e+002;1.815666e-001
8.659180e+002;1.823033e-001
8.678466e+002;1.835976e-001
8.697751e+002;1.855967e-001
8.717037e+002;1.872963e-001
8.736323e+002;1.896282e-001
8.755608e+002;1.924610e-001
8.774893e+002;1.955171e-001
8.794179e+002;1.985098e-001
8.813464e+002;2.016004e-001
8.832750e+002;2.050733e-001
8.852036e+002;2.095012e-001
8.871321e+002;2.141560e-001
8.890606e+002;2.183197e-001
8.909892e+002;2.226723e-001
8.929177e+002;2.269800e-001
8.948463e+002;2.302157e-001
8.967748e+002;2.314662e-001
8.987034e+002;2.317191e-001
9.006319e+002;2.316410e-001
9.025605e+002;2.306919e-001
9.044890e+002;2.287983e-001
9.064175e+002;2.262398e-001
9.083461e+002;2.235704e-001
9.102747e+002;2.211938e-001
9.122032e+002;2.184601e-001
9.141318e+002;2.155257e-001
9.160603e+002;2.130738e-001
9.179888e+002;2.108226e-001
9.199174e+002;2.098825e-001
9.218459e+002;2.093673e-001
9.237745e+002;2.090414e-001
9.257031e+002;2.098505e-001
9.276316e+002;2.111329e-001
9.295601e+002;2.120071e-001
9.314887e+002;2.128227e-001
9.334172e+002;2.135018e-001
9.353458e+002;2.142749e-001
9.372744e+002;2.150675e-001
9.392029e+002;2.158676e-001
9.411314e+002;2.170061e-001
9.430600e+002;2.185862e-001
9.449885e+002;2.205085e-001
9.469171e+002;2.230410e-001
9.488456e+002;2.259945e-001
9.507742e+002;2.292863e-001
9.527027e+002;2.332451e-001
9.546313e+002;2.374252e-001
9.565598e+002;2.420497e-001
9.584883e+002;2.474891e-001
9.604169e+002;2.532173e-001
9.623455e+002;2.591477e-001
9.642740e+002;2.655844e-001
9.662026e+002;2.726562e-001
9.681311e+002;2.806842e-001
9.700596e+002;2.897365e-001
9.719882e+002;3.005306e-001
9.739167e+002;3.137282e-001
9.758453e+002;3.294955e-001
9.777739e+002;3.477413e-001
9.797024e+002;3.682666e-001
9.816309e+002;3.892254e-001
9.835595e+002;4.076611e-001
9.854880e+002;4.217459e-001
9.874166e+002;4.318871e-001
9.893452e+002;4.396811e-001
9.912737e+002;4.476501e-001
9.932022e+002;4.561723e-001
9.951307e+002;4.637181e-001
9.970593e+002;4.697431e-001
9.989879e+002;4.747458e-001
1.000916e+003;4.788885e-001
1.002845e+003;4.820908e-001
1.004773e+003;4.842700e-001
1.006702e+003;4.874060e-001
1.008631e+003;4.919380e-001
1.010559e+003;4.971782e-001
1.012488e+003;5.022063e-001
1.014416e+003;5.072336e-001
1.016345e+003;5.121208e-001
1.018273e+003;5.173947e-001
1.020202e+003;5.231521e-001
1.022130e+003;5.287695e-001
1.024059e+003;5.352046e-001
1.025988e+003;5.395923e-001
1.027916e+003;5.419952e-001
1.029845e+003;5.448439e-001
1.031773e+003;5.460966e-001
1.033702e+003;5.443086e-001
1.035630e+003;5.399505e-001
1.037559e+003;5.340368e-001
1.039487e+003;5.267645e-001
1.041416e+003;5.201510e-001
1.043344e+003;5.160375e-001
1.045273e+003;5.152940e-001
1.047202e+003;5.174594e-001
1.049130e+003;5.210795e-001
1.051059e+003;5.233088e-001
1.052987e+003;5.250537e-001
1.054916e+003;5.260458e-001
1.056844e+003;5.238965e-001
1.058773e+003;5.175636e-001
1.060701e+003;5.060287e-001
1.062630e+003;4.905976e-001
1.064558e+003;4.733045e-001
1.066487e+003;4.555283e-001
1.068416e+003;4.394861e-001
1.070344e+003;4.261022e-001
1.072273e+003;4.151469e-001
1.074201e+003;4.062998e-001
1.076130e+003;3.988672e-001
1.078058e+003;3.920938e-001
1.079987e+003;3.858993e-001
1.081915e+003;3.809307e-001
1.083844e+003;3.770569e-001
1.085773e+003;3.745770e-001
1.087701e+003;3.735830e-001
1.089630e+003;3.724716e-001
1.091558e+003;3.714191e-001
1.093487e+003;3.708458e-001
1.095415e+003;3.706983e-001
1.097344e+003;3.717813e-001
1.099272e+003;3.729676e-001
1.101201e+003;3.735035e-001
1.103129e+003;3.733083e-001
1.105058e+003;3.721825e-001
1.106987e+003;3.699058e-001
1.108915e+003;3.671282e-001
1.110844e+003;3.635598e-001
1.112772e+003;3.587520e-001
1.114701e+003;3.518392e-001
1.116629e+003;3.431034e-001
1.118558e+003;3.330606e-001
1.120486e+003;3.228248e-001
1.122415e+003;3.136710e-001
1.124344e+003;3.048285e-001
1.126272e+003;2.954403e-001
1.128201e+003;2.861801e-001
1.130129e+003;2.777289e-001
1.132058e+003;2.707964e-001
1.133986e+003;2.652944e-001
1.135915e+003;2.608183e-001
1.137843e+003;2.574337e-001
1.139772e+003;2.552438e-001
1.141700e+003;2.541113e-001
1.143629e+003;2.544106e-001
1.145557e+003;2.557110e-001
1.147486e+003;2.576049e-001
1.149415e+003;2.589070e-001
1.151343e+003;2.595363e-001
1.153272e+003;2.605222e-001
1.155200e+003;2.623157e-001
1.157129e+003;2.634864e-001
1.159057e+003;2.635859e-001
1.160986e+003;2.631931e-001
1.162914e+003;2.615823e-001
1.164843e+003;2.572834e-001
1.166771e+003;2.504100e-001
1.168700e+003;2.422541e-001
1.170629e+003;2.338510e-001
1.172557e+003;2.253607e-001
1.174486e+003;2.176446e-001
1.176414e+003;2.113459e-001
1.178343e+003;2.063114e-001
1.180271e+003;2.021544e-001
1.182200e+003;1.986181e-001
1.184128e+003;1.965722e-001
1.186057e+003;1.954858e-001
1.187986e+003;1.951357e-001
1.189914e+003;1.963258e-001
1.191843e+003;1.985880e-001
1.193771e+003;2.013481e-001
1.195700e+003;2.043520e-001
1.197628e+003;2.067740e-001
1.199557e+003;2.083699e-001
1.201485e+003;2.091523e-001
1.203414e+003;2.094576e-001
1.205343e+003;2.093493e-001
1.207271e+003;2.080070e-001
1.209200e+003;2.048416e-001
1.211128e+003;2.000144e-001
1.213057e+003;1.953231e-001
1.214985e+003;1.923861e-001
1.216914e+003;1.913258e-001
1.218842e+003;1.921017e-001
1.220771e+003;1.935226e-001
1.222699e+003;1.948307e-001
1.224628e+003;1.970595e-001
1.226557e+003;1.996382e-001
1.228485e+003;2.019439e-001
1.230414e+003;2.040344e-001
1.232342e+003;2.059765e-001
1.234271e+003;2.074210e-001
1.236199e+003;2.081897e-001
1.238128e+003;2.085269e-001
1.240056e+003;2.086022e-001
1.241985e+003;2.090339e-001
1.243913e+003;2.100252e-001
1.245842e+003;2.112511e-001
1.247771e+003;2.125862e-001
1.249699e+003;2.131465e-001
1.251628e+003;2.132292e-001
1.253556e+003;2.135198e-001
1.255485e+003;2.141010e-001
1.257413e+003;2.145852e-001
1.259342e+003;2.149585e-001
1.261270e+003;2.153369e-001
1.263199e+003;2.148313e-001
1.265127e+003;2.142166e-001
1.267056e+003;2.140003e-001
1.268985e+003;2.137953e-001
1.270913e+003;2.139190e-001
1.272842e+003;2.149349e-001
1.274770e+003;2.159308e-001
1.276699e+003;2.161936e-001
1.278627e+003;2.157789e-001
1.280556e+003;2.151261e-001
1.282484e+003;2.140487e-001
1.284413e+003;2.125303e-001
1.286342e+003;2.116880e-001
1.288270e+003;2.115558e-001
1.290199e+003;2.114521e-001
1.292127e+003;2.116297e-001
1.294056e+003;2.122029e-001
1.295984e+003;2.131474e-001
1.297913e+003;2.147788e-001
1.299841e+003;2.172875e-001
1.301770e+003;2.206826e-001
1.303698e+003;2.248503e-001
1.305627e+003;2.293180e-001
1.307556e+003;2.339938e-001
1.309484e+003;2.387693e-001
1.311413e+003;2.431606e-001
1.313341e+003;2.465995e-001
1.315270e+003;2.485209e-001
1.317198e+003;2.485276e-001
1.319127e+003;2.466897e-001
1.321055e+003;2.436082e-001
1.322984e+003;2.398152e-001
1.324912e+003;2.364390e-001
1.326841e+003;2.343262e-001
1.328770e+003;2.336412e-001
1.330698e+003;2.340987e-001
1.332627e+003;2.352138e-001
1.334555e+003;2.360827e-001
1.336484e+003;2.362784e-001
1.338412e+003;2.353983e-001
1.340341e+003;2.338253e-001
1.342269e+003;2.319955e-001
1.344198e+003;2.298820e-001
1.346126e+003;2.275038e-001
1.348055e+003;2.254241e-001
1.349984e+003;2.240229e-001
1.351912e+003;2.237532e-001
1.353841e+003;2.247351e-001
1.355769e+003;2.262150e-001
1.357698e+003;2.274189e-001
1.359626e+003;2.279568e-001
1.361555e+003;2.277423e-001
1.363483e+003;2.270546e-001
1.365412e+003;2.261239e-001
1.367341e+003;2.251230e-001
1.369269e+003;2.245937e-001
1.371198e+003;2.235757e-001
1.373126e+003;2.211180e-001
1.375055e+003;2.182992e-001
1.376983e+003;2.156086e-001
1.378912e+003;2.122303e-001
1.380840e+003;2.087342e-001
1.382769e+003;2.054519e-001
1.384698e+003;2.021318e-001
1.386626e+003;1.984483e-001
1.388555e+003;1.962911e-001
1.390483e+003;1.953830e-001
1.392412e+003;1.937512e-001
1.394340e+003;1.919738e-001
1.396269e+003;1.919279e-001
1.398197e+003;1.921298e-001
1.400126e+003;1.929077e-001
1.402054e+003;1.937552e-001
1.403983e+003;1.937569e-001
1.405911e+003;1.943769e-001
1.407840e+003;1.951424e-001
1.409769e+003;1.954102e-001
1.411697e+003;1.957915e-001
1.413626e+003;1.967398e-001
1.415554e+003;1.976378e-001
1.417483e+003;1.969977e-001
1.419411e+003;1.972751e-001
1.421340e+003;2.012306e-001
1.423268e+003;2.040285e-001
1.425197e+003;2.053219e-001
1.427125e+003;2.064397e-001
1.429054e+003;2.065091e-001
1.430983e+003;2.062933e-001
1.432911e+003;2.053909e-001
1.434840e+003;2.020526e-001
1.436768e+003;1.988957e-001
1.438697e+003;1.992608e-001
1.440625e+003;1.989155e-001
1.442554e+003;1.976424e-001
1.444482e+003;1.965343e-001
1.446411e+003;1.953898e-001
1.448340e+003;1.947206e-001
1.450268e+003;1.948972e-001
1.452197e+003;1.943999e-001
1.454125e+003;1.918412e-001
1.456054e+003;1.862678e-001
1.457982e+003;1.857304e-001
1.459911e+003;1.887882e-001
1.461839e+003;1.884567e-001
1.463768e+003;1.851579e-001
1.465697e+003;1.828136e-001
1.467625e+003;1.812491e-001
1.469554e+003;1.777009e-001
1.471482e+003;1.716340e-001
1.473411e+003;1.675282e-001
1.475339e+003;1.662152e-001
1.477268e+003;1.648941e-001
1.479196e+003;1.636143e-001
1.481125e+003;1.615309e-001
1.483053e+003;1.590063e-001
1.484982e+003;1.549769e-001
1.486911e+003;1.503249e-001
1.488839e+003;1.464476e-001
1.490768e+003;1.445779e-001
1.492696e+003;1.439437e-001
1.494625e+003;1.408915e-001
1.496553e+003;1.379707e-001
1.498482e+003;1.382810e-001
1.500410e+003;1.388649e-001
1.502339e+003;1.381837e-001
1.504267e+003;1.333117e-001
1.506196e+003;1.282108e-001
1.508125e+003;1.306297e-001
1.510053e+003;1.342326e-001
1.511982e+003;1.348623e-001
1.513910e+003;1.345740e-001
1.515839e+003;1.329824e-001
1.517767e+003;1.320259e-001
1.519696e+003;1.297189e-001
1.521624e+003;1.280544e-001
1.523553e+003;1.302887e-001
1.525481e+003;1.312798e-001
1.527410e+003;1.318932e-001
1.529339e+003;1.326537e-001
1.531267e+003;1.323126e-001
1.533196e+003;1.308756e-001
1.535124e+003;1.314608e-001
1.537053e+003;1.292223e-001
1.538981e+003;1.238629e-001
1.540910e+003;1.244146e-001
1.542838e+003;1.286223e-001
1.544767e+003;1.311191e-001
1.546695e+003;1.330320e-001
1.548624e+003;1.335346e-001
1.550553e+003;1.331405e-001
1.552481e+003;1.323880e-001
1.554410e+003;1.311421e-001
1.556338e+003;1.282594e-001
1.558267e+003;1.230881e-001
1.560195e+003;1.257858e-001
1.562124e+003;1.326577e-001
1.564052e+003;1.344872e-001
1.565981e+003;1.344322e-001
1.567910e+003;1.335771e-001
1.569838e+003;1.329399e-001
1.571767e+003;1.345632e-001
1.573695e+003;1.334715e-001
1.575624e+003;1.302170e-001
1.577552e+003;1.324218e-001
1.579481e+003;1.356992e-001
1.581409e+003;1.363634e-001
1.583338e+003;1.367965e-001
1.585266e+003;1.373988e-001
1.587195e+003;1.377527e-001
1.589124e+003;1.375990e-001
1.591052e+003;1.377384e-001
1.592981e+003;1.379753e-001
1.594909e+003;1.381976e-001
1.596838e+003;1.387986e-001
1.598766e+003;1.394760e-001
1.600695e+003;1.397824e-001
1.602623e+003;1.400872e-001
1.604552e+003;1.402402e-001
1.606480e+003;1.404553e-001
1.608409e+003;1.409617e-001
1.610338e+003;1.415668e-001
1.612266e+003;1.418880e-001
1.614195e+003;1.403393e-001
1.616123e+003;1.377317e-001
1.618052e+003;1.401588e-001
1.619980e+003;1.431193e-001
1.621909e+003;1.422690e-001
1.623837e+003;1.420570e-001
1.625766e+003;1.434581e-001
1.627694e+003;1.439880e-001
1.629623e+003;1.448046e-001
1.631552e+003;1.451441e-001
1.633480e+003;1.425030e-001
1.635409e+003;1.398478e-001
1.637337e+003;1.422436e-001
1.639266e+003;1.448546e-001
1.641194e+003;1.454755e-001
1.643123e+003;1.446033e-001
1.645051e+003;1.413837e-001
1.646980e+003;1.402580e-001
1.648909e+003;1.418263e-001
1.650837e+003;1.374410e-001
1.652766e+003;1.311114e-001
1.654694e+003;1.361499e-001
1.656623e+003;1.417438e-001
1.658551e+003;1.420480e-001
1.660480e+003;1.403637e-001
1.662408e+003;1.384228e-001
1.664337e+003;1.384049e-001
1.666266e+003;1.380559e-001
1.668194e+003;1.353045e-001
1.670123e+003;1.338217e-001
1.672051e+003;1.340120e-001
1.673980e+003;1.320334e-001
1.675908e+003;1.311951e-001
1.677837e+003;1.325125e-001
1.679765e+003;1.315077e-001
1.681694e+003;1.280503e-001
1.683622e+003;1.224435e-001
1.685551e+003;1.233131e-001
1.687479e+003;1.273034e-001
1.689408e+003;1.276511e-001
1.691337e+003;1.274198e-001
1.693265e+003;1.249006e-001
1.695194e+003;1.199902e-001
1.697122e+003;1.198412e-001
1.699051e+003;1.182485e-001
1.700979e+003;1.183240e-001
1.702908e+003;1.226264e-001
1.704836e+003;1.229375e-001
1.706765e+003;1.235985e-001
1.708693e+003;1.244191e-001
1.710622e+003;1.247151e-001
1.712551e+003;1.241081e-001
1.714479e+003;1.221301e-001
1.716408e+003;1.191666e-001
1.718336e+003;1.200044e-001
1.720265e+003;1.241182e-001
1.722193e+003;1.261444e-001
1.724122e+003;1.267201e-001
1.726050e+003;1.272338e-001
1.727979e+003;1.272198e-001
1.729908e+003;1.268823e-001
1.731836e+003;1.244624e-001
1.733765e+003;1.216943e-001
1.735693e+003;1.249476e-001
1.737622e+003;1.270496e-001
1.739550e+003;1.256625e-001
1.741479e+003;1.255055e-001
1.743407e+003;1.248752e-001
1.745336e+003;1.233662e-001
1.747265e+003;1.212534e-001
1.749193e+003;1.187725e-001
1.751122e+003;1.169068e-001
1.753050e+003;1.172941e-001
1.754979e+003;1.166765e-001
1.756907e+003;1.153721e-001
1.758836e+003;1.147680e-001
1.760764e+003;1.133783e-001
1.762693e+003;1.133336e-001
1.764621e+003;1.141800e-001
1.766550e+003;1.129465e-001
1.768479e+003;1.118387e-001
1.770407e+003;1.106215e-001
1.772336e+003;1.094754e-001
1.774264e+003;1.114297e-001
1.776193e+003;1.129578e-001
1.778121e+003;1.131085e-001
1.780050e+003;1.126408e-001
1.781978e+003;1.126036e-001
1.783907e+003;1.124293e-001
1.785835e+003;1.123850e-001
1.787764e+003;1.124562e-001
1.789693e+003;1.111308e-001
1.791621e+003;1.094669e-001
1.793550e+003;1.101422e-001
1.795478e+003;1.114482e-001
1.797407e+003;1.113526e-001
1.799335e+003;1.109964e-001
1.801264e+003;1.109027e-001
1.803192e+003;1.114966e-001
1.805121e+003;1.117307e-001
1.807049e+003;1.116616e-001
1.808978e+003;1.113277e-001
1.810907e+003;1.110732e-001
1.812835e+003;1.111321e-001
1.814764e+003;1.112103e-001
1.816692e+003;1.112047e-001
1.818621e+003;1.115316e-001
1.820549e+003;1.114623e-001
1.822478e+003;1.109534e-001
1.824406e+003;1.102249e-001
1.826335e+003;1.103906e-001
1.828264e+003;1.099966e-001
1.830192e+003;1.095677e-001
1.832121e+003;1.103394e-001
1.834049e+003;1.106505e-001
1.835978e+003;1.103377e-001
1.837906e+003;1.103375e-001
1.839835e+003;1.104417e-001
1.841763e+003;1.092021e-001
1.843692e+003;1.076378e-001
1.845620e+003;1.087451e-001
1.847549e+003;1.097920e-001
1.849478e+003;1.098299e-001
1.851406e+003;1.097767e-001
1.853335e+003;1.098532e-001
1.855263e+003;1.100372e-001
1.857192e+003;1.101117e-001
1.859120e+003;1.101894e-001
1.861049e+003;1.102229e-001
1.862977e+003;1.098593e-001
1.864906e+003;1.092908e-001
1.866834e+003;1.083823e-001
1.868763e+003;1.078196e-001
1.870692e+003;1.085765e-001
1.872620e+003;1.092273e-001
1.874549e+003;1.091011e-001
1.876477e+003;1.090344e-001
1.878406e+003;1.090965e-001
1.880334e+003;1.091428e-001
1.882263e+003;1.091389e-001
1.884191e+003;1.091047e-001
1.886120e+003;1.090625e-001
1.888048e+003;1.086151e-001
1.889977e+003;1.084692e-001
1.891906e+003;1.089574e-001
1.893834e+003;1.091797e-001
1.895763e+003;1.092329e-001
1.897691e+003;1.090377e-001
1.899620e+003;1.088713e-001
1.901548e+003;1.087856e-001
1.903477e+003;1.087746e-001
1.905405e+003;1.087252e-001
1.907334e+003;1.085185e-001
1.909262e+003;1.080823e-001
1.911191e+003;1.083102e-001
1.913120e+003;1.086304e-001
1.915048e+003;1.084435e-001
1.916977e+003;1.076792e-001
1.918905e+003;1.078075e-001
1.920834e+003;1.084482e-001
1.922762e+003;1.086579e-001
1.924691e+003;1.090337e-001
1.926619e+003;1.090373e-001
1.928548e+003;1.089267e-001
1.930477e+003;1.090018e-001
1.932405e+003;1.091005e-001
1.934334e+003;1.090054e-001
1.936262e+003;1.089161e-001
1.938191e+003;1.089802e-001
1.940119e+003;1.088393e-001
1.942048e+003;1.084764e-001
1.943976e+003;1.087420e-001
1.945905e+003;1.091473e-001
1.947833e+003;1.092039e-001
1.949762e+003;1.092026e-001
1.951691e+003;1.089713e-001
1.953619e+003;1.089634e-001
1.955548e+003;1.092364e-001
1.957476e+003;1.092101e-001
1.959405e+003;1.090997e-001
1.961333e+003;1.091380e-001
1.963262e+003;1.090795e-001
1.965190e+003;1.090972e-001
1.967119e+003;1.092675e-001
1.969047e+003;1.094393e-001
1.970976e+003;1.095407e-001
1.972905e+003;1.093920e-001
1.974833e+003;1.092358e-001
1.976762e+003;1.091691e-001
1.978690e+003;1.093124e-001
1.980619e+003;1.095414e-001
1.982547e+003;1.096923e-001
1.984476e+003;1.097808e-001
1.986404e+003;1.095578e-001
1.988333e+003;1.094336e-001
1.990261e+003;1.092898e-001
1.992190e+003;1.091383e-001
1.994119e+003;1.094102e-001
1.996047e+003;1.095010e-001
1.997976e+003;1.094845e-001
1.999904e+003;1.095670e-001
2.001833e+003;1.094721e-001
2.003761e+003;1.094752e-001
2.005690e+003;1.094394e-001
2.007618e+003;1.096044e-001
2.009547e+003;1.098741e-001
2.011476e+003;1.099041e-001
2.013404e+003;1.098739e-001
2.015333e+003;1.099103e-001
2.017261e+003;1.098954e-001
2.019190e+003;1.101224e-001
2.021118e+003;1.102389e-001
2.023047e+003;1.101806e-001
2.024975e+003;1.100903e-001
2.026904e+003;1.098060e-001
2.028833e+003;1.097571e-001
2.030761e+003;1.102633e-001
2.032690e+003;1.104321e-001
2.034618e+003;1.101831e-001
2.036547e+003;1.101925e-001
2.038475e+003;1.104204e-001
2.040404e+003;1.103407e-001
2.042332e+003;1.102723e-001
2.044261e+003;1.104058e-001
2.046189e+003;1.105657e-001
2.048118e+003;1.106524e-001
2.050047e+003;1.105856e-001
2.051975e+003;1.104319e-001
2.053904e+003;1.103593e-001
2.055832e+003;1.102199e-001
2.057761e+003;1.102695e-001
2.059689e+003;1.101357e-001
2.061618e+003;1.102190e-001
2.063546e+003;1.103268e-001
2.065475e+003;1.100640e-001
2.067404e+003;1.099765e-001
2.069332e+003;1.099918e-001
2.071260e+003;1.100175e-001
2.073189e+003;1.097959e-001
2.075118e+003;1.095652e-001
2.077046e+003;1.095362e-001
2.078975e+003;1.096013e-001
2.080903e+003;1.096577e-001
2.082832e+003;1.095288e-001
2.084760e+003;1.094622e-001
2.086689e+003;1.096540e-001
2.088617e+003;1.096094e-001
2.090546e+003;1.093786e-001
2.092475e+003;1.092424e-001
2.094403e+003;1.090301e-001
2.096332e+003;1.088459e-001
2.098260e+003;1.088455e-001
2.100189e+003;1.090539e-001
2.102117e+003;1.090625e-001
2.104046e+003;1.089929e-001
2.105974e+003;1.091070e-001
2.107903e+003;1.094851e-001
2.109832e+003;1.097156e-001
2.111760e+003;1.093967e-001
2.113688e+003;1.091241e-001
2.115617e+003;1.093735e-001
2.117546e+003;1.094240e-001
2.119474e+003;1.094477e-001
2.121403e+003;1.094720e-001
2.123331e+003;1.095139e-001
2.125260e+003;1.094860e-001
2.127188e+003;1.092759e-001
2.129117e+003;1.093330e-001
2.131045e+003;1.096477e-001
2.132974e+003;1.096547e-001
2.134903e+003;1.095024e-001
2.136831e+003;1.095475e-001
2.138760e+003;1.094364e-001
2.140688e+003;1.092522e-001
2.142617e+003;1.092201e-001
2.144545e+003;1.092769e-001
2.146474e+003;1.092760e-001
2.148402e+003;1.091738e-001
2.150331e+003;1.090439e-001
2.152260e+003;1.090098e-001
2.154188e+003;1.088969e-001
2.156117e+003;1.086501e-001
2.158045e+003;1.083594e-001
2.159974e+003;1.083037e-001
2.161902e+003;1.084391e-001
2.163831e+003;1.085271e-001
2.165759e+003;1.084108e-001
2.167688e+003;1.081023e-001
2.169616e+003;1.079616e-001
2.171545e+003;1.077917e-001
2.173474e+003;1.075925e-001
2.175402e+003;1.074280e-001
2.177331e+003;1.074260e-001
2.179259e+003;1.073110e-001
2.181188e+003;1.070563e-001
2.183116e+003;1.068620e-001
2.185045e+003;1.067271e-001
2.186973e+003;1.065917e-001
2.188902e+003;1.065482e-001
2.190831e+003;1.066342e-001
2.192759e+003;1.065859e-001
2.194688e+003;1.064695e-001
2.196616e+003;1.063054e-001
2.198545e+003;1.061782e-001
2.200473e+003;1.062269e-001
2.202402e+003;1.062009e-001
2.204330e+003;1.060464e-001
2.206259e+003;1.060535e-001
2.208188e+003;1.062618e-001
2.210116e+003;1.063735e-001
2.212044e+003;1.061909e-001
2.213973e+003;1.057860e-001
2.215902e+003;1.055801e-001
2.217830e+003;1.055978e-001
2.219759e+003;1.054025e-001
2.221687e+003;1.054187e-001
2.223616e+003;1.056975e-001
2.225544e+003;1.057422e-001
2.227473e+003;1.057090e-001
2.229401e+003;1.055602e-001
2.231330e+003;1.054327e-001
2.233259e+003;1.055138e-001
2.235187e+003;1.054552e-001
2.237116e+003;1.051814e-001
2.239044e+003;1.051345e-001
2.240973e+003;1.052467e-001
2.242901e+003;1.055039e-001
2.244830e+003;1.054262e-001
2.246758e+003;1.052696e-001
2.248687e+003;1.053598e-001
2.250615e+003;1.054254e-001
2.252544e+003;1.053054e-001
2.254473e+003;1.050407e-001
2.256401e+003;1.045665e-001
2.258330e+003;1.043791e-001
2.260258e+003;1.046304e-001
2.262187e+003;1.047125e-001
2.264115e+003;1.045682e-001
2.266044e+003;1.045721e-001
2.267972e+003;1.046935e-001
2.269901e+003;1.046335e-001
2.271830e+003;1.044184e-001
2.273758e+003;1.044593e-001
2.275687e+003;1.045654e-001
2.277615e+003;1.042783e-001
2.279544e+003;1.039840e-001
2.281472e+003;1.040019e-001
2.283401e+003;1.043946e-001
2.285329e+003;1.044378e-001
2.287258e+003;1.039234e-001
2.289187e+003;1.040353e-001
2.291115e+003;1.045947e-001
2.293043e+003;1.046808e-001
2.294972e+003;1.043579e-001
2.296901e+003;1.039432e-001
2.298829e+003;1.037789e-001
2.300758e+003;1.039778e-001
2.302686e+003;1.038965e-001
2.304615e+003;1.035582e-001
2.306543e+003;1.036821e-001
2.308472e+003;1.038506e-001
2.310400e+003;1.036893e-001
2.312329e+003;1.035717e-001
2.314258e+003;1.035523e-001
2.316186e+003;1.033303e-001
2.318115e+003;1.030539e-001
2.320043e+003;1.030030e-001
2.321972e+003;1.030811e-001
2.323900e+003;1.032248e-001
2.325829e+003;1.033875e-001
2.327757e+003;1.032093e-001
2.329686e+003;1.029139e-001
2.331615e+003;1.028529e-001
2.333543e+003;1.027347e-001
2.335472e+003;1.028961e-001
2.337400e+003;1.034468e-001
2.339329e+003;1.034232e-001
2.341257e+003;1.033031e-001
2.343186e+003;1.036486e-001
2.345114e+003;1.040005e-001
2.347043e+003;1.045099e-001
2.348971e+003;1.049279e-001
2.350900e+003;1.046922e-001
2.352829e+003;1.042161e-001
2.354757e+003;1.040303e-001
2.356686e+003;1.040101e-001
2.358614e+003;1.038368e-001
2.360543e+003;1.038171e-001
2.362471e+003;1.039557e-001
2.364400e+003;1.042409e-001
2.366328e+003;1.045819e-001
2.368257e+003;1.049450e-001
2.370186e+003;1.053275e-001
2.372114e+003;1.056016e-001
2.374042e+003;1.056531e-001
2.375971e+003;1.061128e-001
2.377900e+003;1.065916e-001
2.379828e+003;1.067848e-001
2.381757e+003;1.068278e-001
2.383685e+003;1.067787e-001
2.385614e+003;1.068647e-001
2.387542e+003;1.070401e-001
2.389471e+003;1.070310e-001
2.391399e+003;1.069583e-001
2.393328e+003;1.070747e-001
2.395257e+003;1.072785e-001
2.397185e+003;1.073769e-001
2.399114e+003;1.070728e-001
2.401042e+003;1.070253e-001
2.402971e+003;1.075991e-001
2.404899e+003;1.077942e-001
2.406828e+003;1.080312e-001
2.408756e+003;1.082664e-001
2.410685e+003;1.080611e-001
2.412614e+003;1.080428e-001
2.414542e+003;1.082412e-001
2.416471e+003;1.084990e-001
2.418399e+003;1.086648e-001
2.420328e+003;1.085803e-001
2.422256e+003;1.086204e-001
2.424185e+003;1.088317e-001
2.426113e+003;1.089449e-001
2.428042e+003;1.089928e-001
2.429970e+003;1.090015e-001
2.431899e+003;1.090315e-001
2.433828e+003;1.091264e-001
2.435756e+003;1.092835e-001
2.437685e+003;1.095209e-001
2.439613e+003;1.095509e-001
2.441542e+003;1.094867e-001
2.443470e+003;1.096873e-001
2.445399e+003;1.101067e-001
2.447327e+003;1.105001e-001
2.449256e+003;1.106414e-001
2.451185e+003;1.107154e-001
2.453113e+003;1.107153e-001
2.455042e+003;1.104692e-001
2.456970e+003;1.104422e-001
2.458899e+003;1.106401e-001
2.460827e+003;1.108162e-001
2.462756e+003;1.107257e-001
2.464684e+003;1.104915e-001
2.466613e+003;1.103815e-001
2.468542e+003;1.106471e-001
2.470470e+003;1.113676e-001
2.472398e+003;1.116602e-001
2.474327e+003;1.116503e-001
2.476256e+003;1.115371e-001
2.478184e+003;1.116574e-001
2.480113e+003;1.119945e-001
2.482041e+003;1.122641e-001
2.483970e+003;1.120422e-001
2.485898e+003;1.119719e-001
2.487827e+003;1.123870e-001
2.489755e+003;1.125923e-001
2.491684e+003;1.125775e-001
2.493613e+003;1.125131e-001
2.495541e+003;1.122911e-001
2.497470e+003;1.122743e-001
2.499398e+003;1.126375e-001
2.501327e+003;1.128411e-001
2.503255e+003;1.128727e-001
2.505184e+003;1.129042e-001
2.507112e+003;1.130796e-001
2.509041e+003;1.133399e-001
2.510969e+003;1.136364e-001
2.512898e+003;1.137076e-001
2.514827e+003;1.136569e-001
2.516755e+003;1.137115e-001
2.518684e+003;1.136906e-001
2.520612e+003;1.137025e-001
2.522541e+003;1.139870e-001
2.524469e+003;1.143601e-001
2.526398e+003;1.143862e-001
2.528326e+003;1.142854e-001
2.530255e+003;1.141476e-001
2.532184e+003;1.142645e-001
2.534112e+003;1.144720e-001
2.536041e+003;1.145895e-001
2.537969e+003;1.145583e-001
2.539898e+003;1.143821e-001
2.541826e+003;1.143614e-001
2.543755e+003;1.146407e-001
2.545683e+003;1.149602e-001
2.547612e+003;1.150882e-001
2.549541e+003;1.150625e-001
2.551469e+003;1.149262e-001
2.553397e+003;1.147970e-001
2.555326e+003;1.147481e-001
2.557255e+003;1.148749e-001
2.559183e+003;1.148690e-001
2.561112e+003;1.149102e-001
2.563040e+003;1.149860e-001
2.564969e+003;1.151126e-001
2.566897e+003;1.150293e-001
2.568826e+003;1.149252e-001
2.570754e+003;1.149469e-001
2.572683e+003;1.148005e-001
2.574612e+003;1.149239e-001
2.576540e+003;1.153495e-001
2.578469e+003;1.155182e-001
2.580397e+003;1.155768e-001
2.582326e+003;1.156513e-001
2.584254e+003;1.154898e-001
2.586183e+003;1.156070e-001
2.588111e+003;1.159130e-001
2.590040e+003;1.158063e-001
2.591969e+003;1.159134e-001
2.593897e+003;1.162420e-001
2.595826e+003;1.165687e-001
2.597754e+003;1.167363e-001
2.599683e+003;1.167853e-001
2.601611e+003;1.168394e-001
2.603540e+003;1.169048e-001
2.605468e+003;1.167834e-001
2.607397e+003;1.167135e-001
2.609325e+003;1.169504e-001
2.611254e+003;1.171245e-001
2.613183e+003;1.171570e-001
2.615111e+003;1.169813e-001
2.617040e+003;1.168042e-001
2.618968e+003;1.170368e-001
2.620897e+003;1.175433e-001
2.622825e+003;1.178782e-001
2.624754e+003;1.179687e-001
2.626682e+003;1.179629e-001
2.628611e+003;1.180321e-001
2.630540e+003;1.183293e-001
2.632468e+003;1.184423e-001
2.634396e+003;1.185113e-001
2.636325e+003;1.185878e-001
2.638254e+003;1.186279e-001
2.640182e+003;1.187622e-001
2.642111e+003;1.190410e-001
2.644039e+003;1.192901e-001
2.645968e+003;1.192866e-001
2.647896e+003;1.192642e-001
2.649825e+003;1.197970e-001
2.651753e+003;1.201107e-001
2.653682e+003;1.200083e-001
2.655611e+003;1.200129e-001
2.657539e+003;1.200774e-001
2.659468e+003;1.203418e-001
2.661396e+003;1.204847e-001
2.663325e+003;1.206509e-001
2.665253e+003;1.209600e-001
2.667182e+003;1.209849e-001
2.669110e+003;1.210347e-001
2.671039e+003;1.214069e-001
2.672968e+003;1.214964e-001
2.674896e+003;1.213776e-001
2.676825e+003;1.214784e-001
2.678753e+003;1.217059e-001
2.680682e+003;1.218417e-001
2.682610e+003;1.223633e-001
2.684539e+003;1.228402e-001
2.686467e+003;1.226334e-001
2.688396e+003;1.225460e-001
2.690324e+003;1.230435e-001
2.692253e+003;1.235677e-001
2.694182e+003;1.235049e-001
2.696110e+003;1.234760e-001
2.698039e+003;1.239277e-001
2.699967e+003;1.241038e-001
2.701896e+003;1.241803e-001
2.703824e+003;1.242632e-001
2.705753e+003;1.244176e-001
2.707681e+003;1.244936e-001
2.709610e+003;1.246025e-001
2.711539e+003;1.248408e-001
2.713467e+003;1.250791e-001
2.715396e+003;1.253693e-001
2.717324e+003;1.255857e-001
2.719253e+003;1.260020e-001
2.721181e+003;1.262730e-001
2.723110e+003;1.261678e-001
2.725038e+003;1.261527e-001
2.726967e+003;1.263407e-001
2.728896e+003;1.266769e-001
2.730824e+003;1.270080e-001
2.732752e+003;1.273908e-001
2.734681e+003;1.274820e-001
2.736610e+003;1.275410e-001
2.738538e+003;1.278927e-001
2.740467e+003;1.279984e-001
2.742395e+003;1.277329e-001
2.744324e+003;1.276053e-001
2.746252e+003;1.278191e-001
2.748181e+003;1.279467e-001
2.750109e+003;1.277123e-001
2.752038e+003;1.278740e-001
2.753967e+003;1.284098e-001
2.755895e+003;1.288655e-001
2.757824e+003;1.288186e-001
2.759752e+003;1.285135e-001
2.761681e+003;1.284639e-001
2.763609e+003;1.288098e-001
2.765538e+003;1.293339e-001
2.767466e+003;1.294081e-001
2.769395e+003;1.291182e-001
2.771323e+003;1.291705e-001
2.773252e+003;1.294874e-001
2.775181e+003;1.297820e-001
2.777109e+003;1.299085e-001
2.779038e+003;1.298730e-001
2.780966e+003;1.301671e-001
2.782895e+003;1.308684e-001
2.784823e+003;1.312182e-001
2.786752e+003;1.314773e-001
2.788680e+003;1.316693e-001
2.790609e+003;1.320564e-001
2.792538e+003;1.325524e-001
2.794466e+003;1.327099e-001
2.796395e+003;1.328602e-001
2.798323e+003;1.334254e-001
2.800252e+003;1.338649e-001
2.802180e+003;1.342755e-001
2.804109e+003;1.349222e-001
2.806037e+003;1.353078e-001
2.807966e+003;1.355360e-001
2.809895e+003;1.359203e-001
2.811823e+003;1.366657e-001
2.813751e+003;1.372160e-001
2.815680e+003;1.377122e-001
2.817609e+003;1.383975e-001
2.819537e+003;1.389826e-001
2.821466e+003;1.394225e-001
2.823394e+003;1.403288e-001
2.825323e+003;1.410174e-001
2.827251e+003;1.416695e-001
2.829180e+003;1.429244e-001
2.831108e+003;1.440429e-001
2.833037e+003;1.448459e-001
2.834966e+003;1.461099e-001
2.836894e+003;1.477143e-001
2.838823e+003;1.488323e-001
2.840751e+003;1.503692e-001
2.842680e+003;1.525895e-001
2.844608e+003;1.550661e-001
2.846537e+003;1.578628e-001
2.848465e+003;1.608578e-001
2.850394e+003;1.637041e-001
2.852323e+003;1.657192e-001
2.854251e+003;1.672808e-001
2.856180e+003;1.688351e-001
2.858108e+003;1.696583e-001
2.860037e+003;1.700733e-001
2.861965e+003;1.705900e-001
2.863894e+003;1.708985e-001
2.865822e+003;1.713899e-001
2.867751e+003;1.721744e-001
2.869679e+003;1.733667e-001
2.871608e+003;1.739676e-001
2.873536e+003;1.742905e-001
2.875465e+003;1.750411e-001
2.877394e+003;1.760525e-001
2.879322e+003;1.766849e-001
2.881251e+003;1.772061e-001
2.883179e+003;1.776587e-001
2.885108e+003;1.780524e-001
2.887036e+003;1.784554e-001
2.888965e+003;1.793093e-001
2.890893e+003;1.805432e-001
2.892822e+003;1.811123e-001
2.894750e+003;1.813201e-001
2.896679e+003;1.816974e-001
2.898608e+003;1.825415e-001
2.900536e+003;1.833390e-001
2.902465e+003;1.836964e-001
2.904393e+003;1.839416e-001
2.906322e+003;1.835652e-001
2.908250e+003;1.827030e-001
2.910179e+003;1.821360e-001
2.912107e+003;1.818166e-001
2.914036e+003;1.816364e-001
2.915965e+003;1.813827e-001
2.917893e+003;1.807478e-001
2.919822e+003;1.797204e-001
2.921750e+003;1.787856e-001
2.923679e+003;1.779781e-001
2.925607e+003;1.766313e-001
2.927536e+003;1.753623e-001
2.929464e+003;1.736820e-001
2.931393e+003;1.720025e-001
2.933322e+003;1.701885e-001
2.935250e+003;1.682450e-001
2.937178e+003;1.665648e-001
2.939107e+003;1.651480e-001
2.941036e+003;1.636719e-001
2.942964e+003;1.618494e-001
2.944893e+003;1.605540e-001
2.946821e+003;1.596282e-001
2.948750e+003;1.581357e-001
2.950678e+003;1.565786e-001
2.952607e+003;1.550082e-001
2.954535e+003;1.535475e-001
2.956464e+003;1.516742e-001
2.958393e+003;1.497874e-001
2.960321e+003;1.483671e-001
2.962250e+003;1.472266e-001
2.964178e+003;1.459410e-001
2.966107e+003;1.443244e-001
2.968035e+003;1.434968e-001
2.969964e+003;1.426571e-001
2.971892e+003;1.411711e-001
2.973821e+003;1.395816e-001
2.975750e+003;1.378933e-001
2.977678e+003;1.360039e-001
2.979607e+003;1.342505e-001
2.981535e+003;1.330311e-001
2.983464e+003;1.321850e-001
2.985392e+003;1.309773e-001
2.987321e+003;1.297168e-001
2.989249e+003;1.289452e-001
2.991178e+003;1.280473e-001
2.993106e+003;1.271872e-001
2.995035e+003;1.266507e-001
2.996964e+003;1.264946e-001
2.998892e+003;1.267661e-001
3.000821e+003;1.267268e-001
3.002749e+003;1.263824e-001
3.004678e+003;1.262184e-001
3.006606e+003;1.260035e-001
3.008535e+003;1.257934e-001
3.010463e+003;1.254047e-001
3.012392e+003;1.254634e-001
3.014321e+003;1.259421e-001
3.016249e+003;1.259536e-001
3.018177e+003;1.261876e-001
3.020106e+003;1.262416e-001
3.022035e+003;1.260847e-001
3.023963e+003;1.266952e-001
3.025892e+003;1.275188e-001
3.027820e+003;1.282552e-001
3.029749e+003;1.283004e-001
3.031677e+003;1.283009e-001
3.033606e+003;1.286439e-001
3.035534e+003;1.287764e-001
3.037463e+003;1.288413e-001
3.039392e+003;1.290365e-001
3.041320e+003;1.293222e-001
3.043249e+003;1.294450e-001
3.045177e+003;1.299874e-001
3.047106e+003;1.307751e-001
3.049034e+003;1.313718e-001
3.050963e+003;1.316167e-001
3.052891e+003;1.318648e-001
3.054820e+003;1.325857e-001
3.056749e+003;1.329222e-001
3.058677e+003;1.331017e-001
3.060606e+003;1.333665e-001
3.062534e+003;1.341087e-001
3.064463e+003;1.351662e-001
3.066391e+003;1.356118e-001
3.068320e+003;1.357772e-001
3.070248e+003;1.361529e-001
3.072177e+003;1.368998e-001
3.074105e+003;1.378030e-001
3.076034e+003;1.380229e-001
3.077963e+003;1.380850e-001
3.079891e+003;1.383302e-001
3.081820e+003;1.388935e-001
3.083748e+003;1.397836e-001
3.085677e+003;1.405703e-001
3.087605e+003;1.414858e-001
3.089534e+003;1.422130e-001
3.091462e+003;1.425488e-001
3.093391e+003;1.429480e-001
3.095320e+003;1.435497e-001
3.097248e+003;1.442772e-001
3.099177e+003;1.449614e-001
3.101105e+003;1.452616e-001
3.103034e+003;1.456713e-001
3.104962e+003;1.462471e-001
3.106891e+003;1.467806e-001
3.108819e+003;1.474303e-001
3.110748e+003;1.481650e-001
3.112677e+003;1.486283e-001
3.114605e+003;1.494312e-001
3.116533e+003;1.503193e-001
3.118462e+003;1.511748e-001
3.120391e+003;1.518051e-001
3.122319e+003;1.524237e-001
3.124248e+003;1.530637e-001
3.126176e+003;1.532823e-001
3.128105e+003;1.540327e-001
3.130033e+003;1.553830e-001
3.131962e+003;1.558318e-001
3.133890e+003;1.559487e-001
3.135819e+003;1.566556e-001
3.137748e+003;1.576466e-001
3.139676e+003;1.584046e-001
3.141605e+003;1.593254e-001
3.143533e+003;1.602610e-001
3.145462e+003;1.608939e-001
3.147390e+003;1.618942e-001
3.149319e+003;1.627690e-001
3.151247e+003;1.631980e-001
3.153176e+003;1.635398e-001
3.155104e+003;1.642434e-001
3.157033e+003;1.653626e-001
3.158962e+003;1.660992e-001
3.160890e+003;1.670997e-001
3.162819e+003;1.684966e-001
3.164747e+003;1.690904e-001
3.166676e+003;1.693631e-001
3.168604e+003;1.696728e-001
3.170533e+003;1.707900e-001
3.172461e+003;1.722934e-001
3.174390e+003;1.731985e-001
3.176319e+003;1.739876e-001
3.178247e+003;1.746628e-001
3.180176e+003;1.754500e-001
3.182104e+003;1.764374e-001
3.184033e+003;1.774415e-001
3.185961e+003;1.783305e-001
3.187890e+003;1.792207e-001
3.189818e+003;1.799829e-001
3.191747e+003;1.805927e-001
3.193676e+003;1.815541e-001
3.195604e+003;1.830423e-001
3.197532e+003;1.841817e-001
3.199461e+003;1.849036e-001
3.201390e+003;1.857802e-001
3.203318e+003;1.871946e-001
3.205247e+003;1.883560e-001
3.207175e+003;1.889295e-001
3.209104e+003;1.898728e-001
3.211032e+003;1.912605e-001
3.212961e+003;1.924701e-001
3.214889e+003;1.934394e-001
3.216818e+003;1.939768e-001
3.218747e+003;1.948211e-001
3.220675e+003;1.964030e-001
3.222604e+003;1.974139e-001
3.224532e+003;1.985987e-001
3.226461e+003;2.006096e-001
3.228389e+003;2.023217e-001
3.230318e+003;2.026160e-001
3.232246e+003;2.033170e-001
3.234175e+003;2.052857e-001
3.236104e+003;2.066693e-001
3.238032e+003;2.078674e-001
3.239961e+003;2.090904e-001
3.241889e+003;2.101184e-001
3.243818e+003;2.113619e-001
3.245746e+003;2.128605e-001
3.247675e+003;2.143522e-001
3.249603e+003;2.156868e-001
3.251532e+003;2.171959e-001
3.253460e+003;2.189047e-001
3.255389e+003;2.202241e-001
3.257318e+003;2.208616e-001
3.259246e+003;2.221092e-001
3.261175e+003;2.235206e-001
3.263103e+003;2.241884e-001
3.265032e+003;2.254657e-001
3.266960e+003;2.271085e-001
3.268889e+003;2.278561e-001
3.270817e+003;2.278693e-001
3.272746e+003;2.280082e-001
3.274675e+003;2.286360e-001
3.276603e+003;2.298038e-001
3.278531e+003;2.310150e-001
3.280460e+003;2.316992e-001
3.282389e+003;2.312957e-001
3.284317e+003;2.313100e-001
3.286246e+003;2.318577e-001
3.288174e+003;2.326525e-001
3.290103e+003;2.331195e-001
3.292031e+003;2.328696e-001
3.293960e+003;2.330835e-001
3.295888e+003;2.335596e-001
3.297817e+003;2.338535e-001
3.299746e+003;2.337868e-001
3.301674e+003;2.337617e-001
3.303603e+003;2.344592e-001
3.305531e+003;2.350376e-001
3.307460e+003;2.355390e-001
3.309388e+003;2.357579e-001
3.311317e+003;2.357912e-001
3.313245e+003;2.358543e-001
3.315174e+003;2.363445e-001
3.317103e+003;2.368912e-001
3.319031e+003;2.376748e-001
3.320960e+003;2.383864e-001
3.322888e+003;2.384980e-001
3.324817e+003;2.382886e-001
3.326745e+003;2.383482e-001
3.328674e+003;2.394360e-001
3.330602e+003;2.398464e-001
3.332531e+003;2.392694e-001
3.334459e+003;2.384942e-001
3.336388e+003;2.370981e-001
3.338317e+003;2.354991e-001
3.340245e+003;2.346183e-001
3.342174e+003;2.344510e-001
3.344102e+003;2.339856e-001
3.346031e+003;2.330151e-001
3.347959e+003;2.314583e-001
3.349888e+003;2.303022e-001
3.351816e+003;2.298196e-001
3.353745e+003;2.290479e-001
3.355674e+003;2.281874e-001
3.357602e+003;2.269544e-001
3.359531e+003;2.257581e-001
3.361459e+003;2.250792e-001
3.363388e+003;2.245381e-001
3.365316e+003;2.235720e-001
3.367245e+003;2.223047e-001
3.369173e+003;2.215125e-001
3.371102e+003;2.212366e-001
3.373031e+003;2.212495e-001
3.374959e+003;2.207638e-001
3.376887e+003;2.197725e-001
3.378816e+003;2.186139e-001
3.380745e+003;2.174867e-001
3.382673e+003;2.170200e-001
3.384602e+003;2.167789e-001
3.386530e+003;2.159906e-001
3.388459e+003;2.149867e-001
3.390387e+003;2.140292e-001
3.392316e+003;2.139093e-001
3.394244e+003;2.134361e-001
3.396173e+003;2.123911e-001
3.398102e+003;2.117737e-001
3.400030e+003;2.110419e-001
3.401959e+003;2.095702e-001
3.403887e+003;2.086094e-001
3.405816e+003;2.076707e-001
3.407744e+003;2.060784e-001
3.409673e+003;2.050084e-001
3.411601e+003;2.048381e-001
3.413530e+003;2.043011e-001
3.415458e+003;2.023698e-001
3.417387e+003;2.006023e-001
3.419316e+003;1.999989e-001
3.421244e+003;1.994015e-001
3.423173e+003;1.979437e-001
3.425101e+003;1.970701e-001
3.427030e+003;1.964824e-001
3.428958e+003;1.954031e-001
3.430887e+003;1.941844e-001
3.432815e+003;1.928232e-001
3.434744e+003;1.911231e-001
3.436673e+003;1.901673e-001
3.438601e+003;1.894182e-001
3.440530e+003;1.885661e-001
3.442458e+003;1.878218e-001
3.444387e+003;1.868631e-001
3.446315e+003;1.860325e-001
3.448244e+003;1.854171e-001
3.450172e+003;1.841387e-001
3.452101e+003;1.829748e-001
3.454030e+003;1.824593e-001
3.455958e+003;1.817397e-001
3.457886e+003;1.807125e-001
3.459815e+003;1.794285e-001
3.461744e+003;1.781472e-001
3.463672e+003;1.768602e-001
3.465601e+003;1.756709e-001
3.467529e+003;1.751520e-001
3.469458e+003;1.746914e-001
3.471386e+003;1.728934e-001
3.473315e+003;1.709942e-001
3.475243e+003;1.698768e-001
3.477172e+003;1.696562e-001
3.479101e+003;1.696970e-001
3.481029e+003;1.688434e-001
3.482958e+003;1.673048e-001
3.484886e+003;1.662471e-001
3.486815e+003;1.655571e-001
3.488743e+003;1.642800e-001
3.490672e+003;1.628927e-001
3.492600e+003;1.616706e-001
3.494529e+003;1.607139e-001
3.496458e+003;1.593224e-001
3.498386e+003;1.578874e-001
3.500315e+003;1.563503e-001
3.502243e+003;1.552028e-001
3.504172e+003;1.549420e-001
3.506100e+003;1.544582e-001
3.508029e+003;1.531855e-001
3.509957e+003;1.520039e-001
3.511886e+003;1.513409e-001
3.513814e+003;1.503039e-001
3.515743e+003;1.491697e-001
3.517672e+003;1.482321e-001
3.519600e+003;1.471023e-001
3.521529e+003;1.457903e-001
3.523457e+003;1.453751e-001
3.525386e+003;1.448025e-001
3.527314e+003;1.434278e-001
3.529243e+003;1.423540e-001
3.531171e+003;1.415231e-001
3.533100e+003;1.401329e-001
3.535029e+003;1.385802e-001
3.536957e+003;1.382658e-001
3.538885e+003;1.377010e-001
3.540814e+003;1.364710e-001
3.542743e+003;1.352194e-001
3.544671e+003;1.333683e-001
3.546600e+003;1.322568e-001
3.548528e+003;1.322301e-001
3.550457e+003;1.311917e-001
3.552385e+003;1.302165e-001
3.554314e+003;1.294037e-001
3.556242e+003;1.283878e-001
3.558171e+003;1.271204e-001
3.560100e+003;1.259178e-001
3.562028e+003;1.250956e-001
3.563957e+003;1.235283e-001
3.565885e+003;1.215752e-001
3.567814e+003;1.207003e-001
3.569742e+003;1.213390e-001
3.571671e+003;1.212136e-001
3.573599e+003;1.198944e-001
3.575528e+003;1.186674e-001
3.577457e+003;1.179652e-001
3.579385e+003;1.170657e-001
3.581314e+003;1.162185e-001
3.583242e+003;1.149134e-001
3.585171e+003;1.127850e-001
3.587099e+003;1.111025e-001
3.589028e+003;1.109286e-001
3.590956e+003;1.110705e-001
3.592885e+003;1.100837e-001
3.594813e+003;1.089588e-001
3.596742e+003;1.083573e-001
3.598671e+003;1.074346e-001
3.600599e+003;1.064866e-001
3.602528e+003;1.065848e-001
3.604456e+003;1.061848e-001
3.606385e+003;1.043243e-001
3.608313e+003;1.023771e-001
3.610242e+003;1.015782e-001
3.612170e+003;1.012550e-001
3.614099e+003;1.013357e-001
3.616028e+003;1.004372e-001
3.617956e+003;9.827276e-002
3.619885e+003;9.760161e-002
3.621813e+003;9.895422e-002
3.623742e+003;9.905506e-002
3.625670e+003;9.698734e-002
3.627599e+003;9.283835e-002
3.629527e+003;9.275941e-002
3.631456e+003;9.546624e-002
3.633385e+003;9.579169e-002
3.635313e+003;9.545117e-002
3.637241e+003;9.488998e-002
3.639170e+003;9.433326e-002
3.641099e+003;9.381015e-002
3.643027e+003;9.384260e-002
3.644956e+003;9.218927e-002
3.646884e+003;8.852418e-002
3.648813e+003;8.626972e-002
3.650741e+003;8.759233e-002
3.652670e+003;9.020612e-002
3.654598e+003;8.976009e-002
3.656527e+003;8.916580e-002
3.658456e+003;9.031959e-002
3.660384e+003;9.088372e-002
3.662313e+003;9.087388e-002
3.664241e+003;9.066631e-002
3.666170e+003;8.920096e-002
3.668098e+003;8.599231e-002
3.670027e+003;8.440699e-002
3.671955e+003;8.609936e-002
3.673884e+003;8.442554e-002
3.675813e+003;8.356509e-002
3.677741e+003;8.645676e-002
3.679669e+003;8.776498e-002
3.681598e+003;8.840829e-002
3.683527e+003;8.824976e-002
3.685455e+003;8.640016e-002
3.687384e+003;8.259464e-002
3.689312e+003;8.291403e-002
3.691241e+003;8.570576e-002
3.693169e+003;8.717515e-002
3.695098e+003;8.735043e-002
3.697026e+003;8.749830e-002
3.698955e+003;8.706298e-002
3.700884e+003;8.540247e-002
3.702812e+003;8.589991e-002
3.704741e+003;8.719075e-002
3.706669e+003;8.672787e-002
3.708598e+003;8.515799e-002
3.710526e+003;8.379377e-002
3.712455e+003;8.408344e-002
3.714383e+003;8.522020e-002
3.716312e+003;8.599349e-002
3.718240e+003;8.673114e-002
3.720169e+003;8.657201e-002
3.722098e+003;8.638326e-002
3.724026e+003;8.621436e-002
3.725955e+003;8.589637e-002
3.727883e+003;8.589955e-002
3.729812e+003;8.494946e-002
3.731740e+003;8.348055e-002
3.733669e+003;8.230528e-002
3.735597e+003;8.129113e-002
3.737526e+003;8.341550e-002
3.739455e+003;8.498839e-002
3.741383e+003;8.340771e-002
3.743312e+003;7.829650e-002
3.745240e+003;7.904086e-002
3.747169e+003;8.070081e-002
3.749097e+003;7.803481e-002
3.751026e+003;7.818124e-002
3.752954e+003;8.164347e-002
3.754883e+003;8.434916e-002
3.756812e+003;8.441093e-002
3.758740e+003;8.428664e-002
3.760668e+003;8.473645e-002
3.762597e+003;8.518955e-002
3.764526e+003;8.475602e-002
3.766454e+003;8.519447e-002
3.768383e+003;8.425522e-002
3.770311e+003;8.469417e-002
3.772240e+003;8.637509e-002
3.774168e+003;8.660460e-002
3.776097e+003;8.616457e-002
3.778025e+003;8.527341e-002
3.779954e+003;8.488283e-002
3.781883e+003;8.565770e-002
3.783811e+003;8.658475e-002
3.785740e+003;8.707586e-002
3.787668e+003;8.666730e-002
3.789597e+003;8.631580e-002
3.791525e+003;8.665161e-002
3.793454e+003;8.684193e-002
3.795382e+003;8.618320e-002
3.797311e+003;8.593800e-002
3.799240e+003;8.317383e-002
3.801168e+003;8.114816e-002
3.803097e+003;8.370669e-002
3.805025e+003;8.342125e-002
3.806954e+003;8.256767e-002
3.808882e+003;8.532705e-002
3.810811e+003;8.712465e-002
3.812739e+003;8.635027e-002
3.814668e+003;8.320047e-002
3.816596e+003;8.284771e-002
3.818525e+003;8.335966e-002
3.820454e+003;8.174185e-002
3.822382e+003;8.398115e-002
3.824311e+003;8.586119e-002
3.826239e+003;8.543679e-002
3.828168e+003;8.551469e-002
3.830096e+003;8.497215e-002
3.832025e+003;8.385996e-002
3.833953e+003;8.300360e-002
3.835882e+003;8.122369e-002
3.837811e+003;8.058168e-002
3.839739e+003;8.293024e-002
3.841667e+003;8.455856e-002
3.843596e+003;8.557896e-002
3.845525e+003;8.662038e-002
3.847453e+003;8.614691e-002
3.849382e+003;8.349320e-002
3.851310e+003;7.875155e-002
3.853239e+003;7.617074e-002
3.855167e+003;8.101413e-002
3.857096e+003;8.546443e-002
3.859024e+003;8.599942e-002
3.860953e+003;8.558288e-002
3.862882e+003;8.496925e-002
3.864810e+003;8.472743e-002
3.866739e+003;8.460442e-002
3.868667e+003;8.314927e-002
3.870596e+003;8.395570e-002
3.872524e+003;8.552591e-002
3.874453e+003;8.540860e-002
3.876381e+003;8.583794e-002
3.878310e+003;8.535480e-002
3.880239e+003;8.519241e-002
3.882167e+003;8.571009e-002
3.884096e+003;8.465249e-002
3.886024e+003;8.463059e-002
3.887953e+003;8.594825e-002
3.889881e+003;8.575097e-002
3.891810e+003;8.623940e-002
3.893738e+003;8.741331e-002
3.895667e+003;8.705238e-002
3.897595e+003;8.528478e-002
3.899524e+003;8.398211e-002
3.901453e+003;8.385549e-002
3.903381e+003;8.456746e-002
3.905310e+003;8.653145e-002
3.907238e+003;8.796728e-002
3.909167e+003;8.737753e-002
3.911095e+003;8.641519e-002
3.913024e+003;8.692659e-002
3.914952e+003;8.691142e-002
3.916881e+003;8.594369e-002
3.918810e+003;8.603271e-002
3.920738e+003;8.724315e-002
3.922667e+003;8.744877e-002
3.924595e+003;8.701294e-002
3.926524e+003;8.796509e-002
3.928452e+003;8.856318e-002
3.930381e+003;8.813017e-002
3.932309e+003;8.741153e-002
3.934238e+003;8.745586e-002
3.936167e+003;8.758861e-002
3.938095e+003;8.762445e-002
3.940023e+003;8.708484e-002
3.941952e+003;8.663166e-002
3.943881e+003;8.710096e-002
3.945809e+003;8.728140e-002
3.947738e+003;8.752415e-002
3.949666e+003;8.841608e-002
3.951595e+003;8.826941e-002
3.953523e+003;8.819219e-002
3.955452e+003;8.835273e-002
3.957380e+003;8.783689e-002
3.959309e+003;8.748500e-002
3.961238e+003;8.737896e-002
3.963166e+003;8.749477e-002
3.965095e+003;8.737016e-002
3.967023e+003;8.741266e-002
3.968952e+003;8.771105e-002
3.970880e+003;8.796139e-002
3.972809e+003;8.814514e-002
3.974737e+003;8.800188e-002
3.976666e+003;8.811990e-002
3.978594e+003;8.776701e-002
3.980523e+003;8.714162e-002
3.982452e+003;8.743516e-002
3.984380e+003;8.744054e-002
3.986309e+003;8.739127e-002
3.988237e+003;8.814616e-002
3.990166e+003;8.858077e-002
3.992094e+003;8.800266e-002
3.994023e+003;8.770805e-002
3.995951e+003;8.790098e-002
3.997880e+003;8.763539e-002
3.999809e+003;8.734488e-002
4.001737e+003;0.000000e+000
