3.992094e+002;0.000000e+000
4.011380e+002;0.000000e+000
4.030665e+002;0.000000e+000
4.049951e+002;0.000000e+000
4.069236e+002;0.000000e+000
4.088522e+002;0.000000e+000
4.107807e+002;0.000000e+000
4.127093e+002;0.000000e+000
4.146378e+002;0.000000e+000
4.165664e+002;0.000000e+000
4.184949e+002;0.000000e+000
4.204235e+002;0.000000e+000
4.223520e+002;0.000000e+000
4.242806e+002;0.000000e+000
4.262091e+002;0.000000e+000
4.281377e+002;0.000000e+000
4.300662e+002;0.000000e+000
4.319948e+002;0.000000e+000
4.339233e+002;0.000000e+000
4.358519e+002;0.000000e+000
4.377804e+002;0.000000e+000
4.397090e+002;0.000000e+000
4.416375e+002;0.000000e+000
4.435660e+002;0.000000e+000
4.454946e+002;0.000000e+000
4.474232e+002;0.000000e+000
4.493517e+002;0.000000e+000
4.512802e+002;0.000000e+000
4.532088e+002;0.000000e+000
4.551373e+002;0.000000e+000
4.570659e+002;0.000000e+000
4.589944e+002;0.000000e+000
4.609230e+002;0.000000e+000
4.628515e+002;0.000000e+000
4.647801e+002;0.000000e+000
4.667086e+002;0.000000e+000
4.686372e+002;0.000000e+000
4.705657e+002;0.000000e+000
4.724943e+002;0.000000e+000
4.744228e+002;0.000000e+000
4.763513e+002;0.000000e+000
4.782799e+002;0.000000e+000
4.802085e+002;0.000000e+000
4.821370e+002;0.000000e+000
4.840656e+002;0.000000e+000
4.859941e+002;0.000000e+000
4.879226e+002;0.000000e+000
4.898512e+002;0.000000e+000
4.917798e+002;0.000000e+000
4.937083e+002;0.000000e+000
4.956368e+002;0.000000e+000
4.975654e+002;0.000000e+000
4.994939e+002;0.000000e+000
5.014225e+002;0.000000e+000
5.033510e+002;0.000000e+000
5.052796e+002;0.000000e+000
5.072081e+002;0.000000e+000
5.091367e+002;0.000000e+000
5.110652e+002;0.000000e+000
5.129938e+002;0.000000e+000
5.149223e+002;0.000000e+000
5.168509e+002;0.000000e+000
5.187794e+002;0.000000e+000
5.207079e+002;0.000000e+000
5.226365e+002;0.000000e+000
5.245651e+002;0.000000e+000
5.264936e+002;0.000000e+000
5.284222e+002;0.000000e+000
5.303507e+002;0.000000e+000
5.322792e+002;0.000000e+000
5.342078e+002;0.000000e+000
5.361364e+002;0.000000e+000
5.380649e+002;0.000000e+000
5.399935e+002;0.000000e+000
5.419220e+002;0.000000e+000
5.438505e+002;0.000000e+000
5.457791e+002;0.000000e+000
5.477076e+002;0.000000e+000
5.496362e+002;0.000000e+000
5.515648e+002;0.000000e+000
5.534933e+002;0.000000e+000
5.554218e+002;0.000000e+000
5.573504e+002;0.000000e+000
5.592789e+002;0.000000e+000
5.612075e+002;0.000000e+000
5.631360e+002;0.000000e+000
5.650646e+002;0.000000e+000
5.669931e+002;0.000000e+000
5.689217e+002;0.000000e+000
5.708502e+002;0.000000e+000
5.727787e+002;0.000000e+000
5.747073e+002;0.000000e+000
5.766359e+002;0.000000e+000
5.785644e+002;0.000000e+000
5.804930e+002;0.000000e+000
5.824215e+002;0.000000e+000
5.843500e+002;0.000000e+000
5.862786e+002;0.000000e+000
5.882072e+002;0.000000e+000
5.901357e+002;0.000000e+000
5.920643e+002;0.000000e+000
5.939928e+002;0.000000e+000
5.959213e+002;0.000000e+000
5.978499e+002;0.000000e+000
5.997784e+002;2.368685e-001
6.017070e+002;2.482654e-001
6.036355e+002;2.529533e-001
6.055641e+002;2.504720e-001
6.074926e+002;2.587034e-001
6.094211e+002;2.650590e-001
6.113497e+002;2.563419e-001
6.132783e+002;2.564099e-001
6.152068e+002;2.587328e-001
6.171354e+002;2.519788e-001
6.190639e+002;2.445439e-001
6.209924e+002;2.418404e-001
6.229210e+002;2.416618e-001
6.248495e+002;2.397183e-001
6.267781e+002;2.353353e-001
6.287067e+002;2.300561e-001
6.306352e+002;2.248179e-001
6.325637e+002;2.216003e-001
6.344923e+002;2.207748e-001
6.364208e+002;2.172545e-001
6.383494e+002;2.153646e-001
6.402780e+002;2.107826e-001
6.422065e+002;2.089547e-001
6.441350e+002;2.120261e-001
6.460636e+002;2.155454e-001
6.479921e+002;2.167053e-001
6.499207e+002;2.162299e-001
6.518492e+002;2.140037e-001
6.537778e+002;2.144808e-001
6.557063e+002;2.194504e-001
6.576349e+002;2.243889e-001
6.595634e+002;2.291008e-001
6.614919e+002;2.344119e-001
6.634205e+002;2.360564e-001
6.653491e+002;2.334636e-001
6.672776e+002;2.281999e-001
6.692062e+002;2.246301e-001
6.711347e+002;2.214709e-001
6.730632e+002;2.160629e-001
6.749918e+002;2.111545e-001
6.769203e+002;2.067236e-001
6.788489e+002;2.017064e-001
6.807775e+002;1.987769e-001
6.827060e+002;1.977426e-001
6.846345e+002;1.971919e-001
6.865631e+002;1.971042e-001
6.884916e+002;1.966592e-001
6.904202e+002;1.972847e-001
6.923488e+002;1.989540e-001
6.942773e+002;2.034229e-001
6.962058e+002;2.116193e-001
6.981344e+002;2.204579e-001
7.000629e+002;2.245041e-001
7.019915e+002;2.225955e-001
7.039200e+002;2.161756e-001
7.058486e+002;2.064036e-001
7.077771e+002;1.976890e-001
7.097057e+002;1.906275e-001
7.116342e+002;1.841951e-001
7.135627e+002;1.798864e-001
7.154913e+002;1.762377e-001
7.174199e+002;1.732967e-001
7.193484e+002;1.706996e-001
7.212770e+002;1.663595e-001
7.232055e+002;1.612759e-001
7.251340e+002;1.572541e-001
7.270626e+002;1.551787e-001
7.289911e+002;1.536447e-001
7.309197e+002;1.527651e-001
7.328483e+002;1.519473e-001
7.347768e+002;1.494265e-001
7.367053e+002;1.481248e-001
7.386339e+002;1.467979e-001
7.405624e+002;1.449468e-001
7.424910e+002;1.450413e-001
7.444196e+002;1.447838e-001
7.463481e+002;1.431056e-001
7.482766e+002;1.417945e-001
7.502052e+002;1.410875e-001
7.521337e+002;1.412431e-001
7.540623e+002;1.422878e-001
7.559908e+002;1.429130e-001
7.579194e+002;1.436180e-001
7.598479e+002;1.442650e-001
7.617765e+002;1.440787e-001
7.637050e+002;1.419892e-001
7.656335e+002;1.399467e-001
7.675621e+002;1.385818e-001
7.694907e+002;1.365907e-001
7.714192e+002;1.337797e-001
7.733478e+002;1.324898e-001
7.752763e+002;1.318082e-001
7.772048e+002;1.307100e-001
7.791334e+002;1.300327e-001
7.810620e+002;1.295996e-001
7.829905e+002;1.296442e-001
7.849191e+002;1.299161e-001
7.868476e+002;1.307359e-001
7.887761e+002;1.320409e-001
7.907047e+002;1.332392e-001
7.926332e+002;1.339648e-001
7.945618e+002;1.350949e-001
7.964903e+002;1.365396e-001
7.984189e+002;1.376260e-001
8.003474e+002;1.389346e-001
8.022759e+002;1.392161e-001
8.042045e+002;1.389974e-001
8.061331e+002;1.395977e-001
8.080616e+002;1.403749e-001
8.099902e+002;1.400703e-001
8.119187e+002;1.394512e-001
8.138472e+002;1.399284e-001
8.157758e+002;1.398607e-001
8.177043e+002;1.382323e-001
8.196329e+002;1.372345e-001
8.215615e+002;1.354939e-001
8.234900e+002;1.337215e-001
8.254185e+002;1.326618e-001
8.273471e+002;1.320472e-001
8.292756e+002;1.303867e-001
8.312042e+002;1.285022e-001
8.331328e+002;1.274079e-001
8.350613e+002;1.272140e-001
8.369898e+002;1.277699e-001
8.389184e+002;1.281828e-001
8.408469e+002;1.279990e-001
8.427755e+002;1.273614e-001
8.447040e+002;1.264917e-001
8.466326e+002;1.259908e-001
8.485611e+002;1.254710e-001
8.504897e+002;1.254090e-001
8.524182e+002;1.255125e-001
8.543467e+002;1.261025e-001
8.562753e+002;1.267713e-001
8.582039e+002;1.268066e-001
8.601324e+002;1.269013e-001
8.620610e+002;1.276744e-001
8.639895e+002;1.289681e-001
8.659180e+002;1.298417e-001
8.678466e+002;1.312514e-001
8.697751e+002;1.327925e-001
8.717037e+002;1.338540e-001
8.736323e+002;1.353567e-001
8.755608e+002;1.368936e-001
8.774893e+002;1.380966e-001
8.794179e+002;1.397834e-001
8.813464e+002;1.419874e-001
8.832750e+002;1.444461e-001
8.852036e+002;1.467824e-001
8.871321e+002;1.485423e-001
8.890606e+002;1.507777e-001
8.909892e+002;1.531577e-001
8.929177e+002;1.547329e-001
8.948463e+002;1.563286e-001
8.967748e+002;1.576239e-001
8.987034e+002;1.578374e-001
9.006319e+002;1.575781e-001
9.025605e+002;1.573421e-001
9.044890e+002;1.568540e-001
9.064175e+002;1.560570e-001
9.083461e+002;1.552552e-001
9.102747e+002;1.544932e-001
9.122032e+002;1.538124e-001
9.141318e+002;1.528390e-001
9.160603e+002;1.520124e-001
9.179888e+002;1.520852e-001
9.199174e+002;1.529685e-001
9.218459e+002;1.541101e-001
9.237745e+002;1.557402e-001
9.257031e+002;1.581276e-001
9.276316e+002;1.608052e-001
9.295601e+002;1.637976e-001
9.314887e+002;1.666135e-001
9.334172e+002;1.697665e-001
9.353458e+002;1.727365e-001
9.372744e+002;1.745748e-001
9.392029e+002;1.765690e-001
9.411314e+002;1.793921e-001
9.430600e+002;1.820638e-001
9.449885e+002;1.841329e-001
9.469171e+002;1.865546e-001
9.488456e+002;1.894359e-001
9.507742e+002;1.924854e-001
9.527027e+002;1.954852e-001
9.546313e+002;1.992628e-001
9.565598e+002;2.037655e-001
9.584883e+002;2.082475e-001
9.604169e+002;2.130696e-001
9.623455e+002;2.184447e-001
9.642740e+002;2.232626e-001
9.662026e+002;2.280046e-001
9.681311e+002;2.331583e-001
9.700596e+002;2.389057e-001
9.719882e+002;2.456880e-001
9.739167e+002;2.536570e-001
9.758453e+002;2.634952e-001
9.777739e+002;2.746274e-001
9.797024e+002;2.861365e-001
9.816309e+002;2.955256e-001
9.835595e+002;3.004769e-001
9.854880e+002;3.013915e-001
9.874166e+002;3.016518e-001
9.893452e+002;3.030939e-001
9.912737e+002;3.058993e-001
9.932022e+002;3.103430e-001
9.951307e+002;3.161066e-001
9.970593e+002;3.218755e-001
9.989879e+002;3.265376e-001
1.000916e+003;3.296933e-001
1.002845e+003;3.314725e-001
1.004773e+003;3.330580e-001
1.006702e+003;3.340351e-001
1.008631e+003;3.353589e-001
1.010559e+003;3.380544e-001
1.012488e+003;3.412121e-001
1.014416e+003;3.441448e-001
1.016345e+003;3.468473e-001
1.018273e+003;3.497702e-001
1.020202e+003;3.533107e-001
1.022130e+003;3.568309e-001
1.024059e+003;3.604248e-001
1.025988e+003;3.641912e-001
1.027916e+003;3.673072e-001
1.029845e+003;3.684440e-001
1.031773e+003;3.675063e-001
1.033702e+003;3.634320e-001
1.035630e+003;3.567078e-001
1.037559e+003;3.491759e-001
1.039487e+003;3.420322e-001
1.041416e+003;3.366975e-001
1.043344e+003;3.353157e-001
1.045273e+003;3.373735e-001
1.047202e+003;3.408800e-001
1.049130e+003;3.461106e-001
1.051059e+003;3.512450e-001
1.052987e+003;3.538574e-001
1.054916e+003;3.545955e-001
1.056844e+003;3.539353e-001
1.058773e+003;3.493784e-001
1.060701e+003;3.393326e-001
1.062630e+003;3.258015e-001
1.064558e+003;3.106804e-001
1.066487e+003;2.957491e-001
1.068416e+003;2.826562e-001
1.070344e+003;2.724013e-001
1.072273e+003;2.646023e-001
1.074201e+003;2.583956e-001
1.076130e+003;2.532480e-001
1.078058e+003;2.476091e-001
1.079987e+003;2.423420e-001
1.081915e+003;2.395491e-001
1.083844e+003;2.391539e-001
1.085773e+003;2.395606e-001
1.087701e+003;2.399868e-001
1.089630e+003;2.408254e-001
1.091558e+003;2.419519e-001
1.093487e+003;2.443397e-001
1.095415e+003;2.474748e-001
1.097344e+003;2.502360e-001
1.099272e+003;2.526174e-001
1.101201e+003;2.537610e-001
1.103129e+003;2.540741e-001
1.105058e+003;2.543235e-001
1.106987e+003;2.532549e-001
1.108915e+003;2.507096e-001
1.110844e+003;2.467770e-001
1.112772e+003;2.414859e-001
1.114701e+003;2.336302e-001
1.116629e+003;2.232570e-001
1.118558e+003;2.121907e-001
1.120486e+003;2.028702e-001
1.122415e+003;1.959541e-001
1.124344e+003;1.897242e-001
1.126272e+003;1.826481e-001
1.128201e+003;1.757264e-001
1.130129e+003;1.699326e-001
1.132058e+003;1.662727e-001
1.133986e+003;1.642717e-001
1.135915e+003;1.627105e-001
1.137843e+003;1.631176e-001
1.139772e+003;1.661322e-001
1.141700e+003;1.713805e-001
1.143629e+003;1.791063e-001
1.145557e+003;1.879791e-001
1.147486e+003;1.965241e-001
1.149415e+003;2.037341e-001
1.151343e+003;2.100908e-001
1.153272e+003;2.162336e-001
1.155200e+003;2.218251e-001
1.157129e+003;2.266135e-001
1.159057e+003;2.302534e-001
1.160986e+003;2.313473e-001
1.162914e+003;2.288111e-001
1.164843e+003;2.229706e-001
1.166771e+003;2.147513e-001
1.168700e+003;2.051604e-001
1.170629e+003;1.956044e-001
1.172557e+003;1.869422e-001
1.174486e+003;1.793591e-001
1.176414e+003;1.728877e-001
1.178343e+003;1.674003e-001
1.180271e+003;1.622245e-001
1.182200e+003;1.574786e-001
1.184128e+003;1.537660e-001
1.186057e+003;1.511926e-001
1.187986e+003;1.492834e-001
1.189914e+003;1.485490e-001
1.191843e+003;1.487010e-001
1.193771e+003;1.492353e-001
1.195700e+003;1.504164e-001
1.197628e+003;1.517006e-001
1.199557e+003;1.528201e-001
1.201485e+003;1.534045e-001
1.203414e+003;1.531008e-001
1.205343e+003;1.526201e-001
1.207271e+003;1.515388e-001
1.209200e+003;1.491961e-001
1.211128e+003;1.466078e-001
1.213057e+003;1.447883e-001
1.214985e+003;1.443341e-001
1.216914e+003;1.449321e-001
1.218842e+003;1.461229e-001
1.220771e+003;1.473896e-001
1.222699e+003;1.484999e-001
1.224628e+003;1.499202e-001
1.226557e+003;1.520438e-001
1.228485e+003;1.540226e-001
1.230414e+003;1.555734e-001
1.232342e+003;1.575803e-001
1.234271e+003;1.597077e-001
1.236199e+003;1.608764e-001
1.238128e+003;1.614767e-001
1.240056e+003;1.622753e-001
1.241985e+003;1.637155e-001
1.243913e+003;1.651004e-001
1.245842e+003;1.663316e-001
1.247771e+003;1.674083e-001
1.249699e+003;1.682359e-001
1.251628e+003;1.695081e-001
1.253556e+003;1.711223e-001
1.255485e+003;1.724255e-001
1.257413e+003;1.740268e-001
1.259342e+003;1.752466e-001
1.261270e+003;1.751028e-001
1.263199e+003;1.733551e-001
1.265127e+003;1.705036e-001
1.267056e+003;1.665624e-001
1.268985e+003;1.627966e-001
1.270913e+003;1.605358e-001
1.272842e+003;1.592025e-001
1.274770e+003;1.576439e-001
1.276699e+003;1.554517e-001
1.278627e+003;1.532782e-001
1.280556e+003;1.511243e-001
1.282484e+003;1.488963e-001
1.284413e+003;1.469340e-001
1.286342e+003;1.455385e-001
1.288270e+003;1.443938e-001
1.290199e+003;1.436439e-001
1.292127e+003;1.434629e-001
1.294056e+003;1.436407e-001
1.295984e+003;1.440989e-001
1.297913e+003;1.455739e-001
1.299841e+003;1.473595e-001
1.301770e+003;1.493946e-001
1.303698e+003;1.521222e-001
1.305627e+003;1.549117e-001
1.307556e+003;1.575911e-001
1.309484e+003;1.601132e-001
1.311413e+003;1.620494e-001
1.313341e+003;1.629921e-001
1.315270e+003;1.626220e-001
1.317198e+003;1.606944e-001
1.319127e+003;1.580558e-001
1.321055e+003;1.552997e-001
1.322984e+003;1.530267e-001
1.324912e+003;1.516821e-001
1.326841e+003;1.510548e-001
1.328770e+003;1.511861e-001
1.330698e+003;1.520674e-001
1.332627e+003;1.530921e-001
1.334555e+003;1.537606e-001
1.336484e+003;1.532208e-001
1.338412e+003;1.516687e-001
1.340341e+003;1.499316e-001
1.342269e+003;1.478403e-001
1.344198e+003;1.450738e-001
1.346126e+003;1.423441e-001
1.348055e+003;1.406793e-001
1.349984e+003;1.399966e-001
1.351912e+003;1.402549e-001
1.353841e+003;1.411397e-001
1.355769e+003;1.419561e-001
1.357698e+003;1.425725e-001
1.359626e+003;1.425635e-001
1.361555e+003;1.415428e-001
1.363483e+003;1.401705e-001
1.365412e+003;1.392902e-001
1.367341e+003;1.387301e-001
1.369269e+003;1.384605e-001
1.371198e+003;1.374832e-001
1.373126e+003;1.352105e-001
1.375055e+003;1.329218e-001
1.376983e+003;1.312905e-001
1.378912e+003;1.294725e-001
1.380840e+003;1.274837e-001
1.382769e+003;1.252277e-001
1.384698e+003;1.227834e-001
1.386626e+003;1.205887e-001
1.388555e+003;1.204283e-001
1.390483e+003;1.215000e-001
1.392412e+003;1.217660e-001
1.394340e+003;1.214769e-001
1.396269e+003;1.222077e-001
1.398197e+003;1.225034e-001
1.400126e+003;1.225363e-001
1.402054e+003;1.225906e-001
1.403983e+003;1.218904e-001
1.405911e+003;1.214944e-001
1.407840e+003;1.214301e-001
1.409769e+003;1.210789e-001
1.411697e+003;1.213126e-001
1.413626e+003;1.219166e-001
1.415554e+003;1.222683e-001
1.417483e+003;1.216913e-001
1.419411e+003;1.220186e-001
1.421340e+003;1.250674e-001
1.423268e+003;1.273121e-001
1.425197e+003;1.287877e-001
1.427125e+003;1.299679e-001
1.429054e+003;1.306205e-001
1.430983e+003;1.317880e-001
1.432911e+003;1.326339e-001
1.434840e+003;1.310967e-001
1.436768e+003;1.295904e-001
1.438697e+003;1.320264e-001
1.440625e+003;1.348515e-001
1.442554e+003;1.373598e-001
1.444482e+003;1.400814e-001
1.446411e+003;1.422800e-001
1.448340e+003;1.446032e-001
1.450268e+003;1.475993e-001
1.452197e+003;1.492201e-001
1.454125e+003;1.465397e-001
1.456054e+003;1.385536e-001
1.457982e+003;1.342659e-001
1.459911e+003;1.347436e-001
1.461839e+003;1.335121e-001
1.463768e+003;1.288414e-001
1.465697e+003;1.250220e-001
1.467625e+003;1.226835e-001
1.469554e+003;1.188376e-001
1.471482e+003;1.142729e-001
1.473411e+003;1.109679e-001
1.475339e+003;1.072506e-001
1.477268e+003;1.031689e-001
1.479196e+003;1.002169e-001
1.481125e+003;9.767036e-002
1.483053e+003;9.562470e-002
1.484982e+003;9.335359e-002
1.486911e+003;9.126838e-002
1.488839e+003;8.993357e-002
1.490768e+003;9.165540e-002
1.492696e+003;9.549654e-002
1.494625e+003;9.554010e-002
1.496553e+003;9.206823e-002
1.498482e+003;8.958694e-002
1.500410e+003;8.819775e-002
1.502339e+003;8.720107e-002
1.504267e+003;8.359329e-002
1.506196e+003;7.986056e-002
1.508125e+003;8.232798e-002
1.510053e+003;8.611520e-002
1.511982e+003;8.731081e-002
1.513910e+003;8.782773e-002
1.515839e+003;8.722164e-002
1.517767e+003;8.713838e-002
1.519696e+003;8.648001e-002
1.521624e+003;8.682533e-002
1.523553e+003;9.020175e-002
1.525481e+003;9.216387e-002
1.527410e+003;9.446166e-002
1.529339e+003;9.723683e-002
1.531267e+003;9.860061e-002
1.533196e+003;9.915167e-002
1.535124e+003;1.019475e-001
1.537053e+003;1.021573e-001
1.538981e+003;9.867450e-002
1.540910e+003;1.003963e-001
1.542838e+003;1.054695e-001
1.544767e+003;1.088894e-001
1.546695e+003;1.114306e-001
1.548624e+003;1.127411e-001
1.550553e+003;1.139933e-001
1.552481e+003;1.142481e-001
1.554410e+003;1.132544e-001
1.556338e+003;1.109010e-001
1.558267e+003;1.058187e-001
1.560195e+003;1.067792e-001
1.562124e+003;1.115668e-001
1.564052e+003;1.126276e-001
1.565981e+003;1.120848e-001
1.567910e+003;1.103234e-001
1.569838e+003;1.088401e-001
1.571767e+003;1.096732e-001
1.573695e+003;1.082818e-001
1.575624e+003;1.047139e-001
1.577552e+003;1.058084e-001
1.579481e+003;1.080453e-001
1.581409e+003;1.079891e-001
1.583338e+003;1.073591e-001
1.585266e+003;1.066444e-001
1.587195e+003;1.059589e-001
1.589124e+003;1.051682e-001
1.591052e+003;1.046657e-001
1.592981e+003;1.042885e-001
1.594909e+003;1.041424e-001
1.596838e+003;1.043875e-001
1.598766e+003;1.048028e-001
1.600695e+003;1.049870e-001
1.602623e+003;1.050234e-001
1.604552e+003;1.044962e-001
1.606480e+003;1.032819e-001
1.608409e+003;1.019344e-001
1.610338e+003;1.011317e-001
1.612266e+003;1.007097e-001
1.614195e+003;9.899466e-002
1.616123e+003;9.592175e-002
1.618052e+003;9.722324e-002
1.619980e+003;9.934676e-002
1.621909e+003;9.851824e-002
1.623837e+003;9.826540e-002
1.625766e+003;9.934201e-002
1.627694e+003;9.993280e-002
1.629623e+003;1.007608e-001
1.631552e+003;1.013235e-001
1.633480e+003;9.952573e-002
1.635409e+003;9.762895e-002
1.637337e+003;1.003779e-001
1.639266e+003;1.034572e-001
1.641194e+003;1.045419e-001
1.643123e+003;1.045182e-001
1.645051e+003;1.028454e-001
1.646980e+003;1.027642e-001
1.648909e+003;1.051823e-001
1.650837e+003;1.027571e-001
1.652766e+003;9.826266e-002
1.654694e+003;1.034135e-001
1.656623e+003;1.093450e-001
1.658551e+003;1.108405e-001
1.660480e+003;1.105544e-001
1.662408e+003;1.097379e-001
1.664337e+003;1.107077e-001
1.666266e+003;1.110445e-001
1.668194e+003;1.089396e-001
1.670123e+003;1.082784e-001
1.672051e+003;1.092102e-001
1.673980e+003;1.079323e-001
1.675908e+003;1.072847e-001
1.677837e+003;1.086331e-001
1.679765e+003;1.084818e-001
1.681694e+003;1.063348e-001
1.683622e+003;1.019156e-001
1.685551e+003;1.030708e-001
1.687479e+003;1.070509e-001
1.689408e+003;1.080214e-001
1.691337e+003;1.085959e-001
1.693265e+003;1.074746e-001
1.695194e+003;1.041700e-001
1.697122e+003;1.050533e-001
1.699051e+003;1.047853e-001
1.700979e+003;1.059117e-001
1.702908e+003;1.106719e-001
1.704836e+003;1.122245e-001
1.706765e+003;1.142200e-001
1.708693e+003;1.170314e-001
1.710622e+003;1.203400e-001
1.712551e+003;1.237105e-001
1.714479e+003;1.279083e-001
1.716408e+003;1.338144e-001
1.718336e+003;1.454449e-001
1.720265e+003;1.618128e-001
1.722193e+003;1.771806e-001
1.724122e+003;1.906944e-001
1.726050e+003;2.016144e-001
1.727979e+003;2.077011e-001
1.729908e+003;2.081099e-001
1.731836e+003;2.012265e-001
1.733765e+003;1.886342e-001
1.735693e+003;1.768943e-001
1.737622e+003;1.622850e-001
1.739550e+003;1.437619e-001
1.741479e+003;1.270583e-001
1.743407e+003;1.125285e-001
1.745336e+003;1.001287e-001
1.747265e+003;8.988405e-002
1.749193e+003;8.182505e-002
1.751122e+003;7.625581e-002
1.753050e+003;7.404929e-002
1.754979e+003;7.182937e-002
1.756907e+003;6.946737e-002
1.758836e+003;6.833320e-002
1.760764e+003;6.666005e-002
1.762693e+003;6.590647e-002
1.764621e+003;6.606805e-002
1.766550e+003;6.477813e-002
1.768479e+003;6.352656e-002
1.770407e+003;6.208885e-002
1.772336e+003;6.069453e-002
1.774264e+003;6.202399e-002
1.776193e+003;6.334165e-002
1.778121e+003;6.342060e-002
1.780050e+003;6.293195e-002
1.781978e+003;6.265815e-002
1.783907e+003;6.221445e-002
1.785835e+003;6.205533e-002
1.787764e+003;6.234528e-002
1.789693e+003;6.139133e-002
1.791621e+003;5.974773e-002
1.793550e+003;6.004706e-002
1.795478e+003;6.122446e-002
1.797407e+003;6.111689e-002
1.799335e+003;6.063529e-002
1.801264e+003;6.044331e-002
1.803192e+003;6.082605e-002
1.805121e+003;6.100759e-002
1.807049e+003;6.081286e-002
1.808978e+003;6.038612e-002
1.810907e+003;6.020887e-002
1.812835e+003;6.042065e-002
1.814764e+003;6.047012e-002
1.816692e+003;6.036042e-002
1.818621e+003;6.037976e-002
1.820549e+003;6.023254e-002
1.822478e+003;5.999677e-002
1.824406e+003;5.934383e-002
1.826335e+003;5.912521e-002
1.828264e+003;5.860136e-002
1.830192e+003;5.845816e-002
1.832121e+003;5.950055e-002
1.834049e+003;5.988927e-002
1.835978e+003;5.951666e-002
1.837906e+003;5.929643e-002
1.839835e+003;5.930228e-002
1.841763e+003;5.858801e-002
1.843692e+003;5.725030e-002
1.845620e+003;5.791849e-002
1.847549e+003;5.895599e-002
1.849478e+003;5.908234e-002
1.851406e+003;5.910015e-002
1.853335e+003;5.918865e-002
1.855263e+003;5.917582e-002
1.857192e+003;5.890559e-002
1.859120e+003;5.888810e-002
1.861049e+003;5.904078e-002
1.862977e+003;5.898153e-002
1.864906e+003;5.874582e-002
1.866834e+003;5.815174e-002
1.868763e+003;5.771390e-002
1.870692e+003;5.831049e-002
1.872620e+003;5.910277e-002
1.874549e+003;5.931869e-002
1.876477e+003;5.913102e-002
1.878406e+003;5.906469e-002
1.880334e+003;5.916724e-002
1.882263e+003;5.905137e-002
1.884191e+003;5.894934e-002
1.886120e+003;5.893458e-002
1.888048e+003;5.866973e-002
1.889977e+003;5.860625e-002
1.891906e+003;5.899470e-002
1.893834e+003;5.896020e-002
1.895763e+003;5.896695e-002
1.897691e+003;5.886298e-002
1.899620e+003;5.899474e-002
1.901548e+003;5.915065e-002
1.903477e+003;5.902537e-002
1.905405e+003;5.887402e-002
1.907334e+003;5.876403e-002
1.909262e+003;5.878797e-002
1.911191e+003;5.908785e-002
1.913120e+003;5.917157e-002
1.915048e+003;5.887622e-002
1.916977e+003;5.844788e-002
1.918905e+003;5.879730e-002
1.920834e+003;5.922059e-002
1.922762e+003;5.906511e-002
1.924691e+003;5.917605e-002
1.926619e+003;5.951655e-002
1.928548e+003;5.970713e-002
1.930477e+003;5.968177e-002
1.932405e+003;5.966467e-002
1.934334e+003;5.979865e-002
1.936262e+003;5.986223e-002
1.938191e+003;5.995937e-002
1.940119e+003;5.997611e-002
1.942048e+003;5.977366e-002
1.943976e+003;5.997664e-002
1.945905e+003;6.032291e-002
1.947833e+003;6.058519e-002
1.949762e+003;6.077620e-002
1.951691e+003;6.092852e-002
1.953619e+003;6.102304e-002
1.955548e+003;6.095036e-002
1.957476e+003;6.058180e-002
1.959405e+003;6.024453e-002
1.961333e+003;6.027350e-002
1.963262e+003;6.056744e-002
1.965190e+003;6.081538e-002
1.967119e+003;6.063007e-002
1.969047e+003;6.062058e-002
1.970976e+003;6.075478e-002
1.972905e+003;6.081233e-002
1.974833e+003;6.067186e-002
1.976762e+003;6.047900e-002
1.978690e+003;6.045702e-002
1.980619e+003;6.049739e-002
1.982547e+003;6.038505e-002
1.984476e+003;6.054424e-002
1.986404e+003;6.072830e-002
1.988333e+003;6.053643e-002
1.990261e+003;6.037527e-002
1.992190e+003;6.051887e-002
1.994119e+003;6.080798e-002
1.996047e+003;6.104481e-002
1.997976e+003;6.094041e-002
1.999904e+003;6.069956e-002
2.001833e+003;6.056024e-002
2.003761e+003;6.053019e-002
2.005690e+003;6.055536e-002
2.007618e+003;6.069956e-002
2.009547e+003;6.084385e-002
2.011476e+003;6.095921e-002
2.013404e+003;6.115965e-002
2.015333e+003;6.108787e-002
2.017261e+003;6.097541e-002
2.019190e+003;6.115137e-002
2.021118e+003;6.145281e-002
2.023047e+003;6.141583e-002
2.024975e+003;6.120516e-002
2.026904e+003;6.120314e-002
2.028833e+003;6.149278e-002
2.030761e+003;6.170821e-002
2.032690e+003;6.165643e-002
2.034618e+003;6.158635e-002
2.036547e+003;6.155737e-002
2.038475e+003;6.156860e-002
2.040404e+003;6.155673e-002
2.042332e+003;6.174312e-002
2.044261e+003;6.168992e-002
2.046189e+003;6.165558e-002
2.048118e+003;6.161312e-002
2.050047e+003;6.156917e-002
2.051975e+003;6.171367e-002
2.053904e+003;6.167816e-002
2.055832e+003;6.136224e-002
2.057761e+003;6.131596e-002
2.059689e+003;6.142323e-002
2.061618e+003;6.131824e-002
2.063546e+003;6.121321e-002
2.065475e+003;6.110545e-002
2.067404e+003;6.104817e-002
2.069332e+003;6.120611e-002
2.071260e+003;6.141571e-002
2.073189e+003;6.133343e-002
2.075118e+003;6.116938e-002
2.077046e+003;6.105667e-002
2.078975e+003;6.112212e-002
2.080903e+003;6.130150e-002
2.082832e+003;6.106697e-002
2.084760e+003;6.084244e-002
2.086689e+003;6.079064e-002
2.088617e+003;6.103230e-002
2.090546e+003;6.104473e-002
2.092475e+003;6.075181e-002
2.094403e+003;6.065049e-002
2.096332e+003;6.073134e-002
2.098260e+003;6.103677e-002
2.100189e+003;6.140942e-002
2.102117e+003;6.120825e-002
2.104046e+003;6.096142e-002
2.105974e+003;6.089634e-002
2.107903e+003;6.091887e-002
2.109832e+003;6.110709e-002
2.111760e+003;6.110621e-002
2.113688e+003;6.105636e-002
2.115617e+003;6.126757e-002
2.117546e+003;6.134984e-002
2.119474e+003;6.120836e-002
2.121403e+003;6.111845e-002
2.123331e+003;6.143205e-002
2.125260e+003;6.180668e-002
2.127188e+003;6.176482e-002
2.129117e+003;6.168266e-002
2.131045e+003;6.166387e-002
2.132974e+003;6.160403e-002
2.134903e+003;6.157265e-002
2.136831e+003;6.167976e-002
2.138760e+003;6.180982e-002
2.140688e+003;6.175909e-002
2.142617e+003;6.149011e-002
2.144545e+003;6.112361e-002
2.146474e+003;6.087164e-002
2.148402e+003;6.081035e-002
2.150331e+003;6.110083e-002
2.152260e+003;6.142625e-002
2.154188e+003;6.145327e-002
2.156117e+003;6.127650e-002
2.158045e+003;6.120722e-002
2.159974e+003;6.093389e-002
2.161902e+003;6.070928e-002
2.163831e+003;6.071713e-002
2.165759e+003;6.067624e-002
2.167688e+003;6.057437e-002
2.169616e+003;6.053224e-002
2.171545e+003;6.045257e-002
2.173474e+003;6.039628e-002
2.175402e+003;6.027361e-002
2.177331e+003;6.003937e-002
2.179259e+003;6.011555e-002
2.181188e+003;6.024697e-002
2.183116e+003;6.011030e-002
2.185045e+003;6.006342e-002
2.186973e+003;6.011597e-002
2.188902e+003;5.991453e-002
2.190831e+003;5.947437e-002
2.192759e+003;5.930787e-002
2.194688e+003;5.939128e-002
2.196616e+003;5.948174e-002
2.198545e+003;5.957842e-002
2.200473e+003;5.974979e-002
2.202402e+003;5.981850e-002
2.204330e+003;5.982842e-002
2.206259e+003;5.972743e-002
2.208188e+003;5.961468e-002
2.210116e+003;5.946613e-002
2.212044e+003;5.939880e-002
2.213973e+003;5.958055e-002
2.215902e+003;5.969998e-002
2.217830e+003;5.964277e-002
2.219759e+003;5.956056e-002
2.221687e+003;5.960130e-002
2.223616e+003;5.967645e-002
2.225544e+003;5.973256e-002
2.227473e+003;5.960628e-002
2.229401e+003;5.948820e-002
2.231330e+003;5.941092e-002
2.233259e+003;5.963764e-002
2.235187e+003;6.000974e-002
2.237116e+003;6.019623e-002
2.239044e+003;6.003138e-002
2.240973e+003;5.984679e-002
2.242901e+003;5.991350e-002
2.244830e+003;6.008964e-002
2.246758e+003;6.024994e-002
2.248687e+003;6.006886e-002
2.250615e+003;5.973237e-002
2.252544e+003;5.970302e-002
2.254473e+003;5.988311e-002
2.256401e+003;5.972796e-002
2.258330e+003;5.958294e-002
2.260258e+003;5.979321e-002
2.262187e+003;5.997249e-002
2.264115e+003;5.962939e-002
2.266044e+003;5.937392e-002
2.267972e+003;5.926176e-002
2.269901e+003;5.911499e-002
2.271830e+003;5.892737e-002
2.273758e+003;5.880265e-002
2.275687e+003;5.893967e-002
2.277615e+003;5.899569e-002
2.279544e+003;5.879962e-002
2.281472e+003;5.868931e-002
2.283401e+003;5.858164e-002
2.285329e+003;5.850080e-002
2.287258e+003;5.864429e-002
2.289187e+003;5.867535e-002
2.291115e+003;5.877203e-002
2.293043e+003;5.868043e-002
2.294972e+003;5.847203e-002
2.296901e+003;5.852586e-002
2.298829e+003;5.869693e-002
2.300758e+003;5.858024e-002
2.302686e+003;5.833088e-002
2.304615e+003;5.820735e-002
2.306543e+003;5.822308e-002
2.308472e+003;5.819667e-002
2.310400e+003;5.811037e-002
2.312329e+003;5.806527e-002
2.314258e+003;5.830174e-002
2.316186e+003;5.841001e-002
2.318115e+003;5.812988e-002
2.320043e+003;5.786140e-002
2.321972e+003;5.773445e-002
2.323900e+003;5.766247e-002
2.325829e+003;5.772752e-002
2.327757e+003;5.780757e-002
2.329686e+003;5.765971e-002
2.331615e+003;5.744549e-002
2.333543e+003;5.723208e-002
2.335472e+003;5.739621e-002
2.337400e+003;5.770769e-002
2.339329e+003;5.788786e-002
2.341257e+003;5.812837e-002
2.343186e+003;5.822201e-002
2.345114e+003;5.825653e-002
2.347043e+003;5.835339e-002
2.348971e+003;5.849326e-002
2.350900e+003;5.879097e-002
2.352829e+003;5.895523e-002
2.354757e+003;5.872591e-002
2.356686e+003;5.844129e-002
2.358614e+003;5.831174e-002
2.360543e+003;5.830064e-002
2.362471e+003;5.846164e-002
2.364400e+003;5.873782e-002
2.366328e+003;5.897944e-002
2.368257e+003;5.916268e-002
2.370186e+003;5.937115e-002
2.372114e+003;5.939603e-002
2.374042e+003;5.969629e-002
2.375971e+003;5.995987e-002
2.377900e+003;6.018698e-002
2.379828e+003;6.059448e-002
2.381757e+003;6.088654e-002
2.383685e+003;6.112891e-002
2.385614e+003;6.145423e-002
2.387542e+003;6.120115e-002
2.389471e+003;6.090835e-002
2.391399e+003;6.096169e-002
2.393328e+003;6.129032e-002
2.395257e+003;6.166678e-002
2.397185e+003;6.165513e-002
2.399114e+003;6.168446e-002
2.401042e+003;6.187683e-002
2.402971e+003;6.175664e-002
2.404899e+003;6.172700e-002
2.406828e+003;6.185023e-002
2.408756e+003;6.196280e-002
2.410685e+003;6.188470e-002
2.412614e+003;6.198065e-002
2.414542e+003;6.231808e-002
2.416471e+003;6.249761e-002
2.418399e+003;6.247381e-002
2.420328e+003;6.252451e-002
2.422256e+003;6.273433e-002
2.424185e+003;6.314526e-002
2.426113e+003;6.342164e-002
2.428042e+003;6.319899e-002
2.429970e+003;6.318443e-002
2.431899e+003;6.355436e-002
2.433828e+003;6.373640e-002
2.435756e+003;6.370003e-002
2.437685e+003;6.380256e-002
2.439613e+003;6.372742e-002
2.441542e+003;6.360223e-002
2.443470e+003;6.384501e-002
2.445399e+003;6.392150e-002
2.447327e+003;6.377834e-002
2.449256e+003;6.386888e-002
2.451185e+003;6.410850e-002
2.453113e+003;6.398424e-002
2.455042e+003;6.379868e-002
2.456970e+003;6.413066e-002
2.458899e+003;6.419004e-002
2.460827e+003;6.411560e-002
2.462756e+003;6.442549e-002
2.464684e+003;6.442153e-002
2.466613e+003;6.421270e-002
2.468542e+003;6.461716e-002
2.470470e+003;6.483638e-002
2.472398e+003;6.484696e-002
2.474327e+003;6.473652e-002
2.476256e+003;6.449018e-002
2.478184e+003;6.464364e-002
2.480113e+003;6.495056e-002
2.482041e+003;6.506559e-002
2.483970e+003;6.508134e-002
2.485898e+003;6.530865e-002
2.487827e+003;6.529848e-002
2.489755e+003;6.529952e-002
2.491684e+003;6.508372e-002
2.493613e+003;6.502961e-002
2.495541e+003;6.520106e-002
2.497470e+003;6.535756e-002
2.499398e+003;6.555295e-002
2.501327e+003;6.578189e-002
2.503255e+003;6.590316e-002
2.505184e+003;6.585585e-002
2.507112e+003;6.563634e-002
2.509041e+003;6.581377e-002
2.510969e+003;6.642018e-002
2.512898e+003;6.664201e-002
2.514827e+003;6.668022e-002
2.516755e+003;6.657163e-002
2.518684e+003;6.658778e-002
2.520612e+003;6.660902e-002
2.522541e+003;6.649945e-002
2.524469e+003;6.653606e-002
2.526398e+003;6.671773e-002
2.528326e+003;6.678438e-002
2.530255e+003;6.678249e-002
2.532184e+003;6.677599e-002
2.534112e+003;6.691887e-002
2.536041e+003;6.717983e-002
2.537969e+003;6.721228e-002
2.539898e+003;6.695347e-002
2.541826e+003;6.681097e-002
2.543755e+003;6.708953e-002
2.545683e+003;6.724504e-002
2.547612e+003;6.695081e-002
2.549541e+003;6.665827e-002
2.551469e+003;6.681271e-002
2.553397e+003;6.703872e-002
2.555326e+003;6.704088e-002
2.557255e+003;6.730679e-002
2.559183e+003;6.762434e-002
2.561112e+003;6.759050e-002
2.563040e+003;6.748092e-002
2.564969e+003;6.716479e-002
2.566897e+003;6.697396e-002
2.568826e+003;6.717070e-002
2.570754e+003;6.742135e-002
2.572683e+003;6.748851e-002
2.574612e+003;6.730021e-002
2.576540e+003;6.715202e-002
2.578469e+003;6.728605e-002
2.580397e+003;6.750341e-002
2.582326e+003;6.746234e-002
2.584254e+003;6.753689e-002
2.586183e+003;6.749048e-002
2.588111e+003;6.776924e-002
2.590040e+003;6.812067e-002
2.591969e+003;6.816102e-002
2.593897e+003;6.794263e-002
2.595826e+003;6.751378e-002
2.597754e+003;6.718396e-002
2.599683e+003;6.715879e-002
2.601611e+003;6.741098e-002
2.603540e+003;6.780092e-002
2.605468e+003;6.792554e-002
2.607397e+003;6.807593e-002
2.609325e+003;6.819808e-002
2.611254e+003;6.808946e-002
2.613183e+003;6.812055e-002
2.615111e+003;6.826743e-002
2.617040e+003;6.829055e-002
2.618968e+003;6.841318e-002
2.620897e+003;6.840166e-002
2.622825e+003;6.854336e-002
2.624754e+003;6.878623e-002
2.626682e+003;6.858938e-002
2.628611e+003;6.838661e-002
2.630540e+003;6.866431e-002
2.632468e+003;6.890026e-002
2.634396e+003;6.892423e-002
2.636325e+003;6.876449e-002
2.638254e+003;6.874396e-002
2.640182e+003;6.895214e-002
2.642111e+003;6.924945e-002
2.644039e+003;6.921650e-002
2.645968e+003;6.906183e-002
2.647896e+003;6.903969e-002
2.649825e+003;6.904392e-002
2.651753e+003;6.914722e-002
2.653682e+003;6.898593e-002
2.655611e+003;6.881648e-002
2.657539e+003;6.901859e-002
2.659468e+003;6.926508e-002
2.661396e+003;6.954747e-002
2.663325e+003;6.961989e-002
2.665253e+003;6.944474e-002
2.667182e+003;6.935707e-002
2.669110e+003;6.958278e-002
2.671039e+003;6.965797e-002
2.672968e+003;6.943478e-002
2.674896e+003;6.938949e-002
2.676825e+003;6.942429e-002
2.678753e+003;6.935983e-002
2.680682e+003;6.932808e-002
2.682610e+003;6.964283e-002
2.684539e+003;6.989118e-002
2.686467e+003;7.002345e-002
2.688396e+003;6.987776e-002
2.690324e+003;6.985857e-002
2.692253e+003;7.013582e-002
2.694182e+003;7.036038e-002
2.696110e+003;7.079615e-002
2.698039e+003;7.115046e-002
2.699967e+003;7.095701e-002
2.701896e+003;7.047670e-002
2.703824e+003;7.056271e-002
2.705753e+003;7.061456e-002
2.707681e+003;7.040176e-002
2.709610e+003;7.039136e-002
2.711539e+003;7.055414e-002
2.713467e+003;7.071242e-002
2.715396e+003;7.108910e-002
2.717324e+003;7.162824e-002
2.719253e+003;7.165446e-002
2.721181e+003;7.153787e-002
2.723110e+003;7.141928e-002
2.725038e+003;7.133242e-002
2.726967e+003;7.133856e-002
2.728896e+003;7.141389e-002
2.730824e+003;7.175990e-002
2.732752e+003;7.205652e-002
2.734681e+003;7.208946e-002
2.736610e+003;7.228290e-002
2.738538e+003;7.244740e-002
2.740467e+003;7.206141e-002
2.742395e+003;7.180326e-002
2.744324e+003;7.200971e-002
2.746252e+003;7.205425e-002
2.748181e+003;7.213742e-002
2.750109e+003;7.217126e-002
2.752038e+003;7.222474e-002
2.753967e+003;7.258026e-002
2.755895e+003;7.298832e-002
2.757824e+003;7.307060e-002
2.759752e+003;7.309734e-002
2.761681e+003;7.305264e-002
2.763609e+003;7.277854e-002
2.765538e+003;7.292446e-002
2.767466e+003;7.293920e-002
2.769395e+003;7.289296e-002
2.771323e+003;7.299808e-002
2.773252e+003;7.320952e-002
2.775181e+003;7.352857e-002
2.777109e+003;7.368793e-002
2.779038e+003;7.373819e-002
2.780966e+003;7.409424e-002
2.782895e+003;7.441554e-002
2.784823e+003;7.450966e-002
2.786752e+003;7.462339e-002
2.788680e+003;7.507217e-002
2.790609e+003;7.548226e-002
2.792538e+003;7.549467e-002
2.794466e+003;7.544138e-002
2.796395e+003;7.591159e-002
2.798323e+003;7.615215e-002
2.800252e+003;7.600142e-002
2.802180e+003;7.627042e-002
2.804109e+003;7.675707e-002
2.806037e+003;7.716405e-002
2.807966e+003;7.758178e-002
2.809895e+003;7.813611e-002
2.811823e+003;7.824527e-002
2.813751e+003;7.833829e-002
2.815680e+003;7.889724e-002
2.817609e+003;7.939460e-002
2.819537e+003;7.961842e-002
2.821466e+003;8.015479e-002
2.823394e+003;8.091041e-002
2.825323e+003;8.152477e-002
2.827251e+003;8.229138e-002
2.829180e+003;8.318458e-002
2.831108e+003;8.407547e-002
2.833037e+003;8.518669e-002
2.834966e+003;8.622304e-002
2.836894e+003;8.779390e-002
2.838823e+003;9.011400e-002
2.840751e+003;9.257931e-002
2.842680e+003;9.584977e-002
2.844608e+003;1.006217e-001
2.846537e+003;1.072141e-001
2.848465e+003;1.147203e-001
2.850394e+003;1.191365e-001
2.852323e+003;1.173863e-001
2.854251e+003;1.124561e-001
2.856180e+003;1.084336e-001
2.858108e+003;1.061613e-001
2.860037e+003;1.054311e-001
2.861965e+003;1.054371e-001
2.863894e+003;1.057797e-001
2.865822e+003;1.067350e-001
2.867751e+003;1.079292e-001
2.869679e+003;1.087228e-001
2.871608e+003;1.095601e-001
2.873536e+003;1.101208e-001
2.875465e+003;1.098847e-001
2.877394e+003;1.091360e-001
2.879322e+003;1.083636e-001
2.881251e+003;1.076807e-001
2.883179e+003;1.074613e-001
2.885108e+003;1.076654e-001
2.887036e+003;1.081886e-001
2.888965e+003;1.088642e-001
2.890893e+003;1.095107e-001
2.892822e+003;1.105604e-001
2.894750e+003;1.121718e-001
2.896679e+003;1.136483e-001
2.898608e+003;1.144200e-001
2.900536e+003;1.155320e-001
2.902465e+003;1.165887e-001
2.904393e+003;1.175273e-001
2.906322e+003;1.187404e-001
2.908250e+003;1.207707e-001
2.910179e+003;1.236527e-001
2.912107e+003;1.273786e-001
2.914036e+003;1.320411e-001
2.915965e+003;1.374014e-001
2.917893e+003;1.420774e-001
2.919822e+003;1.438846e-001
2.921750e+003;1.424704e-001
2.923679e+003;1.393805e-001
2.925607e+003;1.356060e-001
2.927536e+003;1.316829e-001
2.929464e+003;1.277556e-001
2.931393e+003;1.243829e-001
2.933322e+003;1.217604e-001
2.935250e+003;1.194402e-001
2.937178e+003;1.174652e-001
2.939107e+003;1.157472e-001
2.941036e+003;1.138470e-001
2.942964e+003;1.120057e-001
2.944893e+003;1.110557e-001
2.946821e+003;1.107010e-001
2.948750e+003;1.105483e-001
2.950678e+003;1.106561e-001
2.952607e+003;1.113009e-001
2.954535e+003;1.123300e-001
2.956464e+003;1.132885e-001
2.958393e+003;1.135896e-001
2.960321e+003;1.126770e-001
2.962250e+003;1.110068e-001
2.964178e+003;1.090608e-001
2.966107e+003;1.063403e-001
2.968035e+003;1.032186e-001
2.969964e+003;1.003491e-001
2.971892e+003;9.741361e-002
2.973821e+003;9.435636e-002
2.975750e+003;9.112581e-002
2.977678e+003;8.855623e-002
2.979607e+003;8.617354e-002
2.981535e+003;8.384264e-002
2.983464e+003;8.193095e-002
2.985392e+003;8.053326e-002
2.987321e+003;7.903069e-002
2.989249e+003;7.758328e-002
2.991178e+003;7.650694e-002
2.993106e+003;7.597864e-002
2.995035e+003;7.554806e-002
2.996964e+003;7.469887e-002
2.998892e+003;7.418825e-002
3.000821e+003;7.399710e-002
3.002749e+003;7.397373e-002
3.004678e+003;7.372488e-002
3.006606e+003;7.335905e-002
3.008535e+003;7.346726e-002
3.010463e+003;7.365134e-002
3.012392e+003;7.345466e-002
3.014321e+003;7.296111e-002
3.016249e+003;7.331908e-002
3.018177e+003;7.393216e-002
3.020106e+003;7.406642e-002
3.022035e+003;7.437240e-002
3.023963e+003;7.477285e-002
3.025892e+003;7.525267e-002
3.027820e+003;7.598358e-002
3.029749e+003;7.640843e-002
3.031677e+003;7.646888e-002
3.033606e+003;7.587276e-002
3.035534e+003;7.536905e-002
3.037463e+003;7.550390e-002
3.039392e+003;7.513629e-002
3.041320e+003;7.488669e-002
3.043249e+003;7.485379e-002
3.045177e+003;7.465054e-002
3.047106e+003;7.476793e-002
3.049034e+003;7.473484e-002
3.050963e+003;7.496020e-002
3.052891e+003;7.562712e-002
3.054820e+003;7.598338e-002
3.056749e+003;7.608037e-002
3.058677e+003;7.613663e-002
3.060606e+003;7.649599e-002
3.062534e+003;7.681473e-002
3.064463e+003;7.649461e-002
3.066391e+003;7.643028e-002
3.068320e+003;7.685348e-002
3.070248e+003;7.676609e-002
3.072177e+003;7.676822e-002
3.074105e+003;7.667737e-002
3.076034e+003;7.633227e-002
3.077963e+003;7.644684e-002
3.079891e+003;7.671769e-002
3.081820e+003;7.706654e-002
3.083748e+003;7.746149e-002
3.085677e+003;7.796177e-002
3.087605e+003;7.809390e-002
3.089534e+003;7.789925e-002
3.091462e+003;7.757152e-002
3.093391e+003;7.743515e-002
3.095320e+003;7.763705e-002
3.097248e+003;7.763693e-002
3.099177e+003;7.794908e-002
3.101105e+003;7.853957e-002
3.103034e+003;7.884300e-002
3.104962e+003;7.909552e-002
3.106891e+003;7.911277e-002
3.108819e+003;7.894631e-002
3.110748e+003;7.878969e-002
3.112677e+003;7.825254e-002
3.114605e+003;7.799928e-002
3.116533e+003;7.801379e-002
3.118462e+003;7.846220e-002
3.120391e+003;7.925361e-002
3.122319e+003;7.951117e-002
3.124248e+003;7.972260e-002
3.126176e+003;8.033416e-002
3.128105e+003;8.055974e-002
3.130033e+003;8.035325e-002
3.131962e+003;8.046474e-002
3.133890e+003;8.073764e-002
3.135819e+003;8.096921e-002
3.137748e+003;8.124275e-002
3.139676e+003;8.161000e-002
3.141605e+003;8.166139e-002
3.143533e+003;8.163911e-002
3.145462e+003;8.204865e-002
3.147390e+003;8.219520e-002
3.149319e+003;8.198329e-002
3.151247e+003;8.209120e-002
3.153176e+003;8.281362e-002
3.155104e+003;8.339442e-002
3.157033e+003;8.362888e-002
3.158962e+003;8.409228e-002
3.160890e+003;8.448784e-002
3.162819e+003;8.440980e-002
3.164747e+003;8.442980e-002
3.166676e+003;8.468692e-002
3.168604e+003;8.514944e-002
3.170533e+003;8.547322e-002
3.172461e+003;8.602790e-002
3.174390e+003;8.636337e-002
3.176319e+003;8.631668e-002
3.178247e+003;8.670431e-002
3.180176e+003;8.685674e-002
3.182104e+003;8.712680e-002
3.184033e+003;8.753174e-002
3.185961e+003;8.801848e-002
3.187890e+003;8.847596e-002
3.189818e+003;8.828732e-002
3.191747e+003;8.845626e-002
3.193676e+003;8.892789e-002
3.195604e+003;8.898792e-002
3.197532e+003;8.911882e-002
3.199461e+003;8.963320e-002
3.201390e+003;9.011795e-002
3.203318e+003;9.002088e-002
3.205247e+003;8.985002e-002
3.207175e+003;9.015588e-002
3.209104e+003;9.083378e-002
3.211032e+003;9.131569e-002
3.212961e+003;9.161574e-002
3.214889e+003;9.174927e-002
3.216818e+003;9.214793e-002
3.218747e+003;9.232896e-002
3.220675e+003;9.220947e-002
3.222604e+003;9.264579e-002
3.224532e+003;9.303895e-002
3.226461e+003;9.287138e-002
3.228389e+003;9.334390e-002
3.230318e+003;9.438077e-002
3.232246e+003;9.503937e-002
3.234175e+003;9.525378e-002
3.236104e+003;9.515893e-002
3.238032e+003;9.534522e-002
3.239961e+003;9.580028e-002
3.241889e+003;9.645759e-002
3.243818e+003;9.699741e-002
3.245746e+003;9.744342e-002
3.247675e+003;9.779572e-002
3.249603e+003;9.833317e-002
3.251532e+003;9.908486e-002
3.253460e+003;9.942566e-002
3.255389e+003;9.964041e-002
3.257318e+003;1.000405e-001
3.259246e+003;1.004114e-001
3.261175e+003;1.004262e-001
3.263103e+003;1.004559e-001
3.265032e+003;1.010386e-001
3.266960e+003;1.014744e-001
3.268889e+003;1.015437e-001
3.270817e+003;1.014030e-001
3.272746e+003;1.012702e-001
3.274675e+003;1.016215e-001
3.276603e+003;1.017897e-001
3.278531e+003;1.021713e-001
3.280460e+003;1.029956e-001
3.282389e+003;1.030174e-001
3.284317e+003;1.025205e-001
3.286246e+003;1.023112e-001
3.288174e+003;1.019687e-001
3.290103e+003;1.013786e-001
3.292031e+003;1.012698e-001
3.293960e+003;1.015303e-001
3.295888e+003;1.018708e-001
3.297817e+003;1.019945e-001
3.299746e+003;1.015591e-001
3.301674e+003;1.011358e-001
3.303603e+003;1.007827e-001
3.305531e+003;1.008939e-001
3.307460e+003;1.015010e-001
3.309388e+003;1.016135e-001
3.311317e+003;1.015669e-001
3.313245e+003;1.012320e-001
3.315174e+003;1.009554e-001
3.317103e+003;1.012955e-001
3.319031e+003;1.019069e-001
3.320960e+003;1.024903e-001
3.322888e+003;1.023347e-001
3.324817e+003;1.023973e-001
3.326745e+003;1.023876e-001
3.328674e+003;1.020806e-001
3.330602e+003;1.024949e-001
3.332531e+003;1.029677e-001
3.334459e+003;1.029337e-001
3.336388e+003;1.023902e-001
3.338317e+003;1.019016e-001
3.340245e+003;1.015767e-001
3.342174e+003;1.009100e-001
3.344102e+003;1.004501e-001
3.346031e+003;1.002596e-001
3.347959e+003;9.966792e-002
3.349888e+003;9.910197e-002
3.351816e+003;9.797090e-002
3.353745e+003;9.711400e-002
3.355674e+003;9.666803e-002
3.357602e+003;9.609820e-002
3.359531e+003;9.576703e-002
3.361459e+003;9.535678e-002
3.363388e+003;9.492218e-002
3.365316e+003;9.445992e-002
3.367245e+003;9.369268e-002
3.369173e+003;9.297336e-002
3.371102e+003;9.242475e-002
3.373031e+003;9.204094e-002
3.374959e+003;9.162667e-002
3.376887e+003;9.137829e-002
3.378816e+003;9.101973e-002
3.380745e+003;9.044648e-002
3.382673e+003;8.958120e-002
3.384602e+003;8.886833e-002
3.386530e+003;8.871097e-002
3.388459e+003;8.843830e-002
3.390387e+003;8.788265e-002
3.392316e+003;8.778210e-002
3.394244e+003;8.783401e-002
3.396173e+003;8.706448e-002
3.398102e+003;8.673859e-002
3.400030e+003;8.662135e-002
3.401959e+003;8.598654e-002
3.403887e+003;8.518935e-002
3.405816e+003;8.512546e-002
3.407744e+003;8.505186e-002
3.409673e+003;8.438401e-002
3.411601e+003;8.347674e-002
3.413530e+003;8.284586e-002
3.415458e+003;8.204741e-002
3.417387e+003;8.082818e-002
3.419316e+003;7.982603e-002
3.421244e+003;7.918708e-002
3.423173e+003;7.910347e-002
3.425101e+003;7.932754e-002
3.427030e+003;7.899098e-002
3.428958e+003;7.852988e-002
3.430887e+003;7.790595e-002
3.432815e+003;7.720540e-002
3.434744e+003;7.690936e-002
3.436673e+003;7.691823e-002
3.438601e+003;7.656243e-002
3.440530e+003;7.601377e-002
3.442458e+003;7.534981e-002
3.444387e+003;7.438459e-002
3.446315e+003;7.368220e-002
3.448244e+003;7.355827e-002
3.450172e+003;7.300027e-002
3.452101e+003;7.193677e-002
3.454030e+003;7.111381e-002
3.455958e+003;7.100426e-002
3.457886e+003;7.091238e-002
3.459815e+003;7.068431e-002
3.461744e+003;7.021707e-002
3.463672e+003;6.916598e-002
3.465601e+003;6.840926e-002
3.467529e+003;6.824654e-002
3.469458e+003;6.849971e-002
3.471386e+003;6.784489e-002
3.473315e+003;6.681085e-002
3.475243e+003;6.619784e-002
3.477172e+003;6.593690e-002
3.479101e+003;6.566556e-002
3.481029e+003;6.487561e-002
3.482958e+003;6.402044e-002
3.484886e+003;6.348660e-002
3.486815e+003;6.324843e-002
3.488743e+003;6.242771e-002
3.490672e+003;6.183308e-002
3.492600e+003;6.191653e-002
3.494529e+003;6.161434e-002
3.496458e+003;6.085944e-002
3.498386e+003;6.024370e-002
3.500315e+003;5.973462e-002
3.502243e+003;5.879373e-002
3.504172e+003;5.846847e-002
3.506100e+003;5.872227e-002
3.508029e+003;5.829185e-002
3.509957e+003;5.790490e-002
3.511886e+003;5.780322e-002
3.513814e+003;5.735499e-002
3.515743e+003;5.689276e-002
3.517672e+003;5.663731e-002
3.519600e+003;5.602589e-002
3.521529e+003;5.540691e-002
3.523457e+003;5.489647e-002
3.525386e+003;5.479771e-002
3.527314e+003;5.430278e-002
3.529243e+003;5.373825e-002
3.531171e+003;5.363128e-002
3.533100e+003;5.357052e-002
3.535029e+003;5.332005e-002
3.536957e+003;5.264973e-002
3.538885e+003;5.207214e-002
3.540814e+003;5.186322e-002
3.542743e+003;5.124306e-002
3.544671e+003;5.023462e-002
3.546600e+003;4.980670e-002
3.548528e+003;4.976448e-002
3.550457e+003;4.905336e-002
3.552385e+003;4.879874e-002
3.554314e+003;4.903930e-002
3.556242e+003;4.881735e-002
3.558171e+003;4.854504e-002
3.560100e+003;4.800563e-002
3.562028e+003;4.717100e-002
3.563957e+003;4.615396e-002
3.565885e+003;4.507036e-002
3.567814e+003;4.555983e-002
3.569742e+003;4.638937e-002
3.571671e+003;4.585256e-002
3.573599e+003;4.545582e-002
3.575528e+003;4.538938e-002
3.577457e+003;4.526312e-002
3.579385e+003;4.469218e-002
3.581314e+003;4.413119e-002
3.583242e+003;4.436394e-002
3.585171e+003;4.353020e-002
3.587099e+003;4.228008e-002
3.589028e+003;4.247968e-002
3.590956e+003;4.327480e-002
3.592885e+003;4.305496e-002
3.594813e+003;4.286684e-002
3.596742e+003;4.314373e-002
3.598671e+003;4.273681e-002
3.600599e+003;4.210948e-002
3.602528e+003;4.222030e-002
3.604456e+003;4.202417e-002
3.606385e+003;4.061579e-002
3.608313e+003;3.913102e-002
3.610242e+003;3.940478e-002
3.612170e+003;3.948490e-002
3.614099e+003;3.945689e-002
3.616028e+003;3.947764e-002
3.617956e+003;3.846152e-002
3.619885e+003;3.840693e-002
3.621813e+003;3.929048e-002
3.623742e+003;3.888087e-002
3.625670e+003;3.766233e-002
3.627599e+003;3.445315e-002
3.629527e+003;3.404314e-002
3.631456e+003;3.677985e-002
3.633385e+003;3.714048e-002
3.635313e+003;3.659590e-002
3.637241e+003;3.651106e-002
3.639170e+003;3.671394e-002
3.641099e+003;3.668546e-002
3.643027e+003;3.669317e-002
3.644956e+003;3.613237e-002
3.646884e+003;3.333628e-002
3.648813e+003;3.081258e-002
3.650741e+003;3.113696e-002
3.652670e+003;3.284294e-002
3.654598e+003;3.268797e-002
3.656527e+003;3.214884e-002
3.658456e+003;3.251207e-002
3.660384e+003;3.264932e-002
3.662313e+003;3.298895e-002
3.664241e+003;3.285173e-002
3.666170e+003;3.181433e-002
3.668098e+003;2.941738e-002
3.670027e+003;2.779535e-002
3.671955e+003;2.904014e-002
3.673884e+003;2.736930e-002
3.675813e+003;2.617583e-002
3.677741e+003;2.899675e-002
3.679669e+003;3.075553e-002
3.681598e+003;3.123796e-002
3.683527e+003;3.101008e-002
3.685455e+003;2.965950e-002
3.687384e+003;2.604757e-002
3.689312e+003;2.544314e-002
3.691241e+003;2.770955e-002
3.693169e+003;2.926583e-002
3.695098e+003;2.939263e-002
3.697026e+003;2.869502e-002
3.698955e+003;2.807209e-002
3.700884e+003;2.735074e-002
3.702812e+003;2.787367e-002
3.704741e+003;2.871290e-002
3.706669e+003;2.872950e-002
3.708598e+003;2.726006e-002
3.710526e+003;2.527447e-002
3.712455e+003;2.541655e-002
3.714383e+003;2.740131e-002
3.716312e+003;2.840122e-002
3.718240e+003;2.819579e-002
3.720169e+003;2.775070e-002
3.722098e+003;2.743731e-002
3.724026e+003;2.693560e-002
3.725955e+003;2.639292e-002
3.727883e+003;2.663058e-002
3.729812e+003;2.648011e-002
3.731740e+003;2.529867e-002
3.733669e+003;2.438026e-002
3.735597e+003;2.334431e-002
3.737526e+003;2.479419e-002
3.739455e+003;2.643609e-002
3.741383e+003;2.541472e-002
3.743312e+003;2.144083e-002
3.745240e+003;2.226604e-002
3.747169e+003;2.401057e-002
3.749097e+003;2.145903e-002
3.751026e+003;2.095736e-002
3.752954e+003;2.405560e-002
3.754883e+003;2.748965e-002
3.756812e+003;2.724739e-002
3.758740e+003;2.621550e-002
3.760668e+003;2.589526e-002
3.762597e+003;2.671514e-002
3.764526e+003;2.648687e-002
3.766454e+003;2.671169e-002
3.768383e+003;2.648595e-002
3.770311e+003;2.678847e-002
3.772240e+003;2.789780e-002
3.774168e+003;2.852880e-002
3.776097e+003;2.751249e-002
3.778025e+003;2.654460e-002
3.779954e+003;2.719596e-002
3.781883e+003;2.821078e-002
3.783811e+003;2.820728e-002
3.785740e+003;2.781856e-002
3.787668e+003;2.735610e-002
3.789597e+003;2.800936e-002
3.791525e+003;2.805530e-002
3.793454e+003;2.758059e-002
3.795382e+003;2.682118e-002
3.797311e+003;2.676032e-002
3.799240e+003;2.508873e-002
3.801168e+003;2.307849e-002
3.803097e+003;2.503614e-002
3.805025e+003;2.576733e-002
3.806954e+003;2.567326e-002
3.808882e+003;2.729908e-002
3.810811e+003;2.791529e-002
3.812739e+003;2.765181e-002
3.814668e+003;2.491517e-002
3.816596e+003;2.436943e-002
3.818525e+003;2.552877e-002
3.820454e+003;2.406078e-002
3.822382e+003;2.499227e-002
3.824311e+003;2.718964e-002
3.826239e+003;2.778323e-002
3.828168e+003;2.811999e-002
3.830096e+003;2.708919e-002
3.832025e+003;2.633388e-002
3.833953e+003;2.615838e-002
3.835882e+003;2.436284e-002
3.837811e+003;2.318393e-002
3.839739e+003;2.509192e-002
3.841667e+003;2.641183e-002
3.843596e+003;2.686763e-002
3.845525e+003;2.790737e-002
3.847453e+003;2.827050e-002
3.849382e+003;2.608082e-002
3.851310e+003;2.179176e-002
3.853239e+003;1.923622e-002
3.855167e+003;2.313269e-002
3.857096e+003;2.747105e-002
3.859024e+003;2.875227e-002
3.860953e+003;2.794628e-002
3.862882e+003;2.590019e-002
3.864810e+003;2.557006e-002
3.866739e+003;2.660585e-002
3.868667e+003;2.560813e-002
3.870596e+003;2.594922e-002
3.872524e+003;2.695026e-002
3.874453e+003;2.770464e-002
3.876381e+003;2.906331e-002
3.878310e+003;2.811447e-002
3.880239e+003;2.661219e-002
3.882167e+003;2.734809e-002
3.884096e+003;2.709311e-002
3.886024e+003;2.718703e-002
3.887953e+003;2.847767e-002
3.889881e+003;2.791331e-002
3.891810e+003;2.755885e-002
3.893738e+003;2.832001e-002
3.895667e+003;2.947954e-002
3.897595e+003;2.876296e-002
3.899524e+003;2.761721e-002
3.901453e+003;2.748330e-002
3.903381e+003;2.714940e-002
3.905310e+003;2.840345e-002
3.907238e+003;3.028813e-002
3.909167e+003;3.013599e-002
3.911095e+003;2.999672e-002
3.913024e+003;3.022632e-002
3.914952e+003;2.971981e-002
3.916881e+003;2.909793e-002
3.918810e+003;2.877262e-002
3.920738e+003;2.869952e-002
3.922667e+003;2.882538e-002
3.924595e+003;2.932570e-002
3.926524e+003;2.979891e-002
3.928452e+003;2.949826e-002
3.930381e+003;2.889793e-002
3.932309e+003;2.874320e-002
3.934238e+003;2.967469e-002
3.936167e+003;2.982120e-002
3.938095e+003;2.982932e-002
3.940023e+003;3.032671e-002
3.941952e+003;3.013297e-002
3.943881e+003;3.011259e-002
3.945809e+003;3.020873e-002
3.947738e+003;2.976197e-002
3.949666e+003;2.953684e-002
3.951595e+003;2.996470e-002
3.953523e+003;3.075201e-002
3.955452e+003;3.070393e-002
3.957380e+003;3.042159e-002
3.959309e+003;3.088931e-002
3.961238e+003;3.128055e-002
3.963166e+003;3.126025e-002
3.965095e+003;3.095759e-002
3.967023e+003;3.020618e-002
3.968952e+003;3.025630e-002
3.970880e+003;3.145328e-002
3.972809e+003;3.125533e-002
3.974737e+003;3.030099e-002
3.976666e+003;3.029719e-002
3.978594e+003;3.071026e-002
3.980523e+003;3.010155e-002
3.982452e+003;2.943517e-002
3.984380e+003;3.055431e-002
3.986309e+003;3.143337e-002
3.988237e+003;3.166554e-002
3.990166e+003;3.157549e-002
3.992094e+003;3.136270e-002
3.994023e+003;3.110069e-002
3.995951e+003;3.090600e-002
3.997880e+003;3.073376e-002
3.999809e+003;3.050938e-002
4.001737e+003;0.000000e+000
