3.992094e+002;0.000000e+000
4.011380e+002;0.000000e+000
4.030665e+002;0.000000e+000
4.049951e+002;0.000000e+000
4.069236e+002;0.000000e+000
4.088522e+002;0.000000e+000
4.107807e+002;0.000000e+000
4.127093e+002;0.000000e+000
4.146378e+002;0.000000e+000
4.165664e+002;0.000000e+000
4.184949e+002;0.000000e+000
4.204235e+002;0.000000e+000
4.223520e+002;0.000000e+000
4.242806e+002;0.000000e+000
4.262091e+002;0.000000e+000
4.281377e+002;0.000000e+000
4.300662e+002;0.000000e+000
4.319948e+002;0.000000e+000
4.339233e+002;0.000000e+000
4.358519e+002;0.000000e+000
4.377804e+002;0.000000e+000
4.397090e+002;0.000000e+000
4.416375e+002;0.000000e+000
4.435660e+002;0.000000e+000
4.454946e+002;0.000000e+000
4.474232e+002;0.000000e+000
4.493517e+002;0.000000e+000
4.512802e+002;0.000000e+000
4.532088e+002;0.000000e+000
4.551373e+002;0.000000e+000
4.570659e+002;0.000000e+000
4.589944e+002;0.000000e+000
4.609230e+002;0.000000e+000
4.628515e+002;0.000000e+000
4.647801e+002;0.000000e+000
4.667086e+002;0.000000e+000
4.686372e+002;0.000000e+000
4.705657e+002;0.000000e+000
4.724943e+002;0.000000e+000
4.744228e+002;0.000000e+000
4.763513e+002;0.000000e+000
4.782799e+002;0.000000e+000
4.802085e+002;0.000000e+000
4.821370e+002;0.000000e+000
4.840656e+002;0.000000e+000
4.859941e+002;0.000000e+000
4.879226e+002;0.000000e+000
4.898512e+002;0.000000e+000
4.917798e+002;0.000000e+000
4.937083e+002;0.000000e+000
4.956368e+002;0.000000e+000
4.975654e+002;0.000000e+000
4.994939e+002;0.000000e+000
5.014225e+002;0.000000e+000
5.033510e+002;0.000000e+000
5.052796e+002;0.000000e+000
5.072081e+002;0.000000e+000
5.091367e+002;0.000000e+000
5.110652e+002;0.000000e+000
5.129938e+002;0.000000e+000
5.149223e+002;0.000000e+000
5.168509e+002;0.000000e+000
5.187794e+002;0.000000e+000
5.207079e+002;0.000000e+000
5.226365e+002;0.000000e+000
5.245651e+002;0.000000e+000
5.264936e+002;0.000000e+000
5.284222e+002;0.000000e+000
5.303507e+002;0.000000e+000
5.322792e+002;0.000000e+000
5.342078e+002;0.000000e+000
5.361364e+002;0.000000e+000
5.380649e+002;0.000000e+000
5.399935e+002;0.000000e+000
5.419220e+002;0.000000e+000
5.438505e+002;0.000000e+000
5.457791e+002;0.000000e+000
5.477076e+002;0.000000e+000
5.496362e+002;0.000000e+000
5.515648e+002;0.000000e+000
5.534933e+002;0.000000e+000
5.554218e+002;0.000000e+000
5.573504e+002;0.000000e+000
5.592789e+002;0.000000e+000
5.612075e+002;0.000000e+000
5.631360e+002;0.000000e+000
5.650646e+002;0.000000e+000
5.669931e+002;0.000000e+000
5.689217e+002;0.000000e+000
5.708502e+002;0.000000e+000
5.727787e+002;0.000000e+000
5.747073e+002;0.000000e+000
5.766359e+002;0.000000e+000
5.785644e+002;0.000000e+000
5.804930e+002;0.000000e+000
5.824215e+002;0.000000e+000
5.843500e+002;0.000000e+000
5.862786e+002;0.000000e+000
5.882072e+002;0.000000e+000
5.901357e+002;0.000000e+000
5.920643e+002;0.000000e+000
5.939928e+002;0.000000e+000
5.959213e+002;0.000000e+000
5.978499e+002;0.000000e+000
5.997784e+002;2.236849e-001
6.017070e+002;2.283969e-001
6.036355e+002;2.362346e-001
6.055641e+002;2.441630e-001
6.074926e+002;2.491872e-001
6.094211e+002;2.494331e-001
6.113497e+002;2.466807e-001
6.132783e+002;2.458174e-001
6.152068e+002;2.478065e-001
6.171354e+002;2.478793e-001
6.190639e+002;2.452068e-001
6.209924e+002;2.410215e-001
6.229210e+002;2.341023e-001
6.248495e+002;2.304566e-001
6.267781e+002;2.274334e-001
6.287067e+002;2.247854e-001
6.306352e+002;2.191582e-001
6.325637e+002;2.115143e-001
6.344923e+002;2.111033e-001
6.364208e+002;2.132767e-001
6.383494e+002;2.096083e-001
6.402780e+002;2.051464e-001
6.422065e+002;2.044430e-001
6.441350e+002;2.071415e-001
6.460636e+002;2.088654e-001
6.479921e+002;2.089645e-001
6.499207e+002;2.081589e-001
6.518492e+002;2.072746e-001
6.537778e+002;2.100135e-001
6.557063e+002;2.156949e-001
6.576349e+002;2.188626e-001
6.595634e+002;2.209965e-001
6.614919e+002;2.225556e-001
6.634205e+002;2.244692e-001
6.653491e+002;2.251022e-001
6.672776e+002;2.220134e-001
6.692062e+002;2.189686e-001
6.711347e+002;2.166067e-001
6.730632e+002;2.116673e-001
6.749918e+002;2.051766e-001
6.769203e+002;2.002414e-001
6.788489e+002;1.963262e-001
6.807775e+002;1.942263e-001
6.827060e+002;1.927885e-001
6.846345e+002;1.914743e-001
6.865631e+002;1.907478e-001
6.884916e+002;1.896065e-001
6.904202e+002;1.904491e-001
6.923488e+002;1.918348e-001
6.942773e+002;1.927496e-001
6.962058e+002;1.942294e-001
6.981344e+002;1.950483e-001
7.000629e+002;1.944624e-001
7.019915e+002;1.928129e-001
7.039200e+002;1.905055e-001
7.058486e+002;1.875524e-001
7.077771e+002;1.842299e-001
7.097057e+002;1.813146e-001
7.116342e+002;1.785727e-001
7.135627e+002;1.769727e-001
7.154913e+002;1.753113e-001
7.174199e+002;1.721995e-001
7.193484e+002;1.685756e-001
7.212770e+002;1.638929e-001
7.232055e+002;1.579482e-001
7.251340e+002;1.539951e-001
7.270626e+002;1.517370e-001
7.289911e+002;1.495067e-001
7.309197e+002;1.475874e-001
7.328483e+002;1.453027e-001
7.347768e+002;1.430780e-001
7.367053e+002;1.408617e-001
7.386339e+002;1.386538e-001
7.405624e+002;1.374979e-001
7.424910e+002;1.366563e-001
7.444196e+002;1.352334e-001
7.463481e+002;1.340412e-001
7.482766e+002;1.330328e-001
7.502052e+002;1.315874e-001
7.521337e+002;1.305990e-001
7.540623e+002;1.301794e-001
7.559908e+002;1.294382e-001
7.579194e+002;1.287271e-001
7.598479e+002;1.277321e-001
7.617765e+002;1.271569e-001
7.637050e+002;1.263155e-001
7.656335e+002;1.250346e-001
7.675621e+002;1.241765e-001
7.694907e+002;1.233998e-001
7.714192e+002;1.215674e-001
7.733478e+002;1.199798e-001
7.752763e+002;1.196230e-001
7.772048e+002;1.197243e-001
7.791334e+002;1.197991e-001
7.810620e+002;1.197895e-001
7.829905e+002;1.190746e-001
7.849191e+002;1.186498e-001
7.868476e+002;1.191479e-001
7.887761e+002;1.193230e-001
7.907047e+002;1.193261e-001
7.926332e+002;1.192321e-001
7.945618e+002;1.195863e-001
7.964903e+002;1.202301e-001
7.984189e+002;1.208576e-001
8.003474e+002;1.213739e-001
8.022759e+002;1.212029e-001
8.042045e+002;1.208379e-001
8.061331e+002;1.207954e-001
8.080616e+002;1.203607e-001
8.099902e+002;1.197048e-001
8.119187e+002;1.190867e-001
8.138472e+002;1.189753e-001
8.157758e+002;1.193715e-001
8.177043e+002;1.187031e-001
8.196329e+002;1.180840e-001
8.215615e+002;1.174833e-001
8.234900e+002;1.166375e-001
8.254185e+002;1.163489e-001
8.273471e+002;1.157328e-001
8.292756e+002;1.147921e-001
8.312042e+002;1.136840e-001
8.331328e+002;1.132860e-001
8.350613e+002;1.135024e-001
8.369898e+002;1.135374e-001
8.389184e+002;1.134529e-001
8.408469e+002;1.134548e-001
8.427755e+002;1.130133e-001
8.447040e+002;1.122644e-001
8.466326e+002;1.119398e-001
8.485611e+002;1.117907e-001
8.504897e+002;1.120350e-001
8.524182e+002;1.127294e-001
8.543467e+002;1.138452e-001
8.562753e+002;1.143250e-001
8.582039e+002;1.141811e-001
8.601324e+002;1.147808e-001
8.620610e+002;1.158157e-001
8.639895e+002;1.169182e-001
8.659180e+002;1.179320e-001
8.678466e+002;1.196071e-001
8.697751e+002;1.215522e-001
8.717037e+002;1.231684e-001
8.736323e+002;1.251469e-001
8.755608e+002;1.270286e-001
8.774893e+002;1.280341e-001
8.794179e+002;1.293638e-001
8.813464e+002;1.314564e-001
8.832750e+002;1.335655e-001
8.852036e+002;1.355641e-001
8.871321e+002;1.379494e-001
8.890606e+002;1.406465e-001
8.909892e+002;1.430700e-001
8.929177e+002;1.452481e-001
8.948463e+002;1.470496e-001
8.967748e+002;1.476121e-001
8.987034e+002;1.474476e-001
9.006319e+002;1.469459e-001
9.025605e+002;1.464355e-001
9.044890e+002;1.460243e-001
9.064175e+002;1.450352e-001
9.083461e+002;1.437356e-001
9.102747e+002;1.421931e-001
9.122032e+002;1.409903e-001
9.141318e+002;1.402195e-001
9.160603e+002;1.392546e-001
9.179888e+002;1.389364e-001
9.199174e+002;1.394748e-001
9.218459e+002;1.403858e-001
9.237745e+002;1.414460e-001
9.257031e+002;1.428379e-001
9.276316e+002;1.447264e-001
9.295601e+002;1.469016e-001
9.314887e+002;1.489883e-001
9.334172e+002;1.507944e-001
9.353458e+002;1.525434e-001
9.372744e+002;1.541523e-001
9.392029e+002;1.557745e-001
9.411314e+002;1.579602e-001
9.430600e+002;1.606459e-001
9.449885e+002;1.635813e-001
9.469171e+002;1.669203e-001
9.488456e+002;1.704549e-001
9.507742e+002;1.737766e-001
9.527027e+002;1.771029e-001
9.546313e+002;1.813584e-001
9.565598e+002;1.860951e-001
9.584883e+002;1.907185e-001
9.604169e+002;1.954454e-001
9.623455e+002;2.006796e-001
9.642740e+002;2.062390e-001
9.662026e+002;2.120017e-001
9.681311e+002;2.184133e-001
9.700596e+002;2.256532e-001
9.719882e+002;2.342401e-001
9.739167e+002;2.445876e-001
9.758453e+002;2.566201e-001
9.777739e+002;2.705566e-001
9.797024e+002;2.852121e-001
9.816309e+002;2.983362e-001
9.835595e+002;3.072124e-001
9.854880e+002;3.110647e-001
9.874166e+002;3.122845e-001
9.893452e+002;3.139032e-001
9.912737e+002;3.176939e-001
9.932022e+002;3.230390e-001
9.951307e+002;3.292930e-001
9.970593e+002;3.357451e-001
9.989879e+002;3.404920e-001
1.000916e+003;3.429830e-001
1.002845e+003;3.442812e-001
1.004773e+003;3.451095e-001
1.006702e+003;3.455558e-001
1.008631e+003;3.465292e-001
1.010559e+003;3.477367e-001
1.012488e+003;3.495574e-001
1.014416e+003;3.525509e-001
1.016345e+003;3.559351e-001
1.018273e+003;3.593597e-001
1.020202e+003;3.636145e-001
1.022130e+003;3.684504e-001
1.024059e+003;3.731298e-001
1.025988e+003;3.779806e-001
1.027916e+003;3.820980e-001
1.029845e+003;3.834555e-001
1.031773e+003;3.831687e-001
1.033702e+003;3.798092e-001
1.035630e+003;3.728365e-001
1.037559e+003;3.644582e-001
1.039487e+003;3.573817e-001
1.041416e+003;3.528370e-001
1.043344e+003;3.516035e-001
1.045273e+003;3.537413e-001
1.047202e+003;3.585441e-001
1.049130e+003;3.645874e-001
1.051059e+003;3.692644e-001
1.052987e+003;3.713418e-001
1.054916e+003;3.710375e-001
1.056844e+003;3.685645e-001
1.058773e+003;3.608675e-001
1.060701e+003;3.471297e-001
1.062630e+003;3.307279e-001
1.064558e+003;3.129838e-001
1.066487e+003;2.955849e-001
1.068416e+003;2.812344e-001
1.070344e+003;2.709023e-001
1.072273e+003;2.635038e-001
1.074201e+003;2.572109e-001
1.076130e+003;2.515789e-001
1.078058e+003;2.463558e-001
1.079987e+003;2.416586e-001
1.081915e+003;2.380998e-001
1.083844e+003;2.359249e-001
1.085773e+003;2.353770e-001
1.087701e+003;2.356627e-001
1.089630e+003;2.363321e-001
1.091558e+003;2.373762e-001
1.093487e+003;2.394138e-001
1.095415e+003;2.416153e-001
1.097344e+003;2.443558e-001
1.099272e+003;2.476749e-001
1.101201e+003;2.495509e-001
1.103129e+003;2.504644e-001
1.105058e+003;2.504875e-001
1.106987e+003;2.498001e-001
1.108915e+003;2.486242e-001
1.110844e+003;2.450622e-001
1.112772e+003;2.393492e-001
1.114701e+003;2.316263e-001
1.116629e+003;2.213656e-001
1.118558e+003;2.107038e-001
1.120486e+003;2.014384e-001
1.122415e+003;1.939503e-001
1.124344e+003;1.871374e-001
1.126272e+003;1.799436e-001
1.128201e+003;1.727420e-001
1.130129e+003;1.667833e-001
1.132058e+003;1.621890e-001
1.133986e+003;1.586000e-001
1.135915e+003;1.558489e-001
1.137843e+003;1.543640e-001
1.139772e+003;1.544784e-001
1.141700e+003;1.562029e-001
1.143629e+003;1.591407e-001
1.145557e+003;1.625506e-001
1.147486e+003;1.655997e-001
1.149415e+003;1.679778e-001
1.151343e+003;1.699807e-001
1.153272e+003;1.720886e-001
1.155200e+003;1.742350e-001
1.157129e+003;1.758048e-001
1.159057e+003;1.760409e-001
1.160986e+003;1.749924e-001
1.162914e+003;1.718333e-001
1.164843e+003;1.664585e-001
1.166771e+003;1.593952e-001
1.168700e+003;1.511087e-001
1.170629e+003;1.431131e-001
1.172557e+003;1.362734e-001
1.174486e+003;1.305311e-001
1.176414e+003;1.263446e-001
1.178343e+003;1.231619e-001
1.180271e+003;1.202577e-001
1.182200e+003;1.178030e-001
1.184128e+003;1.159430e-001
1.186057e+003;1.151755e-001
1.187986e+003;1.153874e-001
1.189914e+003;1.166977e-001
1.191843e+003;1.182722e-001
1.193771e+003;1.196863e-001
1.195700e+003;1.218496e-001
1.197628e+003;1.240042e-001
1.199557e+003;1.257629e-001
1.201485e+003;1.266761e-001
1.203414e+003;1.268223e-001
1.205343e+003;1.266264e-001
1.207271e+003;1.256351e-001
1.209200e+003;1.229355e-001
1.211128e+003;1.189994e-001
1.213057e+003;1.160759e-001
1.214985e+003;1.150614e-001
1.216914e+003;1.151783e-001
1.218842e+003;1.159064e-001
1.220771e+003;1.171511e-001
1.222699e+003;1.186213e-001
1.224628e+003;1.204066e-001
1.226557e+003;1.225242e-001
1.228485e+003;1.246913e-001
1.230414e+003;1.262615e-001
1.232342e+003;1.275587e-001
1.234271e+003;1.290806e-001
1.236199e+003;1.298784e-001
1.238128e+003;1.300893e-001
1.240056e+003;1.304474e-001
1.241985e+003;1.314176e-001
1.243913e+003;1.323205e-001
1.245842e+003;1.333293e-001
1.247771e+003;1.346000e-001
1.249699e+003;1.353182e-001
1.251628e+003;1.361470e-001
1.253556e+003;1.369137e-001
1.255485e+003;1.372055e-001
1.257413e+003;1.377105e-001
1.259342e+003;1.380582e-001
1.261270e+003;1.379568e-001
1.263199e+003;1.375429e-001
1.265127e+003;1.369374e-001
1.267056e+003;1.360911e-001
1.268985e+003;1.354151e-001
1.270913e+003;1.351110e-001
1.272842e+003;1.354201e-001
1.274770e+003;1.359271e-001
1.276699e+003;1.362879e-001
1.278627e+003;1.360697e-001
1.280556e+003;1.349792e-001
1.282484e+003;1.333447e-001
1.284413e+003;1.317464e-001
1.286342e+003;1.307628e-001
1.288270e+003;1.302183e-001
1.290199e+003;1.299657e-001
1.292127e+003;1.299590e-001
1.294056e+003;1.301201e-001
1.295984e+003;1.306850e-001
1.297913e+003;1.319427e-001
1.299841e+003;1.338254e-001
1.301770e+003;1.364229e-001
1.303698e+003;1.396534e-001
1.305627e+003;1.430513e-001
1.307556e+003;1.465632e-001
1.309484e+003;1.502252e-001
1.311413e+003;1.536493e-001
1.313341e+003;1.559630e-001
1.315270e+003;1.562885e-001
1.317198e+003;1.548665e-001
1.319127e+003;1.524105e-001
1.321055e+003;1.491810e-001
1.322984e+003;1.460695e-001
1.324912e+003;1.440973e-001
1.326841e+003;1.429803e-001
1.328770e+003;1.425959e-001
1.330698e+003;1.432870e-001
1.332627e+003;1.444816e-001
1.334555e+003;1.454289e-001
1.336484e+003;1.452379e-001
1.338412e+003;1.436094e-001
1.340341e+003;1.415596e-001
1.342269e+003;1.395468e-001
1.344198e+003;1.370758e-001
1.346126e+003;1.346600e-001
1.348055e+003;1.331016e-001
1.349984e+003;1.325127e-001
1.351912e+003;1.329297e-001
1.353841e+003;1.339761e-001
1.355769e+003;1.347615e-001
1.357698e+003;1.354600e-001
1.359626e+003;1.358202e-001
1.361555e+003;1.351944e-001
1.363483e+003;1.340186e-001
1.365412e+003;1.332728e-001
1.367341e+003;1.329039e-001
1.369269e+003;1.324798e-001
1.371198e+003;1.312798e-001
1.373126e+003;1.287177e-001
1.375055e+003;1.258239e-001
1.376983e+003;1.233668e-001
1.378912e+003;1.207882e-001
1.380840e+003;1.181075e-001
1.382769e+003;1.154877e-001
1.384698e+003;1.132132e-001
1.386626e+003;1.112627e-001
1.388555e+003;1.102372e-001
1.390483e+003;1.098669e-001
1.392412e+003;1.092577e-001
1.394340e+003;1.086724e-001
1.396269e+003;1.089772e-001
1.398197e+003;1.092408e-001
1.400126e+003;1.095177e-001
1.402054e+003;1.098805e-001
1.403983e+003;1.099256e-001
1.405911e+003;1.101170e-001
1.407840e+003;1.105330e-001
1.409769e+003;1.109234e-001
1.411697e+003;1.115623e-001
1.413626e+003;1.124145e-001
1.415554e+003;1.134174e-001
1.417483e+003;1.139842e-001
1.419411e+003;1.151044e-001
1.421340e+003;1.177129e-001
1.423268e+003;1.197038e-001
1.425197e+003;1.209268e-001
1.427125e+003;1.213722e-001
1.429054e+003;1.211863e-001
1.430983e+003;1.207839e-001
1.432911e+003;1.195316e-001
1.434840e+003;1.170418e-001
1.436768e+003;1.146089e-001
1.438697e+003;1.142709e-001
1.440625e+003;1.142528e-001
1.442554e+003;1.140360e-001
1.444482e+003;1.140117e-001
1.446411e+003;1.140075e-001
1.448340e+003;1.141922e-001
1.450268e+003;1.147558e-001
1.452197e+003;1.147926e-001
1.454125e+003;1.134891e-001
1.456054e+003;1.103984e-001
1.457982e+003;1.089480e-001
1.459911e+003;1.093142e-001
1.461839e+003;1.081826e-001
1.463768e+003;1.052407e-001
1.465697e+003;1.029712e-001
1.467625e+003;1.017948e-001
1.469554e+003;1.001087e-001
1.471482e+003;9.793431e-002
1.473411e+003;9.630003e-002
1.475339e+003;9.456850e-002
1.477268e+003;9.272770e-002
1.479196e+003;9.149195e-002
1.481125e+003;9.025518e-002
1.483053e+003;8.874837e-002
1.484982e+003;8.672725e-002
1.486911e+003;8.459898e-002
1.488839e+003;8.259945e-002
1.490768e+003;8.183177e-002
1.492696e+003;8.214559e-002
1.494625e+003;8.130172e-002
1.496553e+003;7.987063e-002
1.498482e+003;7.948133e-002
1.500410e+003;7.941584e-002
1.502339e+003;7.920505e-002
1.504267e+003;7.740414e-002
1.506196e+003;7.530587e-002
1.508125e+003;7.625087e-002
1.510053e+003;7.794274e-002
1.511982e+003;7.830983e-002
1.513910e+003;7.823913e-002
1.515839e+003;7.760246e-002
1.517767e+003;7.726058e-002
1.519696e+003;7.671923e-002
1.521624e+003;7.669464e-002
1.523553e+003;7.788196e-002
1.525481e+003;7.824305e-002
1.527410e+003;7.875771e-002
1.529339e+003;7.960437e-002
1.531267e+003;7.990417e-002
1.533196e+003;7.970337e-002
1.535124e+003;8.061682e-002
1.537053e+003;8.021557e-002
1.538981e+003;7.771395e-002
1.540910e+003;7.797164e-002
1.542838e+003;8.026340e-002
1.544767e+003;8.171058e-002
1.546695e+003;8.243273e-002
1.548624e+003;8.268811e-002
1.550553e+003;8.288845e-002
1.552481e+003;8.277778e-002
1.554410e+003;8.227701e-002
1.556338e+003;8.120728e-002
1.558267e+003;7.887323e-002
1.560195e+003;7.941895e-002
1.562124e+003;8.206614e-002
1.564052e+003;8.300849e-002
1.565981e+003;8.307336e-002
1.567910e+003;8.250060e-002
1.569838e+003;8.195924e-002
1.571767e+003;8.238586e-002
1.573695e+003;8.180873e-002
1.575624e+003;8.049560e-002
1.577552e+003;8.152556e-002
1.579481e+003;8.306722e-002
1.581409e+003;8.307637e-002
1.583338e+003;8.285821e-002
1.585266e+003;8.286362e-002
1.587195e+003;8.298663e-002
1.589124e+003;8.291271e-002
1.591052e+003;8.280163e-002
1.592981e+003;8.288804e-002
1.594909e+003;8.311761e-002
1.596838e+003;8.345000e-002
1.598766e+003;8.371862e-002
1.600695e+003;8.374458e-002
1.602623e+003;8.398163e-002
1.604552e+003;8.411850e-002
1.606480e+003;8.393604e-002
1.608409e+003;8.367386e-002
1.610338e+003;8.379678e-002
1.612266e+003;8.402292e-002
1.614195e+003;8.347457e-002
1.616123e+003;8.204313e-002
1.618052e+003;8.288688e-002
1.619980e+003;8.434831e-002
1.621909e+003;8.414609e-002
1.623837e+003;8.407737e-002
1.625766e+003;8.461682e-002
1.627694e+003;8.475989e-002
1.629623e+003;8.504444e-002
1.631552e+003;8.532161e-002
1.633480e+003;8.441495e-002
1.635409e+003;8.336094e-002
1.637337e+003;8.454733e-002
1.639266e+003;8.582707e-002
1.641194e+003;8.616158e-002
1.643123e+003;8.586127e-002
1.645051e+003;8.476005e-002
1.646980e+003;8.448394e-002
1.648909e+003;8.534274e-002
1.650837e+003;8.365117e-002
1.652766e+003;8.081677e-002
1.654694e+003;8.292177e-002
1.656623e+003;8.542514e-002
1.658551e+003;8.584327e-002
1.660480e+003;8.537351e-002
1.662408e+003;8.441351e-002
1.664337e+003;8.452813e-002
1.666266e+003;8.441499e-002
1.668194e+003;8.299349e-002
1.670123e+003;8.241811e-002
1.672051e+003;8.262382e-002
1.673980e+003;8.157806e-002
1.675908e+003;8.072774e-002
1.677837e+003;8.103018e-002
1.679765e+003;8.056289e-002
1.681694e+003;7.901303e-002
1.683622e+003;7.642957e-002
1.685551e+003;7.674395e-002
1.687479e+003;7.856208e-002
1.689408e+003;7.869634e-002
1.691337e+003;7.838940e-002
1.693265e+003;7.751627e-002
1.695194e+003;7.553019e-002
1.697122e+003;7.550094e-002
1.699051e+003;7.504121e-002
1.700979e+003;7.514385e-002
1.702908e+003;7.693677e-002
1.704836e+003;7.718471e-002
1.706765e+003;7.768994e-002
1.708693e+003;7.845057e-002
1.710622e+003;7.898510e-002
1.712551e+003;7.883378e-002
1.714479e+003;7.888416e-002
1.716408e+003;7.918851e-002
1.718336e+003;8.150730e-002
1.720265e+003;8.577907e-002
1.722193e+003;8.945053e-002
1.724122e+003;9.263746e-002
1.726050e+003;9.567529e-002
1.727979e+003;9.791875e-002
1.729908e+003;9.900973e-002
1.731836e+003;9.800161e-002
1.733765e+003;9.554125e-002
1.735693e+003;9.426043e-002
1.737622e+003;9.153842e-002
1.739550e+003;8.673276e-002
1.741479e+003;8.230488e-002
1.743407e+003;7.818747e-002
1.745336e+003;7.457524e-002
1.747265e+003;7.154807e-002
1.749193e+003;6.929224e-002
1.751122e+003;6.797301e-002
1.753050e+003;6.787635e-002
1.754979e+003;6.746645e-002
1.756907e+003;6.683671e-002
1.758836e+003;6.678813e-002
1.760764e+003;6.622891e-002
1.762693e+003;6.603961e-002
1.764621e+003;6.644312e-002
1.766550e+003;6.606273e-002
1.768479e+003;6.559445e-002
1.770407e+003;6.503088e-002
1.772336e+003;6.446861e-002
1.774264e+003;6.509088e-002
1.776193e+003;6.564351e-002
1.778121e+003;6.579519e-002
1.780050e+003;6.564559e-002
1.781978e+003;6.562077e-002
1.783907e+003;6.556493e-002
1.785835e+003;6.548660e-002
1.787764e+003;6.548325e-002
1.789693e+003;6.498077e-002
1.791621e+003;6.425146e-002
1.793550e+003;6.456391e-002
1.795478e+003;6.532628e-002
1.797407e+003;6.533448e-002
1.799335e+003;6.491035e-002
1.801264e+003;6.463323e-002
1.803192e+003;6.474948e-002
1.805121e+003;6.471290e-002
1.807049e+003;6.465964e-002
1.808978e+003;6.471798e-002
1.810907e+003;6.471275e-002
1.812835e+003;6.479514e-002
1.814764e+003;6.477209e-002
1.816692e+003;6.474340e-002
1.818621e+003;6.493094e-002
1.820549e+003;6.477602e-002
1.822478e+003;6.428830e-002
1.824406e+003;6.398515e-002
1.826335e+003;6.415055e-002
1.828264e+003;6.389790e-002
1.830192e+003;6.372719e-002
1.832121e+003;6.429007e-002
1.834049e+003;6.460777e-002
1.835978e+003;6.428869e-002
1.837906e+003;6.404494e-002
1.839835e+003;6.417636e-002
1.841763e+003;6.380996e-002
1.843692e+003;6.290358e-002
1.845620e+003;6.306687e-002
1.847549e+003;6.363150e-002
1.849478e+003;6.375409e-002
1.851406e+003;6.378567e-002
1.853335e+003;6.384066e-002
1.855263e+003;6.383967e-002
1.857192e+003;6.373003e-002
1.859120e+003;6.364056e-002
1.861049e+003;6.368379e-002
1.862977e+003;6.366523e-002
1.864906e+003;6.344713e-002
1.866834e+003;6.308005e-002
1.868763e+003;6.289936e-002
1.870692e+003;6.316753e-002
1.872620e+003;6.363530e-002
1.874549e+003;6.377205e-002
1.876477e+003;6.348349e-002
1.878406e+003;6.327780e-002
1.880334e+003;6.347451e-002
1.882263e+003;6.374388e-002
1.884191e+003;6.367278e-002
1.886120e+003;6.342562e-002
1.888048e+003;6.309162e-002
1.889977e+003;6.288500e-002
1.891906e+003;6.302300e-002
1.893834e+003;6.322923e-002
1.895763e+003;6.333613e-002
1.897691e+003;6.334484e-002
1.899620e+003;6.334703e-002
1.901548e+003;6.316841e-002
1.903477e+003;6.291123e-002
1.905405e+003;6.290063e-002
1.907334e+003;6.298815e-002
1.909262e+003;6.311269e-002
1.911191e+003;6.340626e-002
1.913120e+003;6.358259e-002
1.915048e+003;6.345031e-002
1.916977e+003;6.312227e-002
1.918905e+003;6.317109e-002
1.920834e+003;6.345588e-002
1.922762e+003;6.341178e-002
1.924691e+003;6.356361e-002
1.926619e+003;6.388396e-002
1.928548e+003;6.407920e-002
1.930477e+003;6.395625e-002
1.932405e+003;6.369105e-002
1.934334e+003;6.373360e-002
1.936262e+003;6.404317e-002
1.938191e+003;6.418059e-002
1.940119e+003;6.395678e-002
1.942048e+003;6.375113e-002
1.943976e+003;6.395368e-002
1.945905e+003;6.407861e-002
1.947833e+003;6.416864e-002
1.949762e+003;6.449144e-002
1.951691e+003;6.464834e-002
1.953619e+003;6.460727e-002
1.955548e+003;6.460451e-002
1.957476e+003;6.463554e-002
1.959405e+003;6.464326e-002
1.961333e+003;6.463315e-002
1.963262e+003;6.464034e-002
1.965190e+003;6.459378e-002
1.967119e+003;6.466083e-002
1.969047e+003;6.479956e-002
1.970976e+003;6.484056e-002
1.972905e+003;6.497415e-002
1.974833e+003;6.484468e-002
1.976762e+003;6.474675e-002
1.978690e+003;6.496210e-002
1.980619e+003;6.502653e-002
1.982547e+003;6.497350e-002
1.984476e+003;6.514412e-002
1.986404e+003;6.529193e-002
1.988333e+003;6.501102e-002
1.990261e+003;6.478529e-002
1.992190e+003;6.479752e-002
1.994119e+003;6.519794e-002
1.996047e+003;6.551022e-002
1.997976e+003;6.539726e-002
1.999904e+003;6.532482e-002
2.001833e+003;6.524514e-002
2.003761e+003;6.495468e-002
2.005690e+003;6.494818e-002
2.007618e+003;6.514893e-002
2.009547e+003;6.531157e-002
2.011476e+003;6.551596e-002
2.013404e+003;6.563634e-002
2.015333e+003;6.572627e-002
2.017261e+003;6.569963e-002
2.019190e+003;6.580345e-002
2.021118e+003;6.599186e-002
2.023047e+003;6.617820e-002
2.024975e+003;6.613707e-002
2.026904e+003;6.607191e-002
2.028833e+003;6.634741e-002
2.030761e+003;6.641960e-002
2.032690e+003;6.637400e-002
2.034618e+003;6.635401e-002
2.036547e+003;6.628136e-002
2.038475e+003;6.632432e-002
2.040404e+003;6.633482e-002
2.042332e+003;6.643914e-002
2.044261e+003;6.644578e-002
2.046189e+003;6.642161e-002
2.048118e+003;6.630668e-002
2.050047e+003;6.635261e-002
2.051975e+003;6.665421e-002
2.053904e+003;6.657453e-002
2.055832e+003;6.625064e-002
2.057761e+003;6.610096e-002
2.059689e+003;6.604976e-002
2.061618e+003;6.592884e-002
2.063546e+003;6.587990e-002
2.065475e+003;6.609548e-002
2.067404e+003;6.620356e-002
2.069332e+003;6.619318e-002
2.071260e+003;6.621590e-002
2.073189e+003;6.600837e-002
2.075118e+003;6.586024e-002
2.077046e+003;6.588577e-002
2.078975e+003;6.588908e-002
2.080903e+003;6.583630e-002
2.082832e+003;6.568598e-002
2.084760e+003;6.577522e-002
2.086689e+003;6.578251e-002
2.088617e+003;6.567369e-002
2.090546e+003;6.569026e-002
2.092475e+003;6.554351e-002
2.094403e+003;6.540659e-002
2.096332e+003;6.553476e-002
2.098260e+003;6.579056e-002
2.100189e+003;6.587505e-002
2.102117e+003;6.574792e-002
2.104046e+003;6.574099e-002
2.105974e+003;6.561430e-002
2.107903e+003;6.552536e-002
2.109832e+003;6.565619e-002
2.111760e+003;6.567565e-002
2.113688e+003;6.569400e-002
2.115617e+003;6.586482e-002
2.117546e+003;6.599969e-002
2.119474e+003;6.590647e-002
2.121403e+003;6.577129e-002
2.123331e+003;6.609841e-002
2.125260e+003;6.665587e-002
2.127188e+003;6.650189e-002
2.129117e+003;6.607033e-002
2.131045e+003;6.614760e-002
2.132974e+003;6.639025e-002
2.134903e+003;6.648342e-002
2.136831e+003;6.639427e-002
2.138760e+003;6.629572e-002
2.140688e+003;6.618056e-002
2.142617e+003;6.607125e-002
2.144545e+003;6.586186e-002
2.146474e+003;6.572538e-002
2.148402e+003;6.578058e-002
2.150331e+003;6.596617e-002
2.152260e+003;6.604783e-002
2.154188e+003;6.595599e-002
2.156117e+003;6.567157e-002
2.158045e+003;6.546190e-002
2.159974e+003;6.528808e-002
2.161902e+003;6.519609e-002
2.163831e+003;6.526775e-002
2.165759e+003;6.519840e-002
2.167688e+003;6.510374e-002
2.169616e+003;6.499428e-002
2.171545e+003;6.477771e-002
2.173474e+003;6.477929e-002
2.175402e+003;6.483510e-002
2.177331e+003;6.471621e-002
2.179259e+003;6.484107e-002
2.181188e+003;6.485464e-002
2.183116e+003;6.475848e-002
2.185045e+003;6.466156e-002
2.186973e+003;6.450255e-002
2.188902e+003;6.440216e-002
2.190831e+003;6.418585e-002
2.192759e+003;6.410769e-002
2.194688e+003;6.399053e-002
2.196616e+003;6.372354e-002
2.198545e+003;6.362433e-002
2.200473e+003;6.383399e-002
2.202402e+003;6.399096e-002
2.204330e+003;6.391954e-002
2.206259e+003;6.372884e-002
2.208188e+003;6.345170e-002
2.210116e+003;6.330298e-002
2.212044e+003;6.358217e-002
2.213973e+003;6.378660e-002
2.215902e+003;6.375048e-002
2.217830e+003;6.363752e-002
2.219759e+003;6.357569e-002
2.221687e+003;6.367467e-002
2.223616e+003;6.347087e-002
2.225544e+003;6.349396e-002
2.227473e+003;6.374208e-002
2.229401e+003;6.373214e-002
2.231330e+003;6.363584e-002
2.233259e+003;6.372470e-002
2.235187e+003;6.397694e-002
2.237116e+003;6.411337e-002
2.239044e+003;6.386212e-002
2.240973e+003;6.358095e-002
2.242901e+003;6.350746e-002
2.244830e+003;6.361712e-002
2.246758e+003;6.380029e-002
2.248687e+003;6.389198e-002
2.250615e+003;6.385817e-002
2.252544e+003;6.368736e-002
2.254473e+003;6.362042e-002
2.256401e+003;6.351651e-002
2.258330e+003;6.338578e-002
2.260258e+003;6.312055e-002
2.262187e+003;6.301408e-002
2.264115e+003;6.311350e-002
2.266044e+003;6.313890e-002
2.267972e+003;6.303346e-002
2.269901e+003;6.288339e-002
2.271830e+003;6.272300e-002
2.273758e+003;6.241122e-002
2.275687e+003;6.237121e-002
2.277615e+003;6.242737e-002
2.279544e+003;6.219816e-002
2.281472e+003;6.222661e-002
2.283401e+003;6.223957e-002
2.285329e+003;6.224833e-002
2.287258e+003;6.227831e-002
2.289187e+003;6.224814e-002
2.291115e+003;6.220634e-002
2.293043e+003;6.217537e-002
2.294972e+003;6.221016e-002
2.296901e+003;6.209730e-002
2.298829e+003;6.208014e-002
2.300758e+003;6.213198e-002
2.302686e+003;6.213332e-002
2.304615e+003;6.213733e-002
2.306543e+003;6.201031e-002
2.308472e+003;6.176566e-002
2.310400e+003;6.178495e-002
2.312329e+003;6.197534e-002
2.314258e+003;6.211909e-002
2.316186e+003;6.197289e-002
2.318115e+003;6.162557e-002
2.320043e+003;6.134053e-002
2.321972e+003;6.121790e-002
2.323900e+003;6.124312e-002
2.325829e+003;6.133660e-002
2.327757e+003;6.132443e-002
2.329686e+003;6.104218e-002
2.331615e+003;6.094502e-002
2.333543e+003;6.086462e-002
2.335472e+003;6.103596e-002
2.337400e+003;6.115393e-002
2.339329e+003;6.106449e-002
2.341257e+003;6.128765e-002
2.343186e+003;6.182685e-002
2.345114e+003;6.199609e-002
2.347043e+003;6.194431e-002
2.348971e+003;6.222771e-002
2.350900e+003;6.223379e-002
2.352829e+003;6.173670e-002
2.354757e+003;6.150263e-002
2.356686e+003;6.157643e-002
2.358614e+003;6.171688e-002
2.360543e+003;6.163680e-002
2.362471e+003;6.152603e-002
2.364400e+003;6.175882e-002
2.366328e+003;6.198145e-002
2.368257e+003;6.201635e-002
2.370186e+003;6.236127e-002
2.372114e+003;6.265938e-002
2.374042e+003;6.285532e-002
2.375971e+003;6.301144e-002
2.377900e+003;6.311783e-002
2.379828e+003;6.321114e-002
2.381757e+003;6.329470e-002
2.383685e+003;6.349780e-002
2.385614e+003;6.385249e-002
2.387542e+003;6.403764e-002
2.389471e+003;6.398378e-002
2.391399e+003;6.387241e-002
2.393328e+003;6.404943e-002
2.395257e+003;6.425261e-002
2.397185e+003;6.430421e-002
2.399114e+003;6.450693e-002
2.401042e+003;6.449759e-002
2.402971e+003;6.427512e-002
2.404899e+003;6.433533e-002
2.406828e+003;6.440101e-002
2.408756e+003;6.429115e-002
2.410685e+003;6.428004e-002
2.412614e+003;6.443679e-002
2.414542e+003;6.466464e-002
2.416471e+003;6.456199e-002
2.418399e+003;6.441926e-002
2.420328e+003;6.474202e-002
2.422256e+003;6.502187e-002
2.424185e+003;6.509877e-002
2.426113e+003;6.536476e-002
2.428042e+003;6.545208e-002
2.429970e+003;6.544962e-002
2.431899e+003;6.557576e-002
2.433828e+003;6.567608e-002
2.435756e+003;6.571034e-002
2.437685e+003;6.573343e-002
2.439613e+003;6.564524e-002
2.441542e+003;6.559741e-002
2.443470e+003;6.570236e-002
2.445399e+003;6.582770e-002
2.447327e+003;6.595533e-002
2.449256e+003;6.591264e-002
2.451185e+003;6.605913e-002
2.453113e+003;6.630753e-002
2.455042e+003;6.621452e-002
2.456970e+003;6.615219e-002
2.458899e+003;6.594349e-002
2.460827e+003;6.567954e-002
2.462756e+003;6.590000e-002
2.464684e+003;6.614424e-002
2.466613e+003;6.631344e-002
2.468542e+003;6.690797e-002
2.470470e+003;6.696167e-002
2.472398e+003;6.647841e-002
2.474327e+003;6.618229e-002
2.476256e+003;6.615304e-002
2.478184e+003;6.665596e-002
2.480113e+003;6.688749e-002
2.482041e+003;6.689839e-002
2.483970e+003;6.696758e-002
2.485898e+003;6.718644e-002
2.487827e+003;6.729050e-002
2.489755e+003;6.716111e-002
2.491684e+003;6.687694e-002
2.493613e+003;6.687547e-002
2.495541e+003;6.684123e-002
2.497470e+003;6.696824e-002
2.499398e+003;6.715353e-002
2.501327e+003;6.720454e-002
2.503255e+003;6.719104e-002
2.505184e+003;6.717283e-002
2.507112e+003;6.726562e-002
2.509041e+003;6.745162e-002
2.510969e+003;6.775174e-002
2.512898e+003;6.791962e-002
2.514827e+003;6.798340e-002
2.516755e+003;6.809846e-002
2.518684e+003;6.833991e-002
2.520612e+003;6.840999e-002
2.522541e+003;6.822320e-002
2.524469e+003;6.814691e-002
2.526398e+003;6.814749e-002
2.528326e+003;6.800541e-002
2.530255e+003;6.811900e-002
2.532184e+003;6.846434e-002
2.534112e+003;6.867782e-002
2.536041e+003;6.876500e-002
2.537969e+003;6.863882e-002
2.539898e+003;6.821083e-002
2.541826e+003;6.835430e-002
2.543755e+003;6.877319e-002
2.545683e+003;6.871469e-002
2.547612e+003;6.837629e-002
2.549541e+003;6.835263e-002
2.551469e+003;6.859260e-002
2.553397e+003;6.876725e-002
2.555326e+003;6.879734e-002
2.557255e+003;6.906971e-002
2.559183e+003;6.912154e-002
2.561112e+003;6.914303e-002
2.563040e+003;6.897308e-002
2.564969e+003;6.854255e-002
2.566897e+003;6.850321e-002
2.568826e+003;6.877373e-002
2.570754e+003;6.912873e-002
2.572683e+003;6.927977e-002
2.574612e+003;6.910697e-002
2.576540e+003;6.895486e-002
2.578469e+003;6.927254e-002
2.580397e+003;6.944921e-002
2.582326e+003;6.924623e-002
2.584254e+003;6.918836e-002
2.586183e+003;6.949614e-002
2.588111e+003;7.005168e-002
2.590040e+003;7.014918e-002
2.591969e+003;6.987725e-002
2.593897e+003;6.952200e-002
2.595826e+003;6.935179e-002
2.597754e+003;6.947238e-002
2.599683e+003;6.936330e-002
2.601611e+003;6.952924e-002
2.603540e+003;6.999952e-002
2.605468e+003;7.013037e-002
2.607397e+003;7.008980e-002
2.609325e+003;7.024694e-002
2.611254e+003;7.040959e-002
2.613183e+003;7.034405e-002
2.615111e+003;7.029937e-002
2.617040e+003;7.025976e-002
2.618968e+003;7.044380e-002
2.620897e+003;7.063561e-002
2.622825e+003;7.080559e-002
2.624754e+003;7.098363e-002
2.626682e+003;7.087868e-002
2.628611e+003;7.078051e-002
2.630540e+003;7.094398e-002
2.632468e+003;7.097653e-002
2.634396e+003;7.105062e-002
2.636325e+003;7.107829e-002
2.638254e+003;7.110764e-002
2.640182e+003;7.134636e-002
2.642111e+003;7.144693e-002
2.644039e+003;7.125793e-002
2.645968e+003;7.111002e-002
2.647896e+003;7.122045e-002
2.649825e+003;7.153521e-002
2.651753e+003;7.195444e-002
2.653682e+003;7.189415e-002
2.655611e+003;7.145869e-002
2.657539e+003;7.145107e-002
2.659468e+003;7.163484e-002
2.661396e+003;7.183457e-002
2.663325e+003;7.193212e-002
2.665253e+003;7.184606e-002
2.667182e+003;7.190400e-002
2.669110e+003;7.212862e-002
2.671039e+003;7.215776e-002
2.672968e+003;7.201190e-002
2.674896e+003;7.215862e-002
2.676825e+003;7.224850e-002
2.678753e+003;7.233013e-002
2.680682e+003;7.266407e-002
2.682610e+003;7.277999e-002
2.684539e+003;7.283798e-002
2.686467e+003;7.270520e-002
2.688396e+003;7.271758e-002
2.690324e+003;7.280225e-002
2.692253e+003;7.297608e-002
2.694182e+003;7.338317e-002
2.696110e+003;7.349497e-002
2.698039e+003;7.355329e-002
2.699967e+003;7.376179e-002
2.701896e+003;7.376764e-002
2.703824e+003;7.386433e-002
2.705753e+003;7.391527e-002
2.707681e+003;7.369932e-002
2.709610e+003;7.374754e-002
2.711539e+003;7.395758e-002
2.713467e+003;7.404245e-002
2.715396e+003;7.417469e-002
2.717324e+003;7.446238e-002
2.719253e+003;7.453287e-002
2.721181e+003;7.432148e-002
2.723110e+003;7.422170e-002
2.725038e+003;7.444783e-002
2.726967e+003;7.467998e-002
2.728896e+003;7.460805e-002
2.730824e+003;7.447580e-002
2.732752e+003;7.490879e-002
2.734681e+003;7.524877e-002
2.736610e+003;7.515942e-002
2.738538e+003;7.519002e-002
2.740467e+003;7.502266e-002
2.742395e+003;7.494462e-002
2.744324e+003;7.518979e-002
2.746252e+003;7.540455e-002
2.748181e+003;7.543357e-002
2.750109e+003;7.526422e-002
2.752038e+003;7.530481e-002
2.753967e+003;7.568908e-002
2.755895e+003;7.578691e-002
2.757824e+003;7.550886e-002
2.759752e+003;7.541114e-002
2.761681e+003;7.549854e-002
2.763609e+003;7.570766e-002
2.765538e+003;7.588775e-002
2.767466e+003;7.575752e-002
2.769395e+003;7.588330e-002
2.771323e+003;7.617370e-002
2.773252e+003;7.646608e-002
2.775181e+003;7.676344e-002
2.777109e+003;7.670635e-002
2.779038e+003;7.676814e-002
2.780966e+003;7.697535e-002
2.782895e+003;7.717869e-002
2.784823e+003;7.741420e-002
2.786752e+003;7.776511e-002
2.788680e+003;7.802597e-002
2.790609e+003;7.793783e-002
2.792538e+003;7.792196e-002
2.794466e+003;7.810033e-002
2.796395e+003;7.835729e-002
2.798323e+003;7.853989e-002
2.800252e+003;7.874098e-002
2.802180e+003;7.892386e-002
2.804109e+003;7.915185e-002
2.806037e+003;7.950437e-002
2.807966e+003;7.986391e-002
2.809895e+003;8.036394e-002
2.811823e+003;8.077235e-002
2.813751e+003;8.093380e-002
2.815680e+003;8.132981e-002
2.817609e+003;8.189014e-002
2.819537e+003;8.197193e-002
2.821466e+003;8.221802e-002
2.823394e+003;8.285148e-002
2.825323e+003;8.332594e-002
2.827251e+003;8.379766e-002
2.829180e+003;8.425602e-002
2.831108e+003;8.468220e-002
2.833037e+003;8.531475e-002
2.834966e+003;8.596146e-002
2.836894e+003;8.680947e-002
2.838823e+003;8.825564e-002
2.840751e+003;8.982040e-002
2.842680e+003;9.140082e-002
2.844608e+003;9.332541e-002
2.846537e+003;9.565885e-002
2.848465e+003;9.887724e-002
2.850394e+003;1.016728e-001
2.852323e+003;1.018076e-001
2.854251e+003;1.003186e-001
2.856180e+003;9.901964e-002
2.858108e+003;9.838657e-002
2.860037e+003;9.848902e-002
2.861965e+003;9.858041e-002
2.863894e+003;9.917990e-002
2.865822e+003;1.001009e-001
2.867751e+003;1.006989e-001
2.869679e+003;1.009045e-001
2.871608e+003;1.014249e-001
2.873536e+003;1.021512e-001
2.875465e+003;1.025250e-001
2.877394e+003;1.025562e-001
2.879322e+003;1.026423e-001
2.881251e+003;1.028875e-001
2.883179e+003;1.032261e-001
2.885108e+003;1.038895e-001
2.887036e+003;1.048507e-001
2.888965e+003;1.053012e-001
2.890893e+003;1.053888e-001
2.892822e+003;1.059873e-001
2.894750e+003;1.064931e-001
2.896679e+003;1.070792e-001
2.898608e+003;1.074132e-001
2.900536e+003;1.075016e-001
2.902465e+003;1.074331e-001
2.904393e+003;1.073186e-001
2.906322e+003;1.076753e-001
2.908250e+003;1.077672e-001
2.910179e+003;1.076991e-001
2.912107e+003;1.081550e-001
2.914036e+003;1.084685e-001
2.915965e+003;1.090013e-001
2.917893e+003;1.095619e-001
2.919822e+003;1.094603e-001
2.921750e+003;1.083284e-001
2.923679e+003;1.063056e-001
2.925607e+003;1.041508e-001
2.927536e+003;1.026563e-001
2.929464e+003;1.009235e-001
2.931393e+003;9.877415e-002
2.933322e+003;9.755860e-002
2.935250e+003;9.624908e-002
2.937178e+003;9.460978e-002
2.939107e+003;9.352896e-002
2.941036e+003;9.300578e-002
2.942964e+003;9.242331e-002
2.944893e+003;9.145428e-002
2.946821e+003;9.055275e-002
2.948750e+003;8.976389e-002
2.950678e+003;8.904161e-002
2.952607e+003;8.845487e-002
2.954535e+003;8.773659e-002
2.956464e+003;8.733313e-002
2.958393e+003;8.711242e-002
2.960321e+003;8.670537e-002
2.962250e+003;8.618243e-002
2.964178e+003;8.544127e-002
2.966107e+003;8.407145e-002
2.968035e+003;8.306954e-002
2.969964e+003;8.241434e-002
2.971892e+003;8.143575e-002
2.973821e+003;8.074853e-002
2.975750e+003;7.979529e-002
2.977678e+003;7.879207e-002
2.979607e+003;7.778917e-002
2.981535e+003;7.703714e-002
2.983464e+003;7.642392e-002
2.985392e+003;7.589916e-002
2.987321e+003;7.530066e-002
2.989249e+003;7.474279e-002
2.991178e+003;7.463519e-002
2.993106e+003;7.461478e-002
2.995035e+003;7.415233e-002
2.996964e+003;7.328695e-002
2.998892e+003;7.302544e-002
3.000821e+003;7.334261e-002
3.002749e+003;7.349230e-002
3.004678e+003;7.321976e-002
3.006606e+003;7.331711e-002
3.008535e+003;7.363273e-002
3.010463e+003;7.408060e-002
3.012392e+003;7.416946e-002
3.014321e+003;7.393496e-002
3.016249e+003;7.404779e-002
3.018177e+003;7.425752e-002
3.020106e+003;7.442246e-002
3.022035e+003;7.476045e-002
3.023963e+003;7.519467e-002
3.025892e+003;7.536893e-002
3.027820e+003;7.508363e-002
3.029749e+003;7.508268e-002
3.031677e+003;7.559518e-002
3.033606e+003;7.572982e-002
3.035534e+003;7.592454e-002
3.037463e+003;7.628914e-002
3.039392e+003;7.618046e-002
3.041320e+003;7.615937e-002
3.043249e+003;7.625960e-002
3.045177e+003;7.631248e-002
3.047106e+003;7.653784e-002
3.049034e+003;7.676514e-002
3.050963e+003;7.686202e-002
3.052891e+003;7.739940e-002
3.054820e+003;7.790028e-002
3.056749e+003;7.788529e-002
3.058677e+003;7.774502e-002
3.060606e+003;7.774938e-002
3.062534e+003;7.828531e-002
3.064463e+003;7.858583e-002
3.066391e+003;7.879592e-002
3.068320e+003;7.922811e-002
3.070248e+003;7.933394e-002
3.072177e+003;7.972734e-002
3.074105e+003;7.983293e-002
3.076034e+003;7.951328e-002
3.077963e+003;7.965866e-002
3.079891e+003;7.998889e-002
3.081820e+003;8.035146e-002
3.083748e+003;8.048863e-002
3.085677e+003;8.092921e-002
3.087605e+003;8.166083e-002
3.089534e+003;8.183221e-002
3.091462e+003;8.157094e-002
3.093391e+003;8.157706e-002
3.095320e+003;8.207899e-002
3.097248e+003;8.259048e-002
3.099177e+003;8.319441e-002
3.101105e+003;8.387145e-002
3.103034e+003;8.419375e-002
3.104962e+003;8.441105e-002
3.106891e+003;8.451927e-002
3.108819e+003;8.444332e-002
3.110748e+003;8.428591e-002
3.112677e+003;8.466671e-002
3.114605e+003;8.494508e-002
3.116533e+003;8.492158e-002
3.118462e+003;8.496889e-002
3.120391e+003;8.536419e-002
3.122319e+003;8.588550e-002
3.124248e+003;8.649553e-002
3.126176e+003;8.731855e-002
3.128105e+003;8.799182e-002
3.130033e+003;8.783393e-002
3.131962e+003;8.773295e-002
3.133890e+003;8.820044e-002
3.135819e+003;8.877601e-002
3.137748e+003;8.899821e-002
3.139676e+003;8.946083e-002
3.141605e+003;8.988979e-002
3.143533e+003;9.019405e-002
3.145462e+003;9.077603e-002
3.147390e+003;9.114240e-002
3.149319e+003;9.144111e-002
3.151247e+003;9.169333e-002
3.153176e+003;9.229146e-002
3.155104e+003;9.304486e-002
3.157033e+003;9.322639e-002
3.158962e+003;9.376059e-002
3.160890e+003;9.452826e-002
3.162819e+003;9.504844e-002
3.164747e+003;9.543160e-002
3.166676e+003;9.585304e-002
3.168604e+003;9.619574e-002
3.170533e+003;9.644142e-002
3.172461e+003;9.665012e-002
3.174390e+003;9.692646e-002
3.176319e+003;9.753790e-002
3.178247e+003;9.804933e-002
3.180176e+003;9.818269e-002
3.182104e+003;9.895555e-002
3.184033e+003;9.971986e-002
3.185961e+003;1.000179e-001
3.187890e+003;1.005955e-001
3.189818e+003;1.010939e-001
3.191747e+003;1.015336e-001
3.193676e+003;1.023786e-001
3.195604e+003;1.031059e-001
3.197532e+003;1.035829e-001
3.199461e+003;1.042539e-001
3.201390e+003;1.046208e-001
3.203318e+003;1.044387e-001
3.205247e+003;1.045782e-001
3.207175e+003;1.053634e-001
3.209104e+003;1.067839e-001
3.211032e+003;1.081566e-001
3.212961e+003;1.082755e-001
3.214889e+003;1.084740e-001
3.216818e+003;1.093739e-001
3.218747e+003;1.097491e-001
3.220675e+003;1.101244e-001
3.222604e+003;1.108079e-001
3.224532e+003;1.117540e-001
3.226461e+003;1.125234e-001
3.228389e+003;1.131474e-001
3.230318e+003;1.138019e-001
3.232246e+003;1.145070e-001
3.234175e+003;1.154019e-001
3.236104e+003;1.159214e-001
3.238032e+003;1.169711e-001
3.239961e+003;1.180503e-001
3.241889e+003;1.192494e-001
3.243818e+003;1.203780e-001
3.245746e+003;1.213205e-001
3.247675e+003;1.217648e-001
3.249603e+003;1.225379e-001
3.251532e+003;1.238946e-001
3.253460e+003;1.248568e-001
3.255389e+003;1.254176e-001
3.257318e+003;1.260130e-001
3.259246e+003;1.264643e-001
3.261175e+003;1.271726e-001
3.263103e+003;1.282599e-001
3.265032e+003;1.291914e-001
3.266960e+003;1.295987e-001
3.268889e+003;1.301613e-001
3.270817e+003;1.308358e-001
3.272746e+003;1.310374e-001
3.274675e+003;1.317019e-001
3.276603e+003;1.323757e-001
3.278531e+003;1.324947e-001
3.280460e+003;1.329817e-001
3.282389e+003;1.332895e-001
3.284317e+003;1.335724e-001
3.286246e+003;1.335879e-001
3.288174e+003;1.333364e-001
3.290103e+003;1.335127e-001
3.292031e+003;1.339879e-001
3.293960e+003;1.344956e-001
3.295888e+003;1.349240e-001
3.297817e+003;1.346624e-001
3.299746e+003;1.342327e-001
3.301674e+003;1.340534e-001
3.303603e+003;1.340386e-001
3.305531e+003;1.344350e-001
3.307460e+003;1.351719e-001
3.309388e+003;1.351580e-001
3.311317e+003;1.347238e-001
3.313245e+003;1.345988e-001
3.315174e+003;1.351130e-001
3.317103e+003;1.355987e-001
3.319031e+003;1.361162e-001
3.320960e+003;1.365802e-001
3.322888e+003;1.361887e-001
3.324817e+003;1.363597e-001
3.326745e+003;1.370473e-001
3.328674e+003;1.374002e-001
3.330602e+003;1.377339e-001
3.332531e+003;1.380996e-001
3.334459e+003;1.374910e-001
3.336388e+003;1.360307e-001
3.338317e+003;1.353774e-001
3.340245e+003;1.348575e-001
3.342174e+003;1.339142e-001
3.344102e+003;1.333880e-001
3.346031e+003;1.330356e-001
3.347959e+003;1.322404e-001
3.349888e+003;1.315675e-001
3.351816e+003;1.304298e-001
3.353745e+003;1.296325e-001
3.355674e+003;1.290965e-001
3.357602e+003;1.275864e-001
3.359531e+003;1.260760e-001
3.361459e+003;1.249174e-001
3.363388e+003;1.242071e-001
3.365316e+003;1.242089e-001
3.367245e+003;1.238251e-001
3.369173e+003;1.228337e-001
3.371102e+003;1.219022e-001
3.373031e+003;1.217178e-001
3.374959e+003;1.214916e-001
3.376887e+003;1.205144e-001
3.378816e+003;1.194823e-001
3.380745e+003;1.188819e-001
3.382673e+003;1.183442e-001
3.384602e+003;1.174753e-001
3.386530e+003;1.170700e-001
3.388459e+003;1.171264e-001
3.390387e+003;1.167992e-001
3.392316e+003;1.163660e-001
3.394244e+003;1.162363e-001
3.396173e+003;1.154633e-001
3.398102e+003;1.147724e-001
3.400030e+003;1.148078e-001
3.401959e+003;1.140673e-001
3.403887e+003;1.124478e-001
3.405816e+003;1.117224e-001
3.407744e+003;1.118196e-001
3.409673e+003;1.114531e-001
3.411601e+003;1.104083e-001
3.413530e+003;1.095978e-001
3.415458e+003;1.082742e-001
3.417387e+003;1.064340e-001
3.419316e+003;1.058159e-001
3.421244e+003;1.057066e-001
3.423173e+003;1.048908e-001
3.425101e+003;1.043183e-001
3.427030e+003;1.037861e-001
3.428958e+003;1.026541e-001
3.430887e+003;1.013610e-001
3.432815e+003;1.009626e-001
3.434744e+003;1.006150e-001
3.436673e+003;9.977331e-002
3.438601e+003;9.906409e-002
3.440530e+003;9.857778e-002
3.442458e+003;9.788118e-002
3.444387e+003;9.726834e-002
3.446315e+003;9.708727e-002
3.448244e+003;9.643666e-002
3.450172e+003;9.483659e-002
3.452101e+003;9.381113e-002
3.454030e+003;9.306350e-002
3.455958e+003;9.246525e-002
3.457886e+003;9.283146e-002
3.459815e+003;9.240860e-002
3.461744e+003;9.119145e-002
3.463672e+003;8.990344e-002
3.465601e+003;8.899069e-002
3.467529e+003;8.905999e-002
3.469458e+003;8.858564e-002
3.471386e+003;8.763295e-002
3.473315e+003;8.701776e-002
3.475243e+003;8.649921e-002
3.477172e+003;8.602713e-002
3.479101e+003;8.506032e-002
3.481029e+003;8.417778e-002
3.482958e+003;8.351433e-002
3.484886e+003;8.253730e-002
3.486815e+003;8.118183e-002
3.488743e+003;8.037167e-002
3.490672e+003;8.017284e-002
3.492600e+003;7.986267e-002
3.494529e+003;7.900143e-002
3.496458e+003;7.830825e-002
3.498386e+003;7.802859e-002
3.500315e+003;7.709396e-002
3.502243e+003;7.600730e-002
3.504172e+003;7.589064e-002
3.506100e+003;7.640512e-002
3.508029e+003;7.549207e-002
3.509957e+003;7.454101e-002
3.511886e+003;7.419332e-002
3.513814e+003;7.327843e-002
3.515743e+003;7.265491e-002
3.517672e+003;7.272828e-002
3.519600e+003;7.206939e-002
3.521529e+003;7.098499e-002
3.523457e+003;6.991103e-002
3.525386e+003;6.948370e-002
3.527314e+003;6.915709e-002
3.529243e+003;6.862182e-002
3.531171e+003;6.812136e-002
3.533100e+003;6.813814e-002
3.535029e+003;6.770775e-002
3.536957e+003;6.648748e-002
3.538885e+003;6.568491e-002
3.540814e+003;6.535555e-002
3.542743e+003;6.506794e-002
3.544671e+003;6.438053e-002
3.546600e+003;6.387579e-002
3.548528e+003;6.350400e-002
3.550457e+003;6.282683e-002
3.552385e+003;6.222699e-002
3.554314e+003;6.175492e-002
3.556242e+003;6.138388e-002
3.558171e+003;6.119223e-002
3.560100e+003;6.033830e-002
3.562028e+003;5.965212e-002
3.563957e+003;5.916154e-002
3.565885e+003;5.794211e-002
3.567814e+003;5.787136e-002
3.569742e+003;5.888081e-002
3.571671e+003;5.884568e-002
3.573599e+003;5.771901e-002
3.575528e+003;5.702611e-002
3.577457e+003;5.688215e-002
3.579385e+003;5.643162e-002
3.581314e+003;5.603683e-002
3.583242e+003;5.605602e-002
3.585171e+003;5.537581e-002
3.587099e+003;5.435246e-002
3.589028e+003;5.424857e-002
3.590956e+003;5.481685e-002
3.592885e+003;5.481809e-002
3.594813e+003;5.437094e-002
3.596742e+003;5.451749e-002
3.598671e+003;5.440962e-002
3.600599e+003;5.375483e-002
3.602528e+003;5.348480e-002
3.604456e+003;5.322430e-002
3.606385e+003;5.234480e-002
3.608313e+003;5.117420e-002
3.610242e+003;5.117994e-002
3.612170e+003;5.123261e-002
3.614099e+003;5.087146e-002
3.616028e+003;5.082117e-002
3.617956e+003;5.049210e-002
3.619885e+003;5.021577e-002
3.621813e+003;5.052009e-002
3.623742e+003;5.030307e-002
3.625670e+003;4.928509e-002
3.627599e+003;4.741337e-002
3.629527e+003;4.718833e-002
3.631456e+003;4.838452e-002
3.633385e+003;4.900106e-002
3.635313e+003;4.911432e-002
3.637241e+003;4.878969e-002
3.639170e+003;4.881160e-002
3.641099e+003;4.885854e-002
3.643027e+003;4.849998e-002
3.644956e+003;4.797732e-002
3.646884e+003;4.682908e-002
3.648813e+003;4.527970e-002
3.650741e+003;4.500960e-002
3.652670e+003;4.572465e-002
3.654598e+003;4.547697e-002
3.656527e+003;4.525580e-002
3.658456e+003;4.573367e-002
3.660384e+003;4.588434e-002
3.662313e+003;4.560477e-002
3.664241e+003;4.524539e-002
3.666170e+003;4.507175e-002
3.668098e+003;4.417994e-002
3.670027e+003;4.328252e-002
3.671955e+003;4.377626e-002
3.673884e+003;4.298384e-002
3.675813e+003;4.210299e-002
3.677741e+003;4.323592e-002
3.679669e+003;4.404809e-002
3.681598e+003;4.464308e-002
3.683527e+003;4.453744e-002
3.685455e+003;4.367446e-002
3.687384e+003;4.220876e-002
3.689312e+003;4.172515e-002
3.691241e+003;4.247150e-002
3.693169e+003;4.324098e-002
3.695098e+003;4.360789e-002
3.697026e+003;4.315530e-002
3.698955e+003;4.267806e-002
3.700884e+003;4.224319e-002
3.702812e+003;4.274112e-002
3.704741e+003;4.299295e-002
3.706669e+003;4.231248e-002
3.708598e+003;4.156761e-002
3.710526e+003;4.114456e-002
3.712455e+003;4.131886e-002
3.714383e+003;4.200862e-002
3.716312e+003;4.236894e-002
3.718240e+003;4.227548e-002
3.720169e+003;4.208002e-002
3.722098e+003;4.149054e-002
3.724026e+003;4.153950e-002
3.725955e+003;4.095770e-002
3.727883e+003;4.041904e-002
3.729812e+003;4.046796e-002
3.731740e+003;4.058126e-002
3.733669e+003;4.035464e-002
3.735597e+003;4.003501e-002
3.737526e+003;4.082496e-002
3.739455e+003;4.133468e-002
3.741383e+003;4.064606e-002
3.743312e+003;3.882420e-002
3.745240e+003;3.949052e-002
3.747169e+003;4.049345e-002
3.749097e+003;3.878428e-002
3.751026e+003;3.809162e-002
3.752954e+003;3.969012e-002
3.754883e+003;4.136835e-002
3.756812e+003;4.199417e-002
3.758740e+003;4.164408e-002
3.760668e+003;4.059905e-002
3.762597e+003;4.150391e-002
3.764526e+003;4.210324e-002
3.766454e+003;4.194815e-002
3.768383e+003;4.122237e-002
3.770311e+003;4.129321e-002
3.772240e+003;4.210667e-002
3.774168e+003;4.260291e-002
3.776097e+003;4.175718e-002
3.778025e+003;4.103559e-002
3.779954e+003;4.131755e-002
3.781883e+003;4.153899e-002
3.783811e+003;4.154887e-002
3.785740e+003;4.175218e-002
3.787668e+003;4.236602e-002
3.789597e+003;4.313982e-002
3.791525e+003;4.224619e-002
3.793454e+003;4.152845e-002
3.795382e+003;4.191184e-002
3.797311e+003;4.242283e-002
3.799240e+003;4.095941e-002
3.801168e+003;3.939296e-002
3.803097e+003;4.076975e-002
3.805025e+003;4.163390e-002
3.806954e+003;4.174762e-002
3.808882e+003;4.233611e-002
3.810811e+003;4.241728e-002
3.812739e+003;4.254977e-002
3.814668e+003;4.142496e-002
3.816596e+003;4.103580e-002
3.818525e+003;4.127022e-002
3.820454e+003;3.999973e-002
3.822382e+003;4.025095e-002
3.824311e+003;4.172249e-002
3.826239e+003;4.233081e-002
3.828168e+003;4.230422e-002
3.830096e+003;4.171122e-002
3.832025e+003;4.192085e-002
3.833953e+003;4.235156e-002
3.835882e+003;4.165462e-002
3.837811e+003;4.068576e-002
3.839739e+003;4.075246e-002
3.841667e+003;4.073576e-002
3.843596e+003;4.138147e-002
3.845525e+003;4.248403e-002
3.847453e+003;4.260331e-002
3.849382e+003;4.155609e-002
3.851310e+003;3.939081e-002
3.853239e+003;3.793394e-002
3.855167e+003;4.032435e-002
3.857096e+003;4.286033e-002
3.859024e+003;4.319094e-002
3.860953e+003;4.250968e-002
3.862882e+003;4.136179e-002
3.864810e+003;4.125786e-002
3.866739e+003;4.165888e-002
3.868667e+003;4.134590e-002
3.870596e+003;4.176079e-002
3.872524e+003;4.250270e-002
3.874453e+003;4.312752e-002
3.876381e+003;4.370135e-002
3.878310e+003;4.306411e-002
3.880239e+003;4.249751e-002
3.882167e+003;4.310458e-002
3.884096e+003;4.293256e-002
3.886024e+003;4.256263e-002
3.887953e+003;4.341579e-002
3.889881e+003;4.287430e-002
3.891810e+003;4.218061e-002
3.893738e+003;4.276064e-002
3.895667e+003;4.389505e-002
3.897595e+003;4.352957e-002
3.899524e+003;4.247683e-002
3.901453e+003;4.243737e-002
3.903381e+003;4.274536e-002
3.905310e+003;4.402568e-002
3.907238e+003;4.540373e-002
3.909167e+003;4.507253e-002
3.911095e+003;4.466118e-002
3.913024e+003;4.424725e-002
3.914952e+003;4.404695e-002
3.916881e+003;4.404237e-002
3.918810e+003;4.396225e-002
3.920738e+003;4.414168e-002
3.922667e+003;4.380297e-002
3.924595e+003;4.366662e-002
3.926524e+003;4.412067e-002
3.928452e+003;4.368608e-002
3.930381e+003;4.244157e-002
3.932309e+003;4.250438e-002
3.934238e+003;4.419535e-002
3.936167e+003;4.534550e-002
3.938095e+003;4.514163e-002
3.940023e+003;4.464161e-002
3.941952e+003;4.416017e-002
3.943881e+003;4.422664e-002
3.945809e+003;4.439480e-002
3.947738e+003;4.461752e-002
3.949666e+003;4.512976e-002
3.951595e+003;4.477746e-002
3.953523e+003;4.437594e-002
3.955452e+003;4.467998e-002
3.957380e+003;4.548827e-002
3.959309e+003;4.618808e-002
3.961238e+003;4.625117e-002
3.963166e+003;4.594161e-002
3.965095e+003;4.517822e-002
3.967023e+003;4.415368e-002
3.968952e+003;4.364116e-002
3.970880e+003;4.449009e-002
3.972809e+003;4.524278e-002
3.974737e+003;4.463316e-002
3.976666e+003;4.442659e-002
3.978594e+003;4.535639e-002
3.980523e+003;4.516343e-002
3.982452e+003;4.419212e-002
3.984380e+003;4.505054e-002
3.986309e+003;4.600887e-002
3.988237e+003;4.582594e-002
3.990166e+003;4.564250e-002
3.992094e+003;4.560164e-002
3.994023e+003;4.550431e-002
3.995951e+003;4.557389e-002
3.997880e+003;4.589609e-002
3.999809e+003;4.560775e-002
4.001737e+003;0.000000e+000
