3.992094e+002;0.000000e+000
4.011380e+002;0.000000e+000
4.030665e+002;0.000000e+000
4.049951e+002;0.000000e+000
4.069236e+002;0.000000e+000
4.088522e+002;0.000000e+000
4.107807e+002;0.000000e+000
4.127093e+002;0.000000e+000
4.146378e+002;0.000000e+000
4.165664e+002;0.000000e+000
4.184949e+002;0.000000e+000
4.204235e+002;0.000000e+000
4.223520e+002;0.000000e+000
4.242806e+002;0.000000e+000
4.262091e+002;0.000000e+000
4.281377e+002;0.000000e+000
4.300662e+002;0.000000e+000
4.319948e+002;0.000000e+000
4.339233e+002;0.000000e+000
4.358519e+002;0.000000e+000
4.377804e+002;0.000000e+000
4.397090e+002;0.000000e+000
4.416375e+002;0.000000e+000
4.435660e+002;0.000000e+000
4.454946e+002;0.000000e+000
4.474232e+002;0.000000e+000
4.493517e+002;0.000000e+000
4.512802e+002;0.000000e+000
4.532088e+002;0.000000e+000
4.551373e+002;0.000000e+000
4.570659e+002;0.000000e+000
4.589944e+002;0.000000e+000
4.609230e+002;0.000000e+000
4.628515e+002;0.000000e+000
4.647801e+002;0.000000e+000
4.667086e+002;0.000000e+000
4.686372e+002;0.000000e+000
4.705657e+002;0.000000e+000
4.724943e+002;0.000000e+000
4.744228e+002;0.000000e+000
4.763513e+002;0.000000e+000
4.782799e+002;0.000000e+000
4.802085e+002;0.000000e+000
4.821370e+002;0.000000e+000
4.840656e+002;0.000000e+000
4.859941e+002;0.000000e+000
4.879226e+002;0.000000e+000
4.898512e+002;0.000000e+000
4.917798e+002;0.000000e+000
4.937083e+002;0.000000e+000
4.956368e+002;0.000000e+000
4.975654e+002;0.000000e+000
4.994939e+002;0.000000e+000
5.014225e+002;0.000000e+000
5.033510e+002;0.000000e+000
5.052796e+002;0.000000e+000
5.072081e+002;0.000000e+000
5.091367e+002;0.000000e+000
5.110652e+002;0.000000e+000
5.129938e+002;0.000000e+000
5.149223e+002;0.000000e+000
5.168509e+002;0.000000e+000
5.187794e+002;0.000000e+000
5.207079e+002;0.000000e+000
5.226365e+002;0.000000e+000
5.245651e+002;0.000000e+000
5.264936e+002;0.000000e+000
5.284222e+002;0.000000e+000
5.303507e+002;0.000000e+000
5.322792e+002;0.000000e+000
5.342078e+002;0.000000e+000
5.361364e+002;0.000000e+000
5.380649e+002;0.000000e+000
5.399935e+002;0.000000e+000
5.419220e+002;0.000000e+000
5.438505e+002;0.000000e+000
5.457791e+002;0.000000e+000
5.477076e+002;0.000000e+000
5.496362e+002;0.000000e+000
5.515648e+002;0.000000e+000
5.534933e+002;0.000000e+000
5.554218e+002;0.000000e+000
5.573504e+002;0.000000e+000
5.592789e+002;0.000000e+000
5.612075e+002;0.000000e+000
5.631360e+002;0.000000e+000
5.650646e+002;0.000000e+000
5.669931e+002;0.000000e+000
5.689217e+002;0.000000e+000
5.708502e+002;0.000000e+000
5.727787e+002;0.000000e+000
5.747073e+002;0.000000e+000
5.766359e+002;0.000000e+000
5.785644e+002;0.000000e+000
5.804930e+002;0.000000e+000
5.824215e+002;0.000000e+000
5.843500e+002;0.000000e+000
5.862786e+002;0.000000e+000
5.882072e+002;0.000000e+000
5.901357e+002;0.000000e+000
5.920643e+002;0.000000e+000
5.939928e+002;0.000000e+000
5.959213e+002;0.000000e+000
5.978499e+002;0.000000e+000
5.997784e+002;2.339934e-001
6.017070e+002;2.314663e-001
6.036355e+002;2.339923e-001
6.055641e+002;2.334216e-001
6.074926e+002;2.344394e-001
6.094211e+002;2.370296e-001
6.113497e+002;2.361156e-001
6.132783e+002;2.339487e-001
6.152068e+002;2.335100e-001
6.171354e+002;2.319129e-001
6.190639e+002;2.304086e-001
6.209924e+002;2.270170e-001
6.229210e+002;2.218886e-001
6.248495e+002;2.179398e-001
6.267781e+002;2.162293e-001
6.287067e+002;2.148503e-001
6.306352e+002;2.115609e-001
6.325637e+002;2.050203e-001
6.344923e+002;1.997023e-001
6.364208e+002;2.003136e-001
6.383494e+002;2.028815e-001
6.402780e+002;1.987431e-001
6.422065e+002;1.908433e-001
6.441350e+002;1.921327e-001
6.460636e+002;1.955563e-001
6.479921e+002;1.945633e-001
6.499207e+002;1.948542e-001
6.518492e+002;1.951022e-001
6.537778e+002;1.951878e-001
6.557063e+002;2.004656e-001
6.576349e+002;2.088263e-001
6.595634e+002;2.139943e-001
6.614919e+002;2.173180e-001
6.634205e+002;2.194038e-001
6.653491e+002;2.162150e-001
6.672776e+002;2.118689e-001
6.692062e+002;2.103776e-001
6.711347e+002;2.068549e-001
6.730632e+002;2.010127e-001
6.749918e+002;1.942711e-001
6.769203e+002;1.889044e-001
6.788489e+002;1.859209e-001
6.807775e+002;1.840609e-001
6.827060e+002;1.822012e-001
6.846345e+002;1.796129e-001
6.865631e+002;1.784220e-001
6.884916e+002;1.784618e-001
6.904202e+002;1.791600e-001
6.923488e+002;1.815102e-001
6.942773e+002;1.836949e-001
6.962058e+002;1.838904e-001
6.981344e+002;1.842044e-001
7.000629e+002;1.847484e-001
7.019915e+002;1.836481e-001
7.039200e+002;1.803624e-001
7.058486e+002;1.769060e-001
7.077771e+002;1.739754e-001
7.097057e+002;1.712796e-001
7.116342e+002;1.684757e-001
7.135627e+002;1.661260e-001
7.154913e+002;1.636416e-001
7.174199e+002;1.601000e-001
7.193484e+002;1.569732e-001
7.212770e+002;1.529091e-001
7.232055e+002;1.470668e-001
7.251340e+002;1.419583e-001
7.270626e+002;1.397201e-001
7.289911e+002;1.380571e-001
7.309197e+002;1.360845e-001
7.328483e+002;1.343539e-001
7.347768e+002;1.325594e-001
7.367053e+002;1.304504e-001
7.386339e+002;1.279483e-001
7.405624e+002;1.264585e-001
7.424910e+002;1.258656e-001
7.444196e+002;1.250998e-001
7.463481e+002;1.240994e-001
7.482766e+002;1.228853e-001
7.502052e+002;1.211543e-001
7.521337e+002;1.204107e-001
7.540623e+002;1.201953e-001
7.559908e+002;1.190839e-001
7.579194e+002;1.187628e-001
7.598479e+002;1.188140e-001
7.617765e+002;1.184435e-001
7.637050e+002;1.169142e-001
7.656335e+002;1.152678e-001
7.675621e+002;1.146643e-001
7.694907e+002;1.139483e-001
7.714192e+002;1.127313e-001
7.733478e+002;1.119898e-001
7.752763e+002;1.117077e-001
7.772048e+002;1.115738e-001
7.791334e+002;1.113395e-001
7.810620e+002;1.109500e-001
7.829905e+002;1.105239e-001
7.849191e+002;1.102825e-001
7.868476e+002;1.104686e-001
7.887761e+002;1.109471e-001
7.907047e+002;1.112667e-001
7.926332e+002;1.113086e-001
7.945618e+002;1.113693e-001
7.964903e+002;1.114721e-001
7.984189e+002;1.118427e-001
8.003474e+002;1.119848e-001
8.022759e+002;1.115621e-001
8.042045e+002;1.112280e-001
8.061331e+002;1.119537e-001
8.080616e+002;1.122660e-001
8.099902e+002;1.113281e-001
8.119187e+002;1.116044e-001
8.138472e+002;1.124802e-001
8.157758e+002;1.126505e-001
8.177043e+002;1.121297e-001
8.196329e+002;1.117889e-001
8.215615e+002;1.115923e-001
8.234900e+002;1.110915e-001
8.254185e+002;1.109127e-001
8.273471e+002;1.102313e-001
8.292756e+002;1.087301e-001
8.312042e+002;1.079480e-001
8.331328e+002;1.078348e-001
8.350613e+002;1.079012e-001
8.369898e+002;1.081844e-001
8.389184e+002;1.086250e-001
8.408469e+002;1.087337e-001
8.427755e+002;1.081465e-001
8.447040e+002;1.075079e-001
8.466326e+002;1.074753e-001
8.485611e+002;1.081187e-001
8.504897e+002;1.084323e-001
8.524182e+002;1.086175e-001
8.543467e+002;1.094696e-001
8.562753e+002;1.100769e-001
8.582039e+002;1.101773e-001
8.601324e+002;1.106067e-001
8.620610e+002;1.118058e-001
8.639895e+002;1.125772e-001
8.659180e+002;1.133654e-001
8.678466e+002;1.148195e-001
8.697751e+002;1.160492e-001
8.717037e+002;1.173118e-001
8.736323e+002;1.193463e-001
8.755608e+002;1.210108e-001
8.774893e+002;1.222791e-001
8.794179e+002;1.240362e-001
8.813464e+002;1.263936e-001
8.832750e+002;1.292966e-001
8.852036e+002;1.323830e-001
8.871321e+002;1.349513e-001
8.890606e+002;1.373876e-001
8.909892e+002;1.398112e-001
8.929177e+002;1.418672e-001
8.948463e+002;1.432427e-001
8.967748e+002;1.438266e-001
8.987034e+002;1.438240e-001
9.006319e+002;1.436812e-001
9.025605e+002;1.432369e-001
9.044890e+002;1.424235e-001
9.064175e+002;1.414544e-001
9.083461e+002;1.405797e-001
9.102747e+002;1.393480e-001
9.122032e+002;1.378701e-001
9.141318e+002;1.368729e-001
9.160603e+002;1.363666e-001
9.179888e+002;1.365856e-001
9.199174e+002;1.375904e-001
9.218459e+002;1.382757e-001
9.237745e+002;1.389185e-001
9.257031e+002;1.404454e-001
9.276316e+002;1.424543e-001
9.295601e+002;1.446491e-001
9.314887e+002;1.465068e-001
9.334172e+002;1.482308e-001
9.353458e+002;1.501685e-001
9.372744e+002;1.520308e-001
9.392029e+002;1.541211e-001
9.411314e+002;1.565189e-001
9.430600e+002;1.584409e-001
9.449885e+002;1.605326e-001
9.469171e+002;1.634947e-001
9.488456e+002;1.670028e-001
9.507742e+002;1.705493e-001
9.527027e+002;1.740081e-001
9.546313e+002;1.782048e-001
9.565598e+002;1.830240e-001
9.584883e+002;1.880888e-001
9.604169e+002;1.931758e-001
9.623455e+002;1.985997e-001
9.642740e+002;2.042570e-001
9.662026e+002;2.103820e-001
9.681311e+002;2.174333e-001
9.700596e+002;2.249871e-001
9.719882e+002;2.337184e-001
9.739167e+002;2.442315e-001
9.758453e+002;2.562965e-001
9.777739e+002;2.699560e-001
9.797024e+002;2.841755e-001
9.816309e+002;2.956466e-001
9.835595e+002;3.021005e-001
9.854880e+002;3.042570e-001
9.874166e+002;3.043696e-001
9.893452e+002;3.059029e-001
9.912737e+002;3.099354e-001
9.932022e+002;3.156472e-001
9.951307e+002;3.219998e-001
9.970593e+002;3.278117e-001
9.989879e+002;3.323427e-001
1.000916e+003;3.340476e-001
1.002845e+003;3.342037e-001
1.004773e+003;3.348320e-001
1.006702e+003;3.355172e-001
1.008631e+003;3.365209e-001
1.010559e+003;3.383133e-001
1.012488e+003;3.410507e-001
1.014416e+003;3.439461e-001
1.016345e+003;3.473241e-001
1.018273e+003;3.513345e-001
1.020202e+003;3.555956e-001
1.022130e+003;3.607462e-001
1.024059e+003;3.663043e-001
1.025988e+003;3.715312e-001
1.027916e+003;3.759569e-001
1.029845e+003;3.779929e-001
1.031773e+003;3.767442e-001
1.033702e+003;3.724934e-001
1.035630e+003;3.644415e-001
1.037559e+003;3.549059e-001
1.039487e+003;3.471621e-001
1.041416e+003;3.421663e-001
1.043344e+003;3.412646e-001
1.045273e+003;3.440933e-001
1.047202e+003;3.497630e-001
1.049130e+003;3.569422e-001
1.051059e+003;3.624977e-001
1.052987e+003;3.650568e-001
1.054916e+003;3.644173e-001
1.056844e+003;3.599396e-001
1.058773e+003;3.509213e-001
1.060701e+003;3.363741e-001
1.062630e+003;3.179272e-001
1.064558e+003;2.998049e-001
1.066487e+003;2.841826e-001
1.068416e+003;2.711920e-001
1.070344e+003;2.615923e-001
1.072273e+003;2.541320e-001
1.074201e+003;2.481606e-001
1.076130e+003;2.436542e-001
1.078058e+003;2.388670e-001
1.079987e+003;2.339278e-001
1.081915e+003;2.306858e-001
1.083844e+003;2.300040e-001
1.085773e+003;2.305184e-001
1.087701e+003;2.314309e-001
1.089630e+003;2.328779e-001
1.091558e+003;2.345763e-001
1.093487e+003;2.373714e-001
1.095415e+003;2.411000e-001
1.097344e+003;2.449354e-001
1.099272e+003;2.479542e-001
1.101201e+003;2.500141e-001
1.103129e+003;2.509656e-001
1.105058e+003;2.508269e-001
1.106987e+003;2.495898e-001
1.108915e+003;2.467921e-001
1.110844e+003;2.420691e-001
1.112772e+003;2.342482e-001
1.114701e+003;2.235877e-001
1.116629e+003;2.118277e-001
1.118558e+003;2.006887e-001
1.120486e+003;1.921976e-001
1.122415e+003;1.856809e-001
1.124344e+003;1.792064e-001
1.126272e+003;1.718660e-001
1.128201e+003;1.642751e-001
1.130129e+003;1.580142e-001
1.132058e+003;1.534121e-001
1.133986e+003;1.502548e-001
1.135915e+003;1.483056e-001
1.137843e+003;1.476544e-001
1.139772e+003;1.480080e-001
1.141700e+003;1.503317e-001
1.143629e+003;1.540526e-001
1.145557e+003;1.579999e-001
1.147486e+003;1.614686e-001
1.149415e+003;1.639812e-001
1.151343e+003;1.663501e-001
1.153272e+003;1.695298e-001
1.155200e+003;1.724206e-001
1.157129e+003;1.744580e-001
1.159057e+003;1.758359e-001
1.160986e+003;1.754708e-001
1.162914e+003;1.716904e-001
1.164843e+003;1.648442e-001
1.166771e+003;1.564375e-001
1.168700e+003;1.474517e-001
1.170629e+003;1.393792e-001
1.172557e+003;1.322366e-001
1.174486e+003;1.260558e-001
1.176414e+003;1.220347e-001
1.178343e+003;1.192159e-001
1.180271e+003;1.165629e-001
1.182200e+003;1.141223e-001
1.184128e+003;1.124593e-001
1.186057e+003;1.118794e-001
1.187986e+003;1.120505e-001
1.189914e+003;1.128963e-001
1.191843e+003;1.143532e-001
1.193771e+003;1.162375e-001
1.195700e+003;1.184335e-001
1.197628e+003;1.204428e-001
1.199557e+003;1.221382e-001
1.201485e+003;1.232302e-001
1.203414e+003;1.236207e-001
1.205343e+003;1.230940e-001
1.207271e+003;1.212046e-001
1.209200e+003;1.178143e-001
1.211128e+003;1.138639e-001
1.213057e+003;1.110840e-001
1.214985e+003;1.101675e-001
1.216914e+003;1.104472e-001
1.218842e+003;1.114331e-001
1.220771e+003;1.127299e-001
1.222699e+003;1.140884e-001
1.224628e+003;1.157539e-001
1.226557e+003;1.178949e-001
1.228485e+003;1.198962e-001
1.230414e+003;1.214123e-001
1.232342e+003;1.229409e-001
1.234271e+003;1.248142e-001
1.236199e+003;1.260253e-001
1.238128e+003;1.263940e-001
1.240056e+003;1.266161e-001
1.241985e+003;1.275108e-001
1.243913e+003;1.290141e-001
1.245842e+003;1.303984e-001
1.247771e+003;1.311581e-001
1.249699e+003;1.311489e-001
1.251628e+003;1.312077e-001
1.253556e+003;1.315635e-001
1.255485e+003;1.323439e-001
1.257413e+003;1.334257e-001
1.259342e+003;1.345043e-001
1.261270e+003;1.349826e-001
1.263199e+003;1.348244e-001
1.265127e+003;1.340329e-001
1.267056e+003;1.328405e-001
1.268985e+003;1.321465e-001
1.270913e+003;1.324031e-001
1.272842e+003;1.331221e-001
1.274770e+003;1.337006e-001
1.276699e+003;1.337944e-001
1.278627e+003;1.334126e-001
1.280556e+003;1.326784e-001
1.282484e+003;1.311305e-001
1.284413e+003;1.293982e-001
1.286342e+003;1.284283e-001
1.288270e+003;1.278594e-001
1.290199e+003;1.278047e-001
1.292127e+003;1.283070e-001
1.294056e+003;1.288711e-001
1.295984e+003;1.295965e-001
1.297913e+003;1.314136e-001
1.299841e+003;1.338187e-001
1.301770e+003;1.370443e-001
1.303698e+003;1.409990e-001
1.305627e+003;1.448721e-001
1.307556e+003;1.489650e-001
1.309484e+003;1.529796e-001
1.311413e+003;1.561038e-001
1.313341e+003;1.577826e-001
1.315270e+003;1.574591e-001
1.317198e+003;1.550209e-001
1.319127e+003;1.515265e-001
1.321055e+003;1.476464e-001
1.322984e+003;1.443689e-001
1.324912e+003;1.424261e-001
1.326841e+003;1.417045e-001
1.328770e+003;1.422411e-001
1.330698e+003;1.438072e-001
1.332627e+003;1.454373e-001
1.334555e+003;1.459350e-001
1.336484e+003;1.448857e-001
1.338412e+003;1.428357e-001
1.340341e+003;1.405572e-001
1.342269e+003;1.381050e-001
1.344198e+003;1.350600e-001
1.346126e+003;1.323554e-001
1.348055e+003;1.305970e-001
1.349984e+003;1.302877e-001
1.351912e+003;1.310372e-001
1.353841e+003;1.319047e-001
1.355769e+003;1.327536e-001
1.357698e+003;1.334833e-001
1.359626e+003;1.337074e-001
1.361555e+003;1.328739e-001
1.363483e+003;1.314925e-001
1.365412e+003;1.308202e-001
1.367341e+003;1.304462e-001
1.369269e+003;1.300121e-001
1.371198e+003;1.284296e-001
1.373126e+003;1.252257e-001
1.375055e+003;1.220867e-001
1.376983e+003;1.194941e-001
1.378912e+003;1.167245e-001
1.380840e+003;1.140400e-001
1.382769e+003;1.113780e-001
1.384698e+003;1.087453e-001
1.386626e+003;1.062453e-001
1.388555e+003;1.057069e-001
1.390483e+003;1.060880e-001
1.392412e+003;1.053875e-001
1.394340e+003;1.044087e-001
1.396269e+003;1.050048e-001
1.398197e+003;1.056409e-001
1.400126e+003;1.060219e-001
1.402054e+003;1.064662e-001
1.403983e+003;1.063070e-001
1.405911e+003;1.065300e-001
1.407840e+003;1.069577e-001
1.409769e+003;1.072420e-001
1.411697e+003;1.079684e-001
1.413626e+003;1.088970e-001
1.415554e+003;1.095283e-001
1.417483e+003;1.093993e-001
1.419411e+003;1.108144e-001
1.421340e+003;1.149845e-001
1.423268e+003;1.173763e-001
1.425197e+003;1.186054e-001
1.427125e+003;1.192566e-001
1.429054e+003;1.187735e-001
1.430983e+003;1.185473e-001
1.432911e+003;1.176577e-001
1.434840e+003;1.140187e-001
1.436768e+003;1.107474e-001
1.438697e+003;1.117776e-001
1.440625e+003;1.128935e-001
1.442554e+003;1.132140e-001
1.444482e+003;1.134788e-001
1.446411e+003;1.134688e-001
1.448340e+003;1.137973e-001
1.450268e+003;1.148342e-001
1.452197e+003;1.149964e-001
1.454125e+003;1.125844e-001
1.456054e+003;1.069395e-001
1.457982e+003;1.054655e-001
1.459911e+003;1.075572e-001
1.461839e+003;1.073050e-001
1.463768e+003;1.037570e-001
1.465697e+003;1.010967e-001
1.467625e+003;1.003071e-001
1.469554e+003;9.828921e-002
1.471482e+003;9.526636e-002
1.473411e+003;9.343091e-002
1.475339e+003;9.184649e-002
1.477268e+003;9.043240e-002
1.479196e+003;8.962967e-002
1.481125e+003;8.831472e-002
1.483053e+003;8.655029e-002
1.484982e+003;8.388423e-002
1.486911e+003;8.111413e-002
1.488839e+003;7.881948e-002
1.490768e+003;7.843080e-002
1.492696e+003;7.958260e-002
1.494625e+003;7.808938e-002
1.496553e+003;7.569618e-002
1.498482e+003;7.575788e-002
1.500410e+003;7.632081e-002
1.502339e+003;7.613868e-002
1.504267e+003;7.258962e-002
1.506196e+003;6.851996e-002
1.508125e+003;7.073301e-002
1.510053e+003;7.411711e-002
1.511982e+003;7.480843e-002
1.513910e+003;7.505357e-002
1.515839e+003;7.415201e-002
1.517767e+003;7.352307e-002
1.519696e+003;7.194968e-002
1.521624e+003;7.131384e-002
1.523553e+003;7.386822e-002
1.525481e+003;7.516816e-002
1.527410e+003;7.663143e-002
1.529339e+003;7.817018e-002
1.531267e+003;7.820632e-002
1.533196e+003;7.739615e-002
1.535124e+003;7.879223e-002
1.537053e+003;7.785212e-002
1.538981e+003;7.317980e-002
1.540910e+003;7.369150e-002
1.542838e+003;7.786790e-002
1.544767e+003;8.039759e-002
1.546695e+003;8.215640e-002
1.548624e+003;8.278897e-002
1.550553e+003;8.324663e-002
1.552481e+003;8.298699e-002
1.554410e+003;8.163872e-002
1.556338e+003;7.929505e-002
1.558267e+003;7.458059e-002
1.560195e+003;7.608917e-002
1.562124e+003;8.184417e-002
1.564052e+003;8.377238e-002
1.565981e+003;8.376138e-002
1.567910e+003;8.240661e-002
1.569838e+003;8.133796e-002
1.571767e+003;8.264422e-002
1.573695e+003;8.176189e-002
1.575624e+003;7.864714e-002
1.577552e+003;8.029293e-002
1.579481e+003;8.315516e-002
1.581409e+003;8.373035e-002
1.583338e+003;8.386108e-002
1.585266e+003;8.388359e-002
1.587195e+003;8.387703e-002
1.589124e+003;8.342165e-002
1.591052e+003;8.327343e-002
1.592981e+003;8.339772e-002
1.594909e+003;8.361562e-002
1.596838e+003;8.391960e-002
1.598766e+003;8.409172e-002
1.600695e+003;8.414026e-002
1.602623e+003;8.438292e-002
1.604552e+003;8.440751e-002
1.606480e+003;8.402075e-002
1.608409e+003;8.361417e-002
1.610338e+003;8.362634e-002
1.612266e+003;8.381474e-002
1.614195e+003;8.251410e-002
1.616123e+003;7.960111e-002
1.618052e+003;8.092374e-002
1.619980e+003;8.344309e-002
1.621909e+003;8.305887e-002
1.623837e+003;8.274779e-002
1.625766e+003;8.345361e-002
1.627694e+003;8.371235e-002
1.629623e+003;8.417244e-002
1.631552e+003;8.457430e-002
1.633480e+003;8.247844e-002
1.635409e+003;7.993456e-002
1.637337e+003;8.213439e-002
1.639266e+003;8.468495e-002
1.641194e+003;8.525765e-002
1.643123e+003;8.459451e-002
1.645051e+003;8.217162e-002
1.646980e+003;8.151877e-002
1.648909e+003;8.328219e-002
1.650837e+003;7.986470e-002
1.652766e+003;7.439615e-002
1.654694e+003;7.907695e-002
1.656623e+003;8.452749e-002
1.658551e+003;8.549355e-002
1.660480e+003;8.470432e-002
1.662408e+003;8.360626e-002
1.664337e+003;8.418563e-002
1.666266e+003;8.411311e-002
1.668194e+003;8.172737e-002
1.670123e+003;8.077961e-002
1.672051e+003;8.156703e-002
1.673980e+003;8.029975e-002
1.675908e+003;7.960279e-002
1.677837e+003;8.073747e-002
1.679765e+003;8.023039e-002
1.681694e+003;7.777086e-002
1.683622e+003;7.298608e-002
1.685551e+003;7.415987e-002
1.687479e+003;7.831896e-002
1.689408e+003;7.908908e-002
1.691337e+003;7.918302e-002
1.693265e+003;7.747733e-002
1.695194e+003;7.338298e-002
1.697122e+003;7.320113e-002
1.699051e+003;7.203040e-002
1.700979e+003;7.265871e-002
1.702908e+003;7.701696e-002
1.704836e+003;7.755433e-002
1.706765e+003;7.835226e-002
1.708693e+003;7.968538e-002
1.710622e+003;8.077478e-002
1.712551e+003;8.098271e-002
1.714479e+003;8.061714e-002
1.716408e+003;7.989067e-002
1.718336e+003;8.323426e-002
1.720265e+003;9.003837e-002
1.722193e+003;9.539913e-002
1.724122e+003;9.980312e-002
1.726050e+003;1.038210e-001
1.727979e+003;1.066921e-001
1.729908e+003;1.082209e-001
1.731836e+003;1.060316e-001
1.733765e+003;1.016023e-001
1.735693e+003;1.007083e-001
1.737622e+003;9.789260e-002
1.739550e+003;9.119513e-002
1.741479e+003;8.552022e-002
1.743407e+003;8.027209e-002
1.745336e+003;7.558126e-002
1.747265e+003;7.158698e-002
1.749193e+003;6.817164e-002
1.751122e+003;6.619688e-002
1.753050e+003;6.664217e-002
1.754979e+003;6.620066e-002
1.756907e+003;6.538675e-002
1.758836e+003;6.543151e-002
1.760764e+003;6.444102e-002
1.762693e+003;6.428961e-002
1.764621e+003;6.510408e-002
1.766550e+003;6.418343e-002
1.768479e+003;6.334423e-002
1.770407e+003;6.232214e-002
1.772336e+003;6.127410e-002
1.774264e+003;6.273008e-002
1.776193e+003;6.397541e-002
1.778121e+003;6.401507e-002
1.780050e+003;6.376445e-002
1.781978e+003;6.378417e-002
1.783907e+003;6.351889e-002
1.785835e+003;6.347796e-002
1.787764e+003;6.367819e-002
1.789693e+003;6.277487e-002
1.791621e+003;6.120783e-002
1.793550e+003;6.145801e-002
1.795478e+003;6.298477e-002
1.797407e+003;6.307453e-002
1.799335e+003;6.243880e-002
1.801264e+003;6.227724e-002
1.803192e+003;6.279111e-002
1.805121e+003;6.301653e-002
1.807049e+003;6.291974e-002
1.808978e+003;6.271262e-002
1.810907e+003;6.245541e-002
1.812835e+003;6.259366e-002
1.814764e+003;6.294632e-002
1.816692e+003;6.287160e-002
1.818621e+003;6.284793e-002
1.820549e+003;6.267698e-002
1.822478e+003;6.226531e-002
1.824406e+003;6.173575e-002
1.826335e+003;6.184768e-002
1.828264e+003;6.131237e-002
1.830192e+003;6.107906e-002
1.832121e+003;6.216681e-002
1.834049e+003;6.263097e-002
1.835978e+003;6.235867e-002
1.837906e+003;6.213588e-002
1.839835e+003;6.224936e-002
1.841763e+003;6.150950e-002
1.843692e+003;5.999677e-002
1.845620e+003;6.062622e-002
1.847549e+003;6.173655e-002
1.849478e+003;6.187179e-002
1.851406e+003;6.195684e-002
1.853335e+003;6.197037e-002
1.855263e+003;6.177307e-002
1.857192e+003;6.157330e-002
1.859120e+003;6.153936e-002
1.861049e+003;6.158360e-002
1.862977e+003;6.166983e-002
1.864906e+003;6.136061e-002
1.866834e+003;6.050269e-002
1.868763e+003;6.003972e-002
1.870692e+003;6.073264e-002
1.872620e+003;6.154741e-002
1.874549e+003;6.180531e-002
1.876477e+003;6.165268e-002
1.878406e+003;6.156501e-002
1.880334e+003;6.172800e-002
1.882263e+003;6.173972e-002
1.884191e+003;6.163577e-002
1.886120e+003;6.153389e-002
1.888048e+003;6.100938e-002
1.889977e+003;6.075935e-002
1.891906e+003;6.120531e-002
1.893834e+003;6.134938e-002
1.895763e+003;6.126334e-002
1.897691e+003;6.129619e-002
1.899620e+003;6.148564e-002
1.901548e+003;6.155795e-002
1.903477e+003;6.133091e-002
1.905405e+003;6.114752e-002
1.907334e+003;6.110076e-002
1.909262e+003;6.124842e-002
1.911191e+003;6.152928e-002
1.913120e+003;6.156310e-002
1.915048e+003;6.137056e-002
1.916977e+003;6.089051e-002
1.918905e+003;6.092017e-002
1.920834e+003;6.122122e-002
1.922762e+003;6.122206e-002
1.924691e+003;6.151045e-002
1.926619e+003;6.191030e-002
1.928548e+003;6.221946e-002
1.930477e+003;6.238139e-002
1.932405e+003;6.239783e-002
1.934334e+003;6.232447e-002
1.936262e+003;6.241268e-002
1.938191e+003;6.247737e-002
1.940119e+003;6.211516e-002
1.942048e+003;6.161343e-002
1.943976e+003;6.188363e-002
1.945905e+003;6.237305e-002
1.947833e+003;6.261861e-002
1.949762e+003;6.282802e-002
1.951691e+003;6.282622e-002
1.953619e+003;6.270225e-002
1.955548e+003;6.270175e-002
1.957476e+003;6.286355e-002
1.959405e+003;6.279777e-002
1.961333e+003;6.267247e-002
1.963262e+003;6.253170e-002
1.965190e+003;6.245216e-002
1.967119e+003;6.244336e-002
1.969047e+003;6.273004e-002
1.970976e+003;6.295773e-002
1.972905e+003;6.307431e-002
1.974833e+003;6.299090e-002
1.976762e+003;6.267105e-002
1.978690e+003;6.256124e-002
1.980619e+003;6.267622e-002
1.982547e+003;6.261827e-002
1.984476e+003;6.274141e-002
1.986404e+003;6.298822e-002
1.988333e+003;6.297899e-002
1.990261e+003;6.283736e-002
1.992190e+003;6.302281e-002
1.994119e+003;6.354780e-002
1.996047e+003;6.361677e-002
1.997976e+003;6.344399e-002
1.999904e+003;6.353806e-002
2.001833e+003;6.367175e-002
2.003761e+003;6.362610e-002
2.005690e+003;6.350734e-002
2.007618e+003;6.354669e-002
2.009547e+003;6.364320e-002
2.011476e+003;6.384198e-002
2.013404e+003;6.389498e-002
2.015333e+003;6.374906e-002
2.017261e+003;6.358965e-002
2.019190e+003;6.389763e-002
2.021118e+003;6.430225e-002
2.023047e+003;6.445343e-002
2.024975e+003;6.454572e-002
2.026904e+003;6.459374e-002
2.028833e+003;6.468830e-002
2.030761e+003;6.461596e-002
2.032690e+003;6.452977e-002
2.034618e+003;6.457786e-002
2.036547e+003;6.466164e-002
2.038475e+003;6.476440e-002
2.040404e+003;6.471644e-002
2.042332e+003;6.462953e-002
2.044261e+003;6.464387e-002
2.046189e+003;6.476990e-002
2.048118e+003;6.487361e-002
2.050047e+003;6.497154e-002
2.051975e+003;6.505662e-002
2.053904e+003;6.494907e-002
2.055832e+003;6.478248e-002
2.057761e+003;6.481013e-002
2.059689e+003;6.480783e-002
2.061618e+003;6.473644e-002
2.063546e+003;6.475725e-002
2.065475e+003;6.460785e-002
2.067404e+003;6.436715e-002
2.069332e+003;6.436300e-002
2.071260e+003;6.451117e-002
2.073189e+003;6.458643e-002
2.075118e+003;6.442553e-002
2.077046e+003;6.435785e-002
2.078975e+003;6.459724e-002
2.080903e+003;6.465165e-002
2.082832e+003;6.430452e-002
2.084760e+003;6.418519e-002
2.086689e+003;6.419265e-002
2.088617e+003;6.421804e-002
2.090546e+003;6.428538e-002
2.092475e+003;6.419933e-002
2.094403e+003;6.419273e-002
2.096332e+003;6.427620e-002
2.098260e+003;6.441937e-002
2.100189e+003;6.459855e-002
2.102117e+003;6.450074e-002
2.104046e+003;6.449118e-002
2.105974e+003;6.469752e-002
2.107903e+003;6.471656e-002
2.109832e+003;6.473128e-002
2.111760e+003;6.461404e-002
2.113688e+003;6.459105e-002
2.115617e+003;6.479064e-002
2.117546e+003;6.485280e-002
2.119474e+003;6.461558e-002
2.121403e+003;6.452292e-002
2.123331e+003;6.462211e-002
2.125260e+003;6.482418e-002
2.127188e+003;6.506529e-002
2.129117e+003;6.526174e-002
2.131045e+003;6.530453e-002
2.132974e+003;6.511567e-002
2.134903e+003;6.525034e-002
2.136831e+003;6.545709e-002
2.138760e+003;6.543089e-002
2.140688e+003;6.518396e-002
2.142617e+003;6.488581e-002
2.144545e+003;6.476737e-002
2.146474e+003;6.473541e-002
2.148402e+003;6.463769e-002
2.150331e+003;6.459670e-002
2.152260e+003;6.476737e-002
2.154188e+003;6.492386e-002
2.156117e+003;6.477940e-002
2.158045e+003;6.441515e-002
2.159974e+003;6.423890e-002
2.161902e+003;6.401503e-002
2.163831e+003;6.395248e-002
2.165759e+003;6.399526e-002
2.167688e+003;6.399925e-002
2.169616e+003;6.391014e-002
2.171545e+003;6.368913e-002
2.173474e+003;6.359234e-002
2.175402e+003;6.368468e-002
2.177331e+003;6.371913e-002
2.179259e+003;6.347551e-002
2.181188e+003;6.330631e-002
2.183116e+003;6.323310e-002
2.185045e+003;6.316381e-002
2.186973e+003;6.316277e-002
2.188902e+003;6.309066e-002
2.190831e+003;6.272242e-002
2.192759e+003;6.240193e-002
2.194688e+003;6.241998e-002
2.196616e+003;6.243299e-002
2.198545e+003;6.242649e-002
2.200473e+003;6.273016e-002
2.202402e+003;6.296520e-002
2.204330e+003;6.273785e-002
2.206259e+003;6.247286e-002
2.208188e+003;6.236570e-002
2.210116e+003;6.232409e-002
2.212044e+003;6.252994e-002
2.213973e+003;6.247561e-002
2.215902e+003;6.238200e-002
2.217830e+003;6.257016e-002
2.219759e+003;6.271224e-002
2.221687e+003;6.290556e-002
2.223616e+003;6.272032e-002
2.225544e+003;6.251651e-002
2.227473e+003;6.260414e-002
2.229401e+003;6.270447e-002
2.231330e+003;6.269298e-002
2.233259e+003;6.268158e-002
2.235187e+003;6.273640e-002
2.237116e+003;6.286371e-002
2.239044e+003;6.261057e-002
2.240973e+003;6.230718e-002
2.242901e+003;6.213909e-002
2.244830e+003;6.213091e-002
2.246758e+003;6.229280e-002
2.248687e+003;6.250110e-002
2.250615e+003;6.263898e-002
2.252544e+003;6.237079e-002
2.254473e+003;6.214517e-002
2.256401e+003;6.227980e-002
2.258330e+003;6.223884e-002
2.260258e+003;6.204566e-002
2.262187e+003;6.206137e-002
2.264115e+003;6.186682e-002
2.266044e+003;6.165597e-002
2.267972e+003;6.146957e-002
2.269901e+003;6.135568e-002
2.271830e+003;6.142415e-002
2.273758e+003;6.135064e-002
2.275687e+003;6.121374e-002
2.277615e+003;6.114332e-002
2.279544e+003;6.119043e-002
2.281472e+003;6.122698e-002
2.283401e+003;6.106777e-002
2.285329e+003;6.106418e-002
2.287258e+003;6.121149e-002
2.289187e+003;6.100340e-002
2.291115e+003;6.077894e-002
2.293043e+003;6.082948e-002
2.294972e+003;6.065734e-002
2.296901e+003;6.069888e-002
2.298829e+003;6.095017e-002
2.300758e+003;6.092909e-002
2.302686e+003;6.059841e-002
2.304615e+003;6.058157e-002
2.306543e+003;6.073443e-002
2.308472e+003;6.064656e-002
2.310400e+003;6.056298e-002
2.312329e+003;6.068600e-002
2.314258e+003;6.077837e-002
2.316186e+003;6.049404e-002
2.318115e+003;6.018846e-002
2.320043e+003;6.006547e-002
2.321972e+003;6.012925e-002
2.323900e+003;6.004386e-002
2.325829e+003;5.987493e-002
2.327757e+003;5.994092e-002
2.329686e+003;5.988364e-002
2.331615e+003;5.977777e-002
2.333543e+003;5.970987e-002
2.335472e+003;5.982964e-002
2.337400e+003;5.985112e-002
2.339329e+003;5.991913e-002
2.341257e+003;6.025606e-002
2.343186e+003;6.062199e-002
2.345114e+003;6.081854e-002
2.347043e+003;6.074868e-002
2.348971e+003;6.066298e-002
2.350900e+003;6.079259e-002
2.352829e+003;6.088616e-002
2.354757e+003;6.067552e-002
2.356686e+003;6.037934e-002
2.358614e+003;6.023018e-002
2.360543e+003;6.011445e-002
2.362471e+003;6.025142e-002
2.364400e+003;6.058949e-002
2.366328e+003;6.090111e-002
2.368257e+003;6.101373e-002
2.370186e+003;6.118936e-002
2.372114e+003;6.140922e-002
2.374042e+003;6.192321e-002
2.375971e+003;6.219885e-002
2.377900e+003;6.221999e-002
2.379828e+003;6.239967e-002
2.381757e+003;6.260966e-002
2.383685e+003;6.291962e-002
2.385614e+003;6.322260e-002
2.387542e+003;6.303523e-002
2.389471e+003;6.284919e-002
2.391399e+003;6.269578e-002
2.393328e+003;6.272989e-002
2.395257e+003;6.312737e-002
2.397185e+003;6.344568e-002
2.399114e+003;6.359690e-002
2.401042e+003;6.356890e-002
2.402971e+003;6.338364e-002
2.404899e+003;6.333143e-002
2.406828e+003;6.353032e-002
2.408756e+003;6.375605e-002
2.410685e+003;6.368759e-002
2.412614e+003;6.375509e-002
2.414542e+003;6.394738e-002
2.416471e+003;6.421304e-002
2.418399e+003;6.426168e-002
2.420328e+003;6.422949e-002
2.422256e+003;6.443433e-002
2.424185e+003;6.470875e-002
2.426113e+003;6.489516e-002
2.428042e+003;6.465872e-002
2.429970e+003;6.453615e-002
2.431899e+003;6.476413e-002
2.433828e+003;6.473929e-002
2.435756e+003;6.491759e-002
2.437685e+003;6.514901e-002
2.439613e+003;6.515894e-002
2.441542e+003;6.517091e-002
2.443470e+003;6.531019e-002
2.445399e+003;6.536957e-002
2.447327e+003;6.518181e-002
2.449256e+003;6.517360e-002
2.451185e+003;6.546877e-002
2.453113e+003;6.558828e-002
2.455042e+003;6.526802e-002
2.456970e+003;6.515063e-002
2.458899e+003;6.513761e-002
2.460827e+003;6.499782e-002
2.462756e+003;6.534203e-002
2.464684e+003;6.566367e-002
2.466613e+003;6.559580e-002
2.468542e+003;6.602384e-002
2.470470e+003;6.624817e-002
2.472398e+003;6.609648e-002
2.474327e+003;6.597778e-002
2.476256e+003;6.598496e-002
2.478184e+003;6.645273e-002
2.480113e+003;6.642794e-002
2.482041e+003;6.598724e-002
2.483970e+003;6.606519e-002
2.485898e+003;6.659778e-002
2.487827e+003;6.652351e-002
2.489755e+003;6.649242e-002
2.491684e+003;6.646435e-002
2.493613e+003;6.639771e-002
2.495541e+003;6.633382e-002
2.497470e+003;6.660728e-002
2.499398e+003;6.678384e-002
2.501327e+003;6.698757e-002
2.503255e+003;6.725843e-002
2.505184e+003;6.724353e-002
2.507112e+003;6.691041e-002
2.509041e+003;6.702797e-002
2.510969e+003;6.757579e-002
2.512898e+003;6.780170e-002
2.514827e+003;6.779566e-002
2.516755e+003;6.773806e-002
2.518684e+003;6.793678e-002
2.520612e+003;6.788901e-002
2.522541e+003;6.765830e-002
2.524469e+003;6.783214e-002
2.526398e+003;6.808160e-002
2.528326e+003;6.785178e-002
2.530255e+003;6.785895e-002
2.532184e+003;6.830896e-002
2.534112e+003;6.831843e-002
2.536041e+003;6.824495e-002
2.537969e+003;6.818078e-002
2.539898e+003;6.800296e-002
2.541826e+003;6.828698e-002
2.543755e+003;6.874283e-002
2.545683e+003;6.869067e-002
2.547612e+003;6.827488e-002
2.549541e+003;6.807737e-002
2.551469e+003;6.842578e-002
2.553397e+003;6.874478e-002
2.555326e+003;6.865803e-002
2.557255e+003;6.859408e-002
2.559183e+003;6.857584e-002
2.561112e+003;6.863509e-002
2.563040e+003;6.856831e-002
2.564969e+003;6.841861e-002
2.566897e+003;6.848990e-002
2.568826e+003;6.884715e-002
2.570754e+003;6.918343e-002
2.572683e+003;6.920644e-002
2.574612e+003;6.885235e-002
2.576540e+003;6.856583e-002
2.578469e+003;6.875397e-002
2.580397e+003;6.874090e-002
2.582326e+003;6.869509e-002
2.584254e+003;6.896034e-002
2.586183e+003;6.904797e-002
2.588111e+003;6.910056e-002
2.590040e+003;6.942293e-002
2.591969e+003;6.939113e-002
2.593897e+003;6.915666e-002
2.595826e+003;6.915390e-002
2.597754e+003;6.899207e-002
2.599683e+003;6.876527e-002
2.601611e+003;6.911963e-002
2.603540e+003;6.971114e-002
2.605468e+003;6.995233e-002
2.607397e+003;6.979919e-002
2.609325e+003;6.974215e-002
2.611254e+003;6.997032e-002
2.613183e+003;7.029205e-002
2.615111e+003;7.018080e-002
2.617040e+003;6.998923e-002
2.618968e+003;6.995860e-002
2.620897e+003;6.999835e-002
2.622825e+003;7.043660e-002
2.624754e+003;7.071617e-002
2.626682e+003;7.047798e-002
2.628611e+003;7.028079e-002
2.630540e+003;7.052097e-002
2.632468e+003;7.054642e-002
2.634396e+003;7.037912e-002
2.636325e+003;7.044801e-002
2.638254e+003;7.059168e-002
2.640182e+003;7.073621e-002
2.642111e+003;7.075699e-002
2.644039e+003;7.072903e-002
2.645968e+003;7.082590e-002
2.647896e+003;7.077501e-002
2.649825e+003;7.084471e-002
2.651753e+003;7.122642e-002
2.653682e+003;7.141959e-002
2.655611e+003;7.131938e-002
2.657539e+003;7.123411e-002
2.659468e+003;7.117606e-002
2.661396e+003;7.125894e-002
2.663325e+003;7.142603e-002
2.665253e+003;7.137655e-002
2.667182e+003;7.146970e-002
2.669110e+003;7.160710e-002
2.671039e+003;7.140651e-002
2.672968e+003;7.142267e-002
2.674896e+003;7.166947e-002
2.676825e+003;7.183613e-002
2.678753e+003;7.191390e-002
2.680682e+003;7.208707e-002
2.682610e+003;7.203067e-002
2.684539e+003;7.183887e-002
2.686467e+003;7.210776e-002
2.688396e+003;7.231968e-002
2.690324e+003;7.228039e-002
2.692253e+003;7.249466e-002
2.694182e+003;7.272463e-002
2.696110e+003;7.294555e-002
2.698039e+003;7.289303e-002
2.699967e+003;7.291463e-002
2.701896e+003;7.282884e-002
2.703824e+003;7.300153e-002
2.705753e+003;7.312898e-002
2.707681e+003;7.290754e-002
2.709610e+003;7.308757e-002
2.711539e+003;7.356545e-002
2.713467e+003;7.380773e-002
2.715396e+003;7.398599e-002
2.717324e+003;7.417256e-002
2.719253e+003;7.418892e-002
2.721181e+003;7.422901e-002
2.723110e+003;7.419666e-002
2.725038e+003;7.427615e-002
2.726967e+003;7.446423e-002
2.728896e+003;7.440201e-002
2.730824e+003;7.431405e-002
2.732752e+003;7.435758e-002
2.734681e+003;7.455195e-002
2.736610e+003;7.480048e-002
2.738538e+003;7.492264e-002
2.740467e+003;7.472748e-002
2.742395e+003;7.446423e-002
2.744324e+003;7.455328e-002
2.746252e+003;7.458062e-002
2.748181e+003;7.455946e-002
2.750109e+003;7.463448e-002
2.752038e+003;7.474948e-002
2.753967e+003;7.485276e-002
2.755895e+003;7.499671e-002
2.757824e+003;7.542296e-002
2.759752e+003;7.558563e-002
2.761681e+003;7.529984e-002
2.763609e+003;7.510778e-002
2.765538e+003;7.526902e-002
2.767466e+003;7.531796e-002
2.769395e+003;7.575140e-002
2.771323e+003;7.613355e-002
2.773252e+003;7.618626e-002
2.775181e+003;7.641673e-002
2.777109e+003;7.642696e-002
2.779038e+003;7.626089e-002
2.780966e+003;7.620198e-002
2.782895e+003;7.658613e-002
2.784823e+003;7.703825e-002
2.786752e+003;7.722951e-002
2.788680e+003;7.721487e-002
2.790609e+003;7.730255e-002
2.792538e+003;7.762171e-002
2.794466e+003;7.810298e-002
2.796395e+003;7.829618e-002
2.798323e+003;7.825655e-002
2.800252e+003;7.846771e-002
2.802180e+003;7.860865e-002
2.804109e+003;7.882623e-002
2.806037e+003;7.927325e-002
2.807966e+003;7.991520e-002
2.809895e+003;8.042016e-002
2.811823e+003;8.021262e-002
2.813751e+003;8.019174e-002
2.815680e+003;8.078859e-002
2.817609e+003;8.147748e-002
2.819537e+003;8.175277e-002
2.821466e+003;8.202588e-002
2.823394e+003;8.269247e-002
2.825323e+003;8.320649e-002
2.827251e+003;8.377801e-002
2.829180e+003;8.449367e-002
2.831108e+003;8.523439e-002
2.833037e+003;8.634777e-002
2.834966e+003;8.746903e-002
2.836894e+003;8.866521e-002
2.838823e+003;9.036084e-002
2.840751e+003;9.228326e-002
2.842680e+003;9.506448e-002
2.844608e+003;9.866764e-002
2.846537e+003;1.029851e-001
2.848465e+003;1.073251e-001
2.850394e+003;1.091639e-001
2.852323e+003;1.072770e-001
2.854251e+003;1.040502e-001
2.856180e+003;1.017809e-001
2.858108e+003;1.007029e-001
2.860037e+003;1.004336e-001
2.861965e+003;1.011042e-001
2.863894e+003;1.021287e-001
2.865822e+003;1.028846e-001
2.867751e+003;1.033976e-001
2.869679e+003;1.037255e-001
2.871608e+003;1.045074e-001
2.873536e+003;1.054670e-001
2.875465e+003;1.057732e-001
2.877394e+003;1.056311e-001
2.879322e+003;1.058731e-001
2.881251e+003;1.060331e-001
2.883179e+003;1.063196e-001
2.885108e+003;1.070184e-001
2.887036e+003;1.077181e-001
2.888965e+003;1.081746e-001
2.890893e+003;1.087287e-001
2.892822e+003;1.096936e-001
2.894750e+003;1.105996e-001
2.896679e+003;1.113047e-001
2.898608e+003;1.118254e-001
2.900536e+003;1.122917e-001
2.902465e+003;1.124468e-001
2.904393e+003;1.123721e-001
2.906322e+003;1.127816e-001
2.908250e+003;1.134644e-001
2.910179e+003;1.143434e-001
2.912107e+003;1.160104e-001
2.914036e+003;1.178634e-001
2.915965e+003;1.193194e-001
2.917893e+003;1.196569e-001
2.919822e+003;1.185287e-001
2.921750e+003;1.160226e-001
2.923679e+003;1.125841e-001
2.925607e+003;1.089996e-001
2.927536e+003;1.060257e-001
2.929464e+003;1.034680e-001
2.931393e+003;1.013709e-001
2.933322e+003;9.994432e-002
2.935250e+003;9.866215e-002
2.937178e+003;9.732820e-002
2.939107e+003;9.591052e-002
2.941036e+003;9.493306e-002
2.942964e+003;9.421227e-002
2.944893e+003;9.347332e-002
2.946821e+003;9.267951e-002
2.948750e+003;9.221713e-002
2.950678e+003;9.166992e-002
2.952607e+003;9.107027e-002
2.954535e+003;9.054222e-002
2.956464e+003;8.993536e-002
2.958393e+003;8.927844e-002
2.960321e+003;8.889557e-002
2.962250e+003;8.832053e-002
2.964178e+003;8.725113e-002
2.966107e+003;8.597406e-002
2.968035e+003;8.485454e-002
2.969964e+003;8.405332e-002
2.971892e+003;8.292919e-002
2.973821e+003;8.174517e-002
2.975750e+003;8.049680e-002
2.977678e+003;7.907687e-002
2.979607e+003;7.762770e-002
2.981535e+003;7.648758e-002
2.983464e+003;7.568979e-002
2.985392e+003;7.500116e-002
2.987321e+003;7.447312e-002
2.989249e+003;7.397833e-002
2.991178e+003;7.360274e-002
2.993106e+003;7.341924e-002
2.995035e+003;7.320533e-002
2.996964e+003;7.289974e-002
2.998892e+003;7.274422e-002
3.000821e+003;7.268319e-002
3.002749e+003;7.271414e-002
3.004678e+003;7.263098e-002
3.006606e+003;7.238027e-002
3.008535e+003;7.245058e-002
3.010463e+003;7.294814e-002
3.012392e+003;7.323090e-002
3.014321e+003;7.317862e-002
3.016249e+003;7.321333e-002
3.018177e+003;7.311090e-002
3.020106e+003;7.318847e-002
3.022035e+003;7.377553e-002
3.023963e+003;7.428613e-002
3.025892e+003;7.431141e-002
3.027820e+003;7.440433e-002
3.029749e+003;7.473460e-002
3.031677e+003;7.512550e-002
3.033606e+003;7.499947e-002
3.035534e+003;7.497497e-002
3.037463e+003;7.538249e-002
3.039392e+003;7.521067e-002
3.041320e+003;7.495481e-002
3.043249e+003;7.518759e-002
3.045177e+003;7.518841e-002
3.047106e+003;7.548076e-002
3.049034e+003;7.598066e-002
3.050963e+003;7.626647e-002
3.052891e+003;7.657697e-002
3.054820e+003;7.670200e-002
3.056749e+003;7.682212e-002
3.058677e+003;7.714145e-002
3.060606e+003;7.729404e-002
3.062534e+003;7.761312e-002
3.064463e+003;7.781422e-002
3.066391e+003;7.782663e-002
3.068320e+003;7.803842e-002
3.070248e+003;7.808121e-002
3.072177e+003;7.797465e-002
3.074105e+003;7.790314e-002
3.076034e+003;7.810850e-002
3.077963e+003;7.859285e-002
3.079891e+003;7.871819e-002
3.081820e+003;7.882727e-002
3.083748e+003;7.912847e-002
3.085677e+003;7.990986e-002
3.087605e+003;8.057956e-002
3.089534e+003;8.059947e-002
3.091462e+003;8.007223e-002
3.093391e+003;8.003837e-002
3.095320e+003;8.097620e-002
3.097248e+003;8.137316e-002
3.099177e+003;8.115858e-002
3.101105e+003;8.164059e-002
3.103034e+003;8.215072e-002
3.104962e+003;8.217818e-002
3.106891e+003;8.230524e-002
3.108819e+003;8.256839e-002
3.110748e+003;8.264614e-002
3.112677e+003;8.309245e-002
3.114605e+003;8.367371e-002
3.116533e+003;8.366105e-002
3.118462e+003;8.378147e-002
3.120391e+003;8.446542e-002
3.122319e+003;8.470737e-002
3.124248e+003;8.491099e-002
3.126176e+003;8.552038e-002
3.128105e+003;8.600040e-002
3.130033e+003;8.621076e-002
3.131962e+003;8.628560e-002
3.133890e+003;8.657933e-002
3.135819e+003;8.708133e-002
3.137748e+003;8.721136e-002
3.139676e+003;8.746863e-002
3.141605e+003;8.791567e-002
3.143533e+003;8.855148e-002
3.145462e+003;8.926431e-002
3.147390e+003;8.967088e-002
3.149319e+003;8.993822e-002
3.151247e+003;8.997225e-002
3.153176e+003;9.029638e-002
3.155104e+003;9.076851e-002
3.157033e+003;9.121197e-002
3.158962e+003;9.172283e-002
3.160890e+003;9.220856e-002
3.162819e+003;9.245779e-002
3.164747e+003;9.285029e-002
3.166676e+003;9.378823e-002
3.168604e+003;9.434602e-002
3.170533e+003;9.437769e-002
3.172461e+003;9.450964e-002
3.174390e+003;9.513909e-002
3.176319e+003;9.580830e-002
3.178247e+003;9.620979e-002
3.180176e+003;9.658964e-002
3.182104e+003;9.706544e-002
3.184033e+003;9.743725e-002
3.185961e+003;9.817102e-002
3.187890e+003;9.883443e-002
3.189818e+003;9.910867e-002
3.191747e+003;9.970807e-002
3.193676e+003;1.009684e-001
3.195604e+003;1.016228e-001
3.197532e+003;1.017867e-001
3.199461e+003;1.024172e-001
3.201390e+003;1.027383e-001
3.203318e+003;1.027822e-001
3.205247e+003;1.028735e-001
3.207175e+003;1.034208e-001
3.209104e+003;1.046406e-001
3.211032e+003;1.058114e-001
3.212961e+003;1.066524e-001
3.214889e+003;1.074482e-001
3.216818e+003;1.081521e-001
3.218747e+003;1.081892e-001
3.220675e+003;1.081055e-001
3.222604e+003;1.089259e-001
3.224532e+003;1.100014e-001
3.226461e+003;1.107865e-001
3.228389e+003;1.119134e-001
3.230318e+003;1.131049e-001
3.232246e+003;1.138421e-001
3.234175e+003;1.141952e-001
3.236104e+003;1.145298e-001
3.238032e+003;1.153749e-001
3.239961e+003;1.163672e-001
3.241889e+003;1.174004e-001
3.243818e+003;1.186744e-001
3.245746e+003;1.198451e-001
3.247675e+003;1.209160e-001
3.249603e+003;1.220175e-001
3.251532e+003;1.229763e-001
3.253460e+003;1.237270e-001
3.255389e+003;1.244229e-001
3.257318e+003;1.250900e-001
3.259246e+003;1.259179e-001
3.261175e+003;1.271149e-001
3.263103e+003;1.283686e-001
3.265032e+003;1.291817e-001
3.266960e+003;1.298419e-001
3.268889e+003;1.303476e-001
3.270817e+003;1.306406e-001
3.272746e+003;1.308647e-001
3.274675e+003;1.317799e-001
3.276603e+003;1.324025e-001
3.278531e+003;1.322122e-001
3.280460e+003;1.329170e-001
3.282389e+003;1.331304e-001
3.284317e+003;1.331519e-001
3.286246e+003;1.339717e-001
3.288174e+003;1.341772e-001
3.290103e+003;1.337729e-001
3.292031e+003;1.336271e-001
3.293960e+003;1.336897e-001
3.295888e+003;1.340334e-001
3.297817e+003;1.345134e-001
3.299746e+003;1.346033e-001
3.301674e+003;1.344528e-001
3.303603e+003;1.340617e-001
3.305531e+003;1.342295e-001
3.307460e+003;1.341747e-001
3.309388e+003;1.337966e-001
3.311317e+003;1.335796e-001
3.313245e+003;1.336408e-001
3.315174e+003;1.342487e-001
3.317103e+003;1.351152e-001
3.319031e+003;1.359241e-001
3.320960e+003;1.358795e-001
3.322888e+003;1.361827e-001
3.324817e+003;1.371927e-001
3.326745e+003;1.377537e-001
3.328674e+003;1.379460e-001
3.330602e+003;1.387603e-001
3.332531e+003;1.390058e-001
3.334459e+003;1.382790e-001
3.336388e+003;1.378717e-001
3.338317e+003;1.377099e-001
3.340245e+003;1.371853e-001
3.342174e+003;1.362009e-001
3.344102e+003;1.353602e-001
3.346031e+003;1.345239e-001
3.347959e+003;1.332014e-001
3.349888e+003;1.325046e-001
3.351816e+003;1.316557e-001
3.353745e+003;1.304226e-001
3.355674e+003;1.292537e-001
3.357602e+003;1.281487e-001
3.359531e+003;1.269863e-001
3.361459e+003;1.258132e-001
3.363388e+003;1.250058e-001
3.365316e+003;1.243544e-001
3.367245e+003;1.235057e-001
3.369173e+003;1.229664e-001
3.371102e+003;1.224231e-001
3.373031e+003;1.216829e-001
3.374959e+003;1.206010e-001
3.376887e+003;1.196805e-001
3.378816e+003;1.189098e-001
3.380745e+003;1.185755e-001
3.382673e+003;1.180560e-001
3.384602e+003;1.171872e-001
3.386530e+003;1.166927e-001
3.388459e+003;1.163222e-001
3.390387e+003;1.155801e-001
3.392316e+003;1.148984e-001
3.394244e+003;1.151190e-001
3.396173e+003;1.147658e-001
3.398102e+003;1.140465e-001
3.400030e+003;1.134823e-001
3.401959e+003;1.125361e-001
3.403887e+003;1.116239e-001
3.405816e+003;1.111676e-001
3.407744e+003;1.105901e-001
3.409673e+003;1.098694e-001
3.411601e+003;1.088215e-001
3.413530e+003;1.076129e-001
3.415458e+003;1.063464e-001
3.417387e+003;1.054459e-001
3.419316e+003;1.044382e-001
3.421244e+003;1.028850e-001
3.423173e+003;1.018156e-001
3.425101e+003;1.016959e-001
3.427030e+003;1.013536e-001
3.428958e+003;1.004048e-001
3.430887e+003;9.927525e-002
3.432815e+003;9.860722e-002
3.434744e+003;9.819715e-002
3.436673e+003;9.756383e-002
3.438601e+003;9.678814e-002
3.440530e+003;9.568524e-002
3.442458e+003;9.505747e-002
3.444387e+003;9.491723e-002
3.446315e+003;9.452286e-002
3.448244e+003;9.350406e-002
3.450172e+003;9.198623e-002
3.452101e+003;9.102815e-002
3.454030e+003;9.029993e-002
3.455958e+003;8.961846e-002
3.457886e+003;8.898072e-002
3.459815e+003;8.816365e-002
3.461744e+003;8.767322e-002
3.463672e+003;8.690341e-002
3.465601e+003;8.596445e-002
3.467529e+003;8.599203e-002
3.469458e+003;8.549614e-002
3.471386e+003;8.416242e-002
3.473315e+003;8.318081e-002
3.475243e+003;8.238458e-002
3.477172e+003;8.143443e-002
3.479101e+003;8.095452e-002
3.481029e+003;8.011837e-002
3.482958e+003;7.877892e-002
3.484886e+003;7.795674e-002
3.486815e+003;7.762191e-002
3.488743e+003;7.714390e-002
3.490672e+003;7.651571e-002
3.492600e+003;7.603848e-002
3.494529e+003;7.541264e-002
3.496458e+003;7.439300e-002
3.498386e+003;7.332014e-002
3.500315e+003;7.255222e-002
3.502243e+003;7.233471e-002
3.504172e+003;7.223327e-002
3.506100e+003;7.220017e-002
3.508029e+003;7.172672e-002
3.509957e+003;7.106557e-002
3.511886e+003;7.076503e-002
3.513814e+003;7.000675e-002
3.515743e+003;6.903786e-002
3.517672e+003;6.850822e-002
3.519600e+003;6.807136e-002
3.521529e+003;6.750395e-002
3.523457e+003;6.624879e-002
3.525386e+003;6.598118e-002
3.527314e+003;6.555345e-002
3.529243e+003;6.455494e-002
3.531171e+003;6.428481e-002
3.533100e+003;6.442206e-002
3.535029e+003;6.437384e-002
3.536957e+003;6.369381e-002
3.538885e+003;6.279589e-002
3.540814e+003;6.197687e-002
3.542743e+003;6.110694e-002
3.544671e+003;6.076884e-002
3.546600e+003;6.069019e-002
3.548528e+003;6.034800e-002
3.550457e+003;5.945963e-002
3.552385e+003;5.919123e-002
3.554314e+003;5.926058e-002
3.556242e+003;5.861160e-002
3.558171e+003;5.770527e-002
3.560100e+003;5.702664e-002
3.562028e+003;5.697126e-002
3.563957e+003;5.604191e-002
3.565885e+003;5.394060e-002
3.567814e+003;5.359766e-002
3.569742e+003;5.484113e-002
3.571671e+003;5.534646e-002
3.573599e+003;5.507130e-002
3.575528e+003;5.491982e-002
3.577457e+003;5.458609e-002
3.579385e+003;5.361445e-002
3.581314e+003;5.284446e-002
3.583242e+003;5.220152e-002
3.585171e+003;5.088468e-002
3.587099e+003;5.016369e-002
3.589028e+003;5.091642e-002
3.590956e+003;5.158389e-002
3.592885e+003;5.112447e-002
3.594813e+003;5.106648e-002
3.596742e+003;5.132568e-002
3.598671e+003;5.051231e-002
3.600599e+003;4.955285e-002
3.602528e+003;4.996655e-002
3.604456e+003;5.011434e-002
3.606385e+003;4.888661e-002
3.608313e+003;4.757394e-002
3.610242e+003;4.761102e-002
3.612170e+003;4.700612e-002
3.614099e+003;4.687983e-002
3.616028e+003;4.709644e-002
3.617956e+003;4.658560e-002
3.619885e+003;4.678948e-002
3.621813e+003;4.721093e-002
3.623742e+003;4.693878e-002
3.625670e+003;4.559343e-002
3.627599e+003;4.257283e-002
3.629527e+003;4.278580e-002
3.631456e+003;4.543993e-002
3.633385e+003;4.593579e-002
3.635313e+003;4.583496e-002
3.637241e+003;4.556786e-002
3.639170e+003;4.535797e-002
3.641099e+003;4.553526e-002
3.643027e+003;4.528360e-002
3.644956e+003;4.424843e-002
3.646884e+003;4.189852e-002
3.648813e+003;3.962427e-002
3.650741e+003;4.025608e-002
3.652670e+003;4.213544e-002
3.654598e+003;4.192873e-002
3.656527e+003;4.164101e-002
3.658456e+003;4.245973e-002
3.660384e+003;4.289017e-002
3.662313e+003;4.278683e-002
3.664241e+003;4.191757e-002
3.666170e+003;4.133205e-002
3.668098e+003;3.959069e-002
3.670027e+003;3.763700e-002
3.671955e+003;3.845917e-002
3.673884e+003;3.659980e-002
3.675813e+003;3.521760e-002
3.677741e+003;3.841609e-002
3.679669e+003;4.029501e-002
3.681598e+003;4.104142e-002
3.683527e+003;4.110286e-002
3.685455e+003;3.954587e-002
3.687384e+003;3.589877e-002
3.689312e+003;3.537573e-002
3.691241e+003;3.752656e-002
3.693169e+003;3.924485e-002
3.695098e+003;3.955211e-002
3.697026e+003;3.865807e-002
3.698955e+003;3.807997e-002
3.700884e+003;3.780972e-002
3.702812e+003;3.867383e-002
3.704741e+003;3.941810e-002
3.706669e+003;3.867734e-002
3.708598e+003;3.700660e-002
3.710526e+003;3.567911e-002
3.712455e+003;3.597443e-002
3.714383e+003;3.778084e-002
3.716312e+003;3.829665e-002
3.718240e+003;3.808605e-002
3.720169e+003;3.844335e-002
3.722098e+003;3.788820e-002
3.724026e+003;3.700332e-002
3.725955e+003;3.638187e-002
3.727883e+003;3.673161e-002
3.729812e+003;3.713403e-002
3.731740e+003;3.590104e-002
3.733669e+003;3.454136e-002
3.735597e+003;3.360803e-002
3.737526e+003;3.567127e-002
3.739455e+003;3.753999e-002
3.741383e+003;3.560786e-002
3.743312e+003;3.066310e-002
3.745240e+003;3.173625e-002
3.747169e+003;3.389248e-002
3.749097e+003;3.151349e-002
3.751026e+003;3.127225e-002
3.752954e+003;3.431042e-002
3.754883e+003;3.696923e-002
3.756812e+003;3.680312e-002
3.758740e+003;3.647138e-002
3.760668e+003;3.705041e-002
3.762597e+003;3.791037e-002
3.764526e+003;3.719874e-002
3.766454e+003;3.733258e-002
3.768383e+003;3.734695e-002
3.770311e+003;3.786264e-002
3.772240e+003;3.848723e-002
3.774168e+003;3.873628e-002
3.776097e+003;3.813517e-002
3.778025e+003;3.710696e-002
3.779954e+003;3.714377e-002
3.781883e+003;3.783296e-002
3.783811e+003;3.780321e-002
3.785740e+003;3.771318e-002
3.787668e+003;3.835525e-002
3.789597e+003;3.919045e-002
3.791525e+003;3.864424e-002
3.793454e+003;3.811643e-002
3.795382e+003;3.744893e-002
3.797311e+003;3.773627e-002
3.799240e+003;3.587495e-002
3.801168e+003;3.359027e-002
3.803097e+003;3.604383e-002
3.805025e+003;3.685321e-002
3.806954e+003;3.638832e-002
3.808882e+003;3.804590e-002
3.810811e+003;3.883359e-002
3.812739e+003;3.857970e-002
3.814668e+003;3.572685e-002
3.816596e+003;3.496607e-002
3.818525e+003;3.631497e-002
3.820454e+003;3.477962e-002
3.822382e+003;3.605428e-002
3.824311e+003;3.835774e-002
3.826239e+003;3.833331e-002
3.828168e+003;3.820174e-002
3.830096e+003;3.729921e-002
3.832025e+003;3.756041e-002
3.833953e+003;3.787862e-002
3.835882e+003;3.589251e-002
3.837811e+003;3.423627e-002
3.839739e+003;3.560484e-002
3.841667e+003;3.663004e-002
3.843596e+003;3.742076e-002
3.845525e+003;3.877265e-002
3.847453e+003;3.918512e-002
3.849382e+003;3.724199e-002
3.851310e+003;3.246626e-002
3.853239e+003;2.916514e-002
3.855167e+003;3.388506e-002
3.857096e+003;3.875950e-002
3.859024e+003;3.940994e-002
3.860953e+003;3.857109e-002
3.862882e+003;3.669927e-002
3.864810e+003;3.593210e-002
3.866739e+003;3.693964e-002
3.868667e+003;3.615286e-002
3.870596e+003;3.664208e-002
3.872524e+003;3.814331e-002
3.874453e+003;3.898021e-002
3.876381e+003;3.969705e-002
3.878310e+003;3.872182e-002
3.880239e+003;3.783441e-002
3.882167e+003;3.839672e-002
3.884096e+003;3.772001e-002
3.886024e+003;3.710353e-002
3.887953e+003;3.816245e-002
3.889881e+003;3.792989e-002
3.891810e+003;3.811108e-002
3.893738e+003;3.916300e-002
3.895667e+003;4.010938e-002
3.897595e+003;3.930506e-002
3.899524e+003;3.787208e-002
3.901453e+003;3.723802e-002
3.903381e+003;3.688835e-002
3.905310e+003;3.842608e-002
3.907238e+003;4.064930e-002
3.909167e+003;4.121797e-002
3.911095e+003;4.087564e-002
3.913024e+003;4.014108e-002
3.914952e+003;3.998043e-002
3.916881e+003;3.992798e-002
3.918810e+003;3.950656e-002
3.920738e+003;3.912120e-002
3.922667e+003;3.938273e-002
3.924595e+003;4.021235e-002
3.926524e+003;4.094819e-002
3.928452e+003;4.058868e-002
3.930381e+003;3.946969e-002
3.932309e+003;3.887261e-002
3.934238e+003;3.943493e-002
3.936167e+003;3.994345e-002
3.938095e+003;4.032406e-002
3.940023e+003;4.064832e-002
3.941952e+003;4.034017e-002
3.943881e+003;4.045352e-002
3.945809e+003;4.088852e-002
3.947738e+003;4.071720e-002
3.949666e+003;4.042362e-002
3.951595e+003;4.059949e-002
3.953523e+003;4.118857e-002
3.955452e+003;4.134645e-002
3.957380e+003;4.155645e-002
3.959309e+003;4.203786e-002
3.961238e+003;4.180511e-002
3.963166e+003;4.184510e-002
3.965095e+003;4.160309e-002
3.967023e+003;4.080975e-002
3.968952e+003;4.082507e-002
3.970880e+003;4.155765e-002
3.972809e+003;4.137229e-002
3.974737e+003;4.080061e-002
3.976666e+003;4.128049e-002
3.978594e+003;4.206159e-002
3.980523e+003;4.141387e-002
3.982452e+003;4.039006e-002
3.984380e+003;4.112529e-002
3.986309e+003;4.164251e-002
3.988237e+003;4.180544e-002
3.990166e+003;4.164119e-002
3.992094e+003;4.113418e-002
3.994023e+003;4.100860e-002
3.995951e+003;4.085226e-002
3.997880e+003;4.064271e-002
3.999809e+003;4.047970e-002
4.001737e+003;0.000000e+000
