3.992094e+002;0.000000e+000
4.011380e+002;0.000000e+000
4.030665e+002;0.000000e+000
4.049951e+002;0.000000e+000
4.069236e+002;0.000000e+000
4.088522e+002;0.000000e+000
4.107807e+002;0.000000e+000
4.127093e+002;0.000000e+000
4.146378e+002;0.000000e+000
4.165664e+002;0.000000e+000
4.184949e+002;0.000000e+000
4.204235e+002;0.000000e+000
4.223520e+002;0.000000e+000
4.242806e+002;0.000000e+000
4.262091e+002;0.000000e+000
4.281377e+002;0.000000e+000
4.300662e+002;0.000000e+000
4.319948e+002;0.000000e+000
4.339233e+002;0.000000e+000
4.358519e+002;0.000000e+000
4.377804e+002;0.000000e+000
4.397090e+002;0.000000e+000
4.416375e+002;0.000000e+000
4.435660e+002;0.000000e+000
4.454946e+002;0.000000e+000
4.474232e+002;0.000000e+000
4.493517e+002;0.000000e+000
4.512802e+002;0.000000e+000
4.532088e+002;0.000000e+000
4.551373e+002;0.000000e+000
4.570659e+002;0.000000e+000
4.589944e+002;0.000000e+000
4.609230e+002;0.000000e+000
4.628515e+002;0.000000e+000
4.647801e+002;0.000000e+000
4.667086e+002;0.000000e+000
4.686372e+002;0.000000e+000
4.705657e+002;0.000000e+000
4.724943e+002;0.000000e+000
4.744228e+002;0.000000e+000
4.763513e+002;0.000000e+000
4.782799e+002;0.000000e+000
4.802085e+002;0.000000e+000
4.821370e+002;0.000000e+000
4.840656e+002;0.000000e+000
4.859941e+002;0.000000e+000
4.879226e+002;0.000000e+000
4.898512e+002;0.000000e+000
4.917798e+002;0.000000e+000
4.937083e+002;0.000000e+000
4.956368e+002;0.000000e+000
4.975654e+002;0.000000e+000
4.994939e+002;0.000000e+000
5.014225e+002;0.000000e+000
5.033510e+002;0.000000e+000
5.052796e+002;0.000000e+000
5.072081e+002;0.000000e+000
5.091367e+002;0.000000e+000
5.110652e+002;0.000000e+000
5.129938e+002;0.000000e+000
5.149223e+002;0.000000e+000
5.168509e+002;0.000000e+000
5.187794e+002;0.000000e+000
5.207079e+002;0.000000e+000
5.226365e+002;0.000000e+000
5.245651e+002;0.000000e+000
5.264936e+002;0.000000e+000
5.284222e+002;0.000000e+000
5.303507e+002;0.000000e+000
5.322792e+002;0.000000e+000
5.342078e+002;0.000000e+000
5.361364e+002;0.000000e+000
5.380649e+002;0.000000e+000
5.399935e+002;0.000000e+000
5.419220e+002;0.000000e+000
5.438505e+002;0.000000e+000
5.457791e+002;0.000000e+000
5.477076e+002;0.000000e+000
5.496362e+002;0.000000e+000
5.515648e+002;0.000000e+000
5.534933e+002;0.000000e+000
5.554218e+002;0.000000e+000
5.573504e+002;0.000000e+000
5.592789e+002;0.000000e+000
5.612075e+002;0.000000e+000
5.631360e+002;0.000000e+000
5.650646e+002;0.000000e+000
5.669931e+002;0.000000e+000
5.689217e+002;0.000000e+000
5.708502e+002;0.000000e+000
5.727787e+002;0.000000e+000
5.747073e+002;0.000000e+000
5.766359e+002;0.000000e+000
5.785644e+002;0.000000e+000
5.804930e+002;0.000000e+000
5.824215e+002;0.000000e+000
5.843500e+002;0.000000e+000
5.862786e+002;0.000000e+000
5.882072e+002;0.000000e+000
5.901357e+002;0.000000e+000
5.920643e+002;0.000000e+000
5.939928e+002;0.000000e+000
5.959213e+002;0.000000e+000
5.978499e+002;0.000000e+000
5.997784e+002;2.843530e-001
6.017070e+002;2.859174e-001
6.036355e+002;2.816540e-001
6.055641e+002;2.783353e-001
6.074926e+002;2.838061e-001
6.094211e+002;2.845541e-001
6.113497e+002;2.815034e-001
6.132783e+002;2.802857e-001
6.152068e+002;2.790615e-001
6.171354e+002;2.773956e-001
6.190639e+002;2.763652e-001
6.209924e+002;2.721133e-001
6.229210e+002;2.627088e-001
6.248495e+002;2.592483e-001
6.267781e+002;2.573121e-001
6.287067e+002;2.553612e-001
6.306352e+002;2.516668e-001
6.325637e+002;2.458985e-001
6.344923e+002;2.411095e-001
6.364208e+002;2.380216e-001
6.383494e+002;2.349999e-001
6.402780e+002;2.303727e-001
6.422065e+002;2.281296e-001
6.441350e+002;2.318492e-001
6.460636e+002;2.324216e-001
6.479921e+002;2.284811e-001
6.499207e+002;2.276591e-001
6.518492e+002;2.326312e-001
6.537778e+002;2.382542e-001
6.557063e+002;2.421859e-001
6.576349e+002;2.447479e-001
6.595634e+002;2.525109e-001
6.614919e+002;2.592091e-001
6.634205e+002;2.574552e-001
6.653491e+002;2.534059e-001
6.672776e+002;2.506296e-001
6.692062e+002;2.485521e-001
6.711347e+002;2.429508e-001
6.730632e+002;2.368201e-001
6.749918e+002;2.294277e-001
6.769203e+002;2.222143e-001
6.788489e+002;2.173973e-001
6.807775e+002;2.148489e-001
6.827060e+002;2.127751e-001
6.846345e+002;2.113695e-001
6.865631e+002;2.105147e-001
6.884916e+002;2.102707e-001
6.904202e+002;2.099137e-001
6.923488e+002;2.097741e-001
6.942773e+002;2.108273e-001
6.962058e+002;2.104688e-001
6.981344e+002;2.099390e-001
7.000629e+002;2.088835e-001
7.019915e+002;2.069363e-001
7.039200e+002;2.058750e-001
7.058486e+002;2.053780e-001
7.077771e+002;2.030268e-001
7.097057e+002;1.999877e-001
7.116342e+002;1.967751e-001
7.135627e+002;1.925875e-001
7.154913e+002;1.885544e-001
7.174199e+002;1.854106e-001
7.193484e+002;1.806071e-001
7.212770e+002;1.746043e-001
7.232055e+002;1.689871e-001
7.251340e+002;1.637452e-001
7.270626e+002;1.594316e-001
7.289911e+002;1.574228e-001
7.309197e+002;1.559737e-001
7.328483e+002;1.524001e-001
7.347768e+002;1.483184e-001
7.367053e+002;1.463763e-001
7.386339e+002;1.448089e-001
7.405624e+002;1.424212e-001
7.424910e+002;1.398313e-001
7.444196e+002;1.386925e-001
7.463481e+002;1.377149e-001
7.482766e+002;1.359430e-001
7.502052e+002;1.340350e-001
7.521337e+002;1.323739e-001
7.540623e+002;1.318476e-001
7.559908e+002;1.316993e-001
7.579194e+002;1.302128e-001
7.598479e+002;1.281999e-001
7.617765e+002;1.266862e-001
7.637050e+002;1.258031e-001
7.656335e+002;1.259328e-001
7.675621e+002;1.256489e-001
7.694907e+002;1.247199e-001
7.714192e+002;1.240234e-001
7.733478e+002;1.240384e-001
7.752763e+002;1.242857e-001
7.772048e+002;1.247863e-001
7.791334e+002;1.255841e-001
7.810620e+002;1.273832e-001
7.829905e+002;1.300218e-001
7.849191e+002;1.329616e-001
7.868476e+002;1.364058e-001
7.887761e+002;1.402218e-001
7.907047e+002;1.435436e-001
7.926332e+002;1.462757e-001
7.945618e+002;1.494105e-001
7.964903e+002;1.528368e-001
7.984189e+002;1.553949e-001
8.003474e+002;1.570005e-001
8.022759e+002;1.576067e-001
8.042045e+002;1.580517e-001
8.061331e+002;1.577760e-001
8.080616e+002;1.567688e-001
8.099902e+002;1.551531e-001
8.119187e+002;1.531806e-001
8.138472e+002;1.519686e-001
8.157758e+002;1.501599e-001
8.177043e+002;1.490189e-001
8.196329e+002;1.488002e-001
8.215615e+002;1.474728e-001
8.234900e+002;1.445646e-001
8.254185e+002;1.409515e-001
8.273471e+002;1.368416e-001
8.292756e+002;1.326485e-001
8.312042e+002;1.288574e-001
8.331328e+002;1.255091e-001
8.350613e+002;1.232795e-001
8.369898e+002;1.223487e-001
8.389184e+002;1.218669e-001
8.408469e+002;1.211315e-001
8.427755e+002;1.208334e-001
8.447040e+002;1.208955e-001
8.466326e+002;1.208616e-001
8.485611e+002;1.206849e-001
8.504897e+002;1.210761e-001
8.524182e+002;1.223027e-001
8.543467e+002;1.231572e-001
8.562753e+002;1.240501e-001
8.582039e+002;1.252902e-001
8.601324e+002;1.267059e-001
8.620610e+002;1.281947e-001
8.639895e+002;1.296880e-001
8.659180e+002;1.306219e-001
8.678466e+002;1.312427e-001
8.697751e+002;1.325931e-001
8.717037e+002;1.347428e-001
8.736323e+002;1.368666e-001
8.755608e+002;1.384549e-001
8.774893e+002;1.398339e-001
8.794179e+002;1.414037e-001
8.813464e+002;1.431233e-001
8.832750e+002;1.446320e-001
8.852036e+002;1.462673e-001
8.871321e+002;1.488827e-001
8.890606e+002;1.516704e-001
8.909892e+002;1.537429e-001
8.929177e+002;1.553184e-001
8.948463e+002;1.563818e-001
8.967748e+002;1.572508e-001
8.987034e+002;1.577428e-001
9.006319e+002;1.576477e-001
9.025605e+002;1.568280e-001
9.044890e+002;1.555233e-001
9.064175e+002;1.539290e-001
9.083461e+002;1.524029e-001
9.102747e+002;1.513076e-001
9.122032e+002;1.504104e-001
9.141318e+002;1.494277e-001
9.160603e+002;1.483503e-001
9.179888e+002;1.482946e-001
9.199174e+002;1.488061e-001
9.218459e+002;1.492112e-001
9.237745e+002;1.500549e-001
9.257031e+002;1.516653e-001
9.276316e+002;1.535463e-001
9.295601e+002;1.552739e-001
9.314887e+002;1.568005e-001
9.334172e+002;1.586998e-001
9.353458e+002;1.606267e-001
9.372744e+002;1.621814e-001
9.392029e+002;1.640672e-001
9.411314e+002;1.660687e-001
9.430600e+002;1.683524e-001
9.449885e+002;1.714212e-001
9.469171e+002;1.750908e-001
9.488456e+002;1.791836e-001
9.507742e+002;1.828648e-001
9.527027e+002;1.869196e-001
9.546313e+002;1.918273e-001
9.565598e+002;1.972341e-001
9.584883e+002;2.025493e-001
9.604169e+002;2.077474e-001
9.623455e+002;2.139926e-001
9.642740e+002;2.207340e-001
9.662026e+002;2.279250e-001
9.681311e+002;2.363106e-001
9.700596e+002;2.456049e-001
9.719882e+002;2.564415e-001
9.739167e+002;2.696551e-001
9.758453e+002;2.853585e-001
9.777739e+002;3.020782e-001
9.797024e+002;3.186716e-001
9.816309e+002;3.323895e-001
9.835595e+002;3.403502e-001
9.854880e+002;3.428029e-001
9.874166e+002;3.425936e-001
9.893452e+002;3.441259e-001
9.912737e+002;3.488077e-001
9.932022e+002;3.557374e-001
9.951307e+002;3.642047e-001
9.970593e+002;3.726127e-001
9.989879e+002;3.791143e-001
1.000916e+003;3.830987e-001
1.002845e+003;3.847028e-001
1.004773e+003;3.856060e-001
1.006702e+003;3.870305e-001
1.008631e+003;3.887824e-001
1.010559e+003;3.911743e-001
1.012488e+003;3.937906e-001
1.014416e+003;3.969663e-001
1.016345e+003;4.004240e-001
1.018273e+003;4.034320e-001
1.020202e+003;4.071756e-001
1.022130e+003;4.119457e-001
1.024059e+003;4.165424e-001
1.025988e+003;4.212187e-001
1.027916e+003;4.244724e-001
1.029845e+003;4.250246e-001
1.031773e+003;4.220860e-001
1.033702e+003;4.162309e-001
1.035630e+003;4.071895e-001
1.037559e+003;3.962844e-001
1.039487e+003;3.877528e-001
1.041416e+003;3.831807e-001
1.043344e+003;3.826346e-001
1.045273e+003;3.866127e-001
1.047202e+003;3.927602e-001
1.049130e+003;3.988930e-001
1.051059e+003;4.045235e-001
1.052987e+003;4.073982e-001
1.054916e+003;4.055680e-001
1.056844e+003;3.991108e-001
1.058773e+003;3.871921e-001
1.060701e+003;3.700398e-001
1.062630e+003;3.486272e-001
1.064558e+003;3.269301e-001
1.066487e+003;3.088507e-001
1.068416e+003;2.943516e-001
1.070344e+003;2.833133e-001
1.072273e+003;2.760357e-001
1.074201e+003;2.706237e-001
1.076130e+003;2.661531e-001
1.078058e+003;2.620402e-001
1.079987e+003;2.582535e-001
1.081915e+003;2.560211e-001
1.083844e+003;2.551703e-001
1.085773e+003;2.550246e-001
1.087701e+003;2.556415e-001
1.089630e+003;2.570368e-001
1.091558e+003;2.597013e-001
1.093487e+003;2.635360e-001
1.095415e+003;2.678314e-001
1.097344e+003;2.718304e-001
1.099272e+003;2.755277e-001
1.101201e+003;2.782644e-001
1.103129e+003;2.785203e-001
1.105058e+003;2.765235e-001
1.106987e+003;2.736948e-001
1.108915e+003;2.703871e-001
1.110844e+003;2.649006e-001
1.112772e+003;2.557115e-001
1.114701e+003;2.432928e-001
1.116629e+003;2.292146e-001
1.118558e+003;2.161449e-001
1.120486e+003;2.061130e-001
1.122415e+003;1.980366e-001
1.124344e+003;1.899792e-001
1.126272e+003;1.810425e-001
1.128201e+003;1.726108e-001
1.130129e+003;1.657972e-001
1.132058e+003;1.606914e-001
1.133986e+003;1.568254e-001
1.135915e+003;1.538477e-001
1.137843e+003;1.522361e-001
1.139772e+003;1.524054e-001
1.141700e+003;1.546022e-001
1.143629e+003;1.580436e-001
1.145557e+003;1.610532e-001
1.147486e+003;1.633361e-001
1.149415e+003;1.651847e-001
1.151343e+003;1.673122e-001
1.153272e+003;1.697315e-001
1.155200e+003;1.720091e-001
1.157129e+003;1.738624e-001
1.159057e+003;1.750384e-001
1.160986e+003;1.744342e-001
1.162914e+003;1.711732e-001
1.164843e+003;1.648941e-001
1.166771e+003;1.562683e-001
1.168700e+003;1.472278e-001
1.170629e+003;1.385687e-001
1.172557e+003;1.309049e-001
1.174486e+003;1.252339e-001
1.176414e+003;1.208973e-001
1.178343e+003;1.171576e-001
1.180271e+003;1.142322e-001
1.182200e+003;1.125694e-001
1.184128e+003;1.116761e-001
1.186057e+003;1.111222e-001
1.187986e+003;1.114475e-001
1.189914e+003;1.123513e-001
1.191843e+003;1.135942e-001
1.193771e+003;1.159164e-001
1.195700e+003;1.184379e-001
1.197628e+003;1.207086e-001
1.199557e+003;1.225302e-001
1.201485e+003;1.238284e-001
1.203414e+003;1.246326e-001
1.205343e+003;1.244732e-001
1.207271e+003;1.227286e-001
1.209200e+003;1.187669e-001
1.211128e+003;1.138561e-001
1.213057e+003;1.103005e-001
1.214985e+003;1.088424e-001
1.216914e+003;1.087089e-001
1.218842e+003;1.092597e-001
1.220771e+003;1.107133e-001
1.222699e+003;1.127318e-001
1.224628e+003;1.145785e-001
1.226557e+003;1.164297e-001
1.228485e+003;1.188398e-001
1.230414e+003;1.212630e-001
1.232342e+003;1.233179e-001
1.234271e+003;1.247897e-001
1.236199e+003;1.254134e-001
1.238128e+003;1.257903e-001
1.240056e+003;1.268704e-001
1.241985e+003;1.282290e-001
1.243913e+003;1.300679e-001
1.245842e+003;1.323858e-001
1.247771e+003;1.342350e-001
1.249699e+003;1.355979e-001
1.251628e+003;1.378447e-001
1.253556e+003;1.412752e-001
1.255485e+003;1.456114e-001
1.257413e+003;1.503433e-001
1.259342e+003;1.540489e-001
1.261270e+003;1.554953e-001
1.263199e+003;1.541081e-001
1.265127e+003;1.499286e-001
1.267056e+003;1.441496e-001
1.268985e+003;1.389221e-001
1.270913e+003;1.360304e-001
1.272842e+003;1.352181e-001
1.274770e+003;1.351646e-001
1.276699e+003;1.351083e-001
1.278627e+003;1.347009e-001
1.280556e+003;1.338789e-001
1.282484e+003;1.322696e-001
1.284413e+003;1.305459e-001
1.286342e+003;1.297180e-001
1.288270e+003;1.295561e-001
1.290199e+003;1.295062e-001
1.292127e+003;1.293830e-001
1.294056e+003;1.295644e-001
1.295984e+003;1.304429e-001
1.297913e+003;1.321517e-001
1.299841e+003;1.348625e-001
1.301770e+003;1.386951e-001
1.303698e+003;1.431000e-001
1.305627e+003;1.477946e-001
1.307556e+003;1.530544e-001
1.309484e+003;1.586601e-001
1.311413e+003;1.632473e-001
1.313341e+003;1.657660e-001
1.315270e+003;1.655895e-001
1.317198e+003;1.628138e-001
1.319127e+003;1.584410e-001
1.321055e+003;1.534625e-001
1.322984e+003;1.492861e-001
1.324912e+003;1.464478e-001
1.326841e+003;1.451559e-001
1.328770e+003;1.454208e-001
1.330698e+003;1.470968e-001
1.332627e+003;1.494242e-001
1.334555e+003;1.508383e-001
1.336484e+003;1.501135e-001
1.338412e+003;1.479973e-001
1.340341e+003;1.454461e-001
1.342269e+003;1.420733e-001
1.344198e+003;1.381595e-001
1.346126e+003;1.348008e-001
1.348055e+003;1.325821e-001
1.349984e+003;1.318701e-001
1.351912e+003;1.323775e-001
1.353841e+003;1.333721e-001
1.355769e+003;1.345256e-001
1.357698e+003;1.356120e-001
1.359626e+003;1.363762e-001
1.361555e+003;1.360543e-001
1.363483e+003;1.344636e-001
1.365412e+003;1.332300e-001
1.367341e+003;1.330996e-001
1.369269e+003;1.329321e-001
1.371198e+003;1.315809e-001
1.373126e+003;1.286341e-001
1.375055e+003;1.249537e-001
1.376983e+003;1.214395e-001
1.378912e+003;1.179657e-001
1.380840e+003;1.149400e-001
1.382769e+003;1.123079e-001
1.384698e+003;1.097102e-001
1.386626e+003;1.073192e-001
1.388555e+003;1.061743e-001
1.390483e+003;1.059729e-001
1.392412e+003;1.059932e-001
1.394340e+003;1.060490e-001
1.396269e+003;1.063994e-001
1.398197e+003;1.069171e-001
1.400126e+003;1.075889e-001
1.402054e+003;1.082477e-001
1.403983e+003;1.086724e-001
1.405911e+003;1.090647e-001
1.407840e+003;1.095871e-001
1.409769e+003;1.099593e-001
1.411697e+003;1.107159e-001
1.413626e+003;1.118036e-001
1.415554e+003;1.128289e-001
1.417483e+003;1.139643e-001
1.419411e+003;1.158670e-001
1.421340e+003;1.186574e-001
1.423268e+003;1.207614e-001
1.425197e+003;1.222747e-001
1.427125e+003;1.232668e-001
1.429054e+003;1.228880e-001
1.430983e+003;1.216137e-001
1.432911e+003;1.198263e-001
1.434840e+003;1.171841e-001
1.436768e+003;1.146643e-001
1.438697e+003;1.138309e-001
1.440625e+003;1.133008e-001
1.442554e+003;1.127797e-001
1.444482e+003;1.126882e-001
1.446411e+003;1.128537e-001
1.448340e+003;1.128311e-001
1.450268e+003;1.124989e-001
1.452197e+003;1.121068e-001
1.454125e+003;1.110586e-001
1.456054e+003;1.086376e-001
1.457982e+003;1.072601e-001
1.459911e+003;1.071492e-001
1.461839e+003;1.063515e-001
1.463768e+003;1.033438e-001
1.465697e+003;1.000117e-001
1.467625e+003;9.802201e-002
1.469554e+003;9.664006e-002
1.471482e+003;9.593432e-002
1.473411e+003;9.504142e-002
1.475339e+003;9.247574e-002
1.477268e+003;9.000804e-002
1.479196e+003;8.889907e-002
1.481125e+003;8.790901e-002
1.483053e+003;8.627032e-002
1.484982e+003;8.375133e-002
1.486911e+003;8.105478e-002
1.488839e+003;7.876847e-002
1.490768e+003;7.749222e-002
1.492696e+003;7.692020e-002
1.494625e+003;7.592813e-002
1.496553e+003;7.482166e-002
1.498482e+003;7.439478e-002
1.500410e+003;7.424065e-002
1.502339e+003;7.421242e-002
1.504267e+003;7.326137e-002
1.506196e+003;7.184606e-002
1.508125e+003;7.216101e-002
1.510053e+003;7.277054e-002
1.511982e+003;7.252935e-002
1.513910e+003;7.224716e-002
1.515839e+003;7.176600e-002
1.517767e+003;7.130989e-002
1.519696e+003;7.056314e-002
1.521624e+003;6.985324e-002
1.523553e+003;7.025976e-002
1.525481e+003;7.059183e-002
1.527410e+003;7.104009e-002
1.529339e+003;7.157084e-002
1.531267e+003;7.168052e-002
1.533196e+003;7.168233e-002
1.535124e+003;7.237092e-002
1.537053e+003;7.216351e-002
1.538981e+003;7.078995e-002
1.540910e+003;7.109055e-002
1.542838e+003;7.229421e-002
1.544767e+003;7.287579e-002
1.546695e+003;7.335493e-002
1.548624e+003;7.343081e-002
1.550553e+003;7.352675e-002
1.552481e+003;7.333782e-002
1.554410e+003;7.285447e-002
1.556338e+003;7.243398e-002
1.558267e+003;7.137089e-002
1.560195e+003;7.198065e-002
1.562124e+003;7.355109e-002
1.564052e+003;7.393244e-002
1.565981e+003;7.392871e-002
1.567910e+003;7.369645e-002
1.569838e+003;7.355847e-002
1.571767e+003;7.410477e-002
1.573695e+003;7.400555e-002
1.575624e+003;7.330821e-002
1.577552e+003;7.389995e-002
1.579481e+003;7.464959e-002
1.581409e+003;7.497422e-002
1.583338e+003;7.548596e-002
1.585266e+003;7.556549e-002
1.587195e+003;7.551884e-002
1.589124e+003;7.562901e-002
1.591052e+003;7.612648e-002
1.592981e+003;7.633413e-002
1.594909e+003;7.615720e-002
1.596838e+003;7.630735e-002
1.598766e+003;7.666108e-002
1.600695e+003;7.696925e-002
1.602623e+003;7.720655e-002
1.604552e+003;7.723925e-002
1.606480e+003;7.730892e-002
1.608409e+003;7.766324e-002
1.610338e+003;7.784986e-002
1.612266e+003;7.787554e-002
1.614195e+003;7.754847e-002
1.616123e+003;7.679788e-002
1.618052e+003;7.742102e-002
1.619980e+003;7.860453e-002
1.621909e+003;7.867728e-002
1.623837e+003;7.850050e-002
1.625766e+003;7.865421e-002
1.627694e+003;7.874984e-002
1.629623e+003;7.913300e-002
1.631552e+003;7.941648e-002
1.633480e+003;7.876760e-002
1.635409e+003;7.778350e-002
1.637337e+003;7.817930e-002
1.639266e+003;7.879235e-002
1.641194e+003;7.882441e-002
1.643123e+003;7.851209e-002
1.645051e+003;7.760531e-002
1.646980e+003;7.729249e-002
1.648909e+003;7.796280e-002
1.650837e+003;7.697187e-002
1.652766e+003;7.502853e-002
1.654694e+003;7.606931e-002
1.656623e+003;7.752557e-002
1.658551e+003;7.744782e-002
1.660480e+003;7.697760e-002
1.662408e+003;7.636581e-002
1.664337e+003;7.597335e-002
1.666266e+003;7.570376e-002
1.668194e+003;7.514118e-002
1.670123e+003;7.460510e-002
1.672051e+003;7.433056e-002
1.673980e+003;7.353555e-002
1.675908e+003;7.287998e-002
1.677837e+003;7.287846e-002
1.679765e+003;7.209618e-002
1.681694e+003;7.063585e-002
1.683622e+003;6.876577e-002
1.685551e+003;6.859838e-002
1.687479e+003;6.928093e-002
1.689408e+003;6.889284e-002
1.691337e+003;6.838063e-002
1.693265e+003;6.770701e-002
1.695194e+003;6.647817e-002
1.697122e+003;6.624481e-002
1.699051e+003;6.567338e-002
1.700979e+003;6.551985e-002
1.702908e+003;6.651165e-002
1.704836e+003;6.641006e-002
1.706765e+003;6.644107e-002
1.708693e+003;6.689901e-002
1.710622e+003;6.748572e-002
1.712551e+003;6.777501e-002
1.714479e+003;6.780948e-002
1.716408e+003;6.772672e-002
1.718336e+003;6.877471e-002
1.720265e+003;7.085711e-002
1.722193e+003;7.256930e-002
1.724122e+003;7.404751e-002
1.726050e+003;7.537622e-002
1.727979e+003;7.617532e-002
1.729908e+003;7.672900e-002
1.731836e+003;7.631683e-002
1.733765e+003;7.504117e-002
1.735693e+003;7.488292e-002
1.737622e+003;7.420865e-002
1.739550e+003;7.197204e-002
1.741479e+003;6.935874e-002
1.743407e+003;6.659292e-002
1.745336e+003;6.403331e-002
1.747265e+003;6.203637e-002
1.749193e+003;6.050923e-002
1.751122e+003;5.936887e-002
1.753050e+003;5.904260e-002
1.754979e+003;5.882765e-002
1.756907e+003;5.858316e-002
1.758836e+003;5.862904e-002
1.760764e+003;5.839921e-002
1.762693e+003;5.824160e-002
1.764621e+003;5.845023e-002
1.766550e+003;5.814784e-002
1.768479e+003;5.773839e-002
1.770407e+003;5.732977e-002
1.772336e+003;5.709065e-002
1.774264e+003;5.744378e-002
1.776193e+003;5.764488e-002
1.778121e+003;5.756263e-002
1.780050e+003;5.743531e-002
1.781978e+003;5.735783e-002
1.783907e+003;5.723140e-002
1.785835e+003;5.717750e-002
1.787764e+003;5.710910e-002
1.789693e+003;5.669998e-002
1.791621e+003;5.613319e-002
1.793550e+003;5.615661e-002
1.795478e+003;5.632878e-002
1.797407e+003;5.619515e-002
1.799335e+003;5.617968e-002
1.801264e+003;5.612855e-002
1.803192e+003;5.629343e-002
1.805121e+003;5.622762e-002
1.807049e+003;5.596200e-002
1.808978e+003;5.586651e-002
1.810907e+003;5.566800e-002
1.812835e+003;5.545957e-002
1.814764e+003;5.545570e-002
1.816692e+003;5.545769e-002
1.818621e+003;5.537796e-002
1.820549e+003;5.518671e-002
1.822478e+003;5.511937e-002
1.824406e+003;5.491249e-002
1.826335e+003;5.488508e-002
1.828264e+003;5.467781e-002
1.830192e+003;5.434011e-002
1.832121e+003;5.455562e-002
1.834049e+003;5.480609e-002
1.835978e+003;5.466876e-002
1.837906e+003;5.446130e-002
1.839835e+003;5.432261e-002
1.841763e+003;5.408394e-002
1.843692e+003;5.355706e-002
1.845620e+003;5.356475e-002
1.847549e+003;5.375921e-002
1.849478e+003;5.376237e-002
1.851406e+003;5.370004e-002
1.853335e+003;5.383047e-002
1.855263e+003;5.382533e-002
1.857192e+003;5.374504e-002
1.859120e+003;5.384135e-002
1.861049e+003;5.377901e-002
1.862977e+003;5.355485e-002
1.864906e+003;5.346370e-002
1.866834e+003;5.343320e-002
1.868763e+003;5.325595e-002
1.870692e+003;5.320464e-002
1.872620e+003;5.328041e-002
1.874549e+003;5.330027e-002
1.876477e+003;5.324861e-002
1.878406e+003;5.328996e-002
1.880334e+003;5.338898e-002
1.882263e+003;5.344684e-002
1.884191e+003;5.350995e-002
1.886120e+003;5.324741e-002
1.888048e+003;5.289382e-002
1.889977e+003;5.292578e-002
1.891906e+003;5.336991e-002
1.893834e+003;5.339082e-002
1.895763e+003;5.314086e-002
1.897691e+003;5.300215e-002
1.899620e+003;5.318498e-002
1.901548e+003;5.327434e-002
1.903477e+003;5.320775e-002
1.905405e+003;5.323472e-002
1.907334e+003;5.338258e-002
1.909262e+003;5.331840e-002
1.911191e+003;5.347895e-002
1.913120e+003;5.362757e-002
1.915048e+003;5.366844e-002
1.916977e+003;5.373604e-002
1.918905e+003;5.372494e-002
1.920834e+003;5.369974e-002
1.922762e+003;5.361899e-002
1.924691e+003;5.367912e-002
1.926619e+003;5.369817e-002
1.928548e+003;5.392005e-002
1.930477e+003;5.411696e-002
1.932405e+003;5.404960e-002
1.934334e+003;5.416564e-002
1.936262e+003;5.438066e-002
1.938191e+003;5.442272e-002
1.940119e+003;5.439313e-002
1.942048e+003;5.444428e-002
1.943976e+003;5.478170e-002
1.945905e+003;5.512178e-002
1.947833e+003;5.535052e-002
1.949762e+003;5.536528e-002
1.951691e+003;5.526788e-002
1.953619e+003;5.545513e-002
1.955548e+003;5.563294e-002
1.957476e+003;5.570880e-002
1.959405e+003;5.591651e-002
1.961333e+003;5.584390e-002
1.963262e+003;5.563173e-002
1.965190e+003;5.557694e-002
1.967119e+003;5.559128e-002
1.969047e+003;5.565297e-002
1.970976e+003;5.579277e-002
1.972905e+003;5.591655e-002
1.974833e+003;5.593600e-002
1.976762e+003;5.600754e-002
1.978690e+003;5.603441e-002
1.980619e+003;5.616536e-002
1.982547e+003;5.627533e-002
1.984476e+003;5.635100e-002
1.986404e+003;5.639182e-002
1.988333e+003;5.660330e-002
1.990261e+003;5.694912e-002
1.992190e+003;5.698792e-002
1.994119e+003;5.703919e-002
1.996047e+003;5.717263e-002
1.997976e+003;5.729098e-002
1.999904e+003;5.736202e-002
2.001833e+003;5.733227e-002
2.003761e+003;5.738033e-002
2.005690e+003;5.769827e-002
2.007618e+003;5.788324e-002
2.009547e+003;5.770758e-002
2.011476e+003;5.759899e-002
2.013404e+003;5.771099e-002
2.015333e+003;5.804523e-002
2.017261e+003;5.824062e-002
2.019190e+003;5.822368e-002
2.021118e+003;5.831496e-002
2.023047e+003;5.860375e-002
2.024975e+003;5.880087e-002
2.026904e+003;5.886370e-002
2.028833e+003;5.887542e-002
2.030761e+003;5.889291e-002
2.032690e+003;5.908337e-002
2.034618e+003;5.929958e-002
2.036547e+003;5.948703e-002
2.038475e+003;5.960708e-002
2.040404e+003;5.961297e-002
2.042332e+003;5.971135e-002
2.044261e+003;5.985671e-002
2.046189e+003;6.006886e-002
2.048118e+003;6.008850e-002
2.050047e+003;5.969435e-002
2.051975e+003;5.947285e-002
2.053904e+003;5.969569e-002
2.055832e+003;5.990844e-002
2.057761e+003;5.988961e-002
2.059689e+003;5.986109e-002
2.061618e+003;5.982785e-002
2.063546e+003;5.990167e-002
2.065475e+003;5.984808e-002
2.067404e+003;5.976135e-002
2.069332e+003;5.976667e-002
2.071260e+003;5.967619e-002
2.073189e+003;5.962597e-002
2.075118e+003;5.965330e-002
2.077046e+003;5.973503e-002
2.078975e+003;5.979758e-002
2.080903e+003;5.972629e-002
2.082832e+003;5.966045e-002
2.084760e+003;5.953225e-002
2.086689e+003;5.927156e-002
2.088617e+003;5.944071e-002
2.090546e+003;5.941522e-002
2.092475e+003;5.959263e-002
2.094403e+003;5.992594e-002
2.096332e+003;5.991859e-002
2.098260e+003;5.956489e-002
2.100189e+003;5.925412e-002
2.102117e+003;5.937821e-002
2.104046e+003;5.956025e-002
2.105974e+003;5.961537e-002
2.107903e+003;5.978990e-002
2.109832e+003;6.013070e-002
2.111760e+003;6.028317e-002
2.113688e+003;6.026113e-002
2.115617e+003;6.015521e-002
2.117546e+003;6.022112e-002
2.119474e+003;6.041646e-002
2.121403e+003;6.053087e-002
2.123331e+003;6.048654e-002
2.125260e+003;6.062134e-002
2.127188e+003;6.081881e-002
2.129117e+003;6.102270e-002
2.131045e+003;6.116511e-002
2.132974e+003;6.120135e-002
2.134903e+003;6.094140e-002
2.136831e+003;6.064942e-002
2.138760e+003;6.066173e-002
2.140688e+003;6.095238e-002
2.142617e+003;6.099703e-002
2.144545e+003;6.070078e-002
2.146474e+003;6.046231e-002
2.148402e+003;6.050897e-002
2.150331e+003;6.037107e-002
2.152260e+003;6.025336e-002
2.154188e+003;6.030041e-002
2.156117e+003;6.024735e-002
2.158045e+003;6.002960e-002
2.159974e+003;5.970078e-002
2.161902e+003;5.955090e-002
2.163831e+003;5.949713e-002
2.165759e+003;5.953905e-002
2.167688e+003;5.947031e-002
2.169616e+003;5.923639e-002
2.171545e+003;5.877075e-002
2.173474e+003;5.851369e-002
2.175402e+003;5.849648e-002
2.177331e+003;5.832179e-002
2.179259e+003;5.810538e-002
2.181188e+003;5.781719e-002
2.183116e+003;5.754398e-002
2.185045e+003;5.748300e-002
2.186973e+003;5.741005e-002
2.188902e+003;5.719179e-002
2.190831e+003;5.723352e-002
2.192759e+003;5.739560e-002
2.194688e+003;5.729106e-002
2.196616e+003;5.745282e-002
2.198545e+003;5.764677e-002
2.200473e+003;5.764344e-002
2.202402e+003;5.748758e-002
2.204330e+003;5.719360e-002
2.206259e+003;5.705317e-002
2.208188e+003;5.708906e-002
2.210116e+003;5.707539e-002
2.212044e+003;5.704931e-002
2.213973e+003;5.696846e-002
2.215902e+003;5.693008e-002
2.217830e+003;5.723356e-002
2.219759e+003;5.729835e-002
2.221687e+003;5.711007e-002
2.223616e+003;5.726943e-002
2.225544e+003;5.759634e-002
2.227473e+003;5.781192e-002
2.229401e+003;5.772321e-002
2.231330e+003;5.754689e-002
2.233259e+003;5.754719e-002
2.235187e+003;5.758192e-002
2.237116e+003;5.761775e-002
2.239044e+003;5.743773e-002
2.240973e+003;5.713585e-002
2.242901e+003;5.710826e-002
2.244830e+003;5.717754e-002
2.246758e+003;5.703159e-002
2.248687e+003;5.702778e-002
2.250615e+003;5.731972e-002
2.252544e+003;5.727363e-002
2.254473e+003;5.700443e-002
2.256401e+003;5.700613e-002
2.258330e+003;5.704028e-002
2.260258e+003;5.687308e-002
2.262187e+003;5.665143e-002
2.264115e+003;5.651049e-002
2.266044e+003;5.647762e-002
2.267972e+003;5.637012e-002
2.269901e+003;5.635771e-002
2.271830e+003;5.627838e-002
2.273758e+003;5.605330e-002
2.275687e+003;5.584450e-002
2.277615e+003;5.586658e-002
2.279544e+003;5.587419e-002
2.281472e+003;5.564838e-002
2.283401e+003;5.575027e-002
2.285329e+003;5.616875e-002
2.287258e+003;5.623165e-002
2.289187e+003;5.598628e-002
2.291115e+003;5.569071e-002
2.293043e+003;5.553371e-002
2.294972e+003;5.545404e-002
2.296901e+003;5.521930e-002
2.298829e+003;5.510666e-002
2.300758e+003;5.510703e-002
2.302686e+003;5.497183e-002
2.304615e+003;5.500127e-002
2.306543e+003;5.514695e-002
2.308472e+003;5.506608e-002
2.310400e+003;5.520229e-002
2.312329e+003;5.543676e-002
2.314258e+003;5.542219e-002
2.316186e+003;5.512197e-002
2.318115e+003;5.509079e-002
2.320043e+003;5.507548e-002
2.321972e+003;5.505720e-002
2.323900e+003;5.543077e-002
2.325829e+003;5.564570e-002
2.327757e+003;5.554711e-002
2.329686e+003;5.533283e-002
2.331615e+003;5.529177e-002
2.333543e+003;5.531936e-002
2.335472e+003;5.538846e-002
2.337400e+003;5.555408e-002
2.339329e+003;5.560051e-002
2.341257e+003;5.565067e-002
2.343186e+003;5.567851e-002
2.345114e+003;5.585999e-002
2.347043e+003;5.635794e-002
2.348971e+003;5.687240e-002
2.350900e+003;5.703133e-002
2.352829e+003;5.688256e-002
2.354757e+003;5.670319e-002
2.356686e+003;5.668714e-002
2.358614e+003;5.654925e-002
2.360543e+003;5.652283e-002
2.362471e+003;5.666566e-002
2.364400e+003;5.696729e-002
2.366328e+003;5.718389e-002
2.368257e+003;5.730841e-002
2.370186e+003;5.736887e-002
2.372114e+003;5.726622e-002
2.374042e+003;5.767136e-002
2.375971e+003;5.824713e-002
2.377900e+003;5.819315e-002
2.379828e+003;5.826343e-002
2.381757e+003;5.852469e-002
2.383685e+003;5.853618e-002
2.385614e+003;5.849394e-002
2.387542e+003;5.847658e-002
2.389471e+003;5.846323e-002
2.391399e+003;5.862954e-002
2.393328e+003;5.884954e-002
2.395257e+003;5.901379e-002
2.397185e+003;5.903706e-002
2.399114e+003;5.914503e-002
2.401042e+003;5.940735e-002
2.402971e+003;5.952666e-002
2.404899e+003;5.977039e-002
2.406828e+003;5.997067e-002
2.408756e+003;5.970173e-002
2.410685e+003;5.988368e-002
2.412614e+003;6.033384e-002
2.414542e+003;6.035543e-002
2.416471e+003;6.030049e-002
2.418399e+003;6.045051e-002
2.420328e+003;6.060683e-002
2.422256e+003;6.067449e-002
2.424185e+003;6.095078e-002
2.426113e+003;6.134942e-002
2.428042e+003;6.170031e-002
2.429970e+003;6.154997e-002
2.431899e+003;6.119894e-002
2.433828e+003;6.160965e-002
2.435756e+003;6.193475e-002
2.437685e+003;6.183071e-002
2.439613e+003;6.187366e-002
2.441542e+003;6.207253e-002
2.443470e+003;6.248051e-002
2.445399e+003;6.259608e-002
2.447327e+003;6.233943e-002
2.449256e+003;6.217812e-002
2.451185e+003;6.237863e-002
2.453113e+003;6.257498e-002
2.455042e+003;6.260514e-002
2.456970e+003;6.254529e-002
2.458899e+003;6.262646e-002
2.460827e+003;6.278739e-002
2.462756e+003;6.298949e-002
2.464684e+003;6.326407e-002
2.466613e+003;6.319159e-002
2.468542e+003;6.325319e-002
2.470470e+003;6.356998e-002
2.472398e+003;6.348230e-002
2.474327e+003;6.341083e-002
2.476256e+003;6.359989e-002
2.478184e+003;6.393065e-002
2.480113e+003;6.411579e-002
2.482041e+003;6.420444e-002
2.483970e+003;6.434851e-002
2.485898e+003;6.420920e-002
2.487827e+003;6.421604e-002
2.489755e+003;6.470187e-002
2.491684e+003;6.478594e-002
2.493613e+003;6.428327e-002
2.495541e+003;6.451835e-002
2.497470e+003;6.510732e-002
2.499398e+003;6.513295e-002
2.501327e+003;6.500440e-002
2.503255e+003;6.519108e-002
2.505184e+003;6.547774e-002
2.507112e+003;6.545466e-002
2.509041e+003;6.521588e-002
2.510969e+003;6.523694e-002
2.512898e+003;6.561773e-002
2.514827e+003;6.609544e-002
2.516755e+003;6.614876e-002
2.518684e+003;6.602685e-002
2.520612e+003;6.629232e-002
2.522541e+003;6.651498e-002
2.524469e+003;6.653424e-002
2.526398e+003;6.649980e-002
2.528326e+003;6.634050e-002
2.530255e+003;6.626758e-002
2.532184e+003;6.650134e-002
2.534112e+003;6.672206e-002
2.536041e+003;6.680610e-002
2.537969e+003;6.693163e-002
2.539898e+003;6.689379e-002
2.541826e+003;6.674582e-002
2.543755e+003;6.650829e-002
2.545683e+003;6.648833e-002
2.547612e+003;6.670602e-002
2.549541e+003;6.686600e-002
2.551469e+003;6.696812e-002
2.553397e+003;6.684138e-002
2.555326e+003;6.673569e-002
2.557255e+003;6.683671e-002
2.559183e+003;6.724930e-002
2.561112e+003;6.732118e-002
2.563040e+003;6.724586e-002
2.564969e+003;6.734400e-002
2.566897e+003;6.726795e-002
2.568826e+003;6.746818e-002
2.570754e+003;6.768478e-002
2.572683e+003;6.755059e-002
2.574612e+003;6.737326e-002
2.576540e+003;6.730407e-002
2.578469e+003;6.763960e-002
2.580397e+003;6.777652e-002
2.582326e+003;6.766410e-002
2.584254e+003;6.766399e-002
2.586183e+003;6.772777e-002
2.588111e+003;6.788696e-002
2.590040e+003;6.815559e-002
2.591969e+003;6.834402e-002
2.593897e+003;6.845755e-002
2.595826e+003;6.842919e-002
2.597754e+003;6.828233e-002
2.599683e+003;6.842578e-002
2.601611e+003;6.860308e-002
2.603540e+003;6.873006e-002
2.605468e+003;6.890885e-002
2.607397e+003;6.902807e-002
2.609325e+003;6.897766e-002
2.611254e+003;6.901514e-002
2.613183e+003;6.910460e-002
2.615111e+003;6.916338e-002
2.617040e+003;6.951251e-002
2.618968e+003;6.987473e-002
2.620897e+003;6.983900e-002
2.622825e+003;6.968796e-002
2.624754e+003;6.981514e-002
2.626682e+003;7.001337e-002
2.628611e+003;7.005460e-002
2.630540e+003;7.012220e-002
2.632468e+003;7.023623e-002
2.634396e+003;7.028215e-002
2.636325e+003;7.039209e-002
2.638254e+003;7.020231e-002
2.640182e+003;7.004175e-002
2.642111e+003;7.032816e-002
2.644039e+003;7.059507e-002
2.645968e+003;7.063776e-002
2.647896e+003;7.055020e-002
2.649825e+003;7.071339e-002
2.651753e+003;7.107439e-002
2.653682e+003;7.132098e-002
2.655611e+003;7.135164e-002
2.657539e+003;7.116689e-002
2.659468e+003;7.089920e-002
2.661396e+003;7.091141e-002
2.663325e+003;7.111654e-002
2.665253e+003;7.138948e-002
2.667182e+003;7.178262e-002
2.669110e+003;7.197232e-002
2.671039e+003;7.212114e-002
2.672968e+003;7.224114e-002
2.674896e+003;7.220995e-002
2.676825e+003;7.216828e-002
2.678753e+003;7.229217e-002
2.680682e+003;7.253930e-002
2.682610e+003;7.252324e-002
2.684539e+003;7.252250e-002
2.686467e+003;7.275511e-002
2.688396e+003;7.291557e-002
2.690324e+003;7.287426e-002
2.692253e+003;7.301407e-002
2.694182e+003;7.315070e-002
2.696110e+003;7.335438e-002
2.698039e+003;7.367887e-002
2.699967e+003;7.376587e-002
2.701896e+003;7.372429e-002
2.703824e+003;7.378472e-002
2.705753e+003;7.414348e-002
2.707681e+003;7.430178e-002
2.709610e+003;7.434063e-002
2.711539e+003;7.441884e-002
2.713467e+003;7.446557e-002
2.715396e+003;7.456634e-002
2.717324e+003;7.473172e-002
2.719253e+003;7.499352e-002
2.721181e+003;7.502168e-002
2.723110e+003;7.492453e-002
2.725038e+003;7.506295e-002
2.726967e+003;7.535154e-002
2.728896e+003;7.539502e-002
2.730824e+003;7.530008e-002
2.732752e+003;7.525240e-002
2.734681e+003;7.519428e-002
2.736610e+003;7.541816e-002
2.738538e+003;7.560164e-002
2.740467e+003;7.564112e-002
2.742395e+003;7.558319e-002
2.744324e+003;7.534768e-002
2.746252e+003;7.530110e-002
2.748181e+003;7.534748e-002
2.750109e+003;7.533409e-002
2.752038e+003;7.553142e-002
2.753967e+003;7.572407e-002
2.755895e+003;7.580959e-002
2.757824e+003;7.591815e-002
2.759752e+003;7.603738e-002
2.761681e+003;7.633349e-002
2.763609e+003;7.639433e-002
2.765538e+003;7.649603e-002
2.767466e+003;7.670686e-002
2.769395e+003;7.667930e-002
2.771323e+003;7.662408e-002
2.773252e+003;7.684319e-002
2.775181e+003;7.711422e-002
2.777109e+003;7.744264e-002
2.779038e+003;7.745527e-002
2.780966e+003;7.757837e-002
2.782895e+003;7.778977e-002
2.784823e+003;7.792918e-002
2.786752e+003;7.817561e-002
2.788680e+003;7.860758e-002
2.790609e+003;7.871525e-002
2.792538e+003;7.873761e-002
2.794466e+003;7.886851e-002
2.796395e+003;7.906674e-002
2.798323e+003;7.935403e-002
2.800252e+003;7.956653e-002
2.802180e+003;7.977734e-002
2.804109e+003;8.025706e-002
2.806037e+003;8.074961e-002
2.807966e+003;8.112196e-002
2.809895e+003;8.136094e-002
2.811823e+003;8.172381e-002
2.813751e+003;8.236696e-002
2.815680e+003;8.269781e-002
2.817609e+003;8.313201e-002
2.819537e+003;8.360883e-002
2.821466e+003;8.383705e-002
2.823394e+003;8.426362e-002
2.825323e+003;8.497421e-002
2.827251e+003;8.586963e-002
2.829180e+003;8.657795e-002
2.831108e+003;8.702262e-002
2.833037e+003;8.773441e-002
2.834966e+003;8.869037e-002
2.836894e+003;9.025628e-002
2.838823e+003;9.189255e-002
2.840751e+003;9.346567e-002
2.842680e+003;9.614290e-002
2.844608e+003;1.002902e-001
2.846537e+003;1.057911e-001
2.848465e+003;1.111816e-001
2.850394e+003;1.130401e-001
2.852323e+003;1.111932e-001
2.854251e+003;1.080820e-001
2.856180e+003;1.050685e-001
2.858108e+003;1.030820e-001
2.860037e+003;1.021054e-001
2.861965e+003;1.023586e-001
2.863894e+003;1.031978e-001
2.865822e+003;1.033259e-001
2.867751e+003;1.036891e-001
2.869679e+003;1.043492e-001
2.871608e+003;1.046155e-001
2.873536e+003;1.048762e-001
2.875465e+003;1.053955e-001
2.877394e+003;1.058102e-001
2.879322e+003;1.064521e-001
2.881251e+003;1.069662e-001
2.883179e+003;1.075736e-001
2.885108e+003;1.085634e-001
2.887036e+003;1.097752e-001
2.888965e+003;1.104416e-001
2.890893e+003;1.109279e-001
2.892822e+003;1.119254e-001
2.894750e+003;1.133742e-001
2.896679e+003;1.144228e-001
2.898608e+003;1.148724e-001
2.900536e+003;1.154942e-001
2.902465e+003;1.159680e-001
2.904393e+003;1.156713e-001
2.906322e+003;1.152106e-001
2.908250e+003;1.151601e-001
2.910179e+003;1.156757e-001
2.912107e+003;1.172338e-001
2.914036e+003;1.201682e-001
2.915965e+003;1.226545e-001
2.917893e+003;1.230023e-001
2.919822e+003;1.215100e-001
2.921750e+003;1.186693e-001
2.923679e+003;1.147771e-001
2.925607e+003;1.103499e-001
2.927536e+003;1.063611e-001
2.929464e+003;1.031516e-001
2.931393e+003;9.999879e-002
2.933322e+003;9.710878e-002
2.935250e+003;9.546896e-002
2.937178e+003;9.452813e-002
2.939107e+003;9.301765e-002
2.941036e+003;9.173630e-002
2.942964e+003;9.119055e-002
2.944893e+003;9.082948e-002
2.946821e+003;9.055536e-002
2.948750e+003;8.945444e-002
2.950678e+003;8.812221e-002
2.952607e+003;8.749266e-002
2.954535e+003;8.715928e-002
2.956464e+003;8.691239e-002
2.958393e+003;8.670707e-002
2.960321e+003;8.623977e-002
2.962250e+003;8.570032e-002
2.964178e+003;8.515206e-002
2.966107e+003;8.483626e-002
2.968035e+003;8.440562e-002
2.969964e+003;8.333762e-002
2.971892e+003;8.188278e-002
2.973821e+003;8.046418e-002
2.975750e+003;7.914601e-002
2.977678e+003;7.796601e-002
2.979607e+003;7.676055e-002
2.981535e+003;7.598007e-002
2.983464e+003;7.555445e-002
2.985392e+003;7.499111e-002
2.987321e+003;7.462607e-002
2.989249e+003;7.422614e-002
2.991178e+003;7.351549e-002
2.993106e+003;7.301732e-002
2.995035e+003;7.255645e-002
2.996964e+003;7.236899e-002
2.998892e+003;7.224184e-002
3.000821e+003;7.205065e-002
3.002749e+003;7.198405e-002
3.004678e+003;7.212173e-002
3.006606e+003;7.208038e-002
3.008535e+003;7.202817e-002
3.010463e+003;7.206712e-002
3.012392e+003;7.222690e-002
3.014321e+003;7.243926e-002
3.016249e+003;7.216758e-002
3.018177e+003;7.239664e-002
3.020106e+003;7.313027e-002
3.022035e+003;7.333402e-002
3.023963e+003;7.302916e-002
3.025892e+003;7.296605e-002
3.027820e+003;7.327436e-002
3.029749e+003;7.371549e-002
3.031677e+003;7.413456e-002
3.033606e+003;7.439076e-002
3.035534e+003;7.417418e-002
3.037463e+003;7.376049e-002
3.039392e+003;7.404076e-002
3.041320e+003;7.459829e-002
3.043249e+003;7.495741e-002
3.045177e+003;7.521752e-002
3.047106e+003;7.546412e-002
3.049034e+003;7.549857e-002
3.050963e+003;7.550311e-002
3.052891e+003;7.618180e-002
3.054820e+003;7.678293e-002
3.056749e+003;7.664756e-002
3.058677e+003;7.653587e-002
3.060606e+003;7.676388e-002
3.062534e+003;7.704470e-002
3.064463e+003;7.743911e-002
3.066391e+003;7.745392e-002
3.068320e+003;7.708565e-002
3.070248e+003;7.716567e-002
3.072177e+003;7.760777e-002
3.074105e+003;7.840516e-002
3.076034e+003;7.922374e-002
3.077963e+003;7.934074e-002
3.079891e+003;7.933951e-002
3.081820e+003;7.968879e-002
3.083748e+003;7.956414e-002
3.085677e+003;7.978076e-002
3.087605e+003;8.041609e-002
3.089534e+003;8.061332e-002
3.091462e+003;8.093800e-002
3.093391e+003;8.140273e-002
3.095320e+003;8.149394e-002
3.097248e+003;8.149582e-002
3.099177e+003;8.169702e-002
3.101105e+003;8.174049e-002
3.103034e+003;8.201795e-002
3.104962e+003;8.245685e-002
3.106891e+003;8.284374e-002
3.108819e+003;8.307384e-002
3.110748e+003;8.352364e-002
3.112677e+003;8.414420e-002
3.114605e+003;8.491643e-002
3.116533e+003;8.527886e-002
3.118462e+003;8.516952e-002
3.120391e+003;8.523919e-002
3.122319e+003;8.559801e-002
3.124248e+003;8.620861e-002
3.126176e+003;8.663611e-002
3.128105e+003;8.659684e-002
3.130033e+003;8.679495e-002
3.131962e+003;8.764341e-002
3.133890e+003;8.842319e-002
3.135819e+003;8.856249e-002
3.137748e+003;8.842072e-002
3.139676e+003;8.873235e-002
3.141605e+003;8.905011e-002
3.143533e+003;8.966917e-002
3.145462e+003;9.070616e-002
3.147390e+003;9.119664e-002
3.149319e+003;9.149813e-002
3.151247e+003;9.190733e-002
3.153176e+003;9.204184e-002
3.155104e+003;9.217034e-002
3.157033e+003;9.241995e-002
3.158962e+003;9.276868e-002
3.160890e+003;9.347311e-002
3.162819e+003;9.409950e-002
3.164747e+003;9.456874e-002
3.166676e+003;9.549914e-002
3.168604e+003;9.628096e-002
3.170533e+003;9.675075e-002
3.172461e+003;9.711980e-002
3.174390e+003;9.780232e-002
3.176319e+003;9.822157e-002
3.178247e+003;9.855051e-002
3.180176e+003;9.894398e-002
3.182104e+003;9.941045e-002
3.184033e+003;1.002093e-001
3.185961e+003;1.008968e-001
3.187890e+003;1.012102e-001
3.189818e+003;1.016503e-001
3.191747e+003;1.020871e-001
3.193676e+003;1.026413e-001
3.195604e+003;1.037229e-001
3.197532e+003;1.046668e-001
3.199461e+003;1.054380e-001
3.201390e+003;1.061389e-001
3.203318e+003;1.069784e-001
3.205247e+003;1.073503e-001
3.207175e+003;1.077850e-001
3.209104e+003;1.090005e-001
3.211032e+003;1.100798e-001
3.212961e+003;1.107660e-001
3.214889e+003;1.113653e-001
3.216818e+003;1.124414e-001
3.218747e+003;1.136190e-001
3.220675e+003;1.146877e-001
3.222604e+003;1.159984e-001
3.224532e+003;1.171279e-001
3.226461e+003;1.178469e-001
3.228389e+003;1.187095e-001
3.230318e+003;1.197892e-001
3.232246e+003;1.206428e-001
3.234175e+003;1.211483e-001
3.236104e+003;1.217689e-001
3.238032e+003;1.229614e-001
3.239961e+003;1.243060e-001
3.241889e+003;1.256630e-001
3.243818e+003;1.271842e-001
3.245746e+003;1.284802e-001
3.247675e+003;1.297279e-001
3.249603e+003;1.312927e-001
3.251532e+003;1.327069e-001
3.253460e+003;1.339560e-001
3.255389e+003;1.358549e-001
3.257318e+003;1.374535e-001
3.259246e+003;1.383257e-001
3.261175e+003;1.393338e-001
3.263103e+003;1.406732e-001
3.265032e+003;1.416883e-001
3.266960e+003;1.425343e-001
3.268889e+003;1.442256e-001
3.270817e+003;1.454900e-001
3.272746e+003;1.463029e-001
3.274675e+003;1.469035e-001
3.276603e+003;1.470193e-001
3.278531e+003;1.471887e-001
3.280460e+003;1.475270e-001
3.282389e+003;1.478264e-001
3.284317e+003;1.481886e-001
3.286246e+003;1.488048e-001
3.288174e+003;1.494150e-001
3.290103e+003;1.494741e-001
3.292031e+003;1.490481e-001
3.293960e+003;1.482969e-001
3.295888e+003;1.484893e-001
3.297817e+003;1.494601e-001
3.299746e+003;1.501070e-001
3.301674e+003;1.496285e-001
3.303603e+003;1.487338e-001
3.305531e+003;1.480767e-001
3.307460e+003;1.474454e-001
3.309388e+003;1.475040e-001
3.311317e+003;1.482254e-001
3.313245e+003;1.486396e-001
3.315174e+003;1.489441e-001
3.317103e+003;1.495172e-001
3.319031e+003;1.501710e-001
3.320960e+003;1.511725e-001
3.322888e+003;1.528323e-001
3.324817e+003;1.537398e-001
3.326745e+003;1.538065e-001
3.328674e+003;1.540169e-001
3.330602e+003;1.541100e-001
3.332531e+003;1.543464e-001
3.334459e+003;1.548028e-001
3.336388e+003;1.545926e-001
3.338317e+003;1.540434e-001
3.340245e+003;1.534766e-001
3.342174e+003;1.529115e-001
3.344102e+003;1.520603e-001
3.346031e+003;1.502115e-001
3.347959e+003;1.484342e-001
3.349888e+003;1.469251e-001
3.351816e+003;1.455178e-001
3.353745e+003;1.440723e-001
3.355674e+003;1.422836e-001
3.357602e+003;1.410089e-001
3.359531e+003;1.395297e-001
3.361459e+003;1.382736e-001
3.363388e+003;1.380070e-001
3.365316e+003;1.368604e-001
3.367245e+003;1.350997e-001
3.369173e+003;1.336977e-001
3.371102e+003;1.324632e-001
3.373031e+003;1.317730e-001
3.374959e+003;1.314554e-001
3.376887e+003;1.305456e-001
3.378816e+003;1.297903e-001
3.380745e+003;1.289831e-001
3.382673e+003;1.280409e-001
3.384602e+003;1.271930e-001
3.386530e+003;1.264891e-001
3.388459e+003;1.253454e-001
3.390387e+003;1.244746e-001
3.392316e+003;1.243581e-001
3.394244e+003;1.239672e-001
3.396173e+003;1.229870e-001
3.398102e+003;1.220832e-001
3.400030e+003;1.215626e-001
3.401959e+003;1.210087e-001
3.403887e+003;1.204859e-001
3.405816e+003;1.194825e-001
3.407744e+003;1.182125e-001
3.409673e+003;1.172299e-001
3.411601e+003;1.160789e-001
3.413530e+003;1.145877e-001
3.415458e+003;1.125833e-001
3.417387e+003;1.109959e-001
3.419316e+003;1.099895e-001
3.421244e+003;1.090955e-001
3.423173e+003;1.079521e-001
3.425101e+003;1.065826e-001
3.427030e+003;1.053801e-001
3.428958e+003;1.042984e-001
3.430887e+003;1.034696e-001
3.432815e+003;1.026704e-001
3.434744e+003;1.016432e-001
3.436673e+003;1.005550e-001
3.438601e+003;9.969081e-002
3.440530e+003;9.873298e-002
3.442458e+003;9.788774e-002
3.444387e+003;9.702235e-002
3.446315e+003;9.625304e-002
3.448244e+003;9.524710e-002
3.450172e+003;9.399211e-002
3.452101e+003;9.316611e-002
3.454030e+003;9.253450e-002
3.455958e+003;9.146291e-002
3.457886e+003;9.058736e-002
3.459815e+003;8.997648e-002
3.461744e+003;8.884507e-002
3.463672e+003;8.786492e-002
3.465601e+003;8.699027e-002
3.467529e+003;8.624147e-002
3.469458e+003;8.569055e-002
3.471386e+003;8.475393e-002
3.473315e+003;8.365767e-002
3.475243e+003;8.302269e-002
3.477172e+003;8.229943e-002
3.479101e+003;8.126213e-002
3.481029e+003;8.088829e-002
3.482958e+003;8.007582e-002
3.484886e+003;7.887904e-002
3.486815e+003;7.785005e-002
3.488743e+003;7.684874e-002
3.490672e+003;7.657219e-002
3.492600e+003;7.580936e-002
3.494529e+003;7.465121e-002
3.496458e+003;7.437220e-002
3.498386e+003;7.409660e-002
3.500315e+003;7.291565e-002
3.502243e+003;7.195187e-002
3.504172e+003;7.103509e-002
3.506100e+003;7.044236e-002
3.508029e+003;7.026431e-002
3.509957e+003;6.960250e-002
3.511886e+003;6.848133e-002
3.513814e+003;6.803718e-002
3.515743e+003;6.758652e-002
3.517672e+003;6.701081e-002
3.519600e+003;6.656487e-002
3.521529e+003;6.605570e-002
3.523457e+003;6.538463e-002
3.525386e+003;6.445535e-002
3.527314e+003;6.416910e-002
3.529243e+003;6.429261e-002
3.531171e+003;6.385998e-002
3.533100e+003;6.315473e-002
3.535029e+003;6.249830e-002
3.536957e+003;6.190984e-002
3.538885e+003;6.139762e-002
3.540814e+003;6.074811e-002
3.542743e+003;5.957789e-002
3.544671e+003;5.867106e-002
3.546600e+003;5.823118e-002
3.548528e+003;5.790819e-002
3.550457e+003;5.774554e-002
3.552385e+003;5.754371e-002
3.554314e+003;5.723231e-002
3.556242e+003;5.689159e-002
3.558171e+003;5.639325e-002
3.560100e+003;5.573189e-002
3.562028e+003;5.502470e-002
3.563957e+003;5.415825e-002
3.565885e+003;5.335946e-002
3.567814e+003;5.313705e-002
3.569742e+003;5.295872e-002
3.571671e+003;5.219341e-002
3.573599e+003;5.256210e-002
3.575528e+003;5.282051e-002
3.577457e+003;5.203460e-002
3.579385e+003;5.135119e-002
3.581314e+003;5.069362e-002
3.583242e+003;5.051875e-002
3.585171e+003;5.069458e-002
3.587099e+003;5.051894e-002
3.589028e+003;5.053550e-002
3.590956e+003;5.025133e-002
3.592885e+003;4.922879e-002
3.594813e+003;4.825909e-002
3.596742e+003;4.805992e-002
3.598671e+003;4.837622e-002
3.600599e+003;4.800722e-002
3.602528e+003;4.742937e-002
3.604456e+003;4.661511e-002
3.606385e+003;4.579847e-002
3.608313e+003;4.584085e-002
3.610242e+003;4.599671e-002
3.612170e+003;4.577329e-002
3.614099e+003;4.594161e-002
3.616028e+003;4.574501e-002
3.617956e+003;4.508476e-002
3.619885e+003;4.462560e-002
3.621813e+003;4.469901e-002
3.623742e+003;4.455727e-002
3.625670e+003;4.364944e-002
3.627599e+003;4.261409e-002
3.629527e+003;4.236237e-002
3.631456e+003;4.262030e-002
3.633385e+003;4.199654e-002
3.635313e+003;4.170896e-002
3.637241e+003;4.157363e-002
3.639170e+003;4.165761e-002
3.641099e+003;4.146436e-002
3.643027e+003;4.099156e-002
3.644956e+003;4.020555e-002
3.646884e+003;3.835057e-002
3.648813e+003;3.723545e-002
3.650741e+003;3.725816e-002
3.652670e+003;3.771018e-002
3.654598e+003;3.765648e-002
3.656527e+003;3.705958e-002
3.658456e+003;3.653877e-002
3.660384e+003;3.623357e-002
3.662313e+003;3.577794e-002
3.664241e+003;3.584037e-002
3.666170e+003;3.581896e-002
3.668098e+003;3.477872e-002
3.670027e+003;3.377130e-002
3.671955e+003;3.374222e-002
3.673884e+003;3.318769e-002
3.675813e+003;3.255767e-002
3.677741e+003;3.310826e-002
3.679669e+003;3.328927e-002
3.681598e+003;3.308973e-002
3.683527e+003;3.284780e-002
3.685455e+003;3.258128e-002
3.687384e+003;3.201267e-002
3.689312e+003;3.176228e-002
3.691241e+003;3.202319e-002
3.693169e+003;3.227670e-002
3.695098e+003;3.208612e-002
3.697026e+003;3.191110e-002
3.698955e+003;3.139216e-002
3.700884e+003;3.099972e-002
3.702812e+003;3.094378e-002
3.704741e+003;3.082837e-002
3.706669e+003;3.055299e-002
3.708598e+003;2.983305e-002
3.710526e+003;2.935154e-002
3.712455e+003;2.965436e-002
3.714383e+003;3.007441e-002
3.716312e+003;3.003266e-002
3.718240e+003;3.002335e-002
3.720169e+003;3.007963e-002
3.722098e+003;3.015666e-002
3.724026e+003;3.037774e-002
3.725955e+003;2.974526e-002
3.727883e+003;2.918212e-002
3.729812e+003;2.903508e-002
3.731740e+003;2.862778e-002
3.733669e+003;2.838424e-002
3.735597e+003;2.817146e-002
3.737526e+003;2.892740e-002
3.739455e+003;2.918839e-002
3.741383e+003;2.875046e-002
3.743312e+003;2.776338e-002
3.745240e+003;2.753946e-002
3.747169e+003;2.769292e-002
3.749097e+003;2.755906e-002
3.751026e+003;2.781926e-002
3.752954e+003;2.845811e-002
3.754883e+003;2.952003e-002
3.756812e+003;2.999367e-002
3.758740e+003;2.977453e-002
3.760668e+003;2.959090e-002
3.762597e+003;2.938969e-002
3.764526e+003;2.902541e-002
3.766454e+003;2.921869e-002
3.768383e+003;2.880222e-002
3.770311e+003;2.860038e-002
3.772240e+003;2.873952e-002
3.774168e+003;2.845977e-002
3.776097e+003;2.872749e-002
3.778025e+003;2.948078e-002
3.779954e+003;2.998277e-002
3.781883e+003;2.951269e-002
3.783811e+003;2.923761e-002
3.785740e+003;2.919356e-002
3.787668e+003;2.880279e-002
3.789597e+003;2.863089e-002
3.791525e+003;2.832079e-002
3.793454e+003;2.900706e-002
3.795382e+003;2.949876e-002
3.797311e+003;2.901563e-002
3.799240e+003;2.815149e-002
3.801168e+003;2.772732e-002
3.803097e+003;2.850343e-002
3.805025e+003;2.904542e-002
3.806954e+003;2.859185e-002
3.808882e+003;2.813173e-002
3.810811e+003;2.861677e-002
3.812739e+003;2.915515e-002
3.814668e+003;2.864469e-002
3.816596e+003;2.852080e-002
3.818525e+003;2.887796e-002
3.820454e+003;2.865393e-002
3.822382e+003;2.887899e-002
3.824311e+003;2.944266e-002
3.826239e+003;2.903610e-002
3.828168e+003;2.899852e-002
3.830096e+003;2.880151e-002
3.832025e+003;2.834346e-002
3.833953e+003;2.857798e-002
3.835882e+003;2.849508e-002
3.837811e+003;2.830183e-002
3.839739e+003;2.913733e-002
3.841667e+003;2.955880e-002
3.843596e+003;2.980867e-002
3.845525e+003;2.957614e-002
3.847453e+003;2.860261e-002
3.849382e+003;2.830106e-002
3.851310e+003;2.816835e-002
3.853239e+003;2.745549e-002
3.855167e+003;2.840738e-002
3.857096e+003;2.946432e-002
3.859024e+003;2.929291e-002
3.860953e+003;2.899721e-002
3.862882e+003;2.875358e-002
3.864810e+003;2.885547e-002
3.866739e+003;2.960704e-002
3.868667e+003;2.954106e-002
3.870596e+003;2.942798e-002
3.872524e+003;2.946716e-002
3.874453e+003;2.974565e-002
3.876381e+003;3.035329e-002
3.878310e+003;3.054809e-002
3.880239e+003;3.086804e-002
3.882167e+003;3.094361e-002
3.884096e+003;3.041029e-002
3.886024e+003;3.036829e-002
3.887953e+003;3.077338e-002
3.889881e+003;3.099399e-002
3.891810e+003;3.077961e-002
3.893738e+003;3.098969e-002
3.895667e+003;3.199056e-002
3.897595e+003;3.235447e-002
3.899524e+003;3.196006e-002
3.901453e+003;3.112845e-002
3.903381e+003;3.054272e-002
3.905310e+003;3.100890e-002
3.907238e+003;3.136267e-002
3.909167e+003;3.141994e-002
3.911095e+003;3.211937e-002
3.913024e+003;3.223305e-002
3.914952e+003;3.165709e-002
3.916881e+003;3.175882e-002
3.918810e+003;3.193292e-002
3.920738e+003;3.183215e-002
3.922667e+003;3.183975e-002
3.924595e+003;3.218209e-002
3.926524e+003;3.307086e-002
3.928452e+003;3.340051e-002
3.930381e+003;3.372876e-002
3.932309e+003;3.357029e-002
3.934238e+003;3.250607e-002
3.936167e+003;3.241898e-002
3.938095e+003;3.285838e-002
3.940023e+003;3.227056e-002
3.941952e+003;3.209668e-002
3.943881e+003;3.271613e-002
3.945809e+003;3.328094e-002
3.947738e+003;3.348986e-002
3.949666e+003;3.330995e-002
3.951595e+003;3.329578e-002
3.953523e+003;3.339825e-002
3.955452e+003;3.345129e-002
3.957380e+003;3.346095e-002
3.959309e+003;3.335689e-002
3.961238e+003;3.346445e-002
3.963166e+003;3.331328e-002
3.965095e+003;3.315028e-002
3.967023e+003;3.322070e-002
3.968952e+003;3.345182e-002
3.970880e+003;3.336398e-002
3.972809e+003;3.258500e-002
3.974737e+003;3.261639e-002
3.976666e+003;3.343035e-002
3.978594e+003;3.389413e-002
3.980523e+003;3.420393e-002
3.982452e+003;3.420963e-002
3.984380e+003;3.397452e-002
3.986309e+003;3.337306e-002
3.988237e+003;3.280063e-002
3.990166e+003;3.236122e-002
3.992094e+003;3.276811e-002
3.994023e+003;3.387045e-002
3.995951e+003;3.348811e-002
3.997880e+003;3.275085e-002
3.999809e+003;3.328534e-002
4.001737e+003;0.000000e+000
