3.992094e+002;0.000000e+000
4.011380e+002;0.000000e+000
4.030665e+002;0.000000e+000
4.049951e+002;0.000000e+000
4.069236e+002;0.000000e+000
4.088522e+002;0.000000e+000
4.107807e+002;0.000000e+000
4.127093e+002;0.000000e+000
4.146378e+002;0.000000e+000
4.165664e+002;0.000000e+000
4.184949e+002;0.000000e+000
4.204235e+002;0.000000e+000
4.223520e+002;0.000000e+000
4.242806e+002;0.000000e+000
4.262091e+002;0.000000e+000
4.281377e+002;0.000000e+000
4.300662e+002;0.000000e+000
4.319948e+002;0.000000e+000
4.339233e+002;0.000000e+000
4.358519e+002;0.000000e+000
4.377804e+002;0.000000e+000
4.397090e+002;0.000000e+000
4.416375e+002;0.000000e+000
4.435660e+002;0.000000e+000
4.454946e+002;0.000000e+000
4.474232e+002;0.000000e+000
4.493517e+002;0.000000e+000
4.512802e+002;0.000000e+000
4.532088e+002;0.000000e+000
4.551373e+002;0.000000e+000
4.570659e+002;0.000000e+000
4.589944e+002;0.000000e+000
4.609230e+002;0.000000e+000
4.628515e+002;0.000000e+000
4.647801e+002;0.000000e+000
4.667086e+002;0.000000e+000
4.686372e+002;0.000000e+000
4.705657e+002;0.000000e+000
4.724943e+002;0.000000e+000
4.744228e+002;0.000000e+000
4.763513e+002;0.000000e+000
4.782799e+002;0.000000e+000
4.802085e+002;0.000000e+000
4.821370e+002;0.000000e+000
4.840656e+002;0.000000e+000
4.859941e+002;0.000000e+000
4.879226e+002;0.000000e+000
4.898512e+002;0.000000e+000
4.917798e+002;0.000000e+000
4.937083e+002;0.000000e+000
4.956368e+002;0.000000e+000
4.975654e+002;0.000000e+000
4.994939e+002;0.000000e+000
5.014225e+002;0.000000e+000
5.033510e+002;0.000000e+000
5.052796e+002;0.000000e+000
5.072081e+002;0.000000e+000
5.091367e+002;0.000000e+000
5.110652e+002;0.000000e+000
5.129938e+002;0.000000e+000
5.149223e+002;0.000000e+000
5.168509e+002;0.000000e+000
5.187794e+002;0.000000e+000
5.207079e+002;0.000000e+000
5.226365e+002;0.000000e+000
5.245651e+002;0.000000e+000
5.264936e+002;0.000000e+000
5.284222e+002;0.000000e+000
5.303507e+002;0.000000e+000
5.322792e+002;0.000000e+000
5.342078e+002;0.000000e+000
5.361364e+002;0.000000e+000
5.380649e+002;0.000000e+000
5.399935e+002;0.000000e+000
5.419220e+002;0.000000e+000
5.438505e+002;0.000000e+000
5.457791e+002;0.000000e+000
5.477076e+002;0.000000e+000
5.496362e+002;0.000000e+000
5.515648e+002;0.000000e+000
5.534933e+002;0.000000e+000
5.554218e+002;0.000000e+000
5.573504e+002;0.000000e+000
5.592789e+002;0.000000e+000
5.612075e+002;0.000000e+000
5.631360e+002;0.000000e+000
5.650646e+002;0.000000e+000
5.669931e+002;0.000000e+000
5.689217e+002;0.000000e+000
5.708502e+002;0.000000e+000
5.727787e+002;0.000000e+000
5.747073e+002;0.000000e+000
5.766359e+002;0.000000e+000
5.785644e+002;0.000000e+000
5.804930e+002;0.000000e+000
5.824215e+002;0.000000e+000
5.843500e+002;0.000000e+000
5.862786e+002;0.000000e+000
5.882072e+002;0.000000e+000
5.901357e+002;0.000000e+000
5.920643e+002;0.000000e+000
5.939928e+002;0.000000e+000
5.959213e+002;0.000000e+000
5.978499e+002;0.000000e+000
5.997784e+002;2.109379e-001
6.017070e+002;2.124823e-001
6.036355e+002;2.216643e-001
6.055641e+002;2.291187e-001
6.074926e+002;2.310716e-001
6.094211e+002;2.292738e-001
6.113497e+002;2.238513e-001
6.132783e+002;2.227949e-001
6.152068e+002;2.230134e-001
6.171354e+002;2.196245e-001
6.190639e+002;2.139332e-001
6.209924e+002;2.085079e-001
6.229210e+002;2.031627e-001
6.248495e+002;2.027044e-001
6.267781e+002;2.052263e-001
6.287067e+002;2.020815e-001
6.306352e+002;1.942792e-001
6.325637e+002;1.879967e-001
6.344923e+002;1.829986e-001
6.364208e+002;1.807802e-001
6.383494e+002;1.853073e-001
6.402780e+002;1.862470e-001
6.422065e+002;1.802203e-001
6.441350e+002;1.781075e-001
6.460636e+002;1.807319e-001
6.479921e+002;1.833684e-001
6.499207e+002;1.816030e-001
6.518492e+002;1.781534e-001
6.537778e+002;1.811127e-001
6.557063e+002;1.883710e-001
6.576349e+002;1.953413e-001
6.595634e+002;1.987128e-001
6.614919e+002;2.032762e-001
6.634205e+002;2.068957e-001
6.653491e+002;2.039003e-001
6.672776e+002;1.994194e-001
6.692062e+002;1.969500e-001
6.711347e+002;1.935478e-001
6.730632e+002;1.870484e-001
6.749918e+002;1.806678e-001
6.769203e+002;1.762315e-001
6.788489e+002;1.724394e-001
6.807775e+002;1.693034e-001
6.827060e+002;1.665551e-001
6.846345e+002;1.652154e-001
6.865631e+002;1.654358e-001
6.884916e+002;1.660487e-001
6.904202e+002;1.674785e-001
6.923488e+002;1.696745e-001
6.942773e+002;1.718297e-001
6.962058e+002;1.732629e-001
6.981344e+002;1.760483e-001
7.000629e+002;1.783783e-001
7.019915e+002;1.773572e-001
7.039200e+002;1.738420e-001
7.058486e+002;1.686544e-001
7.077771e+002;1.635439e-001
7.097057e+002;1.593074e-001
7.116342e+002;1.558747e-001
7.135627e+002;1.525185e-001
7.154913e+002;1.487399e-001
7.174199e+002;1.454192e-001
7.193484e+002;1.423537e-001
7.212770e+002;1.389690e-001
7.232055e+002;1.347711e-001
7.251340e+002;1.302938e-001
7.270626e+002;1.275522e-001
7.289911e+002;1.259242e-001
7.309197e+002;1.242597e-001
7.328483e+002;1.219994e-001
7.347768e+002;1.194435e-001
7.367053e+002;1.179110e-001
7.386339e+002;1.167071e-001
7.405624e+002;1.149433e-001
7.424910e+002;1.139713e-001
7.444196e+002;1.132746e-001
7.463481e+002;1.121709e-001
7.482766e+002;1.110579e-001
7.502052e+002;1.098364e-001
7.521337e+002;1.086216e-001
7.540623e+002;1.082205e-001
7.559908e+002;1.083655e-001
7.579194e+002;1.083430e-001
7.598479e+002;1.082756e-001
7.617765e+002;1.081713e-001
7.637050e+002;1.071264e-001
7.656335e+002;1.056842e-001
7.675621e+002;1.044000e-001
7.694907e+002;1.028325e-001
7.714192e+002;1.012360e-001
7.733478e+002;1.005325e-001
7.752763e+002;1.008724e-001
7.772048e+002;1.001814e-001
7.791334e+002;9.889197e-002
7.810620e+002;9.845482e-002
7.829905e+002;9.799580e-002
7.849191e+002;9.724385e-002
7.868476e+002;9.744861e-002
7.887761e+002;9.795275e-002
7.907047e+002;9.826927e-002
7.926332e+002;9.873855e-002
7.945618e+002;9.949473e-002
7.964903e+002;9.987380e-002
7.984189e+002;9.993710e-002
8.003474e+002;1.002956e-001
8.022759e+002;1.006291e-001
8.042045e+002;1.003453e-001
8.061331e+002;1.000568e-001
8.080616e+002;9.967505e-002
8.099902e+002;9.897823e-002
8.119187e+002;9.908528e-002
8.138472e+002;1.001183e-001
8.157758e+002;1.001287e-001
8.177043e+002;9.904274e-002
8.196329e+002;9.837132e-002
8.215615e+002;9.736568e-002
8.234900e+002;9.645793e-002
8.254185e+002;9.647617e-002
8.273471e+002;9.624688e-002
8.292756e+002;9.487188e-002
8.312042e+002;9.411678e-002
8.331328e+002;9.399018e-002
8.350613e+002;9.422351e-002
8.369898e+002;9.449967e-002
8.389184e+002;9.386608e-002
8.408469e+002;9.337331e-002
8.427755e+002;9.343962e-002
8.447040e+002;9.310821e-002
8.466326e+002;9.252207e-002
8.485611e+002;9.255881e-002
8.504897e+002;9.320405e-002
8.524182e+002;9.357861e-002
8.543467e+002;9.403169e-002
8.562753e+002;9.453188e-002
8.582039e+002;9.476348e-002
8.601324e+002;9.520658e-002
8.620610e+002;9.577455e-002
8.639895e+002;9.624536e-002
8.659180e+002;9.660404e-002
8.678466e+002;9.735805e-002
8.697751e+002;9.814016e-002
8.717037e+002;9.929179e-002
8.736323e+002;1.010316e-001
8.755608e+002;1.026070e-001
8.774893e+002;1.033026e-001
8.794179e+002;1.045650e-001
8.813464e+002;1.064557e-001
8.832750e+002;1.081442e-001
8.852036e+002;1.100356e-001
8.871321e+002;1.119451e-001
8.890606e+002;1.142744e-001
8.909892e+002;1.163059e-001
8.929177e+002;1.175281e-001
8.948463e+002;1.184945e-001
8.967748e+002;1.190817e-001
8.987034e+002;1.190996e-001
9.006319e+002;1.183900e-001
9.025605e+002;1.176237e-001
9.044890e+002;1.175617e-001
9.064175e+002;1.171862e-001
9.083461e+002;1.164408e-001
9.102747e+002;1.156523e-001
9.122032e+002;1.149685e-001
9.141318e+002;1.142632e-001
9.160603e+002;1.134892e-001
9.179888e+002;1.131705e-001
9.199174e+002;1.134080e-001
9.218459e+002;1.143023e-001
9.237745e+002;1.157728e-001
9.257031e+002;1.170823e-001
9.276316e+002;1.186211e-001
9.295601e+002;1.205583e-001
9.314887e+002;1.222621e-001
9.334172e+002;1.240693e-001
9.353458e+002;1.260325e-001
9.372744e+002;1.279509e-001
9.392029e+002;1.297594e-001
9.411314e+002;1.312675e-001
9.430600e+002;1.329918e-001
9.449885e+002;1.352697e-001
9.469171e+002;1.379880e-001
9.488456e+002;1.408944e-001
9.507742e+002;1.441329e-001
9.527027e+002;1.472330e-001
9.546313e+002;1.508805e-001
9.565598e+002;1.550836e-001
9.584883e+002;1.594988e-001
9.604169e+002;1.641983e-001
9.623455e+002;1.691093e-001
9.642740e+002;1.741033e-001
9.662026e+002;1.793214e-001
9.681311e+002;1.849837e-001
9.700596e+002;1.914675e-001
9.719882e+002;1.991536e-001
9.739167e+002;2.087139e-001
9.758453e+002;2.201275e-001
9.777739e+002;2.334665e-001
9.797024e+002;2.476475e-001
9.816309e+002;2.592536e-001
9.835595e+002;2.654125e-001
9.854880e+002;2.655559e-001
9.874166e+002;2.630688e-001
9.893452e+002;2.622730e-001
9.912737e+002;2.643074e-001
9.932022e+002;2.688175e-001
9.951307e+002;2.747732e-001
9.970593e+002;2.812598e-001
9.989879e+002;2.865324e-001
1.000916e+003;2.886248e-001
1.002845e+003;2.885667e-001
1.004773e+003;2.886177e-001
1.006702e+003;2.880615e-001
1.008631e+003;2.872427e-001
1.010559e+003;2.875342e-001
1.012488e+003;2.892003e-001
1.014416e+003;2.914376e-001
1.016345e+003;2.942544e-001
1.018273e+003;2.979331e-001
1.020202e+003;3.022910e-001
1.022130e+003;3.074681e-001
1.024059e+003;3.128378e-001
1.025988e+003;3.185661e-001
1.027916e+003;3.241772e-001
1.029845e+003;3.272181e-001
1.031773e+003;3.269062e-001
1.033702e+003;3.218700e-001
1.035630e+003;3.121282e-001
1.037559e+003;3.010678e-001
1.039487e+003;2.920695e-001
1.041416e+003;2.870800e-001
1.043344e+003;2.870526e-001
1.045273e+003;2.919401e-001
1.047202e+003;2.998245e-001
1.049130e+003;3.087105e-001
1.051059e+003;3.160322e-001
1.052987e+003;3.195409e-001
1.054916e+003;3.192259e-001
1.056844e+003;3.153917e-001
1.058773e+003;3.058660e-001
1.060701e+003;2.904234e-001
1.062630e+003;2.726627e-001
1.064558e+003;2.553109e-001
1.066487e+003;2.393217e-001
1.068416e+003;2.260600e-001
1.070344e+003;2.170339e-001
1.072273e+003;2.107254e-001
1.074201e+003;2.058200e-001
1.076130e+003;2.016626e-001
1.078058e+003;1.969575e-001
1.079987e+003;1.919561e-001
1.081915e+003;1.891135e-001
1.083844e+003;1.887916e-001
1.085773e+003;1.901198e-001
1.087701e+003;1.919399e-001
1.089630e+003;1.936688e-001
1.091558e+003;1.960586e-001
1.093487e+003;1.995028e-001
1.095415e+003;2.040091e-001
1.097344e+003;2.093779e-001
1.099272e+003;2.141358e-001
1.101201e+003;2.175884e-001
1.103129e+003;2.198275e-001
1.105058e+003;2.202020e-001
1.106987e+003;2.197239e-001
1.108915e+003;2.186282e-001
1.110844e+003;2.146481e-001
1.112772e+003;2.073958e-001
1.114701e+003;1.968079e-001
1.116629e+003;1.846713e-001
1.118558e+003;1.737504e-001
1.120486e+003;1.660280e-001
1.122415e+003;1.606055e-001
1.124344e+003;1.550393e-001
1.126272e+003;1.485394e-001
1.128201e+003;1.419878e-001
1.130129e+003;1.363901e-001
1.132058e+003;1.322501e-001
1.133986e+003;1.293063e-001
1.135915e+003;1.268071e-001
1.137843e+003;1.261073e-001
1.139772e+003;1.276155e-001
1.141700e+003;1.311382e-001
1.143629e+003;1.360352e-001
1.145557e+003;1.410127e-001
1.147486e+003;1.454204e-001
1.149415e+003;1.491067e-001
1.151343e+003;1.526487e-001
1.153272e+003;1.568634e-001
1.155200e+003;1.609644e-001
1.157129e+003;1.644824e-001
1.159057e+003;1.674146e-001
1.160986e+003;1.684246e-001
1.162914e+003;1.653365e-001
1.164843e+003;1.586831e-001
1.166771e+003;1.505155e-001
1.168700e+003;1.413487e-001
1.170629e+003;1.329502e-001
1.172557e+003;1.259901e-001
1.174486e+003;1.201791e-001
1.176414e+003;1.158993e-001
1.178343e+003;1.126532e-001
1.180271e+003;1.097761e-001
1.182200e+003;1.072903e-001
1.184128e+003;1.051010e-001
1.186057e+003;1.033723e-001
1.187986e+003;1.022337e-001
1.189914e+003;1.025456e-001
1.191843e+003;1.038917e-001
1.193771e+003;1.052275e-001
1.195700e+003;1.068018e-001
1.197628e+003;1.083974e-001
1.199557e+003;1.097431e-001
1.201485e+003;1.108936e-001
1.203414e+003;1.116040e-001
1.205343e+003;1.113298e-001
1.207271e+003;1.097441e-001
1.209200e+003;1.066745e-001
1.211128e+003;1.031152e-001
1.213057e+003;1.006523e-001
1.214985e+003;1.000211e-001
1.216914e+003;1.002960e-001
1.218842e+003;1.009631e-001
1.220771e+003;1.021296e-001
1.222699e+003;1.034456e-001
1.224628e+003;1.047926e-001
1.226557e+003;1.065009e-001
1.228485e+003;1.084269e-001
1.230414e+003;1.100274e-001
1.232342e+003;1.116404e-001
1.234271e+003;1.132491e-001
1.236199e+003;1.140276e-001
1.238128e+003;1.144226e-001
1.240056e+003;1.151161e-001
1.241985e+003;1.161259e-001
1.243913e+003;1.172768e-001
1.245842e+003;1.183804e-001
1.247771e+003;1.191741e-001
1.249699e+003;1.190935e-001
1.251628e+003;1.188374e-001
1.253556e+003;1.192902e-001
1.255485e+003;1.201664e-001
1.257413e+003;1.213223e-001
1.259342e+003;1.223241e-001
1.261270e+003;1.228403e-001
1.263199e+003;1.226583e-001
1.265127e+003;1.217564e-001
1.267056e+003;1.200073e-001
1.268985e+003;1.185854e-001
1.270913e+003;1.184309e-001
1.272842e+003;1.191613e-001
1.274770e+003;1.197770e-001
1.276699e+003;1.198214e-001
1.278627e+003;1.192347e-001
1.280556e+003;1.181901e-001
1.282484e+003;1.166168e-001
1.284413e+003;1.147179e-001
1.286342e+003;1.131791e-001
1.288270e+003;1.122918e-001
1.290199e+003;1.119427e-001
1.292127e+003;1.118372e-001
1.294056e+003;1.119116e-001
1.295984e+003;1.122196e-001
1.297913e+003;1.133823e-001
1.299841e+003;1.153020e-001
1.301770e+003;1.179247e-001
1.303698e+003;1.212821e-001
1.305627e+003;1.249259e-001
1.307556e+003;1.289276e-001
1.309484e+003;1.326897e-001
1.311413e+003;1.354314e-001
1.313341e+003;1.371002e-001
1.315270e+003;1.369920e-001
1.317198e+003;1.348163e-001
1.319127e+003;1.313957e-001
1.321055e+003;1.275868e-001
1.322984e+003;1.244706e-001
1.324912e+003;1.224844e-001
1.326841e+003;1.217970e-001
1.328770e+003;1.223070e-001
1.330698e+003;1.237475e-001
1.332627e+003;1.252493e-001
1.334555e+003;1.259026e-001
1.336484e+003;1.249993e-001
1.338412e+003;1.226962e-001
1.340341e+003;1.199827e-001
1.342269e+003;1.171938e-001
1.344198e+003;1.143566e-001
1.346126e+003;1.118338e-001
1.348055e+003;1.099884e-001
1.349984e+003;1.094435e-001
1.351912e+003;1.100246e-001
1.353841e+003;1.109778e-001
1.355769e+003;1.116272e-001
1.357698e+003;1.121496e-001
1.359626e+003;1.124736e-001
1.361555e+003;1.119146e-001
1.363483e+003;1.107899e-001
1.365412e+003;1.102099e-001
1.367341e+003;1.099034e-001
1.369269e+003;1.096882e-001
1.371198e+003;1.086052e-001
1.373126e+003;1.058843e-001
1.375055e+003;1.028994e-001
1.376983e+003;1.004112e-001
1.378912e+003;9.795786e-002
1.380840e+003;9.539739e-002
1.382769e+003;9.293474e-002
1.384698e+003;9.076332e-002
1.386626e+003;8.870581e-002
1.388555e+003;8.832630e-002
1.390483e+003;8.891603e-002
1.392412e+003;8.849440e-002
1.394340e+003;8.787275e-002
1.396269e+003;8.856428e-002
1.398197e+003;8.878889e-002
1.400126e+003;8.889086e-002
1.402054e+003;8.931710e-002
1.403983e+003;8.909449e-002
1.405911e+003;8.917398e-002
1.407840e+003;8.958034e-002
1.409769e+003;8.958869e-002
1.411697e+003;8.993337e-002
1.413626e+003;9.086469e-002
1.415554e+003;9.172611e-002
1.417483e+003;9.163923e-002
1.419411e+003;9.252675e-002
1.421340e+003;9.589320e-002
1.423268e+003;9.836978e-002
1.425197e+003;9.999466e-002
1.427125e+003;1.010166e-001
1.429054e+003;1.010009e-001
1.430983e+003;1.009028e-001
1.432911e+003;1.001401e-001
1.434840e+003;9.720244e-002
1.436768e+003;9.453613e-002
1.438697e+003;9.558614e-002
1.440625e+003;9.689229e-002
1.442554e+003;9.772641e-002
1.444482e+003;9.843648e-002
1.446411e+003;9.876525e-002
1.448340e+003;9.954673e-002
1.450268e+003;1.013509e-001
1.452197e+003;1.020979e-001
1.454125e+003;9.999137e-002
1.456054e+003;9.471609e-002
1.457982e+003;9.287544e-002
1.459911e+003;9.449946e-002
1.461839e+003;9.423071e-002
1.463768e+003;9.078693e-002
1.465697e+003;8.793040e-002
1.467625e+003;8.687969e-002
1.469554e+003;8.503030e-002
1.471482e+003;8.247720e-002
1.473411e+003;8.075224e-002
1.475339e+003;7.873352e-002
1.477268e+003;7.694224e-002
1.479196e+003;7.632295e-002
1.481125e+003;7.527466e-002
1.483053e+003;7.372943e-002
1.484982e+003;7.160847e-002
1.486911e+003;6.933966e-002
1.488839e+003;6.761644e-002
1.490768e+003;6.776785e-002
1.492696e+003;6.937698e-002
1.494625e+003;6.831292e-002
1.496553e+003;6.597108e-002
1.498482e+003;6.563245e-002
1.500410e+003;6.561530e-002
1.502339e+003;6.527194e-002
1.504267e+003;6.231285e-002
1.506196e+003;5.881836e-002
1.508125e+003;6.079053e-002
1.510053e+003;6.366476e-002
1.511982e+003;6.420802e-002
1.513910e+003;6.441707e-002
1.515839e+003;6.361344e-002
1.517767e+003;6.316408e-002
1.519696e+003;6.214884e-002
1.521624e+003;6.190931e-002
1.523553e+003;6.435458e-002
1.525481e+003;6.561869e-002
1.527410e+003;6.690809e-002
1.529339e+003;6.819753e-002
1.531267e+003;6.841166e-002
1.533196e+003;6.796789e-002
1.535124e+003;6.944528e-002
1.537053e+003;6.861395e-002
1.538981e+003;6.454495e-002
1.540910e+003;6.508099e-002
1.542838e+003;6.880118e-002
1.544767e+003;7.129322e-002
1.546695e+003;7.305374e-002
1.548624e+003;7.380954e-002
1.550553e+003;7.447406e-002
1.552481e+003;7.444539e-002
1.554410e+003;7.345738e-002
1.556338e+003;7.102050e-002
1.558267e+003;6.656920e-002
1.560195e+003;6.792341e-002
1.562124e+003;7.278258e-002
1.564052e+003;7.428641e-002
1.565981e+003;7.426152e-002
1.567910e+003;7.315200e-002
1.569838e+003;7.225988e-002
1.571767e+003;7.323267e-002
1.573695e+003;7.209497e-002
1.575624e+003;6.924627e-002
1.577552e+003;7.058899e-002
1.579481e+003;7.290150e-002
1.581409e+003;7.333547e-002
1.583338e+003;7.329891e-002
1.585266e+003;7.304315e-002
1.587195e+003;7.276698e-002
1.589124e+003;7.234340e-002
1.591052e+003;7.215389e-002
1.592981e+003;7.204815e-002
1.594909e+003;7.201937e-002
1.596838e+003;7.244099e-002
1.598766e+003;7.287747e-002
1.600695e+003;7.301928e-002
1.602623e+003;7.317799e-002
1.604552e+003;7.297573e-002
1.606480e+003;7.235353e-002
1.608409e+003;7.171066e-002
1.610338e+003;7.159081e-002
1.612266e+003;7.171035e-002
1.614195e+003;7.055695e-002
1.616123e+003;6.797057e-002
1.618052e+003;6.920892e-002
1.619980e+003;7.134984e-002
1.621909e+003;7.070599e-002
1.623837e+003;7.036572e-002
1.625766e+003;7.102444e-002
1.627694e+003;7.130837e-002
1.629623e+003;7.187831e-002
1.631552e+003;7.216629e-002
1.633480e+003;7.026626e-002
1.635409e+003;6.805481e-002
1.637337e+003;7.011277e-002
1.639266e+003;7.249036e-002
1.641194e+003;7.314188e-002
1.643123e+003;7.275131e-002
1.645051e+003;7.078140e-002
1.646980e+003;7.028406e-002
1.648909e+003;7.206759e-002
1.650837e+003;6.923919e-002
1.652766e+003;6.458970e-002
1.654694e+003;6.878818e-002
1.656623e+003;7.354470e-002
1.658551e+003;7.454550e-002
1.660480e+003;7.407734e-002
1.662408e+003;7.312823e-002
1.664337e+003;7.370164e-002
1.666266e+003;7.370132e-002
1.668194e+003;7.170300e-002
1.670123e+003;7.110015e-002
1.672051e+003;7.166541e-002
1.673980e+003;7.032333e-002
1.675908e+003;6.994867e-002
1.677837e+003;7.122096e-002
1.679765e+003;7.088937e-002
1.681694e+003;6.879124e-002
1.683622e+003;6.479295e-002
1.685551e+003;6.583788e-002
1.687479e+003;6.915371e-002
1.689408e+003;6.976300e-002
1.691337e+003;6.999309e-002
1.693265e+003;6.867557e-002
1.695194e+003;6.526189e-002
1.697122e+003;6.548675e-002
1.699051e+003;6.496226e-002
1.700979e+003;6.556632e-002
1.702908e+003;6.911311e-002
1.704836e+003;6.972963e-002
1.706765e+003;7.069858e-002
1.708693e+003;7.205179e-002
1.710622e+003;7.325228e-002
1.712551e+003;7.395515e-002
1.714479e+003;7.445845e-002
1.716408e+003;7.510711e-002
1.718336e+003;7.992599e-002
1.720265e+003;8.832207e-002
1.722193e+003;9.560794e-002
1.724122e+003;1.024083e-001
1.726050e+003;1.089822e-001
1.727979e+003;1.138515e-001
1.729908e+003;1.163283e-001
1.731836e+003;1.144348e-001
1.733765e+003;1.093982e-001
1.735693e+003;1.061491e-001
1.737622e+003;1.001582e-001
1.739550e+003;9.055491e-002
1.741479e+003;8.199006e-002
1.743407e+003;7.434731e-002
1.745336e+003;6.797111e-002
1.747265e+003;6.272943e-002
1.749193e+003;5.841350e-002
1.751122e+003;5.556538e-002
1.753050e+003;5.541734e-002
1.754979e+003;5.483260e-002
1.756907e+003;5.399981e-002
1.758836e+003;5.382289e-002
1.760764e+003;5.269712e-002
1.762693e+003;5.223578e-002
1.764621e+003;5.275597e-002
1.766550e+003;5.204722e-002
1.768479e+003;5.124988e-002
1.770407e+003;5.017418e-002
1.772336e+003;4.907555e-002
1.774264e+003;5.025527e-002
1.776193e+003;5.131364e-002
1.778121e+003;5.142381e-002
1.780050e+003;5.115421e-002
1.781978e+003;5.097522e-002
1.783907e+003;5.054232e-002
1.785835e+003;5.059875e-002
1.787764e+003;5.095103e-002
1.789693e+003;5.008869e-002
1.791621e+003;4.872030e-002
1.793550e+003;4.915090e-002
1.795478e+003;5.036498e-002
1.797407e+003;5.023436e-002
1.799335e+003;4.959014e-002
1.801264e+003;4.945411e-002
1.803192e+003;4.973257e-002
1.805121e+003;4.970173e-002
1.807049e+003;4.967301e-002
1.808978e+003;4.951691e-002
1.810907e+003;4.931749e-002
1.812835e+003;4.962528e-002
1.814764e+003;4.997573e-002
1.816692e+003;4.991737e-002
1.818621e+003;4.994544e-002
1.820549e+003;4.983665e-002
1.822478e+003;4.956273e-002
1.824406e+003;4.889359e-002
1.826335e+003;4.882951e-002
1.828264e+003;4.835252e-002
1.830192e+003;4.805992e-002
1.832121e+003;4.891046e-002
1.834049e+003;4.927834e-002
1.835978e+003;4.898055e-002
1.837906e+003;4.887571e-002
1.839835e+003;4.905025e-002
1.841763e+003;4.830404e-002
1.843692e+003;4.689149e-002
1.845620e+003;4.752411e-002
1.847549e+003;4.864961e-002
1.849478e+003;4.871381e-002
1.851406e+003;4.855656e-002
1.853335e+003;4.839648e-002
1.855263e+003;4.836541e-002
1.857192e+003;4.833718e-002
1.859120e+003;4.830522e-002
1.861049e+003;4.834670e-002
1.862977e+003;4.824172e-002
1.864906e+003;4.794283e-002
1.866834e+003;4.745484e-002
1.868763e+003;4.710619e-002
1.870692e+003;4.752052e-002
1.872620e+003;4.822891e-002
1.874549e+003;4.842997e-002
1.876477e+003;4.803827e-002
1.878406e+003;4.785892e-002
1.880334e+003;4.809164e-002
1.882263e+003;4.807173e-002
1.884191e+003;4.801762e-002
1.886120e+003;4.794168e-002
1.888048e+003;4.751660e-002
1.889977e+003;4.732653e-002
1.891906e+003;4.760144e-002
1.893834e+003;4.761324e-002
1.895763e+003;4.764171e-002
1.897691e+003;4.774777e-002
1.899620e+003;4.777802e-002
1.901548e+003;4.767373e-002
1.903477e+003;4.763084e-002
1.905405e+003;4.753867e-002
1.907334e+003;4.746992e-002
1.909262e+003;4.757634e-002
1.911191e+003;4.774436e-002
1.913120e+003;4.794557e-002
1.915048e+003;4.783606e-002
1.916977e+003;4.718622e-002
1.918905e+003;4.734379e-002
1.920834e+003;4.781472e-002
1.922762e+003;4.780573e-002
1.924691e+003;4.806325e-002
1.926619e+003;4.828615e-002
1.928548e+003;4.837004e-002
1.930477e+003;4.843793e-002
1.932405e+003;4.845557e-002
1.934334e+003;4.846131e-002
1.936262e+003;4.861611e-002
1.938191e+003;4.882351e-002
1.940119e+003;4.856186e-002
1.942048e+003;4.802887e-002
1.943976e+003;4.815394e-002
1.945905e+003;4.848116e-002
1.947833e+003;4.868894e-002
1.949762e+003;4.896342e-002
1.951691e+003;4.908000e-002
1.953619e+003;4.892436e-002
1.955548e+003;4.873016e-002
1.957476e+003;4.878491e-002
1.959405e+003;4.886210e-002
1.961333e+003;4.889473e-002
1.963262e+003;4.890990e-002
1.965190e+003;4.896672e-002
1.967119e+003;4.891287e-002
1.969047e+003;4.892028e-002
1.970976e+003;4.888161e-002
1.972905e+003;4.900915e-002
1.974833e+003;4.911784e-002
1.976762e+003;4.898382e-002
1.978690e+003;4.893575e-002
1.980619e+003;4.899865e-002
1.982547e+003;4.890830e-002
1.984476e+003;4.901516e-002
1.986404e+003;4.934177e-002
1.988333e+003;4.937618e-002
1.990261e+003;4.925822e-002
1.992190e+003;4.922682e-002
1.994119e+003;4.932611e-002
1.996047e+003;4.947520e-002
1.997976e+003;4.953770e-002
1.999904e+003;4.946165e-002
2.001833e+003;4.925948e-002
2.003761e+003;4.916908e-002
2.005690e+003;4.935662e-002
2.007618e+003;4.955389e-002
2.009547e+003;4.941910e-002
2.011476e+003;4.956882e-002
2.013404e+003;4.989359e-002
2.015333e+003;4.973546e-002
2.017261e+003;4.949930e-002
2.019190e+003;4.974977e-002
2.021118e+003;5.005916e-002
2.023047e+003;5.015615e-002
2.024975e+003;5.010851e-002
2.026904e+003;5.012431e-002
2.028833e+003;5.015998e-002
2.030761e+003;5.010943e-002
2.032690e+003;5.000105e-002
2.034618e+003;5.012494e-002
2.036547e+003;5.041287e-002
2.038475e+003;5.069481e-002
2.040404e+003;5.066558e-002
2.042332e+003;5.061923e-002
2.044261e+003;5.051224e-002
2.046189e+003;5.048835e-002
2.048118e+003;5.059186e-002
2.050047e+003;5.074668e-002
2.051975e+003;5.090417e-002
2.053904e+003;5.088535e-002
2.055832e+003;5.063810e-002
2.057761e+003;5.055854e-002
2.059689e+003;5.037782e-002
2.061618e+003;5.021577e-002
2.063546e+003;5.025605e-002
2.065475e+003;5.024329e-002
2.067404e+003;5.012911e-002
2.069332e+003;5.018389e-002
2.071260e+003;5.036573e-002
2.073189e+003;5.020766e-002
2.075118e+003;5.003488e-002
2.077046e+003;5.030597e-002
2.078975e+003;5.045515e-002
2.080903e+003;5.035356e-002
2.082832e+003;5.007340e-002
2.084760e+003;4.985854e-002
2.086689e+003;4.993213e-002
2.088617e+003;5.011740e-002
2.090546e+003;5.025761e-002
2.092475e+003;5.029329e-002
2.094403e+003;5.014919e-002
2.096332e+003;5.027692e-002
2.098260e+003;5.059901e-002
2.100189e+003;5.070609e-002
2.102117e+003;5.044830e-002
2.104046e+003;5.029690e-002
2.105974e+003;5.033399e-002
2.107903e+003;5.038753e-002
2.109832e+003;5.060363e-002
2.111760e+003;5.059410e-002
2.113688e+003;5.057105e-002
2.115617e+003;5.070576e-002
2.117546e+003;5.072092e-002
2.119474e+003;5.059335e-002
2.121403e+003;5.050986e-002
2.123331e+003;5.064216e-002
2.125260e+003;5.076456e-002
2.127188e+003;5.072415e-002
2.129117e+003;5.082761e-002
2.131045e+003;5.099247e-002
2.132974e+003;5.108474e-002
2.134903e+003;5.132400e-002
2.136831e+003;5.138737e-002
2.138760e+003;5.124917e-002
2.140688e+003;5.100749e-002
2.142617e+003;5.089571e-002
2.144545e+003;5.070136e-002
2.146474e+003;5.044558e-002
2.148402e+003;5.038266e-002
2.150331e+003;5.055419e-002
2.152260e+003;5.074419e-002
2.154188e+003;5.086144e-002
2.156117e+003;5.073935e-002
2.158045e+003;5.042999e-002
2.159974e+003;5.024418e-002
2.161902e+003;5.027722e-002
2.163831e+003;5.038727e-002
2.165759e+003;5.010922e-002
2.167688e+003;4.985605e-002
2.169616e+003;4.985590e-002
2.171545e+003;4.980068e-002
2.173474e+003;4.960660e-002
2.175402e+003;4.941056e-002
2.177331e+003;4.952091e-002
2.179259e+003;4.970102e-002
2.181188e+003;4.951445e-002
2.183116e+003;4.945738e-002
2.185045e+003;4.963445e-002
2.186973e+003;4.945990e-002
2.188902e+003;4.923347e-002
2.190831e+003;4.904824e-002
2.192759e+003;4.884816e-002
2.194688e+003;4.876107e-002
2.196616e+003;4.869157e-002
2.198545e+003;4.870272e-002
2.200473e+003;4.899654e-002
2.202402e+003;4.930539e-002
2.204330e+003;4.924241e-002
2.206259e+003;4.882439e-002
2.208188e+003;4.854085e-002
2.210116e+003;4.857116e-002
2.212044e+003;4.884608e-002
2.213973e+003;4.911399e-002
2.215902e+003;4.923985e-002
2.217830e+003;4.918296e-002
2.219759e+003;4.919996e-002
2.221687e+003;4.902962e-002
2.223616e+003;4.894580e-002
2.225544e+003;4.916990e-002
2.227473e+003;4.913113e-002
2.229401e+003;4.904717e-002
2.231330e+003;4.918664e-002
2.233259e+003;4.915695e-002
2.235187e+003;4.936033e-002
2.237116e+003;4.952262e-002
2.239044e+003;4.911191e-002
2.240973e+003;4.892477e-002
2.242901e+003;4.910063e-002
2.244830e+003;4.924890e-002
2.246758e+003;4.921899e-002
2.248687e+003;4.895270e-002
2.250615e+003;4.885943e-002
2.252544e+003;4.883166e-002
2.254473e+003;4.887174e-002
2.256401e+003;4.883088e-002
2.258330e+003;4.881390e-002
2.260258e+003;4.884379e-002
2.262187e+003;4.862041e-002
2.264115e+003;4.824628e-002
2.266044e+003;4.824820e-002
2.267972e+003;4.831133e-002
2.269901e+003;4.813006e-002
2.271830e+003;4.796703e-002
2.273758e+003;4.772107e-002
2.275687e+003;4.772698e-002
2.277615e+003;4.792644e-002
2.279544e+003;4.765324e-002
2.281472e+003;4.758266e-002
2.283401e+003;4.780417e-002
2.285329e+003;4.771374e-002
2.287258e+003;4.750943e-002
2.289187e+003;4.756225e-002
2.291115e+003;4.759782e-002
2.293043e+003;4.755146e-002
2.294972e+003;4.744131e-002
2.296901e+003;4.748932e-002
2.298829e+003;4.766918e-002
2.300758e+003;4.749279e-002
2.302686e+003;4.729812e-002
2.304615e+003;4.734072e-002
2.306543e+003;4.721481e-002
2.308472e+003;4.724699e-002
2.310400e+003;4.734770e-002
2.312329e+003;4.733304e-002
2.314258e+003;4.731903e-002
2.316186e+003;4.717097e-002
2.318115e+003;4.699585e-002
2.320043e+003;4.706826e-002
2.321972e+003;4.707938e-002
2.323900e+003;4.687957e-002
2.325829e+003;4.690316e-002
2.327757e+003;4.695454e-002
2.329686e+003;4.662212e-002
2.331615e+003;4.637913e-002
2.333543e+003;4.633300e-002
2.335472e+003;4.659441e-002
2.337400e+003;4.687883e-002
2.339329e+003;4.697976e-002
2.341257e+003;4.707672e-002
2.343186e+003;4.733130e-002
2.345114e+003;4.758499e-002
2.347043e+003;4.764884e-002
2.348971e+003;4.760499e-002
2.350900e+003;4.763354e-002
2.352829e+003;4.776774e-002
2.354757e+003;4.772828e-002
2.356686e+003;4.753179e-002
2.358614e+003;4.720694e-002
2.360543e+003;4.698873e-002
2.362471e+003;4.729922e-002
2.364400e+003;4.765631e-002
2.366328e+003;4.778401e-002
2.368257e+003;4.791475e-002
2.370186e+003;4.822624e-002
2.372114e+003;4.828375e-002
2.374042e+003;4.862845e-002
2.375971e+003;4.896401e-002
2.377900e+003;4.917086e-002
2.379828e+003;4.942448e-002
2.381757e+003;4.969683e-002
2.383685e+003;5.000603e-002
2.385614e+003;5.033990e-002
2.387542e+003;5.019066e-002
2.389471e+003;4.990091e-002
2.391399e+003;4.983007e-002
2.393328e+003;5.009215e-002
2.395257e+003;5.048790e-002
2.397185e+003;5.057548e-002
2.399114e+003;5.044815e-002
2.401042e+003;5.052110e-002
2.402971e+003;5.044971e-002
2.404899e+003;5.022826e-002
2.406828e+003;5.033477e-002
2.408756e+003;5.043390e-002
2.410685e+003;5.036695e-002
2.412614e+003;5.063684e-002
2.414542e+003;5.115373e-002
2.416471e+003;5.130100e-002
2.418399e+003;5.099426e-002
2.420328e+003;5.089642e-002
2.422256e+003;5.118773e-002
2.424185e+003;5.161948e-002
2.426113e+003;5.181932e-002
2.428042e+003;5.178956e-002
2.429970e+003;5.183440e-002
2.431899e+003;5.196565e-002
2.433828e+003;5.198612e-002
2.435756e+003;5.186539e-002
2.437685e+003;5.190198e-002
2.439613e+003;5.183477e-002
2.441542e+003;5.185983e-002
2.443470e+003;5.226908e-002
2.445399e+003;5.237014e-002
2.447327e+003;5.204498e-002
2.449256e+003;5.220884e-002
2.451185e+003;5.255768e-002
2.453113e+003;5.251906e-002
2.455042e+003;5.234775e-002
2.456970e+003;5.241265e-002
2.458899e+003;5.237063e-002
2.460827e+003;5.234827e-002
2.462756e+003;5.257878e-002
2.464684e+003;5.264423e-002
2.466613e+003;5.257481e-002
2.468542e+003;5.298290e-002
2.470470e+003;5.338190e-002
2.472398e+003;5.315128e-002
2.474327e+003;5.301656e-002
2.476256e+003;5.307335e-002
2.478184e+003;5.329345e-002
2.480113e+003;5.317884e-002
2.482041e+003;5.297789e-002
2.483970e+003;5.303363e-002
2.485898e+003;5.334987e-002
2.487827e+003;5.333743e-002
2.489755e+003;5.329982e-002
2.491684e+003;5.338044e-002
2.493613e+003;5.330146e-002
2.495541e+003;5.314214e-002
2.497470e+003;5.340479e-002
2.499398e+003;5.359061e-002
2.501327e+003;5.352385e-002
2.503255e+003;5.378719e-002
2.505184e+003;5.394394e-002
2.507112e+003;5.384416e-002
2.509041e+003;5.402574e-002
2.510969e+003;5.431329e-002
2.512898e+003;5.439655e-002
2.514827e+003;5.448398e-002
2.516755e+003;5.448857e-002
2.518684e+003;5.462393e-002
2.520612e+003;5.493471e-002
2.522541e+003;5.496596e-002
2.524469e+003;5.475106e-002
2.526398e+003;5.464666e-002
2.528326e+003;5.469739e-002
2.530255e+003;5.488087e-002
2.532184e+003;5.484820e-002
2.534112e+003;5.499367e-002
2.536041e+003;5.535112e-002
2.537969e+003;5.512457e-002
2.539898e+003;5.467710e-002
2.541826e+003;5.482583e-002
2.543755e+003;5.510997e-002
2.545683e+003;5.510181e-002
2.547612e+003;5.487981e-002
2.549541e+003;5.489113e-002
2.551469e+003;5.518201e-002
2.553397e+003;5.527518e-002
2.555326e+003;5.504527e-002
2.557255e+003;5.511637e-002
2.559183e+003;5.544169e-002
2.561112e+003;5.565745e-002
2.563040e+003;5.557663e-002
2.564969e+003;5.516640e-002
2.566897e+003;5.501556e-002
2.568826e+003;5.531736e-002
2.570754e+003;5.551146e-002
2.572683e+003;5.542102e-002
2.574612e+003;5.519751e-002
2.576540e+003;5.534138e-002
2.578469e+003;5.576571e-002
2.580397e+003;5.564582e-002
2.582326e+003;5.554470e-002
2.584254e+003;5.579861e-002
2.586183e+003;5.587596e-002
2.588111e+003;5.597501e-002
2.590040e+003;5.629845e-002
2.591969e+003;5.637035e-002
2.593897e+003;5.613534e-002
2.595826e+003;5.596868e-002
2.597754e+003;5.595130e-002
2.599683e+003;5.587449e-002
2.601611e+003;5.586085e-002
2.603540e+003;5.616426e-002
2.605468e+003;5.663901e-002
2.607397e+003;5.670349e-002
2.609325e+003;5.677066e-002
2.611254e+003;5.683981e-002
2.613183e+003;5.676265e-002
2.615111e+003;5.690874e-002
2.617040e+003;5.691671e-002
2.618968e+003;5.688925e-002
2.620897e+003;5.681677e-002
2.622825e+003;5.693880e-002
2.624754e+003;5.701440e-002
2.626682e+003;5.694980e-002
2.628611e+003;5.713188e-002
2.630540e+003;5.743414e-002
2.632468e+003;5.730546e-002
2.634396e+003;5.715921e-002
2.636325e+003;5.746334e-002
2.638254e+003;5.771621e-002
2.640182e+003;5.762853e-002
2.642111e+003;5.752907e-002
2.644039e+003;5.753479e-002
2.645968e+003;5.758839e-002
2.647896e+003;5.760417e-002
2.649825e+003;5.767708e-002
2.651753e+003;5.770652e-002
2.653682e+003;5.756811e-002
2.655611e+003;5.755105e-002
2.657539e+003;5.778104e-002
2.659468e+003;5.778634e-002
2.661396e+003;5.789490e-002
2.663325e+003;5.810393e-002
2.665253e+003;5.816447e-002
2.667182e+003;5.811859e-002
2.669110e+003;5.846832e-002
2.671039e+003;5.860655e-002
2.672968e+003;5.842628e-002
2.674896e+003;5.846183e-002
2.676825e+003;5.841653e-002
2.678753e+003;5.838364e-002
2.680682e+003;5.864004e-002
2.682610e+003;5.867323e-002
2.684539e+003;5.875565e-002
2.686467e+003;5.887933e-002
2.688396e+003;5.865422e-002
2.690324e+003;5.852397e-002
2.692253e+003;5.877211e-002
2.694182e+003;5.915027e-002
2.696110e+003;5.967614e-002
2.698039e+003;5.982910e-002
2.699967e+003;5.975370e-002
2.701896e+003;5.967033e-002
2.703824e+003;5.978165e-002
2.705753e+003;5.995017e-002
2.707681e+003;5.982979e-002
2.709610e+003;5.999212e-002
2.711539e+003;6.008910e-002
2.713467e+003;5.993856e-002
2.715396e+003;6.017716e-002
2.717324e+003;6.059433e-002
2.719253e+003;6.074910e-002
2.721181e+003;6.055791e-002
2.723110e+003;6.044735e-002
2.725038e+003;6.057087e-002
2.726967e+003;6.086516e-002
2.728896e+003;6.109298e-002
2.730824e+003;6.123945e-002
2.732752e+003;6.085917e-002
2.734681e+003;6.057330e-002
2.736610e+003;6.076610e-002
2.738538e+003;6.109652e-002
2.740467e+003;6.121946e-002
2.742395e+003;6.126784e-002
2.744324e+003;6.145572e-002
2.746252e+003;6.147255e-002
2.748181e+003;6.158742e-002
2.750109e+003;6.147201e-002
2.752038e+003;6.121351e-002
2.753967e+003;6.151939e-002
2.755895e+003;6.181314e-002
2.757824e+003;6.168045e-002
2.759752e+003;6.163191e-002
2.761681e+003;6.166391e-002
2.763609e+003;6.165272e-002
2.765538e+003;6.163592e-002
2.767466e+003;6.171272e-002
2.769395e+003;6.209486e-002
2.771323e+003;6.226997e-002
2.773252e+003;6.234619e-002
2.775181e+003;6.267067e-002
2.777109e+003;6.267396e-002
2.779038e+003;6.241734e-002
2.780966e+003;6.246417e-002
2.782895e+003;6.291131e-002
2.784823e+003;6.293375e-002
2.786752e+003;6.283116e-002
2.788680e+003;6.311247e-002
2.790609e+003;6.361501e-002
2.792538e+003;6.377447e-002
2.794466e+003;6.369143e-002
2.796395e+003;6.395502e-002
2.798323e+003;6.428050e-002
2.800252e+003;6.442229e-002
2.802180e+003;6.466299e-002
2.804109e+003;6.476375e-002
2.806037e+003;6.483410e-002
2.807966e+003;6.539550e-002
2.809895e+003;6.615748e-002
2.811823e+003;6.646536e-002
2.813751e+003;6.664139e-002
2.815680e+003;6.694095e-002
2.817609e+003;6.710960e-002
2.819537e+003;6.735078e-002
2.821466e+003;6.778477e-002
2.823394e+003;6.822564e-002
2.825323e+003;6.859780e-002
2.827251e+003;6.921786e-002
2.829180e+003;6.999154e-002
2.831108e+003;7.061647e-002
2.833037e+003;7.147130e-002
2.834966e+003;7.228407e-002
2.836894e+003;7.340118e-002
2.838823e+003;7.524140e-002
2.840751e+003;7.734618e-002
2.842680e+003;8.011442e-002
2.844608e+003;8.408062e-002
2.846537e+003;9.002903e-002
2.848465e+003;9.620801e-002
2.850394e+003;9.753334e-002
2.852323e+003;9.374707e-002
2.854251e+003;8.913045e-002
2.856180e+003;8.572728e-002
2.858108e+003;8.390139e-002
2.860037e+003;8.345196e-002
2.861965e+003;8.399429e-002
2.863894e+003;8.459093e-002
2.865822e+003;8.501083e-002
2.867751e+003;8.546382e-002
2.869679e+003;8.594660e-002
2.871608e+003;8.689757e-002
2.873536e+003;8.772317e-002
2.875465e+003;8.741020e-002
2.877394e+003;8.693971e-002
2.879322e+003;8.690304e-002
2.881251e+003;8.670885e-002
2.883179e+003;8.662891e-002
2.885108e+003;8.723566e-002
2.887036e+003;8.814535e-002
2.888965e+003;8.897885e-002
2.890893e+003;8.958588e-002
2.892822e+003;9.052262e-002
2.894750e+003;9.136922e-002
2.896679e+003;9.230675e-002
2.898608e+003;9.311630e-002
2.900536e+003;9.372582e-002
2.902465e+003;9.400474e-002
2.904393e+003;9.402598e-002
2.906322e+003;9.485617e-002
2.908250e+003;9.633721e-002
2.910179e+003;9.839284e-002
2.912107e+003;1.015395e-001
2.914036e+003;1.057479e-001
2.915965e+003;1.094007e-001
2.917893e+003;1.103102e-001
2.919822e+003;1.089879e-001
2.921750e+003;1.058449e-001
2.923679e+003;1.016430e-001
2.925607e+003;9.752052e-002
2.927536e+003;9.379880e-002
2.929464e+003;9.092315e-002
2.931393e+003;8.896133e-002
2.933322e+003;8.723384e-002
2.935250e+003;8.554512e-002
2.937178e+003;8.434433e-002
2.939107e+003;8.354308e-002
2.941036e+003;8.273493e-002
2.942964e+003;8.181637e-002
2.944893e+003;8.086362e-002
2.946821e+003;8.044779e-002
2.948750e+003;8.047742e-002
2.950678e+003;8.024379e-002
2.952607e+003;8.043300e-002
2.954535e+003;8.098582e-002
2.956464e+003;8.108513e-002
2.958393e+003;8.113877e-002
2.960321e+003;8.114336e-002
2.962250e+003;8.036892e-002
2.964178e+003;7.893081e-002
2.966107e+003;7.702029e-002
2.968035e+003;7.509131e-002
2.969964e+003;7.326604e-002
2.971892e+003;7.190451e-002
2.973821e+003;7.039587e-002
2.975750e+003;6.867068e-002
2.977678e+003;6.745026e-002
2.979607e+003;6.606758e-002
2.981535e+003;6.487957e-002
2.983464e+003;6.418289e-002
2.985392e+003;6.351789e-002
2.987321e+003;6.253645e-002
2.989249e+003;6.186670e-002
2.991178e+003;6.158368e-002
2.993106e+003;6.131283e-002
2.995035e+003;6.097061e-002
2.996964e+003;6.080573e-002
2.998892e+003;6.096066e-002
3.000821e+003;6.104172e-002
3.002749e+003;6.096508e-002
3.004678e+003;6.081561e-002
3.006606e+003;6.034294e-002
3.008535e+003;6.032839e-002
3.010463e+003;6.045946e-002
3.012392e+003;6.075223e-002
3.014321e+003;6.090073e-002
3.016249e+003;6.062953e-002
3.018177e+003;6.065216e-002
3.020106e+003;6.122038e-002
3.022035e+003;6.180856e-002
3.023963e+003;6.224404e-002
3.025892e+003;6.242614e-002
3.027820e+003;6.257923e-002
3.029749e+003;6.304611e-002
3.031677e+003;6.312189e-002
3.033606e+003;6.262968e-002
3.035534e+003;6.240610e-002
3.037463e+003;6.275799e-002
3.039392e+003;6.275275e-002
3.041320e+003;6.256679e-002
3.043249e+003;6.240537e-002
3.045177e+003;6.208446e-002
3.047106e+003;6.228906e-002
3.049034e+003;6.247236e-002
3.050963e+003;6.274214e-002
3.052891e+003;6.288324e-002
3.054820e+003;6.291365e-002
3.056749e+003;6.315289e-002
3.058677e+003;6.354259e-002
3.060606e+003;6.366062e-002
3.062534e+003;6.341194e-002
3.064463e+003;6.301446e-002
3.066391e+003;6.331647e-002
3.068320e+003;6.388804e-002
3.070248e+003;6.391494e-002
3.072177e+003;6.382862e-002
3.074105e+003;6.369166e-002
3.076034e+003;6.335914e-002
3.077963e+003;6.361397e-002
3.079891e+003;6.420287e-002
3.081820e+003;6.454276e-002
3.083748e+003;6.476613e-002
3.085677e+003;6.500417e-002
3.087605e+003;6.513345e-002
3.089534e+003;6.512517e-002
3.091462e+003;6.499308e-002
3.093391e+003;6.495360e-002
3.095320e+003;6.514697e-002
3.097248e+003;6.513777e-002
3.099177e+003;6.540562e-002
3.101105e+003;6.598245e-002
3.103034e+003;6.636493e-002
3.104962e+003;6.627592e-002
3.106891e+003;6.624196e-002
3.108819e+003;6.656989e-002
3.110748e+003;6.643500e-002
3.112677e+003;6.590482e-002
3.114605e+003;6.585781e-002
3.116533e+003;6.625106e-002
3.118462e+003;6.685390e-002
3.120391e+003;6.722551e-002
3.122319e+003;6.756085e-002
3.124248e+003;6.779888e-002
3.126176e+003;6.789014e-002
3.128105e+003;6.842232e-002
3.130033e+003;6.911163e-002
3.131962e+003;6.931774e-002
3.133890e+003;6.902438e-002
3.135819e+003;6.878150e-002
3.137748e+003;6.877963e-002
3.139676e+003;6.929372e-002
3.141605e+003;6.966917e-002
3.143533e+003;6.998752e-002
3.145462e+003;7.053824e-002
3.147390e+003;7.082602e-002
3.149319e+003;7.089924e-002
3.151247e+003;7.081284e-002
3.153176e+003;7.078593e-002
3.155104e+003;7.110081e-002
3.157033e+003;7.158940e-002
3.158962e+003;7.214313e-002
3.160890e+003;7.264637e-002
3.162819e+003;7.324051e-002
3.164747e+003;7.384249e-002
3.166676e+003;7.411318e-002
3.168604e+003;7.395484e-002
3.170533e+003;7.397778e-002
3.172461e+003;7.459006e-002
3.174390e+003;7.504129e-002
3.176319e+003;7.560295e-002
3.178247e+003;7.589139e-002
3.180176e+003;7.590654e-002
3.182104e+003;7.631943e-002
3.184033e+003;7.665875e-002
3.185961e+003;7.709748e-002
3.187890e+003;7.751297e-002
3.189818e+003;7.766692e-002
3.191747e+003;7.788061e-002
3.193676e+003;7.844699e-002
3.195604e+003;7.885098e-002
3.197532e+003;7.898676e-002
3.199461e+003;7.946622e-002
3.201390e+003;8.007630e-002
3.203318e+003;7.998125e-002
3.205247e+003;8.015937e-002
3.207175e+003;8.095724e-002
3.209104e+003;8.198653e-002
3.211032e+003;8.265119e-002
3.212961e+003;8.300476e-002
3.214889e+003;8.333878e-002
3.216818e+003;8.362819e-002
3.218747e+003;8.391924e-002
3.220675e+003;8.431938e-002
3.222604e+003;8.517133e-002
3.224532e+003;8.599862e-002
3.226461e+003;8.595613e-002
3.228389e+003;8.611871e-002
3.230318e+003;8.709562e-002
3.232246e+003;8.840942e-002
3.234175e+003;8.882584e-002
3.236104e+003;8.892249e-002
3.238032e+003;8.979204e-002
3.239961e+003;9.053919e-002
3.241889e+003;9.120879e-002
3.243818e+003;9.175607e-002
3.245746e+003;9.242823e-002
3.247675e+003;9.330899e-002
3.249603e+003;9.438180e-002
3.251532e+003;9.535728e-002
3.253460e+003;9.610663e-002
3.255389e+003;9.671440e-002
3.257318e+003;9.717450e-002
3.259246e+003;9.771152e-002
3.261175e+003;9.822033e-002
3.263103e+003;9.863042e-002
3.265032e+003;9.929974e-002
3.266960e+003;1.001497e-001
3.268889e+003;1.004918e-001
3.270817e+003;1.006477e-001
3.272746e+003;1.009271e-001
3.274675e+003;1.016221e-001
3.276603e+003;1.021960e-001
3.278531e+003;1.026238e-001
3.280460e+003;1.029541e-001
3.282389e+003;1.027946e-001
3.284317e+003;1.026527e-001
3.286246e+003;1.029573e-001
3.288174e+003;1.033963e-001
3.290103e+003;1.034985e-001
3.292031e+003;1.031122e-001
3.293960e+003;1.027856e-001
3.295888e+003;1.024826e-001
3.297817e+003;1.024303e-001
3.299746e+003;1.023157e-001
3.301674e+003;1.021158e-001
3.303603e+003;1.022045e-001
3.305531e+003;1.025824e-001
3.307460e+003;1.025350e-001
3.309388e+003;1.022737e-001
3.311317e+003;1.021386e-001
3.313245e+003;1.021562e-001
3.315174e+003;1.020454e-001
3.317103e+003;1.022327e-001
3.319031e+003;1.030088e-001
3.320960e+003;1.034382e-001
3.322888e+003;1.036367e-001
3.324817e+003;1.043224e-001
3.326745e+003;1.048244e-001
3.328674e+003;1.051582e-001
3.330602e+003;1.057476e-001
3.332531e+003;1.059457e-001
3.334459e+003;1.054453e-001
3.336388e+003;1.045248e-001
3.338317e+003;1.040662e-001
3.340245e+003;1.038637e-001
3.342174e+003;1.030263e-001
3.344102e+003;1.024466e-001
3.346031e+003;1.017617e-001
3.347959e+003;1.005623e-001
3.349888e+003;9.979148e-002
3.351816e+003;9.871309e-002
3.353745e+003;9.748116e-002
3.355674e+003;9.699969e-002
3.357602e+003;9.673382e-002
3.359531e+003;9.586246e-002
3.361459e+003;9.475169e-002
3.363388e+003;9.386493e-002
3.365316e+003;9.327058e-002
3.367245e+003;9.250367e-002
3.369173e+003;9.165830e-002
3.371102e+003;9.127387e-002
3.373031e+003;9.069260e-002
3.374959e+003;9.030596e-002
3.376887e+003;8.972163e-002
3.378816e+003;8.867021e-002
3.380745e+003;8.804445e-002
3.382673e+003;8.734456e-002
3.384602e+003;8.682898e-002
3.386530e+003;8.723113e-002
3.388459e+003;8.736834e-002
3.390387e+003;8.657880e-002
3.392316e+003;8.581307e-002
3.394244e+003;8.557909e-002
3.396173e+003;8.541804e-002
3.398102e+003;8.478474e-002
3.400030e+003;8.397190e-002
3.401959e+003;8.344232e-002
3.403887e+003;8.279791e-002
3.405816e+003;8.246586e-002
3.407744e+003;8.269300e-002
3.409673e+003;8.249903e-002
3.411601e+003;8.190791e-002
3.413530e+003;8.101585e-002
3.415458e+003;7.955073e-002
3.417387e+003;7.813916e-002
3.419316e+003;7.757449e-002
3.421244e+003;7.711747e-002
3.423173e+003;7.651599e-002
3.425101e+003;7.571748e-002
3.427030e+003;7.527860e-002
3.428958e+003;7.471594e-002
3.430887e+003;7.407923e-002
3.432815e+003;7.444889e-002
3.434744e+003;7.420751e-002
3.436673e+003;7.332159e-002
3.438601e+003;7.237878e-002
3.440530e+003;7.138764e-002
3.442458e+003;7.106639e-002
3.444387e+003;7.109495e-002
3.446315e+003;7.063740e-002
3.448244e+003;6.942060e-002
3.450172e+003;6.836927e-002
3.452101e+003;6.807353e-002
3.454030e+003;6.762872e-002
3.455958e+003;6.721035e-002
3.457886e+003;6.687516e-002
3.459815e+003;6.620926e-002
3.461744e+003;6.568541e-002
3.463672e+003;6.528920e-002
3.465601e+003;6.498954e-002
3.467529e+003;6.497023e-002
3.469458e+003;6.435620e-002
3.471386e+003;6.319869e-002
3.473315e+003;6.253519e-002
3.475243e+003;6.222890e-002
3.477172e+003;6.175019e-002
3.479101e+003;6.145472e-002
3.481029e+003;6.080402e-002
3.482958e+003;5.985177e-002
3.484886e+003;5.979823e-002
3.486815e+003;5.936511e-002
3.488743e+003;5.833065e-002
3.490672e+003;5.784217e-002
3.492600e+003;5.811026e-002
3.494529e+003;5.786681e-002
3.496458e+003;5.738853e-002
3.498386e+003;5.711964e-002
3.500315e+003;5.645668e-002
3.502243e+003;5.537544e-002
3.504172e+003;5.497228e-002
3.506100e+003;5.519571e-002
3.508029e+003;5.502169e-002
3.509957e+003;5.493949e-002
3.511886e+003;5.477301e-002
3.513814e+003;5.409388e-002
3.515743e+003;5.370330e-002
3.517672e+003;5.406285e-002
3.519600e+003;5.369708e-002
3.521529e+003;5.283361e-002
3.523457e+003;5.165904e-002
3.525386e+003;5.131181e-002
3.527314e+003;5.116313e-002
3.529243e+003;5.131084e-002
3.531171e+003;5.171468e-002
3.533100e+003;5.144678e-002
3.535029e+003;5.093673e-002
3.536957e+003;5.015228e-002
3.538885e+003;4.956407e-002
3.540814e+003;4.930536e-002
3.542743e+003;4.883285e-002
3.544671e+003;4.844745e-002
3.546600e+003;4.835270e-002
3.548528e+003;4.808579e-002
3.550457e+003;4.806443e-002
3.552385e+003;4.807232e-002
3.554314e+003;4.802557e-002
3.556242e+003;4.767162e-002
3.558171e+003;4.701243e-002
3.560100e+003;4.636464e-002
3.562028e+003;4.609736e-002
3.563957e+003;4.538618e-002
3.565885e+003;4.414682e-002
3.567814e+003;4.414238e-002
3.569742e+003;4.492886e-002
3.571671e+003;4.523804e-002
3.573599e+003;4.505778e-002
3.575528e+003;4.476865e-002
3.577457e+003;4.465479e-002
3.579385e+003;4.415093e-002
3.581314e+003;4.380488e-002
3.583242e+003;4.394780e-002
3.585171e+003;4.326609e-002
3.587099e+003;4.211839e-002
3.589028e+003;4.258299e-002
3.590956e+003;4.337141e-002
3.592885e+003;4.277381e-002
3.594813e+003;4.252072e-002
3.596742e+003;4.273772e-002
3.598671e+003;4.257798e-002
3.600599e+003;4.247829e-002
3.602528e+003;4.229052e-002
3.604456e+003;4.184419e-002
3.606385e+003;4.083981e-002
3.608313e+003;3.981731e-002
3.610242e+003;3.993960e-002
3.612170e+003;3.953687e-002
3.614099e+003;3.925134e-002
3.616028e+003;3.921460e-002
3.617956e+003;3.854512e-002
3.619885e+003;3.903466e-002
3.621813e+003;4.043319e-002
3.623742e+003;4.016811e-002
3.625670e+003;3.849791e-002
3.627599e+003;3.560653e-002
3.629527e+003;3.539766e-002
3.631456e+003;3.771672e-002
3.633385e+003;3.834178e-002
3.635313e+003;3.832021e-002
3.637241e+003;3.853328e-002
3.639170e+003;3.852419e-002
3.641099e+003;3.836060e-002
3.643027e+003;3.794255e-002
3.644956e+003;3.724932e-002
3.646884e+003;3.503546e-002
3.648813e+003;3.265950e-002
3.650741e+003;3.323840e-002
3.652670e+003;3.464808e-002
3.654598e+003;3.442471e-002
3.656527e+003;3.428747e-002
3.658456e+003;3.521904e-002
3.660384e+003;3.542919e-002
3.662313e+003;3.566814e-002
3.664241e+003;3.555291e-002
3.666170e+003;3.452289e-002
3.668098e+003;3.213492e-002
3.670027e+003;3.070037e-002
3.671955e+003;3.206550e-002
3.673884e+003;3.035674e-002
3.675813e+003;2.893870e-002
3.677741e+003;3.139034e-002
3.679669e+003;3.272409e-002
3.681598e+003;3.284526e-002
3.683527e+003;3.262357e-002
3.685455e+003;3.192704e-002
3.687384e+003;2.872398e-002
3.689312e+003;2.836330e-002
3.691241e+003;3.048297e-002
3.693169e+003;3.144345e-002
3.695098e+003;3.164743e-002
3.697026e+003;3.152995e-002
3.698955e+003;3.122173e-002
3.700884e+003;3.026067e-002
3.702812e+003;3.047903e-002
3.704741e+003;3.124615e-002
3.706669e+003;3.092930e-002
3.708598e+003;2.993879e-002
3.710526e+003;2.863542e-002
3.712455e+003;2.838895e-002
3.714383e+003;3.006724e-002
3.716312e+003;3.120727e-002
3.718240e+003;3.103296e-002
3.720169e+003;3.085783e-002
3.722098e+003;3.059061e-002
3.724026e+003;3.043190e-002
3.725955e+003;2.991078e-002
3.727883e+003;2.979320e-002
3.729812e+003;2.927752e-002
3.731740e+003;2.793101e-002
3.733669e+003;2.752308e-002
3.735597e+003;2.729164e-002
3.737526e+003;2.864583e-002
3.739455e+003;2.995249e-002
3.741383e+003;2.908251e-002
3.743312e+003;2.531784e-002
3.745240e+003;2.582398e-002
3.747169e+003;2.770041e-002
3.749097e+003;2.527942e-002
3.751026e+003;2.457587e-002
3.752954e+003;2.752407e-002
3.754883e+003;3.039007e-002
3.756812e+003;3.007030e-002
3.758740e+003;2.950968e-002
3.760668e+003;3.017144e-002
3.762597e+003;3.108891e-002
3.764526e+003;3.048379e-002
3.766454e+003;3.025427e-002
3.768383e+003;2.975455e-002
3.770311e+003;3.000322e-002
3.772240e+003;3.123625e-002
3.774168e+003;3.201642e-002
3.776097e+003;3.165481e-002
3.778025e+003;3.058478e-002
3.779954e+003;3.088426e-002
3.781883e+003;3.167848e-002
3.783811e+003;3.120987e-002
3.785740e+003;3.011149e-002
3.787668e+003;2.998583e-002
3.789597e+003;3.100712e-002
3.791525e+003;3.096905e-002
3.793454e+003;3.088063e-002
3.795382e+003;3.060927e-002
3.797311e+003;3.063025e-002
3.799240e+003;2.903465e-002
3.801168e+003;2.732530e-002
3.803097e+003;2.943663e-002
3.805025e+003;2.969583e-002
3.806954e+003;2.892775e-002
3.808882e+003;3.039533e-002
3.810811e+003;3.144833e-002
3.812739e+003;3.159993e-002
3.814668e+003;2.918949e-002
3.816596e+003;2.836313e-002
3.818525e+003;2.931609e-002
3.820454e+003;2.792967e-002
3.822382e+003;2.838552e-002
3.824311e+003;3.067900e-002
3.826239e+003;3.165841e-002
3.828168e+003;3.165673e-002
3.830096e+003;3.066840e-002
3.832025e+003;3.025069e-002
3.833953e+003;2.997123e-002
3.835882e+003;2.853920e-002
3.837811e+003;2.795571e-002
3.839739e+003;2.976761e-002
3.841667e+003;3.044245e-002
3.843596e+003;3.053220e-002
3.845525e+003;3.161764e-002
3.847453e+003;3.181026e-002
3.849382e+003;2.981112e-002
3.851310e+003;2.604895e-002
3.853239e+003;2.411374e-002
3.855167e+003;2.832468e-002
3.857096e+003;3.197426e-002
3.859024e+003;3.215826e-002
3.860953e+003;3.149877e-002
3.862882e+003;3.002797e-002
3.864810e+003;2.974717e-002
3.866739e+003;3.130547e-002
3.868667e+003;3.034700e-002
3.870596e+003;3.007857e-002
3.872524e+003;3.089664e-002
3.874453e+003;3.139707e-002
3.876381e+003;3.252739e-002
3.878310e+003;3.200942e-002
3.880239e+003;3.081813e-002
3.882167e+003;3.090788e-002
3.884096e+003;3.031847e-002
3.886024e+003;3.007250e-002
3.887953e+003;3.161807e-002
3.889881e+003;3.174349e-002
3.891810e+003;3.196894e-002
3.893738e+003;3.298208e-002
3.895667e+003;3.354692e-002
3.897595e+003;3.256353e-002
3.899524e+003;3.072914e-002
3.901453e+003;2.982897e-002
3.903381e+003;3.019438e-002
3.905310e+003;3.231771e-002
3.907238e+003;3.420156e-002
3.909167e+003;3.411708e-002
3.911095e+003;3.334812e-002
3.913024e+003;3.315071e-002
3.914952e+003;3.317621e-002
3.916881e+003;3.259632e-002
3.918810e+003;3.247968e-002
3.920738e+003;3.326090e-002
3.922667e+003;3.324699e-002
3.924595e+003;3.271288e-002
3.926524e+003;3.310690e-002
3.928452e+003;3.313637e-002
3.930381e+003;3.272220e-002
3.932309e+003;3.306328e-002
3.934238e+003;3.363803e-002
3.936167e+003;3.379308e-002
3.938095e+003;3.394708e-002
3.940023e+003;3.399649e-002
3.941952e+003;3.342645e-002
3.943881e+003;3.321236e-002
3.945809e+003;3.329886e-002
3.947738e+003;3.288786e-002
3.949666e+003;3.309181e-002
3.951595e+003;3.408808e-002
3.953523e+003;3.487838e-002
3.955452e+003;3.523948e-002
3.957380e+003;3.565199e-002
3.959309e+003;3.543149e-002
3.961238e+003;3.493156e-002
3.963166e+003;3.477452e-002
3.965095e+003;3.463512e-002
3.967023e+003;3.432551e-002
3.968952e+003;3.496345e-002
3.970880e+003;3.595672e-002
3.972809e+003;3.546719e-002
3.974737e+003;3.442284e-002
3.976666e+003;3.439473e-002
3.978594e+003;3.501308e-002
3.980523e+003;3.464969e-002
3.982452e+003;3.409887e-002
3.984380e+003;3.436073e-002
3.986309e+003;3.456494e-002
3.988237e+003;3.480170e-002
3.990166e+003;3.504778e-002
3.992094e+003;3.535485e-002
3.994023e+003;3.588244e-002
3.995951e+003;3.619867e-002
3.997880e+003;3.501042e-002
3.999809e+003;3.423727e-002
4.001737e+003;0.000000e+000
