3.992094e+002;0.000000e+000
4.011380e+002;0.000000e+000
4.030665e+002;0.000000e+000
4.049951e+002;0.000000e+000
4.069236e+002;0.000000e+000
4.088522e+002;0.000000e+000
4.107807e+002;0.000000e+000
4.127093e+002;0.000000e+000
4.146378e+002;0.000000e+000
4.165664e+002;0.000000e+000
4.184949e+002;0.000000e+000
4.204235e+002;0.000000e+000
4.223520e+002;0.000000e+000
4.242806e+002;0.000000e+000
4.262091e+002;0.000000e+000
4.281377e+002;0.000000e+000
4.300662e+002;0.000000e+000
4.319948e+002;0.000000e+000
4.339233e+002;0.000000e+000
4.358519e+002;0.000000e+000
4.377804e+002;0.000000e+000
4.397090e+002;0.000000e+000
4.416375e+002;0.000000e+000
4.435660e+002;0.000000e+000
4.454946e+002;0.000000e+000
4.474232e+002;0.000000e+000
4.493517e+002;0.000000e+000
4.512802e+002;0.000000e+000
4.532088e+002;0.000000e+000
4.551373e+002;0.000000e+000
4.570659e+002;0.000000e+000
4.589944e+002;0.000000e+000
4.609230e+002;0.000000e+000
4.628515e+002;0.000000e+000
4.647801e+002;0.000000e+000
4.667086e+002;0.000000e+000
4.686372e+002;0.000000e+000
4.705657e+002;0.000000e+000
4.724943e+002;0.000000e+000
4.744228e+002;0.000000e+000
4.763513e+002;0.000000e+000
4.782799e+002;0.000000e+000
4.802085e+002;0.000000e+000
4.821370e+002;0.000000e+000
4.840656e+002;0.000000e+000
4.859941e+002;0.000000e+000
4.879226e+002;0.000000e+000
4.898512e+002;0.000000e+000
4.917798e+002;0.000000e+000
4.937083e+002;0.000000e+000
4.956368e+002;0.000000e+000
4.975654e+002;0.000000e+000
4.994939e+002;0.000000e+000
5.014225e+002;0.000000e+000
5.033510e+002;0.000000e+000
5.052796e+002;0.000000e+000
5.072081e+002;0.000000e+000
5.091367e+002;0.000000e+000
5.110652e+002;0.000000e+000
5.129938e+002;0.000000e+000
5.149223e+002;0.000000e+000
5.168509e+002;0.000000e+000
5.187794e+002;0.000000e+000
5.207079e+002;0.000000e+000
5.226365e+002;0.000000e+000
5.245651e+002;0.000000e+000
5.264936e+002;0.000000e+000
5.284222e+002;0.000000e+000
5.303507e+002;0.000000e+000
5.322792e+002;0.000000e+000
5.342078e+002;0.000000e+000
5.361364e+002;0.000000e+000
5.380649e+002;0.000000e+000
5.399935e+002;0.000000e+000
5.419220e+002;0.000000e+000
5.438505e+002;0.000000e+000
5.457791e+002;0.000000e+000
5.477076e+002;0.000000e+000
5.496362e+002;0.000000e+000
5.515648e+002;0.000000e+000
5.534933e+002;0.000000e+000
5.554218e+002;0.000000e+000
5.573504e+002;0.000000e+000
5.592789e+002;0.000000e+000
5.612075e+002;0.000000e+000
5.631360e+002;0.000000e+000
5.650646e+002;0.000000e+000
5.669931e+002;0.000000e+000
5.689217e+002;0.000000e+000
5.708502e+002;0.000000e+000
5.727787e+002;0.000000e+000
5.747073e+002;0.000000e+000
5.766359e+002;0.000000e+000
5.785644e+002;0.000000e+000
5.804930e+002;0.000000e+000
5.824215e+002;0.000000e+000
5.843500e+002;0.000000e+000
5.862786e+002;0.000000e+000
5.882072e+002;0.000000e+000
5.901357e+002;0.000000e+000
5.920643e+002;0.000000e+000
5.939928e+002;0.000000e+000
5.959213e+002;0.000000e+000
5.978499e+002;0.000000e+000
5.997784e+002;2.341382e-001
6.017070e+002;2.400036e-001
6.036355e+002;2.471191e-001
6.055641e+002;2.507284e-001
6.074926e+002;2.522248e-001
6.094211e+002;2.509251e-001
6.113497e+002;2.468124e-001
6.132783e+002;2.520053e-001
6.152068e+002;2.539099e-001
6.171354e+002;2.517122e-001
6.190639e+002;2.499806e-001
6.209924e+002;2.461841e-001
6.229210e+002;2.412642e-001
6.248495e+002;2.336920e-001
6.267781e+002;2.279553e-001
6.287067e+002;2.269734e-001
6.306352e+002;2.270770e-001
6.325637e+002;2.221814e-001
6.344923e+002;2.123679e-001
6.364208e+002;2.074160e-001
6.383494e+002;2.085254e-001
6.402780e+002;2.108684e-001
6.422065e+002;2.098769e-001
6.441350e+002;2.090561e-001
6.460636e+002;2.097514e-001
6.479921e+002;2.108151e-001
6.499207e+002;2.108803e-001
6.518492e+002;2.069892e-001
6.537778e+002;2.079688e-001
6.557063e+002;2.164551e-001
6.576349e+002;2.224001e-001
6.595634e+002;2.253647e-001
6.614919e+002;2.263217e-001
6.634205e+002;2.268455e-001
6.653491e+002;2.262776e-001
6.672776e+002;2.234602e-001
6.692062e+002;2.203929e-001
6.711347e+002;2.166107e-001
6.730632e+002;2.115113e-001
6.749918e+002;2.055537e-001
6.769203e+002;2.006486e-001
6.788489e+002;1.970529e-001
6.807775e+002;1.936353e-001
6.827060e+002;1.912202e-001
6.846345e+002;1.893852e-001
6.865631e+002;1.876241e-001
6.884916e+002;1.879256e-001
6.904202e+002;1.895677e-001
6.923488e+002;1.923520e-001
6.942773e+002;1.957053e-001
6.962058e+002;1.992733e-001
6.981344e+002;2.023300e-001
7.000629e+002;2.041013e-001
7.019915e+002;2.020965e-001
7.039200e+002;1.960415e-001
7.058486e+002;1.897871e-001
7.077771e+002;1.846747e-001
7.097057e+002;1.806341e-001
7.116342e+002;1.763152e-001
7.135627e+002;1.729876e-001
7.154913e+002;1.708566e-001
7.174199e+002;1.674381e-001
7.193484e+002;1.636963e-001
7.212770e+002;1.595324e-001
7.232055e+002;1.551822e-001
7.251340e+002;1.514716e-001
7.270626e+002;1.493483e-001
7.289911e+002;1.471659e-001
7.309197e+002;1.454808e-001
7.328483e+002;1.436455e-001
7.347768e+002;1.406986e-001
7.367053e+002;1.384451e-001
7.386339e+002;1.360020e-001
7.405624e+002;1.339488e-001
7.424910e+002;1.341518e-001
7.444196e+002;1.341887e-001
7.463481e+002;1.331831e-001
7.482766e+002;1.316689e-001
7.502052e+002;1.298004e-001
7.521337e+002;1.286985e-001
7.540623e+002;1.293707e-001
7.559908e+002;1.297548e-001
7.579194e+002;1.293325e-001
7.598479e+002;1.288223e-001
7.617765e+002;1.284609e-001
7.637050e+002;1.272816e-001
7.656335e+002;1.257640e-001
7.675621e+002;1.247410e-001
7.694907e+002;1.231520e-001
7.714192e+002;1.208274e-001
7.733478e+002;1.194111e-001
7.752763e+002;1.192744e-001
7.772048e+002;1.182510e-001
7.791334e+002;1.171520e-001
7.810620e+002;1.174059e-001
7.829905e+002;1.176107e-001
7.849191e+002;1.174328e-001
7.868476e+002;1.180407e-001
7.887761e+002;1.186405e-001
7.907047e+002;1.190830e-001
7.926332e+002;1.198926e-001
7.945618e+002;1.209714e-001
7.964903e+002;1.212163e-001
7.984189e+002;1.214641e-001
8.003474e+002;1.226670e-001
8.022759e+002;1.232578e-001
8.042045e+002;1.229829e-001
8.061331e+002;1.224745e-001
8.080616e+002;1.218358e-001
8.099902e+002;1.211191e-001
8.119187e+002;1.213035e-001
8.138472e+002;1.219514e-001
8.157758e+002;1.214836e-001
8.177043e+002;1.201079e-001
8.196329e+002;1.191901e-001
8.215615e+002;1.181723e-001
8.234900e+002;1.178254e-001
8.254185e+002;1.175762e-001
8.273471e+002;1.167399e-001
8.292756e+002;1.153638e-001
8.312042e+002;1.144086e-001
8.331328e+002;1.142217e-001
8.350613e+002;1.141983e-001
8.369898e+002;1.142580e-001
8.389184e+002;1.140672e-001
8.408469e+002;1.137412e-001
8.427755e+002;1.138008e-001
8.447040e+002;1.133482e-001
8.466326e+002;1.124908e-001
8.485611e+002;1.123251e-001
8.504897e+002;1.126219e-001
8.524182e+002;1.129845e-001
8.543467e+002;1.140035e-001
8.562753e+002;1.150883e-001
8.582039e+002;1.151855e-001
8.601324e+002;1.155004e-001
8.620610e+002;1.165649e-001
8.639895e+002;1.175198e-001
8.659180e+002;1.182731e-001
8.678466e+002;1.193787e-001
8.697751e+002;1.204723e-001
8.717037e+002;1.219108e-001
8.736323e+002;1.235797e-001
8.755608e+002;1.254349e-001
8.774893e+002;1.273854e-001
8.794179e+002;1.292545e-001
8.813464e+002;1.307208e-001
8.832750e+002;1.328169e-001
8.852036e+002;1.353356e-001
8.871321e+002;1.382955e-001
8.890606e+002;1.416496e-001
8.909892e+002;1.441196e-001
8.929177e+002;1.456155e-001
8.948463e+002;1.467380e-001
8.967748e+002;1.477218e-001
8.987034e+002;1.481216e-001
9.006319e+002;1.477816e-001
9.025605e+002;1.475378e-001
9.044890e+002;1.472804e-001
9.064175e+002;1.461778e-001
9.083461e+002;1.449310e-001
9.102747e+002;1.439737e-001
9.122032e+002;1.428011e-001
9.141318e+002;1.418076e-001
9.160603e+002;1.414316e-001
9.179888e+002;1.415299e-001
9.199174e+002;1.419520e-001
9.218459e+002;1.428372e-001
9.237745e+002;1.443815e-001
9.257031e+002;1.463987e-001
9.276316e+002;1.483932e-001
9.295601e+002;1.504460e-001
9.314887e+002;1.528549e-001
9.334172e+002;1.557573e-001
9.353458e+002;1.584356e-001
9.372744e+002;1.602382e-001
9.392029e+002;1.615132e-001
9.411314e+002;1.634452e-001
9.430600e+002;1.660926e-001
9.449885e+002;1.689147e-001
9.469171e+002;1.718882e-001
9.488456e+002;1.751159e-001
9.507742e+002;1.786907e-001
9.527027e+002;1.826139e-001
9.546313e+002;1.867227e-001
9.565598e+002;1.911183e-001
9.584883e+002;1.960370e-001
9.604169e+002;2.010130e-001
9.623455e+002;2.066008e-001
9.642740e+002;2.123122e-001
9.662026e+002;2.177628e-001
9.681311e+002;2.236893e-001
9.700596e+002;2.304654e-001
9.719882e+002;2.388273e-001
9.739167e+002;2.492104e-001
9.758453e+002;2.611041e-001
9.777739e+002;2.736903e-001
9.797024e+002;2.869889e-001
9.816309e+002;2.984295e-001
9.835595e+002;3.049721e-001
9.854880e+002;3.063539e-001
9.874166e+002;3.060167e-001
9.893452e+002;3.071729e-001
9.912737e+002;3.105475e-001
9.932022e+002;3.154752e-001
9.951307e+002;3.217636e-001
9.970593e+002;3.278998e-001
9.989879e+002;3.325326e-001
1.000916e+003;3.353363e-001
1.002845e+003;3.369796e-001
1.004773e+003;3.381882e-001
1.006702e+003;3.388385e-001
1.008631e+003;3.399307e-001
1.010559e+003;3.415766e-001
1.012488e+003;3.438447e-001
1.014416e+003;3.474926e-001
1.016345e+003;3.516048e-001
1.018273e+003;3.556876e-001
1.020202e+003;3.601361e-001
1.022130e+003;3.651396e-001
1.024059e+003;3.702013e-001
1.025988e+003;3.751962e-001
1.027916e+003;3.799357e-001
1.029845e+003;3.824939e-001
1.031773e+003;3.820296e-001
1.033702e+003;3.779719e-001
1.035630e+003;3.702027e-001
1.037559e+003;3.608708e-001
1.039487e+003;3.524013e-001
1.041416e+003;3.469700e-001
1.043344e+003;3.461297e-001
1.045273e+003;3.498760e-001
1.047202e+003;3.564958e-001
1.049130e+003;3.642362e-001
1.051059e+003;3.706692e-001
1.052987e+003;3.746337e-001
1.054916e+003;3.755040e-001
1.056844e+003;3.719261e-001
1.058773e+003;3.633132e-001
1.060701e+003;3.490895e-001
1.062630e+003;3.296519e-001
1.064558e+003;3.100549e-001
1.066487e+003;2.929977e-001
1.068416e+003;2.781600e-001
1.070344e+003;2.668549e-001
1.072273e+003;2.589037e-001
1.074201e+003;2.531140e-001
1.076130e+003;2.482224e-001
1.078058e+003;2.426671e-001
1.079987e+003;2.374444e-001
1.081915e+003;2.341220e-001
1.083844e+003;2.335644e-001
1.085773e+003;2.339064e-001
1.087701e+003;2.347366e-001
1.089630e+003;2.364801e-001
1.091558e+003;2.388335e-001
1.093487e+003;2.421670e-001
1.095415e+003;2.456437e-001
1.097344e+003;2.491744e-001
1.099272e+003;2.529590e-001
1.101201e+003;2.556106e-001
1.103129e+003;2.567584e-001
1.105058e+003;2.565509e-001
1.106987e+003;2.549684e-001
1.108915e+003;2.524502e-001
1.110844e+003;2.483743e-001
1.112772e+003;2.414281e-001
1.114701e+003;2.314284e-001
1.116629e+003;2.191634e-001
1.118558e+003;2.066593e-001
1.120486e+003;1.971091e-001
1.122415e+003;1.900560e-001
1.124344e+003;1.830460e-001
1.126272e+003;1.755298e-001
1.128201e+003;1.680682e-001
1.130129e+003;1.618492e-001
1.132058e+003;1.573106e-001
1.133986e+003;1.541644e-001
1.135915e+003;1.519945e-001
1.137843e+003;1.514298e-001
1.139772e+003;1.526270e-001
1.141700e+003;1.560362e-001
1.143629e+003;1.614788e-001
1.145557e+003;1.672244e-001
1.147486e+003;1.723794e-001
1.149415e+003;1.764624e-001
1.151343e+003;1.799323e-001
1.153272e+003;1.835575e-001
1.155200e+003;1.869626e-001
1.157129e+003;1.896428e-001
1.159057e+003;1.913627e-001
1.160986e+003;1.911770e-001
1.162914e+003;1.875988e-001
1.164843e+003;1.809703e-001
1.166771e+003;1.725880e-001
1.168700e+003;1.634259e-001
1.170629e+003;1.549838e-001
1.172557e+003;1.474494e-001
1.174486e+003;1.408516e-001
1.176414e+003;1.359541e-001
1.178343e+003;1.318375e-001
1.180271e+003;1.278857e-001
1.182200e+003;1.246294e-001
1.184128e+003;1.221565e-001
1.186057e+003;1.206340e-001
1.187986e+003;1.198759e-001
1.189914e+003;1.201383e-001
1.191843e+003;1.213949e-001
1.193771e+003;1.231086e-001
1.195700e+003;1.250819e-001
1.197628e+003;1.268463e-001
1.199557e+003;1.280868e-001
1.201485e+003;1.289154e-001
1.203414e+003;1.292158e-001
1.205343e+003;1.287177e-001
1.207271e+003;1.271035e-001
1.209200e+003;1.241328e-001
1.211128e+003;1.203735e-001
1.213057e+003;1.177521e-001
1.214985e+003;1.171596e-001
1.216914e+003;1.174994e-001
1.218842e+003;1.183092e-001
1.220771e+003;1.195889e-001
1.222699e+003;1.212267e-001
1.224628e+003;1.230456e-001
1.226557e+003;1.249244e-001
1.228485e+003;1.268810e-001
1.230414e+003;1.285263e-001
1.232342e+003;1.303587e-001
1.234271e+003;1.322718e-001
1.236199e+003;1.335106e-001
1.238128e+003;1.342084e-001
1.240056e+003;1.347854e-001
1.241985e+003;1.357097e-001
1.243913e+003;1.370225e-001
1.245842e+003;1.383559e-001
1.247771e+003;1.394905e-001
1.249699e+003;1.398916e-001
1.251628e+003;1.402380e-001
1.253556e+003;1.410354e-001
1.255485e+003;1.423824e-001
1.257413e+003;1.436994e-001
1.259342e+003;1.445243e-001
1.261270e+003;1.448177e-001
1.263199e+003;1.439525e-001
1.265127e+003;1.419710e-001
1.267056e+003;1.398369e-001
1.268985e+003;1.383636e-001
1.270913e+003;1.377854e-001
1.272842e+003;1.375165e-001
1.274770e+003;1.371232e-001
1.276699e+003;1.364728e-001
1.278627e+003;1.355950e-001
1.280556e+003;1.342726e-001
1.282484e+003;1.322974e-001
1.284413e+003;1.307472e-001
1.286342e+003;1.297763e-001
1.288270e+003;1.288332e-001
1.290199e+003;1.283225e-001
1.292127e+003;1.283737e-001
1.294056e+003;1.288307e-001
1.295984e+003;1.296914e-001
1.297913e+003;1.311324e-001
1.299841e+003;1.333599e-001
1.301770e+003;1.362254e-001
1.303698e+003;1.396875e-001
1.305627e+003;1.434503e-001
1.307556e+003;1.472613e-001
1.309484e+003;1.509938e-001
1.311413e+003;1.538805e-001
1.313341e+003;1.555490e-001
1.315270e+003;1.554760e-001
1.317198e+003;1.532632e-001
1.319127e+003;1.499595e-001
1.321055e+003;1.464925e-001
1.322984e+003;1.435828e-001
1.324912e+003;1.416128e-001
1.326841e+003;1.407445e-001
1.328770e+003;1.410514e-001
1.330698e+003;1.422814e-001
1.332627e+003;1.438534e-001
1.334555e+003;1.445605e-001
1.336484e+003;1.437057e-001
1.338412e+003;1.416133e-001
1.340341e+003;1.392483e-001
1.342269e+003;1.370018e-001
1.344198e+003;1.343578e-001
1.346126e+003;1.315198e-001
1.348055e+003;1.295874e-001
1.349984e+003;1.289105e-001
1.351912e+003;1.294614e-001
1.353841e+003;1.304451e-001
1.355769e+003;1.311955e-001
1.357698e+003;1.319216e-001
1.359626e+003;1.321421e-001
1.361555e+003;1.313197e-001
1.363483e+003;1.302391e-001
1.365412e+003;1.296702e-001
1.367341e+003;1.291742e-001
1.369269e+003;1.286836e-001
1.371198e+003;1.274611e-001
1.373126e+003;1.246074e-001
1.375055e+003;1.215497e-001
1.376983e+003;1.193450e-001
1.378912e+003;1.167055e-001
1.380840e+003;1.137326e-001
1.382769e+003;1.111563e-001
1.384698e+003;1.087135e-001
1.386626e+003;1.063964e-001
1.388555e+003;1.057935e-001
1.390483e+003;1.060190e-001
1.392412e+003;1.057290e-001
1.394340e+003;1.053905e-001
1.396269e+003;1.059795e-001
1.398197e+003;1.061938e-001
1.400126e+003;1.061585e-001
1.402054e+003;1.063209e-001
1.403983e+003;1.060687e-001
1.405911e+003;1.061336e-001
1.407840e+003;1.064102e-001
1.409769e+003;1.063734e-001
1.411697e+003;1.066370e-001
1.413626e+003;1.073862e-001
1.415554e+003;1.082529e-001
1.417483e+003;1.086791e-001
1.419411e+003;1.099432e-001
1.421340e+003;1.131868e-001
1.423268e+003;1.155629e-001
1.425197e+003;1.170812e-001
1.427125e+003;1.180971e-001
1.429054e+003;1.182781e-001
1.430983e+003;1.184290e-001
1.432911e+003;1.180117e-001
1.434840e+003;1.155282e-001
1.436768e+003;1.132774e-001
1.438697e+003;1.143778e-001
1.440625e+003;1.156836e-001
1.442554e+003;1.166881e-001
1.444482e+003;1.179316e-001
1.446411e+003;1.189206e-001
1.448340e+003;1.199476e-001
1.450268e+003;1.215281e-001
1.452197e+003;1.221824e-001
1.454125e+003;1.202186e-001
1.456054e+003;1.146724e-001
1.457982e+003;1.123086e-001
1.459911e+003;1.132532e-001
1.461839e+003;1.122915e-001
1.463768e+003;1.085240e-001
1.465697e+003;1.053464e-001
1.467625e+003;1.037726e-001
1.469554e+003;1.015110e-001
1.471482e+003;9.842817e-002
1.473411e+003;9.604116e-002
1.475339e+003;9.331798e-002
1.477268e+003;9.048194e-002
1.479196e+003;8.860747e-002
1.481125e+003;8.700776e-002
1.483053e+003;8.539832e-002
1.484982e+003;8.295502e-002
1.486911e+003;8.039978e-002
1.488839e+003;7.861859e-002
1.490768e+003;7.893248e-002
1.492696e+003;8.080811e-002
1.494625e+003;8.013762e-002
1.496553e+003;7.750909e-002
1.498482e+003;7.638809e-002
1.500410e+003;7.587699e-002
1.502339e+003;7.510340e-002
1.504267e+003;7.218800e-002
1.506196e+003;6.919917e-002
1.508125e+003;7.113055e-002
1.510053e+003;7.399447e-002
1.511982e+003;7.470787e-002
1.513910e+003;7.489347e-002
1.515839e+003;7.418130e-002
1.517767e+003;7.391209e-002
1.519696e+003;7.306021e-002
1.521624e+003;7.284582e-002
1.523553e+003;7.494181e-002
1.525481e+003;7.614014e-002
1.527410e+003;7.765662e-002
1.529339e+003;7.940499e-002
1.531267e+003;8.000936e-002
1.533196e+003;8.001160e-002
1.535124e+003;8.178781e-002
1.537053e+003;8.126105e-002
1.538981e+003;7.759014e-002
1.540910e+003;7.843187e-002
1.542838e+003;8.212066e-002
1.544767e+003;8.454821e-002
1.546695e+003;8.656724e-002
1.548624e+003;8.761329e-002
1.550553e+003;8.825365e-002
1.552481e+003;8.814169e-002
1.554410e+003;8.714235e-002
1.556338e+003;8.511341e-002
1.558267e+003;8.096670e-002
1.560195e+003;8.212578e-002
1.562124e+003;8.655789e-002
1.564052e+003;8.771145e-002
1.565981e+003;8.754446e-002
1.567910e+003;8.634227e-002
1.569838e+003;8.522677e-002
1.571767e+003;8.572381e-002
1.573695e+003;8.449589e-002
1.575624e+003;8.190326e-002
1.577552e+003;8.325561e-002
1.579481e+003;8.553608e-002
1.581409e+003;8.587839e-002
1.583338e+003;8.556932e-002
1.585266e+003;8.515670e-002
1.587195e+003;8.496240e-002
1.589124e+003;8.466795e-002
1.591052e+003;8.446626e-002
1.592981e+003;8.431150e-002
1.594909e+003;8.435403e-002
1.596838e+003;8.488532e-002
1.598766e+003;8.532640e-002
1.600695e+003;8.534189e-002
1.602623e+003;8.538492e-002
1.604552e+003;8.526459e-002
1.606480e+003;8.473967e-002
1.608409e+003;8.416970e-002
1.610338e+003;8.421495e-002
1.612266e+003;8.436687e-002
1.614195e+003;8.299638e-002
1.616123e+003;8.059839e-002
1.618052e+003;8.203167e-002
1.619980e+003;8.402513e-002
1.621909e+003;8.346822e-002
1.623837e+003;8.344104e-002
1.625766e+003;8.436095e-002
1.627694e+003;8.480275e-002
1.629623e+003;8.549678e-002
1.631552e+003;8.595031e-002
1.633480e+003;8.447777e-002
1.635409e+003;8.281591e-002
1.637337e+003;8.481023e-002
1.639266e+003;8.684836e-002
1.641194e+003;8.766588e-002
1.643123e+003;8.786248e-002
1.645051e+003;8.624551e-002
1.646980e+003;8.585934e-002
1.648909e+003;8.749339e-002
1.650837e+003;8.499790e-002
1.652766e+003;8.082946e-002
1.654694e+003;8.473947e-002
1.656623e+003;8.931396e-002
1.658551e+003;9.028386e-002
1.660480e+003;8.972795e-002
1.662408e+003;8.877771e-002
1.664337e+003;8.913899e-002
1.666266e+003;8.913285e-002
1.668194e+003;8.738235e-002
1.670123e+003;8.661734e-002
1.672051e+003;8.684452e-002
1.673980e+003;8.549266e-002
1.675908e+003;8.493283e-002
1.677837e+003;8.579264e-002
1.679765e+003;8.524919e-002
1.681694e+003;8.318799e-002
1.683622e+003;7.923141e-002
1.685551e+003;7.989378e-002
1.687479e+003;8.288897e-002
1.689408e+003;8.339788e-002
1.691337e+003;8.365057e-002
1.693265e+003;8.246390e-002
1.695194e+003;7.927186e-002
1.697122e+003;7.943980e-002
1.699051e+003;7.899571e-002
1.700979e+003;7.958877e-002
1.702908e+003;8.288829e-002
1.704836e+003;8.349364e-002
1.706765e+003;8.475196e-002
1.708693e+003;8.640044e-002
1.710622e+003;8.799130e-002
1.712551e+003;8.937974e-002
1.714479e+003;9.117612e-002
1.716408e+003;9.349559e-002
1.718336e+003;9.959586e-002
1.720265e+003;1.092656e-001
1.722193e+003;1.183360e-001
1.724122e+003;1.264638e-001
1.726050e+003;1.337132e-001
1.727979e+003;1.387716e-001
1.729908e+003;1.407641e-001
1.731836e+003;1.377668e-001
1.733765e+003;1.310760e-001
1.735693e+003;1.256850e-001
1.737622e+003;1.177569e-001
1.739550e+003;1.060729e-001
1.741479e+003;9.554014e-002
1.743407e+003;8.635561e-002
1.745336e+003;7.851321e-002
1.747265e+003;7.197721e-002
1.749193e+003;6.661852e-002
1.751122e+003;6.308258e-002
1.753050e+003;6.235989e-002
1.754979e+003;6.134164e-002
1.756907e+003;5.993461e-002
1.758836e+003;5.933039e-002
1.760764e+003;5.823145e-002
1.762693e+003;5.772805e-002
1.764621e+003;5.805833e-002
1.766550e+003;5.722664e-002
1.768479e+003;5.642373e-002
1.770407e+003;5.540521e-002
1.772336e+003;5.430751e-002
1.774264e+003;5.559622e-002
1.776193e+003;5.664369e-002
1.778121e+003;5.645645e-002
1.780050e+003;5.606638e-002
1.781978e+003;5.587860e-002
1.783907e+003;5.546925e-002
1.785835e+003;5.542020e-002
1.787764e+003;5.569587e-002
1.789693e+003;5.493351e-002
1.791621e+003;5.362896e-002
1.793550e+003;5.404859e-002
1.795478e+003;5.519424e-002
1.797407e+003;5.520353e-002
1.799335e+003;5.467710e-002
1.801264e+003;5.442092e-002
1.803192e+003;5.462246e-002
1.805121e+003;5.458035e-002
1.807049e+003;5.445487e-002
1.808978e+003;5.426738e-002
1.810907e+003;5.409388e-002
1.812835e+003;5.433977e-002
1.814764e+003;5.464121e-002
1.816692e+003;5.457877e-002
1.818621e+003;5.454691e-002
1.820549e+003;5.450224e-002
1.822478e+003;5.427421e-002
1.824406e+003;5.368426e-002
1.826335e+003;5.370196e-002
1.828264e+003;5.331454e-002
1.830192e+003;5.311139e-002
1.832121e+003;5.396953e-002
1.834049e+003;5.422957e-002
1.835978e+003;5.376818e-002
1.837906e+003;5.343863e-002
1.839835e+003;5.348128e-002
1.841763e+003;5.285771e-002
1.843692e+003;5.169203e-002
1.845620e+003;5.217275e-002
1.847549e+003;5.315566e-002
1.849478e+003;5.326640e-002
1.851406e+003;5.317299e-002
1.853335e+003;5.320221e-002
1.855263e+003;5.313038e-002
1.857192e+003;5.300289e-002
1.859120e+003;5.304321e-002
1.861049e+003;5.317247e-002
1.862977e+003;5.318674e-002
1.864906e+003;5.295498e-002
1.866834e+003;5.241138e-002
1.868763e+003;5.210008e-002
1.870692e+003;5.249789e-002
1.872620e+003;5.302390e-002
1.874549e+003;5.313746e-002
1.876477e+003;5.292006e-002
1.878406e+003;5.297782e-002
1.880334e+003;5.325992e-002
1.882263e+003;5.327363e-002
1.884191e+003;5.320457e-002
1.886120e+003;5.304905e-002
1.888048e+003;5.256591e-002
1.889977e+003;5.229587e-002
1.891906e+003;5.267752e-002
1.893834e+003;5.291590e-002
1.895763e+003;5.299661e-002
1.897691e+003;5.286647e-002
1.899620e+003;5.280764e-002
1.901548e+003;5.269473e-002
1.903477e+003;5.263899e-002
1.905405e+003;5.284076e-002
1.907334e+003;5.288615e-002
1.909262e+003;5.290067e-002
1.911191e+003;5.324592e-002
1.913120e+003;5.326719e-002
1.915048e+003;5.306527e-002
1.916977e+003;5.276517e-002
1.918905e+003;5.282145e-002
1.920834e+003;5.299129e-002
1.922762e+003;5.298047e-002
1.924691e+003;5.331660e-002
1.926619e+003;5.361220e-002
1.928548e+003;5.372071e-002
1.930477e+003;5.363781e-002
1.932405e+003;5.360028e-002
1.934334e+003;5.378532e-002
1.936262e+003;5.413960e-002
1.938191e+003;5.430492e-002
1.940119e+003;5.407005e-002
1.942048e+003;5.382893e-002
1.943976e+003;5.397639e-002
1.945905e+003;5.409501e-002
1.947833e+003;5.437856e-002
1.949762e+003;5.467635e-002
1.951691e+003;5.471341e-002
1.953619e+003;5.469428e-002
1.955548e+003;5.461052e-002
1.957476e+003;5.459661e-002
1.959405e+003;5.465392e-002
1.961333e+003;5.468338e-002
1.963262e+003;5.465842e-002
1.965190e+003;5.467116e-002
1.967119e+003;5.476328e-002
1.969047e+003;5.497758e-002
1.970976e+003;5.510256e-002
1.972905e+003;5.513939e-002
1.974833e+003;5.507281e-002
1.976762e+003;5.488433e-002
1.978690e+003;5.481263e-002
1.980619e+003;5.498566e-002
1.982547e+003;5.503839e-002
1.984476e+003;5.512325e-002
1.986404e+003;5.514093e-002
1.988333e+003;5.491358e-002
1.990261e+003;5.502812e-002
1.992190e+003;5.527853e-002
1.994119e+003;5.551096e-002
1.996047e+003;5.571565e-002
1.997976e+003;5.581903e-002
1.999904e+003;5.585539e-002
2.001833e+003;5.591655e-002
2.003761e+003;5.581707e-002
2.005690e+003;5.571497e-002
2.007618e+003;5.570989e-002
2.009547e+003;5.567482e-002
2.011476e+003;5.579311e-002
2.013404e+003;5.602631e-002
2.015333e+003;5.625085e-002
2.017261e+003;5.636043e-002
2.019190e+003;5.641427e-002
2.021118e+003;5.647603e-002
2.023047e+003;5.665392e-002
2.024975e+003;5.680461e-002
2.026904e+003;5.692453e-002
2.028833e+003;5.694424e-002
2.030761e+003;5.686643e-002
2.032690e+003;5.692521e-002
2.034618e+003;5.699804e-002
2.036547e+003;5.708181e-002
2.038475e+003;5.729937e-002
2.040404e+003;5.732720e-002
2.042332e+003;5.732077e-002
2.044261e+003;5.742555e-002
2.046189e+003;5.757712e-002
2.048118e+003;5.758862e-002
2.050047e+003;5.749541e-002
2.051975e+003;5.751780e-002
2.053904e+003;5.733854e-002
2.055832e+003;5.703730e-002
2.057761e+003;5.708374e-002
2.059689e+003;5.712179e-002
2.061618e+003;5.708086e-002
2.063546e+003;5.713321e-002
2.065475e+003;5.722792e-002
2.067404e+003;5.714813e-002
2.069332e+003;5.710951e-002
2.071260e+003;5.715562e-002
2.073189e+003;5.705082e-002
2.075118e+003;5.696120e-002
2.077046e+003;5.690016e-002
2.078975e+003;5.682149e-002
2.080903e+003;5.690417e-002
2.082832e+003;5.682742e-002
2.084760e+003;5.687595e-002
2.086689e+003;5.694058e-002
2.088617e+003;5.689491e-002
2.090546e+003;5.696827e-002
2.092475e+003;5.714798e-002
2.094403e+003;5.695864e-002
2.096332e+003;5.684585e-002
2.098260e+003;5.695444e-002
2.100189e+003;5.694768e-002
2.102117e+003;5.699392e-002
2.104046e+003;5.713971e-002
2.105974e+003;5.707512e-002
2.107903e+003;5.694247e-002
2.109832e+003;5.707765e-002
2.111760e+003;5.728100e-002
2.113688e+003;5.739265e-002
2.115617e+003;5.738138e-002
2.117546e+003;5.739345e-002
2.119474e+003;5.731381e-002
2.121403e+003;5.717436e-002
2.123331e+003;5.725287e-002
2.125260e+003;5.768518e-002
2.127188e+003;5.791206e-002
2.129117e+003;5.788146e-002
2.131045e+003;5.774622e-002
2.132974e+003;5.754424e-002
2.134903e+003;5.769486e-002
2.136831e+003;5.785356e-002
2.138760e+003;5.767322e-002
2.140688e+003;5.729964e-002
2.142617e+003;5.703428e-002
2.144545e+003;5.695879e-002
2.146474e+003;5.709590e-002
2.148402e+003;5.714568e-002
2.150331e+003;5.720804e-002
2.152260e+003;5.708513e-002
2.154188e+003;5.704206e-002
2.156117e+003;5.709553e-002
2.158045e+003;5.704708e-002
2.159974e+003;5.679332e-002
2.161902e+003;5.648849e-002
2.163831e+003;5.642706e-002
2.165759e+003;5.629219e-002
2.167688e+003;5.605918e-002
2.169616e+003;5.607083e-002
2.171545e+003;5.603517e-002
2.173474e+003;5.607924e-002
2.175402e+003;5.603098e-002
2.177331e+003;5.582253e-002
2.179259e+003;5.569023e-002
2.181188e+003;5.574096e-002
2.183116e+003;5.597090e-002
2.185045e+003;5.604783e-002
2.186973e+003;5.578753e-002
2.188902e+003;5.533551e-002
2.190831e+003;5.481530e-002
2.192759e+003;5.469367e-002
2.194688e+003;5.488328e-002
2.196616e+003;5.489955e-002
2.198545e+003;5.479839e-002
2.200473e+003;5.514529e-002
2.202402e+003;5.530513e-002
2.204330e+003;5.519876e-002
2.206259e+003;5.488489e-002
2.208188e+003;5.457809e-002
2.210116e+003;5.470683e-002
2.212044e+003;5.502620e-002
2.213973e+003;5.502617e-002
2.215902e+003;5.478286e-002
2.217830e+003;5.478922e-002
2.219759e+003;5.506122e-002
2.221687e+003;5.522961e-002
2.223616e+003;5.512803e-002
2.225544e+003;5.496389e-002
2.227473e+003;5.502523e-002
2.229401e+003;5.531481e-002
2.231330e+003;5.533456e-002
2.233259e+003;5.516523e-002
2.235187e+003;5.507954e-002
2.237116e+003;5.501917e-002
2.239044e+003;5.506355e-002
2.240973e+003;5.503222e-002
2.242901e+003;5.489523e-002
2.244830e+003;5.488662e-002
2.246758e+003;5.489016e-002
2.248687e+003;5.483308e-002
2.250615e+003;5.498476e-002
2.252544e+003;5.488515e-002
2.254473e+003;5.465361e-002
2.256401e+003;5.460105e-002
2.258330e+003;5.458234e-002
2.260258e+003;5.467128e-002
2.262187e+003;5.466823e-002
2.264115e+003;5.446948e-002
2.266044e+003;5.425709e-002
2.267972e+003;5.390485e-002
2.269901e+003;5.376799e-002
2.271830e+003;5.397275e-002
2.273758e+003;5.396638e-002
2.275687e+003;5.393085e-002
2.277615e+003;5.396822e-002
2.279544e+003;5.380324e-002
2.281472e+003;5.373259e-002
2.283401e+003;5.378922e-002
2.285329e+003;5.369817e-002
2.287258e+003;5.354090e-002
2.289187e+003;5.340794e-002
2.291115e+003;5.334511e-002
2.293043e+003;5.329435e-002
2.294972e+003;5.319659e-002
2.296901e+003;5.329027e-002
2.298829e+003;5.350294e-002
2.300758e+003;5.354259e-002
2.302686e+003;5.333979e-002
2.304615e+003;5.334455e-002
2.306543e+003;5.338265e-002
2.308472e+003;5.327629e-002
2.310400e+003;5.328049e-002
2.312329e+003;5.323393e-002
2.314258e+003;5.326633e-002
2.316186e+003;5.327232e-002
2.318115e+003;5.321629e-002
2.320043e+003;5.300533e-002
2.321972e+003;5.277916e-002
2.323900e+003;5.278485e-002
2.325829e+003;5.285281e-002
2.327757e+003;5.278732e-002
2.329686e+003;5.267352e-002
2.331615e+003;5.274658e-002
2.333543e+003;5.269559e-002
2.335472e+003;5.271519e-002
2.337400e+003;5.281101e-002
2.339329e+003;5.285763e-002
2.341257e+003;5.301630e-002
2.343186e+003;5.334061e-002
2.345114e+003;5.368010e-002
2.347043e+003;5.382796e-002
2.348971e+003;5.373038e-002
2.350900e+003;5.372970e-002
2.352829e+003;5.387346e-002
2.354757e+003;5.390557e-002
2.356686e+003;5.373240e-002
2.358614e+003;5.355837e-002
2.360543e+003;5.338928e-002
2.362471e+003;5.336864e-002
2.364400e+003;5.359158e-002
2.366328e+003;5.390842e-002
2.368257e+003;5.407640e-002
2.370186e+003;5.440526e-002
2.372114e+003;5.462757e-002
2.374042e+003;5.491136e-002
2.375971e+003;5.538402e-002
2.377900e+003;5.559972e-002
2.379828e+003;5.551059e-002
2.381757e+003;5.562800e-002
2.383685e+003;5.600527e-002
2.385614e+003;5.633942e-002
2.387542e+003;5.621046e-002
2.389471e+003;5.620963e-002
2.391399e+003;5.634474e-002
2.393328e+003;5.650121e-002
2.395257e+003;5.651905e-002
2.397185e+003;5.640793e-002
2.399114e+003;5.655166e-002
2.401042e+003;5.689189e-002
2.402971e+003;5.702279e-002
2.404899e+003;5.690753e-002
2.406828e+003;5.673977e-002
2.408756e+003;5.667906e-002
2.410685e+003;5.655631e-002
2.412614e+003;5.676994e-002
2.414542e+003;5.734043e-002
2.416471e+003;5.752314e-002
2.418399e+003;5.742540e-002
2.420328e+003;5.745286e-002
2.422256e+003;5.773634e-002
2.424185e+003;5.826760e-002
2.426113e+003;5.852109e-002
2.428042e+003;5.827377e-002
2.429970e+003;5.827847e-002
2.431899e+003;5.852553e-002
2.433828e+003;5.867432e-002
2.435756e+003;5.876338e-002
2.437685e+003;5.876210e-002
2.439613e+003;5.862533e-002
2.441542e+003;5.854077e-002
2.443470e+003;5.860090e-002
2.445399e+003;5.855294e-002
2.447327e+003;5.852697e-002
2.449256e+003;5.888532e-002
2.451185e+003;5.941966e-002
2.453113e+003;5.950261e-002
2.455042e+003;5.932067e-002
2.456970e+003;5.939044e-002
2.458899e+003;5.934965e-002
2.460827e+003;5.918087e-002
2.462756e+003;5.951560e-002
2.464684e+003;5.992902e-002
2.466613e+003;5.998063e-002
2.468542e+003;6.017046e-002
2.470470e+003;6.019185e-002
2.472398e+003;6.023033e-002
2.474327e+003;6.030928e-002
2.476256e+003;6.029345e-002
2.478184e+003;6.051796e-002
2.480113e+003;6.037991e-002
2.482041e+003;6.009542e-002
2.483970e+003;6.026969e-002
2.485898e+003;6.056698e-002
2.487827e+003;6.063738e-002
2.489755e+003;6.057170e-002
2.491684e+003;6.027091e-002
2.493613e+003;6.035554e-002
2.495541e+003;6.055807e-002
2.497470e+003;6.062248e-002
2.499398e+003;6.071336e-002
2.501327e+003;6.094895e-002
2.503255e+003;6.116968e-002
2.505184e+003;6.111132e-002
2.507112e+003;6.102243e-002
2.509041e+003;6.112345e-002
2.510969e+003;6.131824e-002
2.512898e+003;6.160942e-002
2.514827e+003;6.185662e-002
2.516755e+003;6.196410e-002
2.518684e+003;6.220466e-002
2.520612e+003;6.230164e-002
2.522541e+003;6.231391e-002
2.524469e+003;6.236211e-002
2.526398e+003;6.237542e-002
2.528326e+003;6.212812e-002
2.530255e+003;6.204761e-002
2.532184e+003;6.229407e-002
2.534112e+003;6.265099e-002
2.536041e+003;6.293590e-002
2.537969e+003;6.286662e-002
2.539898e+003;6.246058e-002
2.541826e+003;6.229621e-002
2.543755e+003;6.254261e-002
2.545683e+003;6.251747e-002
2.547612e+003;6.234784e-002
2.549541e+003;6.230064e-002
2.551469e+003;6.275937e-002
2.553397e+003;6.303480e-002
2.555326e+003;6.272656e-002
2.557255e+003;6.260763e-002
2.559183e+003;6.280810e-002
2.561112e+003;6.310093e-002
2.563040e+003;6.317285e-002
2.564969e+003;6.291131e-002
2.566897e+003;6.270627e-002
2.568826e+003;6.301776e-002
2.570754e+003;6.334967e-002
2.572683e+003;6.351835e-002
2.574612e+003;6.349875e-002
2.576540e+003;6.332268e-002
2.578469e+003;6.321459e-002
2.580397e+003;6.316550e-002
2.582326e+003;6.332130e-002
2.584254e+003;6.361635e-002
2.586183e+003;6.370494e-002
2.588111e+003;6.382171e-002
2.590040e+003;6.392109e-002
2.591969e+003;6.368645e-002
2.593897e+003;6.340626e-002
2.595826e+003;6.355920e-002
2.597754e+003;6.370728e-002
2.599683e+003;6.362019e-002
2.601611e+003;6.382248e-002
2.603540e+003;6.440055e-002
2.605468e+003;6.469622e-002
2.607397e+003;6.449287e-002
2.609325e+003;6.429603e-002
2.611254e+003;6.433837e-002
2.613183e+003;6.442249e-002
2.615111e+003;6.462692e-002
2.617040e+003;6.472256e-002
2.618968e+003;6.455649e-002
2.620897e+003;6.446792e-002
2.622825e+003;6.496261e-002
2.624754e+003;6.519940e-002
2.626682e+003;6.502083e-002
2.628611e+003;6.503188e-002
2.630540e+003;6.529840e-002
2.632468e+003;6.531742e-002
2.634396e+003;6.530383e-002
2.636325e+003;6.549118e-002
2.638254e+003;6.566536e-002
2.640182e+003;6.558833e-002
2.642111e+003;6.552362e-002
2.644039e+003;6.557561e-002
2.645968e+003;6.573413e-002
2.647896e+003;6.571998e-002
2.649825e+003;6.567461e-002
2.651753e+003;6.596417e-002
2.653682e+003;6.607118e-002
2.655611e+003;6.578428e-002
2.657539e+003;6.574384e-002
2.659468e+003;6.588013e-002
2.661396e+003;6.612908e-002
2.663325e+003;6.619287e-002
2.665253e+003;6.619182e-002
2.667182e+003;6.625720e-002
2.669110e+003;6.663884e-002
2.671039e+003;6.673639e-002
2.672968e+003;6.658480e-002
2.674896e+003;6.659303e-002
2.676825e+003;6.670061e-002
2.678753e+003;6.679555e-002
2.680682e+003;6.682681e-002
2.682610e+003;6.692436e-002
2.684539e+003;6.709877e-002
2.686467e+003;6.717453e-002
2.688396e+003;6.721073e-002
2.690324e+003;6.726686e-002
2.692253e+003;6.752760e-002
2.694182e+003;6.763522e-002
2.696110e+003;6.766108e-002
2.698039e+003;6.749725e-002
2.699967e+003;6.757436e-002
2.701896e+003;6.784043e-002
2.703824e+003;6.835783e-002
2.705753e+003;6.851062e-002
2.707681e+003;6.817536e-002
2.709610e+003;6.838463e-002
2.711539e+003;6.868520e-002
2.713467e+003;6.861472e-002
2.715396e+003;6.876907e-002
2.717324e+003;6.908471e-002
2.719253e+003;6.916366e-002
2.721181e+003;6.909998e-002
2.723110e+003;6.909893e-002
2.725038e+003;6.919252e-002
2.726967e+003;6.921930e-002
2.728896e+003;6.907313e-002
2.730824e+003;6.934126e-002
2.732752e+003;6.961903e-002
2.734681e+003;6.953537e-002
2.736610e+003;6.979756e-002
2.738538e+003;7.016017e-002
2.740467e+003;7.018007e-002
2.742395e+003;6.996382e-002
2.744324e+003;6.965555e-002
2.746252e+003;6.945792e-002
2.748181e+003;6.971196e-002
2.750109e+003;6.966816e-002
2.752038e+003;6.984849e-002
2.753967e+003;7.019182e-002
2.755895e+003;7.020701e-002
2.757824e+003;7.015175e-002
2.759752e+003;7.023942e-002
2.761681e+003;7.027074e-002
2.763609e+003;7.028648e-002
2.765538e+003;7.050409e-002
2.767466e+003;7.070927e-002
2.769395e+003;7.103166e-002
2.771323e+003;7.134492e-002
2.773252e+003;7.157245e-002
2.775181e+003;7.147341e-002
2.777109e+003;7.126082e-002
2.779038e+003;7.136796e-002
2.780966e+003;7.148611e-002
2.782895e+003;7.186631e-002
2.784823e+003;7.212236e-002
2.786752e+003;7.218413e-002
2.788680e+003;7.230990e-002
2.790609e+003;7.240141e-002
2.792538e+003;7.269259e-002
2.794466e+003;7.312635e-002
2.796395e+003;7.347727e-002
2.798323e+003;7.374114e-002
2.800252e+003;7.420558e-002
2.802180e+003;7.469225e-002
2.804109e+003;7.491394e-002
2.806037e+003;7.491587e-002
2.807966e+003;7.516359e-002
2.809895e+003;7.556576e-002
2.811823e+003;7.593492e-002
2.813751e+003;7.655345e-002
2.815680e+003;7.703829e-002
2.817609e+003;7.726818e-002
2.819537e+003;7.764382e-002
2.821466e+003;7.837158e-002
2.823394e+003;7.908431e-002
2.825323e+003;7.897198e-002
2.827251e+003;7.920215e-002
2.829180e+003;8.019488e-002
2.831108e+003;8.107084e-002
2.833037e+003;8.204152e-002
2.834966e+003;8.339009e-002
2.836894e+003;8.496643e-002
2.838823e+003;8.677237e-002
2.840751e+003;8.898576e-002
2.842680e+003;9.221406e-002
2.844608e+003;9.663443e-002
2.846537e+003;1.028108e-001
2.848465e+003;1.095518e-001
2.850394e+003;1.126503e-001
2.852323e+003;1.103595e-001
2.854251e+003;1.056783e-001
2.856180e+003;1.021176e-001
2.858108e+003;1.004122e-001
2.860037e+003;9.960908e-002
2.861965e+003;9.943253e-002
2.863894e+003;1.000009e-001
2.865822e+003;1.009538e-001
2.867751e+003;1.019375e-001
2.869679e+003;1.026607e-001
2.871608e+003;1.035502e-001
2.873536e+003;1.040342e-001
2.875465e+003;1.038472e-001
2.877394e+003;1.035363e-001
2.879322e+003;1.031451e-001
2.881251e+003;1.029952e-001
2.883179e+003;1.034275e-001
2.885108e+003;1.040822e-001
2.887036e+003;1.052190e-001
2.888965e+003;1.062547e-001
2.890893e+003;1.067521e-001
2.892822e+003;1.076227e-001
2.894750e+003;1.088986e-001
2.896679e+003;1.099067e-001
2.898608e+003;1.103419e-001
2.900536e+003;1.109232e-001
2.902465e+003;1.118009e-001
2.904393e+003;1.123230e-001
2.906322e+003;1.134092e-001
2.908250e+003;1.150036e-001
2.910179e+003;1.169292e-001
2.912107e+003;1.202333e-001
2.914036e+003;1.240912e-001
2.915965e+003;1.276242e-001
2.917893e+003;1.298096e-001
2.919822e+003;1.302159e-001
2.921750e+003;1.282614e-001
2.923679e+003;1.243696e-001
2.925607e+003;1.199642e-001
2.927536e+003;1.160051e-001
2.929464e+003;1.125994e-001
2.931393e+003;1.094684e-001
2.933322e+003;1.067434e-001
2.935250e+003;1.045211e-001
2.937178e+003;1.027034e-001
2.939107e+003;1.012217e-001
2.941036e+003;9.988827e-002
2.942964e+003;9.869101e-002
2.944893e+003;9.778044e-002
2.946821e+003;9.701747e-002
2.948750e+003;9.652806e-002
2.950678e+003;9.644514e-002
2.952607e+003;9.635293e-002
2.954535e+003;9.641482e-002
2.956464e+003;9.698855e-002
2.958393e+003;9.728741e-002
2.960321e+003;9.653381e-002
2.962250e+003;9.507421e-002
2.964178e+003;9.338917e-002
2.966107e+003;9.130645e-002
2.968035e+003;8.948994e-002
2.969964e+003;8.743118e-002
2.971892e+003;8.509422e-002
2.973821e+003;8.325088e-002
2.975750e+003;8.148003e-002
2.977678e+003;7.961062e-002
2.979607e+003;7.781719e-002
2.981535e+003;7.640650e-002
2.983464e+003;7.509281e-002
2.985392e+003;7.397640e-002
2.987321e+003;7.289159e-002
2.989249e+003;7.188278e-002
2.991178e+003;7.126004e-002
2.993106e+003;7.081179e-002
2.995035e+003;7.073812e-002
2.996964e+003;7.038699e-002
2.998892e+003;6.999496e-002
3.000821e+003;7.004179e-002
3.002749e+003;7.025730e-002
3.004678e+003;7.013910e-002
3.006606e+003;6.990006e-002
3.008535e+003;6.970441e-002
3.010463e+003;6.968524e-002
3.012392e+003;6.981425e-002
3.014321e+003;6.981938e-002
3.016249e+003;7.015016e-002
3.018177e+003;7.034869e-002
3.020106e+003;7.073188e-002
3.022035e+003;7.125578e-002
3.023963e+003;7.148775e-002
3.025892e+003;7.175127e-002
3.027820e+003;7.193982e-002
3.029749e+003;7.218534e-002
3.031677e+003;7.245449e-002
3.033606e+003;7.227409e-002
3.035534e+003;7.207330e-002
3.037463e+003;7.190283e-002
3.039392e+003;7.143220e-002
3.041320e+003;7.138147e-002
3.043249e+003;7.186589e-002
3.045177e+003;7.228767e-002
3.047106e+003;7.275315e-002
3.049034e+003;7.275315e-002
3.050963e+003;7.257818e-002
3.052891e+003;7.285196e-002
3.054820e+003;7.298996e-002
3.056749e+003;7.327090e-002
3.058677e+003;7.356420e-002
3.060606e+003;7.354430e-002
3.062534e+003;7.363827e-002
3.064463e+003;7.360294e-002
3.066391e+003;7.386971e-002
3.068320e+003;7.446620e-002
3.070248e+003;7.440008e-002
3.072177e+003;7.415444e-002
3.074105e+003;7.428192e-002
3.076034e+003;7.439316e-002
3.077963e+003;7.461765e-002
3.079891e+003;7.470563e-002
3.081820e+003;7.499178e-002
3.083748e+003;7.532880e-002
3.085677e+003;7.574300e-002
3.087605e+003;7.617465e-002
3.089534e+003;7.625078e-002
3.091462e+003;7.609857e-002
3.093391e+003;7.617702e-002
3.095320e+003;7.667705e-002
3.097248e+003;7.679452e-002
3.099177e+003;7.681844e-002
3.101105e+003;7.718772e-002
3.103034e+003;7.771713e-002
3.104962e+003;7.802890e-002
3.106891e+003;7.788934e-002
3.108819e+003;7.766668e-002
3.110748e+003;7.763407e-002
3.112677e+003;7.759101e-002
3.114605e+003;7.747040e-002
3.116533e+003;7.747487e-002
3.118462e+003;7.794572e-002
3.120391e+003;7.898986e-002
3.122319e+003;7.970763e-002
3.124248e+003;7.996551e-002
3.126176e+003;8.050916e-002
3.128105e+003;8.126967e-002
3.130033e+003;8.124246e-002
3.131962e+003;8.106908e-002
3.133890e+003;8.096910e-002
3.135819e+003;8.122066e-002
3.137748e+003;8.165675e-002
3.139676e+003;8.213387e-002
3.141605e+003;8.244836e-002
3.143533e+003;8.278291e-002
3.145462e+003;8.323804e-002
3.147390e+003;8.355453e-002
3.149319e+003;8.370681e-002
3.151247e+003;8.399860e-002
3.153176e+003;8.457523e-002
3.155104e+003;8.471603e-002
3.157033e+003;8.477556e-002
3.158962e+003;8.567784e-002
3.160890e+003;8.662224e-002
3.162819e+003;8.694857e-002
3.164747e+003;8.706335e-002
3.166676e+003;8.744431e-002
3.168604e+003;8.795567e-002
3.170533e+003;8.842710e-002
3.172461e+003;8.894596e-002
3.174390e+003;8.879820e-002
3.176319e+003;8.870256e-002
3.178247e+003;8.933696e-002
3.180176e+003;8.986306e-002
3.182104e+003;9.050071e-002
3.184033e+003;9.096800e-002
3.185961e+003;9.114996e-002
3.187890e+003;9.143256e-002
3.189818e+003;9.192251e-002
3.191747e+003;9.267622e-002
3.193676e+003;9.365164e-002
3.195604e+003;9.415551e-002
3.197532e+003;9.447150e-002
3.199461e+003;9.491748e-002
3.201390e+003;9.529512e-002
3.203318e+003;9.527412e-002
3.205247e+003;9.542418e-002
3.207175e+003;9.591568e-002
3.209104e+003;9.699741e-002
3.211032e+003;9.824774e-002
3.212961e+003;9.880964e-002
3.214889e+003;9.879133e-002
3.216818e+003;9.914476e-002
3.218747e+003;9.956849e-002
3.220675e+003;9.973900e-002
3.222604e+003;1.005386e-001
3.224532e+003;1.016120e-001
3.226461e+003;1.019320e-001
3.228389e+003;1.023459e-001
3.230318e+003;1.034086e-001
3.232246e+003;1.045529e-001
3.234175e+003;1.051522e-001
3.236104e+003;1.054966e-001
3.238032e+003;1.061752e-001
3.239961e+003;1.070100e-001
3.241889e+003;1.077402e-001
3.243818e+003;1.082130e-001
3.245746e+003;1.092269e-001
3.247675e+003;1.101730e-001
3.249603e+003;1.111855e-001
3.251532e+003;1.122425e-001
3.253460e+003;1.125090e-001
3.255389e+003;1.129945e-001
3.257318e+003;1.139944e-001
3.259246e+003;1.150636e-001
3.261175e+003;1.158157e-001
3.263103e+003;1.165072e-001
3.265032e+003;1.173531e-001
3.266960e+003;1.182014e-001
3.268889e+003;1.186582e-001
3.270817e+003;1.188438e-001
3.272746e+003;1.193014e-001
3.274675e+003;1.199303e-001
3.276603e+003;1.204199e-001
3.278531e+003;1.203338e-001
3.280460e+003;1.204876e-001
3.282389e+003;1.203751e-001
3.284317e+003;1.207082e-001
3.286246e+003;1.217117e-001
3.288174e+003;1.222488e-001
3.290103e+003;1.223350e-001
3.292031e+003;1.224193e-001
3.293960e+003;1.225814e-001
3.295888e+003;1.226699e-001
3.297817e+003;1.225698e-001
3.299746e+003;1.221821e-001
3.301674e+003;1.220683e-001
3.303603e+003;1.221955e-001
3.305531e+003;1.223479e-001
3.307460e+003;1.220719e-001
3.309388e+003;1.213479e-001
3.311317e+003;1.207048e-001
3.313245e+003;1.208683e-001
3.315174e+003;1.215625e-001
3.317103e+003;1.225150e-001
3.319031e+003;1.237798e-001
3.320960e+003;1.237138e-001
3.322888e+003;1.232858e-001
3.324817e+003;1.242329e-001
3.326745e+003;1.248222e-001
3.328674e+003;1.247622e-001
3.330602e+003;1.253503e-001
3.332531e+003;1.261321e-001
3.334459e+003;1.259064e-001
3.336388e+003;1.248962e-001
3.338317e+003;1.243091e-001
3.340245e+003;1.240365e-001
3.342174e+003;1.238363e-001
3.344102e+003;1.234382e-001
3.346031e+003;1.225771e-001
3.347959e+003;1.216907e-001
3.349888e+003;1.208451e-001
3.351816e+003;1.197951e-001
3.353745e+003;1.182807e-001
3.355674e+003;1.169612e-001
3.357602e+003;1.164433e-001
3.359531e+003;1.160797e-001
3.361459e+003;1.152407e-001
3.363388e+003;1.143724e-001
3.365316e+003;1.139230e-001
3.367245e+003;1.131009e-001
3.369173e+003;1.123017e-001
3.371102e+003;1.113878e-001
3.373031e+003;1.104345e-001
3.374959e+003;1.097814e-001
3.376887e+003;1.096058e-001
3.378816e+003;1.095580e-001
3.380745e+003;1.086487e-001
3.382673e+003;1.071874e-001
3.384602e+003;1.063900e-001
3.386530e+003;1.062445e-001
3.388459e+003;1.059659e-001
3.390387e+003;1.052455e-001
3.392316e+003;1.048886e-001
3.394244e+003;1.052583e-001
3.396173e+003;1.050210e-001
3.398102e+003;1.042283e-001
3.400030e+003;1.035525e-001
3.401959e+003;1.030938e-001
3.403887e+003;1.022535e-001
3.405816e+003;1.015718e-001
3.407744e+003;1.012567e-001
3.409673e+003;1.007280e-001
3.411601e+003;1.001322e-001
3.413530e+003;9.945003e-002
3.415458e+003;9.792556e-002
3.417387e+003;9.626947e-002
3.419316e+003;9.521186e-002
3.421244e+003;9.439992e-002
3.423173e+003;9.401458e-002
3.425101e+003;9.368408e-002
3.427030e+003;9.317937e-002
3.428958e+003;9.236765e-002
3.430887e+003;9.133143e-002
3.432815e+003;9.078284e-002
3.434744e+003;9.037732e-002
3.436673e+003;8.982337e-002
3.438601e+003;8.932479e-002
3.440530e+003;8.851694e-002
3.442458e+003;8.739784e-002
3.444387e+003;8.626410e-002
3.446315e+003;8.583765e-002
3.448244e+003;8.536451e-002
3.450172e+003;8.416958e-002
3.452101e+003;8.324374e-002
3.454030e+003;8.209884e-002
3.455958e+003;8.123688e-002
3.457886e+003;8.105834e-002
3.459815e+003;8.036263e-002
3.461744e+003;7.959598e-002
3.463672e+003;7.895306e-002
3.465601e+003;7.912832e-002
3.467529e+003;7.929505e-002
3.469458e+003;7.815824e-002
3.471386e+003;7.685878e-002
3.473315e+003;7.651998e-002
3.475243e+003;7.628132e-002
3.477172e+003;7.534903e-002
3.479101e+003;7.435313e-002
3.481029e+003;7.373988e-002
3.482958e+003;7.318889e-002
3.484886e+003;7.197157e-002
3.486815e+003;7.067729e-002
3.488743e+003;7.033014e-002
3.490672e+003;7.066513e-002
3.492600e+003;7.052498e-002
3.494529e+003;6.983841e-002
3.496458e+003;6.863059e-002
3.498386e+003;6.782699e-002
3.500315e+003;6.749710e-002
3.502243e+003;6.677171e-002
3.504172e+003;6.567454e-002
3.506100e+003;6.550606e-002
3.508029e+003;6.549335e-002
3.509957e+003;6.493129e-002
3.511886e+003;6.426345e-002
3.513814e+003;6.343199e-002
3.515743e+003;6.274325e-002
3.517672e+003;6.294344e-002
3.519600e+003;6.241061e-002
3.521529e+003;6.115324e-002
3.523457e+003;6.057125e-002
3.525386e+003;6.114741e-002
3.527314e+003;6.111499e-002
3.529243e+003;6.021218e-002
3.531171e+003;5.997341e-002
3.533100e+003;5.934965e-002
3.535029e+003;5.903535e-002
3.536957e+003;5.870004e-002
3.538885e+003;5.811738e-002
3.540814e+003;5.753445e-002
3.542743e+003;5.631908e-002
3.544671e+003;5.527894e-002
3.546600e+003;5.528267e-002
3.548528e+003;5.509805e-002
3.550457e+003;5.442194e-002
3.552385e+003;5.374185e-002
3.554314e+003;5.360594e-002
3.556242e+003;5.353929e-002
3.558171e+003;5.323045e-002
3.560100e+003;5.263031e-002
3.562028e+003;5.212055e-002
3.563957e+003;5.108548e-002
3.565885e+003;4.948883e-002
3.567814e+003;4.908401e-002
3.569742e+003;5.002202e-002
3.571671e+003;5.057057e-002
3.573599e+003;4.996536e-002
3.575528e+003;4.932774e-002
3.577457e+003;4.904828e-002
3.579385e+003;4.846397e-002
3.581314e+003;4.811466e-002
3.583242e+003;4.817785e-002
3.585171e+003;4.764555e-002
3.587099e+003;4.632409e-002
3.589028e+003;4.617647e-002
3.590956e+003;4.717152e-002
3.592885e+003;4.711162e-002
3.594813e+003;4.646681e-002
3.596742e+003;4.658822e-002
3.598671e+003;4.651965e-002
3.600599e+003;4.560032e-002
3.602528e+003;4.521833e-002
3.604456e+003;4.546619e-002
3.606385e+003;4.457170e-002
3.608313e+003;4.312946e-002
3.610242e+003;4.303019e-002
3.612170e+003;4.272291e-002
3.614099e+003;4.227595e-002
3.616028e+003;4.236931e-002
3.617956e+003;4.218031e-002
3.619885e+003;4.253500e-002
3.621813e+003;4.296724e-002
3.623742e+003;4.225879e-002
3.625670e+003;4.115378e-002
3.627599e+003;3.893161e-002
3.629527e+003;3.863670e-002
3.631456e+003;4.053063e-002
3.633385e+003;4.078780e-002
3.635313e+003;4.085656e-002
3.637241e+003;4.071549e-002
3.639170e+003;4.039486e-002
3.641099e+003;4.015707e-002
3.643027e+003;3.999566e-002
3.644956e+003;3.949488e-002
3.646884e+003;3.729246e-002
3.648813e+003;3.507350e-002
3.650741e+003;3.554385e-002
3.652670e+003;3.682861e-002
3.654598e+003;3.603426e-002
3.656527e+003;3.568494e-002
3.658456e+003;3.679002e-002
3.660384e+003;3.708772e-002
3.662313e+003;3.665175e-002
3.664241e+003;3.571379e-002
3.666170e+003;3.511693e-002
3.668098e+003;3.375558e-002
3.670027e+003;3.230618e-002
3.671955e+003;3.304522e-002
3.673884e+003;3.145517e-002
3.675813e+003;3.004256e-002
3.677741e+003;3.254078e-002
3.679669e+003;3.430891e-002
3.681598e+003;3.416393e-002
3.683527e+003;3.352999e-002
3.685455e+003;3.304990e-002
3.687384e+003;3.077342e-002
3.689312e+003;3.023854e-002
3.691241e+003;3.183169e-002
3.693169e+003;3.299242e-002
3.695098e+003;3.304976e-002
3.697026e+003;3.252896e-002
3.698955e+003;3.197640e-002
3.700884e+003;3.104744e-002
3.702812e+003;3.116156e-002
3.704741e+003;3.203661e-002
3.706669e+003;3.211823e-002
3.708598e+003;3.080379e-002
3.710526e+003;2.914105e-002
3.712455e+003;2.946755e-002
3.714383e+003;3.109546e-002
3.716312e+003;3.151224e-002
3.718240e+003;3.111532e-002
3.720169e+003;3.087903e-002
3.722098e+003;3.046403e-002
3.724026e+003;3.007889e-002
3.725955e+003;2.996168e-002
3.727883e+003;3.035688e-002
3.729812e+003;3.012921e-002
3.731740e+003;2.872101e-002
3.733669e+003;2.738931e-002
3.735597e+003;2.667332e-002
3.737526e+003;2.860038e-002
3.739455e+003;3.016210e-002
3.741383e+003;2.866986e-002
3.743312e+003;2.505366e-002
3.745240e+003;2.632268e-002
3.747169e+003;2.839468e-002
3.749097e+003;2.646986e-002
3.751026e+003;2.592417e-002
3.752954e+003;2.822033e-002
3.754883e+003;3.025388e-002
3.756812e+003;2.979525e-002
3.758740e+003;2.994568e-002
3.760668e+003;3.033638e-002
3.762597e+003;3.090411e-002
3.764526e+003;3.050390e-002
3.766454e+003;3.013258e-002
3.768383e+003;2.979926e-002
3.770311e+003;3.061877e-002
3.772240e+003;3.115369e-002
3.774168e+003;3.140922e-002
3.776097e+003;3.135423e-002
3.778025e+003;3.082304e-002
3.779954e+003;3.086359e-002
3.781883e+003;3.105823e-002
3.783811e+003;3.122464e-002
3.785740e+003;3.137143e-002
3.787668e+003;3.134871e-002
3.789597e+003;3.226838e-002
3.791525e+003;3.230718e-002
3.793454e+003;3.136591e-002
3.795382e+003;3.057269e-002
3.797311e+003;3.091874e-002
3.799240e+003;2.975792e-002
3.801168e+003;2.805389e-002
3.803097e+003;2.999946e-002
3.805025e+003;3.020923e-002
3.806954e+003;2.955178e-002
3.808882e+003;3.087010e-002
3.810811e+003;3.196452e-002
3.812739e+003;3.215101e-002
3.814668e+003;2.980395e-002
3.816596e+003;2.909502e-002
3.818525e+003;2.973489e-002
3.820454e+003;2.850919e-002
3.822382e+003;2.934477e-002
3.824311e+003;3.055954e-002
3.826239e+003;3.084926e-002
3.828168e+003;3.152913e-002
3.830096e+003;3.117801e-002
3.832025e+003;3.100944e-002
3.833953e+003;3.094133e-002
3.835882e+003;2.922844e-002
3.837811e+003;2.804223e-002
3.839739e+003;2.942986e-002
3.841667e+003;3.018234e-002
3.843596e+003;3.065226e-002
3.845525e+003;3.198760e-002
3.847453e+003;3.240377e-002
3.849382e+003;3.092126e-002
3.851310e+003;2.712898e-002
3.853239e+003;2.450382e-002
3.855167e+003;2.839376e-002
3.857096e+003;3.202298e-002
3.859024e+003;3.221696e-002
3.860953e+003;3.159220e-002
3.862882e+003;3.029616e-002
3.864810e+003;2.990130e-002
3.866739e+003;3.064006e-002
3.868667e+003;3.004466e-002
3.870596e+003;3.078356e-002
3.872524e+003;3.188385e-002
3.874453e+003;3.257157e-002
3.876381e+003;3.354592e-002
3.878310e+003;3.219041e-002
3.880239e+003;3.106666e-002
3.882167e+003;3.186485e-002
3.884096e+003;3.156658e-002
3.886024e+003;3.144124e-002
3.887953e+003;3.234741e-002
3.889881e+003;3.193042e-002
3.891810e+003;3.196855e-002
3.893738e+003;3.299395e-002
3.895667e+003;3.379308e-002
3.897595e+003;3.313443e-002
3.899524e+003;3.200015e-002
3.901453e+003;3.146579e-002
3.903381e+003;3.136167e-002
3.905310e+003;3.297637e-002
3.907238e+003;3.493131e-002
3.909167e+003;3.498287e-002
3.911095e+003;3.412582e-002
3.913024e+003;3.390709e-002
3.914952e+003;3.368443e-002
3.916881e+003;3.311069e-002
3.918810e+003;3.267061e-002
3.920738e+003;3.257603e-002
3.922667e+003;3.327718e-002
3.924595e+003;3.423340e-002
3.926524e+003;3.506861e-002
3.928452e+003;3.502206e-002
3.930381e+003;3.445132e-002
3.932309e+003;3.420863e-002
3.934238e+003;3.477183e-002
3.936167e+003;3.512149e-002
3.938095e+003;3.501746e-002
3.940023e+003;3.452752e-002
3.941952e+003;3.387553e-002
3.943881e+003;3.407572e-002
3.945809e+003;3.409629e-002
3.947738e+003;3.376439e-002
3.949666e+003;3.394682e-002
3.951595e+003;3.455722e-002
3.953523e+003;3.538224e-002
3.955452e+003;3.569300e-002
3.957380e+003;3.623122e-002
3.959309e+003;3.669266e-002
3.961238e+003;3.643325e-002
3.963166e+003;3.602522e-002
3.965095e+003;3.517286e-002
3.967023e+003;3.381621e-002
3.968952e+003;3.435735e-002
3.970880e+003;3.554385e-002
3.972809e+003;3.521573e-002
3.974737e+003;3.464585e-002
3.976666e+003;3.457968e-002
3.978594e+003;3.561272e-002
3.980523e+003;3.553410e-002
3.982452e+003;3.446287e-002
3.984380e+003;3.503747e-002
3.986309e+003;3.614519e-002
3.988237e+003;3.641682e-002
3.990166e+003;3.605564e-002
3.992094e+003;3.578542e-002
3.994023e+003;3.591209e-002
3.995951e+003;3.628561e-002
3.997880e+003;3.583047e-002
3.999809e+003;3.536678e-002
4.001737e+003;0.000000e+000
