3.992094e+002;0.000000e+000
4.011380e+002;0.000000e+000
4.030665e+002;0.000000e+000
4.049951e+002;0.000000e+000
4.069236e+002;0.000000e+000
4.088522e+002;0.000000e+000
4.107807e+002;0.000000e+000
4.127093e+002;0.000000e+000
4.146378e+002;0.000000e+000
4.165664e+002;0.000000e+000
4.184949e+002;0.000000e+000
4.204235e+002;0.000000e+000
4.223520e+002;0.000000e+000
4.242806e+002;0.000000e+000
4.262091e+002;0.000000e+000
4.281377e+002;0.000000e+000
4.300662e+002;0.000000e+000
4.319948e+002;0.000000e+000
4.339233e+002;0.000000e+000
4.358519e+002;0.000000e+000
4.377804e+002;0.000000e+000
4.397090e+002;0.000000e+000
4.416375e+002;0.000000e+000
4.435660e+002;0.000000e+000
4.454946e+002;0.000000e+000
4.474232e+002;0.000000e+000
4.493517e+002;0.000000e+000
4.512802e+002;0.000000e+000
4.532088e+002;0.000000e+000
4.551373e+002;0.000000e+000
4.570659e+002;0.000000e+000
4.589944e+002;0.000000e+000
4.609230e+002;0.000000e+000
4.628515e+002;0.000000e+000
4.647801e+002;0.000000e+000
4.667086e+002;0.000000e+000
4.686372e+002;0.000000e+000
4.705657e+002;0.000000e+000
4.724943e+002;0.000000e+000
4.744228e+002;0.000000e+000
4.763513e+002;0.000000e+000
4.782799e+002;0.000000e+000
4.802085e+002;0.000000e+000
4.821370e+002;0.000000e+000
4.840656e+002;0.000000e+000
4.859941e+002;0.000000e+000
4.879226e+002;0.000000e+000
4.898512e+002;0.000000e+000
4.917798e+002;0.000000e+000
4.937083e+002;0.000000e+000
4.956368e+002;0.000000e+000
4.975654e+002;0.000000e+000
4.994939e+002;0.000000e+000
5.014225e+002;0.000000e+000
5.033510e+002;0.000000e+000
5.052796e+002;0.000000e+000
5.072081e+002;0.000000e+000
5.091367e+002;0.000000e+000
5.110652e+002;0.000000e+000
5.129938e+002;0.000000e+000
5.149223e+002;0.000000e+000
5.168509e+002;0.000000e+000
5.187794e+002;0.000000e+000
5.207079e+002;0.000000e+000
5.226365e+002;0.000000e+000
5.245651e+002;0.000000e+000
5.264936e+002;0.000000e+000
5.284222e+002;0.000000e+000
5.303507e+002;0.000000e+000
5.322792e+002;0.000000e+000
5.342078e+002;0.000000e+000
5.361364e+002;0.000000e+000
5.380649e+002;0.000000e+000
5.399935e+002;0.000000e+000
5.419220e+002;0.000000e+000
5.438505e+002;0.000000e+000
5.457791e+002;0.000000e+000
5.477076e+002;0.000000e+000
5.496362e+002;0.000000e+000
5.515648e+002;0.000000e+000
5.534933e+002;0.000000e+000
5.554218e+002;0.000000e+000
5.573504e+002;0.000000e+000
5.592789e+002;0.000000e+000
5.612075e+002;0.000000e+000
5.631360e+002;0.000000e+000
5.650646e+002;0.000000e+000
5.669931e+002;0.000000e+000
5.689217e+002;0.000000e+000
5.708502e+002;0.000000e+000
5.727787e+002;0.000000e+000
5.747073e+002;0.000000e+000
5.766359e+002;0.000000e+000
5.785644e+002;0.000000e+000
5.804930e+002;0.000000e+000
5.824215e+002;0.000000e+000
5.843500e+002;0.000000e+000
5.862786e+002;0.000000e+000
5.882072e+002;0.000000e+000
5.901357e+002;0.000000e+000
5.920643e+002;0.000000e+000
5.939928e+002;0.000000e+000
5.959213e+002;0.000000e+000
5.978499e+002;0.000000e+000
5.997784e+002;2.772255e-001
6.017070e+002;2.780308e-001
6.036355e+002;2.797829e-001
6.055641e+002;2.833011e-001
6.074926e+002;2.920754e-001
6.094211e+002;2.910525e-001
6.113497e+002;2.835357e-001
6.132783e+002;2.797204e-001
6.152068e+002;2.746837e-001
6.171354e+002;2.741216e-001
6.190639e+002;2.759923e-001
6.209924e+002;2.762201e-001
6.229210e+002;2.738430e-001
6.248495e+002;2.702837e-001
6.267781e+002;2.638864e-001
6.287067e+002;2.582128e-001
6.306352e+002;2.544270e-001
6.325637e+002;2.516808e-001
6.344923e+002;2.501778e-001
6.364208e+002;2.473598e-001
6.383494e+002;2.468247e-001
6.402780e+002;2.480843e-001
6.422065e+002;2.497055e-001
6.441350e+002;2.422665e-001
6.460636e+002;2.363135e-001
6.479921e+002;2.398025e-001
6.499207e+002;2.441293e-001
6.518492e+002;2.468227e-001
6.537778e+002;2.471725e-001
6.557063e+002;2.512943e-001
6.576349e+002;2.554581e-001
6.595634e+002;2.550104e-001
6.614919e+002;2.574754e-001
6.634205e+002;2.595492e-001
6.653491e+002;2.586031e-001
6.672776e+002;2.551527e-001
6.692062e+002;2.500919e-001
6.711347e+002;2.456275e-001
6.730632e+002;2.395943e-001
6.749918e+002;2.320712e-001
6.769203e+002;2.260946e-001
6.788489e+002;2.227928e-001
6.807775e+002;2.202423e-001
6.827060e+002;2.174546e-001
6.846345e+002;2.141307e-001
6.865631e+002;2.117763e-001
6.884916e+002;2.113089e-001
6.904202e+002;2.115054e-001
6.923488e+002;2.114106e-001
6.942773e+002;2.115343e-001
6.962058e+002;2.107665e-001
6.981344e+002;2.095680e-001
7.000629e+002;2.094547e-001
7.019915e+002;2.090609e-001
7.039200e+002;2.076218e-001
7.058486e+002;2.047314e-001
7.077771e+002;2.022176e-001
7.097057e+002;2.000991e-001
7.116342e+002;1.976770e-001
7.135627e+002;1.948511e-001
7.154913e+002;1.908697e-001
7.174199e+002;1.873538e-001
7.193484e+002;1.845688e-001
7.212770e+002;1.810203e-001
7.232055e+002;1.771258e-001
7.251340e+002;1.733378e-001
7.270626e+002;1.697858e-001
7.289911e+002;1.670929e-001
7.309197e+002;1.645212e-001
7.328483e+002;1.617861e-001
7.347768e+002;1.596754e-001
7.367053e+002;1.580475e-001
7.386339e+002;1.558509e-001
7.405624e+002;1.533572e-001
7.424910e+002;1.514392e-001
7.444196e+002;1.503741e-001
7.463481e+002;1.495005e-001
7.482766e+002;1.480979e-001
7.502052e+002;1.462574e-001
7.521337e+002;1.446981e-001
7.540623e+002;1.434202e-001
7.559908e+002;1.419923e-001
7.579194e+002;1.400696e-001
7.598479e+002;1.392080e-001
7.617765e+002;1.386175e-001
7.637050e+002;1.374431e-001
7.656335e+002;1.353586e-001
7.675621e+002;1.341983e-001
7.694907e+002;1.333801e-001
7.714192e+002;1.322290e-001
7.733478e+002;1.311747e-001
7.752763e+002;1.302933e-001
7.772048e+002;1.293297e-001
7.791334e+002;1.278149e-001
7.810620e+002;1.268096e-001
7.829905e+002;1.271240e-001
7.849191e+002;1.274905e-001
7.868476e+002;1.267743e-001
7.887761e+002;1.254231e-001
7.907047e+002;1.239604e-001
7.926332e+002;1.234198e-001
7.945618e+002;1.228505e-001
7.964903e+002;1.216111e-001
7.984189e+002;1.213794e-001
8.003474e+002;1.222181e-001
8.022759e+002;1.225604e-001
8.042045e+002;1.223921e-001
8.061331e+002;1.216330e-001
8.080616e+002;1.212139e-001
8.099902e+002;1.217817e-001
8.119187e+002;1.228260e-001
8.138472e+002;1.226426e-001
8.157758e+002;1.215529e-001
8.177043e+002;1.206885e-001
8.196329e+002;1.202330e-001
8.215615e+002;1.196769e-001
8.234900e+002;1.188088e-001
8.254185e+002;1.182400e-001
8.273471e+002;1.171178e-001
8.292756e+002;1.159607e-001
8.312042e+002;1.163718e-001
8.331328e+002;1.169797e-001
8.350613e+002;1.171266e-001
8.369898e+002;1.166149e-001
8.389184e+002;1.162468e-001
8.408469e+002;1.161772e-001
8.427755e+002;1.157400e-001
8.447040e+002;1.152460e-001
8.466326e+002;1.152406e-001
8.485611e+002;1.155280e-001
8.504897e+002;1.152104e-001
8.524182e+002;1.150599e-001
8.543467e+002;1.156938e-001
8.562753e+002;1.158282e-001
8.582039e+002;1.159324e-001
8.601324e+002;1.166784e-001
8.620610e+002;1.173669e-001
8.639895e+002;1.181552e-001
8.659180e+002;1.197937e-001
8.678466e+002;1.213465e-001
8.697751e+002;1.228096e-001
8.717037e+002;1.246329e-001
8.736323e+002;1.272222e-001
8.755608e+002;1.303183e-001
8.774893e+002;1.337609e-001
8.794179e+002;1.375839e-001
8.813464e+002;1.417784e-001
8.832750e+002;1.460297e-001
8.852036e+002;1.506700e-001
8.871321e+002;1.553095e-001
8.890606e+002;1.594448e-001
8.909892e+002;1.631691e-001
8.929177e+002;1.665180e-001
8.948463e+002;1.688652e-001
8.967748e+002;1.698967e-001
8.987034e+002;1.705210e-001
9.006319e+002;1.705417e-001
9.025605e+002;1.695602e-001
9.044890e+002;1.683925e-001
9.064175e+002;1.665359e-001
9.083461e+002;1.644542e-001
9.102747e+002;1.624058e-001
9.122032e+002;1.604632e-001
9.141318e+002;1.587763e-001
9.160603e+002;1.576347e-001
9.179888e+002;1.572485e-001
9.199174e+002;1.575217e-001
9.218459e+002;1.579148e-001
9.237745e+002;1.586398e-001
9.257031e+002;1.601244e-001
9.276316e+002;1.618980e-001
9.295601e+002;1.633770e-001
9.314887e+002;1.647646e-001
9.334172e+002;1.662718e-001
9.353458e+002;1.681810e-001
9.372744e+002;1.702361e-001
9.392029e+002;1.721250e-001
9.411314e+002;1.744538e-001
9.430600e+002;1.772648e-001
9.449885e+002;1.803966e-001
9.469171e+002;1.843425e-001
9.488456e+002;1.886598e-001
9.507742e+002;1.931130e-001
9.527027e+002;1.983762e-001
9.546313e+002;2.037667e-001
9.565598e+002;2.092649e-001
9.584883e+002;2.152680e-001
9.604169e+002;2.220586e-001
9.623455e+002;2.293767e-001
9.642740e+002;2.368837e-001
9.662026e+002;2.447514e-001
9.681311e+002;2.534807e-001
9.700596e+002;2.632302e-001
9.719882e+002;2.743248e-001
9.739167e+002;2.869756e-001
9.758453e+002;3.021057e-001
9.777739e+002;3.185808e-001
9.797024e+002;3.342433e-001
9.816309e+002;3.478941e-001
9.835595e+002;3.583868e-001
9.854880e+002;3.654190e-001
9.874166e+002;3.698992e-001
9.893452e+002;3.743523e-001
9.912737e+002;3.807372e-001
9.932022e+002;3.885970e-001
9.951307e+002;3.961493e-001
9.970593e+002;4.020593e-001
9.989879e+002;4.063416e-001
1.000916e+003;4.094253e-001
1.002845e+003;4.112505e-001
1.004773e+003;4.122172e-001
1.006702e+003;4.139429e-001
1.008631e+003;4.173611e-001
1.010559e+003;4.222126e-001
1.012488e+003;4.278625e-001
1.014416e+003;4.339581e-001
1.016345e+003;4.396266e-001
1.018273e+003;4.447353e-001
1.020202e+003;4.502374e-001
1.022130e+003;4.552614e-001
1.024059e+003;4.587772e-001
1.025988e+003;4.607822e-001
1.027916e+003;4.619228e-001
1.029845e+003;4.621804e-001
1.031773e+003;4.595902e-001
1.033702e+003;4.539952e-001
1.035630e+003;4.467521e-001
1.037559e+003;4.391684e-001
1.039487e+003;4.327279e-001
1.041416e+003;4.281493e-001
1.043344e+003;4.257560e-001
1.045273e+003;4.258485e-001
1.047202e+003;4.279519e-001
1.049130e+003;4.306629e-001
1.051059e+003;4.329280e-001
1.052987e+003;4.335239e-001
1.054916e+003;4.305380e-001
1.056844e+003;4.237488e-001
1.058773e+003;4.142865e-001
1.060701e+003;4.013066e-001
1.062630e+003;3.854361e-001
1.064558e+003;3.686976e-001
1.066487e+003;3.529164e-001
1.068416e+003;3.394845e-001
1.070344e+003;3.292145e-001
1.072273e+003;3.205955e-001
1.074201e+003;3.133189e-001
1.076130e+003;3.071891e-001
1.078058e+003;3.009351e-001
1.079987e+003;2.952322e-001
1.081915e+003;2.908108e-001
1.083844e+003;2.879669e-001
1.085773e+003;2.860035e-001
1.087701e+003;2.852073e-001
1.089630e+003;2.853127e-001
1.091558e+003;2.851680e-001
1.093487e+003;2.852069e-001
1.095415e+003;2.853454e-001
1.097344e+003;2.864563e-001
1.099272e+003;2.874860e-001
1.101201e+003;2.877691e-001
1.103129e+003;2.876602e-001
1.105058e+003;2.856851e-001
1.106987e+003;2.826428e-001
1.108915e+003;2.796375e-001
1.110844e+003;2.752654e-001
1.112772e+003;2.687978e-001
1.114701e+003;2.597478e-001
1.116629e+003;2.490674e-001
1.118558e+003;2.388891e-001
1.120486e+003;2.297462e-001
1.122415e+003;2.212661e-001
1.124344e+003;2.134029e-001
1.126272e+003;2.055108e-001
1.128201e+003;1.973401e-001
1.130129e+003;1.904875e-001
1.132058e+003;1.852212e-001
1.133986e+003;1.807187e-001
1.135915e+003;1.770948e-001
1.137843e+003;1.748781e-001
1.139772e+003;1.741960e-001
1.141700e+003;1.748253e-001
1.143629e+003;1.764725e-001
1.145557e+003;1.787088e-001
1.147486e+003;1.809316e-001
1.149415e+003;1.828984e-001
1.151343e+003;1.844190e-001
1.153272e+003;1.858197e-001
1.155200e+003;1.879864e-001
1.157129e+003;1.899250e-001
1.159057e+003;1.903166e-001
1.160986e+003;1.889502e-001
1.162914e+003;1.852575e-001
1.164843e+003;1.790430e-001
1.166771e+003;1.710088e-001
1.168700e+003;1.620913e-001
1.170629e+003;1.534638e-001
1.172557e+003;1.458617e-001
1.174486e+003;1.390223e-001
1.176414e+003;1.333971e-001
1.178343e+003;1.292025e-001
1.180271e+003;1.256552e-001
1.182200e+003;1.231081e-001
1.184128e+003;1.218713e-001
1.186057e+003;1.213631e-001
1.187986e+003;1.216829e-001
1.189914e+003;1.230966e-001
1.191843e+003;1.251787e-001
1.193771e+003;1.274766e-001
1.195700e+003;1.296830e-001
1.197628e+003;1.316660e-001
1.199557e+003;1.333151e-001
1.201485e+003;1.344606e-001
1.203414e+003;1.346738e-001
1.205343e+003;1.340652e-001
1.207271e+003;1.324881e-001
1.209200e+003;1.295094e-001
1.211128e+003;1.257491e-001
1.213057e+003;1.227686e-001
1.214985e+003;1.214612e-001
1.216914e+003;1.216347e-001
1.218842e+003;1.232342e-001
1.220771e+003;1.251835e-001
1.222699e+003;1.266650e-001
1.224628e+003;1.284386e-001
1.226557e+003;1.306041e-001
1.228485e+003;1.326095e-001
1.230414e+003;1.344993e-001
1.232342e+003;1.362539e-001
1.234271e+003;1.374401e-001
1.236199e+003;1.380219e-001
1.238128e+003;1.380167e-001
1.240056e+003;1.381382e-001
1.241985e+003;1.386728e-001
1.243913e+003;1.391194e-001
1.245842e+003;1.398868e-001
1.247771e+003;1.407633e-001
1.249699e+003;1.407723e-001
1.251628e+003;1.404437e-001
1.253556e+003;1.404513e-001
1.255485e+003;1.408806e-001
1.257413e+003;1.414510e-001
1.259342e+003;1.419757e-001
1.261270e+003;1.421707e-001
1.263199e+003;1.421122e-001
1.265127e+003;1.422094e-001
1.267056e+003;1.417784e-001
1.268985e+003;1.414192e-001
1.270913e+003;1.419261e-001
1.272842e+003;1.428942e-001
1.274770e+003;1.436956e-001
1.276699e+003;1.440036e-001
1.278627e+003;1.435886e-001
1.280556e+003;1.426238e-001
1.282484e+003;1.411657e-001
1.284413e+003;1.397074e-001
1.286342e+003;1.389130e-001
1.288270e+003;1.387374e-001
1.290199e+003;1.388776e-001
1.292127e+003;1.394835e-001
1.294056e+003;1.402311e-001
1.295984e+003;1.411352e-001
1.297913e+003;1.429232e-001
1.299841e+003;1.456614e-001
1.301770e+003;1.489370e-001
1.303698e+003;1.525374e-001
1.305627e+003;1.565573e-001
1.307556e+003;1.608534e-001
1.309484e+003;1.650840e-001
1.311413e+003;1.690648e-001
1.313341e+003;1.716130e-001
1.315270e+003;1.721563e-001
1.317198e+003;1.708578e-001
1.319127e+003;1.680244e-001
1.321055e+003;1.646979e-001
1.322984e+003;1.616977e-001
1.324912e+003;1.594954e-001
1.326841e+003;1.584939e-001
1.328770e+003;1.584200e-001
1.330698e+003;1.591930e-001
1.332627e+003;1.604957e-001
1.334555e+003;1.610793e-001
1.336484e+003;1.604381e-001
1.338412e+003;1.583339e-001
1.340341e+003;1.559336e-001
1.342269e+003;1.537966e-001
1.344198e+003;1.514255e-001
1.346126e+003;1.490026e-001
1.348055e+003;1.468289e-001
1.349984e+003;1.456276e-001
1.351912e+003;1.459670e-001
1.353841e+003;1.471440e-001
1.355769e+003;1.481839e-001
1.357698e+003;1.489555e-001
1.359626e+003;1.491044e-001
1.361555e+003;1.485287e-001
1.363483e+003;1.476081e-001
1.365412e+003;1.468727e-001
1.367341e+003;1.463484e-001
1.369269e+003;1.459849e-001
1.371198e+003;1.448830e-001
1.373126e+003;1.422750e-001
1.375055e+003;1.390633e-001
1.376983e+003;1.361727e-001
1.378912e+003;1.333239e-001
1.380840e+003;1.303294e-001
1.382769e+003;1.277936e-001
1.384698e+003;1.257907e-001
1.386626e+003;1.234444e-001
1.388555e+003;1.219679e-001
1.390483e+003;1.219143e-001
1.392412e+003;1.216228e-001
1.394340e+003;1.209364e-001
1.396269e+003;1.213808e-001
1.398197e+003;1.220259e-001
1.400126e+003;1.229569e-001
1.402054e+003;1.242856e-001
1.403983e+003;1.251180e-001
1.405911e+003;1.259888e-001
1.407840e+003;1.270716e-001
1.409769e+003;1.279986e-001
1.411697e+003;1.289364e-001
1.413626e+003;1.300293e-001
1.415554e+003;1.312539e-001
1.417483e+003;1.317927e-001
1.419411e+003;1.325162e-001
1.421340e+003;1.352207e-001
1.423268e+003;1.371061e-001
1.425197e+003;1.379314e-001
1.427125e+003;1.382910e-001
1.429054e+003;1.373731e-001
1.430983e+003;1.357350e-001
1.432911e+003;1.336631e-001
1.434840e+003;1.301924e-001
1.436768e+003;1.269628e-001
1.438697e+003;1.263052e-001
1.440625e+003;1.253922e-001
1.442554e+003;1.240401e-001
1.444482e+003;1.230390e-001
1.446411e+003;1.221799e-001
1.448340e+003;1.215868e-001
1.450268e+003;1.212999e-001
1.452197e+003;1.204384e-001
1.454125e+003;1.183590e-001
1.456054e+003;1.146046e-001
1.457982e+003;1.131435e-001
1.459911e+003;1.136546e-001
1.461839e+003;1.125411e-001
1.463768e+003;1.097471e-001
1.465697e+003;1.075094e-001
1.467625e+003;1.059072e-001
1.469554e+003;1.031084e-001
1.471482e+003;9.878888e-002
1.473411e+003;9.561582e-002
1.475339e+003;9.434471e-002
1.477268e+003;9.317575e-002
1.479196e+003;9.216383e-002
1.481125e+003;9.074315e-002
1.483053e+003;8.868769e-002
1.484982e+003;8.588994e-002
1.486911e+003;8.269087e-002
1.488839e+003;7.992488e-002
1.490768e+003;7.853409e-002
1.492696e+003;7.792161e-002
1.494625e+003;7.591463e-002
1.496553e+003;7.412344e-002
1.498482e+003;7.428496e-002
1.500410e+003;7.459235e-002
1.502339e+003;7.421014e-002
1.504267e+003;7.168049e-002
1.506196e+003;6.883767e-002
1.508125e+003;7.001298e-002
1.510053e+003;7.172445e-002
1.511982e+003;7.158612e-002
1.513910e+003;7.139358e-002
1.515839e+003;7.050160e-002
1.517767e+003;6.965131e-002
1.519696e+003;6.827426e-002
1.521624e+003;6.742813e-002
1.523553e+003;6.875809e-002
1.525481e+003;6.941511e-002
1.527410e+003;6.997125e-002
1.529339e+003;7.075808e-002
1.531267e+003;7.074795e-002
1.533196e+003;6.997012e-002
1.535124e+003;7.039319e-002
1.537053e+003;6.939257e-002
1.538981e+003;6.643864e-002
1.540910e+003;6.693743e-002
1.542838e+003;6.970037e-002
1.544767e+003;7.159933e-002
1.546695e+003;7.319509e-002
1.548624e+003;7.376198e-002
1.550553e+003;7.416797e-002
1.552481e+003;7.464700e-002
1.554410e+003;7.457693e-002
1.556338e+003;7.347193e-002
1.558267e+003;7.123750e-002
1.560195e+003;7.355074e-002
1.562124e+003;7.812285e-002
1.564052e+003;8.018867e-002
1.565981e+003;8.138979e-002
1.567910e+003;8.199922e-002
1.569838e+003;8.276154e-002
1.571767e+003;8.474886e-002
1.573695e+003;8.508624e-002
1.575624e+003;8.416089e-002
1.577552e+003;8.653586e-002
1.579481e+003;8.948347e-002
1.581409e+003;9.081466e-002
1.583338e+003;9.178325e-002
1.585266e+003;9.253876e-002
1.587195e+003;9.306728e-002
1.589124e+003;9.342249e-002
1.591052e+003;9.386814e-002
1.592981e+003;9.443818e-002
1.594909e+003;9.492543e-002
1.596838e+003;9.530070e-002
1.598766e+003;9.565307e-002
1.600695e+003;9.592044e-002
1.602623e+003;9.603582e-002
1.604552e+003;9.596312e-002
1.606480e+003;9.618159e-002
1.608409e+003;9.630314e-002
1.610338e+003;9.607865e-002
1.612266e+003;9.585164e-002
1.614195e+003;9.444098e-002
1.616123e+003;9.236719e-002
1.618052e+003;9.319825e-002
1.619980e+003;9.400515e-002
1.621909e+003;9.259428e-002
1.623837e+003;9.170037e-002
1.625766e+003;9.175435e-002
1.627694e+003;9.137233e-002
1.629623e+003;9.112442e-002
1.631552e+003;9.060287e-002
1.633480e+003;8.874130e-002
1.635409e+003;8.658475e-002
1.637337e+003;8.719423e-002
1.639266e+003;8.811896e-002
1.641194e+003;8.777703e-002
1.643123e+003;8.645591e-002
1.645051e+003;8.395956e-002
1.646980e+003;8.263756e-002
1.648909e+003;8.296172e-002
1.650837e+003;7.996607e-002
1.652766e+003;7.545836e-002
1.654694e+003;7.746505e-002
1.656623e+003;8.001466e-002
1.658551e+003;7.932400e-002
1.660480e+003;7.749598e-002
1.662408e+003;7.562858e-002
1.664337e+003;7.501762e-002
1.666266e+003;7.418063e-002
1.668194e+003;7.185032e-002
1.670123e+003;7.010102e-002
1.672051e+003;6.945080e-002
1.673980e+003;6.782006e-002
1.675908e+003;6.670537e-002
1.677837e+003;6.662613e-002
1.679765e+003;6.521911e-002
1.681694e+003;6.260246e-002
1.683622e+003;5.876771e-002
1.685551e+003;5.841373e-002
1.687479e+003;5.980435e-002
1.689408e+003;5.934357e-002
1.691337e+003;5.863333e-002
1.693265e+003;5.657933e-002
1.695194e+003;5.313528e-002
1.697122e+003;5.245919e-002
1.699051e+003;5.110360e-002
1.700979e+003;5.049463e-002
1.702908e+003;5.238008e-002
1.704836e+003;5.203792e-002
1.706765e+003;5.185105e-002
1.708693e+003;5.185639e-002
1.710622e+003;5.165381e-002
1.712551e+003;5.084356e-002
1.714479e+003;4.925625e-002
1.716408e+003;4.728970e-002
1.718336e+003;4.737652e-002
1.720265e+003;4.933795e-002
1.722193e+003;5.003607e-002
1.724122e+003;5.011271e-002
1.726050e+003;5.039129e-002
1.727979e+003;5.004392e-002
1.729908e+003;4.938791e-002
1.731836e+003;4.763805e-002
1.733765e+003;4.567477e-002
1.735693e+003;4.709836e-002
1.737622e+003;4.798620e-002
1.739550e+003;4.699563e-002
1.741479e+003;4.675656e-002
1.743407e+003;4.636265e-002
1.745336e+003;4.556252e-002
1.747265e+003;4.422708e-002
1.749193e+003;4.266844e-002
1.751122e+003;4.152539e-002
1.753050e+003;4.172960e-002
1.754979e+003;4.142809e-002
1.756907e+003;4.073939e-002
1.758836e+003;4.065534e-002
1.760764e+003;3.987684e-002
1.762693e+003;3.974342e-002
1.764621e+003;4.005343e-002
1.766550e+003;3.910811e-002
1.768479e+003;3.843173e-002
1.770407e+003;3.760640e-002
1.772336e+003;3.675847e-002
1.774264e+003;3.783115e-002
1.776193e+003;3.868640e-002
1.778121e+003;3.855823e-002
1.780050e+003;3.808059e-002
1.781978e+003;3.802478e-002
1.783907e+003;3.777111e-002
1.785835e+003;3.770982e-002
1.787764e+003;3.776349e-002
1.789693e+003;3.688517e-002
1.791621e+003;3.573897e-002
1.793550e+003;3.602634e-002
1.795478e+003;3.685354e-002
1.797407e+003;3.676424e-002
1.799335e+003;3.640814e-002
1.801264e+003;3.619150e-002
1.803192e+003;3.634970e-002
1.805121e+003;3.634206e-002
1.807049e+003;3.614674e-002
1.808978e+003;3.584962e-002
1.810907e+003;3.579744e-002
1.812835e+003;3.609611e-002
1.814764e+003;3.610738e-002
1.816692e+003;3.586660e-002
1.818621e+003;3.585174e-002
1.820549e+003;3.578672e-002
1.822478e+003;3.549983e-002
1.824406e+003;3.511603e-002
1.826335e+003;3.517700e-002
1.828264e+003;3.474103e-002
1.830192e+003;3.444092e-002
1.832121e+003;3.495429e-002
1.834049e+003;3.523161e-002
1.835978e+003;3.511987e-002
1.837906e+003;3.499685e-002
1.839835e+003;3.485196e-002
1.841763e+003;3.377173e-002
1.843692e+003;3.262653e-002
1.845620e+003;3.337882e-002
1.847549e+003;3.383191e-002
1.849478e+003;3.358282e-002
1.851406e+003;3.344924e-002
1.853335e+003;3.341836e-002
1.855263e+003;3.361275e-002
1.857192e+003;3.374226e-002
1.859120e+003;3.361816e-002
1.861049e+003;3.348428e-002
1.862977e+003;3.339120e-002
1.864906e+003;3.326012e-002
1.866834e+003;3.278891e-002
1.868763e+003;3.244951e-002
1.870692e+003;3.297772e-002
1.872620e+003;3.312163e-002
1.874549e+003;3.279713e-002
1.876477e+003;3.283937e-002
1.878406e+003;3.299556e-002
1.880334e+003;3.295570e-002
1.882263e+003;3.293226e-002
1.884191e+003;3.298352e-002
1.886120e+003;3.311069e-002
1.888048e+003;3.279420e-002
1.889977e+003;3.259557e-002
1.891906e+003;3.310307e-002
1.893834e+003;3.317481e-002
1.895763e+003;3.304504e-002
1.897691e+003;3.302062e-002
1.899620e+003;3.285137e-002
1.901548e+003;3.268630e-002
1.903477e+003;3.272452e-002
1.905405e+003;3.282553e-002
1.907334e+003;3.279777e-002
1.909262e+003;3.259646e-002
1.911191e+003;3.280863e-002
1.913120e+003;3.316787e-002
1.915048e+003;3.314270e-002
1.916977e+003;3.254803e-002
1.918905e+003;3.244397e-002
1.920834e+003;3.296728e-002
1.922762e+003;3.329135e-002
1.924691e+003;3.337256e-002
1.926619e+003;3.341954e-002
1.928548e+003;3.365833e-002
1.930477e+003;3.393332e-002
1.932405e+003;3.391935e-002
1.934334e+003;3.383549e-002
1.936262e+003;3.398484e-002
1.938191e+003;3.417701e-002
1.940119e+003;3.413851e-002
1.942048e+003;3.397448e-002
1.943976e+003;3.414156e-002
1.945905e+003;3.431450e-002
1.947833e+003;3.451988e-002
1.949762e+003;3.471207e-002
1.951691e+003;3.463957e-002
1.953619e+003;3.459874e-002
1.955548e+003;3.479839e-002
1.957476e+003;3.504340e-002
1.959405e+003;3.525482e-002
1.961333e+003;3.544691e-002
1.963262e+003;3.548402e-002
1.965190e+003;3.536250e-002
1.967119e+003;3.541650e-002
1.969047e+003;3.558341e-002
1.970976e+003;3.570782e-002
1.972905e+003;3.566850e-002
1.974833e+003;3.563678e-002
1.976762e+003;3.573775e-002
1.978690e+003;3.607678e-002
1.980619e+003;3.638620e-002
1.982547e+003;3.641700e-002
1.984476e+003;3.649282e-002
1.986404e+003;3.629988e-002
1.988333e+003;3.613349e-002
1.990261e+003;3.619211e-002
1.992190e+003;3.643401e-002
1.994119e+003;3.674080e-002
1.996047e+003;3.669122e-002
1.997976e+003;3.663787e-002
1.999904e+003;3.674210e-002
2.001833e+003;3.688791e-002
2.003761e+003;3.714972e-002
2.005690e+003;3.713330e-002
2.007618e+003;3.719831e-002
2.009547e+003;3.739685e-002
2.011476e+003;3.741213e-002
2.013404e+003;3.743488e-002
2.015333e+003;3.755026e-002
2.017261e+003;3.769214e-002
2.019190e+003;3.805046e-002
2.021118e+003;3.842083e-002
2.023047e+003;3.850982e-002
2.024975e+003;3.852014e-002
2.026904e+003;3.865260e-002
2.028833e+003;3.890160e-002
2.030761e+003;3.947075e-002
2.032690e+003;3.973339e-002
2.034618e+003;3.960895e-002
2.036547e+003;3.964801e-002
2.038475e+003;3.969553e-002
2.040404e+003;3.967904e-002
2.042332e+003;3.982646e-002
2.044261e+003;4.003722e-002
2.046189e+003;4.010415e-002
2.048118e+003;4.011288e-002
2.050047e+003;4.007439e-002
2.051975e+003;4.012327e-002
2.053904e+003;4.018233e-002
2.055832e+003;3.999468e-002
2.057761e+003;4.004725e-002
2.059689e+003;3.998570e-002
2.061618e+003;3.992111e-002
2.063546e+003;4.013359e-002
2.065475e+003;4.030756e-002
2.067404e+003;4.022314e-002
2.069332e+003;4.005688e-002
2.071260e+003;3.998559e-002
2.073189e+003;3.978572e-002
2.075118e+003;3.983645e-002
2.077046e+003;4.000983e-002
2.078975e+003;3.997092e-002
2.080903e+003;4.008668e-002
2.082832e+003;4.025190e-002
2.084760e+003;4.024564e-002
2.086689e+003;4.028643e-002
2.088617e+003;4.016299e-002
2.090546e+003;4.007505e-002
2.092475e+003;4.017015e-002
2.094403e+003;4.017353e-002
2.096332e+003;4.020479e-002
2.098260e+003;4.013613e-002
2.100189e+003;4.024085e-002
2.102117e+003;4.043381e-002
2.104046e+003;4.045090e-002
2.105974e+003;4.061604e-002
2.107903e+003;4.112715e-002
2.109832e+003;4.132812e-002
2.111760e+003;4.137233e-002
2.113688e+003;4.157508e-002
2.115617e+003;4.165086e-002
2.117546e+003;4.145616e-002
2.119474e+003;4.138614e-002
2.121403e+003;4.157027e-002
2.123331e+003;4.183831e-002
2.125260e+003;4.203173e-002
2.127188e+003;4.206914e-002
2.129117e+003;4.216874e-002
2.131045e+003;4.228249e-002
2.132974e+003;4.228731e-002
2.134903e+003;4.231795e-002
2.136831e+003;4.245272e-002
2.138760e+003;4.236602e-002
2.140688e+003;4.232194e-002
2.142617e+003;4.235514e-002
2.144545e+003;4.203271e-002
2.146474e+003;4.177101e-002
2.148402e+003;4.179505e-002
2.150331e+003;4.184313e-002
2.152260e+003;4.173198e-002
2.154188e+003;4.152375e-002
2.156117e+003;4.132892e-002
2.158045e+003;4.115513e-002
2.159974e+003;4.100394e-002
2.161902e+003;4.081419e-002
2.163831e+003;4.063951e-002
2.165759e+003;4.038937e-002
2.167688e+003;4.023750e-002
2.169616e+003;4.001775e-002
2.171545e+003;3.979135e-002
2.173474e+003;3.977737e-002
2.175402e+003;3.974930e-002
2.177331e+003;3.937006e-002
2.179259e+003;3.898206e-002
2.181188e+003;3.889258e-002
2.183116e+003;3.877584e-002
2.185045e+003;3.849943e-002
2.186973e+003;3.832159e-002
2.188902e+003;3.829144e-002
2.190831e+003;3.828829e-002
2.192759e+003;3.817254e-002
2.194688e+003;3.814324e-002
2.196616e+003;3.795112e-002
2.198545e+003;3.758280e-002
2.200473e+003;3.769063e-002
2.202402e+003;3.778702e-002
2.204330e+003;3.746309e-002
2.206259e+003;3.751846e-002
2.208188e+003;3.791279e-002
2.210116e+003;3.808319e-002
2.212044e+003;3.812381e-002
2.213973e+003;3.808377e-002
2.215902e+003;3.788267e-002
2.217830e+003;3.796236e-002
2.219759e+003;3.808815e-002
2.221687e+003;3.784522e-002
2.223616e+003;3.764954e-002
2.225544e+003;3.789106e-002
2.227473e+003;3.819733e-002
2.229401e+003;3.827009e-002
2.231330e+003;3.822833e-002
2.233259e+003;3.814834e-002
2.235187e+003;3.808699e-002
2.237116e+003;3.797910e-002
2.239044e+003;3.793257e-002
2.240973e+003;3.805020e-002
2.242901e+003;3.834515e-002
2.244830e+003;3.838731e-002
2.246758e+003;3.823163e-002
2.248687e+003;3.801118e-002
2.250615e+003;3.789739e-002
2.252544e+003;3.780983e-002
2.254473e+003;3.770671e-002
2.256401e+003;3.745709e-002
2.258330e+003;3.717102e-002
2.260258e+003;3.694747e-002
2.262187e+003;3.699394e-002
2.264115e+003;3.708570e-002
2.266044e+003;3.687262e-002
2.267972e+003;3.655899e-002
2.269901e+003;3.650864e-002
2.271830e+003;3.660160e-002
2.273758e+003;3.680907e-002
2.275687e+003;3.673810e-002
2.277615e+003;3.632099e-002
2.279544e+003;3.612538e-002
2.281472e+003;3.615819e-002
2.283401e+003;3.630053e-002
2.285329e+003;3.650998e-002
2.287258e+003;3.640046e-002
2.289187e+003;3.632293e-002
2.291115e+003;3.636440e-002
2.293043e+003;3.637276e-002
2.294972e+003;3.606684e-002
2.296901e+003;3.571688e-002
2.298829e+003;3.541074e-002
2.300758e+003;3.524556e-002
2.302686e+003;3.554252e-002
2.304615e+003;3.559114e-002
2.306543e+003;3.554903e-002
2.308472e+003;3.569595e-002
2.310400e+003;3.573649e-002
2.312329e+003;3.541394e-002
2.314258e+003;3.518605e-002
2.316186e+003;3.524473e-002
2.318115e+003;3.520801e-002
2.320043e+003;3.503226e-002
2.321972e+003;3.509652e-002
2.323900e+003;3.528300e-002
2.325829e+003;3.540262e-002
2.327757e+003;3.540165e-002
2.329686e+003;3.523819e-002
2.331615e+003;3.516151e-002
2.333543e+003;3.513435e-002
2.335472e+003;3.514714e-002
2.337400e+003;3.540553e-002
2.339329e+003;3.556870e-002
2.341257e+003;3.560390e-002
2.343186e+003;3.597810e-002
2.345114e+003;3.656552e-002
2.347043e+003;3.724325e-002
2.348971e+003;3.749986e-002
2.350900e+003;3.722910e-002
2.352829e+003;3.684546e-002
2.354757e+003;3.673464e-002
2.356686e+003;3.655885e-002
2.358614e+003;3.653470e-002
2.360543e+003;3.676738e-002
2.362471e+003;3.700668e-002
2.364400e+003;3.728618e-002
2.366328e+003;3.743734e-002
2.368257e+003;3.758526e-002
2.370186e+003;3.798880e-002
2.372114e+003;3.851518e-002
2.374042e+003;3.894328e-002
2.375971e+003;3.957334e-002
2.377900e+003;4.017182e-002
2.379828e+003;4.034992e-002
2.381757e+003;4.035177e-002
2.383685e+003;4.037933e-002
2.385614e+003;4.079701e-002
2.387542e+003;4.130232e-002
2.389471e+003;4.127929e-002
2.391399e+003;4.111611e-002
2.393328e+003;4.104149e-002
2.395257e+003;4.100081e-002
2.397185e+003;4.107244e-002
2.399114e+003;4.098592e-002
2.401042e+003;4.120055e-002
2.402971e+003;4.188235e-002
2.404899e+003;4.214953e-002
2.406828e+003;4.227540e-002
2.408756e+003;4.239598e-002
2.410685e+003;4.245495e-002
2.412614e+003;4.263335e-002
2.414542e+003;4.292459e-002
2.416471e+003;4.304479e-002
2.418399e+003;4.297115e-002
2.420328e+003;4.296032e-002
2.422256e+003;4.340151e-002
2.424185e+003;4.389139e-002
2.426113e+003;4.414153e-002
2.428042e+003;4.439579e-002
2.429970e+003;4.458176e-002
2.431899e+003;4.472971e-002
2.433828e+003;4.486574e-002
2.435756e+003;4.496454e-002
2.437685e+003;4.526496e-002
2.439613e+003;4.570540e-002
2.441542e+003;4.573165e-002
2.443470e+003;4.560569e-002
2.445399e+003;4.588161e-002
2.447327e+003;4.635155e-002
2.449256e+003;4.670778e-002
2.451185e+003;4.685853e-002
2.453113e+003;4.689278e-002
2.455042e+003;4.694797e-002
2.456970e+003;4.705762e-002
2.458899e+003;4.721271e-002
2.460827e+003;4.728578e-002
2.462756e+003;4.748437e-002
2.464684e+003;4.763916e-002
2.466613e+003;4.755708e-002
2.468542e+003;4.774462e-002
2.470470e+003;4.840174e-002
2.472398e+003;4.860184e-002
2.474327e+003;4.836352e-002
2.476256e+003;4.843312e-002
2.478184e+003;4.898975e-002
2.480113e+003;4.942690e-002
2.482041e+003;4.957528e-002
2.483970e+003;4.969244e-002
2.485898e+003;4.984728e-002
2.487827e+003;4.995685e-002
2.489755e+003;4.994693e-002
2.491684e+003;4.983918e-002
2.493613e+003;4.978254e-002
2.495541e+003;4.999373e-002
2.497470e+003;5.029117e-002
2.499398e+003;5.068304e-002
2.501327e+003;5.085894e-002
2.503255e+003;5.115157e-002
2.505184e+003;5.133870e-002
2.507112e+003;5.160314e-002
2.509041e+003;5.180218e-002
2.510969e+003;5.183940e-002
2.512898e+003;5.199523e-002
2.514827e+003;5.228944e-002
2.516755e+003;5.255555e-002
2.518684e+003;5.270023e-002
2.520612e+003;5.283181e-002
2.522541e+003;5.271302e-002
2.524469e+003;5.273348e-002
2.526398e+003;5.305707e-002
2.528326e+003;5.330038e-002
2.530255e+003;5.325678e-002
2.532184e+003;5.326333e-002
2.534112e+003;5.328240e-002
2.536041e+003;5.333897e-002
2.537969e+003;5.337995e-002
2.539898e+003;5.326011e-002
2.541826e+003;5.331795e-002
2.543755e+003;5.381442e-002
2.545683e+003;5.404153e-002
2.547612e+003;5.405943e-002
2.549541e+003;5.408506e-002
2.551469e+003;5.408762e-002
2.553397e+003;5.414016e-002
2.555326e+003;5.425063e-002
2.557255e+003;5.450885e-002
2.559183e+003;5.475347e-002
2.561112e+003;5.494133e-002
2.563040e+003;5.484523e-002
2.564969e+003;5.475794e-002
2.566897e+003;5.487850e-002
2.568826e+003;5.492042e-002
2.570754e+003;5.486057e-002
2.572683e+003;5.479294e-002
2.574612e+003;5.466004e-002
2.576540e+003;5.509082e-002
2.578469e+003;5.559528e-002
2.580397e+003;5.576719e-002
2.582326e+003;5.585275e-002
2.584254e+003;5.590732e-002
2.586183e+003;5.593897e-002
2.588111e+003;5.582118e-002
2.590040e+003;5.563806e-002
2.591969e+003;5.581880e-002
2.593897e+003;5.625749e-002
2.595826e+003;5.689816e-002
2.597754e+003;5.719629e-002
2.599683e+003;5.723465e-002
2.601611e+003;5.729635e-002
2.603540e+003;5.739084e-002
2.605468e+003;5.762547e-002
2.607397e+003;5.751852e-002
2.609325e+003;5.741289e-002
2.611254e+003;5.787775e-002
2.613183e+003;5.829048e-002
2.615111e+003;5.824971e-002
2.617040e+003;5.817739e-002
2.618968e+003;5.842082e-002
2.620897e+003;5.872375e-002
2.622825e+003;5.903049e-002
2.624754e+003;5.934038e-002
2.626682e+003;5.956675e-002
2.628611e+003;5.985493e-002
2.630540e+003;6.010098e-002
2.632468e+003;6.035132e-002
2.634396e+003;6.057829e-002
2.636325e+003;6.067491e-002
2.638254e+003;6.073409e-002
2.640182e+003;6.082601e-002
2.642111e+003;6.089348e-002
2.644039e+003;6.105488e-002
2.645968e+003;6.158987e-002
2.647896e+003;6.199151e-002
2.649825e+003;6.226542e-002
2.651753e+003;6.236620e-002
2.653682e+003;6.240342e-002
2.655611e+003;6.263293e-002
2.657539e+003;6.288488e-002
2.659468e+003;6.321463e-002
2.661396e+003;6.323042e-002
2.663325e+003;6.313407e-002
2.665253e+003;6.321823e-002
2.667182e+003;6.339798e-002
2.669110e+003;6.370785e-002
2.671039e+003;6.418781e-002
2.672968e+003;6.436876e-002
2.674896e+003;6.427209e-002
2.676825e+003;6.432534e-002
2.678753e+003;6.469876e-002
2.680682e+003;6.509788e-002
2.682610e+003;6.534635e-002
2.684539e+003;6.563669e-002
2.686467e+003;6.584335e-002
2.688396e+003;6.597778e-002
2.690324e+003;6.622521e-002
2.692253e+003;6.646033e-002
2.694182e+003;6.657561e-002
2.696110e+003;6.681352e-002
2.698039e+003;6.711517e-002
2.699967e+003;6.710627e-002
2.701896e+003;6.710163e-002
2.703824e+003;6.755833e-002
2.705753e+003;6.800641e-002
2.707681e+003;6.808218e-002
2.709610e+003;6.825290e-002
2.711539e+003;6.831529e-002
2.713467e+003;6.842167e-002
2.715396e+003;6.856334e-002
2.717324e+003;6.876702e-002
2.719253e+003;6.953125e-002
2.721181e+003;7.015479e-002
2.723110e+003;7.033139e-002
2.725038e+003;7.025149e-002
2.726967e+003;7.010218e-002
2.728896e+003;7.021593e-002
2.730824e+003;7.035060e-002
2.732752e+003;7.038886e-002
2.734681e+003;7.061834e-002
2.736610e+003;7.089409e-002
2.738538e+003;7.116591e-002
2.740467e+003;7.130478e-002
2.742395e+003;7.153787e-002
2.744324e+003;7.175057e-002
2.746252e+003;7.179134e-002
2.748181e+003;7.169202e-002
2.750109e+003;7.161636e-002
2.752038e+003;7.179790e-002
2.753967e+003;7.200861e-002
2.755895e+003;7.236767e-002
2.757824e+003;7.242674e-002
2.759752e+003;7.239056e-002
2.761681e+003;7.264860e-002
2.763609e+003;7.300748e-002
2.765538e+003;7.312655e-002
2.767466e+003;7.279684e-002
2.769395e+003;7.287700e-002
2.771323e+003;7.349132e-002
2.773252e+003;7.373929e-002
2.775181e+003;7.345655e-002
2.777109e+003;7.352801e-002
2.779038e+003;7.396689e-002
2.780966e+003;7.445861e-002
2.782895e+003;7.476585e-002
2.784823e+003;7.480100e-002
2.786752e+003;7.504094e-002
2.788680e+003;7.517301e-002
2.790609e+003;7.554309e-002
2.792538e+003;7.617059e-002
2.794466e+003;7.650508e-002
2.796395e+003;7.685890e-002
2.798323e+003;7.720992e-002
2.800252e+003;7.750953e-002
2.802180e+003;7.804108e-002
2.804109e+003;7.846053e-002
2.806037e+003;7.874714e-002
2.807966e+003;7.909253e-002
2.809895e+003;7.967105e-002
2.811823e+003;8.046602e-002
2.813751e+003;8.121131e-002
2.815680e+003;8.161900e-002
2.817609e+003;8.184741e-002
2.819537e+003;8.227328e-002
2.821466e+003;8.291058e-002
2.823394e+003;8.379308e-002
2.825323e+003;8.442043e-002
2.827251e+003;8.505214e-002
2.829180e+003;8.594648e-002
2.831108e+003;8.659369e-002
2.833037e+003;8.748083e-002
2.834966e+003;8.853185e-002
2.836894e+003;8.958503e-002
2.838823e+003;9.077333e-002
2.840751e+003;9.242512e-002
2.842680e+003;9.458094e-002
2.844608e+003;9.664879e-002
2.846537e+003;9.893037e-002
2.848465e+003;1.010339e-001
2.850394e+003;1.031325e-001
2.852323e+003;1.046662e-001
2.854251e+003;1.054431e-001
2.856180e+003;1.062367e-001
2.858108e+003;1.065774e-001
2.860037e+003;1.063668e-001
2.861965e+003;1.066679e-001
2.863894e+003;1.074416e-001
2.865822e+003;1.083026e-001
2.867751e+003;1.090146e-001
2.869679e+003;1.096957e-001
2.871608e+003;1.103730e-001
2.873536e+003;1.111120e-001
2.875465e+003;1.118015e-001
2.877394e+003;1.121485e-001
2.879322e+003;1.124628e-001
2.881251e+003;1.128932e-001
2.883179e+003;1.133092e-001
2.885108e+003;1.138922e-001
2.887036e+003;1.146205e-001
2.888965e+003;1.149857e-001
2.890893e+003;1.151453e-001
2.892822e+003;1.155750e-001
2.894750e+003;1.159960e-001
2.896679e+003;1.161401e-001
2.898608e+003;1.168506e-001
2.900536e+003;1.170892e-001
2.902465e+003;1.167482e-001
2.904393e+003;1.163504e-001
2.906322e+003;1.161111e-001
2.908250e+003;1.158207e-001
2.910179e+003;1.152961e-001
2.912107e+003;1.152377e-001
2.914036e+003;1.156293e-001
2.915965e+003;1.154221e-001
2.917893e+003;1.146959e-001
2.919822e+003;1.141278e-001
2.921750e+003;1.133030e-001
2.923679e+003;1.120142e-001
2.925607e+003;1.103646e-001
2.927536e+003;1.091526e-001
2.929464e+003;1.076170e-001
2.931393e+003;1.057299e-001
2.933322e+003;1.042616e-001
2.935250e+003;1.028251e-001
2.937178e+003;1.014533e-001
2.939107e+003;1.004609e-001
2.941036e+003;9.931419e-002
2.942964e+003;9.774231e-002
2.944893e+003;9.671278e-002
2.946821e+003;9.579276e-002
2.948750e+003;9.452830e-002
2.950678e+003;9.349452e-002
2.952607e+003;9.223774e-002
2.954535e+003;9.088311e-002
2.956464e+003;8.958498e-002
2.958393e+003;8.822844e-002
2.960321e+003;8.710805e-002
2.962250e+003;8.618595e-002
2.964178e+003;8.538351e-002
2.966107e+003;8.470488e-002
2.968035e+003;8.406071e-002
2.969964e+003;8.323871e-002
2.971892e+003;8.207699e-002
2.973821e+003;8.103654e-002
2.975750e+003;8.002996e-002
2.977678e+003;7.890213e-002
2.979607e+003;7.788213e-002
2.981535e+003;7.685103e-002
2.983464e+003;7.619787e-002
2.985392e+003;7.577875e-002
2.987321e+003;7.491398e-002
2.989249e+003;7.404355e-002
2.991178e+003;7.375649e-002
2.993106e+003;7.336615e-002
2.995035e+003;7.271198e-002
2.996964e+003;7.265495e-002
2.998892e+003;7.271927e-002
3.000821e+003;7.291134e-002
3.002749e+003;7.323478e-002
3.004678e+003;7.340177e-002
3.006606e+003;7.322463e-002
3.008535e+003;7.293889e-002
3.010463e+003;7.286776e-002
3.012392e+003;7.299172e-002
3.014321e+003;7.341351e-002
3.016249e+003;7.340358e-002
3.018177e+003;7.364690e-002
3.020106e+003;7.404481e-002
3.022035e+003;7.412246e-002
3.023963e+003;7.421006e-002
3.025892e+003;7.468269e-002
3.027820e+003;7.520708e-002
3.029749e+003;7.553659e-002
3.031677e+003;7.586724e-002
3.033606e+003;7.607578e-002
3.035534e+003;7.633337e-002
3.037463e+003;7.676676e-002
3.039392e+003;7.719048e-002
3.041320e+003;7.776496e-002
3.043249e+003;7.828539e-002
3.045177e+003;7.868669e-002
3.047106e+003;7.910211e-002
3.049034e+003;7.936306e-002
3.050963e+003;7.931505e-002
3.052891e+003;7.954014e-002
3.054820e+003;8.045840e-002
3.056749e+003;8.121467e-002
3.058677e+003;8.175117e-002
3.060606e+003;8.207298e-002
3.062534e+003;8.200274e-002
3.064463e+003;8.213803e-002
3.066391e+003;8.243910e-002
3.068320e+003;8.288167e-002
3.070248e+003;8.351915e-002
3.072177e+003;8.424842e-002
3.074105e+003;8.500983e-002
3.076034e+003;8.547612e-002
3.077963e+003;8.571182e-002
3.079891e+003;8.606143e-002
3.081820e+003;8.639579e-002
3.083748e+003;8.696234e-002
3.085677e+003;8.806937e-002
3.087605e+003;8.888353e-002
3.089534e+003;8.911800e-002
3.091462e+003;8.959293e-002
3.093391e+003;8.992159e-002
3.095320e+003;9.013189e-002
3.097248e+003;9.095117e-002
3.099177e+003;9.169845e-002
3.101105e+003;9.177178e-002
3.103034e+003;9.185251e-002
3.104962e+003;9.256385e-002
3.106891e+003;9.336485e-002
3.108819e+003;9.367561e-002
3.110748e+003;9.391840e-002
3.112677e+003;9.452240e-002
3.114605e+003;9.579797e-002
3.116533e+003;9.650510e-002
3.118462e+003;9.698416e-002
3.120391e+003;9.743642e-002
3.122319e+003;9.762622e-002
3.124248e+003;9.809738e-002
3.126176e+003;9.878763e-002
3.128105e+003;9.960895e-002
3.130033e+003;1.005585e-001
3.131962e+003;1.008812e-001
3.133890e+003;1.008705e-001
3.135819e+003;1.014138e-001
3.137748e+003;1.022494e-001
3.139676e+003;1.028500e-001
3.141605e+003;1.033547e-001
3.143533e+003;1.037248e-001
3.145462e+003;1.046208e-001
3.147390e+003;1.055847e-001
3.149319e+003;1.063704e-001
3.151247e+003;1.073023e-001
3.153176e+003;1.076351e-001
3.155104e+003;1.083873e-001
3.157033e+003;1.092096e-001
3.158962e+003;1.096007e-001
3.160890e+003;1.104990e-001
3.162819e+003;1.114716e-001
3.164747e+003;1.117542e-001
3.166676e+003;1.120502e-001
3.168604e+003;1.123496e-001
3.170533e+003;1.130924e-001
3.172461e+003;1.142656e-001
3.174390e+003;1.152093e-001
3.176319e+003;1.161025e-001
3.178247e+003;1.169948e-001
3.180176e+003;1.181401e-001
3.182104e+003;1.186401e-001
3.184033e+003;1.187609e-001
3.185961e+003;1.193976e-001
3.187890e+003;1.205010e-001
3.189818e+003;1.215805e-001
3.191747e+003;1.224525e-001
3.193676e+003;1.231487e-001
3.195604e+003;1.238866e-001
3.197532e+003;1.242655e-001
3.199461e+003;1.246450e-001
3.201390e+003;1.256871e-001
3.203318e+003;1.273110e-001
3.205247e+003;1.281419e-001
3.207175e+003;1.286163e-001
3.209104e+003;1.297596e-001
3.211032e+003;1.303439e-001
3.212961e+003;1.308860e-001
3.214889e+003;1.320179e-001
3.216818e+003;1.327639e-001
3.218747e+003;1.335313e-001
3.220675e+003;1.346464e-001
3.222604e+003;1.352869e-001
3.224532e+003;1.359342e-001
3.226461e+003;1.377230e-001
3.228389e+003;1.391624e-001
3.230318e+003;1.396081e-001
3.232246e+003;1.401065e-001
3.234175e+003;1.408809e-001
3.236104e+003;1.417383e-001
3.238032e+003;1.425712e-001
3.239961e+003;1.435774e-001
3.241889e+003;1.446406e-001
3.243818e+003;1.452344e-001
3.245746e+003;1.461154e-001
3.247675e+003;1.477260e-001
3.249603e+003;1.494021e-001
3.251532e+003;1.506016e-001
3.253460e+003;1.516397e-001
3.255389e+003;1.526175e-001
3.257318e+003;1.533894e-001
3.259246e+003;1.545504e-001
3.261175e+003;1.560632e-001
3.263103e+003;1.567548e-001
3.265032e+003;1.572214e-001
3.266960e+003;1.581083e-001
3.268889e+003;1.584471e-001
3.270817e+003;1.587113e-001
3.272746e+003;1.591529e-001
3.274675e+003;1.595003e-001
3.276603e+003;1.599006e-001
3.278531e+003;1.607514e-001
3.280460e+003;1.610153e-001
3.282389e+003;1.604394e-001
3.284317e+003;1.607989e-001
3.286246e+003;1.614961e-001
3.288174e+003;1.615033e-001
3.290103e+003;1.617013e-001
3.292031e+003;1.624363e-001
3.293960e+003;1.626769e-001
3.295888e+003;1.620371e-001
3.297817e+003;1.622300e-001
3.299746e+003;1.626301e-001
3.301674e+003;1.623393e-001
3.303603e+003;1.626859e-001
3.305531e+003;1.630092e-001
3.307460e+003;1.624539e-001
3.309388e+003;1.623297e-001
3.311317e+003;1.630042e-001
3.313245e+003;1.630630e-001
3.315174e+003;1.633247e-001
3.317103e+003;1.643376e-001
3.319031e+003;1.651526e-001
3.320960e+003;1.657623e-001
3.322888e+003;1.659464e-001
3.324817e+003;1.657117e-001
3.326745e+003;1.657917e-001
3.328674e+003;1.663818e-001
3.330602e+003;1.666947e-001
3.332531e+003;1.666300e-001
3.334459e+003;1.660571e-001
3.336388e+003;1.657708e-001
3.338317e+003;1.655816e-001
3.340245e+003;1.648528e-001
3.342174e+003;1.638380e-001
3.344102e+003;1.630495e-001
3.346031e+003;1.624570e-001
3.347959e+003;1.615183e-001
3.349888e+003;1.602884e-001
3.351816e+003;1.590251e-001
3.353745e+003;1.581021e-001
3.355674e+003;1.577265e-001
3.357602e+003;1.572275e-001
3.359531e+003;1.562917e-001
3.361459e+003;1.556740e-001
3.363388e+003;1.549895e-001
3.365316e+003;1.540107e-001
3.367245e+003;1.528142e-001
3.369173e+003;1.516739e-001
3.371102e+003;1.513000e-001
3.373031e+003;1.512710e-001
3.374959e+003;1.507324e-001
3.376887e+003;1.498564e-001
3.378816e+003;1.486203e-001
3.380745e+003;1.479845e-001
3.382673e+003;1.481813e-001
3.384602e+003;1.475216e-001
3.386530e+003;1.459857e-001
3.388459e+003;1.451167e-001
3.390387e+003;1.448983e-001
3.392316e+003;1.452644e-001
3.394244e+003;1.451763e-001
3.396173e+003;1.438968e-001
3.398102e+003;1.423047e-001
3.400030e+003;1.416580e-001
3.401959e+003;1.411482e-001
3.403887e+003;1.402939e-001
3.405816e+003;1.395300e-001
3.407744e+003;1.383271e-001
3.409673e+003;1.369523e-001
3.411601e+003;1.360792e-001
3.413530e+003;1.353160e-001
3.415458e+003;1.337977e-001
3.417387e+003;1.322055e-001
3.419316e+003;1.312223e-001
3.421244e+003;1.309452e-001
3.423173e+003;1.300623e-001
3.425101e+003;1.291739e-001
3.427030e+003;1.287300e-001
3.428958e+003;1.277062e-001
3.430887e+003;1.264650e-001
3.432815e+003;1.254794e-001
3.434744e+003;1.241609e-001
3.436673e+003;1.231997e-001
3.438601e+003;1.227183e-001
3.440530e+003;1.216567e-001
3.442458e+003;1.203214e-001
3.444387e+003;1.191954e-001
3.446315e+003;1.182735e-001
3.448244e+003;1.172855e-001
3.450172e+003;1.165594e-001
3.452101e+003;1.162306e-001
3.454030e+003;1.157632e-001
3.455958e+003;1.150151e-001
3.457886e+003;1.140185e-001
3.459815e+003;1.128736e-001
3.461744e+003;1.116796e-001
3.463672e+003;1.107431e-001
3.465601e+003;1.100851e-001
3.467529e+003;1.089046e-001
3.469458e+003;1.075778e-001
3.471386e+003;1.061073e-001
3.473315e+003;1.045878e-001
3.475243e+003;1.037344e-001
3.477172e+003;1.032125e-001
3.479101e+003;1.027707e-001
3.481029e+003;1.019824e-001
3.482958e+003;1.005765e-001
3.484886e+003;9.931311e-002
3.486815e+003;9.841491e-002
3.488743e+003;9.769285e-002
3.490672e+003;9.707294e-002
3.492600e+003;9.602607e-002
3.494529e+003;9.468114e-002
3.496458e+003;9.352629e-002
3.498386e+003;9.301531e-002
3.500315e+003;9.189705e-002
3.502243e+003;9.074144e-002
3.504172e+003;8.991331e-002
3.506100e+003;8.909746e-002
3.508029e+003;8.850220e-002
3.509957e+003;8.731072e-002
3.511886e+003;8.600879e-002
3.513814e+003;8.545620e-002
3.515743e+003;8.442783e-002
3.517672e+003;8.271745e-002
3.519600e+003;8.158313e-002
3.521529e+003;8.076125e-002
3.523457e+003;7.993340e-002
3.525386e+003;7.931322e-002
3.527314e+003;7.865409e-002
3.529243e+003;7.764141e-002
3.531171e+003;7.701356e-002
3.533100e+003;7.641325e-002
3.535029e+003;7.496359e-002
3.536957e+003;7.384029e-002
3.538885e+003;7.336996e-002
3.540814e+003;7.248057e-002
3.542743e+003;7.115409e-002
3.544671e+003;7.001746e-002
3.546600e+003;6.942087e-002
3.548528e+003;6.879753e-002
3.550457e+003;6.766778e-002
3.552385e+003;6.668393e-002
3.554314e+003;6.653185e-002
3.556242e+003;6.597844e-002
3.558171e+003;6.486396e-002
3.560100e+003;6.414272e-002
3.562028e+003;6.358647e-002
3.563957e+003;6.256416e-002
3.565885e+003;6.098228e-002
3.567814e+003;5.974648e-002
3.569742e+003;5.994347e-002
3.571671e+003;5.962510e-002
3.573599e+003;5.890783e-002
3.575528e+003;5.836169e-002
3.577457e+003;5.736566e-002
3.579385e+003;5.625734e-002
3.581314e+003;5.537751e-002
3.583242e+003;5.440488e-002
3.585171e+003;5.321812e-002
3.587099e+003;5.206739e-002
3.589028e+003;5.168270e-002
3.590956e+003;5.187719e-002
3.592885e+003;5.072724e-002
3.594813e+003;4.944479e-002
3.596742e+003;4.878035e-002
3.598671e+003;4.790750e-002
3.600599e+003;4.669723e-002
3.602528e+003;4.644147e-002
3.604456e+003;4.602559e-002
3.606385e+003;4.500398e-002
3.608313e+003;4.448113e-002
3.610242e+003;4.404475e-002
3.612170e+003;4.296051e-002
3.614099e+003;4.212273e-002
3.616028e+003;4.107492e-002
3.617956e+003;3.936789e-002
3.619885e+003;3.851445e-002
3.621813e+003;3.883525e-002
3.623742e+003;3.878098e-002
3.625670e+003;3.737378e-002
3.627599e+003;3.451920e-002
3.629527e+003;3.418927e-002
3.631456e+003;3.548639e-002
3.633385e+003;3.511323e-002
3.635313e+003;3.423508e-002
3.637241e+003;3.329042e-002
3.639170e+003;3.227805e-002
3.641099e+003;3.116003e-002
3.643027e+003;3.038090e-002
3.644956e+003;2.929794e-002
3.646884e+003;2.718206e-002
3.648813e+003;2.503291e-002
3.650741e+003;2.485338e-002
3.652670e+003;2.606499e-002
3.654598e+003;2.558173e-002
3.656527e+003;2.503884e-002
3.658456e+003;2.546760e-002
3.660384e+003;2.487303e-002
3.662313e+003;2.430712e-002
3.664241e+003;2.352140e-002
3.666170e+003;2.183712e-002
3.668098e+003;1.977165e-002
3.670027e+003;1.888838e-002
3.671955e+003;1.962579e-002
3.673884e+003;1.812411e-002
3.675813e+003;1.699412e-002
3.677741e+003;1.821421e-002
3.679669e+003;1.843402e-002
3.681598e+003;1.875098e-002
3.683527e+003;1.916900e-002
3.685455e+003;1.808441e-002
3.687384e+003;1.499225e-002
3.689312e+003;1.438773e-002
3.691241e+003;1.576911e-002
3.693169e+003;1.651266e-002
3.695098e+003;1.689442e-002
3.697026e+003;1.682642e-002
3.698955e+003;1.634046e-002
3.700884e+003;1.522410e-002
3.702812e+003;1.517918e-002
3.704741e+003;1.581003e-002
3.706669e+003;1.572760e-002
3.708598e+003;1.495405e-002
3.710526e+003;1.389077e-002
3.712455e+003;1.371345e-002
3.714383e+003;1.434327e-002
3.716312e+003;1.432019e-002
3.718240e+003;1.457765e-002
3.720169e+003;1.442379e-002
3.722098e+003;1.376875e-002
3.724026e+003;1.372224e-002
3.725955e+003;1.397641e-002
3.727883e+003;1.395376e-002
3.729812e+003;1.294737e-002
3.731740e+003;1.187070e-002
3.733669e+003;1.129750e-002
3.735597e+003;1.082788e-002
3.737526e+003;1.220546e-002
3.739455e+003;1.295197e-002
3.741383e+003;1.154532e-002
3.743312e+003;8.709453e-003
3.745240e+003;9.643718e-003
3.747169e+003;1.040091e-002
3.749097e+003;8.410042e-003
3.751026e+003;8.561884e-003
3.752954e+003;1.119491e-002
3.754883e+003;1.319544e-002
3.756812e+003;1.278924e-002
3.758740e+003;1.240353e-002
3.760668e+003;1.282258e-002
3.762597e+003;1.326820e-002
3.764526e+003;1.292153e-002
3.766454e+003;1.285729e-002
3.768383e+003;1.286882e-002
3.770311e+003;1.305918e-002
3.772240e+003;1.304774e-002
3.774168e+003;1.279593e-002
3.776097e+003;1.260797e-002
3.778025e+003;1.222686e-002
3.779954e+003;1.198033e-002
3.781883e+003;1.282333e-002
3.783811e+003;1.368948e-002
3.785740e+003;1.393319e-002
3.787668e+003;1.360735e-002
3.789597e+003;1.338235e-002
3.791525e+003;1.351694e-002
3.793454e+003;1.302824e-002
3.795382e+003;1.236637e-002
3.797311e+003;1.244585e-002
3.799240e+003;1.143478e-002
3.801168e+003;1.071080e-002
3.803097e+003;1.201933e-002
3.805025e+003;1.197839e-002
3.806954e+003;1.149210e-002
3.808882e+003;1.276273e-002
3.810811e+003;1.374516e-002
3.812739e+003;1.418676e-002
3.814668e+003;1.278620e-002
3.816596e+003;1.164748e-002
3.818525e+003;1.145294e-002
3.820454e+003;1.059100e-002
3.822382e+003;1.169982e-002
3.824311e+003;1.314899e-002
3.826239e+003;1.353515e-002
3.828168e+003;1.376407e-002
3.830096e+003;1.337466e-002
3.832025e+003;1.301022e-002
3.833953e+003;1.276631e-002
3.835882e+003;1.165006e-002
3.837811e+003;1.072024e-002
3.839739e+003;1.142066e-002
3.841667e+003;1.185769e-002
3.843596e+003;1.263506e-002
3.845525e+003;1.381592e-002
3.847453e+003;1.370586e-002
3.849382e+003;1.299550e-002
3.851310e+003;1.086953e-002
3.853239e+003;8.969425e-003
3.855167e+003;1.187713e-002
3.857096e+003;1.455058e-002
3.859024e+003;1.472125e-002
3.860953e+003;1.401501e-002
3.862882e+003;1.311836e-002
3.864810e+003;1.352029e-002
3.866739e+003;1.396381e-002
3.868667e+003;1.323875e-002
3.870596e+003;1.410642e-002
3.872524e+003;1.512881e-002
3.874453e+003;1.459225e-002
3.876381e+003;1.473616e-002
3.878310e+003;1.473533e-002
3.880239e+003;1.441472e-002
3.882167e+003;1.469482e-002
3.884096e+003;1.477657e-002
3.886024e+003;1.477822e-002
3.887953e+003;1.580601e-002
3.889881e+003;1.575440e-002
3.891810e+003;1.530276e-002
3.893738e+003;1.589928e-002
3.895667e+003;1.632619e-002
3.897595e+003;1.528182e-002
3.899524e+003;1.458762e-002
3.901453e+003;1.463361e-002
3.903381e+003;1.455802e-002
3.905310e+003;1.550641e-002
3.907238e+003;1.619375e-002
3.909167e+003;1.625037e-002
3.911095e+003;1.642067e-002
3.913024e+003;1.713652e-002
3.914952e+003;1.723273e-002
3.916881e+003;1.659957e-002
3.918810e+003;1.691436e-002
3.920738e+003;1.769798e-002
3.922667e+003;1.793908e-002
3.924595e+003;1.785642e-002
3.926524e+003;1.822758e-002
3.928452e+003;1.851022e-002
3.930381e+003;1.846898e-002
3.932309e+003;1.799002e-002
3.934238e+003;1.742980e-002
3.936167e+003;1.758466e-002
3.938095e+003;1.846230e-002
3.940023e+003;1.816280e-002
3.941952e+003;1.759156e-002
3.943881e+003;1.787189e-002
3.945809e+003;1.787620e-002
3.947738e+003;1.748413e-002
3.949666e+003;1.801582e-002
3.951595e+003;1.839814e-002
3.953523e+003;1.819776e-002
3.955452e+003;1.828626e-002
3.957380e+003;1.858305e-002
3.959309e+003;1.874873e-002
3.961238e+003;1.861805e-002
3.963166e+003;1.895625e-002
3.965095e+003;1.941144e-002
3.967023e+003;1.921634e-002
3.968952e+003;1.865679e-002
3.970880e+003;1.852357e-002
3.972809e+003;1.877067e-002
3.974737e+003;1.840810e-002
3.976666e+003;1.852748e-002
3.978594e+003;1.870667e-002
3.980523e+003;1.877298e-002
3.982452e+003;1.825336e-002
3.984380e+003;1.757948e-002
3.986309e+003;1.806117e-002
3.988237e+003;1.888406e-002
3.990166e+003;1.910798e-002
3.992094e+003;1.910182e-002
3.994023e+003;1.981164e-002
3.995951e+003;2.006439e-002
3.997880e+003;1.981039e-002
3.999809e+003;1.986546e-002
4.001737e+003;0.000000e+000
