3.992094e+002;0.000000e+000
4.011380e+002;0.000000e+000
4.030665e+002;0.000000e+000
4.049951e+002;0.000000e+000
4.069236e+002;0.000000e+000
4.088522e+002;0.000000e+000
4.107807e+002;0.000000e+000
4.127093e+002;0.000000e+000
4.146378e+002;0.000000e+000
4.165664e+002;0.000000e+000
4.184949e+002;0.000000e+000
4.204235e+002;0.000000e+000
4.223520e+002;0.000000e+000
4.242806e+002;0.000000e+000
4.262091e+002;0.000000e+000
4.281377e+002;0.000000e+000
4.300662e+002;0.000000e+000
4.319948e+002;0.000000e+000
4.339233e+002;0.000000e+000
4.358519e+002;0.000000e+000
4.377804e+002;0.000000e+000
4.397090e+002;0.000000e+000
4.416375e+002;0.000000e+000
4.435660e+002;0.000000e+000
4.454946e+002;0.000000e+000
4.474232e+002;0.000000e+000
4.493517e+002;0.000000e+000
4.512802e+002;0.000000e+000
4.532088e+002;0.000000e+000
4.551373e+002;0.000000e+000
4.570659e+002;0.000000e+000
4.589944e+002;0.000000e+000
4.609230e+002;0.000000e+000
4.628515e+002;0.000000e+000
4.647801e+002;0.000000e+000
4.667086e+002;0.000000e+000
4.686372e+002;0.000000e+000
4.705657e+002;0.000000e+000
4.724943e+002;0.000000e+000
4.744228e+002;0.000000e+000
4.763513e+002;0.000000e+000
4.782799e+002;0.000000e+000
4.802085e+002;0.000000e+000
4.821370e+002;0.000000e+000
4.840656e+002;0.000000e+000
4.859941e+002;0.000000e+000
4.879226e+002;0.000000e+000
4.898512e+002;0.000000e+000
4.917798e+002;0.000000e+000
4.937083e+002;0.000000e+000
4.956368e+002;0.000000e+000
4.975654e+002;0.000000e+000
4.994939e+002;0.000000e+000
5.014225e+002;0.000000e+000
5.033510e+002;0.000000e+000
5.052796e+002;0.000000e+000
5.072081e+002;0.000000e+000
5.091367e+002;0.000000e+000
5.110652e+002;0.000000e+000
5.129938e+002;0.000000e+000
5.149223e+002;0.000000e+000
5.168509e+002;0.000000e+000
5.187794e+002;0.000000e+000
5.207079e+002;0.000000e+000
5.226365e+002;0.000000e+000
5.245651e+002;0.000000e+000
5.264936e+002;0.000000e+000
5.284222e+002;0.000000e+000
5.303507e+002;0.000000e+000
5.322792e+002;0.000000e+000
5.342078e+002;0.000000e+000
5.361364e+002;0.000000e+000
5.380649e+002;0.000000e+000
5.399935e+002;0.000000e+000
5.419220e+002;0.000000e+000
5.438505e+002;0.000000e+000
5.457791e+002;0.000000e+000
5.477076e+002;0.000000e+000
5.496362e+002;0.000000e+000
5.515648e+002;0.000000e+000
5.534933e+002;0.000000e+000
5.554218e+002;0.000000e+000
5.573504e+002;0.000000e+000
5.592789e+002;0.000000e+000
5.612075e+002;0.000000e+000
5.631360e+002;0.000000e+000
5.650646e+002;0.000000e+000
5.669931e+002;0.000000e+000
5.689217e+002;0.000000e+000
5.708502e+002;0.000000e+000
5.727787e+002;0.000000e+000
5.747073e+002;0.000000e+000
5.766359e+002;0.000000e+000
5.785644e+002;0.000000e+000
5.804930e+002;0.000000e+000
5.824215e+002;0.000000e+000
5.843500e+002;0.000000e+000
5.862786e+002;0.000000e+000
5.882072e+002;0.000000e+000
5.901357e+002;0.000000e+000
5.920643e+002;0.000000e+000
5.939928e+002;0.000000e+000
5.959213e+002;0.000000e+000
5.978499e+002;0.000000e+000
5.997784e+002;1.685176e-001
6.017070e+002;1.692027e-001
6.036355e+002;1.689946e-001
6.055641e+002;1.722084e-001
6.074926e+002;1.770309e-001
6.094211e+002;1.736808e-001
6.113497e+002;1.727786e-001
6.132783e+002;1.737535e-001
6.152068e+002;1.718411e-001
6.171354e+002;1.708317e-001
6.190639e+002;1.738441e-001
6.209924e+002;1.736724e-001
6.229210e+002;1.754784e-001
6.248495e+002;1.762807e-001
6.267781e+002;1.778879e-001
6.287067e+002;1.789898e-001
6.306352e+002;1.752311e-001
6.325637e+002;1.696233e-001
6.344923e+002;1.702528e-001
6.364208e+002;1.710576e-001
6.383494e+002;1.692221e-001
6.402780e+002;1.709967e-001
6.422065e+002;1.751084e-001
6.441350e+002;1.728881e-001
6.460636e+002;1.689111e-001
6.479921e+002;1.742657e-001
6.499207e+002;1.771164e-001
6.518492e+002;1.744510e-001
6.537778e+002;1.742951e-001
6.557063e+002;1.741516e-001
6.576349e+002;1.707239e-001
6.595634e+002;1.712173e-001
6.614919e+002;1.770503e-001
6.634205e+002;1.791840e-001
6.653491e+002;1.791268e-001
6.672776e+002;1.785173e-001
6.692062e+002;1.766223e-001
6.711347e+002;1.759458e-001
6.730632e+002;1.747392e-001
6.749918e+002;1.707511e-001
6.769203e+002;1.680994e-001
6.788489e+002;1.669232e-001
6.807775e+002;1.657022e-001
6.827060e+002;1.631424e-001
6.846345e+002;1.604316e-001
6.865631e+002;1.591127e-001
6.884916e+002;1.592500e-001
6.904202e+002;1.580817e-001
6.923488e+002;1.576363e-001
6.942773e+002;1.580877e-001
6.962058e+002;1.582908e-001
6.981344e+002;1.575983e-001
7.000629e+002;1.578032e-001
7.019915e+002;1.574864e-001
7.039200e+002;1.558819e-001
7.058486e+002;1.552236e-001
7.077771e+002;1.551917e-001
7.097057e+002;1.548501e-001
7.116342e+002;1.544193e-001
7.135627e+002;1.531733e-001
7.154913e+002;1.514333e-001
7.174199e+002;1.503149e-001
7.193484e+002;1.487423e-001
7.212770e+002;1.464443e-001
7.232055e+002;1.458127e-001
7.251340e+002;1.453543e-001
7.270626e+002;1.438990e-001
7.289911e+002;1.420073e-001
7.309197e+002;1.394499e-001
7.328483e+002;1.374656e-001
7.347768e+002;1.361485e-001
7.367053e+002;1.344773e-001
7.386339e+002;1.336336e-001
7.405624e+002;1.331763e-001
7.424910e+002;1.318212e-001
7.444196e+002;1.306447e-001
7.463481e+002;1.303481e-001
7.482766e+002;1.301477e-001
7.502052e+002;1.294632e-001
7.521337e+002;1.274612e-001
7.540623e+002;1.254602e-001
7.559908e+002;1.244655e-001
7.579194e+002;1.237402e-001
7.598479e+002;1.224262e-001
7.617765e+002;1.213962e-001
7.637050e+002;1.206311e-001
7.656335e+002;1.193071e-001
7.675621e+002;1.180321e-001
7.694907e+002;1.172465e-001
7.714192e+002;1.168984e-001
7.733478e+002;1.161866e-001
7.752763e+002;1.159227e-001
7.772048e+002;1.164755e-001
7.791334e+002;1.156007e-001
7.810620e+002;1.136838e-001
7.829905e+002;1.133008e-001
7.849191e+002;1.138652e-001
7.868476e+002;1.133265e-001
7.887761e+002;1.125159e-001
7.907047e+002;1.117239e-001
7.926332e+002;1.108395e-001
7.945618e+002;1.101636e-001
7.964903e+002;1.092053e-001
7.984189e+002;1.086489e-001
8.003474e+002;1.097668e-001
8.022759e+002;1.105487e-001
8.042045e+002;1.098806e-001
8.061331e+002;1.090210e-001
8.080616e+002;1.082657e-001
8.099902e+002;1.075024e-001
8.119187e+002;1.072737e-001
8.138472e+002;1.076036e-001
8.157758e+002;1.080701e-001
8.177043e+002;1.077531e-001
8.196329e+002;1.069953e-001
8.215615e+002;1.060213e-001
8.234900e+002;1.053588e-001
8.254185e+002;1.054570e-001
8.273471e+002;1.051525e-001
8.292756e+002;1.042708e-001
8.312042e+002;1.044416e-001
8.331328e+002;1.050841e-001
8.350613e+002;1.053643e-001
8.369898e+002;1.042909e-001
8.389184e+002;1.029452e-001
8.408469e+002;1.023584e-001
8.427755e+002;1.018436e-001
8.447040e+002;1.013005e-001
8.466326e+002;1.008676e-001
8.485611e+002;1.002028e-001
8.504897e+002;9.913868e-002
8.524182e+002;9.858552e-002
8.543467e+002;9.888598e-002
8.562753e+002;9.872499e-002
8.582039e+002;9.874325e-002
8.601324e+002;9.918394e-002
8.620610e+002;9.886231e-002
8.639895e+002;9.866232e-002
8.659180e+002;9.881600e-002
8.678466e+002;9.913927e-002
8.697751e+002;9.995491e-002
8.717037e+002;1.006741e-001
8.736323e+002;1.020896e-001
8.755608e+002;1.037438e-001
8.774893e+002;1.052938e-001
8.794179e+002;1.067371e-001
8.813464e+002;1.090308e-001
8.832750e+002;1.114592e-001
8.852036e+002;1.135793e-001
8.871321e+002;1.156955e-001
8.890606e+002;1.182996e-001
8.909892e+002;1.214216e-001
8.929177e+002;1.241358e-001
8.948463e+002;1.261216e-001
8.967748e+002;1.272733e-001
8.987034e+002;1.282216e-001
9.006319e+002;1.291880e-001
9.025605e+002;1.292663e-001
9.044890e+002;1.286824e-001
9.064175e+002;1.276741e-001
9.083461e+002;1.263745e-001
9.102747e+002;1.249470e-001
9.122032e+002;1.235711e-001
9.141318e+002;1.220323e-001
9.160603e+002;1.205265e-001
9.179888e+002;1.193960e-001
9.199174e+002;1.190208e-001
9.218459e+002;1.185106e-001
9.237745e+002;1.178366e-001
9.257031e+002;1.177340e-001
9.276316e+002;1.183614e-001
9.295601e+002;1.190711e-001
9.314887e+002;1.191582e-001
9.334172e+002;1.190701e-001
9.353458e+002;1.195612e-001
9.372744e+002;1.199010e-001
9.392029e+002;1.197903e-001
9.411314e+002;1.199174e-001
9.430600e+002;1.203888e-001
9.449885e+002;1.208767e-001
9.469171e+002;1.216095e-001
9.488456e+002;1.228309e-001
9.507742e+002;1.242599e-001
9.527027e+002;1.257136e-001
9.546313e+002;1.269423e-001
9.565598e+002;1.282431e-001
9.584883e+002;1.300503e-001
9.604169e+002;1.317176e-001
9.623455e+002;1.328552e-001
9.642740e+002;1.341610e-001
9.662026e+002;1.360214e-001
9.681311e+002;1.379510e-001
9.700596e+002;1.400734e-001
9.719882e+002;1.429749e-001
9.739167e+002;1.465334e-001
9.758453e+002;1.505870e-001
9.777739e+002;1.551824e-001
9.797024e+002;1.605534e-001
9.816309e+002;1.672850e-001
9.835595e+002;1.749380e-001
9.854880e+002;1.821515e-001
9.874166e+002;1.883397e-001
9.893452e+002;1.938180e-001
9.912737e+002;1.992780e-001
9.932022e+002;2.043130e-001
9.951307e+002;2.085692e-001
9.970593e+002;2.122237e-001
9.989879e+002;2.153108e-001
1.000916e+003;2.179316e-001
1.002845e+003;2.201347e-001
1.004773e+003;2.220832e-001
1.006702e+003;2.248656e-001
1.008631e+003;2.281573e-001
1.010559e+003;2.319544e-001
1.012488e+003;2.357698e-001
1.014416e+003;2.398758e-001
1.016345e+003;2.442799e-001
1.018273e+003;2.482728e-001
1.020202e+003;2.520736e-001
1.022130e+003;2.551078e-001
1.024059e+003;2.570442e-001
1.025988e+003;2.583309e-001
1.027916e+003;2.596937e-001
1.029845e+003;2.611396e-001
1.031773e+003;2.621247e-001
1.033702e+003;2.625884e-001
1.035630e+003;2.627186e-001
1.037559e+003;2.625640e-001
1.039487e+003;2.623847e-001
1.041416e+003;2.622654e-001
1.043344e+003;2.622015e-001
1.045273e+003;2.623698e-001
1.047202e+003;2.625119e-001
1.049130e+003;2.622472e-001
1.051059e+003;2.622754e-001
1.052987e+003;2.629635e-001
1.054916e+003;2.633500e-001
1.056844e+003;2.629019e-001
1.058773e+003;2.622595e-001
1.060701e+003;2.609445e-001
1.062630e+003;2.598008e-001
1.064558e+003;2.587405e-001
1.066487e+003;2.569687e-001
1.068416e+003;2.542358e-001
1.070344e+003;2.513465e-001
1.072273e+003;2.492180e-001
1.074201e+003;2.467884e-001
1.076130e+003;2.442599e-001
1.078058e+003;2.418303e-001
1.079987e+003;2.389839e-001
1.081915e+003;2.365989e-001
1.083844e+003;2.346987e-001
1.085773e+003;2.325812e-001
1.087701e+003;2.305815e-001
1.089630e+003;2.291947e-001
1.091558e+003;2.272323e-001
1.093487e+003;2.250223e-001
1.095415e+003;2.233479e-001
1.097344e+003;2.220172e-001
1.099272e+003;2.203826e-001
1.101201e+003;2.185639e-001
1.103129e+003;2.171354e-001
1.105058e+003;2.148962e-001
1.106987e+003;2.124517e-001
1.108915e+003;2.103934e-001
1.110844e+003;2.083078e-001
1.112772e+003;2.061725e-001
1.114701e+003;2.035476e-001
1.116629e+003;2.008929e-001
1.118558e+003;1.980391e-001
1.120486e+003;1.949358e-001
1.122415e+003;1.920119e-001
1.124344e+003;1.893637e-001
1.126272e+003;1.861683e-001
1.128201e+003;1.828883e-001
1.130129e+003;1.799084e-001
1.132058e+003;1.768475e-001
1.133986e+003;1.740563e-001
1.135915e+003;1.718299e-001
1.137843e+003;1.698525e-001
1.139772e+003;1.675385e-001
1.141700e+003;1.656464e-001
1.143629e+003;1.645298e-001
1.145557e+003;1.638731e-001
1.147486e+003;1.635488e-001
1.149415e+003;1.633573e-001
1.151343e+003;1.631082e-001
1.153272e+003;1.633049e-001
1.155200e+003;1.638494e-001
1.157129e+003;1.638853e-001
1.159057e+003;1.636428e-001
1.160986e+003;1.639750e-001
1.162914e+003;1.637243e-001
1.164843e+003;1.618941e-001
1.166771e+003;1.592103e-001
1.168700e+003;1.561157e-001
1.170629e+003;1.527599e-001
1.172557e+003;1.492608e-001
1.174486e+003;1.456296e-001
1.176414e+003;1.421210e-001
1.178343e+003;1.390075e-001
1.180271e+003;1.360210e-001
1.182200e+003;1.334721e-001
1.184128e+003;1.318540e-001
1.186057e+003;1.305703e-001
1.187986e+003;1.299626e-001
1.189914e+003;1.303192e-001
1.191843e+003;1.310171e-001
1.193771e+003;1.321046e-001
1.195700e+003;1.331702e-001
1.197628e+003;1.337774e-001
1.199557e+003;1.342987e-001
1.201485e+003;1.345183e-001
1.203414e+003;1.344783e-001
1.205343e+003;1.340666e-001
1.207271e+003;1.329396e-001
1.209200e+003;1.315955e-001
1.211128e+003;1.302154e-001
1.213057e+003;1.289823e-001
1.214985e+003;1.280989e-001
1.216914e+003;1.279501e-001
1.218842e+003;1.284689e-001
1.220771e+003;1.292861e-001
1.222699e+003;1.300096e-001
1.224628e+003;1.308846e-001
1.226557e+003;1.321267e-001
1.228485e+003;1.330420e-001
1.230414e+003;1.339583e-001
1.232342e+003;1.349239e-001
1.234271e+003;1.354787e-001
1.236199e+003;1.358207e-001
1.238128e+003;1.358435e-001
1.240056e+003;1.357213e-001
1.241985e+003;1.358514e-001
1.243913e+003;1.362203e-001
1.245842e+003;1.365242e-001
1.247771e+003;1.369185e-001
1.249699e+003;1.372666e-001
1.251628e+003;1.377155e-001
1.253556e+003;1.382624e-001
1.255485e+003;1.388149e-001
1.257413e+003;1.390769e-001
1.259342e+003;1.390519e-001
1.261270e+003;1.386292e-001
1.263199e+003;1.379460e-001
1.265127e+003;1.375221e-001
1.267056e+003;1.367666e-001
1.268985e+003;1.358875e-001
1.270913e+003;1.350350e-001
1.272842e+003;1.343633e-001
1.274770e+003;1.340542e-001
1.276699e+003;1.336454e-001
1.278627e+003;1.328199e-001
1.280556e+003;1.318965e-001
1.282484e+003;1.309462e-001
1.284413e+003;1.301615e-001
1.286342e+003;1.296819e-001
1.288270e+003;1.294145e-001
1.290199e+003;1.293890e-001
1.292127e+003;1.297530e-001
1.294056e+003;1.305366e-001
1.295984e+003;1.311350e-001
1.297913e+003;1.315699e-001
1.299841e+003;1.322911e-001
1.301770e+003;1.333305e-001
1.303698e+003;1.343745e-001
1.305627e+003;1.353421e-001
1.307556e+003;1.365042e-001
1.309484e+003;1.378210e-001
1.311413e+003;1.390849e-001
1.313341e+003;1.401600e-001
1.315270e+003;1.410425e-001
1.317198e+003;1.415778e-001
1.319127e+003;1.417039e-001
1.321055e+003;1.415412e-001
1.322984e+003;1.411423e-001
1.324912e+003;1.406547e-001
1.326841e+003;1.403878e-001
1.328770e+003;1.402719e-001
1.330698e+003;1.401296e-001
1.332627e+003;1.402417e-001
1.334555e+003;1.404753e-001
1.336484e+003;1.403244e-001
1.338412e+003;1.398187e-001
1.340341e+003;1.395747e-001
1.342269e+003;1.397724e-001
1.344198e+003;1.398997e-001
1.346126e+003;1.396883e-001
1.348055e+003;1.392211e-001
1.349984e+003;1.387828e-001
1.351912e+003;1.385861e-001
1.353841e+003;1.388483e-001
1.355769e+003;1.394549e-001
1.357698e+003;1.397907e-001
1.359626e+003;1.397351e-001
1.361555e+003;1.395256e-001
1.363483e+003;1.395068e-001
1.365412e+003;1.396211e-001
1.367341e+003;1.393015e-001
1.369269e+003;1.389941e-001
1.371198e+003;1.383845e-001
1.373126e+003;1.370713e-001
1.375055e+003;1.362243e-001
1.376983e+003;1.359241e-001
1.378912e+003;1.350842e-001
1.380840e+003;1.338358e-001
1.382769e+003;1.324062e-001
1.384698e+003;1.310010e-001
1.386626e+003;1.290076e-001
1.388555e+003;1.279781e-001
1.390483e+003;1.278705e-001
1.392412e+003;1.269190e-001
1.394340e+003;1.253999e-001
1.396269e+003;1.251544e-001
1.398197e+003;1.250208e-001
1.400126e+003;1.254563e-001
1.402054e+003;1.263188e-001
1.403983e+003;1.263051e-001
1.405911e+003;1.266415e-001
1.407840e+003;1.271736e-001
1.409769e+003;1.272095e-001
1.411697e+003;1.274142e-001
1.413626e+003;1.277675e-001
1.415554e+003;1.276067e-001
1.417483e+003;1.255822e-001
1.419411e+003;1.241154e-001
1.421340e+003;1.261753e-001
1.423268e+003;1.272559e-001
1.425197e+003;1.273735e-001
1.427125e+003;1.276455e-001
1.429054e+003;1.273908e-001
1.430983e+003;1.273466e-001
1.432911e+003;1.271959e-001
1.434840e+003;1.246997e-001
1.436768e+003;1.226723e-001
1.438697e+003;1.244604e-001
1.440625e+003;1.250693e-001
1.442554e+003;1.241716e-001
1.444482e+003;1.231063e-001
1.446411e+003;1.218104e-001
1.448340e+003;1.209685e-001
1.450268e+003;1.211115e-001
1.452197e+003;1.206995e-001
1.454125e+003;1.183873e-001
1.456054e+003;1.135371e-001
1.457982e+003;1.135385e-001
1.459911e+003;1.170523e-001
1.461839e+003;1.174984e-001
1.463768e+003;1.154459e-001
1.465697e+003;1.142224e-001
1.467625e+003;1.134058e-001
1.469554e+003;1.102762e-001
1.471482e+003;1.047319e-001
1.473411e+003;1.013566e-001
1.475339e+003;1.005045e-001
1.477268e+003;9.950223e-002
1.479196e+003;9.804858e-002
1.481125e+003;9.594973e-002
1.483053e+003;9.413477e-002
1.484982e+003;9.124979e-002
1.486911e+003;8.805111e-002
1.488839e+003;8.550005e-002
1.490768e+003;8.454576e-002
1.492696e+003;8.449319e-002
1.494625e+003;8.203135e-002
1.496553e+003;7.949172e-002
1.498482e+003;7.979135e-002
1.500410e+003;8.051136e-002
1.502339e+003;7.992125e-002
1.504267e+003;7.521749e-002
1.506196e+003;7.042358e-002
1.508125e+003;7.261550e-002
1.510053e+003;7.587486e-002
1.511982e+003;7.637031e-002
1.513910e+003;7.610244e-002
1.515839e+003;7.458869e-002
1.517767e+003;7.362045e-002
1.519696e+003;7.154302e-002
1.521624e+003;7.027970e-002
1.523553e+003;7.255171e-002
1.525481e+003;7.343508e-002
1.527410e+003;7.422422e-002
1.529339e+003;7.520074e-002
1.531267e+003;7.493197e-002
1.533196e+003;7.369214e-002
1.535124e+003;7.454137e-002
1.537053e+003;7.256918e-002
1.538981e+003;6.742070e-002
1.540910e+003;6.787281e-002
1.542838e+003;7.164282e-002
1.544767e+003;7.411436e-002
1.546695e+003;7.587529e-002
1.548624e+003;7.617813e-002
1.550553e+003;7.596365e-002
1.552481e+003;7.516383e-002
1.554410e+003;7.411149e-002
1.556338e+003;7.161984e-002
1.558267e+003;6.649802e-002
1.560195e+003;6.890585e-002
1.562124e+003;7.555894e-002
1.564052e+003;7.754827e-002
1.565981e+003;7.778770e-002
1.567910e+003;7.703821e-002
1.569838e+003;7.664724e-002
1.571767e+003;7.845076e-002
1.573695e+003;7.761443e-002
1.575624e+003;7.468143e-002
1.577552e+003;7.704201e-002
1.579481e+003;8.041944e-002
1.581409e+003;8.111122e-002
1.583338e+003;8.138591e-002
1.585266e+003;8.183853e-002
1.587195e+003;8.239491e-002
1.589124e+003;8.265909e-002
1.591052e+003;8.278135e-002
1.592981e+003;8.276427e-002
1.594909e+003;8.317294e-002
1.596838e+003;8.403748e-002
1.598766e+003;8.449049e-002
1.600695e+003;8.440127e-002
1.602623e+003;8.448007e-002
1.604552e+003;8.491276e-002
1.606480e+003;8.558619e-002
1.608409e+003;8.608267e-002
1.610338e+003;8.642632e-002
1.612266e+003;8.665197e-002
1.614195e+003;8.500290e-002
1.616123e+003;8.244932e-002
1.618052e+003;8.470701e-002
1.619980e+003;8.719625e-002
1.621909e+003;8.638075e-002
1.623837e+003;8.632711e-002
1.625766e+003;8.751576e-002
1.627694e+003;8.789303e-002
1.629623e+003;8.876625e-002
1.631552e+003;8.922984e-002
1.633480e+003;8.674376e-002
1.635409e+003;8.416994e-002
1.637337e+003;8.665112e-002
1.639266e+003;8.941405e-002
1.641194e+003;9.005704e-002
1.643123e+003;8.915673e-002
1.645051e+003;8.625157e-002
1.646980e+003;8.541473e-002
1.648909e+003;8.690899e-002
1.650837e+003;8.273713e-002
1.652766e+003;7.685000e-002
1.654694e+003;8.164447e-002
1.656623e+003;8.697343e-002
1.658551e+003;8.740387e-002
1.660480e+003;8.593892e-002
1.662408e+003;8.422187e-002
1.664337e+003;8.454745e-002
1.666266e+003;8.413527e-002
1.668194e+003;8.138967e-002
1.670123e+003;8.020082e-002
1.672051e+003;8.062404e-002
1.673980e+003;7.915416e-002
1.675908e+003;7.851881e-002
1.677837e+003;7.962583e-002
1.679765e+003;7.865249e-002
1.681694e+003;7.549873e-002
1.683622e+003;7.039747e-002
1.685551e+003;7.139710e-002
1.687479e+003;7.529381e-002
1.689408e+003;7.586337e-002
1.691337e+003;7.570083e-002
1.693265e+003;7.323635e-002
1.695194e+003;6.849983e-002
1.697122e+003;6.832094e-002
1.699051e+003;6.698007e-002
1.700979e+003;6.713010e-002
1.702908e+003;7.119499e-002
1.704836e+003;7.166189e-002
1.706765e+003;7.237639e-002
1.708693e+003;7.316702e-002
1.710622e+003;7.318345e-002
1.712551e+003;7.217928e-002
1.714479e+003;7.025640e-002
1.716408e+003;6.753971e-002
1.718336e+003;6.832615e-002
1.720265e+003;7.220980e-002
1.722193e+003;7.394599e-002
1.724122e+003;7.437448e-002
1.726050e+003;7.507953e-002
1.727979e+003;7.528774e-002
1.729908e+003;7.523987e-002
1.731836e+003;7.324694e-002
1.733765e+003;7.091695e-002
1.735693e+003;7.431754e-002
1.737622e+003;7.674114e-002
1.739550e+003;7.567780e-002
1.741479e+003;7.571184e-002
1.743407e+003;7.516233e-002
1.745336e+003;7.368020e-002
1.747265e+003;7.152111e-002
1.749193e+003;6.884921e-002
1.751122e+003;6.664166e-002
1.753050e+003;6.671016e-002
1.754979e+003;6.596876e-002
1.756907e+003;6.469318e-002
1.758836e+003;6.399057e-002
1.760764e+003;6.235997e-002
1.762693e+003;6.206833e-002
1.764621e+003;6.268824e-002
1.766550e+003;6.134209e-002
1.768479e+003;6.012191e-002
1.770407e+003;5.882921e-002
1.772336e+003;5.771644e-002
1.774264e+003;5.963585e-002
1.776193e+003;6.116835e-002
1.778121e+003;6.124209e-002
1.780050e+003;6.071176e-002
1.781978e+003;6.068981e-002
1.783907e+003;6.044164e-002
1.785835e+003;6.052912e-002
1.787764e+003;6.090873e-002
1.789693e+003;5.976712e-002
1.791621e+003;5.804201e-002
1.793550e+003;5.861107e-002
1.795478e+003;5.999874e-002
1.797407e+003;5.999072e-002
1.799335e+003;5.964072e-002
1.801264e+003;5.948478e-002
1.803192e+003;6.002568e-002
1.805121e+003;6.039339e-002
1.807049e+003;6.034933e-002
1.808978e+003;5.996006e-002
1.810907e+003;5.990753e-002
1.812835e+003;6.038962e-002
1.814764e+003;6.071934e-002
1.816692e+003;6.064317e-002
1.818621e+003;6.068665e-002
1.820549e+003;6.063917e-002
1.822478e+003;6.027179e-002
1.824406e+003;5.973279e-002
1.826335e+003;5.982644e-002
1.828264e+003;5.917741e-002
1.830192e+003;5.895363e-002
1.832121e+003;5.997425e-002
1.834049e+003;6.028800e-002
1.835978e+003;6.005079e-002
1.837906e+003;6.015216e-002
1.839835e+003;6.041955e-002
1.841763e+003;5.932332e-002
1.843692e+003;5.776575e-002
1.845620e+003;5.872227e-002
1.847549e+003;5.967740e-002
1.849478e+003;5.970390e-002
1.851406e+003;5.964228e-002
1.853335e+003;5.971785e-002
1.855263e+003;6.018439e-002
1.857192e+003;6.042397e-002
1.859120e+003;6.025629e-002
1.861049e+003;6.022866e-002
1.862977e+003;6.029379e-002
1.864906e+003;6.012594e-002
1.866834e+003;5.922955e-002
1.868763e+003;5.861831e-002
1.870692e+003;5.946711e-002
1.872620e+003;6.005353e-002
1.874549e+003;5.990076e-002
1.876477e+003;5.986181e-002
1.878406e+003;6.002012e-002
1.880334e+003;6.008477e-002
1.882263e+003;6.005536e-002
1.884191e+003;6.012525e-002
1.886120e+003;6.017800e-002
1.888048e+003;5.986257e-002
1.889977e+003;5.982606e-002
1.891906e+003;6.030182e-002
1.893834e+003;6.039625e-002
1.895763e+003;6.034146e-002
1.897691e+003;6.016822e-002
1.899620e+003;5.995827e-002
1.901548e+003;5.990855e-002
1.903477e+003;6.007510e-002
1.905405e+003;6.008910e-002
1.907334e+003;5.999833e-002
1.909262e+003;5.966166e-002
1.911191e+003;5.965630e-002
1.913120e+003;6.012069e-002
1.915048e+003;6.021659e-002
1.916977e+003;5.948041e-002
1.918905e+003;5.938760e-002
1.920834e+003;5.986101e-002
1.922762e+003;5.999346e-002
1.924691e+003;6.018873e-002
1.926619e+003;6.034956e-002
1.928548e+003;6.058439e-002
1.930477e+003;6.071789e-002
1.932405e+003;6.044369e-002
1.934334e+003;6.015650e-002
1.936262e+003;6.023699e-002
1.938191e+003;6.036936e-002
1.940119e+003;6.021351e-002
1.942048e+003;5.993122e-002
1.943976e+003;6.007731e-002
1.945905e+003;6.007716e-002
1.947833e+003;6.041490e-002
1.949762e+003;6.083661e-002
1.951691e+003;6.046871e-002
1.953619e+003;6.018641e-002
1.955548e+003;6.029227e-002
1.957476e+003;6.057113e-002
1.959405e+003;6.075112e-002
1.961333e+003;6.079415e-002
1.963262e+003;6.067933e-002
1.965190e+003;6.031747e-002
1.967119e+003;6.029977e-002
1.969047e+003;6.066542e-002
1.970976e+003;6.085132e-002
1.972905e+003;6.081652e-002
1.974833e+003;6.078653e-002
1.976762e+003;6.070547e-002
1.978690e+003;6.086009e-002
1.980619e+003;6.096420e-002
1.982547e+003;6.089764e-002
1.984476e+003;6.095120e-002
1.986404e+003;6.073866e-002
1.988333e+003;6.063616e-002
1.990261e+003;6.043973e-002
1.992190e+003;6.026692e-002
1.994119e+003;6.040927e-002
1.996047e+003;6.053685e-002
1.997976e+003;6.060785e-002
1.999904e+003;6.069697e-002
2.001833e+003;6.094826e-002
2.003761e+003;6.105499e-002
2.005690e+003;6.055228e-002
2.007618e+003;6.043143e-002
2.009547e+003;6.073210e-002
2.011476e+003;6.077662e-002
2.013404e+003;6.057814e-002
2.015333e+003;6.054500e-002
2.017261e+003;6.071054e-002
2.019190e+003;6.086546e-002
2.021118e+003;6.087652e-002
2.023047e+003;6.091655e-002
2.024975e+003;6.077753e-002
2.026904e+003;6.060188e-002
2.028833e+003;6.068634e-002
2.030761e+003;6.093801e-002
2.032690e+003;6.094522e-002
2.034618e+003;6.078771e-002
2.036547e+003;6.082533e-002
2.038475e+003;6.075737e-002
2.040404e+003;6.065898e-002
2.042332e+003;6.094910e-002
2.044261e+003;6.109237e-002
2.046189e+003;6.106388e-002
2.048118e+003;6.108817e-002
2.050047e+003;6.101392e-002
2.051975e+003;6.092528e-002
2.053904e+003;6.095044e-002
2.055832e+003;6.094510e-002
2.057761e+003;6.104492e-002
2.059689e+003;6.092436e-002
2.061618e+003;6.085933e-002
2.063546e+003;6.098609e-002
2.065475e+003;6.101541e-002
2.067404e+003;6.106544e-002
2.069332e+003;6.103516e-002
2.071260e+003;6.093195e-002
2.073189e+003;6.065262e-002
2.075118e+003;6.050908e-002
2.077046e+003;6.045085e-002
2.078975e+003;6.043657e-002
2.080903e+003;6.068764e-002
2.082832e+003;6.071652e-002
2.084760e+003;6.065148e-002
2.086689e+003;6.084793e-002
2.088617e+003;6.071641e-002
2.090546e+003;6.044217e-002
2.092475e+003;6.036194e-002
2.094403e+003;6.028172e-002
2.096332e+003;6.010554e-002
2.098260e+003;6.000727e-002
2.100189e+003;6.020046e-002
2.102117e+003;6.025629e-002
2.104046e+003;6.002606e-002
2.105974e+003;5.995036e-002
2.107903e+003;6.016148e-002
2.109832e+003;6.030110e-002
2.111760e+003;6.028485e-002
2.113688e+003;6.031187e-002
2.115617e+003;6.043090e-002
2.117546e+003;6.030769e-002
2.119474e+003;6.036418e-002
2.121403e+003;6.058515e-002
2.123331e+003;6.060774e-002
2.125260e+003;6.046247e-002
2.127188e+003;6.040892e-002
2.129117e+003;6.037241e-002
2.131045e+003;6.034050e-002
2.132974e+003;6.008599e-002
2.134903e+003;6.000483e-002
2.136831e+003;6.031081e-002
2.138760e+003;6.031842e-002
2.140688e+003;5.997516e-002
2.142617e+003;6.009542e-002
2.144545e+003;6.017214e-002
2.146474e+003;5.989604e-002
2.148402e+003;5.978948e-002
2.150331e+003;5.976150e-002
2.152260e+003;5.992141e-002
2.154188e+003;5.996701e-002
2.156117e+003;5.958712e-002
2.158045e+003;5.936233e-002
2.159974e+003;5.957173e-002
2.161902e+003;5.970226e-002
2.163831e+003;5.969458e-002
2.165759e+003;5.954536e-002
2.167688e+003;5.943778e-002
2.169616e+003;5.951841e-002
2.171545e+003;5.943212e-002
2.173474e+003;5.925572e-002
2.175402e+003;5.902670e-002
2.177331e+003;5.876471e-002
2.179259e+003;5.879552e-002
2.181188e+003;5.881191e-002
2.183116e+003;5.871874e-002
2.185045e+003;5.856682e-002
2.186973e+003;5.851692e-002
2.188902e+003;5.860170e-002
2.190831e+003;5.871282e-002
2.192759e+003;5.861334e-002
2.194688e+003;5.849216e-002
2.196616e+003;5.847954e-002
2.198545e+003;5.854228e-002
2.200473e+003;5.872469e-002
2.202402e+003;5.885740e-002
2.204330e+003;5.838034e-002
2.206259e+003;5.796794e-002
2.208188e+003;5.818065e-002
2.210116e+003;5.860379e-002
2.212044e+003;5.876460e-002
2.213973e+003;5.860068e-002
2.215902e+003;5.830162e-002
2.217830e+003;5.829245e-002
2.219759e+003;5.827813e-002
2.221687e+003;5.817920e-002
2.223616e+003;5.808121e-002
2.225544e+003;5.800993e-002
2.227473e+003;5.814769e-002
2.229401e+003;5.825846e-002
2.231330e+003;5.822031e-002
2.233259e+003;5.813920e-002
2.235187e+003;5.789683e-002
2.237116e+003;5.783312e-002
2.239044e+003;5.805140e-002
2.240973e+003;5.804065e-002
2.242901e+003;5.815257e-002
2.244830e+003;5.816364e-002
2.246758e+003;5.799539e-002
2.248687e+003;5.791220e-002
2.250615e+003;5.784183e-002
2.252544e+003;5.779440e-002
2.254473e+003;5.758748e-002
2.256401e+003;5.743191e-002
2.258330e+003;5.755041e-002
2.260258e+003;5.749772e-002
2.262187e+003;5.741988e-002
2.264115e+003;5.756849e-002
2.266044e+003;5.769891e-002
2.267972e+003;5.772525e-002
2.269901e+003;5.779656e-002
2.271830e+003;5.757258e-002
2.273758e+003;5.754878e-002
2.275687e+003;5.776298e-002
2.277615e+003;5.775439e-002
2.279544e+003;5.744775e-002
2.281472e+003;5.726384e-002
2.283401e+003;5.735235e-002
2.285329e+003;5.760890e-002
2.287258e+003;5.774069e-002
2.289187e+003;5.778948e-002
2.291115e+003;5.758956e-002
2.293043e+003;5.735272e-002
2.294972e+003;5.720993e-002
2.296901e+003;5.716915e-002
2.298829e+003;5.716299e-002
2.300758e+003;5.718559e-002
2.302686e+003;5.721953e-002
2.304615e+003;5.715785e-002
2.306543e+003;5.716457e-002
2.308472e+003;5.708098e-002
2.310400e+003;5.701829e-002
2.312329e+003;5.711582e-002
2.314258e+003;5.715184e-002
2.316186e+003;5.695339e-002
2.318115e+003;5.669416e-002
2.320043e+003;5.666249e-002
2.321972e+003;5.664082e-002
2.323900e+003;5.658846e-002
2.325829e+003;5.663969e-002
2.327757e+003;5.673366e-002
2.329686e+003;5.649279e-002
2.331615e+003;5.622894e-002
2.333543e+003;5.633315e-002
2.335472e+003;5.649287e-002
2.337400e+003;5.635711e-002
2.339329e+003;5.615683e-002
2.341257e+003;5.627706e-002
2.343186e+003;5.661568e-002
2.345114e+003;5.682205e-002
2.347043e+003;5.731552e-002
2.348971e+003;5.767053e-002
2.350900e+003;5.741931e-002
2.352829e+003;5.715263e-002
2.354757e+003;5.696918e-002
2.356686e+003;5.667861e-002
2.358614e+003;5.662179e-002
2.360543e+003;5.674793e-002
2.362471e+003;5.678101e-002
2.364400e+003;5.692396e-002
2.366328e+003;5.707429e-002
2.368257e+003;5.722316e-002
2.370186e+003;5.749866e-002
2.372114e+003;5.791092e-002
2.374042e+003;5.800066e-002
2.375971e+003;5.824516e-002
2.377900e+003;5.856939e-002
2.379828e+003;5.853629e-002
2.381757e+003;5.869025e-002
2.383685e+003;5.905858e-002
2.385614e+003;5.922841e-002
2.387542e+003;5.910861e-002
2.389471e+003;5.914852e-002
2.391399e+003;5.913557e-002
2.393328e+003;5.917905e-002
2.395257e+003;5.933324e-002
2.397185e+003;5.923179e-002
2.399114e+003;5.878713e-002
2.401042e+003;5.874977e-002
2.402971e+003;5.933172e-002
2.404899e+003;5.941917e-002
2.406828e+003;5.942395e-002
2.408756e+003;5.944793e-002
2.410685e+003;5.951321e-002
2.412614e+003;5.992038e-002
2.414542e+003;6.010299e-002
2.416471e+003;6.005318e-002
2.418399e+003;6.007259e-002
2.420328e+003;6.006323e-002
2.422256e+003;6.010086e-002
2.424185e+003;6.031165e-002
2.426113e+003;6.060736e-002
2.428042e+003;6.065807e-002
2.429970e+003;6.042945e-002
2.431899e+003;6.048818e-002
2.433828e+003;6.048642e-002
2.435756e+003;6.046749e-002
2.437685e+003;6.069663e-002
2.439613e+003;6.112437e-002
2.441542e+003;6.125918e-002
2.443470e+003;6.119848e-002
2.445399e+003;6.142258e-002
2.447327e+003;6.152363e-002
2.449256e+003;6.137644e-002
2.451185e+003;6.150145e-002
2.453113e+003;6.161675e-002
2.455042e+003;6.161667e-002
2.456970e+003;6.157780e-002
2.458899e+003;6.157322e-002
2.460827e+003;6.171230e-002
2.462756e+003;6.179526e-002
2.464684e+003;6.164890e-002
2.466613e+003;6.173762e-002
2.468542e+003;6.211225e-002
2.470470e+003;6.227292e-002
2.472398e+003;6.228286e-002
2.474327e+003;6.234214e-002
2.476256e+003;6.235224e-002
2.478184e+003;6.241933e-002
2.480113e+003;6.246937e-002
2.482041e+003;6.233147e-002
2.483970e+003;6.241367e-002
2.485898e+003;6.270362e-002
2.487827e+003;6.283908e-002
2.489755e+003;6.302377e-002
2.491684e+003;6.298570e-002
2.493613e+003;6.268720e-002
2.495541e+003;6.258402e-002
2.497470e+003;6.266680e-002
2.499398e+003;6.296758e-002
2.501327e+003;6.318063e-002
2.503255e+003;6.336600e-002
2.505184e+003;6.329297e-002
2.507112e+003;6.314339e-002
2.509041e+003;6.325399e-002
2.510969e+003;6.345952e-002
2.512898e+003;6.346443e-002
2.514827e+003;6.331413e-002
2.516755e+003;6.331199e-002
2.518684e+003;6.322298e-002
2.520612e+003;6.335646e-002
2.522541e+003;6.352341e-002
2.524469e+003;6.376015e-002
2.526398e+003;6.389709e-002
2.528326e+003;6.380241e-002
2.530255e+003;6.378007e-002
2.532184e+003;6.392100e-002
2.534112e+003;6.387391e-002
2.536041e+003;6.386803e-002
2.537969e+003;6.406080e-002
2.539898e+003;6.380758e-002
2.541826e+003;6.374952e-002
2.543755e+003;6.410066e-002
2.545683e+003;6.453673e-002
2.547612e+003;6.474487e-002
2.549541e+003;6.474721e-002
2.551469e+003;6.474321e-002
2.553397e+003;6.487642e-002
2.555326e+003;6.499004e-002
2.557255e+003;6.485011e-002
2.559183e+003;6.489516e-002
2.561112e+003;6.534138e-002
2.563040e+003;6.545466e-002
2.564969e+003;6.526829e-002
2.566897e+003;6.515209e-002
2.568826e+003;6.506871e-002
2.570754e+003;6.495718e-002
2.572683e+003;6.494498e-002
2.574612e+003;6.516741e-002
2.576540e+003;6.546418e-002
2.578469e+003;6.574951e-002
2.580397e+003;6.619248e-002
2.582326e+003;6.633652e-002
2.584254e+003;6.626372e-002
2.586183e+003;6.638639e-002
2.588111e+003;6.630618e-002
2.590040e+003;6.592302e-002
2.591969e+003;6.603140e-002
2.593897e+003;6.617434e-002
2.595826e+003;6.631208e-002
2.597754e+003;6.640361e-002
2.599683e+003;6.648590e-002
2.601611e+003;6.674393e-002
2.603540e+003;6.699800e-002
2.605468e+003;6.718451e-002
2.607397e+003;6.716103e-002
2.609325e+003;6.712932e-002
2.611254e+003;6.731263e-002
2.613183e+003;6.758954e-002
2.615111e+003;6.757142e-002
2.617040e+003;6.736540e-002
2.618968e+003;6.748355e-002
2.620897e+003;6.771529e-002
2.622825e+003;6.802102e-002
2.624754e+003;6.828919e-002
2.626682e+003;6.846593e-002
2.628611e+003;6.855981e-002
2.630540e+003;6.849615e-002
2.632468e+003;6.867200e-002
2.634396e+003;6.898217e-002
2.636325e+003;6.900147e-002
2.638254e+003;6.884447e-002
2.640182e+003;6.887829e-002
2.642111e+003;6.899669e-002
2.644039e+003;6.926632e-002
2.645968e+003;6.955918e-002
2.647896e+003;6.982985e-002
2.649825e+003;7.020803e-002
2.651753e+003;7.029232e-002
2.653682e+003;7.038613e-002
2.655611e+003;7.040974e-002
2.657539e+003;7.026976e-002
2.659468e+003;7.047451e-002
2.661396e+003;7.097945e-002
2.663325e+003;7.109027e-002
2.665253e+003;7.117520e-002
2.667182e+003;7.133281e-002
2.669110e+003;7.133727e-002
2.671039e+003;7.139475e-002
2.672968e+003;7.156451e-002
2.674896e+003;7.200927e-002
2.676825e+003;7.215545e-002
2.678753e+003;7.224278e-002
2.680682e+003;7.242521e-002
2.682610e+003;7.267582e-002
2.684539e+003;7.289053e-002
2.686467e+003;7.286850e-002
2.688396e+003;7.290248e-002
2.690324e+003;7.305374e-002
2.692253e+003;7.332084e-002
2.694182e+003;7.331091e-002
2.696110e+003;7.338655e-002
2.698039e+003;7.383887e-002
2.699967e+003;7.409377e-002
2.701896e+003;7.379254e-002
2.703824e+003;7.356981e-002
2.705753e+003;7.385844e-002
2.707681e+003;7.406634e-002
2.709610e+003;7.419627e-002
2.711539e+003;7.446824e-002
2.713467e+003;7.472330e-002
2.715396e+003;7.470209e-002
2.717324e+003;7.465561e-002
2.719253e+003;7.493792e-002
2.721181e+003;7.508906e-002
2.723110e+003;7.497647e-002
2.725038e+003;7.515685e-002
2.726967e+003;7.527482e-002
2.728896e+003;7.568703e-002
2.730824e+003;7.630888e-002
2.732752e+003;7.643032e-002
2.734681e+003;7.649129e-002
2.736610e+003;7.675399e-002
2.738538e+003;7.681417e-002
2.740467e+003;7.673118e-002
2.742395e+003;7.672378e-002
2.744324e+003;7.680701e-002
2.746252e+003;7.688551e-002
2.748181e+003;7.705467e-002
2.750109e+003;7.728386e-002
2.752038e+003;7.729717e-002
2.753967e+003;7.740644e-002
2.755895e+003;7.779638e-002
2.757824e+003;7.768836e-002
2.759752e+003;7.772089e-002
2.761681e+003;7.820013e-002
2.763609e+003;7.824877e-002
2.765538e+003;7.829452e-002
2.767466e+003;7.852210e-002
2.769395e+003;7.877336e-002
2.771323e+003;7.908029e-002
2.773252e+003;7.929568e-002
2.775181e+003;7.928045e-002
2.777109e+003;7.929783e-002
2.779038e+003;7.938219e-002
2.780966e+003;7.967483e-002
2.782895e+003;8.018368e-002
2.784823e+003;8.045126e-002
2.786752e+003;8.074270e-002
2.788680e+003;8.103258e-002
2.790609e+003;8.150670e-002
2.792538e+003;8.178605e-002
2.794466e+003;8.183993e-002
2.796395e+003;8.193523e-002
2.798323e+003;8.229411e-002
2.800252e+003;8.267833e-002
2.802180e+003;8.316749e-002
2.804109e+003;8.341325e-002
2.806037e+003;8.344281e-002
2.807966e+003;8.372132e-002
2.809895e+003;8.438066e-002
2.811823e+003;8.482550e-002
2.813751e+003;8.535681e-002
2.815680e+003;8.583240e-002
2.817609e+003;8.605076e-002
2.819537e+003;8.652222e-002
2.821466e+003;8.701149e-002
2.823394e+003;8.780035e-002
2.825323e+003;8.859263e-002
2.827251e+003;8.913342e-002
2.829180e+003;8.973663e-002
2.831108e+003;9.041126e-002
2.833037e+003;9.119435e-002
2.834966e+003;9.206400e-002
2.836894e+003;9.295497e-002
2.838823e+003;9.386168e-002
2.840751e+003;9.503054e-002
2.842680e+003;9.704174e-002
2.844608e+003;9.930636e-002
2.846537e+003;1.016370e-001
2.848465e+003;1.037658e-001
2.850394e+003;1.059423e-001
2.852323e+003;1.081742e-001
2.854251e+003;1.098014e-001
2.856180e+003;1.107479e-001
2.858108e+003;1.111153e-001
2.860037e+003;1.109404e-001
2.861965e+003;1.111266e-001
2.863894e+003;1.115911e-001
2.865822e+003;1.119587e-001
2.867751e+003;1.126840e-001
2.869679e+003;1.137706e-001
2.871608e+003;1.143589e-001
2.873536e+003;1.145506e-001
2.875465e+003;1.151432e-001
2.877394e+003;1.157767e-001
2.879322e+003;1.158678e-001
2.881251e+003;1.159832e-001
2.883179e+003;1.167067e-001
2.885108e+003;1.175799e-001
2.887036e+003;1.179572e-001
2.888965e+003;1.181556e-001
2.890893e+003;1.188943e-001
2.892822e+003;1.193295e-001
2.894750e+003;1.191107e-001
2.896679e+003;1.193778e-001
2.898608e+003;1.203700e-001
2.900536e+003;1.208781e-001
2.902465e+003;1.211649e-001
2.904393e+003;1.213204e-001
2.906322e+003;1.213617e-001
2.908250e+003;1.213664e-001
2.910179e+003;1.214810e-001
2.912107e+003;1.216269e-001
2.914036e+003;1.222024e-001
2.915965e+003;1.226638e-001
2.917893e+003;1.230724e-001
2.919822e+003;1.236533e-001
2.921750e+003;1.243133e-001
2.923679e+003;1.247230e-001
2.925607e+003;1.240773e-001
2.927536e+003;1.235794e-001
2.929464e+003;1.229900e-001
2.931393e+003;1.217425e-001
2.933322e+003;1.204607e-001
2.935250e+003;1.192876e-001
2.937178e+003;1.180146e-001
2.939107e+003;1.164281e-001
2.941036e+003;1.146096e-001
2.942964e+003;1.130109e-001
2.944893e+003;1.118553e-001
2.946821e+003;1.105973e-001
2.948750e+003;1.091727e-001
2.950678e+003;1.081568e-001
2.952607e+003;1.068493e-001
2.954535e+003;1.057742e-001
2.956464e+003;1.046991e-001
2.958393e+003;1.034395e-001
2.960321e+003;1.022261e-001
2.962250e+003;1.009881e-001
2.964178e+003;9.990999e-002
2.966107e+003;9.851272e-002
2.968035e+003;9.725706e-002
2.969964e+003;9.606451e-002
2.971892e+003;9.467541e-002
2.973821e+003;9.346978e-002
2.975750e+003;9.251892e-002
2.977678e+003;9.134362e-002
2.979607e+003;9.023780e-002
2.981535e+003;8.958779e-002
2.983464e+003;8.913830e-002
2.985392e+003;8.832085e-002
2.987321e+003;8.703529e-002
2.989249e+003;8.615483e-002
2.991178e+003;8.586103e-002
2.993106e+003;8.542921e-002
2.995035e+003;8.461806e-002
2.996964e+003;8.407559e-002
2.998892e+003;8.419058e-002
3.000821e+003;8.410535e-002
3.002749e+003;8.376776e-002
3.004678e+003;8.358525e-002
3.006606e+003;8.327753e-002
3.008535e+003;8.302638e-002
3.010463e+003;8.299742e-002
3.012392e+003;8.301563e-002
3.014321e+003;8.333525e-002
3.016249e+003;8.350396e-002
3.018177e+003;8.351685e-002
3.020106e+003;8.375221e-002
3.022035e+003;8.381438e-002
3.023963e+003;8.393376e-002
3.025892e+003;8.424500e-002
3.027820e+003;8.463675e-002
3.029749e+003;8.497888e-002
3.031677e+003;8.506270e-002
3.033606e+003;8.507572e-002
3.035534e+003;8.544143e-002
3.037463e+003;8.587250e-002
3.039392e+003;8.598824e-002
3.041320e+003;8.622963e-002
3.043249e+003;8.655761e-002
3.045177e+003;8.700497e-002
3.047106e+003;8.767229e-002
3.049034e+003;8.784451e-002
3.050963e+003;8.752269e-002
3.052891e+003;8.757535e-002
3.054820e+003;8.831614e-002
3.056749e+003;8.894762e-002
3.058677e+003;8.947911e-002
3.060606e+003;8.987936e-002
3.062534e+003;9.010645e-002
3.064463e+003;9.058267e-002
3.066391e+003;9.093205e-002
3.068320e+003;9.094034e-002
3.070248e+003;9.151322e-002
3.072177e+003;9.219775e-002
3.074105e+003;9.246853e-002
3.076034e+003;9.269235e-002
3.077963e+003;9.291775e-002
3.079891e+003;9.310345e-002
3.081820e+003;9.369144e-002
3.083748e+003;9.444341e-002
3.085677e+003;9.531869e-002
3.087605e+003;9.619392e-002
3.089534e+003;9.665069e-002
3.091462e+003;9.674160e-002
3.093391e+003;9.710409e-002
3.095320e+003;9.747731e-002
3.097248e+003;9.800988e-002
3.099177e+003;9.834198e-002
3.101105e+003;9.851189e-002
3.103034e+003;9.875572e-002
3.104962e+003;9.934834e-002
3.106891e+003;1.003031e-001
3.108819e+003;1.009052e-001
3.110748e+003;1.013848e-001
3.112677e+003;1.018667e-001
3.114605e+003;1.023118e-001
3.116533e+003;1.028628e-001
3.118462e+003;1.036888e-001
3.120391e+003;1.041762e-001
3.122319e+003;1.043059e-001
3.124248e+003;1.047639e-001
3.126176e+003;1.052588e-001
3.128105e+003;1.058229e-001
3.130033e+003;1.066486e-001
3.131962e+003;1.068062e-001
3.133890e+003;1.068179e-001
3.135819e+003;1.074817e-001
3.137748e+003;1.085905e-001
3.139676e+003;1.092154e-001
3.141605e+003;1.097032e-001
3.143533e+003;1.103284e-001
3.145462e+003;1.106210e-001
3.147390e+003;1.109239e-001
3.149319e+003;1.113021e-001
3.151247e+003;1.119982e-001
3.153176e+003;1.125313e-001
3.155104e+003;1.126103e-001
3.157033e+003;1.130597e-001
3.158962e+003;1.138248e-001
3.160890e+003;1.145869e-001
3.162819e+003;1.153915e-001
3.164747e+003;1.158936e-001
3.166676e+003;1.160177e-001
3.168604e+003;1.158742e-001
3.170533e+003;1.163894e-001
3.172461e+003;1.172469e-001
3.174390e+003;1.182049e-001
3.176319e+003;1.188443e-001
3.178247e+003;1.189315e-001
3.180176e+003;1.197656e-001
3.182104e+003;1.205253e-001
3.184033e+003;1.206327e-001
3.185961e+003;1.212149e-001
3.187890e+003;1.222536e-001
3.189818e+003;1.231887e-001
3.191747e+003;1.237148e-001
3.193676e+003;1.239351e-001
3.195604e+003;1.244025e-001
3.197532e+003;1.251761e-001
3.199461e+003;1.256288e-001
3.201390e+003;1.258088e-001
3.203318e+003;1.269853e-001
3.205247e+003;1.280075e-001
3.207175e+003;1.281205e-001
3.209104e+003;1.285486e-001
3.211032e+003;1.289395e-001
3.212961e+003;1.287879e-001
3.214889e+003;1.293426e-001
3.216818e+003;1.300838e-001
3.218747e+003;1.310489e-001
3.220675e+003;1.322007e-001
3.222604e+003;1.321772e-001
3.224532e+003;1.319640e-001
3.226461e+003;1.328510e-001
3.228389e+003;1.337583e-001
3.230318e+003;1.343244e-001
3.232246e+003;1.350028e-001
3.234175e+003;1.352603e-001
3.236104e+003;1.352383e-001
3.238032e+003;1.354811e-001
3.239961e+003;1.359913e-001
3.241889e+003;1.368043e-001
3.243818e+003;1.375093e-001
3.245746e+003;1.375532e-001
3.247675e+003;1.376821e-001
3.249603e+003;1.383776e-001
3.251532e+003;1.393855e-001
3.253460e+003;1.401179e-001
3.255389e+003;1.402852e-001
3.257318e+003;1.402953e-001
3.259246e+003;1.409935e-001
3.261175e+003;1.419960e-001
3.263103e+003;1.417885e-001
3.265032e+003;1.416035e-001
3.266960e+003;1.424559e-001
3.268889e+003;1.428362e-001
3.270817e+003;1.428680e-001
3.272746e+003;1.428733e-001
3.274675e+003;1.430274e-001
3.276603e+003;1.433658e-001
3.278531e+003;1.439833e-001
3.280460e+003;1.441446e-001
3.282389e+003;1.436428e-001
3.284317e+003;1.439971e-001
3.286246e+003;1.447840e-001
3.288174e+003;1.451535e-001
3.290103e+003;1.449856e-001
3.292031e+003;1.453365e-001
3.293960e+003;1.460496e-001
3.295888e+003;1.461949e-001
3.297817e+003;1.461532e-001
3.299746e+003;1.462408e-001
3.301674e+003;1.465831e-001
3.303603e+003;1.470695e-001
3.305531e+003;1.475532e-001
3.307460e+003;1.477661e-001
3.309388e+003;1.478059e-001
3.311317e+003;1.480127e-001
3.313245e+003;1.479993e-001
3.315174e+003;1.481510e-001
3.317103e+003;1.485157e-001
3.319031e+003;1.484463e-001
3.320960e+003;1.482069e-001
3.322888e+003;1.484654e-001
3.324817e+003;1.486840e-001
3.326745e+003;1.487413e-001
3.328674e+003;1.487946e-001
3.330602e+003;1.485443e-001
3.332531e+003;1.484847e-001
3.334459e+003;1.487198e-001
3.336388e+003;1.488108e-001
3.338317e+003;1.481775e-001
3.340245e+003;1.476430e-001
3.342174e+003;1.478105e-001
3.344102e+003;1.478337e-001
3.346031e+003;1.474210e-001
3.347959e+003;1.471774e-001
3.349888e+003;1.471359e-001
3.351816e+003;1.468394e-001
3.353745e+003;1.465741e-001
3.355674e+003;1.467346e-001
3.357602e+003;1.466885e-001
3.359531e+003;1.466770e-001
3.361459e+003;1.467044e-001
3.363388e+003;1.461495e-001
3.365316e+003;1.458427e-001
3.367245e+003;1.454589e-001
3.369173e+003;1.451682e-001
3.371102e+003;1.456634e-001
3.373031e+003;1.454883e-001
3.374959e+003;1.451818e-001
3.376887e+003;1.449420e-001
3.378816e+003;1.441333e-001
3.380745e+003;1.440058e-001
3.382673e+003;1.444774e-001
3.384602e+003;1.440388e-001
3.386530e+003;1.429901e-001
3.388459e+003;1.422111e-001
3.390387e+003;1.419520e-001
3.392316e+003;1.428344e-001
3.394244e+003;1.428888e-001
3.396173e+003;1.417563e-001
3.398102e+003;1.415309e-001
3.400030e+003;1.413979e-001
3.401959e+003;1.408297e-001
3.403887e+003;1.404390e-001
3.405816e+003;1.400999e-001
3.407744e+003;1.401058e-001
3.409673e+003;1.403600e-001
3.411601e+003;1.403978e-001
3.413530e+003;1.396156e-001
3.415458e+003;1.383603e-001
3.417387e+003;1.379468e-001
3.419316e+003;1.379139e-001
3.421244e+003;1.374989e-001
3.423173e+003;1.368596e-001
3.425101e+003;1.364008e-001
3.427030e+003;1.362249e-001
3.428958e+003;1.357885e-001
3.430887e+003;1.349875e-001
3.432815e+003;1.346397e-001
3.434744e+003;1.340275e-001
3.436673e+003;1.337556e-001
3.438601e+003;1.332974e-001
3.440530e+003;1.323841e-001
3.442458e+003;1.315026e-001
3.444387e+003;1.305259e-001
3.446315e+003;1.298773e-001
3.448244e+003;1.297986e-001
3.450172e+003;1.294139e-001
3.452101e+003;1.289176e-001
3.454030e+003;1.284892e-001
3.455958e+003;1.276531e-001
3.457886e+003;1.271312e-001
3.459815e+003;1.268325e-001
3.461744e+003;1.260934e-001
3.463672e+003;1.258004e-001
3.465601e+003;1.254702e-001
3.467529e+003;1.241935e-001
3.469458e+003;1.231624e-001
3.471386e+003;1.219657e-001
3.473315e+003;1.212222e-001
3.475243e+003;1.208773e-001
3.477172e+003;1.205287e-001
3.479101e+003;1.198575e-001
3.481029e+003;1.186767e-001
3.482958e+003;1.176564e-001
3.484886e+003;1.172059e-001
3.486815e+003;1.170073e-001
3.488743e+003;1.163172e-001
3.490672e+003;1.153332e-001
3.492600e+003;1.144698e-001
3.494529e+003;1.137694e-001
3.496458e+003;1.128994e-001
3.498386e+003;1.124561e-001
3.500315e+003;1.116370e-001
3.502243e+003;1.103930e-001
3.504172e+003;1.094620e-001
3.506100e+003;1.087497e-001
3.508029e+003;1.079646e-001
3.509957e+003;1.071390e-001
3.511886e+003;1.062820e-001
3.513814e+003;1.057428e-001
3.515743e+003;1.043531e-001
3.517672e+003;1.027341e-001
3.519600e+003;1.021079e-001
3.521529e+003;1.014136e-001
3.523457e+003;1.003943e-001
3.525386e+003;9.985920e-002
3.527314e+003;9.920138e-002
3.529243e+003;9.836376e-002
3.531171e+003;9.775766e-002
3.533100e+003;9.687874e-002
3.535029e+003;9.548523e-002
3.536957e+003;9.501500e-002
3.538885e+003;9.445086e-002
3.540814e+003;9.301876e-002
3.542743e+003;9.142900e-002
3.544671e+003;8.991563e-002
3.546600e+003;8.912711e-002
3.548528e+003;8.912524e-002
3.550457e+003;8.806925e-002
3.552385e+003;8.676314e-002
3.554314e+003;8.649938e-002
3.556242e+003;8.597935e-002
3.558171e+003;8.479517e-002
3.560100e+003;8.393420e-002
3.562028e+003;8.258262e-002
3.563957e+003;8.095197e-002
3.565885e+003;7.931107e-002
3.567814e+003;7.808530e-002
3.569742e+003;7.811283e-002
3.571671e+003;7.825329e-002
3.573599e+003;7.781450e-002
3.575528e+003;7.688639e-002
3.577457e+003;7.610887e-002
3.579385e+003;7.501356e-002
3.581314e+003;7.391080e-002
3.583242e+003;7.278841e-002
3.585171e+003;7.098577e-002
3.587099e+003;6.947176e-002
3.589028e+003;6.992458e-002
3.590956e+003;7.013972e-002
3.592885e+003;6.903340e-002
3.594813e+003;6.793411e-002
3.596742e+003;6.696835e-002
3.598671e+003;6.628352e-002
3.600599e+003;6.561256e-002
3.602528e+003;6.555249e-002
3.604456e+003;6.521176e-002
3.606385e+003;6.390400e-002
3.608313e+003;6.260043e-002
3.610242e+003;6.198730e-002
3.612170e+003;6.135736e-002
3.614099e+003;6.128001e-002
3.616028e+003;6.053236e-002
3.617956e+003;5.899477e-002
3.619885e+003;5.842931e-002
3.621813e+003;5.966086e-002
3.623742e+003;6.003652e-002
3.625670e+003;5.813121e-002
3.627599e+003;5.453195e-002
3.629527e+003;5.495976e-002
3.631456e+003;5.790051e-002
3.633385e+003;5.773718e-002
3.635313e+003;5.714409e-002
3.637241e+003;5.698886e-002
3.639170e+003;5.640098e-002
3.641099e+003;5.574146e-002
3.643027e+003;5.536065e-002
3.644956e+003;5.399583e-002
3.646884e+003;5.120003e-002
3.648813e+003;4.935079e-002
3.650741e+003;5.080776e-002
3.652670e+003;5.289798e-002
3.654598e+003;5.206493e-002
3.656527e+003;5.137066e-002
3.658456e+003;5.230439e-002
3.660384e+003;5.278762e-002
3.662313e+003;5.300724e-002
3.664241e+003;5.322187e-002
3.666170e+003;5.184467e-002
3.668098e+003;4.898289e-002
3.670027e+003;4.795193e-002
3.671955e+003;4.995533e-002
3.673884e+003;4.855349e-002
3.675813e+003;4.748112e-002
3.677741e+003;5.016622e-002
3.679669e+003;5.147573e-002
3.681598e+003;5.232604e-002
3.683527e+003;5.186965e-002
3.685455e+003;4.993633e-002
3.687384e+003;4.649911e-002
3.689312e+003;4.674726e-002
3.691241e+003;4.952081e-002
3.693169e+003;5.106864e-002
3.695098e+003;5.151639e-002
3.697026e+003;5.167957e-002
3.698955e+003;5.116875e-002
3.700884e+003;4.963319e-002
3.702812e+003;4.993938e-002
3.704741e+003;5.104196e-002
3.706669e+003;5.084747e-002
3.708598e+003;4.926702e-002
3.710526e+003;4.768752e-002
3.712455e+003;4.820858e-002
3.714383e+003;5.001310e-002
3.716312e+003;5.076192e-002
3.718240e+003;5.078821e-002
3.720169e+003;5.000908e-002
3.722098e+003;4.984490e-002
3.724026e+003;5.022930e-002
3.725955e+003;5.060761e-002
3.727883e+003;5.076046e-002
3.729812e+003;4.908697e-002
3.731740e+003;4.705707e-002
3.733669e+003;4.649627e-002
3.735597e+003;4.622342e-002
3.737526e+003;4.821554e-002
3.739455e+003;4.967833e-002
3.741383e+003;4.768737e-002
3.743312e+003;4.290304e-002
3.745240e+003;4.446509e-002
3.747169e+003;4.617448e-002
3.749097e+003;4.326001e-002
3.751026e+003;4.324358e-002
3.752954e+003;4.669207e-002
3.754883e+003;4.951698e-002
3.756812e+003;4.951806e-002
3.758740e+003;4.898905e-002
3.760668e+003;4.897380e-002
3.762597e+003;4.982550e-002
3.764526e+003;4.983992e-002
3.766454e+003;4.990440e-002
3.768383e+003;4.921907e-002
3.770311e+003;4.938075e-002
3.772240e+003;5.063412e-002
3.774168e+003;5.100171e-002
3.776097e+003;5.042251e-002
3.778025e+003;4.944331e-002
3.779954e+003;4.960203e-002
3.781883e+003;5.084471e-002
3.783811e+003;5.131651e-002
3.785740e+003;5.123534e-002
3.787668e+003;5.095062e-002
3.789597e+003;5.097123e-002
3.791525e+003;5.162392e-002
3.793454e+003;5.142694e-002
3.795382e+003;5.033217e-002
3.797311e+003;5.035881e-002
3.799240e+003;4.810074e-002
3.801168e+003;4.604806e-002
3.803097e+003;4.828904e-002
3.805025e+003;4.855274e-002
3.806954e+003;4.804097e-002
3.808882e+003;4.999655e-002
3.810811e+003;5.095115e-002
3.812739e+003;5.056547e-002
3.814668e+003;4.802147e-002
3.816596e+003;4.790324e-002
3.818525e+003;4.890319e-002
3.820454e+003;4.785918e-002
3.822382e+003;4.949667e-002
3.824311e+003;5.088096e-002
3.826239e+003;5.050621e-002
3.828168e+003;5.037116e-002
3.830096e+003;4.985609e-002
3.832025e+003;4.943484e-002
3.833953e+003;4.878565e-002
3.835882e+003;4.688581e-002
3.837811e+003;4.621421e-002
3.839739e+003;4.832400e-002
3.841667e+003;4.968527e-002
3.843596e+003;5.028551e-002
3.845525e+003;5.114024e-002
3.847453e+003;5.144138e-002
3.849382e+003;4.959750e-002
3.851310e+003;4.498476e-002
3.853239e+003;4.185134e-002
3.855167e+003;4.595185e-002
3.857096e+003;5.008608e-002
3.859024e+003;5.074907e-002
3.860953e+003;5.045972e-002
3.862882e+003;4.975824e-002
3.864810e+003;4.967803e-002
3.866739e+003;4.998704e-002
3.868667e+003;4.873312e-002
3.870596e+003;4.925421e-002
3.872524e+003;5.030653e-002
3.874453e+003;5.054831e-002
3.876381e+003;5.142041e-002
3.878310e+003;5.072698e-002
3.880239e+003;5.060586e-002
3.882167e+003;5.136629e-002
3.884096e+003;5.023046e-002
3.886024e+003;5.014030e-002
3.887953e+003;5.144731e-002
3.889881e+003;5.079078e-002
3.891810e+003;5.051083e-002
3.893738e+003;5.154967e-002
3.895667e+003;5.155191e-002
3.897595e+003;5.018672e-002
3.899524e+003;5.004905e-002
3.901453e+003;5.053025e-002
3.903381e+003;5.038649e-002
3.905310e+003;5.168737e-002
3.907238e+003;5.281932e-002
3.909167e+003;5.246940e-002
3.911095e+003;5.186337e-002
3.913024e+003;5.242326e-002
3.914952e+003;5.239930e-002
3.916881e+003;5.180909e-002
3.918810e+003;5.245074e-002
3.920738e+003;5.361025e-002
3.922667e+003;5.341124e-002
3.924595e+003;5.230103e-002
3.926524e+003;5.224602e-002
3.928452e+003;5.306658e-002
3.930381e+003;5.370795e-002
3.932309e+003;5.340551e-002
3.934238e+003;5.289577e-002
3.936167e+003;5.301008e-002
3.938095e+003;5.332035e-002
3.940023e+003;5.290426e-002
3.941952e+003;5.228130e-002
3.943881e+003;5.251057e-002
3.945809e+003;5.332892e-002
3.947738e+003;5.340270e-002
3.949666e+003;5.347588e-002
3.951595e+003;5.334470e-002
3.953523e+003;5.334140e-002
3.955452e+003;5.318183e-002
3.957380e+003;5.333309e-002
3.959309e+003;5.356077e-002
3.961238e+003;5.310106e-002
3.963166e+003;5.328682e-002
3.965095e+003;5.360302e-002
3.967023e+003;5.325487e-002
3.968952e+003;5.346805e-002
3.970880e+003;5.376821e-002
3.972809e+003;5.345546e-002
3.974737e+003;5.295854e-002
3.976666e+003;5.350526e-002
3.978594e+003;5.375700e-002
3.980523e+003;5.318468e-002
3.982452e+003;5.297736e-002
3.984380e+003;5.268919e-002
3.986309e+003;5.310368e-002
3.988237e+003;5.376874e-002
3.990166e+003;5.383036e-002
3.992094e+003;5.348757e-002
3.994023e+003;5.303183e-002
3.995951e+003;5.315311e-002
3.997880e+003;5.326438e-002
3.999809e+003;5.330124e-002
4.001737e+003;0.000000e+000
