3.992094e+002;0.000000e+000
4.011380e+002;0.000000e+000
4.030665e+002;0.000000e+000
4.049951e+002;0.000000e+000
4.069236e+002;0.000000e+000
4.088522e+002;0.000000e+000
4.107807e+002;0.000000e+000
4.127093e+002;0.000000e+000
4.146378e+002;0.000000e+000
4.165664e+002;0.000000e+000
4.184949e+002;0.000000e+000
4.204235e+002;0.000000e+000
4.223520e+002;0.000000e+000
4.242806e+002;0.000000e+000
4.262091e+002;0.000000e+000
4.281377e+002;0.000000e+000
4.300662e+002;0.000000e+000
4.319948e+002;0.000000e+000
4.339233e+002;0.000000e+000
4.358519e+002;0.000000e+000
4.377804e+002;0.000000e+000
4.397090e+002;0.000000e+000
4.416375e+002;0.000000e+000
4.435660e+002;0.000000e+000
4.454946e+002;0.000000e+000
4.474232e+002;0.000000e+000
4.493517e+002;0.000000e+000
4.512802e+002;0.000000e+000
4.532088e+002;0.000000e+000
4.551373e+002;0.000000e+000
4.570659e+002;0.000000e+000
4.589944e+002;0.000000e+000
4.609230e+002;0.000000e+000
4.628515e+002;0.000000e+000
4.647801e+002;0.000000e+000
4.667086e+002;0.000000e+000
4.686372e+002;0.000000e+000
4.705657e+002;0.000000e+000
4.724943e+002;0.000000e+000
4.744228e+002;0.000000e+000
4.763513e+002;0.000000e+000
4.782799e+002;0.000000e+000
4.802085e+002;0.000000e+000
4.821370e+002;0.000000e+000
4.840656e+002;0.000000e+000
4.859941e+002;0.000000e+000
4.879226e+002;0.000000e+000
4.898512e+002;0.000000e+000
4.917798e+002;0.000000e+000
4.937083e+002;0.000000e+000
4.956368e+002;0.000000e+000
4.975654e+002;0.000000e+000
4.994939e+002;0.000000e+000
5.014225e+002;0.000000e+000
5.033510e+002;0.000000e+000
5.052796e+002;0.000000e+000
5.072081e+002;0.000000e+000
5.091367e+002;0.000000e+000
5.110652e+002;0.000000e+000
5.129938e+002;0.000000e+000
5.149223e+002;0.000000e+000
5.168509e+002;0.000000e+000
5.187794e+002;0.000000e+000
5.207079e+002;0.000000e+000
5.226365e+002;0.000000e+000
5.245651e+002;0.000000e+000
5.264936e+002;0.000000e+000
5.284222e+002;0.000000e+000
5.303507e+002;0.000000e+000
5.322792e+002;0.000000e+000
5.342078e+002;0.000000e+000
5.361364e+002;0.000000e+000
5.380649e+002;0.000000e+000
5.399935e+002;0.000000e+000
5.419220e+002;0.000000e+000
5.438505e+002;0.000000e+000
5.457791e+002;0.000000e+000
5.477076e+002;0.000000e+000
5.496362e+002;0.000000e+000
5.515648e+002;0.000000e+000
5.534933e+002;0.000000e+000
5.554218e+002;0.000000e+000
5.573504e+002;0.000000e+000
5.592789e+002;0.000000e+000
5.612075e+002;0.000000e+000
5.631360e+002;0.000000e+000
5.650646e+002;0.000000e+000
5.669931e+002;0.000000e+000
5.689217e+002;0.000000e+000
5.708502e+002;0.000000e+000
5.727787e+002;0.000000e+000
5.747073e+002;0.000000e+000
5.766359e+002;0.000000e+000
5.785644e+002;0.000000e+000
5.804930e+002;0.000000e+000
5.824215e+002;0.000000e+000
5.843500e+002;0.000000e+000
5.862786e+002;0.000000e+000
5.882072e+002;0.000000e+000
5.901357e+002;0.000000e+000
5.920643e+002;0.000000e+000
5.939928e+002;0.000000e+000
5.959213e+002;0.000000e+000
5.978499e+002;0.000000e+000
5.997784e+002;3.133960e-001
6.017070e+002;3.137283e-001
6.036355e+002;3.123253e-001
6.055641e+002;3.153642e-001
6.074926e+002;3.190957e-001
6.094211e+002;3.193246e-001
6.113497e+002;3.145384e-001
6.132783e+002;3.062602e-001
6.152068e+002;3.016281e-001
6.171354e+002;2.984073e-001
6.190639e+002;3.004605e-001
6.209924e+002;3.002285e-001
6.229210e+002;2.949890e-001
6.248495e+002;2.916620e-001
6.267781e+002;2.893378e-001
6.287067e+002;2.871723e-001
6.306352e+002;2.876483e-001
6.325637e+002;2.846515e-001
6.344923e+002;2.792185e-001
6.364208e+002;2.748315e-001
6.383494e+002;2.722892e-001
6.402780e+002;2.737056e-001
6.422065e+002;2.752245e-001
6.441350e+002;2.708020e-001
6.460636e+002;2.712764e-001
6.479921e+002;2.761508e-001
6.499207e+002;2.777602e-001
6.518492e+002;2.757004e-001
6.537778e+002;2.730850e-001
6.557063e+002;2.767374e-001
6.576349e+002;2.808788e-001
6.595634e+002;2.856659e-001
6.614919e+002;2.889202e-001
6.634205e+002;2.871825e-001
6.653491e+002;2.845573e-001
6.672776e+002;2.804316e-001
6.692062e+002;2.767511e-001
6.711347e+002;2.747114e-001
6.730632e+002;2.697947e-001
6.749918e+002;2.635578e-001
6.769203e+002;2.583882e-001
6.788489e+002;2.537828e-001
6.807775e+002;2.501619e-001
6.827060e+002;2.482931e-001
6.846345e+002;2.468966e-001
6.865631e+002;2.452599e-001
6.884916e+002;2.436924e-001
6.904202e+002;2.422338e-001
6.923488e+002;2.419941e-001
6.942773e+002;2.418994e-001
6.962058e+002;2.413145e-001
6.981344e+002;2.410486e-001
7.000629e+002;2.416285e-001
7.019915e+002;2.412128e-001
7.039200e+002;2.397334e-001
7.058486e+002;2.377955e-001
7.077771e+002;2.364929e-001
7.097057e+002;2.352211e-001
7.116342e+002;2.324384e-001
7.135627e+002;2.298027e-001
7.154913e+002;2.268590e-001
7.174199e+002;2.237560e-001
7.193484e+002;2.205106e-001
7.212770e+002;2.162890e-001
7.232055e+002;2.135165e-001
7.251340e+002;2.113410e-001
7.270626e+002;2.082890e-001
7.289911e+002;2.041855e-001
7.309197e+002;2.009795e-001
7.328483e+002;1.994099e-001
7.347768e+002;1.984712e-001
7.367053e+002;1.968145e-001
7.386339e+002;1.948534e-001
7.405624e+002;1.927397e-001
7.424910e+002;1.907146e-001
7.444196e+002;1.897460e-001
7.463481e+002;1.892020e-001
7.482766e+002;1.887497e-001
7.502052e+002;1.879757e-001
7.521337e+002;1.871608e-001
7.540623e+002;1.859814e-001
7.559908e+002;1.834444e-001
7.579194e+002;1.807687e-001
7.598479e+002;1.798653e-001
7.617765e+002;1.801940e-001
7.637050e+002;1.804394e-001
7.656335e+002;1.792614e-001
7.675621e+002;1.781964e-001
7.694907e+002;1.775390e-001
7.714192e+002;1.768652e-001
7.733478e+002;1.762808e-001
7.752763e+002;1.759047e-001
7.772048e+002;1.763219e-001
7.791334e+002;1.759398e-001
7.810620e+002;1.750377e-001
7.829905e+002;1.750464e-001
7.849191e+002;1.747709e-001
7.868476e+002;1.734969e-001
7.887761e+002;1.726215e-001
7.907047e+002;1.723303e-001
7.926332e+002;1.720011e-001
7.945618e+002;1.718704e-001
7.964903e+002;1.715698e-001
7.984189e+002;1.711323e-001
8.003474e+002;1.718867e-001
8.022759e+002;1.720828e-001
8.042045e+002;1.715483e-001
8.061331e+002;1.702580e-001
8.080616e+002;1.692140e-001
8.099902e+002;1.687814e-001
8.119187e+002;1.684922e-001
8.138472e+002;1.683600e-001
8.157758e+002;1.685704e-001
8.177043e+002;1.679462e-001
8.196329e+002;1.675883e-001
8.215615e+002;1.669493e-001
8.234900e+002;1.662627e-001
8.254185e+002;1.662531e-001
8.273471e+002;1.659054e-001
8.292756e+002;1.654987e-001
8.312042e+002;1.658041e-001
8.331328e+002;1.662949e-001
8.350613e+002;1.663092e-001
8.369898e+002;1.652444e-001
8.389184e+002;1.644628e-001
8.408469e+002;1.641689e-001
8.427755e+002;1.637328e-001
8.447040e+002;1.634392e-001
8.466326e+002;1.633091e-001
8.485611e+002;1.632413e-001
8.504897e+002;1.630765e-001
8.524182e+002;1.634095e-001
8.543467e+002;1.645800e-001
8.562753e+002;1.653595e-001
8.582039e+002;1.658517e-001
8.601324e+002;1.667644e-001
8.620610e+002;1.674906e-001
8.639895e+002;1.684473e-001
8.659180e+002;1.696744e-001
8.678466e+002;1.706787e-001
8.697751e+002;1.720483e-001
8.717037e+002;1.740023e-001
8.736323e+002;1.765303e-001
8.755608e+002;1.794598e-001
8.774893e+002;1.827860e-001
8.794179e+002;1.864683e-001
8.813464e+002;1.904582e-001
8.832750e+002;1.943690e-001
8.852036e+002;1.988971e-001
8.871321e+002;2.032284e-001
8.890606e+002;2.072637e-001
8.909892e+002;2.113556e-001
8.929177e+002;2.145580e-001
8.948463e+002;2.165980e-001
8.967748e+002;2.177526e-001
8.987034e+002;2.189127e-001
9.006319e+002;2.190032e-001
9.025605e+002;2.176365e-001
9.044890e+002;2.158062e-001
9.064175e+002;2.133856e-001
9.083461e+002;2.107591e-001
9.102747e+002;2.088559e-001
9.122032e+002;2.071412e-001
9.141318e+002;2.051903e-001
9.160603e+002;2.034246e-001
9.179888e+002;2.024006e-001
9.199174e+002;2.025239e-001
9.218459e+002;2.030808e-001
9.237745e+002;2.037026e-001
9.257031e+002;2.050184e-001
9.276316e+002;2.066389e-001
9.295601e+002;2.082361e-001
9.314887e+002;2.093898e-001
9.334172e+002;2.105282e-001
9.353458e+002;2.121963e-001
9.372744e+002;2.139135e-001
9.392029e+002;2.155497e-001
9.411314e+002;2.176722e-001
9.430600e+002;2.201022e-001
9.449885e+002;2.226089e-001
9.469171e+002;2.259430e-001
9.488456e+002;2.300098e-001
9.507742e+002;2.342647e-001
9.527027e+002;2.387299e-001
9.546313e+002;2.432221e-001
9.565598e+002;2.479740e-001
9.584883e+002;2.535074e-001
9.604169e+002;2.594939e-001
9.623455e+002;2.653345e-001
9.642740e+002;2.713259e-001
9.662026e+002;2.778386e-001
9.681311e+002;2.848712e-001
9.700596e+002;2.927647e-001
9.719882e+002;3.019773e-001
9.739167e+002;3.128126e-001
9.758453e+002;3.253438e-001
9.777739e+002;3.386113e-001
9.797024e+002;3.521352e-001
9.816309e+002;3.657112e-001
9.835595e+002;3.772608e-001
9.854880e+002;3.851098e-001
9.874166e+002;3.905196e-001
9.893452e+002;3.958903e-001
9.912737e+002;4.021284e-001
9.932022e+002;4.087864e-001
9.951307e+002;4.146693e-001
9.970593e+002;4.197566e-001
9.989879e+002;4.235679e-001
1.000916e+003;4.258010e-001
1.002845e+003;4.279903e-001
1.004773e+003;4.307443e-001
1.006702e+003;4.339241e-001
1.008631e+003;4.384700e-001
1.010559e+003;4.437720e-001
1.012488e+003;4.494536e-001
1.014416e+003;4.556467e-001
1.016345e+003;4.614637e-001
1.018273e+003;4.662011e-001
1.020202e+003;4.702837e-001
1.022130e+003;4.743251e-001
1.024059e+003;4.779782e-001
1.025988e+003;4.809054e-001
1.027916e+003;4.821952e-001
1.029845e+003;4.814178e-001
1.031773e+003;4.785968e-001
1.033702e+003;4.745749e-001
1.035630e+003;4.690867e-001
1.037559e+003;4.630756e-001
1.039487e+003;4.575309e-001
1.041416e+003;4.536811e-001
1.043344e+003;4.521797e-001
1.045273e+003;4.527764e-001
1.047202e+003;4.546733e-001
1.049130e+003;4.575278e-001
1.051059e+003;4.604107e-001
1.052987e+003;4.617557e-001
1.054916e+003;4.605206e-001
1.056844e+003;4.563158e-001
1.058773e+003;4.498814e-001
1.060701e+003;4.401273e-001
1.062630e+003;4.275087e-001
1.064558e+003;4.138890e-001
1.066487e+003;4.010172e-001
1.068416e+003;3.900203e-001
1.070344e+003;3.813320e-001
1.072273e+003;3.736721e-001
1.074201e+003;3.673140e-001
1.076130e+003;3.611139e-001
1.078058e+003;3.541088e-001
1.079987e+003;3.475996e-001
1.081915e+003;3.431044e-001
1.083844e+003;3.399751e-001
1.085773e+003;3.376998e-001
1.087701e+003;3.353509e-001
1.089630e+003;3.327995e-001
1.091558e+003;3.309298e-001
1.093487e+003;3.297066e-001
1.095415e+003;3.289401e-001
1.097344e+003;3.280620e-001
1.099272e+003;3.268800e-001
1.101201e+003;3.257927e-001
1.103129e+003;3.245533e-001
1.105058e+003;3.214959e-001
1.106987e+003;3.177683e-001
1.108915e+003;3.144917e-001
1.110844e+003;3.097389e-001
1.112772e+003;3.030747e-001
1.114701e+003;2.948652e-001
1.116629e+003;2.858013e-001
1.118558e+003;2.764739e-001
1.120486e+003;2.679849e-001
1.122415e+003;2.610395e-001
1.124344e+003;2.542614e-001
1.126272e+003;2.472790e-001
1.128201e+003;2.402657e-001
1.130129e+003;2.337549e-001
1.132058e+003;2.287411e-001
1.133986e+003;2.248145e-001
1.135915e+003;2.212992e-001
1.137843e+003;2.185122e-001
1.139772e+003;2.172346e-001
1.141700e+003;2.176757e-001
1.143629e+003;2.190936e-001
1.145557e+003;2.204814e-001
1.147486e+003;2.221004e-001
1.149415e+003;2.239197e-001
1.151343e+003;2.259222e-001
1.153272e+003;2.281813e-001
1.155200e+003;2.304723e-001
1.157129e+003;2.327002e-001
1.159057e+003;2.336929e-001
1.160986e+003;2.326894e-001
1.162914e+003;2.289494e-001
1.164843e+003;2.227792e-001
1.166771e+003;2.153159e-001
1.168700e+003;2.069611e-001
1.170629e+003;1.986085e-001
1.172557e+003;1.909452e-001
1.174486e+003;1.840504e-001
1.176414e+003;1.781528e-001
1.178343e+003;1.735494e-001
1.180271e+003;1.696975e-001
1.182200e+003;1.665191e-001
1.184128e+003;1.646923e-001
1.186057e+003;1.635497e-001
1.187986e+003;1.634108e-001
1.189914e+003;1.644278e-001
1.191843e+003;1.658048e-001
1.193771e+003;1.673564e-001
1.195700e+003;1.694906e-001
1.197628e+003;1.711781e-001
1.199557e+003;1.721339e-001
1.201485e+003;1.727170e-001
1.203414e+003;1.724434e-001
1.205343e+003;1.710828e-001
1.207271e+003;1.688882e-001
1.209200e+003;1.660758e-001
1.211128e+003;1.629941e-001
1.213057e+003;1.607973e-001
1.214985e+003;1.602254e-001
1.216914e+003;1.605511e-001
1.218842e+003;1.613311e-001
1.220771e+003;1.625013e-001
1.222699e+003;1.637034e-001
1.224628e+003;1.653273e-001
1.226557e+003;1.672792e-001
1.228485e+003;1.691297e-001
1.230414e+003;1.707854e-001
1.232342e+003;1.720459e-001
1.234271e+003;1.728790e-001
1.236199e+003;1.732493e-001
1.238128e+003;1.732115e-001
1.240056e+003;1.731643e-001
1.241985e+003;1.735771e-001
1.243913e+003;1.743889e-001
1.245842e+003;1.749413e-001
1.247771e+003;1.752152e-001
1.249699e+003;1.754131e-001
1.251628e+003;1.759342e-001
1.253556e+003;1.764569e-001
1.255485e+003;1.769001e-001
1.257413e+003;1.775900e-001
1.259342e+003;1.781783e-001
1.261270e+003;1.780359e-001
1.263199e+003;1.775116e-001
1.265127e+003;1.771511e-001
1.267056e+003;1.769715e-001
1.268985e+003;1.768733e-001
1.270913e+003;1.767568e-001
1.272842e+003;1.769826e-001
1.274770e+003;1.775391e-001
1.276699e+003;1.774661e-001
1.278627e+003;1.769520e-001
1.280556e+003;1.763949e-001
1.282484e+003;1.756287e-001
1.284413e+003;1.746409e-001
1.286342e+003;1.741380e-001
1.288270e+003;1.744812e-001
1.290199e+003;1.751988e-001
1.292127e+003;1.764286e-001
1.294056e+003;1.776015e-001
1.295984e+003;1.785869e-001
1.297913e+003;1.803349e-001
1.299841e+003;1.826610e-001
1.301770e+003;1.852344e-001
1.303698e+003;1.882636e-001
1.305627e+003;1.916488e-001
1.307556e+003;1.946844e-001
1.309484e+003;1.974593e-001
1.311413e+003;2.001232e-001
1.313341e+003;2.020281e-001
1.315270e+003;2.025664e-001
1.317198e+003;2.013648e-001
1.319127e+003;1.992613e-001
1.321055e+003;1.972464e-001
1.322984e+003;1.955127e-001
1.324912e+003;1.941486e-001
1.326841e+003;1.933971e-001
1.328770e+003;1.936767e-001
1.330698e+003;1.943823e-001
1.332627e+003;1.952353e-001
1.334555e+003;1.956958e-001
1.336484e+003;1.950481e-001
1.338412e+003;1.934404e-001
1.340341e+003;1.919595e-001
1.342269e+003;1.907455e-001
1.344198e+003;1.893743e-001
1.346126e+003;1.881498e-001
1.348055e+003;1.873073e-001
1.349984e+003;1.870100e-001
1.351912e+003;1.875498e-001
1.353841e+003;1.887529e-001
1.355769e+003;1.898847e-001
1.357698e+003;1.905316e-001
1.359626e+003;1.904867e-001
1.361555e+003;1.899294e-001
1.363483e+003;1.895391e-001
1.365412e+003;1.895749e-001
1.367341e+003;1.894664e-001
1.369269e+003;1.890712e-001
1.371198e+003;1.877636e-001
1.373126e+003;1.854486e-001
1.375055e+003;1.831561e-001
1.376983e+003;1.811254e-001
1.378912e+003;1.786509e-001
1.380840e+003;1.759152e-001
1.382769e+003;1.734439e-001
1.384698e+003;1.714587e-001
1.386626e+003;1.690040e-001
1.388555e+003;1.677180e-001
1.390483e+003;1.676250e-001
1.392412e+003;1.667832e-001
1.394340e+003;1.652286e-001
1.396269e+003;1.651745e-001
1.398197e+003;1.655800e-001
1.400126e+003;1.662940e-001
1.402054e+003;1.670024e-001
1.403983e+003;1.671023e-001
1.405911e+003;1.678273e-001
1.407840e+003;1.686379e-001
1.409769e+003;1.690382e-001
1.411697e+003;1.694441e-001
1.413626e+003;1.698840e-001
1.415554e+003;1.702096e-001
1.417483e+003;1.692565e-001
1.419411e+003;1.692373e-001
1.421340e+003;1.724417e-001
1.423268e+003;1.743557e-001
1.425197e+003;1.750765e-001
1.427125e+003;1.754568e-001
1.429054e+003;1.746293e-001
1.430983e+003;1.737682e-001
1.432911e+003;1.727310e-001
1.434840e+003;1.695679e-001
1.436768e+003;1.667133e-001
1.438697e+003;1.676009e-001
1.440625e+003;1.677819e-001
1.442554e+003;1.669092e-001
1.444482e+003;1.658852e-001
1.446411e+003;1.647968e-001
1.448340e+003;1.642123e-001
1.450268e+003;1.640859e-001
1.452197e+003;1.633014e-001
1.454125e+003;1.609881e-001
1.456054e+003;1.556386e-001
1.457982e+003;1.546303e-001
1.459911e+003;1.574350e-001
1.461839e+003;1.573016e-001
1.463768e+003;1.543358e-001
1.465697e+003;1.525495e-001
1.467625e+003;1.516296e-001
1.469554e+003;1.484102e-001
1.471482e+003;1.429705e-001
1.473411e+003;1.399646e-001
1.475339e+003;1.395682e-001
1.477268e+003;1.390553e-001
1.479196e+003;1.383283e-001
1.481125e+003;1.363739e-001
1.483053e+003;1.343119e-001
1.484982e+003;1.316424e-001
1.486911e+003;1.284527e-001
1.488839e+003;1.256424e-001
1.490768e+003;1.244778e-001
1.492696e+003;1.243353e-001
1.494625e+003;1.218717e-001
1.496553e+003;1.194117e-001
1.498482e+003;1.198966e-001
1.500410e+003;1.207800e-001
1.502339e+003;1.204778e-001
1.504267e+003;1.161683e-001
1.506196e+003;1.114814e-001
1.508125e+003;1.137802e-001
1.510053e+003;1.172004e-001
1.511982e+003;1.178209e-001
1.513910e+003;1.177658e-001
1.515839e+003;1.164693e-001
1.517767e+003;1.154426e-001
1.519696e+003;1.131237e-001
1.521624e+003;1.117352e-001
1.523553e+003;1.141053e-001
1.525481e+003;1.151181e-001
1.527410e+003;1.158645e-001
1.529339e+003;1.169739e-001
1.531267e+003;1.167765e-001
1.533196e+003;1.154614e-001
1.535124e+003;1.162536e-001
1.537053e+003;1.143736e-001
1.538981e+003;1.092980e-001
1.540910e+003;1.097155e-001
1.542838e+003;1.135638e-001
1.544767e+003;1.159129e-001
1.546695e+003;1.176070e-001
1.548624e+003;1.179570e-001
1.550553e+003;1.179071e-001
1.552481e+003;1.173270e-001
1.554410e+003;1.161505e-001
1.556338e+003;1.136859e-001
1.558267e+003;1.088928e-001
1.560195e+003;1.114204e-001
1.562124e+003;1.178981e-001
1.564052e+003;1.195933e-001
1.565981e+003;1.197820e-001
1.567910e+003;1.191109e-001
1.569838e+003;1.188414e-001
1.571767e+003;1.206439e-001
1.573695e+003;1.196535e-001
1.575624e+003;1.165093e-001
1.577552e+003;1.186596e-001
1.579481e+003;1.219061e-001
1.581409e+003;1.225576e-001
1.583338e+003;1.230069e-001
1.585266e+003;1.234018e-001
1.587195e+003;1.238430e-001
1.589124e+003;1.239681e-001
1.591052e+003;1.242119e-001
1.592981e+003;1.244014e-001
1.594909e+003;1.247545e-001
1.596838e+003;1.254925e-001
1.598766e+003;1.260642e-001
1.600695e+003;1.262350e-001
1.602623e+003;1.264064e-001
1.604552e+003;1.267138e-001
1.606480e+003;1.273906e-001
1.608409e+003;1.277435e-001
1.610338e+003;1.278576e-001
1.612266e+003;1.283676e-001
1.614195e+003;1.272404e-001
1.616123e+003;1.247704e-001
1.618052e+003;1.268592e-001
1.619980e+003;1.294110e-001
1.621909e+003;1.285927e-001
1.623837e+003;1.283441e-001
1.625766e+003;1.296013e-001
1.627694e+003;1.301351e-001
1.629623e+003;1.308469e-001
1.631552e+003;1.310812e-001
1.633480e+003;1.289786e-001
1.635409e+003;1.265867e-001
1.637337e+003;1.284890e-001
1.639266e+003;1.308175e-001
1.641194e+003;1.313780e-001
1.643123e+003;1.303394e-001
1.645051e+003;1.272201e-001
1.646980e+003;1.264756e-001
1.648909e+003;1.282616e-001
1.650837e+003;1.242109e-001
1.652766e+003;1.181646e-001
1.654694e+003;1.226215e-001
1.656623e+003;1.278528e-001
1.658551e+003;1.281433e-001
1.660480e+003;1.265097e-001
1.662408e+003;1.248056e-001
1.664337e+003;1.250955e-001
1.666266e+003;1.246737e-001
1.668194e+003;1.218792e-001
1.670123e+003;1.205413e-001
1.672051e+003;1.207851e-001
1.673980e+003;1.190567e-001
1.675908e+003;1.183488e-001
1.677837e+003;1.195519e-001
1.679765e+003;1.187353e-001
1.681694e+003;1.156684e-001
1.683622e+003;1.104084e-001
1.685551e+003;1.112258e-001
1.687479e+003;1.148733e-001
1.689408e+003;1.152390e-001
1.691337e+003;1.149694e-001
1.693265e+003;1.126580e-001
1.695194e+003;1.082033e-001
1.697122e+003;1.081500e-001
1.699051e+003;1.066264e-001
1.700979e+003;1.064422e-001
1.702908e+003;1.101918e-001
1.704836e+003;1.104754e-001
1.706765e+003;1.108859e-001
1.708693e+003;1.114763e-001
1.710622e+003;1.114438e-001
1.712551e+003;1.106894e-001
1.714479e+003;1.089231e-001
1.716408e+003;1.061382e-001
1.718336e+003;1.066321e-001
1.720265e+003;1.101336e-001
1.722193e+003;1.116803e-001
1.724122e+003;1.120167e-001
1.726050e+003;1.124624e-001
1.727979e+003;1.122012e-001
1.729908e+003;1.117907e-001
1.731836e+003;1.094366e-001
1.733765e+003;1.067841e-001
1.735693e+003;1.098586e-001
1.737622e+003;1.119273e-001
1.739550e+003;1.107244e-001
1.741479e+003;1.106254e-001
1.743407e+003;1.101742e-001
1.745336e+003;1.091117e-001
1.747265e+003;1.072098e-001
1.749193e+003;1.049529e-001
1.751122e+003;1.035270e-001
1.753050e+003;1.043205e-001
1.754979e+003;1.039824e-001
1.756907e+003;1.028835e-001
1.758836e+003;1.026583e-001
1.760764e+003;1.014778e-001
1.762693e+003;1.013688e-001
1.764621e+003;1.021550e-001
1.766550e+003;1.008508e-001
1.768479e+003;9.963404e-002
1.770407e+003;9.839463e-002
1.772336e+003;9.745064e-002
1.774264e+003;9.943953e-002
1.776193e+003;1.008365e-001
1.778121e+003;1.007765e-001
1.780050e+003;1.004816e-001
1.781978e+003;1.005317e-001
1.783907e+003;1.001719e-001
1.785835e+003;1.001997e-001
1.787764e+003;1.004141e-001
1.789693e+003;9.919956e-002
1.791621e+003;9.744570e-002
1.793550e+003;9.805415e-002
1.795478e+003;9.942574e-002
1.797407e+003;9.916641e-002
1.799335e+003;9.855408e-002
1.801264e+003;9.838096e-002
1.803192e+003;9.898243e-002
1.805121e+003;9.937663e-002
1.807049e+003;9.928762e-002
1.808978e+003;9.874724e-002
1.810907e+003;9.853400e-002
1.812835e+003;9.889147e-002
1.814764e+003;9.894285e-002
1.816692e+003;9.874770e-002
1.818621e+003;9.887636e-002
1.820549e+003;9.874962e-002
1.822478e+003;9.834635e-002
1.824406e+003;9.777874e-002
1.826335e+003;9.778547e-002
1.828264e+003;9.735357e-002
1.830192e+003;9.722564e-002
1.832121e+003;9.808782e-002
1.834049e+003;9.826719e-002
1.835978e+003;9.802330e-002
1.837906e+003;9.792095e-002
1.839835e+003;9.794702e-002
1.841763e+003;9.668724e-002
1.843692e+003;9.514553e-002
1.845620e+003;9.612280e-002
1.847549e+003;9.716439e-002
1.849478e+003;9.745632e-002
1.851406e+003;9.755055e-002
1.853335e+003;9.749916e-002
1.855263e+003;9.751011e-002
1.857192e+003;9.759129e-002
1.859120e+003;9.760933e-002
1.861049e+003;9.738815e-002
1.862977e+003;9.707107e-002
1.864906e+003;9.689448e-002
1.866834e+003;9.633754e-002
1.868763e+003;9.572014e-002
1.870692e+003;9.643617e-002
1.872620e+003;9.714147e-002
1.874549e+003;9.692641e-002
1.876477e+003;9.667267e-002
1.878406e+003;9.679265e-002
1.880334e+003;9.695388e-002
1.882263e+003;9.681547e-002
1.884191e+003;9.664924e-002
1.886120e+003;9.667420e-002
1.888048e+003;9.640977e-002
1.889977e+003;9.628733e-002
1.891906e+003;9.684909e-002
1.893834e+003;9.701821e-002
1.895763e+003;9.692931e-002
1.897691e+003;9.688488e-002
1.899620e+003;9.689792e-002
1.901548e+003;9.681945e-002
1.903477e+003;9.676880e-002
1.905405e+003;9.662963e-002
1.907334e+003;9.634271e-002
1.909262e+003;9.626723e-002
1.911191e+003;9.676996e-002
1.913120e+003;9.713402e-002
1.915048e+003;9.686735e-002
1.916977e+003;9.614136e-002
1.918905e+003;9.645751e-002
1.920834e+003;9.711292e-002
1.922762e+003;9.722760e-002
1.924691e+003;9.749199e-002
1.926619e+003;9.759452e-002
1.928548e+003;9.761593e-002
1.930477e+003;9.771799e-002
1.932405e+003;9.777049e-002
1.934334e+003;9.770131e-002
1.936262e+003;9.754562e-002
1.938191e+003;9.762347e-002
1.940119e+003;9.768999e-002
1.942048e+003;9.763518e-002
1.943976e+003;9.799946e-002
1.945905e+003;9.816541e-002
1.947833e+003;9.820828e-002
1.949762e+003;9.846899e-002
1.951691e+003;9.854061e-002
1.953619e+003;9.862939e-002
1.955548e+003;9.884046e-002
1.957476e+003;9.873809e-002
1.959405e+003;9.859291e-002
1.961333e+003;9.898584e-002
1.963262e+003;9.930287e-002
1.965190e+003;9.909789e-002
1.967119e+003;9.910779e-002
1.969047e+003;9.952839e-002
1.970976e+003;9.960028e-002
1.972905e+003;9.945606e-002
1.974833e+003;9.936613e-002
1.976762e+003;9.946236e-002
1.978690e+003;9.979757e-002
1.980619e+003;9.980428e-002
1.982547e+003;9.972532e-002
1.984476e+003;9.998273e-002
1.986404e+003;1.001673e-001
1.988333e+003;1.000519e-001
1.990261e+003;9.979365e-002
1.992190e+003;9.987784e-002
1.994119e+003;1.002334e-001
1.996047e+003;1.003986e-001
1.997976e+003;1.003865e-001
1.999904e+003;1.003363e-001
2.001833e+003;1.004249e-001
2.003761e+003;1.005228e-001
2.005690e+003;1.006147e-001
2.007618e+003;1.008995e-001
2.009547e+003;1.011116e-001
2.011476e+003;1.010284e-001
2.013404e+003;1.009624e-001
2.015333e+003;1.010778e-001
2.017261e+003;1.013637e-001
2.019190e+003;1.017481e-001
2.021118e+003;1.019353e-001
2.023047e+003;1.020361e-001
2.024975e+003;1.020525e-001
2.026904e+003;1.021103e-001
2.028833e+003;1.022413e-001
2.030761e+003;1.025180e-001
2.032690e+003;1.025841e-001
2.034618e+003;1.025945e-001
2.036547e+003;1.027504e-001
2.038475e+003;1.028206e-001
2.040404e+003;1.028830e-001
2.042332e+003;1.031692e-001
2.044261e+003;1.033483e-001
2.046189e+003;1.033257e-001
2.048118e+003;1.031820e-001
2.050047e+003;1.030467e-001
2.051975e+003;1.029759e-001
2.053904e+003;1.031226e-001
2.055832e+003;1.032719e-001
2.057761e+003;1.034359e-001
2.059689e+003;1.033553e-001
2.061618e+003;1.032211e-001
2.063546e+003;1.032219e-001
2.065475e+003;1.032831e-001
2.067404e+003;1.033022e-001
2.069332e+003;1.033331e-001
2.071260e+003;1.033471e-001
2.073189e+003;1.030659e-001
2.075118e+003;1.027605e-001
2.077046e+003;1.029527e-001
2.078975e+003;1.030244e-001
2.080903e+003;1.029534e-001
2.082832e+003;1.030397e-001
2.084760e+003;1.031533e-001
2.086689e+003;1.033025e-001
2.088617e+003;1.031435e-001
2.090546e+003;1.029526e-001
2.092475e+003;1.029423e-001
2.094403e+003;1.028867e-001
2.096332e+003;1.029527e-001
2.098260e+003;1.029219e-001
2.100189e+003;1.030715e-001
2.102117e+003;1.033138e-001
2.104046e+003;1.033025e-001
2.105974e+003;1.033156e-001
2.107903e+003;1.035096e-001
2.109832e+003;1.034692e-001
2.111760e+003;1.035158e-001
2.113688e+003;1.037569e-001
2.115617e+003;1.038884e-001
2.117546e+003;1.038934e-001
2.119474e+003;1.039516e-001
2.121403e+003;1.042026e-001
2.123331e+003;1.043967e-001
2.125260e+003;1.042155e-001
2.127188e+003;1.040063e-001
2.129117e+003;1.041056e-001
2.131045e+003;1.042628e-001
2.132974e+003;1.041632e-001
2.134903e+003;1.041493e-001
2.136831e+003;1.043509e-001
2.138760e+003;1.042458e-001
2.140688e+003;1.039953e-001
2.142617e+003;1.040092e-001
2.144545e+003;1.038389e-001
2.146474e+003;1.036830e-001
2.148402e+003;1.037924e-001
2.150331e+003;1.039633e-001
2.152260e+003;1.040954e-001
2.154188e+003;1.040337e-001
2.156117e+003;1.036262e-001
2.158045e+003;1.031771e-001
2.159974e+003;1.030463e-001
2.161902e+003;1.030873e-001
2.163831e+003;1.030430e-001
2.165759e+003;1.026682e-001
2.167688e+003;1.025424e-001
2.169616e+003;1.024756e-001
2.171545e+003;1.022811e-001
2.173474e+003;1.022071e-001
2.175402e+003;1.018746e-001
2.177331e+003;1.014290e-001
2.179259e+003;1.011856e-001
2.181188e+003;1.010870e-001
2.183116e+003;1.011385e-001
2.185045e+003;1.009799e-001
2.186973e+003;1.005985e-001
2.188902e+003;1.006139e-001
2.190831e+003;1.006883e-001
2.192759e+003;1.005382e-001
2.194688e+003;1.003379e-001
2.196616e+003;1.000608e-001
2.198545e+003;9.995662e-002
2.200473e+003;9.996167e-002
2.202402e+003;1.000250e-001
2.204330e+003;9.993110e-002
2.206259e+003;9.987605e-002
2.208188e+003;1.001076e-001
2.210116e+003;1.000919e-001
2.212044e+003;9.981067e-002
2.213973e+003;9.961858e-002
2.215902e+003;9.949323e-002
2.217830e+003;9.951019e-002
2.219759e+003;9.970111e-002
2.221687e+003;9.969618e-002
2.223616e+003;9.954173e-002
2.225544e+003;9.942799e-002
2.227473e+003;9.963445e-002
2.229401e+003;9.979486e-002
2.231330e+003;9.970156e-002
2.233259e+003;9.949136e-002
2.235187e+003;9.938925e-002
2.237116e+003;9.942978e-002
2.239044e+003;9.979624e-002
2.240973e+003;9.995008e-002
2.242901e+003;9.982888e-002
2.244830e+003;9.966493e-002
2.246758e+003;9.951460e-002
2.248687e+003;9.943882e-002
2.250615e+003;9.940166e-002
2.252544e+003;9.942903e-002
2.254473e+003;9.921291e-002
2.256401e+003;9.870078e-002
2.258330e+003;9.865750e-002
2.260258e+003;9.876250e-002
2.262187e+003;9.879362e-002
2.264115e+003;9.866735e-002
2.266044e+003;9.837651e-002
2.267972e+003;9.827438e-002
2.269901e+003;9.833782e-002
2.271830e+003;9.839579e-002
2.273758e+003;9.843777e-002
2.275687e+003;9.820496e-002
2.277615e+003;9.784693e-002
2.279544e+003;9.777766e-002
2.281472e+003;9.807204e-002
2.283401e+003;9.812242e-002
2.285329e+003;9.786906e-002
2.287258e+003;9.784154e-002
2.289187e+003;9.807391e-002
2.291115e+003;9.815972e-002
2.293043e+003;9.830417e-002
2.294972e+003;9.809331e-002
2.296901e+003;9.781419e-002
2.298829e+003;9.773480e-002
2.300758e+003;9.765708e-002
2.302686e+003;9.762559e-002
2.304615e+003;9.762605e-002
2.306543e+003;9.776032e-002
2.308472e+003;9.782904e-002
2.310400e+003;9.766326e-002
2.312329e+003;9.741257e-002
2.314258e+003;9.743343e-002
2.316186e+003;9.741535e-002
2.318115e+003;9.708533e-002
2.320043e+003;9.693457e-002
2.321972e+003;9.706913e-002
2.323900e+003;9.725931e-002
2.325829e+003;9.770094e-002
2.327757e+003;9.762850e-002
2.329686e+003;9.714131e-002
2.331615e+003;9.722768e-002
2.333543e+003;9.739134e-002
2.335472e+003;9.739524e-002
2.337400e+003;9.762497e-002
2.339329e+003;9.770787e-002
2.341257e+003;9.775949e-002
2.343186e+003;9.790019e-002
2.345114e+003;9.812766e-002
2.347043e+003;9.867512e-002
2.348971e+003;9.904107e-002
2.350900e+003;9.882303e-002
2.352829e+003;9.849671e-002
2.354757e+003;9.841458e-002
2.356686e+003;9.816736e-002
2.358614e+003;9.803803e-002
2.360543e+003;9.832037e-002
2.362471e+003;9.849776e-002
2.364400e+003;9.872050e-002
2.366328e+003;9.927808e-002
2.368257e+003;9.991679e-002
2.370186e+003;1.003026e-001
2.372114e+003;1.002957e-001
2.374042e+003;1.003145e-001
2.375971e+003;1.006721e-001
2.377900e+003;1.010963e-001
2.379828e+003;1.014302e-001
2.381757e+003;1.015853e-001
2.383685e+003;1.016590e-001
2.385614e+003;1.017514e-001
2.387542e+003;1.018234e-001
2.389471e+003;1.018544e-001
2.391399e+003;1.015959e-001
2.393328e+003;1.014921e-001
2.395257e+003;1.017824e-001
2.397185e+003;1.022116e-001
2.399114e+003;1.023947e-001
2.401042e+003;1.025228e-001
2.402971e+003;1.028470e-001
2.404899e+003;1.031352e-001
2.406828e+003;1.032806e-001
2.408756e+003;1.032134e-001
2.410685e+003;1.032421e-001
2.412614e+003;1.035948e-001
2.414542e+003;1.037154e-001
2.416471e+003;1.036073e-001
2.418399e+003;1.036213e-001
2.420328e+003;1.038277e-001
2.422256e+003;1.042086e-001
2.424185e+003;1.044882e-001
2.426113e+003;1.045592e-001
2.428042e+003;1.046737e-001
2.429970e+003;1.046606e-001
2.431899e+003;1.046580e-001
2.433828e+003;1.048963e-001
2.435756e+003;1.051765e-001
2.437685e+003;1.055535e-001
2.439613e+003;1.057249e-001
2.441542e+003;1.055872e-001
2.443470e+003;1.058150e-001
2.445399e+003;1.063787e-001
2.447327e+003;1.069536e-001
2.449256e+003;1.073021e-001
2.451185e+003;1.072443e-001
2.453113e+003;1.068800e-001
2.455042e+003;1.068790e-001
2.456970e+003;1.072237e-001
2.458899e+003;1.074776e-001
2.460827e+003;1.075474e-001
2.462756e+003;1.075770e-001
2.464684e+003;1.076241e-001
2.466613e+003;1.077523e-001
2.468542e+003;1.080929e-001
2.470470e+003;1.082256e-001
2.472398e+003;1.081380e-001
2.474327e+003;1.081443e-001
2.476256e+003;1.082793e-001
2.478184e+003;1.087202e-001
2.480113e+003;1.093743e-001
2.482041e+003;1.094398e-001
2.483970e+003;1.092028e-001
2.485898e+003;1.093796e-001
2.487827e+003;1.095362e-001
2.489755e+003;1.096813e-001
2.491684e+003;1.096180e-001
2.493613e+003;1.093737e-001
2.495541e+003;1.093958e-001
2.497470e+003;1.095127e-001
2.499398e+003;1.099081e-001
2.501327e+003;1.103447e-001
2.503255e+003;1.104301e-001
2.505184e+003;1.104058e-001
2.507112e+003;1.107289e-001
2.509041e+003;1.109451e-001
2.510969e+003;1.111649e-001
2.512898e+003;1.114851e-001
2.514827e+003;1.115829e-001
2.516755e+003;1.114730e-001
2.518684e+003;1.114701e-001
2.520612e+003;1.117011e-001
2.522541e+003;1.120207e-001
2.524469e+003;1.121097e-001
2.526398e+003;1.121567e-001
2.528326e+003;1.120704e-001
2.530255e+003;1.120422e-001
2.532184e+003;1.122394e-001
2.534112e+003;1.123203e-001
2.536041e+003;1.122701e-001
2.537969e+003;1.125064e-001
2.539898e+003;1.124843e-001
2.541826e+003;1.125689e-001
2.543755e+003;1.129856e-001
2.545683e+003;1.131711e-001
2.547612e+003;1.129027e-001
2.549541e+003;1.126282e-001
2.551469e+003;1.125902e-001
2.553397e+003;1.127132e-001
2.555326e+003;1.128581e-001
2.557255e+003;1.129354e-001
2.559183e+003;1.130249e-001
2.561112e+003;1.130837e-001
2.563040e+003;1.131141e-001
2.564969e+003;1.135174e-001
2.566897e+003;1.136716e-001
2.568826e+003;1.133977e-001
2.570754e+003;1.131429e-001
2.572683e+003;1.127278e-001
2.574612e+003;1.127661e-001
2.576540e+003;1.133235e-001
2.578469e+003;1.137123e-001
2.580397e+003;1.139538e-001
2.582326e+003;1.142319e-001
2.584254e+003;1.143648e-001
2.586183e+003;1.142343e-001
2.588111e+003;1.142151e-001
2.590040e+003;1.141560e-001
2.591969e+003;1.143661e-001
2.593897e+003;1.147099e-001
2.595826e+003;1.149543e-001
2.597754e+003;1.150335e-001
2.599683e+003;1.149409e-001
2.601611e+003;1.150348e-001
2.603540e+003;1.152517e-001
2.605468e+003;1.154295e-001
2.607397e+003;1.155909e-001
2.609325e+003;1.157052e-001
2.611254e+003;1.158804e-001
2.613183e+003;1.160780e-001
2.615111e+003;1.160017e-001
2.617040e+003;1.160899e-001
2.618968e+003;1.164184e-001
2.620897e+003;1.165034e-001
2.622825e+003;1.166035e-001
2.624754e+003;1.168365e-001
2.626682e+003;1.169454e-001
2.628611e+003;1.171986e-001
2.630540e+003;1.175004e-001
2.632468e+003;1.175722e-001
2.634396e+003;1.178648e-001
2.636325e+003;1.178927e-001
2.638254e+003;1.177176e-001
2.640182e+003;1.179014e-001
2.642111e+003;1.183323e-001
2.644039e+003;1.186226e-001
2.645968e+003;1.184832e-001
2.647896e+003;1.185821e-001
2.649825e+003;1.190831e-001
2.651753e+003;1.193461e-001
2.653682e+003;1.193050e-001
2.655611e+003;1.192737e-001
2.657539e+003;1.193595e-001
2.659468e+003;1.196973e-001
2.661396e+003;1.197679e-001
2.663325e+003;1.198843e-001
2.665253e+003;1.200946e-001
2.667182e+003;1.200163e-001
2.669110e+003;1.201333e-001
2.671039e+003;1.205543e-001
2.672968e+003;1.209309e-001
2.674896e+003;1.211876e-001
2.676825e+003;1.211625e-001
2.678753e+003;1.211316e-001
2.680682e+003;1.217103e-001
2.682610e+003;1.224382e-001
2.684539e+003;1.224172e-001
2.686467e+003;1.221341e-001
2.688396e+003;1.222675e-001
2.690324e+003;1.225432e-001
2.692253e+003;1.226757e-001
2.694182e+003;1.227555e-001
2.696110e+003;1.231014e-001
2.698039e+003;1.235411e-001
2.699967e+003;1.237289e-001
2.701896e+003;1.238184e-001
2.703824e+003;1.240223e-001
2.705753e+003;1.242774e-001
2.707681e+003;1.241338e-001
2.709610e+003;1.241288e-001
2.711539e+003;1.242088e-001
2.713467e+003;1.242870e-001
2.715396e+003;1.245910e-001
2.717324e+003;1.248289e-001
2.719253e+003;1.247874e-001
2.721181e+003;1.249161e-001
2.723110e+003;1.254730e-001
2.725038e+003;1.259118e-001
2.726967e+003;1.258648e-001
2.728896e+003;1.258791e-001
2.730824e+003;1.260505e-001
2.732752e+003;1.265238e-001
2.734681e+003;1.268344e-001
2.736610e+003;1.267807e-001
2.738538e+003;1.269172e-001
2.740467e+003;1.270138e-001
2.742395e+003;1.269105e-001
2.744324e+003;1.267010e-001
2.746252e+003;1.267605e-001
2.748181e+003;1.271358e-001
2.750109e+003;1.272773e-001
2.752038e+003;1.272950e-001
2.753967e+003;1.272622e-001
2.755895e+003;1.275246e-001
2.757824e+003;1.277028e-001
2.759752e+003;1.279617e-001
2.761681e+003;1.284085e-001
2.763609e+003;1.284744e-001
2.765538e+003;1.284214e-001
2.767466e+003;1.285231e-001
2.769395e+003;1.288913e-001
2.771323e+003;1.293660e-001
2.773252e+003;1.295813e-001
2.775181e+003;1.295811e-001
2.777109e+003;1.298014e-001
2.779038e+003;1.301399e-001
2.780966e+003;1.304800e-001
2.782895e+003;1.306826e-001
2.784823e+003;1.306778e-001
2.786752e+003;1.308370e-001
2.788680e+003;1.311967e-001
2.790609e+003;1.315789e-001
2.792538e+003;1.317628e-001
2.794466e+003;1.319057e-001
2.796395e+003;1.324299e-001
2.798323e+003;1.332977e-001
2.800252e+003;1.334866e-001
2.802180e+003;1.334121e-001
2.804109e+003;1.340097e-001
2.806037e+003;1.348180e-001
2.807966e+003;1.354058e-001
2.809895e+003;1.357264e-001
2.811823e+003;1.360833e-001
2.813751e+003;1.365032e-001
2.815680e+003;1.369377e-001
2.817609e+003;1.374498e-001
2.819537e+003;1.378396e-001
2.821466e+003;1.382756e-001
2.823394e+003;1.392369e-001
2.825323e+003;1.400507e-001
2.827251e+003;1.408390e-001
2.829180e+003;1.414872e-001
2.831108e+003;1.419455e-001
2.833037e+003;1.430953e-001
2.834966e+003;1.441991e-001
2.836894e+003;1.451049e-001
2.838823e+003;1.462176e-001
2.840751e+003;1.476774e-001
2.842680e+003;1.496712e-001
2.844608e+003;1.517892e-001
2.846537e+003;1.540592e-001
2.848465e+003;1.559876e-001
2.850394e+003;1.578020e-001
2.852323e+003;1.593701e-001
2.854251e+003;1.604053e-001
2.856180e+003;1.615404e-001
2.858108e+003;1.622050e-001
2.860037e+003;1.623096e-001
2.861965e+003;1.626395e-001
2.863894e+003;1.633788e-001
2.865822e+003;1.640238e-001
2.867751e+003;1.643854e-001
2.869679e+003;1.651704e-001
2.871608e+003;1.662273e-001
2.873536e+003;1.665358e-001
2.875465e+003;1.667241e-001
2.877394e+003;1.673589e-001
2.879322e+003;1.677272e-001
2.881251e+003;1.681424e-001
2.883179e+003;1.684797e-001
2.885108e+003;1.689528e-001
2.887036e+003;1.695979e-001
2.888965e+003;1.700251e-001
2.890893e+003;1.702754e-001
2.892822e+003;1.702399e-001
2.894750e+003;1.698470e-001
2.896679e+003;1.701792e-001
2.898608e+003;1.709202e-001
2.900536e+003;1.709352e-001
2.902465e+003;1.706424e-001
2.904393e+003;1.704794e-001
2.906322e+003;1.706469e-001
2.908250e+003;1.704224e-001
2.910179e+003;1.692038e-001
2.912107e+003;1.685665e-001
2.914036e+003;1.691524e-001
2.915965e+003;1.690302e-001
2.917893e+003;1.682412e-001
2.919822e+003;1.677746e-001
2.921750e+003;1.673998e-001
2.923679e+003;1.666832e-001
2.925607e+003;1.656053e-001
2.927536e+003;1.645499e-001
2.929464e+003;1.635168e-001
2.931393e+003;1.623612e-001
2.933322e+003;1.605981e-001
2.935250e+003;1.589459e-001
2.937178e+003;1.575983e-001
2.939107e+003;1.559851e-001
2.941036e+003;1.544389e-001
2.942964e+003;1.532321e-001
2.944893e+003;1.522279e-001
2.946821e+003;1.508591e-001
2.948750e+003;1.491387e-001
2.950678e+003;1.480667e-001
2.952607e+003;1.472728e-001
2.954535e+003;1.461192e-001
2.956464e+003;1.445879e-001
2.958393e+003;1.433810e-001
2.960321e+003;1.424171e-001
2.962250e+003;1.413289e-001
2.964178e+003;1.399822e-001
2.966107e+003;1.386009e-001
2.968035e+003;1.380059e-001
2.969964e+003;1.372157e-001
2.971892e+003;1.360627e-001
2.973821e+003;1.354332e-001
2.975750e+003;1.341204e-001
2.977678e+003;1.325781e-001
2.979607e+003;1.318316e-001
2.981535e+003;1.312712e-001
2.983464e+003;1.309680e-001
2.985392e+003;1.303430e-001
2.987321e+003;1.297925e-001
2.989249e+003;1.293865e-001
2.991178e+003;1.289135e-001
2.993106e+003;1.284990e-001
2.995035e+003;1.278951e-001
2.996964e+003;1.274775e-001
2.998892e+003;1.277930e-001
3.000821e+003;1.280030e-001
3.002749e+003;1.277419e-001
3.004678e+003;1.278640e-001
3.006606e+003;1.277684e-001
3.008535e+003;1.275700e-001
3.010463e+003;1.277773e-001
3.012392e+003;1.281907e-001
3.014321e+003;1.282766e-001
3.016249e+003;1.282432e-001
3.018177e+003;1.285618e-001
3.020106e+003;1.290758e-001
3.022035e+003;1.289908e-001
3.023963e+003;1.289869e-001
3.025892e+003;1.294536e-001
3.027820e+003;1.298547e-001
3.029749e+003;1.300310e-001
3.031677e+003;1.305725e-001
3.033606e+003;1.310550e-001
3.035534e+003;1.311943e-001
3.037463e+003;1.312830e-001
3.039392e+003;1.315159e-001
3.041320e+003;1.318719e-001
3.043249e+003;1.323406e-001
3.045177e+003;1.328576e-001
3.047106e+003;1.331221e-001
3.049034e+003;1.332570e-001
3.050963e+003;1.331895e-001
3.052891e+003;1.333843e-001
3.054820e+003;1.342908e-001
3.056749e+003;1.347669e-001
3.058677e+003;1.350312e-001
3.060606e+003;1.356032e-001
3.062534e+003;1.360064e-001
3.064463e+003;1.362676e-001
3.066391e+003;1.367512e-001
3.068320e+003;1.373871e-001
3.070248e+003;1.381054e-001
3.072177e+003;1.385537e-001
3.074105e+003;1.385633e-001
3.076034e+003;1.388976e-001
3.077963e+003;1.394757e-001
3.079891e+003;1.398302e-001
3.081820e+003;1.400997e-001
3.083748e+003;1.407375e-001
3.085677e+003;1.414624e-001
3.087605e+003;1.415727e-001
3.089534e+003;1.419003e-001
3.091462e+003;1.426199e-001
3.093391e+003;1.433460e-001
3.095320e+003;1.438715e-001
3.097248e+003;1.443696e-001
3.099177e+003;1.448120e-001
3.101105e+003;1.448294e-001
3.103034e+003;1.451100e-001
3.104962e+003;1.458992e-001
3.106891e+003;1.465405e-001
3.108819e+003;1.471550e-001
3.110748e+003;1.478580e-001
3.112677e+003;1.483899e-001
3.114605e+003;1.488215e-001
3.116533e+003;1.493811e-001
3.118462e+003;1.501576e-001
3.120391e+003;1.505510e-001
3.122319e+003;1.508501e-001
3.124248e+003;1.516022e-001
3.126176e+003;1.523323e-001
3.128105e+003;1.529960e-001
3.130033e+003;1.538587e-001
3.131962e+003;1.544181e-001
3.133890e+003;1.544901e-001
3.135819e+003;1.551218e-001
3.137748e+003;1.558861e-001
3.139676e+003;1.562266e-001
3.141605e+003;1.569905e-001
3.143533e+003;1.579576e-001
3.145462e+003;1.584755e-001
3.147390e+003;1.589745e-001
3.149319e+003;1.596180e-001
3.151247e+003;1.606299e-001
3.153176e+003;1.612785e-001
3.155104e+003;1.613407e-001
3.157033e+003;1.614953e-001
3.158962e+003;1.622667e-001
3.160890e+003;1.633492e-001
3.162819e+003;1.641485e-001
3.164747e+003;1.644076e-001
3.166676e+003;1.647932e-001
3.168604e+003;1.654731e-001
3.170533e+003;1.663478e-001
3.172461e+003;1.672672e-001
3.174390e+003;1.679944e-001
3.176319e+003;1.690043e-001
3.178247e+003;1.697785e-001
3.180176e+003;1.703449e-001
3.182104e+003;1.709818e-001
3.184033e+003;1.710692e-001
3.185961e+003;1.713566e-001
3.187890e+003;1.724778e-001
3.189818e+003;1.736630e-001
3.191747e+003;1.745158e-001
3.193676e+003;1.749029e-001
3.195604e+003;1.756394e-001
3.197532e+003;1.763156e-001
3.199461e+003;1.771672e-001
3.201390e+003;1.780172e-001
3.203318e+003;1.791958e-001
3.205247e+003;1.802403e-001
3.207175e+003;1.806405e-001
3.209104e+003;1.814536e-001
3.211032e+003;1.824317e-001
3.212961e+003;1.825526e-001
3.214889e+003;1.829621e-001
3.216818e+003;1.838852e-001
3.218747e+003;1.847366e-001
3.220675e+003;1.853195e-001
3.222604e+003;1.855348e-001
3.224532e+003;1.859428e-001
3.226461e+003;1.872938e-001
3.228389e+003;1.888752e-001
3.230318e+003;1.897742e-001
3.232246e+003;1.903094e-001
3.234175e+003;1.912960e-001
3.236104e+003;1.921816e-001
3.238032e+003;1.929488e-001
3.239961e+003;1.937077e-001
3.241889e+003;1.949968e-001
3.243818e+003;1.961815e-001
3.245746e+003;1.967780e-001
3.247675e+003;1.976757e-001
3.249603e+003;1.991808e-001
3.251532e+003;2.000537e-001
3.253460e+003;2.007267e-001
3.255389e+003;2.017281e-001
3.257318e+003;2.023807e-001
3.259246e+003;2.033909e-001
3.261175e+003;2.044168e-001
3.263103e+003;2.046293e-001
3.265032e+003;2.053757e-001
3.266960e+003;2.067154e-001
3.268889e+003;2.079031e-001
3.270817e+003;2.082899e-001
3.272746e+003;2.086627e-001
3.274675e+003;2.089017e-001
3.276603e+003;2.087501e-001
3.278531e+003;2.092364e-001
3.280460e+003;2.099217e-001
3.282389e+003;2.106857e-001
3.284317e+003;2.115486e-001
3.286246e+003;2.118635e-001
3.288174e+003;2.121753e-001
3.290103e+003;2.123698e-001
3.292031e+003;2.129566e-001
3.293960e+003;2.131822e-001
3.295888e+003;2.126071e-001
3.297817e+003;2.129546e-001
3.299746e+003;2.135883e-001
3.301674e+003;2.137000e-001
3.303603e+003;2.141495e-001
3.305531e+003;2.150407e-001
3.307460e+003;2.155844e-001
3.309388e+003;2.153474e-001
3.311317e+003;2.152972e-001
3.313245e+003;2.153930e-001
3.315174e+003;2.154803e-001
3.317103e+003;2.155449e-001
3.319031e+003;2.160710e-001
3.320960e+003;2.167469e-001
3.322888e+003;2.172854e-001
3.324817e+003;2.179232e-001
3.326745e+003;2.185564e-001
3.328674e+003;2.187954e-001
3.330602e+003;2.190844e-001
3.332531e+003;2.194133e-001
3.334459e+003;2.190364e-001
3.336388e+003;2.185862e-001
3.338317e+003;2.182382e-001
3.340245e+003;2.180957e-001
3.342174e+003;2.177127e-001
3.344102e+003;2.168315e-001
3.346031e+003;2.162380e-001
3.347959e+003;2.153563e-001
3.349888e+003;2.146026e-001
3.351816e+003;2.146305e-001
3.353745e+003;2.144174e-001
3.355674e+003;2.138980e-001
3.357602e+003;2.131246e-001
3.359531e+003;2.125644e-001
3.361459e+003;2.121084e-001
3.363388e+003;2.110625e-001
3.365316e+003;2.101844e-001
3.367245e+003;2.088948e-001
3.369173e+003;2.082786e-001
3.371102e+003;2.086992e-001
3.373031e+003;2.083290e-001
3.374959e+003;2.076884e-001
3.376887e+003;2.067754e-001
3.378816e+003;2.056304e-001
3.380745e+003;2.054546e-001
3.382673e+003;2.057694e-001
3.384602e+003;2.055311e-001
3.386530e+003;2.046229e-001
3.388459e+003;2.034932e-001
3.390387e+003;2.027584e-001
3.392316e+003;2.030140e-001
3.394244e+003;2.031689e-001
3.396173e+003;2.018841e-001
3.398102e+003;2.009934e-001
3.400030e+003;2.005823e-001
3.401959e+003;1.998131e-001
3.403887e+003;1.992516e-001
3.405816e+003;1.984699e-001
3.407744e+003;1.974179e-001
3.409673e+003;1.969984e-001
3.411601e+003;1.972320e-001
3.413530e+003;1.964239e-001
3.415458e+003;1.947414e-001
3.417387e+003;1.938387e-001
3.419316e+003;1.934366e-001
3.421244e+003;1.922207e-001
3.423173e+003;1.906786e-001
3.425101e+003;1.903513e-001
3.427030e+003;1.900206e-001
3.428958e+003;1.893982e-001
3.430887e+003;1.885833e-001
3.432815e+003;1.873500e-001
3.434744e+003;1.859267e-001
3.436673e+003;1.852534e-001
3.438601e+003;1.847495e-001
3.440530e+003;1.837484e-001
3.442458e+003;1.824083e-001
3.444387e+003;1.809614e-001
3.446315e+003;1.798705e-001
3.448244e+003;1.797062e-001
3.450172e+003;1.794412e-001
3.452101e+003;1.787902e-001
3.454030e+003;1.777922e-001
3.455958e+003;1.767439e-001
3.457886e+003;1.753070e-001
3.459815e+003;1.737090e-001
3.461744e+003;1.727143e-001
3.463672e+003;1.726927e-001
3.465601e+003;1.725048e-001
3.467529e+003;1.717268e-001
3.469458e+003;1.707846e-001
3.471386e+003;1.688863e-001
3.473315e+003;1.675741e-001
3.475243e+003;1.669462e-001
3.477172e+003;1.660413e-001
3.479101e+003;1.652074e-001
3.481029e+003;1.641249e-001
3.482958e+003;1.627482e-001
3.484886e+003;1.617111e-001
3.486815e+003;1.607257e-001
3.488743e+003;1.601954e-001
3.490672e+003;1.598097e-001
3.492600e+003;1.584834e-001
3.494529e+003;1.571223e-001
3.496458e+003;1.561147e-001
3.498386e+003;1.554532e-001
3.500315e+003;1.545241e-001
3.502243e+003;1.535233e-001
3.504172e+003;1.518636e-001
3.506100e+003;1.502314e-001
3.508029e+003;1.499045e-001
3.509957e+003;1.493923e-001
3.511886e+003;1.484226e-001
3.513814e+003;1.480474e-001
3.515743e+003;1.471045e-001
3.517672e+003;1.456583e-001
3.519600e+003;1.447142e-001
3.521529e+003;1.432272e-001
3.523457e+003;1.419469e-001
3.525386e+003;1.411021e-001
3.527314e+003;1.404350e-001
3.529243e+003;1.401324e-001
3.531171e+003;1.395705e-001
3.533100e+003;1.387833e-001
3.535029e+003;1.377251e-001
3.536957e+003;1.365836e-001
3.538885e+003;1.354779e-001
3.540814e+003;1.341868e-001
3.542743e+003;1.330381e-001
3.544671e+003;1.318541e-001
3.546600e+003;1.308491e-001
3.548528e+003;1.304263e-001
3.550457e+003;1.293068e-001
3.552385e+003;1.282309e-001
3.554314e+003;1.279443e-001
3.556242e+003;1.276105e-001
3.558171e+003;1.267332e-001
3.560100e+003;1.259874e-001
3.562028e+003;1.249057e-001
3.563957e+003;1.233159e-001
3.565885e+003;1.217078e-001
3.567814e+003;1.209219e-001
3.569742e+003;1.217199e-001
3.571671e+003;1.218534e-001
3.573599e+003;1.208011e-001
3.575528e+003;1.197487e-001
3.577457e+003;1.187757e-001
3.579385e+003;1.178110e-001
3.581314e+003;1.170776e-001
3.583242e+003;1.162658e-001
3.585171e+003;1.149933e-001
3.587099e+003;1.132484e-001
3.589028e+003;1.130736e-001
3.590956e+003;1.138489e-001
3.592885e+003;1.128274e-001
3.594813e+003;1.115532e-001
3.596742e+003;1.110286e-001
3.598671e+003;1.102516e-001
3.600599e+003;1.100674e-001
3.602528e+003;1.105331e-001
3.604456e+003;1.100381e-001
3.606385e+003;1.082249e-001
3.608313e+003;1.063455e-001
3.610242e+003;1.062999e-001
3.612170e+003;1.063818e-001
3.614099e+003;1.062327e-001
3.616028e+003;1.052549e-001
3.617956e+003;1.034057e-001
3.619885e+003;1.029973e-001
3.621813e+003;1.036134e-001
3.623742e+003;1.033978e-001
3.625670e+003;1.016946e-001
3.627599e+003;9.807619e-002
3.629527e+003;9.818850e-002
3.631456e+003;1.009868e-001
3.633385e+003;1.010145e-001
3.635313e+003;1.004140e-001
3.637241e+003;9.989607e-002
3.639170e+003;9.906866e-002
3.641099e+003;9.846845e-002
3.643027e+003;9.820815e-002
3.644956e+003;9.649549e-002
3.646884e+003;9.295440e-002
3.648813e+003;9.049430e-002
3.650741e+003;9.174494e-002
3.652670e+003;9.434149e-002
3.654598e+003;9.358810e-002
3.656527e+003;9.291853e-002
3.658456e+003;9.372121e-002
3.660384e+003;9.373687e-002
3.662313e+003;9.365218e-002
3.664241e+003;9.332611e-002
3.666170e+003;9.199286e-002
3.668098e+003;8.927852e-002
3.670027e+003;8.731210e-002
3.671955e+003;8.838152e-002
3.673884e+003;8.723724e-002
3.675813e+003;8.661322e-002
3.677741e+003;8.894254e-002
3.679669e+003;9.003539e-002
3.681598e+003;9.091559e-002
3.683527e+003;9.051386e-002
3.685455e+003;8.831594e-002
3.687384e+003;8.496188e-002
3.689312e+003;8.541009e-002
3.691241e+003;8.790942e-002
3.693169e+003;8.894884e-002
3.695098e+003;8.880674e-002
3.697026e+003;8.845451e-002
3.698955e+003;8.740051e-002
3.700884e+003;8.577451e-002
3.702812e+003;8.678257e-002
3.704741e+003;8.825365e-002
3.706669e+003;8.774276e-002
3.708598e+003;8.638152e-002
3.710526e+003;8.513557e-002
3.712455e+003;8.528555e-002
3.714383e+003;8.662236e-002
3.716312e+003;8.729164e-002
3.718240e+003;8.748237e-002
3.720169e+003;8.689053e-002
3.722098e+003;8.636758e-002
3.724026e+003;8.646178e-002
3.725955e+003;8.646101e-002
3.727883e+003;8.643545e-002
3.729812e+003;8.531205e-002
3.731740e+003;8.331028e-002
3.733669e+003;8.261428e-002
3.735597e+003;8.244199e-002
3.737526e+003;8.462523e-002
3.739455e+003;8.613350e-002
3.741383e+003;8.357421e-002
3.743312e+003;7.860838e-002
3.745240e+003;8.013061e-002
3.747169e+003;8.214476e-002
3.749097e+003;8.014213e-002
3.751026e+003;8.041190e-002
3.752954e+003;8.308643e-002
3.754883e+003;8.543066e-002
3.756812e+003;8.515908e-002
3.758740e+003;8.445995e-002
3.760668e+003;8.484826e-002
3.762597e+003;8.582170e-002
3.764526e+003;8.557352e-002
3.766454e+003;8.585732e-002
3.768383e+003;8.553495e-002
3.770311e+003;8.574597e-002
3.772240e+003;8.685897e-002
3.774168e+003;8.763000e-002
3.776097e+003;8.746644e-002
3.778025e+003;8.635011e-002
3.779954e+003;8.602426e-002
3.781883e+003;8.675695e-002
3.783811e+003;8.719657e-002
3.785740e+003;8.726089e-002
3.787668e+003;8.720237e-002
3.789597e+003;8.764516e-002
3.791525e+003;8.786354e-002
3.793454e+003;8.717693e-002
3.795382e+003;8.602608e-002
3.797311e+003;8.613819e-002
3.799240e+003;8.448599e-002
3.801168e+003;8.328379e-002
3.803097e+003;8.594930e-002
3.805025e+003;8.599426e-002
3.806954e+003;8.495639e-002
3.808882e+003;8.676950e-002
3.810811e+003;8.801930e-002
3.812739e+003;8.744950e-002
3.814668e+003;8.472147e-002
3.816596e+003;8.454713e-002
3.818525e+003;8.489089e-002
3.820454e+003;8.307263e-002
3.822382e+003;8.470492e-002
3.824311e+003;8.666115e-002
3.826239e+003;8.700399e-002
3.828168e+003;8.750271e-002
3.830096e+003;8.707533e-002
3.832025e+003;8.624519e-002
3.833953e+003;8.533802e-002
3.835882e+003;8.353601e-002
3.837811e+003;8.305330e-002
3.839739e+003;8.509043e-002
3.841667e+003;8.613609e-002
3.843596e+003;8.655550e-002
3.845525e+003;8.778226e-002
3.847453e+003;8.788102e-002
3.849382e+003;8.609326e-002
3.851310e+003;8.168958e-002
3.853239e+003;7.884233e-002
3.855167e+003;8.337463e-002
3.857096e+003;8.759233e-002
3.859024e+003;8.832877e-002
3.860953e+003;8.830246e-002
3.862882e+003;8.733224e-002
3.864810e+003;8.638734e-002
3.866739e+003;8.632848e-002
3.868667e+003;8.560334e-002
3.870596e+003;8.659526e-002
3.872524e+003;8.803585e-002
3.874453e+003;8.829503e-002
3.876381e+003;8.902676e-002
3.878310e+003;8.815156e-002
3.880239e+003;8.776750e-002
3.882167e+003;8.826178e-002
3.884096e+003;8.731458e-002
3.886024e+003;8.763381e-002
3.887953e+003;8.980324e-002
3.889881e+003;8.938149e-002
3.891810e+003;8.910950e-002
3.893738e+003;9.064128e-002
3.895667e+003;9.087637e-002
3.897595e+003;8.921056e-002
3.899524e+003;8.817770e-002
3.901453e+003;8.774896e-002
3.903381e+003;8.786038e-002
3.905310e+003;8.964852e-002
3.907238e+003;9.051292e-002
3.909167e+003;9.009601e-002
3.911095e+003;8.997192e-002
3.913024e+003;9.049390e-002
3.914952e+003;9.048618e-002
3.916881e+003;8.997387e-002
3.918810e+003;9.044884e-002
3.920738e+003;9.169202e-002
3.922667e+003;9.204262e-002
3.924595e+003;9.173908e-002
3.926524e+003;9.242680e-002
3.928452e+003;9.327198e-002
3.930381e+003;9.267028e-002
3.932309e+003;9.174374e-002
3.934238e+003;9.174706e-002
3.936167e+003;9.208608e-002
3.938095e+003;9.240622e-002
3.940023e+003;9.183949e-002
3.941952e+003;9.137318e-002
3.943881e+003;9.208363e-002
3.945809e+003;9.253155e-002
3.947738e+003;9.250727e-002
3.949666e+003;9.270822e-002
3.951595e+003;9.314734e-002
3.953523e+003;9.341062e-002
3.955452e+003;9.276938e-002
3.957380e+003;9.205201e-002
3.959309e+003;9.227823e-002
3.961238e+003;9.290413e-002
3.963166e+003;9.328245e-002
3.965095e+003;9.342356e-002
3.967023e+003;9.343030e-002
3.968952e+003;9.312829e-002
3.970880e+003;9.275724e-002
3.972809e+003;9.299947e-002
3.974737e+003;9.341477e-002
3.976666e+003;9.404428e-002
3.978594e+003;9.322881e-002
3.980523e+003;9.244750e-002
3.982452e+003;9.251855e-002
3.984380e+003;9.220705e-002
3.986309e+003;9.323867e-002
3.988237e+003;9.395295e-002
3.990166e+003;9.330261e-002
3.992094e+003;9.370345e-002
3.994023e+003;9.439918e-002
3.995951e+003;9.389779e-002
3.997880e+003;9.326631e-002
3.999809e+003;9.315510e-002
4.001737e+003;0.000000e+000
