3.992094e+002;0.000000e+000
4.011380e+002;0.000000e+000
4.030665e+002;0.000000e+000
4.049951e+002;0.000000e+000
4.069236e+002;0.000000e+000
4.088522e+002;0.000000e+000
4.107807e+002;0.000000e+000
4.127093e+002;0.000000e+000
4.146378e+002;0.000000e+000
4.165664e+002;0.000000e+000
4.184949e+002;0.000000e+000
4.204235e+002;0.000000e+000
4.223520e+002;0.000000e+000
4.242806e+002;0.000000e+000
4.262091e+002;0.000000e+000
4.281377e+002;0.000000e+000
4.300662e+002;0.000000e+000
4.319948e+002;0.000000e+000
4.339233e+002;0.000000e+000
4.358519e+002;0.000000e+000
4.377804e+002;0.000000e+000
4.397090e+002;0.000000e+000
4.416375e+002;0.000000e+000
4.435660e+002;0.000000e+000
4.454946e+002;0.000000e+000
4.474232e+002;0.000000e+000
4.493517e+002;0.000000e+000
4.512802e+002;0.000000e+000
4.532088e+002;0.000000e+000
4.551373e+002;0.000000e+000
4.570659e+002;0.000000e+000
4.589944e+002;0.000000e+000
4.609230e+002;0.000000e+000
4.628515e+002;0.000000e+000
4.647801e+002;0.000000e+000
4.667086e+002;0.000000e+000
4.686372e+002;0.000000e+000
4.705657e+002;0.000000e+000
4.724943e+002;0.000000e+000
4.744228e+002;0.000000e+000
4.763513e+002;0.000000e+000
4.782799e+002;0.000000e+000
4.802085e+002;0.000000e+000
4.821370e+002;0.000000e+000
4.840656e+002;0.000000e+000
4.859941e+002;0.000000e+000
4.879226e+002;0.000000e+000
4.898512e+002;0.000000e+000
4.917798e+002;0.000000e+000
4.937083e+002;0.000000e+000
4.956368e+002;0.000000e+000
4.975654e+002;0.000000e+000
4.994939e+002;0.000000e+000
5.014225e+002;0.000000e+000
5.033510e+002;0.000000e+000
5.052796e+002;0.000000e+000
5.072081e+002;0.000000e+000
5.091367e+002;0.000000e+000
5.110652e+002;0.000000e+000
5.129938e+002;0.000000e+000
5.149223e+002;0.000000e+000
5.168509e+002;0.000000e+000
5.187794e+002;0.000000e+000
5.207079e+002;0.000000e+000
5.226365e+002;0.000000e+000
5.245651e+002;0.000000e+000
5.264936e+002;0.000000e+000
5.284222e+002;0.000000e+000
5.303507e+002;0.000000e+000
5.322792e+002;0.000000e+000
5.342078e+002;0.000000e+000
5.361364e+002;0.000000e+000
5.380649e+002;0.000000e+000
5.399935e+002;0.000000e+000
5.419220e+002;0.000000e+000
5.438505e+002;0.000000e+000
5.457791e+002;0.000000e+000
5.477076e+002;0.000000e+000
5.496362e+002;0.000000e+000
5.515648e+002;0.000000e+000
5.534933e+002;0.000000e+000
5.554218e+002;0.000000e+000
5.573504e+002;0.000000e+000
5.592789e+002;0.000000e+000
5.612075e+002;0.000000e+000
5.631360e+002;0.000000e+000
5.650646e+002;0.000000e+000
5.669931e+002;0.000000e+000
5.689217e+002;0.000000e+000
5.708502e+002;0.000000e+000
5.727787e+002;0.000000e+000
5.747073e+002;0.000000e+000
5.766359e+002;0.000000e+000
5.785644e+002;0.000000e+000
5.804930e+002;0.000000e+000
5.824215e+002;0.000000e+000
5.843500e+002;0.000000e+000
5.862786e+002;0.000000e+000
5.882072e+002;0.000000e+000
5.901357e+002;0.000000e+000
5.920643e+002;0.000000e+000
5.939928e+002;0.000000e+000
5.959213e+002;0.000000e+000
5.978499e+002;0.000000e+000
5.997784e+002;2.407383e-001
6.017070e+002;2.464749e-001
6.036355e+002;2.581693e-001
6.055641e+002;2.613612e-001
6.074926e+002;2.633240e-001
6.094211e+002;2.614282e-001
6.113497e+002;2.598343e-001
6.132783e+002;2.603736e-001
6.152068e+002;2.601750e-001
6.171354e+002;2.619330e-001
6.190639e+002;2.562482e-001
6.209924e+002;2.434936e-001
6.229210e+002;2.383062e-001
6.248495e+002;2.363013e-001
6.267781e+002;2.338981e-001
6.287067e+002;2.349879e-001
6.306352e+002;2.345875e-001
6.325637e+002;2.277772e-001
6.344923e+002;2.202098e-001
6.364208e+002;2.181324e-001
6.383494e+002;2.227775e-001
6.402780e+002;2.214939e-001
6.422065e+002;2.138376e-001
6.441350e+002;2.127225e-001
6.460636e+002;2.163502e-001
6.479921e+002;2.164809e-001
6.499207e+002;2.140922e-001
6.518492e+002;2.122800e-001
6.537778e+002;2.174282e-001
6.557063e+002;2.261965e-001
6.576349e+002;2.300084e-001
6.595634e+002;2.333813e-001
6.614919e+002;2.382288e-001
6.634205e+002;2.415466e-001
6.653491e+002;2.393219e-001
6.672776e+002;2.356904e-001
6.692062e+002;2.334913e-001
6.711347e+002;2.284956e-001
6.730632e+002;2.213273e-001
6.749918e+002;2.129903e-001
6.769203e+002;2.069061e-001
6.788489e+002;2.034938e-001
6.807775e+002;2.008835e-001
6.827060e+002;1.970096e-001
6.846345e+002;1.942444e-001
6.865631e+002;1.941364e-001
6.884916e+002;1.953073e-001
6.904202e+002;1.962758e-001
6.923488e+002;1.982763e-001
6.942773e+002;2.011130e-001
6.962058e+002;2.038112e-001
6.981344e+002;2.064008e-001
7.000629e+002;2.082745e-001
7.019915e+002;2.080275e-001
7.039200e+002;2.034629e-001
7.058486e+002;1.953590e-001
7.077771e+002;1.895409e-001
7.097057e+002;1.860623e-001
7.116342e+002;1.830706e-001
7.135627e+002;1.803631e-001
7.154913e+002;1.761024e-001
7.174199e+002;1.712173e-001
7.193484e+002;1.678484e-001
7.212770e+002;1.645468e-001
7.232055e+002;1.601704e-001
7.251340e+002;1.566814e-001
7.270626e+002;1.540421e-001
7.289911e+002;1.507025e-001
7.309197e+002;1.486948e-001
7.328483e+002;1.476493e-001
7.347768e+002;1.452881e-001
7.367053e+002;1.420829e-001
7.386339e+002;1.388701e-001
7.405624e+002;1.373324e-001
7.424910e+002;1.376907e-001
7.444196e+002;1.376085e-001
7.463481e+002;1.358601e-001
7.482766e+002;1.337349e-001
7.502052e+002;1.324073e-001
7.521337e+002;1.317247e-001
7.540623e+002;1.316284e-001
7.559908e+002;1.315271e-001
7.579194e+002;1.317520e-001
7.598479e+002;1.322100e-001
7.617765e+002;1.323943e-001
7.637050e+002;1.305149e-001
7.656335e+002;1.285322e-001
7.675621e+002;1.273043e-001
7.694907e+002;1.252905e-001
7.714192e+002;1.230473e-001
7.733478e+002;1.217285e-001
7.752763e+002;1.213105e-001
7.772048e+002;1.208498e-001
7.791334e+002;1.199976e-001
7.810620e+002;1.191732e-001
7.829905e+002;1.186171e-001
7.849191e+002;1.184784e-001
7.868476e+002;1.187847e-001
7.887761e+002;1.193686e-001
7.907047e+002;1.201528e-001
7.926332e+002;1.205476e-001
7.945618e+002;1.205593e-001
7.964903e+002;1.201847e-001
7.984189e+002;1.198362e-001
8.003474e+002;1.204999e-001
8.022759e+002;1.209037e-001
8.042045e+002;1.208156e-001
8.061331e+002;1.213441e-001
8.080616e+002;1.212524e-001
8.099902e+002;1.202717e-001
8.119187e+002;1.203325e-001
8.138472e+002;1.210688e-001
8.157758e+002;1.210826e-001
8.177043e+002;1.200150e-001
8.196329e+002;1.189153e-001
8.215615e+002;1.177372e-001
8.234900e+002;1.174176e-001
8.254185e+002;1.173155e-001
8.273471e+002;1.162977e-001
8.292756e+002;1.148972e-001
8.312042e+002;1.144382e-001
8.331328e+002;1.138155e-001
8.350613e+002;1.131616e-001
8.369898e+002;1.129616e-001
8.389184e+002;1.134878e-001
8.408469e+002;1.138671e-001
8.427755e+002;1.131951e-001
8.447040e+002;1.121903e-001
8.466326e+002;1.117692e-001
8.485611e+002;1.118247e-001
8.504897e+002;1.120891e-001
8.524182e+002;1.125190e-001
8.543467e+002;1.129920e-001
8.562753e+002;1.135561e-001
8.582039e+002;1.139627e-001
8.601324e+002;1.143022e-001
8.620610e+002;1.152803e-001
8.639895e+002;1.162627e-001
8.659180e+002;1.167243e-001
8.678466e+002;1.177194e-001
8.697751e+002;1.194219e-001
8.717037e+002;1.210061e-001
8.736323e+002;1.226568e-001
8.755608e+002;1.242347e-001
8.774893e+002;1.259115e-001
8.794179e+002;1.278008e-001
8.813464e+002;1.298694e-001
8.832750e+002;1.322255e-001
8.852036e+002;1.349665e-001
8.871321e+002;1.375400e-001
8.890606e+002;1.404456e-001
8.909892e+002;1.430631e-001
8.929177e+002;1.445249e-001
8.948463e+002;1.459773e-001
8.967748e+002;1.474775e-001
8.987034e+002;1.478717e-001
9.006319e+002;1.473845e-001
9.025605e+002;1.466779e-001
9.044890e+002;1.457135e-001
9.064175e+002;1.442637e-001
9.083461e+002;1.430589e-001
9.102747e+002;1.418941e-001
9.122032e+002;1.401872e-001
9.141318e+002;1.387792e-001
9.160603e+002;1.382935e-001
9.179888e+002;1.384649e-001
9.199174e+002;1.386581e-001
9.218459e+002;1.390524e-001
9.237745e+002;1.404006e-001
9.257031e+002;1.422635e-001
9.276316e+002;1.442023e-001
9.295601e+002;1.463495e-001
9.314887e+002;1.484464e-001
9.334172e+002;1.504726e-001
9.353458e+002;1.523245e-001
9.372744e+002;1.539660e-001
9.392029e+002;1.560150e-001
9.411314e+002;1.584187e-001
9.430600e+002;1.606092e-001
9.449885e+002;1.631155e-001
9.469171e+002;1.660714e-001
9.488456e+002;1.692917e-001
9.507742e+002;1.726072e-001
9.527027e+002;1.759450e-001
9.546313e+002;1.802640e-001
9.565598e+002;1.852237e-001
9.584883e+002;1.902104e-001
9.604169e+002;1.955744e-001
9.623455e+002;2.010788e-001
9.642740e+002;2.066135e-001
9.662026e+002;2.123788e-001
9.681311e+002;2.186222e-001
9.700596e+002;2.261045e-001
9.719882e+002;2.350411e-001
9.739167e+002;2.456693e-001
9.758453e+002;2.580920e-001
9.777739e+002;2.724885e-001
9.797024e+002;2.878321e-001
9.816309e+002;3.013921e-001
9.835595e+002;3.102939e-001
9.854880e+002;3.135182e-001
9.874166e+002;3.143656e-001
9.893452e+002;3.160749e-001
9.912737e+002;3.194625e-001
9.932022e+002;3.254348e-001
9.951307e+002;3.332646e-001
9.970593e+002;3.409150e-001
9.989879e+002;3.475827e-001
1.000916e+003;3.524770e-001
1.002845e+003;3.544894e-001
1.004773e+003;3.553962e-001
1.006702e+003;3.561686e-001
1.008631e+003;3.572567e-001
1.010559e+003;3.594756e-001
1.012488e+003;3.629443e-001
1.014416e+003;3.671343e-001
1.016345e+003;3.718488e-001
1.018273e+003;3.764786e-001
1.020202e+003;3.814045e-001
1.022130e+003;3.870982e-001
1.024059e+003;3.925205e-001
1.025988e+003;3.984881e-001
1.027916e+003;4.044546e-001
1.029845e+003;4.077965e-001
1.031773e+003;4.084664e-001
1.033702e+003;4.053845e-001
1.035630e+003;3.983911e-001
1.037559e+003;3.898279e-001
1.039487e+003;3.810990e-001
1.041416e+003;3.746187e-001
1.043344e+003;3.717003e-001
1.045273e+003;3.732200e-001
1.047202e+003;3.783304e-001
1.049130e+003;3.843807e-001
1.051059e+003;3.903076e-001
1.052987e+003;3.954004e-001
1.054916e+003;3.974767e-001
1.056844e+003;3.952413e-001
1.058773e+003;3.883601e-001
1.060701e+003;3.760957e-001
1.062630e+003;3.590833e-001
1.064558e+003;3.402521e-001
1.066487e+003;3.221220e-001
1.068416e+003;3.066494e-001
1.070344e+003;2.953695e-001
1.072273e+003;2.870888e-001
1.074201e+003;2.797622e-001
1.076130e+003;2.734846e-001
1.078058e+003;2.670952e-001
1.079987e+003;2.605397e-001
1.081915e+003;2.560366e-001
1.083844e+003;2.544134e-001
1.085773e+003;2.539937e-001
1.087701e+003;2.542575e-001
1.089630e+003;2.547316e-001
1.091558e+003;2.551681e-001
1.093487e+003;2.566526e-001
1.095415e+003;2.595183e-001
1.097344e+003;2.639950e-001
1.099272e+003;2.673631e-001
1.101201e+003;2.689976e-001
1.103129e+003;2.704134e-001
1.105058e+003;2.701510e-001
1.106987e+003;2.686651e-001
1.108915e+003;2.656811e-001
1.110844e+003;2.608286e-001
1.112772e+003;2.541004e-001
1.114701e+003;2.443960e-001
1.116629e+003;2.324227e-001
1.118558e+003;2.203293e-001
1.120486e+003;2.105540e-001
1.122415e+003;2.031342e-001
1.124344e+003;1.956632e-001
1.126272e+003;1.879816e-001
1.128201e+003;1.802927e-001
1.130129e+003;1.733048e-001
1.132058e+003;1.680383e-001
1.133986e+003;1.645004e-001
1.135915e+003;1.618703e-001
1.137843e+003;1.604856e-001
1.139772e+003;1.608933e-001
1.141700e+003;1.635835e-001
1.143629e+003;1.683038e-001
1.145557e+003;1.730449e-001
1.147486e+003;1.776384e-001
1.149415e+003;1.823067e-001
1.151343e+003;1.866154e-001
1.153272e+003;1.907833e-001
1.155200e+003;1.947885e-001
1.157129e+003;1.982500e-001
1.159057e+003;2.011352e-001
1.160986e+003;2.027409e-001
1.162914e+003;2.013942e-001
1.164843e+003;1.963559e-001
1.166771e+003;1.885919e-001
1.168700e+003;1.791477e-001
1.170629e+003;1.695661e-001
1.172557e+003;1.607178e-001
1.174486e+003;1.527892e-001
1.176414e+003;1.465848e-001
1.178343e+003;1.417768e-001
1.180271e+003;1.374462e-001
1.182200e+003;1.337220e-001
1.184128e+003;1.310759e-001
1.186057e+003;1.295343e-001
1.187986e+003;1.286613e-001
1.189914e+003;1.286811e-001
1.191843e+003;1.297900e-001
1.193771e+003;1.315886e-001
1.195700e+003;1.337494e-001
1.197628e+003;1.355649e-001
1.199557e+003;1.367563e-001
1.201485e+003;1.375037e-001
1.203414e+003;1.378355e-001
1.205343e+003;1.373485e-001
1.207271e+003;1.356512e-001
1.209200e+003;1.322436e-001
1.211128e+003;1.283125e-001
1.213057e+003;1.255975e-001
1.214985e+003;1.245655e-001
1.216914e+003;1.246565e-001
1.218842e+003;1.255080e-001
1.220771e+003;1.267396e-001
1.222699e+003;1.282884e-001
1.224628e+003;1.300084e-001
1.226557e+003;1.320369e-001
1.228485e+003;1.342291e-001
1.230414e+003;1.361036e-001
1.232342e+003;1.377826e-001
1.234271e+003;1.393249e-001
1.236199e+003;1.404503e-001
1.238128e+003;1.412861e-001
1.240056e+003;1.419038e-001
1.241985e+003;1.429901e-001
1.243913e+003;1.442901e-001
1.245842e+003;1.456304e-001
1.247771e+003;1.471818e-001
1.249699e+003;1.476576e-001
1.251628e+003;1.479071e-001
1.253556e+003;1.486490e-001
1.255485e+003;1.494180e-001
1.257413e+003;1.499203e-001
1.259342e+003;1.505761e-001
1.261270e+003;1.509109e-001
1.263199e+003;1.503011e-001
1.265127e+003;1.489810e-001
1.267056e+003;1.471576e-001
1.268985e+003;1.457392e-001
1.270913e+003;1.448284e-001
1.272842e+003;1.445023e-001
1.274770e+003;1.441623e-001
1.276699e+003;1.432835e-001
1.278627e+003;1.421075e-001
1.280556e+003;1.408547e-001
1.282484e+003;1.392379e-001
1.284413e+003;1.375434e-001
1.286342e+003;1.363088e-001
1.288270e+003;1.355483e-001
1.290199e+003;1.354121e-001
1.292127e+003;1.354208e-001
1.294056e+003;1.356246e-001
1.295984e+003;1.364087e-001
1.297913e+003;1.378948e-001
1.299841e+003;1.400437e-001
1.301770e+003;1.430413e-001
1.303698e+003;1.466171e-001
1.305627e+003;1.503996e-001
1.307556e+003;1.546229e-001
1.309484e+003;1.588040e-001
1.311413e+003;1.620978e-001
1.313341e+003;1.639793e-001
1.315270e+003;1.639070e-001
1.317198e+003;1.618326e-001
1.319127e+003;1.585067e-001
1.321055e+003;1.549282e-001
1.322984e+003;1.519059e-001
1.324912e+003;1.497678e-001
1.326841e+003;1.486787e-001
1.328770e+003;1.487640e-001
1.330698e+003;1.500110e-001
1.332627e+003;1.516365e-001
1.334555e+003;1.523096e-001
1.336484e+003;1.514496e-001
1.338412e+003;1.495334e-001
1.340341e+003;1.475735e-001
1.342269e+003;1.453971e-001
1.344198e+003;1.422738e-001
1.346126e+003;1.391107e-001
1.348055e+003;1.369614e-001
1.349984e+003;1.361376e-001
1.351912e+003;1.362266e-001
1.353841e+003;1.369631e-001
1.355769e+003;1.381676e-001
1.357698e+003;1.391524e-001
1.359626e+003;1.395479e-001
1.361555e+003;1.388295e-001
1.363483e+003;1.374577e-001
1.365412e+003;1.366513e-001
1.367341e+003;1.358710e-001
1.369269e+003;1.352815e-001
1.371198e+003;1.342101e-001
1.373126e+003;1.316353e-001
1.375055e+003;1.289151e-001
1.376983e+003;1.265711e-001
1.378912e+003;1.238691e-001
1.380840e+003;1.211632e-001
1.382769e+003;1.185447e-001
1.384698e+003;1.157932e-001
1.386626e+003;1.131040e-001
1.388555e+003;1.125200e-001
1.390483e+003;1.130819e-001
1.392412e+003;1.126740e-001
1.394340e+003;1.120017e-001
1.396269e+003;1.124414e-001
1.398197e+003;1.127797e-001
1.400126e+003;1.129620e-001
1.402054e+003;1.129055e-001
1.403983e+003;1.122882e-001
1.405911e+003;1.123649e-001
1.407840e+003;1.126753e-001
1.409769e+003;1.125766e-001
1.411697e+003;1.127966e-001
1.413626e+003;1.133450e-001
1.415554e+003;1.139090e-001
1.417483e+003;1.137538e-001
1.419411e+003;1.147821e-001
1.421340e+003;1.181404e-001
1.423268e+003;1.205091e-001
1.425197e+003;1.222845e-001
1.427125e+003;1.234050e-001
1.429054e+003;1.234266e-001
1.430983e+003;1.237352e-001
1.432911e+003;1.238257e-001
1.434840e+003;1.215517e-001
1.436768e+003;1.190706e-001
1.438697e+003;1.202917e-001
1.440625e+003;1.217725e-001
1.442554e+003;1.227481e-001
1.444482e+003;1.237496e-001
1.446411e+003;1.246440e-001
1.448340e+003;1.258407e-001
1.450268e+003;1.275337e-001
1.452197e+003;1.283858e-001
1.454125e+003;1.265139e-001
1.456054e+003;1.205393e-001
1.457982e+003;1.176885e-001
1.459911e+003;1.186106e-001
1.461839e+003;1.176468e-001
1.463768e+003;1.138373e-001
1.465697e+003;1.110097e-001
1.467625e+003;1.095064e-001
1.469554e+003;1.065295e-001
1.471482e+003;1.026218e-001
1.473411e+003;1.000842e-001
1.475339e+003;9.778265e-002
1.477268e+003;9.530845e-002
1.479196e+003;9.346029e-002
1.481125e+003;9.151380e-002
1.483053e+003;8.963256e-002
1.484982e+003;8.722590e-002
1.486911e+003;8.451871e-002
1.488839e+003;8.245464e-002
1.490768e+003;8.266822e-002
1.492696e+003;8.449287e-002
1.494625e+003;8.381169e-002
1.496553e+003;8.117236e-002
1.498482e+003;8.009175e-002
1.500410e+003;7.969648e-002
1.502339e+003;7.880796e-002
1.504267e+003;7.511494e-002
1.506196e+003;7.129049e-002
1.508125e+003;7.334139e-002
1.510053e+003;7.640827e-002
1.511982e+003;7.722607e-002
1.513910e+003;7.754046e-002
1.515839e+003;7.669595e-002
1.517767e+003;7.617825e-002
1.519696e+003;7.502238e-002
1.521624e+003;7.483505e-002
1.523553e+003;7.739480e-002
1.525481e+003;7.859817e-002
1.527410e+003;8.022908e-002
1.529339e+003;8.228201e-002
1.531267e+003;8.288340e-002
1.533196e+003;8.251578e-002
1.535124e+003;8.425891e-002
1.537053e+003;8.371489e-002
1.538981e+003;7.977431e-002
1.540910e+003;8.059791e-002
1.542838e+003;8.463752e-002
1.544767e+003;8.747333e-002
1.546695e+003;8.967146e-002
1.548624e+003;9.054850e-002
1.550553e+003;9.127174e-002
1.552481e+003;9.138226e-002
1.554410e+003;9.047978e-002
1.556338e+003;8.837300e-002
1.558267e+003;8.394779e-002
1.560195e+003;8.512784e-002
1.562124e+003;9.011497e-002
1.564052e+003;9.156939e-002
1.565981e+003;9.161468e-002
1.567910e+003;9.064676e-002
1.569838e+003;8.965247e-002
1.571767e+003;9.047884e-002
1.573695e+003;8.944675e-002
1.575624e+003;8.655393e-002
1.577552e+003;8.780242e-002
1.579481e+003;9.020224e-002
1.581409e+003;9.053091e-002
1.583338e+003;9.058785e-002
1.585266e+003;9.033330e-002
1.587195e+003;8.990344e-002
1.589124e+003;8.937144e-002
1.591052e+003;8.910059e-002
1.592981e+003;8.899211e-002
1.594909e+003;8.902546e-002
1.596838e+003;8.946641e-002
1.598766e+003;9.007347e-002
1.600695e+003;9.014384e-002
1.602623e+003;9.002002e-002
1.604552e+003;8.995985e-002
1.606480e+003;8.951205e-002
1.608409e+003;8.874825e-002
1.610338e+003;8.842080e-002
1.612266e+003;8.835573e-002
1.614195e+003;8.712275e-002
1.616123e+003;8.436461e-002
1.618052e+003;8.536056e-002
1.619980e+003;8.760384e-002
1.621909e+003;8.732101e-002
1.623837e+003;8.714113e-002
1.625766e+003;8.786581e-002
1.627694e+003;8.823457e-002
1.629623e+003;8.884922e-002
1.631552e+003;8.911280e-002
1.633480e+003;8.707962e-002
1.635409e+003;8.486744e-002
1.637337e+003;8.699270e-002
1.639266e+003;8.933786e-002
1.641194e+003;9.012231e-002
1.643123e+003;8.992068e-002
1.645051e+003;8.784545e-002
1.646980e+003;8.725721e-002
1.648909e+003;8.922081e-002
1.650837e+003;8.652215e-002
1.652766e+003;8.186486e-002
1.654694e+003;8.621734e-002
1.656623e+003;9.140741e-002
1.658551e+003;9.265153e-002
1.660480e+003;9.215543e-002
1.662408e+003;9.111739e-002
1.664337e+003;9.171825e-002
1.666266e+003;9.163502e-002
1.668194e+003;8.948734e-002
1.670123e+003;8.886024e-002
1.672051e+003;8.940546e-002
1.673980e+003;8.797941e-002
1.675908e+003;8.727042e-002
1.677837e+003;8.844931e-002
1.679765e+003;8.830465e-002
1.681694e+003;8.623242e-002
1.683622e+003;8.192555e-002
1.685551e+003;8.275236e-002
1.687479e+003;8.627073e-002
1.689408e+003;8.693469e-002
1.691337e+003;8.706788e-002
1.693265e+003;8.565350e-002
1.695194e+003;8.211461e-002
1.697122e+003;8.237360e-002
1.699051e+003;8.166447e-002
1.700979e+003;8.222952e-002
1.702908e+003;8.621956e-002
1.704836e+003;8.724011e-002
1.706765e+003;8.866102e-002
1.708693e+003;9.060136e-002
1.710622e+003;9.263775e-002
1.712551e+003;9.416407e-002
1.714479e+003;9.593969e-002
1.716408e+003;9.848366e-002
1.718336e+003;1.056142e-001
1.720265e+003;1.167182e-001
1.722193e+003;1.267301e-001
1.724122e+003;1.356526e-001
1.726050e+003;1.437125e-001
1.727979e+003;1.494266e-001
1.729908e+003;1.519029e-001
1.731836e+003;1.491129e-001
1.733765e+003;1.424434e-001
1.735693e+003;1.372556e-001
1.737622e+003;1.288516e-001
1.739550e+003;1.164278e-001
1.741479e+003;1.051460e-001
1.743407e+003;9.490783e-002
1.745336e+003;8.607630e-002
1.747265e+003;7.869845e-002
1.749193e+003;7.266936e-002
1.751122e+003;6.862892e-002
1.753050e+003;6.743726e-002
1.754979e+003;6.589352e-002
1.756907e+003;6.433626e-002
1.758836e+003;6.374043e-002
1.760764e+003;6.217793e-002
1.762693e+003;6.143583e-002
1.764621e+003;6.175916e-002
1.766550e+003;6.078451e-002
1.768479e+003;5.975378e-002
1.770407e+003;5.835756e-002
1.772336e+003;5.716166e-002
1.774264e+003;5.853489e-002
1.776193e+003;5.968759e-002
1.778121e+003;5.969086e-002
1.780050e+003;5.925648e-002
1.781978e+003;5.900381e-002
1.783907e+003;5.862988e-002
1.785835e+003;5.857042e-002
1.787764e+003;5.861061e-002
1.789693e+003;5.759475e-002
1.791621e+003;5.621672e-002
1.793550e+003;5.676337e-002
1.795478e+003;5.800058e-002
1.797407e+003;5.788279e-002
1.799335e+003;5.731257e-002
1.801264e+003;5.714133e-002
1.803192e+003;5.739492e-002
1.805121e+003;5.730297e-002
1.807049e+003;5.715002e-002
1.808978e+003;5.690953e-002
1.810907e+003;5.669193e-002
1.812835e+003;5.676556e-002
1.814764e+003;5.700076e-002
1.816692e+003;5.707943e-002
1.818621e+003;5.720955e-002
1.820549e+003;5.703201e-002
1.822478e+003;5.659775e-002
1.824406e+003;5.600788e-002
1.826335e+003;5.601459e-002
1.828264e+003;5.555438e-002
1.830192e+003;5.523627e-002
1.832121e+003;5.605839e-002
1.834049e+003;5.630875e-002
1.835978e+003;5.591817e-002
1.837906e+003;5.575758e-002
1.839835e+003;5.569670e-002
1.841763e+003;5.495393e-002
1.843692e+003;5.365250e-002
1.845620e+003;5.417236e-002
1.847549e+003;5.521512e-002
1.849478e+003;5.540307e-002
1.851406e+003;5.542223e-002
1.853335e+003;5.529162e-002
1.855263e+003;5.520109e-002
1.857192e+003;5.513905e-002
1.859120e+003;5.516486e-002
1.861049e+003;5.527759e-002
1.862977e+003;5.522528e-002
1.864906e+003;5.498254e-002
1.866834e+003;5.445585e-002
1.868763e+003;5.391172e-002
1.870692e+003;5.430244e-002
1.872620e+003;5.500450e-002
1.874549e+003;5.533329e-002
1.876477e+003;5.518288e-002
1.878406e+003;5.496303e-002
1.880334e+003;5.501248e-002
1.882263e+003;5.496036e-002
1.884191e+003;5.504761e-002
1.886120e+003;5.515143e-002
1.888048e+003;5.466978e-002
1.889977e+003;5.437694e-002
1.891906e+003;5.483015e-002
1.893834e+003;5.491847e-002
1.895763e+003;5.482519e-002
1.897691e+003;5.473092e-002
1.899620e+003;5.474456e-002
1.901548e+003;5.488181e-002
1.903477e+003;5.476020e-002
1.905405e+003;5.462160e-002
1.907334e+003;5.463051e-002
1.909262e+003;5.478846e-002
1.911191e+003;5.509455e-002
1.913120e+003;5.522427e-002
1.915048e+003;5.502252e-002
1.916977e+003;5.436508e-002
1.918905e+003;5.448357e-002
1.920834e+003;5.497807e-002
1.922762e+003;5.486808e-002
1.924691e+003;5.503140e-002
1.926619e+003;5.532004e-002
1.928548e+003;5.537149e-002
1.930477e+003;5.539881e-002
1.932405e+003;5.556903e-002
1.934334e+003;5.584352e-002
1.936262e+003;5.609933e-002
1.938191e+003;5.628830e-002
1.940119e+003;5.610567e-002
1.942048e+003;5.575166e-002
1.943976e+003;5.591293e-002
1.945905e+003;5.607916e-002
1.947833e+003;5.618180e-002
1.949762e+003;5.655434e-002
1.951691e+003;5.683127e-002
1.953619e+003;5.686111e-002
1.955548e+003;5.664607e-002
1.957476e+003;5.647890e-002
1.959405e+003;5.644668e-002
1.961333e+003;5.648049e-002
1.963262e+003;5.661934e-002
1.965190e+003;5.670156e-002
1.967119e+003;5.659737e-002
1.969047e+003;5.688007e-002
1.970976e+003;5.712584e-002
1.972905e+003;5.714485e-002
1.974833e+003;5.704636e-002
1.976762e+003;5.681080e-002
1.978690e+003;5.674223e-002
1.980619e+003;5.685095e-002
1.982547e+003;5.677519e-002
1.984476e+003;5.698777e-002
1.986404e+003;5.725764e-002
1.988333e+003;5.713611e-002
1.990261e+003;5.688898e-002
1.992190e+003;5.703393e-002
1.994119e+003;5.760046e-002
1.996047e+003;5.785678e-002
1.997976e+003;5.779686e-002
1.999904e+003;5.773604e-002
2.001833e+003;5.756656e-002
2.003761e+003;5.738804e-002
2.005690e+003;5.747132e-002
2.007618e+003;5.769309e-002
2.009547e+003;5.765305e-002
2.011476e+003;5.780818e-002
2.013404e+003;5.806159e-002
2.015333e+003;5.810443e-002
2.017261e+003;5.807420e-002
2.019190e+003;5.822887e-002
2.021118e+003;5.857311e-002
2.023047e+003;5.872796e-002
2.024975e+003;5.884590e-002
2.026904e+003;5.893819e-002
2.028833e+003;5.894908e-002
2.030761e+003;5.902552e-002
2.032690e+003;5.915178e-002
2.034618e+003;5.914932e-002
2.036547e+003;5.915710e-002
2.038475e+003;5.928986e-002
2.040404e+003;5.939212e-002
2.042332e+003;5.940800e-002
2.044261e+003;5.940830e-002
2.046189e+003;5.961761e-002
2.048118e+003;5.957717e-002
2.050047e+003;5.937289e-002
2.051975e+003;5.956105e-002
2.053904e+003;5.952689e-002
2.055832e+003;5.913994e-002
2.057761e+003;5.890517e-002
2.059689e+003;5.900643e-002
2.061618e+003;5.907619e-002
2.063546e+003;5.895473e-002
2.065475e+003;5.902685e-002
2.067404e+003;5.914901e-002
2.069332e+003;5.930190e-002
2.071260e+003;5.941472e-002
2.073189e+003;5.919336e-002
2.075118e+003;5.895101e-002
2.077046e+003;5.888612e-002
2.078975e+003;5.900130e-002
2.080903e+003;5.906879e-002
2.082832e+003;5.889994e-002
2.084760e+003;5.896657e-002
2.086689e+003;5.909324e-002
2.088617e+003;5.912790e-002
2.090546e+003;5.906192e-002
2.092475e+003;5.885034e-002
2.094403e+003;5.870729e-002
2.096332e+003;5.895898e-002
2.098260e+003;5.918364e-002
2.100189e+003;5.934068e-002
2.102117e+003;5.935322e-002
2.104046e+003;5.906257e-002
2.105974e+003;5.887060e-002
2.107903e+003;5.901610e-002
2.109832e+003;5.931462e-002
2.111760e+003;5.927778e-002
2.113688e+003;5.938517e-002
2.115617e+003;5.981408e-002
2.117546e+003;5.983838e-002
2.119474e+003;5.957112e-002
2.121403e+003;5.927585e-002
2.123331e+003;5.952480e-002
2.125260e+003;5.989224e-002
2.127188e+003;5.993689e-002
2.129117e+003;5.991726e-002
2.131045e+003;6.003260e-002
2.132974e+003;6.025724e-002
2.134903e+003;6.025325e-002
2.136831e+003;6.017397e-002
2.138760e+003;6.019825e-002
2.140688e+003;6.001183e-002
2.142617e+003;5.964805e-002
2.144545e+003;5.939402e-002
2.146474e+003;5.946765e-002
2.148402e+003;5.964471e-002
2.150331e+003;5.967018e-002
2.152260e+003;5.966584e-002
2.154188e+003;5.977229e-002
2.156117e+003;5.985242e-002
2.158045e+003;5.960860e-002
2.159974e+003;5.913439e-002
2.161902e+003;5.895542e-002
2.163831e+003;5.904476e-002
2.165759e+003;5.866822e-002
2.167688e+003;5.843056e-002
2.169616e+003;5.853925e-002
2.171545e+003;5.841612e-002
2.173474e+003;5.831993e-002
2.175402e+003;5.838466e-002
2.177331e+003;5.837822e-002
2.179259e+003;5.821250e-002
2.181188e+003;5.800740e-002
2.183116e+003;5.795310e-002
2.185045e+003;5.801675e-002
2.186973e+003;5.806765e-002
2.188902e+003;5.778558e-002
2.190831e+003;5.746326e-002
2.192759e+003;5.744458e-002
2.194688e+003;5.732512e-002
2.196616e+003;5.708831e-002
2.198545e+003;5.712421e-002
2.200473e+003;5.743100e-002
2.202402e+003;5.755453e-002
2.204330e+003;5.730958e-002
2.206259e+003;5.701965e-002
2.208188e+003;5.682542e-002
2.210116e+003;5.672999e-002
2.212044e+003;5.689605e-002
2.213973e+003;5.692641e-002
2.215902e+003;5.705608e-002
2.217830e+003;5.730285e-002
2.219759e+003;5.728985e-002
2.221687e+003;5.715558e-002
2.223616e+003;5.705430e-002
2.225544e+003;5.730667e-002
2.227473e+003;5.742090e-002
2.229401e+003;5.723288e-002
2.231330e+003;5.736709e-002
2.233259e+003;5.764257e-002
2.235187e+003;5.766701e-002
2.237116e+003;5.752272e-002
2.239044e+003;5.732266e-002
2.240973e+003;5.719107e-002
2.242901e+003;5.727473e-002
2.244830e+003;5.731956e-002
2.246758e+003;5.732864e-002
2.248687e+003;5.729007e-002
2.250615e+003;5.718869e-002
2.252544e+003;5.700261e-002
2.254473e+003;5.690507e-002
2.256401e+003;5.698603e-002
2.258330e+003;5.706669e-002
2.260258e+003;5.692921e-002
2.262187e+003;5.689242e-002
2.264115e+003;5.675057e-002
2.266044e+003;5.660511e-002
2.267972e+003;5.643962e-002
2.269901e+003;5.638582e-002
2.271830e+003;5.648256e-002
2.273758e+003;5.628566e-002
2.275687e+003;5.628238e-002
2.277615e+003;5.647169e-002
2.279544e+003;5.634658e-002
2.281472e+003;5.614058e-002
2.283401e+003;5.612625e-002
2.285329e+003;5.610223e-002
2.287258e+003;5.606601e-002
2.289187e+003;5.594934e-002
2.291115e+003;5.602416e-002
2.293043e+003;5.599691e-002
2.294972e+003;5.571177e-002
2.296901e+003;5.562619e-002
2.298829e+003;5.568163e-002
2.300758e+003;5.561866e-002
2.302686e+003;5.563900e-002
2.304615e+003;5.588855e-002
2.306543e+003;5.592812e-002
2.308472e+003;5.566819e-002
2.310400e+003;5.551236e-002
2.312329e+003;5.557641e-002
2.314258e+003;5.574187e-002
2.316186e+003;5.553314e-002
2.318115e+003;5.536998e-002
2.320043e+003;5.534281e-002
2.321972e+003;5.510636e-002
2.323900e+003;5.503181e-002
2.325829e+003;5.519808e-002
2.327757e+003;5.508597e-002
2.329686e+003;5.488463e-002
2.331615e+003;5.494099e-002
2.333543e+003;5.496190e-002
2.335472e+003;5.495881e-002
2.337400e+003;5.476903e-002
2.339329e+003;5.507728e-002
2.341257e+003;5.570721e-002
2.343186e+003;5.596223e-002
2.345114e+003;5.609311e-002
2.347043e+003;5.635168e-002
2.348971e+003;5.654370e-002
2.350900e+003;5.662051e-002
2.352829e+003;5.655566e-002
2.354757e+003;5.636092e-002
2.356686e+003;5.618236e-002
2.358614e+003;5.617440e-002
2.360543e+003;5.626797e-002
2.362471e+003;5.637031e-002
2.364400e+003;5.635643e-002
2.366328e+003;5.650479e-002
2.368257e+003;5.704674e-002
2.370186e+003;5.763599e-002
2.372114e+003;5.779974e-002
2.374042e+003;5.814549e-002
2.375971e+003;5.849967e-002
2.377900e+003;5.861171e-002
2.379828e+003;5.869845e-002
2.381757e+003;5.903285e-002
2.383685e+003;5.923027e-002
2.385614e+003;5.939687e-002
2.387542e+003;5.928481e-002
2.389471e+003;5.892066e-002
2.391399e+003;5.894244e-002
2.393328e+003;5.943368e-002
2.395257e+003;5.982637e-002
2.397185e+003;5.962236e-002
2.399114e+003;5.953563e-002
2.401042e+003;5.986056e-002
2.402971e+003;5.984090e-002
2.404899e+003;5.977625e-002
2.406828e+003;6.002720e-002
2.408756e+003;6.033335e-002
2.410685e+003;6.010528e-002
2.412614e+003;6.007008e-002
2.414542e+003;6.022402e-002
2.416471e+003;6.039152e-002
2.418399e+003;6.047758e-002
2.420328e+003;6.079415e-002
2.422256e+003;6.129863e-002
2.424185e+003;6.133408e-002
2.426113e+003;6.132523e-002
2.428042e+003;6.147209e-002
2.429970e+003;6.147106e-002
2.431899e+003;6.162179e-002
2.433828e+003;6.205973e-002
2.435756e+003;6.239443e-002
2.437685e+003;6.242993e-002
2.439613e+003;6.206263e-002
2.441542e+003;6.188909e-002
2.443470e+003;6.225120e-002
2.445399e+003;6.261111e-002
2.447327e+003;6.250913e-002
2.449256e+003;6.223877e-002
2.451185e+003;6.239485e-002
2.453113e+003;6.273529e-002
2.455042e+003;6.269318e-002
2.456970e+003;6.275431e-002
2.458899e+003;6.280654e-002
2.460827e+003;6.277928e-002
2.462756e+003;6.306369e-002
2.464684e+003;6.319577e-002
2.466613e+003;6.313676e-002
2.468542e+003;6.353964e-002
2.470470e+003;6.365275e-002
2.472398e+003;6.338207e-002
2.474327e+003;6.337819e-002
2.476256e+003;6.349396e-002
2.478184e+003;6.396454e-002
2.480113e+003;6.424654e-002
2.482041e+003;6.419096e-002
2.483970e+003;6.415251e-002
2.485898e+003;6.430302e-002
2.487827e+003;6.424209e-002
2.489755e+003;6.423348e-002
2.491684e+003;6.415754e-002
2.493613e+003;6.427125e-002
2.495541e+003;6.422511e-002
2.497470e+003;6.431217e-002
2.499398e+003;6.447295e-002
2.501327e+003;6.478575e-002
2.503255e+003;6.512864e-002
2.505184e+003;6.511067e-002
2.507112e+003;6.494864e-002
2.509041e+003;6.521330e-002
2.510969e+003;6.578802e-002
2.512898e+003;6.607958e-002
2.514827e+003;6.603552e-002
2.516755e+003;6.583232e-002
2.518684e+003;6.586830e-002
2.520612e+003;6.592421e-002
2.522541e+003;6.593752e-002
2.524469e+003;6.600147e-002
2.526398e+003;6.625473e-002
2.528326e+003;6.637423e-002
2.530255e+003;6.632061e-002
2.532184e+003;6.647497e-002
2.534112e+003;6.673878e-002
2.536041e+003;6.691620e-002
2.537969e+003;6.689986e-002
2.539898e+003;6.670892e-002
2.541826e+003;6.661883e-002
2.543755e+003;6.685259e-002
2.545683e+003;6.688409e-002
2.547612e+003;6.665607e-002
2.549541e+003;6.675722e-002
2.551469e+003;6.709776e-002
2.553397e+003;6.723344e-002
2.555326e+003;6.711601e-002
2.557255e+003;6.726906e-002
2.559183e+003;6.756859e-002
2.561112e+003;6.776491e-002
2.563040e+003;6.764827e-002
2.564969e+003;6.716277e-002
2.566897e+003;6.691331e-002
2.568826e+003;6.727317e-002
2.570754e+003;6.757533e-002
2.572683e+003;6.767185e-002
2.574612e+003;6.767723e-002
2.576540e+003;6.756635e-002
2.578469e+003;6.767987e-002
2.580397e+003;6.758086e-002
2.582326e+003;6.752353e-002
2.584254e+003;6.778276e-002
2.586183e+003;6.799432e-002
2.588111e+003;6.804307e-002
2.590040e+003;6.821319e-002
2.591969e+003;6.797588e-002
2.593897e+003;6.768389e-002
2.595826e+003;6.780212e-002
2.597754e+003;6.799653e-002
2.599683e+003;6.809640e-002
2.601611e+003;6.840623e-002
2.603540e+003;6.878266e-002
2.605468e+003;6.899957e-002
2.607397e+003;6.892616e-002
2.609325e+003;6.870686e-002
2.611254e+003;6.867988e-002
2.613183e+003;6.888539e-002
2.615111e+003;6.912340e-002
2.617040e+003;6.923088e-002
2.618968e+003;6.941698e-002
2.620897e+003;6.949066e-002
2.622825e+003;6.962078e-002
2.624754e+003;6.972238e-002
2.626682e+003;6.973235e-002
2.628611e+003;6.979674e-002
2.630540e+003;7.011982e-002
2.632468e+003;7.004319e-002
2.634396e+003;6.994766e-002
2.636325e+003;7.015791e-002
2.638254e+003;7.017270e-002
2.640182e+003;7.020210e-002
2.642111e+003;7.035466e-002
2.644039e+003;7.030327e-002
2.645968e+003;7.020507e-002
2.647896e+003;7.026334e-002
2.649825e+003;7.067183e-002
2.651753e+003;7.120951e-002
2.653682e+003;7.114082e-002
2.655611e+003;7.062134e-002
2.657539e+003;7.033326e-002
2.659468e+003;7.054011e-002
2.661396e+003;7.089272e-002
2.663325e+003;7.092939e-002
2.665253e+003;7.095682e-002
2.667182e+003;7.112965e-002
2.669110e+003;7.122509e-002
2.671039e+003;7.111868e-002
2.672968e+003;7.121854e-002
2.674896e+003;7.141459e-002
2.676825e+003;7.157987e-002
2.678753e+003;7.166841e-002
2.680682e+003;7.179606e-002
2.682610e+003;7.199395e-002
2.684539e+003;7.206352e-002
2.686467e+003;7.203587e-002
2.688396e+003;7.194983e-002
2.690324e+003;7.192437e-002
2.692253e+003;7.196297e-002
2.694182e+003;7.221970e-002
2.696110e+003;7.282446e-002
2.698039e+003;7.311624e-002
2.699967e+003;7.318830e-002
2.701896e+003;7.304970e-002
2.703824e+003;7.311067e-002
2.705753e+003;7.328785e-002
2.707681e+003;7.338565e-002
2.709610e+003;7.351989e-002
2.711539e+003;7.363693e-002
2.713467e+003;7.363541e-002
2.715396e+003;7.376956e-002
2.717324e+003;7.409330e-002
2.719253e+003;7.444920e-002
2.721181e+003;7.447340e-002
2.723110e+003;7.435361e-002
2.725038e+003;7.445483e-002
2.726967e+003;7.474125e-002
2.728896e+003;7.464731e-002
2.730824e+003;7.472377e-002
2.732752e+003;7.500833e-002
2.734681e+003;7.486749e-002
2.736610e+003;7.480442e-002
2.738538e+003;7.501522e-002
2.740467e+003;7.512349e-002
2.742395e+003;7.503026e-002
2.744324e+003;7.509729e-002
2.746252e+003;7.529622e-002
2.748181e+003;7.529026e-002
2.750109e+003;7.538832e-002
2.752038e+003;7.570742e-002
2.753967e+003;7.572170e-002
2.755895e+003;7.566660e-002
2.757824e+003;7.588050e-002
2.759752e+003;7.591609e-002
2.761681e+003;7.577476e-002
2.763609e+003;7.607559e-002
2.765538e+003;7.638039e-002
2.767466e+003;7.599127e-002
2.769395e+003;7.591933e-002
2.771323e+003;7.615270e-002
2.773252e+003;7.635581e-002
2.775181e+003;7.659657e-002
2.777109e+003;7.676969e-002
2.779038e+003;7.707711e-002
2.780966e+003;7.721403e-002
2.782895e+003;7.731158e-002
2.784823e+003;7.757916e-002
2.786752e+003;7.786436e-002
2.788680e+003;7.799690e-002
2.790609e+003;7.816943e-002
2.792538e+003;7.813444e-002
2.794466e+003;7.846656e-002
2.796395e+003;7.906252e-002
2.798323e+003;7.925130e-002
2.800252e+003;7.946884e-002
2.802180e+003;7.978423e-002
2.804109e+003;8.018819e-002
2.806037e+003;8.045872e-002
2.807966e+003;8.093572e-002
2.809895e+003;8.157822e-002
2.811823e+003;8.154415e-002
2.813751e+003;8.159489e-002
2.815680e+003;8.193228e-002
2.817609e+003;8.257917e-002
2.819537e+003;8.302566e-002
2.821466e+003;8.341900e-002
2.823394e+003;8.410636e-002
2.825323e+003;8.454958e-002
2.827251e+003;8.520734e-002
2.829180e+003;8.591683e-002
2.831108e+003;8.670084e-002
2.833037e+003;8.806442e-002
2.834966e+003;8.916507e-002
2.836894e+003;9.028757e-002
2.838823e+003;9.214105e-002
2.840751e+003;9.430670e-002
2.842680e+003;9.700313e-002
2.844608e+003;1.003568e-001
2.846537e+003;1.049025e-001
2.848465e+003;1.103000e-001
2.850394e+003;1.136887e-001
2.852323e+003;1.128135e-001
2.854251e+003;1.094479e-001
2.856180e+003;1.067432e-001
2.858108e+003;1.058053e-001
2.860037e+003;1.057846e-001
2.861965e+003;1.063738e-001
2.863894e+003;1.072706e-001
2.865822e+003;1.083931e-001
2.867751e+003;1.094543e-001
2.869679e+003;1.100434e-001
2.871608e+003;1.111922e-001
2.873536e+003;1.122684e-001
2.875465e+003;1.119723e-001
2.877394e+003;1.110878e-001
2.879322e+003;1.107591e-001
2.881251e+003;1.108927e-001
2.883179e+003;1.108980e-001
2.885108e+003;1.111710e-001
2.887036e+003;1.124357e-001
2.888965e+003;1.132957e-001
2.890893e+003;1.132648e-001
2.892822e+003;1.139009e-001
2.894750e+003;1.149199e-001
2.896679e+003;1.157609e-001
2.898608e+003;1.162420e-001
2.900536e+003;1.168996e-001
2.902465e+003;1.176993e-001
2.904393e+003;1.180627e-001
2.906322e+003;1.185110e-001
2.908250e+003;1.196310e-001
2.910179e+003;1.213960e-001
2.912107e+003;1.234360e-001
2.914036e+003;1.257368e-001
2.915965e+003;1.284902e-001
2.917893e+003;1.307894e-001
2.919822e+003;1.310637e-001
2.921750e+003;1.295594e-001
2.923679e+003;1.268785e-001
2.925607e+003;1.239302e-001
2.927536e+003;1.211948e-001
2.929464e+003;1.177023e-001
2.931393e+003;1.146793e-001
2.933322e+003;1.127637e-001
2.935250e+003;1.109026e-001
2.937178e+003;1.092256e-001
2.939107e+003;1.079755e-001
2.941036e+003;1.068942e-001
2.942964e+003;1.057573e-001
2.944893e+003;1.048406e-001
2.946821e+003;1.043490e-001
2.948750e+003;1.040035e-001
2.950678e+003;1.035049e-001
2.952607e+003;1.034486e-001
2.954535e+003;1.037380e-001
2.956464e+003;1.038875e-001
2.958393e+003;1.038368e-001
2.960321e+003;1.031507e-001
2.962250e+003;1.021677e-001
2.964178e+003;1.008297e-001
2.966107e+003;9.909976e-002
2.968035e+003;9.721309e-002
2.969964e+003;9.483115e-002
2.971892e+003;9.239154e-002
2.973821e+003;9.051312e-002
2.975750e+003;8.860763e-002
2.977678e+003;8.671192e-002
2.979607e+003;8.493323e-002
2.981535e+003;8.334954e-002
2.983464e+003;8.186153e-002
2.985392e+003;8.078384e-002
2.987321e+003;7.979669e-002
2.989249e+003;7.893646e-002
2.991178e+003;7.826257e-002
2.993106e+003;7.756078e-002
2.995035e+003;7.712229e-002
2.996964e+003;7.682323e-002
2.998892e+003;7.633057e-002
3.000821e+003;7.596941e-002
3.002749e+003;7.608428e-002
3.004678e+003;7.594123e-002
3.006606e+003;7.529093e-002
3.008535e+003;7.522017e-002
3.010463e+003;7.549546e-002
3.012392e+003;7.547157e-002
3.014321e+003;7.535466e-002
3.016249e+003;7.555006e-002
3.018177e+003;7.596842e-002
3.020106e+003;7.657732e-002
3.022035e+003;7.691534e-002
3.023963e+003;7.716971e-002
3.025892e+003;7.767326e-002
3.027820e+003;7.797185e-002
3.029749e+003;7.808387e-002
3.031677e+003;7.812254e-002
3.033606e+003;7.781791e-002
3.035534e+003;7.761351e-002
3.037463e+003;7.779456e-002
3.039392e+003;7.765578e-002
3.041320e+003;7.761867e-002
3.043249e+003;7.798826e-002
3.045177e+003;7.787764e-002
3.047106e+003;7.798021e-002
3.049034e+003;7.862498e-002
3.050963e+003;7.906113e-002
3.052891e+003;7.916449e-002
3.054820e+003;7.904356e-002
3.056749e+003;7.910562e-002
3.058677e+003;7.963832e-002
3.060606e+003;7.979315e-002
3.062534e+003;7.962989e-002
3.064463e+003;7.955980e-002
3.066391e+003;7.970062e-002
3.068320e+003;7.995857e-002
3.070248e+003;8.020847e-002
3.072177e+003;8.070679e-002
3.074105e+003;8.092877e-002
3.076034e+003;8.061638e-002
3.077963e+003;8.066227e-002
3.079891e+003;8.091249e-002
3.081820e+003;8.138376e-002
3.083748e+003;8.179973e-002
3.085677e+003;8.190735e-002
3.087605e+003;8.177941e-002
3.089534e+003;8.140554e-002
3.091462e+003;8.150074e-002
3.093391e+003;8.198033e-002
3.095320e+003;8.245885e-002
3.097248e+003;8.263928e-002
3.099177e+003;8.289077e-002
3.101105e+003;8.352870e-002
3.103034e+003;8.399019e-002
3.104962e+003;8.404785e-002
3.106891e+003;8.389822e-002
3.108819e+003;8.376278e-002
3.110748e+003;8.367439e-002
3.112677e+003;8.396202e-002
3.114605e+003;8.470226e-002
3.116533e+003;8.502328e-002
3.118462e+003;8.510865e-002
3.120391e+003;8.582836e-002
3.122319e+003;8.644592e-002
3.124248e+003;8.640929e-002
3.126176e+003;8.682004e-002
3.128105e+003;8.763308e-002
3.130033e+003;8.765879e-002
3.131962e+003;8.736806e-002
3.133890e+003;8.750957e-002
3.135819e+003;8.797389e-002
3.137748e+003;8.814547e-002
3.139676e+003;8.847962e-002
3.141605e+003;8.892619e-002
3.143533e+003;8.892180e-002
3.145462e+003;8.934502e-002
3.147390e+003;9.022839e-002
3.149319e+003;9.060998e-002
3.151247e+003;9.049994e-002
3.153176e+003;9.107064e-002
3.155104e+003;9.168863e-002
3.157033e+003;9.174256e-002
3.158962e+003;9.203836e-002
3.160890e+003;9.303153e-002
3.162819e+003;9.352172e-002
3.164747e+003;9.356644e-002
3.166676e+003;9.376656e-002
3.168604e+003;9.419449e-002
3.170533e+003;9.441268e-002
3.172461e+003;9.459219e-002
3.174390e+003;9.522218e-002
3.176319e+003;9.570193e-002
3.178247e+003;9.588172e-002
3.180176e+003;9.609783e-002
3.182104e+003;9.692795e-002
3.184033e+003;9.747075e-002
3.185961e+003;9.768414e-002
3.187890e+003;9.833841e-002
3.189818e+003;9.852079e-002
3.191747e+003;9.908848e-002
3.193676e+003;1.000906e-001
3.195604e+003;1.002961e-001
3.197532e+003;1.002808e-001
3.199461e+003;1.007943e-001
3.201390e+003;1.011942e-001
3.203318e+003;1.012938e-001
3.205247e+003;1.016396e-001
3.207175e+003;1.024271e-001
3.209104e+003;1.037804e-001
3.211032e+003;1.050553e-001
3.212961e+003;1.054304e-001
3.214889e+003;1.050934e-001
3.216818e+003;1.051520e-001
3.218747e+003;1.056218e-001
3.220675e+003;1.063589e-001
3.222604e+003;1.070896e-001
3.224532e+003;1.076961e-001
3.226461e+003;1.082017e-001
3.228389e+003;1.083907e-001
3.230318e+003;1.091699e-001
3.232246e+003;1.104425e-001
3.234175e+003;1.109391e-001
3.236104e+003;1.111614e-001
3.238032e+003;1.117638e-001
3.239961e+003;1.124822e-001
3.241889e+003;1.134494e-001
3.243818e+003;1.141958e-001
3.245746e+003;1.147530e-001
3.247675e+003;1.156197e-001
3.249603e+003;1.169428e-001
3.251532e+003;1.181837e-001
3.253460e+003;1.190379e-001
3.255389e+003;1.196467e-001
3.257318e+003;1.199243e-001
3.259246e+003;1.202056e-001
3.261175e+003;1.209804e-001
3.263103e+003;1.221875e-001
3.265032e+003;1.229440e-001
3.266960e+003;1.231602e-001
3.268889e+003;1.235546e-001
3.270817e+003;1.242187e-001
3.272746e+003;1.249189e-001
3.274675e+003;1.253991e-001
3.276603e+003;1.250484e-001
3.278531e+003;1.250629e-001
3.280460e+003;1.258909e-001
3.282389e+003;1.264066e-001
3.284317e+003;1.265309e-001
3.286246e+003;1.270919e-001
3.288174e+003;1.273454e-001
3.290103e+003;1.271540e-001
3.292031e+003;1.268602e-001
3.293960e+003;1.268160e-001
3.295888e+003;1.274411e-001
3.297817e+003;1.274655e-001
3.299746e+003;1.270372e-001
3.301674e+003;1.269024e-001
3.303603e+003;1.268484e-001
3.305531e+003;1.268329e-001
3.307460e+003;1.268099e-001
3.309388e+003;1.267047e-001
3.311317e+003;1.263690e-001
3.313245e+003;1.265809e-001
3.315174e+003;1.272345e-001
3.317103e+003;1.272756e-001
3.319031e+003;1.275119e-001
3.320960e+003;1.278374e-001
3.322888e+003;1.278476e-001
3.324817e+003;1.287600e-001
3.326745e+003;1.298157e-001
3.328674e+003;1.299183e-001
3.330602e+003;1.304072e-001
3.332531e+003;1.312181e-001
3.334459e+003;1.308434e-001
3.336388e+003;1.300581e-001
3.338317e+003;1.296763e-001
3.340245e+003;1.298170e-001
3.342174e+003;1.292417e-001
3.344102e+003;1.282867e-001
3.346031e+003;1.277366e-001
3.347959e+003;1.270504e-001
3.349888e+003;1.263574e-001
3.351816e+003;1.250760e-001
3.353745e+003;1.240465e-001
3.355674e+003;1.229784e-001
3.357602e+003;1.219522e-001
3.359531e+003;1.216989e-001
3.361459e+003;1.208023e-001
3.363388e+003;1.196120e-001
3.365316e+003;1.189415e-001
3.367245e+003;1.185428e-001
3.369173e+003;1.175735e-001
3.371102e+003;1.163753e-001
3.373031e+003;1.161576e-001
3.374959e+003;1.161674e-001
3.376887e+003;1.154542e-001
3.378816e+003;1.143860e-001
3.380745e+003;1.136089e-001
3.382673e+003;1.130087e-001
3.384602e+003;1.120091e-001
3.386530e+003;1.118127e-001
3.388459e+003;1.119471e-001
3.390387e+003;1.114093e-001
3.392316e+003;1.107216e-001
3.394244e+003;1.102412e-001
3.396173e+003;1.096109e-001
3.398102e+003;1.092927e-001
3.400030e+003;1.089151e-001
3.401959e+003;1.079095e-001
3.403887e+003;1.068159e-001
3.405816e+003;1.066339e-001
3.407744e+003;1.062887e-001
3.409673e+003;1.054558e-001
3.411601e+003;1.049100e-001
3.413530e+003;1.040894e-001
3.415458e+003;1.028132e-001
3.417387e+003;1.015260e-001
3.419316e+003;1.004597e-001
3.421244e+003;9.975788e-002
3.423173e+003;9.920355e-002
3.425101e+003;9.872898e-002
3.427030e+003;9.829943e-002
3.428958e+003;9.774376e-002
3.430887e+003;9.702239e-002
3.432815e+003;9.637506e-002
3.434744e+003;9.548613e-002
3.436673e+003;9.461052e-002
3.438601e+003;9.383860e-002
3.440530e+003;9.334698e-002
3.442458e+003;9.276331e-002
3.444387e+003;9.231711e-002
3.446315e+003;9.219681e-002
3.448244e+003;9.099043e-002
3.450172e+003;8.906902e-002
3.452101e+003;8.820096e-002
3.454030e+003;8.776458e-002
3.455958e+003;8.764378e-002
3.457886e+003;8.734865e-002
3.459815e+003;8.647572e-002
3.461744e+003;8.573895e-002
3.463672e+003;8.522648e-002
3.465601e+003;8.486865e-002
3.467529e+003;8.431975e-002
3.469458e+003;8.380686e-002
3.471386e+003;8.324566e-002
3.473315e+003;8.265632e-002
3.475243e+003;8.223976e-002
3.477172e+003;8.136709e-002
3.479101e+003;8.045365e-002
3.481029e+003;7.955141e-002
3.482958e+003;7.855279e-002
3.484886e+003;7.789889e-002
3.486815e+003;7.711786e-002
3.488743e+003;7.627200e-002
3.490672e+003;7.592631e-002
3.492600e+003;7.569598e-002
3.494529e+003;7.495584e-002
3.496458e+003;7.374683e-002
3.498386e+003;7.287317e-002
3.500315e+003;7.234446e-002
3.502243e+003;7.177448e-002
3.504172e+003;7.157639e-002
3.506100e+003;7.171566e-002
3.508029e+003;7.131860e-002
3.509957e+003;7.048558e-002
3.511886e+003;6.959056e-002
3.513814e+003;6.881966e-002
3.515743e+003;6.890046e-002
3.517672e+003;6.916369e-002
3.519600e+003;6.819683e-002
3.521529e+003;6.682704e-002
3.523457e+003;6.595028e-002
3.525386e+003;6.590913e-002
3.527314e+003;6.531792e-002
3.529243e+003;6.493755e-002
3.531171e+003;6.526998e-002
3.533100e+003;6.520021e-002
3.535029e+003;6.460205e-002
3.536957e+003;6.369182e-002
3.538885e+003;6.284077e-002
3.540814e+003;6.219281e-002
3.542743e+003;6.155516e-002
3.544671e+003;6.094171e-002
3.546600e+003;6.077879e-002
3.548528e+003;6.051815e-002
3.550457e+003;5.977351e-002
3.552385e+003;5.935629e-002
3.554314e+003;5.914510e-002
3.556242e+003;5.835658e-002
3.558171e+003;5.761018e-002
3.560100e+003;5.673985e-002
3.562028e+003;5.660670e-002
3.563957e+003;5.603411e-002
3.565885e+003;5.424902e-002
3.567814e+003;5.409606e-002
3.569742e+003;5.533317e-002
3.571671e+003;5.582250e-002
3.573599e+003;5.528478e-002
3.575528e+003;5.461367e-002
3.577457e+003;5.440109e-002
3.579385e+003;5.383733e-002
3.581314e+003;5.346546e-002
3.583242e+003;5.353764e-002
3.585171e+003;5.266114e-002
3.587099e+003;5.148386e-002
3.589028e+003;5.158833e-002
3.590956e+003;5.252227e-002
3.592885e+003;5.214166e-002
3.594813e+003;5.107330e-002
3.596742e+003;5.123042e-002
3.598671e+003;5.121625e-002
3.600599e+003;5.041641e-002
3.602528e+003;5.015165e-002
3.604456e+003;5.016786e-002
3.606385e+003;4.918563e-002
3.608313e+003;4.786939e-002
3.610242e+003;4.770993e-002
3.612170e+003;4.749731e-002
3.614099e+003;4.731607e-002
3.616028e+003;4.701099e-002
3.617956e+003;4.619630e-002
3.619885e+003;4.673195e-002
3.621813e+003;4.761934e-002
3.623742e+003;4.704836e-002
3.625670e+003;4.559211e-002
3.627599e+003;4.263705e-002
3.629527e+003;4.250153e-002
3.631456e+003;4.478598e-002
3.633385e+003;4.526790e-002
3.635313e+003;4.577343e-002
3.637241e+003;4.603270e-002
3.639170e+003;4.514829e-002
3.641099e+003;4.443822e-002
3.643027e+003;4.418779e-002
3.644956e+003;4.298512e-002
3.646884e+003;4.024946e-002
3.648813e+003;3.840592e-002
3.650741e+003;3.879975e-002
3.652670e+003;3.994407e-002
3.654598e+003;3.977159e-002
3.656527e+003;3.989809e-002
3.658456e+003;4.074081e-002
3.660384e+003;4.062233e-002
3.662313e+003;4.036282e-002
3.664241e+003;4.016186e-002
3.666170e+003;3.935225e-002
3.668098e+003;3.729611e-002
3.670027e+003;3.546032e-002
3.671955e+003;3.619100e-002
3.673884e+003;3.455931e-002
3.675813e+003;3.321412e-002
3.677741e+003;3.563991e-002
3.679669e+003;3.686183e-002
3.681598e+003;3.717521e-002
3.683527e+003;3.703266e-002
3.685455e+003;3.586563e-002
3.687384e+003;3.297036e-002
3.689312e+003;3.280867e-002
3.691241e+003;3.480808e-002
3.693169e+003;3.573423e-002
3.695098e+003;3.586516e-002
3.697026e+003;3.556068e-002
3.698955e+003;3.494222e-002
3.700884e+003;3.440452e-002
3.702812e+003;3.531574e-002
3.704741e+003;3.597083e-002
3.706669e+003;3.514232e-002
3.708598e+003;3.332408e-002
3.710526e+003;3.165139e-002
3.712455e+003;3.220165e-002
3.714383e+003;3.383541e-002
3.716312e+003;3.431794e-002
3.718240e+003;3.455744e-002
3.720169e+003;3.454976e-002
3.722098e+003;3.380368e-002
3.724026e+003;3.319702e-002
3.725955e+003;3.281953e-002
3.727883e+003;3.278398e-002
3.729812e+003;3.228426e-002
3.731740e+003;3.110215e-002
3.733669e+003;3.033993e-002
3.735597e+003;2.975622e-002
3.737526e+003;3.151306e-002
3.739455e+003;3.292021e-002
3.741383e+003;3.153910e-002
3.743312e+003;2.754882e-002
3.745240e+003;2.832164e-002
3.747169e+003;3.036090e-002
3.749097e+003;2.835817e-002
3.751026e+003;2.760287e-002
3.752954e+003;2.980154e-002
3.754883e+003;3.236983e-002
3.756812e+003;3.231592e-002
3.758740e+003;3.181008e-002
3.760668e+003;3.194116e-002
3.762597e+003;3.298169e-002
3.764526e+003;3.308798e-002
3.766454e+003;3.314824e-002
3.768383e+003;3.250589e-002
3.770311e+003;3.276758e-002
3.772240e+003;3.324660e-002
3.774168e+003;3.391225e-002
3.776097e+003;3.386923e-002
3.778025e+003;3.297561e-002
3.779954e+003;3.338523e-002
3.781883e+003;3.440046e-002
3.783811e+003;3.391988e-002
3.785740e+003;3.336190e-002
3.787668e+003;3.355479e-002
3.789597e+003;3.447697e-002
3.791525e+003;3.421526e-002
3.793454e+003;3.362514e-002
3.795382e+003;3.327260e-002
3.797311e+003;3.344280e-002
3.799240e+003;3.195347e-002
3.801168e+003;3.027506e-002
3.803097e+003;3.220643e-002
3.805025e+003;3.254942e-002
3.806954e+003;3.169066e-002
3.808882e+003;3.321376e-002
3.810811e+003;3.459719e-002
3.812739e+003;3.448766e-002
3.814668e+003;3.158785e-002
3.816596e+003;3.100125e-002
3.818525e+003;3.255835e-002
3.820454e+003;3.112614e-002
3.822382e+003;3.170956e-002
3.824311e+003;3.375755e-002
3.826239e+003;3.405292e-002
3.828168e+003;3.436090e-002
3.830096e+003;3.387364e-002
3.832025e+003;3.297626e-002
3.833953e+003;3.280417e-002
3.835882e+003;3.162188e-002
3.837811e+003;3.045653e-002
3.839739e+003;3.180851e-002
3.841667e+003;3.296911e-002
3.843596e+003;3.379082e-002
3.845525e+003;3.464779e-002
3.847453e+003;3.482065e-002
3.849382e+003;3.280938e-002
3.851310e+003;2.873510e-002
3.853239e+003;2.646151e-002
3.855167e+003;3.081959e-002
3.857096e+003;3.519442e-002
3.859024e+003;3.590565e-002
3.860953e+003;3.497325e-002
3.862882e+003;3.298305e-002
3.864810e+003;3.213849e-002
3.866739e+003;3.340380e-002
3.868667e+003;3.303489e-002
3.870596e+003;3.340999e-002
3.872524e+003;3.425599e-002
3.874453e+003;3.471828e-002
3.876381e+003;3.530877e-002
3.878310e+003;3.447281e-002
3.880239e+003;3.388936e-002
3.882167e+003;3.476451e-002
3.884096e+003;3.417238e-002
3.886024e+003;3.381102e-002
3.887953e+003;3.491967e-002
3.889881e+003;3.440721e-002
3.891810e+003;3.501915e-002
3.893738e+003;3.716716e-002
3.895667e+003;3.789280e-002
3.897595e+003;3.641009e-002
3.899524e+003;3.505496e-002
3.901453e+003;3.419160e-002
3.903381e+003;3.341028e-002
3.905310e+003;3.492071e-002
3.907238e+003;3.757739e-002
3.909167e+003;3.851141e-002
3.911095e+003;3.790472e-002
3.913024e+003;3.713283e-002
3.914952e+003;3.657932e-002
3.916881e+003;3.659889e-002
3.918810e+003;3.711804e-002
3.920738e+003;3.710620e-002
3.922667e+003;3.700177e-002
3.924595e+003;3.710837e-002
3.926524e+003;3.733734e-002
3.928452e+003;3.674881e-002
3.930381e+003;3.582439e-002
3.932309e+003;3.557315e-002
3.934238e+003;3.617940e-002
3.936167e+003;3.681675e-002
3.938095e+003;3.768481e-002
3.940023e+003;3.817457e-002
3.941952e+003;3.770584e-002
3.943881e+003;3.789153e-002
3.945809e+003;3.776490e-002
3.947738e+003;3.665582e-002
3.949666e+003;3.711544e-002
3.951595e+003;3.833212e-002
3.953523e+003;3.871545e-002
3.955452e+003;3.842923e-002
3.957380e+003;3.838225e-002
3.959309e+003;3.930197e-002
3.961238e+003;3.959301e-002
3.963166e+003;3.943142e-002
3.965095e+003;3.866974e-002
3.967023e+003;3.709036e-002
3.968952e+003;3.724487e-002
3.970880e+003;3.864982e-002
3.972809e+003;3.906217e-002
3.974737e+003;3.839803e-002
3.976666e+003;3.865992e-002
3.978594e+003;3.978859e-002
3.980523e+003;3.893679e-002
3.982452e+003;3.752421e-002
3.984380e+003;3.790447e-002
3.986309e+003;3.879536e-002
3.988237e+003;3.961479e-002
3.990166e+003;3.968921e-002
3.992094e+003;3.896760e-002
3.994023e+003;3.862577e-002
3.995951e+003;3.874798e-002
3.997880e+003;3.870842e-002
3.999809e+003;3.862497e-002
4.001737e+003;0.000000e+000
