3.992094e+002;0.000000e+000
4.011380e+002;0.000000e+000
4.030665e+002;0.000000e+000
4.049951e+002;0.000000e+000
4.069236e+002;0.000000e+000
4.088522e+002;0.000000e+000
4.107807e+002;0.000000e+000
4.127093e+002;0.000000e+000
4.146378e+002;0.000000e+000
4.165664e+002;0.000000e+000
4.184949e+002;0.000000e+000
4.204235e+002;0.000000e+000
4.223520e+002;0.000000e+000
4.242806e+002;0.000000e+000
4.262091e+002;0.000000e+000
4.281377e+002;0.000000e+000
4.300662e+002;0.000000e+000
4.319948e+002;0.000000e+000
4.339233e+002;0.000000e+000
4.358519e+002;0.000000e+000
4.377804e+002;0.000000e+000
4.397090e+002;0.000000e+000
4.416375e+002;0.000000e+000
4.435660e+002;0.000000e+000
4.454946e+002;0.000000e+000
4.474232e+002;0.000000e+000
4.493517e+002;0.000000e+000
4.512802e+002;0.000000e+000
4.532088e+002;0.000000e+000
4.551373e+002;0.000000e+000
4.570659e+002;0.000000e+000
4.589944e+002;0.000000e+000
4.609230e+002;0.000000e+000
4.628515e+002;0.000000e+000
4.647801e+002;0.000000e+000
4.667086e+002;0.000000e+000
4.686372e+002;0.000000e+000
4.705657e+002;0.000000e+000
4.724943e+002;0.000000e+000
4.744228e+002;0.000000e+000
4.763513e+002;0.000000e+000
4.782799e+002;0.000000e+000
4.802085e+002;0.000000e+000
4.821370e+002;0.000000e+000
4.840656e+002;0.000000e+000
4.859941e+002;0.000000e+000
4.879226e+002;0.000000e+000
4.898512e+002;0.000000e+000
4.917798e+002;0.000000e+000
4.937083e+002;0.000000e+000
4.956368e+002;0.000000e+000
4.975654e+002;0.000000e+000
4.994939e+002;0.000000e+000
5.014225e+002;0.000000e+000
5.033510e+002;0.000000e+000
5.052796e+002;0.000000e+000
5.072081e+002;0.000000e+000
5.091367e+002;0.000000e+000
5.110652e+002;0.000000e+000
5.129938e+002;0.000000e+000
5.149223e+002;0.000000e+000
5.168509e+002;0.000000e+000
5.187794e+002;0.000000e+000
5.207079e+002;0.000000e+000
5.226365e+002;0.000000e+000
5.245651e+002;0.000000e+000
5.264936e+002;0.000000e+000
5.284222e+002;0.000000e+000
5.303507e+002;0.000000e+000
5.322792e+002;0.000000e+000
5.342078e+002;0.000000e+000
5.361364e+002;0.000000e+000
5.380649e+002;0.000000e+000
5.399935e+002;0.000000e+000
5.419220e+002;0.000000e+000
5.438505e+002;0.000000e+000
5.457791e+002;0.000000e+000
5.477076e+002;0.000000e+000
5.496362e+002;0.000000e+000
5.515648e+002;0.000000e+000
5.534933e+002;0.000000e+000
5.554218e+002;0.000000e+000
5.573504e+002;0.000000e+000
5.592789e+002;0.000000e+000
5.612075e+002;0.000000e+000
5.631360e+002;0.000000e+000
5.650646e+002;0.000000e+000
5.669931e+002;0.000000e+000
5.689217e+002;0.000000e+000
5.708502e+002;0.000000e+000
5.727787e+002;0.000000e+000
5.747073e+002;0.000000e+000
5.766359e+002;0.000000e+000
5.785644e+002;0.000000e+000
5.804930e+002;0.000000e+000
5.824215e+002;0.000000e+000
5.843500e+002;0.000000e+000
5.862786e+002;0.000000e+000
5.882072e+002;0.000000e+000
5.901357e+002;0.000000e+000
5.920643e+002;0.000000e+000
5.939928e+002;0.000000e+000
5.959213e+002;0.000000e+000
5.978499e+002;0.000000e+000
5.997784e+002;1.759933e-001
6.017070e+002;1.740679e-001
6.036355e+002;1.811714e-001
6.055641e+002;1.813241e-001
6.074926e+002;1.835543e-001
6.094211e+002;1.876521e-001
6.113497e+002;1.852559e-001
6.132783e+002;1.835514e-001
6.152068e+002;1.851281e-001
6.171354e+002;1.859321e-001
6.190639e+002;1.857798e-001
6.209924e+002;1.825667e-001
6.229210e+002;1.763423e-001
6.248495e+002;1.697131e-001
6.267781e+002;1.685887e-001
6.287067e+002;1.695600e-001
6.306352e+002;1.676666e-001
6.325637e+002;1.617068e-001
6.344923e+002;1.586926e-001
6.364208e+002;1.577268e-001
6.383494e+002;1.579529e-001
6.402780e+002;1.552980e-001
6.422065e+002;1.531746e-001
6.441350e+002;1.518691e-001
6.460636e+002;1.506270e-001
6.479921e+002;1.515757e-001
6.499207e+002;1.518918e-001
6.518492e+002;1.510153e-001
6.537778e+002;1.552427e-001
6.557063e+002;1.601812e-001
6.576349e+002;1.627858e-001
6.595634e+002;1.654357e-001
6.614919e+002;1.670472e-001
6.634205e+002;1.698991e-001
6.653491e+002;1.690704e-001
6.672776e+002;1.654395e-001
6.692062e+002;1.617372e-001
6.711347e+002;1.568468e-001
6.730632e+002;1.538050e-001
6.749918e+002;1.510637e-001
6.769203e+002;1.483876e-001
6.788489e+002;1.449696e-001
6.807775e+002;1.415700e-001
6.827060e+002;1.390648e-001
6.846345e+002;1.373456e-001
6.865631e+002;1.354210e-001
6.884916e+002;1.348601e-001
6.904202e+002;1.356203e-001
6.923488e+002;1.375075e-001
6.942773e+002;1.403019e-001
6.962058e+002;1.427017e-001
6.981344e+002;1.441697e-001
7.000629e+002;1.450668e-001
7.019915e+002;1.442545e-001
7.039200e+002;1.408084e-001
7.058486e+002;1.367803e-001
7.077771e+002;1.340471e-001
7.097057e+002;1.302078e-001
7.116342e+002;1.257028e-001
7.135627e+002;1.235421e-001
7.154913e+002;1.225459e-001
7.174199e+002;1.197645e-001
7.193484e+002;1.164931e-001
7.212770e+002;1.138774e-001
7.232055e+002;1.111480e-001
7.251340e+002;1.075811e-001
7.270626e+002;1.055012e-001
7.289911e+002;1.037850e-001
7.309197e+002;1.023159e-001
7.328483e+002;1.004813e-001
7.347768e+002;9.911371e-002
7.367053e+002;9.807619e-002
7.386339e+002;9.622765e-002
7.405624e+002;9.480654e-002
7.424910e+002;9.462956e-002
7.444196e+002;9.447607e-002
7.463481e+002;9.371134e-002
7.482766e+002;9.263673e-002
7.502052e+002;9.104792e-002
7.521337e+002;8.947769e-002
7.540623e+002;8.893567e-002
7.559908e+002;8.910087e-002
7.579194e+002;8.908655e-002
7.598479e+002;8.880056e-002
7.617765e+002;8.842023e-002
7.637050e+002;8.670229e-002
7.656335e+002;8.561363e-002
7.675621e+002;8.456508e-002
7.694907e+002;8.233403e-002
7.714192e+002;8.013969e-002
7.733478e+002;7.911360e-002
7.752763e+002;7.868736e-002
7.772048e+002;7.787776e-002
7.791334e+002;7.694085e-002
7.810620e+002;7.669883e-002
7.829905e+002;7.631505e-002
7.849191e+002;7.506058e-002
7.868476e+002;7.451521e-002
7.887761e+002;7.465629e-002
7.907047e+002;7.472657e-002
7.926332e+002;7.490481e-002
7.945618e+002;7.538832e-002
7.964903e+002;7.564999e-002
7.984189e+002;7.578754e-002
8.003474e+002;7.624312e-002
8.022759e+002;7.617923e-002
8.042045e+002;7.611274e-002
8.061331e+002;7.619301e-002
8.080616e+002;7.619116e-002
8.099902e+002;7.573199e-002
8.119187e+002;7.559325e-002
8.138472e+002;7.631055e-002
8.157758e+002;7.710164e-002
8.177043e+002;7.668468e-002
8.196329e+002;7.573661e-002
8.215615e+002;7.447064e-002
8.234900e+002;7.346671e-002
8.254185e+002;7.287144e-002
8.273471e+002;7.254517e-002
8.292756e+002;7.223613e-002
8.312042e+002;7.179673e-002
8.331328e+002;7.124262e-002
8.350613e+002;7.096943e-002
8.369898e+002;7.081389e-002
8.389184e+002;7.095487e-002
8.408469e+002;7.081892e-002
8.427755e+002;7.004405e-002
8.447040e+002;6.914019e-002
8.466326e+002;6.900264e-002
8.485611e+002;6.856323e-002
8.504897e+002;6.834418e-002
8.524182e+002;6.848846e-002
8.543467e+002;6.875681e-002
8.562753e+002;6.914551e-002
8.582039e+002;6.964257e-002
8.601324e+002;6.994451e-002
8.620610e+002;7.051820e-002
8.639895e+002;7.158909e-002
8.659180e+002;7.243441e-002
8.678466e+002;7.337270e-002
8.697751e+002;7.441432e-002
8.717037e+002;7.574540e-002
8.736323e+002;7.769093e-002
8.755608e+002;7.955817e-002
8.774893e+002;8.150358e-002
8.794179e+002;8.387185e-002
8.813464e+002;8.644912e-002
8.832750e+002;8.929426e-002
8.852036e+002;9.219976e-002
8.871321e+002;9.511208e-002
8.890606e+002;9.848574e-002
8.909892e+002;1.017008e-001
8.929177e+002;1.036263e-001
8.948463e+002;1.049551e-001
8.967748e+002;1.062532e-001
8.987034e+002;1.068642e-001
9.006319e+002;1.066383e-001
9.025605e+002;1.060058e-001
9.044890e+002;1.050300e-001
9.064175e+002;1.034873e-001
9.083461e+002;1.021639e-001
9.102747e+002;1.007470e-001
9.122032e+002;9.875735e-002
9.141318e+002;9.685721e-002
9.160603e+002;9.558299e-002
9.179888e+002;9.497875e-002
9.199174e+002;9.466998e-002
9.218459e+002;9.509009e-002
9.237745e+002;9.640195e-002
9.257031e+002;9.801736e-002
9.276316e+002;9.953661e-002
9.295601e+002;1.012380e-001
9.314887e+002;1.027694e-001
9.334172e+002;1.044061e-001
9.353458e+002;1.064340e-001
9.372744e+002;1.078177e-001
9.392029e+002;1.091765e-001
9.411314e+002;1.108637e-001
9.430600e+002;1.126371e-001
9.449885e+002;1.145708e-001
9.469171e+002;1.169126e-001
9.488456e+002;1.194858e-001
9.507742e+002;1.222140e-001
9.527027e+002;1.252978e-001
9.546313e+002;1.288453e-001
9.565598e+002;1.327626e-001
9.584883e+002;1.370226e-001
9.604169e+002;1.415571e-001
9.623455e+002;1.466997e-001
9.642740e+002;1.514887e-001
9.662026e+002;1.559139e-001
9.681311e+002;1.611678e-001
9.700596e+002;1.672940e-001
9.719882e+002;1.742856e-001
9.739167e+002;1.826094e-001
9.758453e+002;1.925564e-001
9.777739e+002;2.041647e-001
9.797024e+002;2.167113e-001
9.816309e+002;2.278524e-001
9.835595e+002;2.356598e-001
9.854880e+002;2.401978e-001
9.874166e+002;2.429036e-001
9.893452e+002;2.454090e-001
9.912737e+002;2.483301e-001
9.932022e+002;2.513618e-001
9.951307e+002;2.550939e-001
9.970593e+002;2.591880e-001
9.989879e+002;2.628585e-001
1.000916e+003;2.653854e-001
1.002845e+003;2.674018e-001
1.004773e+003;2.693830e-001
1.006702e+003;2.705340e-001
1.008631e+003;2.719214e-001
1.010559e+003;2.736900e-001
1.012488e+003;2.755947e-001
1.014416e+003;2.777340e-001
1.016345e+003;2.796808e-001
1.018273e+003;2.815805e-001
1.020202e+003;2.838984e-001
1.022130e+003;2.863354e-001
1.024059e+003;2.882465e-001
1.025988e+003;2.902029e-001
1.027916e+003;2.921879e-001
1.029845e+003;2.924246e-001
1.031773e+003;2.913913e-001
1.033702e+003;2.884631e-001
1.035630e+003;2.838612e-001
1.037559e+003;2.788922e-001
1.039487e+003;2.738281e-001
1.041416e+003;2.701887e-001
1.043344e+003;2.692378e-001
1.045273e+003;2.697724e-001
1.047202e+003;2.714592e-001
1.049130e+003;2.738914e-001
1.051059e+003;2.756602e-001
1.052987e+003;2.761933e-001
1.054916e+003;2.757057e-001
1.056844e+003;2.734603e-001
1.058773e+003;2.681819e-001
1.060701e+003;2.594355e-001
1.062630e+003;2.494878e-001
1.064558e+003;2.392051e-001
1.066487e+003;2.294810e-001
1.068416e+003;2.209101e-001
1.070344e+003;2.135674e-001
1.072273e+003;2.079475e-001
1.074201e+003;2.036394e-001
1.076130e+003;2.001415e-001
1.078058e+003;1.963371e-001
1.079987e+003;1.923645e-001
1.081915e+003;1.896274e-001
1.083844e+003;1.883829e-001
1.085773e+003;1.878815e-001
1.087701e+003;1.879515e-001
1.089630e+003;1.882596e-001
1.091558e+003;1.882781e-001
1.093487e+003;1.894738e-001
1.095415e+003;1.910476e-001
1.097344e+003;1.923685e-001
1.099272e+003;1.935700e-001
1.101201e+003;1.944234e-001
1.103129e+003;1.941831e-001
1.105058e+003;1.934343e-001
1.106987e+003;1.923669e-001
1.108915e+003;1.903152e-001
1.110844e+003;1.869002e-001
1.112772e+003;1.828394e-001
1.114701e+003;1.774998e-001
1.116629e+003;1.704328e-001
1.118558e+003;1.627743e-001
1.120486e+003;1.562657e-001
1.122415e+003;1.509389e-001
1.124344e+003;1.460436e-001
1.126272e+003;1.410686e-001
1.128201e+003;1.357674e-001
1.130129e+003;1.310506e-001
1.132058e+003;1.275633e-001
1.133986e+003;1.248261e-001
1.135915e+003;1.228426e-001
1.137843e+003;1.224164e-001
1.139772e+003;1.229150e-001
1.141700e+003;1.243910e-001
1.143629e+003;1.268786e-001
1.145557e+003;1.305018e-001
1.147486e+003;1.339109e-001
1.149415e+003;1.368957e-001
1.151343e+003;1.394078e-001
1.153272e+003;1.416174e-001
1.155200e+003;1.437913e-001
1.157129e+003;1.455315e-001
1.159057e+003;1.463893e-001
1.160986e+003;1.460060e-001
1.162914e+003;1.439807e-001
1.164843e+003;1.404927e-001
1.166771e+003;1.359868e-001
1.168700e+003;1.303336e-001
1.170629e+003;1.242705e-001
1.172557e+003;1.185815e-001
1.174486e+003;1.131816e-001
1.176414e+003;1.088080e-001
1.178343e+003;1.053821e-001
1.180271e+003;1.022060e-001
1.182200e+003;9.936180e-002
1.184128e+003;9.729160e-002
1.186057e+003;9.619574e-002
1.187986e+003;9.574245e-002
1.189914e+003;9.601635e-002
1.191843e+003;9.702127e-002
1.193771e+003;9.854045e-002
1.195700e+003;1.001831e-001
1.197628e+003;1.015673e-001
1.199557e+003;1.024768e-001
1.201485e+003;1.028236e-001
1.203414e+003;1.027110e-001
1.205343e+003;1.020379e-001
1.207271e+003;1.009664e-001
1.209200e+003;9.884067e-002
1.211128e+003;9.571874e-002
1.213057e+003;9.331679e-002
1.214985e+003;9.250186e-002
1.216914e+003;9.282571e-002
1.218842e+003;9.387677e-002
1.220771e+003;9.516108e-002
1.222699e+003;9.647717e-002
1.224628e+003;9.772870e-002
1.226557e+003;9.944524e-002
1.228485e+003;1.013855e-001
1.230414e+003;1.026522e-001
1.232342e+003;1.039209e-001
1.234271e+003;1.054326e-001
1.236199e+003;1.065805e-001
1.238128e+003;1.070774e-001
1.240056e+003;1.075398e-001
1.241985e+003;1.082875e-001
1.243913e+003;1.090114e-001
1.245842e+003;1.098618e-001
1.247771e+003;1.105424e-001
1.249699e+003;1.108139e-001
1.251628e+003;1.115011e-001
1.253556e+003;1.122974e-001
1.255485e+003;1.128962e-001
1.257413e+003;1.138824e-001
1.259342e+003;1.148308e-001
1.261270e+003;1.149015e-001
1.263199e+003;1.145266e-001
1.265127e+003;1.138087e-001
1.267056e+003;1.122527e-001
1.268985e+003;1.106219e-001
1.270913e+003;1.098057e-001
1.272842e+003;1.095691e-001
1.274770e+003;1.093620e-001
1.276699e+003;1.088196e-001
1.278627e+003;1.080112e-001
1.280556e+003;1.070179e-001
1.282484e+003;1.056366e-001
1.284413e+003;1.043522e-001
1.286342e+003;1.033840e-001
1.288270e+003;1.027416e-001
1.290199e+003;1.026188e-001
1.292127e+003;1.028675e-001
1.294056e+003;1.031826e-001
1.295984e+003;1.036618e-001
1.297913e+003;1.047928e-001
1.299841e+003;1.062799e-001
1.301770e+003;1.083569e-001
1.303698e+003;1.108675e-001
1.305627e+003;1.132349e-001
1.307556e+003;1.158973e-001
1.309484e+003;1.186073e-001
1.311413e+003;1.209220e-001
1.313341e+003;1.223701e-001
1.315270e+003;1.225955e-001
1.317198e+003;1.213963e-001
1.319127e+003;1.194991e-001
1.321055e+003;1.174485e-001
1.322984e+003;1.154963e-001
1.324912e+003;1.141248e-001
1.326841e+003;1.134856e-001
1.328770e+003;1.133788e-001
1.330698e+003;1.138007e-001
1.332627e+003;1.143238e-001
1.334555e+003;1.145842e-001
1.336484e+003;1.140910e-001
1.338412e+003;1.127549e-001
1.340341e+003;1.113476e-001
1.342269e+003;1.098153e-001
1.344198e+003;1.081573e-001
1.346126e+003;1.066700e-001
1.348055e+003;1.054899e-001
1.349984e+003;1.049449e-001
1.351912e+003;1.051335e-001
1.353841e+003;1.056609e-001
1.355769e+003;1.062274e-001
1.357698e+003;1.066835e-001
1.359626e+003;1.067295e-001
1.361555e+003;1.060827e-001
1.363483e+003;1.052044e-001
1.365412e+003;1.048234e-001
1.367341e+003;1.041857e-001
1.369269e+003;1.036779e-001
1.371198e+003;1.027495e-001
1.373126e+003;1.005067e-001
1.375055e+003;9.835918e-002
1.376983e+003;9.684632e-002
1.378912e+003;9.484278e-002
1.380840e+003;9.272512e-002
1.382769e+003;9.060467e-002
1.384698e+003;8.840488e-002
1.386626e+003;8.611742e-002
1.388555e+003;8.552518e-002
1.390483e+003;8.582445e-002
1.392412e+003;8.516017e-002
1.394340e+003;8.409458e-002
1.396269e+003;8.449890e-002
1.398197e+003;8.477499e-002
1.400126e+003;8.486067e-002
1.402054e+003;8.509599e-002
1.403983e+003;8.466715e-002
1.405911e+003;8.451243e-002
1.407840e+003;8.473738e-002
1.409769e+003;8.467492e-002
1.411697e+003;8.491223e-002
1.413626e+003;8.529834e-002
1.415554e+003;8.540057e-002
1.417483e+003;8.468518e-002
1.419411e+003;8.504779e-002
1.421340e+003;8.815704e-002
1.423268e+003;9.035455e-002
1.425197e+003;9.159369e-002
1.427125e+003;9.211577e-002
1.429054e+003;9.188853e-002
1.430983e+003;9.218682e-002
1.432911e+003;9.206162e-002
1.434840e+003;8.948062e-002
1.436768e+003;8.704991e-002
1.438697e+003;8.854364e-002
1.440625e+003;8.989134e-002
1.442554e+003;9.045823e-002
1.444482e+003;9.088670e-002
1.446411e+003;9.087139e-002
1.448340e+003;9.121287e-002
1.450268e+003;9.243545e-002
1.452197e+003;9.276696e-002
1.454125e+003;9.043624e-002
1.456054e+003;8.431629e-002
1.457982e+003;8.224313e-002
1.459911e+003;8.399048e-002
1.461839e+003;8.337057e-002
1.463768e+003;8.028831e-002
1.465697e+003;7.811949e-002
1.467625e+003;7.709440e-002
1.469554e+003;7.442576e-002
1.471482e+003;7.000095e-002
1.473411e+003;6.731259e-002
1.475339e+003;6.654460e-002
1.477268e+003;6.558651e-002
1.479196e+003;6.433960e-002
1.481125e+003;6.229927e-002
1.483053e+003;6.032645e-002
1.484982e+003;5.795128e-002
1.486911e+003;5.531085e-002
1.488839e+003;5.285584e-002
1.490768e+003;5.244394e-002
1.492696e+003;5.403812e-002
1.494625e+003;5.300421e-002
1.496553e+003;5.027971e-002
1.498482e+003;4.951568e-002
1.500410e+003;4.901468e-002
1.502339e+003;4.802979e-002
1.504267e+003;4.389974e-002
1.506196e+003;3.928057e-002
1.508125e+003;4.137222e-002
1.510053e+003;4.488246e-002
1.511982e+003;4.561640e-002
1.513910e+003;4.557345e-002
1.515839e+003;4.435535e-002
1.517767e+003;4.363064e-002
1.519696e+003;4.223396e-002
1.521624e+003;4.172946e-002
1.523553e+003;4.436350e-002
1.525481e+003;4.568832e-002
1.527410e+003;4.719368e-002
1.529339e+003;4.885788e-002
1.531267e+003;4.898011e-002
1.533196e+003;4.829445e-002
1.535124e+003;4.977990e-002
1.537053e+003;4.858291e-002
1.538981e+003;4.409529e-002
1.540910e+003;4.497678e-002
1.542838e+003;4.899535e-002
1.544767e+003;5.171080e-002
1.546695e+003;5.388767e-002
1.548624e+003;5.484575e-002
1.550553e+003;5.532862e-002
1.552481e+003;5.502591e-002
1.554410e+003;5.380058e-002
1.556338e+003;5.117621e-002
1.558267e+003;4.616788e-002
1.560195e+003;4.795038e-002
1.562124e+003;5.380332e-002
1.564052e+003;5.547365e-002
1.565981e+003;5.523593e-002
1.567910e+003;5.375723e-002
1.569838e+003;5.272039e-002
1.571767e+003;5.399876e-002
1.573695e+003;5.293275e-002
1.575624e+003;4.975438e-002
1.577552e+003;5.133236e-002
1.579481e+003;5.395066e-002
1.581409e+003;5.427800e-002
1.583338e+003;5.438922e-002
1.585266e+003;5.439723e-002
1.587195e+003;5.423231e-002
1.589124e+003;5.372040e-002
1.591052e+003;5.338984e-002
1.592981e+003;5.329461e-002
1.594909e+003;5.338606e-002
1.596838e+003;5.387447e-002
1.598766e+003;5.428405e-002
1.600695e+003;5.439321e-002
1.602623e+003;5.471822e-002
1.604552e+003;5.467830e-002
1.606480e+003;5.421332e-002
1.608409e+003;5.363016e-002
1.610338e+003;5.336650e-002
1.612266e+003;5.345815e-002
1.614195e+003;5.206134e-002
1.616123e+003;4.905066e-002
1.618052e+003;5.049125e-002
1.619980e+003;5.305336e-002
1.621909e+003;5.259041e-002
1.623837e+003;5.240925e-002
1.625766e+003;5.319569e-002
1.627694e+003;5.360365e-002
1.629623e+003;5.438044e-002
1.631552e+003;5.476524e-002
1.633480e+003;5.255402e-002
1.635409e+003;5.017377e-002
1.637337e+003;5.268717e-002
1.639266e+003;5.530205e-002
1.641194e+003;5.591565e-002
1.643123e+003;5.535112e-002
1.645051e+003;5.300862e-002
1.646980e+003;5.274905e-002
1.648909e+003;5.493291e-002
1.650837e+003;5.163642e-002
1.652766e+003;4.636858e-002
1.654694e+003;5.140952e-002
1.656623e+003;5.727408e-002
1.658551e+003;5.851028e-002
1.660480e+003;5.782355e-002
1.662408e+003;5.670341e-002
1.664337e+003;5.737273e-002
1.666266e+003;5.750555e-002
1.668194e+003;5.534333e-002
1.670123e+003;5.457234e-002
1.672051e+003;5.528677e-002
1.673980e+003;5.373728e-002
1.675908e+003;5.303430e-002
1.677837e+003;5.430992e-002
1.679765e+003;5.384697e-002
1.681694e+003;5.142694e-002
1.683622e+003;4.652946e-002
1.685551e+003;4.752607e-002
1.687479e+003;5.154288e-002
1.689408e+003;5.235370e-002
1.691337e+003;5.252773e-002
1.693265e+003;5.081983e-002
1.695194e+003;4.671601e-002
1.697122e+003;4.687396e-002
1.699051e+003;4.598526e-002
1.700979e+003;4.664702e-002
1.702908e+003;5.107401e-002
1.704836e+003;5.210352e-002
1.706765e+003;5.345864e-002
1.708693e+003;5.518615e-002
1.710622e+003;5.668733e-002
1.712551e+003;5.769274e-002
1.714479e+003;5.879362e-002
1.716408e+003;6.001738e-002
1.718336e+003;6.594288e-002
1.720265e+003;7.567382e-002
1.722193e+003;8.373880e-002
1.724122e+003;9.073601e-002
1.726050e+003;9.700454e-002
1.727979e+003;1.011301e-001
1.729908e+003;1.028079e-001
1.731836e+003;9.997464e-002
1.733765e+003;9.423783e-002
1.735693e+003;9.165752e-002
1.737622e+003;8.640028e-002
1.739550e+003;7.690497e-002
1.741479e+003;6.864891e-002
1.743407e+003;6.072666e-002
1.745336e+003;5.315955e-002
1.747265e+003;4.617850e-002
1.749193e+003;4.024670e-002
1.751122e+003;3.624675e-002
1.753050e+003;3.502493e-002
1.754979e+003;3.319165e-002
1.756907e+003;3.105058e-002
1.758836e+003;3.008720e-002
1.760764e+003;2.849508e-002
1.762693e+003;2.764648e-002
1.764621e+003;2.782233e-002
1.766550e+003;2.654386e-002
1.768479e+003;2.533530e-002
1.770407e+003;2.387430e-002
1.772336e+003;2.243236e-002
1.774264e+003;2.393259e-002
1.776193e+003;2.511583e-002
1.778121e+003;2.491977e-002
1.780050e+003;2.437203e-002
1.781978e+003;2.429475e-002
1.783907e+003;2.375211e-002
1.785835e+003;2.358307e-002
1.787764e+003;2.391085e-002
1.789693e+003;2.287112e-002
1.791621e+003;2.121597e-002
1.793550e+003;2.171613e-002
1.795478e+003;2.298423e-002
1.797407e+003;2.280784e-002
1.799335e+003;2.221707e-002
1.801264e+003;2.211651e-002
1.803192e+003;2.252037e-002
1.805121e+003;2.254825e-002
1.807049e+003;2.236234e-002
1.808978e+003;2.194306e-002
1.810907e+003;2.164480e-002
1.812835e+003;2.198578e-002
1.814764e+003;2.236464e-002
1.816692e+003;2.225038e-002
1.818621e+003;2.225613e-002
1.820549e+003;2.214423e-002
1.822478e+003;2.165800e-002
1.824406e+003;2.095820e-002
1.826335e+003;2.083755e-002
1.828264e+003;2.020193e-002
1.830192e+003;1.994504e-002
1.832121e+003;2.091178e-002
1.834049e+003;2.131260e-002
1.835978e+003;2.101585e-002
1.837906e+003;2.100038e-002
1.839835e+003;2.119398e-002
1.841763e+003;2.025751e-002
1.843692e+003;1.857036e-002
1.845620e+003;1.916571e-002
1.847549e+003;2.035987e-002
1.849478e+003;2.048607e-002
1.851406e+003;2.057382e-002
1.853335e+003;2.063709e-002
1.855263e+003;2.047232e-002
1.857192e+003;2.043686e-002
1.859120e+003;2.046322e-002
1.861049e+003;2.043783e-002
1.862977e+003;2.036987e-002
1.864906e+003;2.027709e-002
1.866834e+003;1.965574e-002
1.868763e+003;1.909015e-002
1.870692e+003;1.957927e-002
1.872620e+003;2.029633e-002
1.874549e+003;2.055687e-002
1.876477e+003;2.038449e-002
1.878406e+003;2.024411e-002
1.880334e+003;2.031469e-002
1.882263e+003;2.031907e-002
1.884191e+003;2.030761e-002
1.886120e+003;2.012995e-002
1.888048e+003;1.963473e-002
1.889977e+003;1.949900e-002
1.891906e+003;1.992239e-002
1.893834e+003;2.002477e-002
1.895763e+003;2.002792e-002
1.897691e+003;1.997949e-002
1.899620e+003;1.991215e-002
1.901548e+003;1.980297e-002
1.903477e+003;1.970043e-002
1.905405e+003;1.973018e-002
1.907334e+003;1.968317e-002
1.909262e+003;1.960496e-002
1.911191e+003;1.982135e-002
1.913120e+003;2.002560e-002
1.915048e+003;1.994320e-002
1.916977e+003;1.930331e-002
1.918905e+003;1.929704e-002
1.920834e+003;1.962655e-002
1.922762e+003;1.963487e-002
1.924691e+003;2.004895e-002
1.926619e+003;2.041335e-002
1.928548e+003;2.050757e-002
1.930477e+003;2.054884e-002
1.932405e+003;2.060943e-002
1.934334e+003;2.062906e-002
1.936262e+003;2.069853e-002
1.938191e+003;2.085966e-002
1.940119e+003;2.060235e-002
1.942048e+003;2.015560e-002
1.943976e+003;2.023894e-002
1.945905e+003;2.054092e-002
1.947833e+003;2.082699e-002
1.949762e+003;2.109188e-002
1.951691e+003;2.110388e-002
1.953619e+003;2.108493e-002
1.955548e+003;2.115380e-002
1.957476e+003;2.111540e-002
1.959405e+003;2.097252e-002
1.961333e+003;2.092211e-002
1.963262e+003;2.107348e-002
1.965190e+003;2.095041e-002
1.967119e+003;2.071882e-002
1.969047e+003;2.100740e-002
1.970976e+003;2.129092e-002
1.972905e+003;2.123476e-002
1.974833e+003;2.102830e-002
1.976762e+003;2.091515e-002
1.978690e+003;2.089307e-002
1.980619e+003;2.098539e-002
1.982547e+003;2.090966e-002
1.984476e+003;2.093939e-002
1.986404e+003;2.098195e-002
1.988333e+003;2.091592e-002
1.990261e+003;2.098268e-002
1.992190e+003;2.104795e-002
1.994119e+003;2.113143e-002
1.996047e+003;2.131124e-002
1.997976e+003;2.156616e-002
1.999904e+003;2.165706e-002
2.001833e+003;2.159259e-002
2.003761e+003;2.142882e-002
2.005690e+003;2.127951e-002
2.007618e+003;2.138638e-002
2.009547e+003;2.144354e-002
2.011476e+003;2.165357e-002
2.013404e+003;2.192643e-002
2.015333e+003;2.178270e-002
2.017261e+003;2.164838e-002
2.019190e+003;2.190779e-002
2.021118e+003;2.208757e-002
2.023047e+003;2.214587e-002
2.024975e+003;2.230611e-002
2.026904e+003;2.238226e-002
2.028833e+003;2.223998e-002
2.030761e+003;2.208461e-002
2.032690e+003;2.213823e-002
2.034618e+003;2.233119e-002
2.036547e+003;2.257760e-002
2.038475e+003;2.267520e-002
2.040404e+003;2.261345e-002
2.042332e+003;2.269684e-002
2.044261e+003;2.270033e-002
2.046189e+003;2.274820e-002
2.048118e+003;2.284402e-002
2.050047e+003;2.287077e-002
2.051975e+003;2.297364e-002
2.053904e+003;2.282719e-002
2.055832e+003;2.245333e-002
2.057761e+003;2.220647e-002
2.059689e+003;2.214074e-002
2.061618e+003;2.221365e-002
2.063546e+003;2.227340e-002
2.065475e+003;2.240853e-002
2.067404e+003;2.239315e-002
2.069332e+003;2.227702e-002
2.071260e+003;2.235435e-002
2.073189e+003;2.231898e-002
2.075118e+003;2.213265e-002
2.077046e+003;2.205693e-002
2.078975e+003;2.214499e-002
2.080903e+003;2.219608e-002
2.082832e+003;2.212791e-002
2.084760e+003;2.214548e-002
2.086689e+003;2.211574e-002
2.088617e+003;2.208276e-002
2.090546e+003;2.186663e-002
2.092475e+003;2.169234e-002
2.094403e+003;2.182311e-002
2.096332e+003;2.196107e-002
2.098260e+003;2.195818e-002
2.100189e+003;2.199307e-002
2.102117e+003;2.221773e-002
2.104046e+003;2.245905e-002
2.105974e+003;2.236143e-002
2.107903e+003;2.232097e-002
2.109832e+003;2.248030e-002
2.111760e+003;2.238784e-002
2.113688e+003;2.228009e-002
2.115617e+003;2.241171e-002
2.117546e+003;2.246711e-002
2.119474e+003;2.216358e-002
2.121403e+003;2.213701e-002
2.123331e+003;2.261051e-002
2.125260e+003;2.295949e-002
2.127188e+003;2.301948e-002
2.129117e+003;2.305459e-002
2.131045e+003;2.306214e-002
2.132974e+003;2.297312e-002
2.134903e+003;2.295390e-002
2.136831e+003;2.284772e-002
2.138760e+003;2.284926e-002
2.140688e+003;2.275728e-002
2.142617e+003;2.255987e-002
2.144545e+003;2.236918e-002
2.146474e+003;2.231274e-002
2.148402e+003;2.236472e-002
2.150331e+003;2.243833e-002
2.152260e+003;2.256032e-002
2.154188e+003;2.258814e-002
2.156117e+003;2.233625e-002
2.158045e+003;2.217254e-002
2.159974e+003;2.187419e-002
2.161902e+003;2.138179e-002
2.163831e+003;2.119614e-002
2.165759e+003;2.105508e-002
2.167688e+003;2.108034e-002
2.169616e+003;2.133978e-002
2.171545e+003;2.143178e-002
2.173474e+003;2.132677e-002
2.175402e+003;2.126677e-002
2.177331e+003;2.121061e-002
2.179259e+003;2.096713e-002
2.181188e+003;2.071483e-002
2.183116e+003;2.075031e-002
2.185045e+003;2.086766e-002
2.186973e+003;2.089255e-002
2.188902e+003;2.076727e-002
2.190831e+003;2.046909e-002
2.192759e+003;2.037563e-002
2.194688e+003;2.045735e-002
2.196616e+003;2.038553e-002
2.198545e+003;2.017215e-002
2.200473e+003;2.026609e-002
2.202402e+003;2.041640e-002
2.204330e+003;2.025394e-002
2.206259e+003;2.006040e-002
2.208188e+003;1.988322e-002
2.210116e+003;1.986054e-002
2.212044e+003;2.006828e-002
2.213973e+003;2.018350e-002
2.215902e+003;2.028206e-002
2.217830e+003;2.030917e-002
2.219759e+003;2.030646e-002
2.221687e+003;2.037025e-002
2.223616e+003;2.011239e-002
2.225544e+003;2.007536e-002
2.227473e+003;2.020770e-002
2.229401e+003;2.007522e-002
2.231330e+003;2.017816e-002
2.233259e+003;2.045085e-002
2.235187e+003;2.056364e-002
2.237116e+003;2.065822e-002
2.239044e+003;2.048649e-002
2.240973e+003;2.017642e-002
2.242901e+003;2.018378e-002
2.244830e+003;2.032900e-002
2.246758e+003;2.033400e-002
2.248687e+003;2.033990e-002
2.250615e+003;2.031771e-002
2.252544e+003;2.008577e-002
2.254473e+003;1.998379e-002
2.256401e+003;1.997210e-002
2.258330e+003;2.000097e-002
2.260258e+003;2.009403e-002
2.262187e+003;2.012672e-002
2.264115e+003;1.980324e-002
2.266044e+003;1.957463e-002
2.267972e+003;1.965456e-002
2.269901e+003;1.969658e-002
2.271830e+003;1.967991e-002
2.273758e+003;1.958963e-002
2.275687e+003;1.958305e-002
2.277615e+003;1.958301e-002
2.279544e+003;1.941137e-002
2.281472e+003;1.938479e-002
2.283401e+003;1.954860e-002
2.285329e+003;1.958905e-002
2.287258e+003;1.956468e-002
2.289187e+003;1.941798e-002
2.291115e+003;1.931505e-002
2.293043e+003;1.931807e-002
2.294972e+003;1.917811e-002
2.296901e+003;1.918832e-002
2.298829e+003;1.932281e-002
2.300758e+003;1.918004e-002
2.302686e+003;1.891749e-002
2.304615e+003;1.905390e-002
2.306543e+003;1.922766e-002
2.308472e+003;1.909725e-002
2.310400e+003;1.900260e-002
2.312329e+003;1.901174e-002
2.314258e+003;1.907128e-002
2.316186e+003;1.904456e-002
2.318115e+003;1.899184e-002
2.320043e+003;1.891261e-002
2.321972e+003;1.886485e-002
2.323900e+003;1.886634e-002
2.325829e+003;1.875492e-002
2.327757e+003;1.871784e-002
2.329686e+003;1.866194e-002
2.331615e+003;1.833250e-002
2.333543e+003;1.819496e-002
2.335472e+003;1.850355e-002
2.337400e+003;1.873375e-002
2.339329e+003;1.901139e-002
2.341257e+003;1.924560e-002
2.343186e+003;1.935423e-002
2.345114e+003;1.951557e-002
2.347043e+003;1.955009e-002
2.348971e+003;1.970851e-002
2.350900e+003;2.013463e-002
2.352829e+003;2.024942e-002
2.354757e+003;2.000353e-002
2.356686e+003;1.987903e-002
2.358614e+003;1.986876e-002
2.360543e+003;1.985829e-002
2.362471e+003;1.973944e-002
2.364400e+003;1.965855e-002
2.366328e+003;1.986304e-002
2.368257e+003;2.031282e-002
2.370186e+003;2.092593e-002
2.372114e+003;2.115074e-002
2.374042e+003;2.134194e-002
2.375971e+003;2.161655e-002
2.377900e+003;2.190657e-002
2.379828e+003;2.220368e-002
2.381757e+003;2.241087e-002
2.383685e+003;2.249405e-002
2.385614e+003;2.273975e-002
2.387542e+003;2.292645e-002
2.389471e+003;2.313905e-002
2.391399e+003;2.311308e-002
2.393328e+003;2.298957e-002
2.395257e+003;2.318309e-002
2.397185e+003;2.326621e-002
2.399114e+003;2.320346e-002
2.401042e+003;2.324841e-002
2.402971e+003;2.331533e-002
2.404899e+003;2.334763e-002
2.406828e+003;2.343547e-002
2.408756e+003;2.344075e-002
2.410685e+003;2.349713e-002
2.412614e+003;2.371858e-002
2.414542e+003;2.409763e-002
2.416471e+003;2.431802e-002
2.418399e+003;2.436765e-002
2.420328e+003;2.452086e-002
2.422256e+003;2.479584e-002
2.424185e+003;2.497230e-002
2.426113e+003;2.515746e-002
2.428042e+003;2.527071e-002
2.429970e+003;2.542084e-002
2.431899e+003;2.563484e-002
2.433828e+003;2.548847e-002
2.435756e+003;2.552340e-002
2.437685e+003;2.589882e-002
2.439613e+003;2.599431e-002
2.441542e+003;2.597447e-002
2.443470e+003;2.620701e-002
2.445399e+003;2.636246e-002
2.447327e+003;2.623429e-002
2.449256e+003;2.629265e-002
2.451185e+003;2.664376e-002
2.453113e+003;2.688812e-002
2.455042e+003;2.682671e-002
2.456970e+003;2.680972e-002
2.458899e+003;2.675556e-002
2.460827e+003;2.669865e-002
2.462756e+003;2.689904e-002
2.464684e+003;2.738338e-002
2.466613e+003;2.769009e-002
2.468542e+003;2.791999e-002
2.470470e+003;2.806237e-002
2.472398e+003;2.797974e-002
2.474327e+003;2.785851e-002
2.476256e+003;2.793048e-002
2.478184e+003;2.825660e-002
2.480113e+003;2.826311e-002
2.482041e+003;2.820675e-002
2.483970e+003;2.851832e-002
2.485898e+003;2.875220e-002
2.487827e+003;2.848326e-002
2.489755e+003;2.837685e-002
2.491684e+003;2.832302e-002
2.493613e+003;2.853170e-002
2.495541e+003;2.877245e-002
2.497470e+003;2.900146e-002
2.499398e+003;2.923482e-002
2.501327e+003;2.937306e-002
2.503255e+003;2.932828e-002
2.505184e+003;2.924725e-002
2.507112e+003;2.932197e-002
2.509041e+003;2.966039e-002
2.510969e+003;3.006735e-002
2.512898e+003;3.042813e-002
2.514827e+003;3.049875e-002
2.516755e+003;3.055047e-002
2.518684e+003;3.075293e-002
2.520612e+003;3.080159e-002
2.522541e+003;3.085936e-002
2.524469e+003;3.105282e-002
2.526398e+003;3.117914e-002
2.528326e+003;3.118117e-002
2.530255e+003;3.114038e-002
2.532184e+003;3.131986e-002
2.534112e+003;3.150615e-002
2.536041e+003;3.163532e-002
2.537969e+003;3.168814e-002
2.539898e+003;3.158247e-002
2.541826e+003;3.163075e-002
2.543755e+003;3.199523e-002
2.545683e+003;3.192843e-002
2.547612e+003;3.154470e-002
2.549541e+003;3.156337e-002
2.551469e+003;3.201699e-002
2.553397e+003;3.221403e-002
2.555326e+003;3.212968e-002
2.557255e+003;3.235808e-002
2.559183e+003;3.246815e-002
2.561112e+003;3.251268e-002
2.563040e+003;3.235555e-002
2.564969e+003;3.204898e-002
2.566897e+003;3.210264e-002
2.568826e+003;3.246783e-002
2.570754e+003;3.270862e-002
2.572683e+003;3.267144e-002
2.574612e+003;3.275575e-002
2.576540e+003;3.318164e-002
2.578469e+003;3.335413e-002
2.580397e+003;3.299899e-002
2.582326e+003;3.297100e-002
2.584254e+003;3.344098e-002
2.586183e+003;3.362585e-002
2.588111e+003;3.370756e-002
2.590040e+003;3.376364e-002
2.591969e+003;3.382943e-002
2.593897e+003;3.375551e-002
2.595826e+003;3.355085e-002
2.597754e+003;3.356238e-002
2.599683e+003;3.360147e-002
2.601611e+003;3.385361e-002
2.603540e+003;3.419726e-002
2.605468e+003;3.431307e-002
2.607397e+003;3.429776e-002
2.609325e+003;3.443924e-002
2.611254e+003;3.469089e-002
2.613183e+003;3.492244e-002
2.615111e+003;3.497038e-002
2.617040e+003;3.482094e-002
2.618968e+003;3.489386e-002
2.620897e+003;3.502935e-002
2.622825e+003;3.546359e-002
2.624754e+003;3.565034e-002
2.626682e+003;3.556312e-002
2.628611e+003;3.577121e-002
2.630540e+003;3.608729e-002
2.632468e+003;3.608675e-002
2.634396e+003;3.609752e-002
2.636325e+003;3.620281e-002
2.638254e+003;3.610562e-002
2.640182e+003;3.617115e-002
2.642111e+003;3.648486e-002
2.644039e+003;3.685090e-002
2.645968e+003;3.686468e-002
2.647896e+003;3.668563e-002
2.649825e+003;3.691756e-002
2.651753e+003;3.748400e-002
2.653682e+003;3.750156e-002
2.655611e+003;3.710241e-002
2.657539e+003;3.728044e-002
2.659468e+003;3.744474e-002
2.661396e+003;3.780079e-002
2.663325e+003;3.805053e-002
2.665253e+003;3.781174e-002
2.667182e+003;3.775434e-002
2.669110e+003;3.814382e-002
2.671039e+003;3.845121e-002
2.672968e+003;3.865518e-002
2.674896e+003;3.886500e-002
2.676825e+003;3.901617e-002
2.678753e+003;3.906463e-002
2.680682e+003;3.927546e-002
2.682610e+003;3.958492e-002
2.684539e+003;3.987037e-002
2.686467e+003;4.004442e-002
2.688396e+003;4.004645e-002
2.690324e+003;4.012425e-002
2.692253e+003;4.032759e-002
2.694182e+003;4.038191e-002
2.696110e+003;4.074453e-002
2.698039e+003;4.110020e-002
2.699967e+003;4.113822e-002
2.701896e+003;4.101334e-002
2.703824e+003;4.112125e-002
2.705753e+003;4.139642e-002
2.707681e+003;4.169907e-002
2.709610e+003;4.195548e-002
2.711539e+003;4.211390e-002
2.713467e+003;4.229071e-002
2.715396e+003;4.261504e-002
2.717324e+003;4.296497e-002
2.719253e+003;4.309554e-002
2.721181e+003;4.324566e-002
2.723110e+003;4.333070e-002
2.725038e+003;4.335490e-002
2.726967e+003;4.324852e-002
2.728896e+003;4.312397e-002
2.730824e+003;4.349621e-002
2.732752e+003;4.399092e-002
2.734681e+003;4.382856e-002
2.736610e+003;4.379986e-002
2.738538e+003;4.428541e-002
2.740467e+003;4.423673e-002
2.742395e+003;4.400375e-002
2.744324e+003;4.423522e-002
2.746252e+003;4.426432e-002
2.748181e+003;4.420033e-002
2.750109e+003;4.419421e-002
2.752038e+003;4.431084e-002
2.753967e+003;4.460551e-002
2.755895e+003;4.482738e-002
2.757824e+003;4.506488e-002
2.759752e+003;4.542988e-002
2.761681e+003;4.524907e-002
2.763609e+003;4.484674e-002
2.765538e+003;4.496602e-002
2.767466e+003;4.518197e-002
2.769395e+003;4.554982e-002
2.771323e+003;4.587558e-002
2.773252e+003;4.605665e-002
2.775181e+003;4.627204e-002
2.777109e+003;4.634808e-002
2.779038e+003;4.645371e-002
2.780966e+003;4.670203e-002
2.782895e+003;4.705253e-002
2.784823e+003;4.728390e-002
2.786752e+003;4.771508e-002
2.788680e+003;4.795301e-002
2.790609e+003;4.765613e-002
2.792538e+003;4.747927e-002
2.794466e+003;4.797129e-002
2.796395e+003;4.868816e-002
2.798323e+003;4.904476e-002
2.800252e+003;4.919372e-002
2.802180e+003;4.971247e-002
2.804109e+003;5.047811e-002
2.806037e+003;5.099985e-002
2.807966e+003;5.132557e-002
2.809895e+003;5.162366e-002
2.811823e+003;5.153538e-002
2.813751e+003;5.169028e-002
2.815680e+003;5.235205e-002
2.817609e+003;5.316176e-002
2.819537e+003;5.378681e-002
2.821466e+003;5.422173e-002
2.823394e+003;5.475212e-002
2.825323e+003;5.511366e-002
2.827251e+003;5.570800e-002
2.829180e+003;5.658548e-002
2.831108e+003;5.735314e-002
2.833037e+003;5.839046e-002
2.834966e+003;5.903360e-002
2.836894e+003;5.995975e-002
2.838823e+003;6.171623e-002
2.840751e+003;6.331731e-002
2.842680e+003;6.503661e-002
2.844608e+003;6.687686e-002
2.846537e+003;6.869847e-002
2.848465e+003;7.093349e-002
2.850394e+003;7.315278e-002
2.852323e+003;7.383169e-002
2.854251e+003;7.317870e-002
2.856180e+003;7.276726e-002
2.858108e+003;7.319918e-002
2.860037e+003;7.411385e-002
2.861965e+003;7.514764e-002
2.863894e+003;7.606710e-002
2.865822e+003;7.699588e-002
2.867751e+003;7.834221e-002
2.869679e+003;7.923289e-002
2.871608e+003;7.996766e-002
2.873536e+003;8.050769e-002
2.875465e+003;8.057737e-002
2.877394e+003;8.028959e-002
2.879322e+003;8.021115e-002
2.881251e+003;8.009730e-002
2.883179e+003;8.007347e-002
2.885108e+003;8.019046e-002
2.887036e+003;8.059165e-002
2.888965e+003;8.093324e-002
2.890893e+003;8.109005e-002
2.892822e+003;8.165975e-002
2.894750e+003;8.199542e-002
2.896679e+003;8.263800e-002
2.898608e+003;8.353440e-002
2.900536e+003;8.375334e-002
2.902465e+003;8.353212e-002
2.904393e+003;8.334645e-002
2.906322e+003;8.368424e-002
2.908250e+003;8.381583e-002
2.910179e+003;8.390670e-002
2.912107e+003;8.427497e-002
2.914036e+003;8.463739e-002
2.915965e+003;8.491643e-002
2.917893e+003;8.484741e-002
2.919822e+003;8.494427e-002
2.921750e+003;8.461553e-002
2.923679e+003;8.343895e-002
2.925607e+003;8.207358e-002
2.927536e+003;8.118730e-002
2.929464e+003;8.020206e-002
2.931393e+003;7.896463e-002
2.933322e+003;7.828595e-002
2.935250e+003;7.774471e-002
2.937178e+003;7.688647e-002
2.939107e+003;7.583646e-002
2.941036e+003;7.513861e-002
2.942964e+003;7.443619e-002
2.944893e+003;7.340672e-002
2.946821e+003;7.270732e-002
2.948750e+003;7.260364e-002
2.950678e+003;7.259902e-002
2.952607e+003;7.251135e-002
2.954535e+003;7.218917e-002
2.956464e+003;7.200861e-002
2.958393e+003;7.226485e-002
2.960321e+003;7.188641e-002
2.962250e+003;7.092007e-002
2.964178e+003;6.971508e-002
2.966107e+003;6.792012e-002
2.968035e+003;6.638218e-002
2.969964e+003;6.487888e-002
2.971892e+003;6.324782e-002
2.973821e+003;6.158349e-002
2.975750e+003;5.958325e-002
2.977678e+003;5.812742e-002
2.979607e+003;5.652158e-002
2.981535e+003;5.505663e-002
2.983464e+003;5.385504e-002
2.985392e+003;5.266637e-002
2.987321e+003;5.124667e-002
2.989249e+003;5.024143e-002
2.991178e+003;4.987381e-002
2.993106e+003;4.912511e-002
2.995035e+003;4.838185e-002
2.996964e+003;4.811781e-002
2.998892e+003;4.783702e-002
3.000821e+003;4.753334e-002
3.002749e+003;4.732561e-002
3.004678e+003;4.698869e-002
3.006606e+003;4.668044e-002
3.008535e+003;4.686875e-002
3.010463e+003;4.712281e-002
3.012392e+003;4.704031e-002
3.014321e+003;4.669055e-002
3.016249e+003;4.659486e-002
3.018177e+003;4.701812e-002
3.020106e+003;4.756995e-002
3.022035e+003;4.789991e-002
3.023963e+003;4.798483e-002
3.025892e+003;4.812551e-002
3.027820e+003;4.864791e-002
3.029749e+003;4.920682e-002
3.031677e+003;4.947026e-002
3.033606e+003;4.960088e-002
3.035534e+003;4.973246e-002
3.037463e+003;4.986634e-002
3.039392e+003;4.955374e-002
3.041320e+003;4.944465e-002
3.043249e+003;4.969921e-002
3.045177e+003;4.956637e-002
3.047106e+003;4.956711e-002
3.049034e+003;4.976809e-002
3.050963e+003;5.001752e-002
3.052891e+003;5.050718e-002
3.054820e+003;5.075692e-002
3.056749e+003;5.090443e-002
3.058677e+003;5.135831e-002
3.060606e+003;5.169420e-002
3.062534e+003;5.167524e-002
3.064463e+003;5.146883e-002
3.066391e+003;5.178187e-002
3.068320e+003;5.273161e-002
3.070248e+003;5.311637e-002
3.072177e+003;5.321528e-002
3.074105e+003;5.314124e-002
3.076034e+003;5.304774e-002
3.077963e+003;5.345583e-002
3.079891e+003;5.370559e-002
3.081820e+003;5.401620e-002
3.083748e+003;5.445082e-002
3.085677e+003;5.488519e-002
3.087605e+003;5.562232e-002
3.089534e+003;5.579571e-002
3.091462e+003;5.566518e-002
3.093391e+003;5.581334e-002
3.095320e+003;5.638118e-002
3.097248e+003;5.665781e-002
3.099177e+003;5.696472e-002
3.101105e+003;5.780515e-002
3.103034e+003;5.835373e-002
3.104962e+003;5.814163e-002
3.106891e+003;5.790335e-002
3.108819e+003;5.802149e-002
3.110748e+003;5.804341e-002
3.112677e+003;5.830799e-002
3.114605e+003;5.867774e-002
3.116533e+003;5.906724e-002
3.118462e+003;5.931565e-002
3.120391e+003;5.998714e-002
3.122319e+003;6.028553e-002
3.124248e+003;6.022634e-002
3.126176e+003;6.121046e-002
3.128105e+003;6.234581e-002
3.130033e+003;6.245464e-002
3.131962e+003;6.215457e-002
3.133890e+003;6.218382e-002
3.135819e+003;6.256328e-002
3.137748e+003;6.293789e-002
3.139676e+003;6.359717e-002
3.141605e+003;6.393993e-002
3.143533e+003;6.422953e-002
3.145462e+003;6.472909e-002
3.147390e+003;6.518535e-002
3.149319e+003;6.548298e-002
3.151247e+003;6.566054e-002
3.153176e+003;6.612337e-002
3.155104e+003;6.671023e-002
3.157033e+003;6.728133e-002
3.158962e+003;6.774225e-002
3.160890e+003;6.812295e-002
3.162819e+003;6.842213e-002
3.164747e+003;6.914423e-002
3.166676e+003;6.941298e-002
3.168604e+003;6.954040e-002
3.170533e+003;7.004709e-002
3.172461e+003;7.059722e-002
3.174390e+003;7.075723e-002
3.176319e+003;7.067460e-002
3.178247e+003;7.110417e-002
3.180176e+003;7.177554e-002
3.182104e+003;7.254020e-002
3.184033e+003;7.291470e-002
3.185961e+003;7.286689e-002
3.187890e+003;7.316145e-002
3.189818e+003;7.375346e-002
3.191747e+003;7.455840e-002
3.193676e+003;7.549806e-002
3.195604e+003;7.578395e-002
3.197532e+003;7.556399e-002
3.199461e+003;7.576868e-002
3.201390e+003;7.656029e-002
3.203318e+003;7.696613e-002
3.205247e+003;7.683647e-002
3.207175e+003;7.766038e-002
3.209104e+003;7.884614e-002
3.211032e+003;7.931994e-002
3.212961e+003;7.932825e-002
3.214889e+003;7.981827e-002
3.216818e+003;8.051798e-002
3.218747e+003;8.113865e-002
3.220675e+003;8.108038e-002
3.222604e+003;8.127598e-002
3.224532e+003;8.191695e-002
3.226461e+003;8.230592e-002
3.228389e+003;8.307391e-002
3.230318e+003;8.363526e-002
3.232246e+003;8.402152e-002
3.234175e+003;8.447109e-002
3.236104e+003;8.507314e-002
3.238032e+003;8.579578e-002
3.239961e+003;8.639050e-002
3.241889e+003;8.684966e-002
3.243818e+003;8.728265e-002
3.245746e+003;8.824611e-002
3.247675e+003;8.890163e-002
3.249603e+003;8.954145e-002
3.251532e+003;9.035998e-002
3.253460e+003;9.126111e-002
3.255389e+003;9.153719e-002
3.257318e+003;9.154112e-002
3.259246e+003;9.209923e-002
3.261175e+003;9.244094e-002
3.263103e+003;9.258649e-002
3.265032e+003;9.308165e-002
3.266960e+003;9.366077e-002
3.268889e+003;9.432346e-002
3.270817e+003;9.465086e-002
3.272746e+003;9.455384e-002
3.274675e+003;9.489810e-002
3.276603e+003;9.503116e-002
3.278531e+003;9.541257e-002
3.280460e+003;9.593717e-002
3.282389e+003;9.622001e-002
3.284317e+003;9.663211e-002
3.286246e+003;9.725288e-002
3.288174e+003;9.717848e-002
3.290103e+003;9.674251e-002
3.292031e+003;9.635922e-002
3.293960e+003;9.623402e-002
3.295888e+003;9.631405e-002
3.297817e+003;9.658526e-002
3.299746e+003;9.667072e-002
3.301674e+003;9.648515e-002
3.303603e+003;9.665421e-002
3.305531e+003;9.728343e-002
3.307460e+003;9.735146e-002
3.309388e+003;9.684483e-002
3.311317e+003;9.651858e-002
3.313245e+003;9.685646e-002
3.315174e+003;9.724065e-002
3.317103e+003;9.772210e-002
3.319031e+003;9.841952e-002
3.320960e+003;9.851933e-002
3.322888e+003;9.778012e-002
3.324817e+003;9.783734e-002
3.326745e+003;9.834298e-002
3.328674e+003;9.871755e-002
3.330602e+003;9.944103e-002
3.332531e+003;9.985119e-002
3.334459e+003;9.947144e-002
3.336388e+003;9.852032e-002
3.338317e+003;9.724517e-002
3.340245e+003;9.682015e-002
3.342174e+003;9.688446e-002
3.344102e+003;9.657967e-002
3.346031e+003;9.593201e-002
3.347959e+003;9.522082e-002
3.349888e+003;9.488796e-002
3.351816e+003;9.430901e-002
3.353745e+003;9.371623e-002
3.355674e+003;9.345713e-002
3.357602e+003;9.337393e-002
3.359531e+003;9.312390e-002
3.361459e+003;9.198459e-002
3.363388e+003;9.081772e-002
3.365316e+003;9.072454e-002
3.367245e+003;9.095076e-002
3.369173e+003;9.007183e-002
3.371102e+003;8.909184e-002
3.373031e+003;8.886223e-002
3.374959e+003;8.836569e-002
3.376887e+003;8.818273e-002
3.378816e+003;8.771328e-002
3.380745e+003;8.667616e-002
3.382673e+003;8.616623e-002
3.384602e+003;8.607860e-002
3.386530e+003;8.602528e-002
3.388459e+003;8.542260e-002
3.390387e+003;8.460989e-002
3.392316e+003;8.444872e-002
3.394244e+003;8.507793e-002
3.396173e+003;8.482893e-002
3.398102e+003;8.397166e-002
3.400030e+003;8.338551e-002
3.401959e+003;8.281495e-002
3.403887e+003;8.224649e-002
3.405816e+003;8.191067e-002
3.407744e+003;8.181085e-002
3.409673e+003;8.173741e-002
3.411601e+003;8.149619e-002
3.413530e+003;8.100171e-002
3.415458e+003;7.966463e-002
3.417387e+003;7.862549e-002
3.419316e+003;7.792732e-002
3.421244e+003;7.687792e-002
3.423173e+003;7.622871e-002
3.425101e+003;7.638627e-002
3.427030e+003;7.626548e-002
3.428958e+003;7.536285e-002
3.430887e+003;7.471944e-002
3.432815e+003;7.504322e-002
3.434744e+003;7.460785e-002
3.436673e+003;7.337015e-002
3.438601e+003;7.257822e-002
3.440530e+003;7.230379e-002
3.442458e+003;7.193524e-002
3.444387e+003;7.139628e-002
3.446315e+003;7.095417e-002
3.448244e+003;7.018594e-002
3.450172e+003;6.906743e-002
3.452101e+003;6.812315e-002
3.454030e+003;6.761927e-002
3.455958e+003;6.692518e-002
3.457886e+003;6.657186e-002
3.459815e+003;6.647234e-002
3.461744e+003;6.635725e-002
3.463672e+003;6.536225e-002
3.465601e+003;6.424866e-002
3.467529e+003;6.425066e-002
3.469458e+003;6.386976e-002
3.471386e+003;6.318796e-002
3.473315e+003;6.280948e-002
3.475243e+003;6.226267e-002
3.477172e+003;6.171004e-002
3.479101e+003;6.116717e-002
3.481029e+003;6.053220e-002
3.482958e+003;6.024160e-002
3.484886e+003;5.969223e-002
3.486815e+003;5.861527e-002
3.488743e+003;5.777809e-002
3.490672e+003;5.698916e-002
3.492600e+003;5.614680e-002
3.494529e+003;5.538496e-002
3.496458e+003;5.471641e-002
3.498386e+003;5.415833e-002
3.500315e+003;5.377988e-002
3.502243e+003;5.339959e-002
3.504172e+003;5.322037e-002
3.506100e+003;5.356171e-002
3.508029e+003;5.325872e-002
3.509957e+003;5.229890e-002
3.511886e+003;5.119623e-002
3.513814e+003;5.053893e-002
3.515743e+003;5.016157e-002
3.517672e+003;5.027473e-002
3.519600e+003;4.975040e-002
3.521529e+003;4.875977e-002
3.523457e+003;4.789055e-002
3.525386e+003;4.732550e-002
3.527314e+003;4.645158e-002
3.529243e+003;4.598050e-002
3.531171e+003;4.636419e-002
3.533100e+003;4.643417e-002
3.535029e+003;4.597461e-002
3.536957e+003;4.510712e-002
3.538885e+003;4.430581e-002
3.540814e+003;4.378600e-002
3.542743e+003;4.295304e-002
3.544671e+003;4.230024e-002
3.546600e+003;4.194596e-002
3.548528e+003;4.093247e-002
3.550457e+003;4.000765e-002
3.552385e+003;3.966445e-002
3.554314e+003;3.938399e-002
3.556242e+003;3.904985e-002
3.558171e+003;3.851967e-002
3.560100e+003;3.774379e-002
3.562028e+003;3.721058e-002
3.563957e+003;3.626994e-002
3.565885e+003;3.438282e-002
3.567814e+003;3.395718e-002
3.569742e+003;3.451008e-002
3.571671e+003;3.467349e-002
3.573599e+003;3.426474e-002
3.575528e+003;3.351635e-002
3.577457e+003;3.328001e-002
3.579385e+003;3.251617e-002
3.581314e+003;3.175005e-002
3.583242e+003;3.137901e-002
3.585171e+003;2.998597e-002
3.587099e+003;2.835121e-002
3.589028e+003;2.838895e-002
3.590956e+003;2.881656e-002
3.592885e+003;2.796921e-002
3.594813e+003;2.711875e-002
3.596742e+003;2.738621e-002
3.598671e+003;2.714933e-002
3.600599e+003;2.606467e-002
3.602528e+003;2.570138e-002
3.604456e+003;2.513861e-002
3.606385e+003;2.348251e-002
3.608313e+003;2.158619e-002
3.610242e+003;2.111874e-002
3.612170e+003;2.081402e-002
3.614099e+003;2.010486e-002
3.616028e+003;1.924134e-002
3.617956e+003;1.801267e-002
3.619885e+003;1.815140e-002
3.621813e+003;1.877323e-002
3.623742e+003;1.819790e-002
3.625670e+003;1.685029e-002
3.627599e+003;1.309452e-002
3.629527e+003;1.229748e-002
3.631456e+003;1.478555e-002
3.633385e+003;1.527122e-002
3.635313e+003;1.489232e-002
3.637241e+003;1.454171e-002
3.639170e+003;1.405375e-002
3.641099e+003;1.396351e-002
3.643027e+003;1.352360e-002
3.644956e+003;1.208068e-002
3.646884e+003;9.147587e-003
3.648813e+003;6.541569e-003
3.650741e+003;7.220016e-003
3.652670e+003;8.713273e-003
3.654598e+003;7.601110e-003
3.656527e+003;7.109967e-003
3.658456e+003;8.108373e-003
3.660384e+003;8.551070e-003
3.662313e+003;8.567393e-003
3.664241e+003;7.719244e-003
3.666170e+003;6.717458e-003
3.668098e+003;4.515106e-003
3.670027e+003;2.775709e-003
3.671955e+003;4.117274e-003
3.673884e+003;2.393560e-003
3.675813e+003;9.014186e-004
3.677741e+003;3.217942e-003
3.679669e+003;4.597408e-003
3.681598e+003;5.479841e-003
3.683527e+003;5.377812e-003
3.685455e+003;3.859354e-003
3.687384e+003;4.578886e-004
3.689312e+003;-1.024384e-004
3.691241e+003;1.900247e-003
3.693169e+003;3.797112e-003
3.695098e+003;4.448988e-003
3.697026e+003;4.113595e-003
3.698955e+003;3.303471e-003
3.700884e+003;2.559878e-003
3.702812e+003;3.074363e-003
3.704741e+003;3.446959e-003
3.706669e+003;2.785513e-003
3.708598e+003;1.285380e-003
3.710526e+003;-6.142681e-004
3.712455e+003;-4.829251e-004
3.714383e+003;1.527512e-003
3.716312e+003;2.331428e-003
3.718240e+003;2.287458e-003
3.720169e+003;2.213418e-003
3.722098e+003;2.027825e-003
3.724026e+003;1.863242e-003
3.725955e+003;1.400678e-003
3.727883e+003;1.515375e-003
3.729812e+003;8.827922e-004
3.731740e+003;-9.100662e-004
3.733669e+003;-1.820110e-003
3.735597e+003;-2.343136e-003
3.737526e+003;-2.921108e-004
3.739455e+003;1.689640e-003
3.741383e+003;-3.611595e-006
3.743312e+003;-4.814627e-003
3.745240e+003;-3.956090e-003
3.747169e+003;-2.144532e-003
3.749097e+003;-4.671600e-003
3.751026e+003;-4.919572e-003
3.752954e+003;-1.567423e-003
3.754883e+003;1.402939e-003
3.756812e+003;9.713827e-004
3.758740e+003;6.384318e-004
3.760668e+003;1.205730e-003
3.762597e+003;1.931031e-003
3.764526e+003;1.611644e-003
3.766454e+003;1.632830e-003
3.768383e+003;9.487353e-004
3.770311e+003;9.775595e-004
3.772240e+003;2.078561e-003
3.774168e+003;2.843775e-003
3.776097e+003;2.152611e-003
3.778025e+003;8.592862e-004
3.779954e+003;1.226563e-003
3.781883e+003;1.932296e-003
3.783811e+003;1.742498e-003
3.785740e+003;1.667653e-003
3.787668e+003;1.553182e-003
3.789597e+003;2.339956e-003
3.791525e+003;2.666113e-003
3.793454e+003;2.480027e-003
3.795382e+003;1.494694e-003
3.797311e+003;1.363982e-003
3.799240e+003;-1.305948e-004
3.801168e+003;-1.781174e-003
3.803097e+003;4.737769e-004
3.805025e+003;6.587070e-004
3.806954e+003;-4.068669e-005
3.808882e+003;1.630901e-003
3.810811e+003;1.910463e-003
3.812739e+003;1.274082e-003
3.814668e+003;-1.276335e-003
3.816596e+003;-1.385474e-003
3.818525e+003;-4.535813e-005
3.820454e+003;-1.635329e-003
3.822382e+003;-4.406579e-004
3.824311e+003;1.498418e-003
3.826239e+003;1.700084e-003
3.828168e+003;1.874057e-003
3.830096e+003;1.467199e-003
3.832025e+003;1.055208e-003
3.833953e+003;7.114069e-004
3.835882e+003;-1.400238e-003
3.837811e+003;-2.666608e-003
3.839739e+003;-2.721440e-004
3.841667e+003;1.187290e-003
3.843596e+003;1.529074e-003
3.845525e+003;2.332127e-003
3.847453e+003;2.753568e-003
3.849382e+003;9.811461e-004
3.851310e+003;-3.454530e-003
3.853239e+003;-6.688783e-003
3.855167e+003;-2.800716e-003
3.857096e+003;1.315789e-003
3.859024e+003;2.116516e-003
3.860953e+003;1.966644e-003
3.862882e+003;6.780207e-004
3.864810e+003;2.365752e-004
3.866739e+003;1.135230e-003
3.868667e+003;1.225977e-005
3.870596e+003;6.706203e-004
3.872524e+003;2.177619e-003
3.874453e+003;2.629443e-003
3.876381e+003;3.536542e-003
3.878310e+003;2.214317e-003
3.880239e+003;1.136260e-003
3.882167e+003;2.327797e-003
3.884096e+003;1.946674e-003
3.886024e+003;1.808805e-003
3.887953e+003;3.073462e-003
3.889881e+003;2.030954e-003
3.891810e+003;1.484653e-003
3.893738e+003;2.767673e-003
3.895667e+003;3.440513e-003
3.897595e+003;2.177319e-003
3.899524e+003;7.660715e-004
3.901453e+003;5.999084e-004
3.903381e+003;9.224698e-004
3.905310e+003;2.937170e-003
3.907238e+003;4.870142e-003
3.909167e+003;4.921379e-003
3.911095e+003;4.624031e-003
3.913024e+003;4.301186e-003
3.914952e+003;3.635499e-003
3.916881e+003;3.099057e-003
3.918810e+003;3.061683e-003
3.920738e+003;3.214337e-003
3.922667e+003;3.010032e-003
3.924595e+003;3.063084e-003
3.926524e+003;3.880181e-003
3.928452e+003;3.602188e-003
3.930381e+003;2.953516e-003
3.932309e+003;3.046367e-003
3.934238e+003;3.715195e-003
3.936167e+003;3.865037e-003
3.938095e+003;4.127878e-003
3.940023e+003;4.887366e-003
3.941952e+003;5.016428e-003
3.943881e+003;4.836904e-003
3.945809e+003;4.428434e-003
3.947738e+003;3.871222e-003
3.949666e+003;4.295430e-003
3.951595e+003;4.719518e-003
3.953523e+003;5.184860e-003
3.955452e+003;5.374491e-003
3.957380e+003;5.582195e-003
3.959309e+003;5.997530e-003
3.961238e+003;6.119026e-003
3.963166e+003;5.800541e-003
3.965095e+003;5.137583e-003
3.967023e+003;4.861062e-003
3.968952e+003;4.966421e-003
3.970880e+003;5.279330e-003
3.972809e+003;5.247133e-003
3.974737e+003;4.983178e-003
3.976666e+003;5.437530e-003
3.978594e+003;6.403578e-003
3.980523e+003;5.929674e-003
3.982452e+003;4.576011e-003
3.984380e+003;5.067581e-003
3.986309e+003;6.027229e-003
3.988237e+003;5.965448e-003
3.990166e+003;5.793892e-003
3.992094e+003;5.563165e-003
3.994023e+003;5.553600e-003
3.995951e+003;5.875564e-003
3.997880e+003;5.473666e-003
3.999809e+003;4.682071e-003
4.001737e+003;0.000000e+000
