3.992094e+002;0.000000e+000
4.011380e+002;0.000000e+000
4.030665e+002;0.000000e+000
4.049951e+002;0.000000e+000
4.069236e+002;0.000000e+000
4.088522e+002;0.000000e+000
4.107807e+002;0.000000e+000
4.127093e+002;0.000000e+000
4.146378e+002;0.000000e+000
4.165664e+002;0.000000e+000
4.184949e+002;0.000000e+000
4.204235e+002;0.000000e+000
4.223520e+002;0.000000e+000
4.242806e+002;0.000000e+000
4.262091e+002;0.000000e+000
4.281377e+002;0.000000e+000
4.300662e+002;0.000000e+000
4.319948e+002;0.000000e+000
4.339233e+002;0.000000e+000
4.358519e+002;0.000000e+000
4.377804e+002;0.000000e+000
4.397090e+002;0.000000e+000
4.416375e+002;0.000000e+000
4.435660e+002;0.000000e+000
4.454946e+002;0.000000e+000
4.474232e+002;0.000000e+000
4.493517e+002;0.000000e+000
4.512802e+002;0.000000e+000
4.532088e+002;0.000000e+000
4.551373e+002;0.000000e+000
4.570659e+002;0.000000e+000
4.589944e+002;0.000000e+000
4.609230e+002;0.000000e+000
4.628515e+002;0.000000e+000
4.647801e+002;0.000000e+000
4.667086e+002;0.000000e+000
4.686372e+002;0.000000e+000
4.705657e+002;0.000000e+000
4.724943e+002;0.000000e+000
4.744228e+002;0.000000e+000
4.763513e+002;0.000000e+000
4.782799e+002;0.000000e+000
4.802085e+002;0.000000e+000
4.821370e+002;0.000000e+000
4.840656e+002;0.000000e+000
4.859941e+002;0.000000e+000
4.879226e+002;0.000000e+000
4.898512e+002;0.000000e+000
4.917798e+002;0.000000e+000
4.937083e+002;0.000000e+000
4.956368e+002;0.000000e+000
4.975654e+002;0.000000e+000
4.994939e+002;0.000000e+000
5.014225e+002;0.000000e+000
5.033510e+002;0.000000e+000
5.052796e+002;0.000000e+000
5.072081e+002;0.000000e+000
5.091367e+002;0.000000e+000
5.110652e+002;0.000000e+000
5.129938e+002;0.000000e+000
5.149223e+002;0.000000e+000
5.168509e+002;0.000000e+000
5.187794e+002;0.000000e+000
5.207079e+002;0.000000e+000
5.226365e+002;0.000000e+000
5.245651e+002;0.000000e+000
5.264936e+002;0.000000e+000
5.284222e+002;0.000000e+000
5.303507e+002;0.000000e+000
5.322792e+002;0.000000e+000
5.342078e+002;0.000000e+000
5.361364e+002;0.000000e+000
5.380649e+002;0.000000e+000
5.399935e+002;0.000000e+000
5.419220e+002;0.000000e+000
5.438505e+002;0.000000e+000
5.457791e+002;0.000000e+000
5.477076e+002;0.000000e+000
5.496362e+002;0.000000e+000
5.515648e+002;0.000000e+000
5.534933e+002;0.000000e+000
5.554218e+002;0.000000e+000
5.573504e+002;0.000000e+000
5.592789e+002;0.000000e+000
5.612075e+002;0.000000e+000
5.631360e+002;0.000000e+000
5.650646e+002;0.000000e+000
5.669931e+002;0.000000e+000
5.689217e+002;0.000000e+000
5.708502e+002;0.000000e+000
5.727787e+002;0.000000e+000
5.747073e+002;0.000000e+000
5.766359e+002;0.000000e+000
5.785644e+002;0.000000e+000
5.804930e+002;0.000000e+000
5.824215e+002;0.000000e+000
5.843500e+002;0.000000e+000
5.862786e+002;0.000000e+000
5.882072e+002;0.000000e+000
5.901357e+002;0.000000e+000
5.920643e+002;0.000000e+000
5.939928e+002;0.000000e+000
5.959213e+002;0.000000e+000
5.978499e+002;0.000000e+000
5.997784e+002;2.645902e-001
6.017070e+002;2.680311e-001
6.036355e+002;2.630853e-001
6.055641e+002;2.599500e-001
6.074926e+002;2.653037e-001
6.094211e+002;2.673608e-001
6.113497e+002;2.647911e-001
6.132783e+002;2.647862e-001
6.152068e+002;2.668225e-001
6.171354e+002;2.641622e-001
6.190639e+002;2.658604e-001
6.209924e+002;2.682943e-001
6.229210e+002;2.605616e-001
6.248495e+002;2.534775e-001
6.267781e+002;2.496078e-001
6.287067e+002;2.493879e-001
6.306352e+002;2.527247e-001
6.325637e+002;2.539517e-001
6.344923e+002;2.483640e-001
6.364208e+002;2.436890e-001
6.383494e+002;2.417511e-001
6.402780e+002;2.407524e-001
6.422065e+002;2.398894e-001
6.441350e+002;2.385344e-001
6.460636e+002;2.376751e-001
6.479921e+002;2.343450e-001
6.499207e+002;2.336884e-001
6.518492e+002;2.346703e-001
6.537778e+002;2.381454e-001
6.557063e+002;2.419803e-001
6.576349e+002;2.434155e-001
6.595634e+002;2.475588e-001
6.614919e+002;2.509548e-001
6.634205e+002;2.515163e-001
6.653491e+002;2.461381e-001
6.672776e+002;2.384509e-001
6.692062e+002;2.367461e-001
6.711347e+002;2.363755e-001
6.730632e+002;2.311357e-001
6.749918e+002;2.262607e-001
6.769203e+002;2.201952e-001
6.788489e+002;2.144381e-001
6.807775e+002;2.094518e-001
6.827060e+002;2.047953e-001
6.846345e+002;2.024583e-001
6.865631e+002;2.005025e-001
6.884916e+002;1.999709e-001
6.904202e+002;1.997942e-001
6.923488e+002;1.983834e-001
6.942773e+002;1.967368e-001
6.962058e+002;1.957039e-001
6.981344e+002;1.956473e-001
7.000629e+002;1.948279e-001
7.019915e+002;1.931140e-001
7.039200e+002;1.921576e-001
7.058486e+002;1.910584e-001
7.077771e+002;1.900804e-001
7.097057e+002;1.891907e-001
7.116342e+002;1.873835e-001
7.135627e+002;1.854250e-001
7.154913e+002;1.840569e-001
7.174199e+002;1.819356e-001
7.193484e+002;1.784233e-001
7.212770e+002;1.746096e-001
7.232055e+002;1.702060e-001
7.251340e+002;1.671226e-001
7.270626e+002;1.650794e-001
7.289911e+002;1.624909e-001
7.309197e+002;1.599758e-001
7.328483e+002;1.575203e-001
7.347768e+002;1.541948e-001
7.367053e+002;1.513345e-001
7.386339e+002;1.497650e-001
7.405624e+002;1.486233e-001
7.424910e+002;1.473596e-001
7.444196e+002;1.460139e-001
7.463481e+002;1.444642e-001
7.482766e+002;1.423764e-001
7.502052e+002;1.399185e-001
7.521337e+002;1.385972e-001
7.540623e+002;1.373717e-001
7.559908e+002;1.350569e-001
7.579194e+002;1.331921e-001
7.598479e+002;1.309367e-001
7.617765e+002;1.284825e-001
7.637050e+002;1.275099e-001
7.656335e+002;1.264365e-001
7.675621e+002;1.244239e-001
7.694907e+002;1.223510e-001
7.714192e+002;1.210323e-001
7.733478e+002;1.203031e-001
7.752763e+002;1.189786e-001
7.772048e+002;1.169641e-001
7.791334e+002;1.155288e-001
7.810620e+002;1.145774e-001
7.829905e+002;1.130254e-001
7.849191e+002;1.120841e-001
7.868476e+002;1.120825e-001
7.887761e+002;1.118332e-001
7.907047e+002;1.114284e-001
7.926332e+002;1.105191e-001
7.945618e+002;1.092681e-001
7.964903e+002;1.085944e-001
7.984189e+002;1.082231e-001
8.003474e+002;1.081427e-001
8.022759e+002;1.079989e-001
8.042045e+002;1.078492e-001
8.061331e+002;1.077208e-001
8.080616e+002;1.066898e-001
8.099902e+002;1.052857e-001
8.119187e+002;1.046691e-001
8.138472e+002;1.047279e-001
8.157758e+002;1.045702e-001
8.177043e+002;1.036596e-001
8.196329e+002;1.026474e-001
8.215615e+002;1.020554e-001
8.234900e+002;1.018765e-001
8.254185e+002;1.015741e-001
8.273471e+002;1.016691e-001
8.292756e+002;1.015031e-001
8.312042e+002;1.005379e-001
8.331328e+002;9.997381e-002
8.350613e+002;9.924477e-002
8.369898e+002;9.728492e-002
8.389184e+002;9.639964e-002
8.408469e+002;9.628370e-002
8.427755e+002;9.568421e-002
8.447040e+002;9.468131e-002
8.466326e+002;9.344316e-002
8.485611e+002;9.230363e-002
8.504897e+002;9.151883e-002
8.524182e+002;9.094720e-002
8.543467e+002;9.082924e-002
8.562753e+002;9.143334e-002
8.582039e+002;9.191974e-002
8.601324e+002;9.185071e-002
8.620610e+002;9.153862e-002
8.639895e+002;9.150206e-002
8.659180e+002;9.212213e-002
8.678466e+002;9.361621e-002
8.697751e+002;9.553497e-002
8.717037e+002;9.713463e-002
8.736323e+002;9.933218e-002
8.755608e+002;1.020107e-001
8.774893e+002;1.050835e-001
8.794179e+002;1.089511e-001
8.813464e+002;1.135200e-001
8.832750e+002;1.182999e-001
8.852036e+002;1.238184e-001
8.871321e+002;1.296785e-001
8.890606e+002;1.352924e-001
8.909892e+002;1.406619e-001
8.929177e+002;1.454489e-001
8.948463e+002;1.489489e-001
8.967748e+002;1.512342e-001
8.987034e+002;1.524127e-001
9.006319e+002;1.528144e-001
9.025605e+002;1.517195e-001
9.044890e+002;1.494687e-001
9.064175e+002;1.463964e-001
9.083461e+002;1.423895e-001
9.102747e+002;1.387081e-001
9.122032e+002;1.350653e-001
9.141318e+002;1.315247e-001
9.160603e+002;1.284886e-001
9.179888e+002;1.261456e-001
9.199174e+002;1.247926e-001
9.218459e+002;1.240955e-001
9.237745e+002;1.241520e-001
9.257031e+002;1.251227e-001
9.276316e+002;1.258287e-001
9.295601e+002;1.264095e-001
9.314887e+002;1.275095e-001
9.334172e+002;1.287022e-001
9.353458e+002;1.301688e-001
9.372744e+002;1.315830e-001
9.392029e+002;1.327161e-001
9.411314e+002;1.341001e-001
9.430600e+002;1.360613e-001
9.449885e+002;1.387057e-001
9.469171e+002;1.420408e-001
9.488456e+002;1.460335e-001
9.507742e+002;1.496607e-001
9.527027e+002;1.538728e-001
9.546313e+002;1.592037e-001
9.565598e+002;1.646672e-001
9.584883e+002;1.704469e-001
9.604169e+002;1.767267e-001
9.623455e+002;1.835020e-001
9.642740e+002;1.902866e-001
9.662026e+002;1.973243e-001
9.681311e+002;2.053623e-001
9.700596e+002;2.148900e-001
9.719882e+002;2.255564e-001
9.739167e+002;2.374697e-001
9.758453e+002;2.517680e-001
9.777739e+002;2.694834e-001
9.797024e+002;2.898155e-001
9.816309e+002;3.118188e-001
9.835595e+002;3.336768e-001
9.854880e+002;3.524923e-001
9.874166e+002;3.674869e-001
9.893452e+002;3.791488e-001
9.912737e+002;3.896028e-001
9.932022e+002;3.994754e-001
9.951307e+002;4.078393e-001
9.970593e+002;4.140149e-001
9.989879e+002;4.189000e-001
1.000916e+003;4.229576e-001
1.002845e+003;4.258981e-001
1.004773e+003;4.285491e-001
1.006702e+003;4.332539e-001
1.008631e+003;4.401302e-001
1.010559e+003;4.486094e-001
1.012488e+003;4.576664e-001
1.014416e+003;4.659182e-001
1.016345e+003;4.728857e-001
1.018273e+003;4.787426e-001
1.020202e+003;4.826328e-001
1.022130e+003;4.846960e-001
1.024059e+003;4.863747e-001
1.025988e+003;4.869793e-001
1.027916e+003;4.869316e-001
1.029845e+003;4.868776e-001
1.031773e+003;4.856752e-001
1.033702e+003;4.820492e-001
1.035630e+003;4.764302e-001
1.037559e+003;4.703169e-001
1.039487e+003;4.629068e-001
1.041416e+003;4.558146e-001
1.043344e+003;4.511562e-001
1.045273e+003;4.480998e-001
1.047202e+003;4.465345e-001
1.049130e+003;4.463933e-001
1.051059e+003;4.466790e-001
1.052987e+003;4.467652e-001
1.054916e+003;4.458377e-001
1.056844e+003;4.432003e-001
1.058773e+003;4.381946e-001
1.060701e+003;4.307540e-001
1.062630e+003;4.209117e-001
1.064558e+003;4.085954e-001
1.066487e+003;3.950481e-001
1.068416e+003;3.824587e-001
1.070344e+003;3.714640e-001
1.072273e+003;3.618641e-001
1.074201e+003;3.524421e-001
1.076130e+003;3.432254e-001
1.078058e+003;3.348619e-001
1.079987e+003;3.275796e-001
1.081915e+003;3.213831e-001
1.083844e+003;3.158378e-001
1.085773e+003;3.113006e-001
1.087701e+003;3.071188e-001
1.089630e+003;3.031298e-001
1.091558e+003;2.998810e-001
1.093487e+003;2.967245e-001
1.095415e+003;2.939229e-001
1.097344e+003;2.916819e-001
1.099272e+003;2.890046e-001
1.101201e+003;2.856401e-001
1.103129e+003;2.826222e-001
1.105058e+003;2.798849e-001
1.106987e+003;2.768205e-001
1.108915e+003;2.728109e-001
1.110844e+003;2.691890e-001
1.112772e+003;2.650630e-001
1.114701e+003;2.589560e-001
1.116629e+003;2.514979e-001
1.118558e+003;2.439190e-001
1.120486e+003;2.366833e-001
1.122415e+003;2.298926e-001
1.124344e+003;2.226605e-001
1.126272e+003;2.151904e-001
1.128201e+003;2.078145e-001
1.130129e+003;2.011208e-001
1.132058e+003;1.951396e-001
1.133986e+003;1.893402e-001
1.135915e+003;1.841310e-001
1.137843e+003;1.800313e-001
1.139772e+003;1.768818e-001
1.141700e+003;1.748516e-001
1.143629e+003;1.741875e-001
1.145557e+003;1.745666e-001
1.147486e+003;1.759302e-001
1.149415e+003;1.777987e-001
1.151343e+003;1.794318e-001
1.153272e+003;1.811487e-001
1.155200e+003;1.827211e-001
1.157129e+003;1.840402e-001
1.159057e+003;1.846626e-001
1.160986e+003;1.838907e-001
1.162914e+003;1.814333e-001
1.164843e+003;1.771471e-001
1.166771e+003;1.707794e-001
1.168700e+003;1.626244e-001
1.170629e+003;1.540574e-001
1.172557e+003;1.460402e-001
1.174486e+003;1.386176e-001
1.176414e+003;1.320192e-001
1.178343e+003;1.263548e-001
1.180271e+003;1.216370e-001
1.182200e+003;1.179324e-001
1.184128e+003;1.150675e-001
1.186057e+003;1.133336e-001
1.187986e+003;1.132084e-001
1.189914e+003;1.145429e-001
1.191843e+003;1.165470e-001
1.193771e+003;1.190505e-001
1.195700e+003;1.219760e-001
1.197628e+003;1.247388e-001
1.199557e+003;1.264649e-001
1.201485e+003;1.272884e-001
1.203414e+003;1.273931e-001
1.205343e+003;1.265844e-001
1.207271e+003;1.247743e-001
1.209200e+003;1.220830e-001
1.211128e+003;1.186855e-001
1.213057e+003;1.157591e-001
1.214985e+003;1.138844e-001
1.216914e+003;1.134620e-001
1.218842e+003;1.142444e-001
1.220771e+003;1.158344e-001
1.222699e+003;1.179025e-001
1.224628e+003;1.202048e-001
1.226557e+003;1.223290e-001
1.228485e+003;1.244282e-001
1.230414e+003;1.265530e-001
1.232342e+003;1.283601e-001
1.234271e+003;1.295664e-001
1.236199e+003;1.301780e-001
1.238128e+003;1.305394e-001
1.240056e+003;1.306477e-001
1.241985e+003;1.306951e-001
1.243913e+003;1.311642e-001
1.245842e+003;1.320067e-001
1.247771e+003;1.329282e-001
1.249699e+003;1.335343e-001
1.251628e+003;1.342348e-001
1.253556e+003;1.348759e-001
1.255485e+003;1.351910e-001
1.257413e+003;1.359558e-001
1.259342e+003;1.364330e-001
1.261270e+003;1.361156e-001
1.263199e+003;1.357127e-001
1.265127e+003;1.350185e-001
1.267056e+003;1.342499e-001
1.268985e+003;1.336749e-001
1.270913e+003;1.333059e-001
1.272842e+003;1.332763e-001
1.274770e+003;1.333837e-001
1.276699e+003;1.332808e-001
1.278627e+003;1.328917e-001
1.280556e+003;1.321110e-001
1.282484e+003;1.309074e-001
1.284413e+003;1.297911e-001
1.286342e+003;1.291586e-001
1.288270e+003;1.292731e-001
1.290199e+003;1.300131e-001
1.292127e+003;1.308926e-001
1.294056e+003;1.317414e-001
1.295984e+003;1.330746e-001
1.297913e+003;1.347678e-001
1.299841e+003;1.367427e-001
1.301770e+003;1.393647e-001
1.303698e+003;1.423756e-001
1.305627e+003;1.455228e-001
1.307556e+003;1.487851e-001
1.309484e+003;1.520436e-001
1.311413e+003;1.550150e-001
1.313341e+003;1.573677e-001
1.315270e+003;1.590878e-001
1.317198e+003;1.596580e-001
1.319127e+003;1.588857e-001
1.321055e+003;1.574323e-001
1.322984e+003;1.556281e-001
1.324912e+003;1.537077e-001
1.326841e+003;1.521015e-001
1.328770e+003;1.513961e-001
1.330698e+003;1.516377e-001
1.332627e+003;1.521826e-001
1.334555e+003;1.523992e-001
1.336484e+003;1.522287e-001
1.338412e+003;1.513909e-001
1.340341e+003;1.502713e-001
1.342269e+003;1.492894e-001
1.344198e+003;1.478217e-001
1.346126e+003;1.459998e-001
1.348055e+003;1.445689e-001
1.349984e+003;1.441699e-001
1.351912e+003;1.445425e-001
1.353841e+003;1.452618e-001
1.355769e+003;1.459988e-001
1.357698e+003;1.467953e-001
1.359626e+003;1.474577e-001
1.361555e+003;1.472283e-001
1.363483e+003;1.467966e-001
1.365412e+003;1.465958e-001
1.367341e+003;1.460621e-001
1.369269e+003;1.453760e-001
1.371198e+003;1.441395e-001
1.373126e+003;1.419626e-001
1.375055e+003;1.395265e-001
1.376983e+003;1.373256e-001
1.378912e+003;1.345441e-001
1.380840e+003;1.315767e-001
1.382769e+003;1.289012e-001
1.384698e+003;1.260828e-001
1.386626e+003;1.225688e-001
1.388555e+003;1.206884e-001
1.390483e+003;1.199314e-001
1.392412e+003;1.182567e-001
1.394340e+003;1.165092e-001
1.396269e+003;1.161245e-001
1.398197e+003;1.160008e-001
1.400126e+003;1.166760e-001
1.402054e+003;1.174680e-001
1.403983e+003;1.171392e-001
1.405911e+003;1.174245e-001
1.407840e+003;1.182646e-001
1.409769e+003;1.187462e-001
1.411697e+003;1.191949e-001
1.413626e+003;1.195423e-001
1.415554e+003;1.194648e-001
1.417483e+003;1.180470e-001
1.419411e+003;1.177225e-001
1.421340e+003;1.206270e-001
1.423268e+003;1.225856e-001
1.425197e+003;1.233997e-001
1.427125e+003;1.238879e-001
1.429054e+003;1.238275e-001
1.430983e+003;1.235322e-001
1.432911e+003;1.226576e-001
1.434840e+003;1.195773e-001
1.436768e+003;1.165635e-001
1.438697e+003;1.171633e-001
1.440625e+003;1.168146e-001
1.442554e+003;1.151118e-001
1.444482e+003;1.134103e-001
1.446411e+003;1.115675e-001
1.448340e+003;1.102344e-001
1.450268e+003;1.099079e-001
1.452197e+003;1.091316e-001
1.454125e+003;1.064062e-001
1.456054e+003;1.008469e-001
1.457982e+003;9.992205e-002
1.459911e+003;1.024989e-001
1.461839e+003;1.018948e-001
1.463768e+003;9.823300e-002
1.465697e+003;9.532488e-002
1.467625e+003;9.372585e-002
1.469554e+003;9.035888e-002
1.471482e+003;8.467431e-002
1.473411e+003;8.097876e-002
1.475339e+003;7.959621e-002
1.477268e+003;7.775307e-002
1.479196e+003;7.568746e-002
1.481125e+003;7.325945e-002
1.483053e+003;7.094824e-002
1.484982e+003;6.757351e-002
1.486911e+003;6.319083e-002
1.488839e+003;5.924949e-002
1.490768e+003;5.733552e-002
1.492696e+003;5.679929e-002
1.494625e+003;5.402273e-002
1.496553e+003;5.112208e-002
1.498482e+003;5.107568e-002
1.500410e+003;5.159844e-002
1.502339e+003;5.083898e-002
1.504267e+003;4.622674e-002
1.506196e+003;4.112992e-002
1.508125e+003;4.301011e-002
1.510053e+003;4.626297e-002
1.511982e+003;4.689385e-002
1.513910e+003;4.662031e-002
1.515839e+003;4.507013e-002
1.517767e+003;4.411652e-002
1.519696e+003;4.188608e-002
1.521624e+003;4.045890e-002
1.523553e+003;4.267272e-002
1.525481e+003;4.350287e-002
1.527410e+003;4.432287e-002
1.529339e+003;4.525771e-002
1.531267e+003;4.465685e-002
1.533196e+003;4.325814e-002
1.535124e+003;4.420859e-002
1.537053e+003;4.228655e-002
1.538981e+003;3.667774e-002
1.540910e+003;3.664205e-002
1.542838e+003;4.031232e-002
1.544767e+003;4.272291e-002
1.546695e+003;4.485101e-002
1.548624e+003;4.563605e-002
1.550553e+003;4.555906e-002
1.552481e+003;4.464352e-002
1.554410e+003;4.292129e-002
1.556338e+003;4.026033e-002
1.558267e+003;3.540402e-002
1.560195e+003;3.741188e-002
1.562124e+003;4.355232e-002
1.564052e+003;4.554110e-002
1.565981e+003;4.567625e-002
1.567910e+003;4.482033e-002
1.569838e+003;4.412540e-002
1.571767e+003;4.550011e-002
1.573695e+003;4.452500e-002
1.575624e+003;4.124533e-002
1.577552e+003;4.292232e-002
1.579481e+003;4.610790e-002
1.581409e+003;4.688894e-002
1.583338e+003;4.721533e-002
1.585266e+003;4.775472e-002
1.587195e+003;4.832581e-002
1.589124e+003;4.861822e-002
1.591052e+003;4.870614e-002
1.592981e+003;4.870213e-002
1.594909e+003;4.921781e-002
1.596838e+003;4.982951e-002
1.598766e+003;5.037838e-002
1.600695e+003;5.056331e-002
1.602623e+003;5.082594e-002
1.604552e+003;5.138405e-002
1.606480e+003;5.208338e-002
1.608409e+003;5.258225e-002
1.610338e+003;5.321812e-002
1.612266e+003;5.387717e-002
1.614195e+003;5.298069e-002
1.616123e+003;5.065016e-002
1.618052e+003;5.268788e-002
1.619980e+003;5.552252e-002
1.621909e+003;5.516151e-002
1.623837e+003;5.537822e-002
1.625766e+003;5.668068e-002
1.627694e+003;5.736195e-002
1.629623e+003;5.867444e-002
1.631552e+003;5.951343e-002
1.633480e+003;5.738717e-002
1.635409e+003;5.513017e-002
1.637337e+003;5.806489e-002
1.639266e+003;6.090297e-002
1.641194e+003;6.145972e-002
1.643123e+003;6.069061e-002
1.645051e+003;5.789452e-002
1.646980e+003;5.728728e-002
1.648909e+003;5.923327e-002
1.650837e+003;5.531910e-002
1.652766e+003;4.920964e-002
1.654694e+003;5.355500e-002
1.656623e+003;5.854820e-002
1.658551e+003;5.888673e-002
1.660480e+003;5.726887e-002
1.662408e+003;5.525290e-002
1.664337e+003;5.521625e-002
1.666266e+003;5.458921e-002
1.668194e+003;5.161612e-002
1.670123e+003;5.032491e-002
1.672051e+003;5.080903e-002
1.673980e+003;4.890107e-002
1.675908e+003;4.790306e-002
1.677837e+003;4.892303e-002
1.679765e+003;4.783081e-002
1.681694e+003;4.451611e-002
1.683622e+003;3.904850e-002
1.685551e+003;3.979516e-002
1.687479e+003;4.347995e-002
1.689408e+003;4.346113e-002
1.691337e+003;4.276445e-002
1.693265e+003;4.034137e-002
1.695194e+003;3.582900e-002
1.697122e+003;3.553180e-002
1.699051e+003;3.369066e-002
1.700979e+003;3.334848e-002
1.702908e+003;3.700307e-002
1.704836e+003;3.706120e-002
1.706765e+003;3.707744e-002
1.708693e+003;3.749379e-002
1.710622e+003;3.754643e-002
1.712551e+003;3.645203e-002
1.714479e+003;3.437435e-002
1.716408e+003;3.163100e-002
1.718336e+003;3.228319e-002
1.720265e+003;3.581287e-002
1.722193e+003;3.710977e-002
1.724122e+003;3.727737e-002
1.726050e+003;3.789804e-002
1.727979e+003;3.798348e-002
1.729908e+003;3.736551e-002
1.731836e+003;3.465314e-002
1.733765e+003;3.206079e-002
1.735693e+003;3.497972e-002
1.737622e+003;3.659154e-002
1.739550e+003;3.492815e-002
1.741479e+003;3.446370e-002
1.743407e+003;3.368894e-002
1.745336e+003;3.234680e-002
1.747265e+003;3.033510e-002
1.749193e+003;2.777751e-002
1.751122e+003;2.620575e-002
1.753050e+003;2.713755e-002
1.754979e+003;2.688068e-002
1.756907e+003;2.581702e-002
1.758836e+003;2.566647e-002
1.760764e+003;2.470794e-002
1.762693e+003;2.451493e-002
1.764621e+003;2.515697e-002
1.766550e+003;2.406159e-002
1.768479e+003;2.296264e-002
1.770407e+003;2.189193e-002
1.772336e+003;2.065346e-002
1.774264e+003;2.217910e-002
1.776193e+003;2.350755e-002
1.778121e+003;2.341774e-002
1.780050e+003;2.318602e-002
1.781978e+003;2.322943e-002
1.783907e+003;2.291223e-002
1.785835e+003;2.289194e-002
1.787764e+003;2.295963e-002
1.789693e+003;2.190211e-002
1.791621e+003;2.032365e-002
1.793550e+003;2.079261e-002
1.795478e+003;2.219277e-002
1.797407e+003;2.210908e-002
1.799335e+003;2.156878e-002
1.801264e+003;2.167377e-002
1.803192e+003;2.211187e-002
1.805121e+003;2.221644e-002
1.807049e+003;2.225606e-002
1.808978e+003;2.204800e-002
1.810907e+003;2.179465e-002
1.812835e+003;2.186280e-002
1.814764e+003;2.200715e-002
1.816692e+003;2.178371e-002
1.818621e+003;2.169707e-002
1.820549e+003;2.172909e-002
1.822478e+003;2.146220e-002
1.824406e+003;2.064633e-002
1.826335e+003;2.069057e-002
1.828264e+003;2.021138e-002
1.830192e+003;1.974142e-002
1.832121e+003;2.070596e-002
1.834049e+003;2.124673e-002
1.835978e+003;2.094359e-002
1.837906e+003;2.080460e-002
1.839835e+003;2.094029e-002
1.841763e+003;1.994098e-002
1.843692e+003;1.833983e-002
1.845620e+003;1.927750e-002
1.847549e+003;2.028334e-002
1.849478e+003;2.031518e-002
1.851406e+003;2.027577e-002
1.853335e+003;1.986186e-002
1.855263e+003;1.974714e-002
1.857192e+003;1.980342e-002
1.859120e+003;1.985239e-002
1.861049e+003;2.000006e-002
1.862977e+003;2.003750e-002
1.864906e+003;1.965685e-002
1.866834e+003;1.896861e-002
1.868763e+003;1.858730e-002
1.870692e+003;1.919933e-002
1.872620e+003;1.990324e-002
1.874549e+003;1.992759e-002
1.876477e+003;1.969592e-002
1.878406e+003;1.954575e-002
1.880334e+003;1.939248e-002
1.882263e+003;1.919258e-002
1.884191e+003;1.921423e-002
1.886120e+003;1.914888e-002
1.888048e+003;1.892455e-002
1.889977e+003;1.897692e-002
1.891906e+003;1.931519e-002
1.893834e+003;1.908531e-002
1.895763e+003;1.897110e-002
1.897691e+003;1.926871e-002
1.899620e+003;1.955421e-002
1.901548e+003;1.955300e-002
1.903477e+003;1.956191e-002
1.905405e+003;1.917270e-002
1.907334e+003;1.906654e-002
1.909262e+003;1.927782e-002
1.911191e+003;1.941473e-002
1.913120e+003;1.942883e-002
1.915048e+003;1.927075e-002
1.916977e+003;1.866657e-002
1.918905e+003;1.868826e-002
1.920834e+003;1.911093e-002
1.922762e+003;1.908621e-002
1.924691e+003;1.932725e-002
1.926619e+003;1.975924e-002
1.928548e+003;1.989512e-002
1.930477e+003;1.986717e-002
1.932405e+003;1.987823e-002
1.934334e+003;1.994657e-002
1.936262e+003;2.002758e-002
1.938191e+003;2.003386e-002
1.940119e+003;1.997373e-002
1.942048e+003;1.962118e-002
1.943976e+003;1.983890e-002
1.945905e+003;2.024265e-002
1.947833e+003;2.040713e-002
1.949762e+003;2.054822e-002
1.951691e+003;2.076108e-002
1.953619e+003;2.086776e-002
1.955548e+003;2.075629e-002
1.957476e+003;2.098233e-002
1.959405e+003;2.122432e-002
1.961333e+003;2.134796e-002
1.963262e+003;2.127241e-002
1.965190e+003;2.099534e-002
1.967119e+003;2.068032e-002
1.969047e+003;2.093271e-002
1.970976e+003;2.116765e-002
1.972905e+003;2.118556e-002
1.974833e+003;2.121900e-002
1.976762e+003;2.138186e-002
1.978690e+003;2.157651e-002
1.980619e+003;2.158023e-002
1.982547e+003;2.141479e-002
1.984476e+003;2.152212e-002
1.986404e+003;2.168882e-002
1.988333e+003;2.144841e-002
1.990261e+003;2.112441e-002
1.992190e+003;2.124753e-002
1.994119e+003;2.158403e-002
1.996047e+003;2.169425e-002
1.997976e+003;2.151599e-002
1.999904e+003;2.149569e-002
2.001833e+003;2.165002e-002
2.003761e+003;2.176556e-002
2.005690e+003;2.198474e-002
2.007618e+003;2.199422e-002
2.009547e+003;2.191134e-002
2.011476e+003;2.208639e-002
2.013404e+003;2.203270e-002
2.015333e+003;2.193208e-002
2.017261e+003;2.225798e-002
2.019190e+003;2.260067e-002
2.021118e+003;2.268452e-002
2.023047e+003;2.271039e-002
2.024975e+003;2.269018e-002
2.026904e+003;2.272568e-002
2.028833e+003;2.270456e-002
2.030761e+003;2.277830e-002
2.032690e+003;2.281381e-002
2.034618e+003;2.288265e-002
2.036547e+003;2.329949e-002
2.038475e+003;2.363943e-002
2.040404e+003;2.339903e-002
2.042332e+003;2.313601e-002
2.044261e+003;2.298014e-002
2.046189e+003;2.316610e-002
2.048118e+003;2.327243e-002
2.050047e+003;2.326974e-002
2.051975e+003;2.324677e-002
2.053904e+003;2.308764e-002
2.055832e+003;2.320144e-002
2.057761e+003;2.358031e-002
2.059689e+003;2.353574e-002
2.061618e+003;2.317473e-002
2.063546e+003;2.306329e-002
2.065475e+003;2.306367e-002
2.067404e+003;2.295052e-002
2.069332e+003;2.297207e-002
2.071260e+003;2.302063e-002
2.073189e+003;2.321297e-002
2.075118e+003;2.346348e-002
2.077046e+003;2.341774e-002
2.078975e+003;2.331851e-002
2.080903e+003;2.322748e-002
2.082832e+003;2.308384e-002
2.084760e+003;2.322206e-002
2.086689e+003;2.326264e-002
2.088617e+003;2.331337e-002
2.090546e+003;2.340099e-002
2.092475e+003;2.339581e-002
2.094403e+003;2.334690e-002
2.096332e+003;2.324817e-002
2.098260e+003;2.318539e-002
2.100189e+003;2.324223e-002
2.102117e+003;2.347772e-002
2.104046e+003;2.356698e-002
2.105974e+003;2.347198e-002
2.107903e+003;2.355120e-002
2.109832e+003;2.362236e-002
2.111760e+003;2.365497e-002
2.113688e+003;2.371872e-002
2.115617e+003;2.385011e-002
2.117546e+003;2.388491e-002
2.119474e+003;2.387608e-002
2.121403e+003;2.380065e-002
2.123331e+003;2.376709e-002
2.125260e+003;2.388172e-002
2.127188e+003;2.388130e-002
2.129117e+003;2.384703e-002
2.131045e+003;2.413917e-002
2.132974e+003;2.417637e-002
2.134903e+003;2.404839e-002
2.136831e+003;2.399687e-002
2.138760e+003;2.404352e-002
2.140688e+003;2.431259e-002
2.142617e+003;2.444454e-002
2.144545e+003;2.413840e-002
2.146474e+003;2.395566e-002
2.148402e+003;2.401183e-002
2.150331e+003;2.409391e-002
2.152260e+003;2.395160e-002
2.154188e+003;2.376807e-002
2.156117e+003;2.370763e-002
2.158045e+003;2.361417e-002
2.159974e+003;2.365941e-002
2.161902e+003;2.364811e-002
2.163831e+003;2.345866e-002
2.165759e+003;2.350591e-002
2.167688e+003;2.346614e-002
2.169616e+003;2.318270e-002
2.171545e+003;2.296700e-002
2.173474e+003;2.291408e-002
2.175402e+003;2.283208e-002
2.177331e+003;2.284063e-002
2.179259e+003;2.257840e-002
2.181188e+003;2.218586e-002
2.183116e+003;2.215312e-002
2.185045e+003;2.224682e-002
2.186973e+003;2.226917e-002
2.188902e+003;2.215824e-002
2.190831e+003;2.226209e-002
2.192759e+003;2.219290e-002
2.194688e+003;2.181099e-002
2.196616e+003;2.182081e-002
2.198545e+003;2.183081e-002
2.200473e+003;2.163490e-002
2.202402e+003;2.163644e-002
2.204330e+003;2.148942e-002
2.206259e+003;2.133035e-002
2.208188e+003;2.137594e-002
2.210116e+003;2.135861e-002
2.212044e+003;2.142231e-002
2.213973e+003;2.167203e-002
2.215902e+003;2.162352e-002
2.217830e+003;2.162254e-002
2.219759e+003;2.160088e-002
2.221687e+003;2.134246e-002
2.223616e+003;2.137928e-002
2.225544e+003;2.150673e-002
2.227473e+003;2.142203e-002
2.229401e+003;2.132802e-002
2.231330e+003;2.096915e-002
2.233259e+003;2.084715e-002
2.235187e+003;2.107686e-002
2.237116e+003;2.116086e-002
2.239044e+003;2.113300e-002
2.240973e+003;2.109098e-002
2.242901e+003;2.093598e-002
2.244830e+003;2.091341e-002
2.246758e+003;2.083380e-002
2.248687e+003;2.089005e-002
2.250615e+003;2.107957e-002
2.252544e+003;2.110900e-002
2.254473e+003;2.080377e-002
2.256401e+003;2.073064e-002
2.258330e+003;2.084524e-002
2.260258e+003;2.069662e-002
2.262187e+003;2.054645e-002
2.264115e+003;2.046989e-002
2.266044e+003;2.046197e-002
2.267972e+003;2.050601e-002
2.269901e+003;2.051501e-002
2.271830e+003;2.024040e-002
2.273758e+003;2.022314e-002
2.275687e+003;2.033955e-002
2.277615e+003;2.005843e-002
2.279544e+003;2.013925e-002
2.281472e+003;2.050855e-002
2.283401e+003;2.054440e-002
2.285329e+003;2.028230e-002
2.287258e+003;1.999205e-002
2.289187e+003;1.983363e-002
2.291115e+003;1.976583e-002
2.293043e+003;1.976389e-002
2.294972e+003;1.964929e-002
2.296901e+003;1.968986e-002
2.298829e+003;1.951127e-002
2.300758e+003;1.939117e-002
2.302686e+003;1.937156e-002
2.304615e+003;1.919497e-002
2.306543e+003;1.903154e-002
2.308472e+003;1.869179e-002
2.310400e+003;1.810310e-002
2.312329e+003;1.786005e-002
2.314258e+003;1.766464e-002
2.316186e+003;1.692911e-002
2.318115e+003;1.604995e-002
2.320043e+003;1.572564e-002
2.321972e+003;1.564035e-002
2.323900e+003;1.496444e-002
2.325829e+003;1.413274e-002
2.327757e+003;1.352627e-002
2.329686e+003;1.320070e-002
2.331615e+003;1.264891e-002
2.333543e+003;1.231711e-002
2.335472e+003;1.239886e-002
2.337400e+003;1.246474e-002
2.339329e+003;1.266696e-002
2.341257e+003;1.336260e-002
2.343186e+003;1.458450e-002
2.345114e+003;1.616617e-002
2.347043e+003;1.780129e-002
2.348971e+003;1.840626e-002
2.350900e+003;1.713979e-002
2.352829e+003;1.503465e-002
2.354757e+003;1.316262e-002
2.356686e+003;1.174915e-002
2.358614e+003;1.077866e-002
2.360543e+003;1.014669e-002
2.362471e+003;1.013662e-002
2.364400e+003;1.073260e-002
2.366328e+003;1.196984e-002
2.368257e+003;1.332952e-002
2.370186e+003;1.475871e-002
2.372114e+003;1.634408e-002
2.374042e+003;1.798819e-002
2.375971e+003;1.952375e-002
2.377900e+003;2.068424e-002
2.379828e+003;2.153176e-002
2.381757e+003;2.197317e-002
2.383685e+003;2.196072e-002
2.385614e+003;2.210012e-002
2.387542e+003;2.238987e-002
2.389471e+003;2.230091e-002
2.391399e+003;2.231923e-002
2.393328e+003;2.282628e-002
2.395257e+003;2.314530e-002
2.397185e+003;2.323642e-002
2.399114e+003;2.317351e-002
2.401042e+003;2.314132e-002
2.402971e+003;2.340865e-002
2.404899e+003;2.371127e-002
2.406828e+003;2.380009e-002
2.408756e+003;2.387384e-002
2.410685e+003;2.379460e-002
2.412614e+003;2.386562e-002
2.414542e+003;2.400072e-002
2.416471e+003;2.408516e-002
2.418399e+003;2.421886e-002
2.420328e+003;2.431508e-002
2.422256e+003;2.458639e-002
2.424185e+003;2.476529e-002
2.426113e+003;2.478339e-002
2.428042e+003;2.488162e-002
2.429970e+003;2.518211e-002
2.431899e+003;2.528377e-002
2.433828e+003;2.532174e-002
2.435756e+003;2.557084e-002
2.437685e+003;2.577458e-002
2.439613e+003;2.590251e-002
2.441542e+003;2.606274e-002
2.443470e+003;2.640986e-002
2.445399e+003;2.676412e-002
2.447327e+003;2.689658e-002
2.449256e+003;2.686845e-002
2.451185e+003;2.687599e-002
2.453113e+003;2.704769e-002
2.455042e+003;2.729329e-002
2.456970e+003;2.760884e-002
2.458899e+003;2.776031e-002
2.460827e+003;2.759931e-002
2.462756e+003;2.763854e-002
2.464684e+003;2.780884e-002
2.466613e+003;2.792013e-002
2.468542e+003;2.789289e-002
2.470470e+003;2.802561e-002
2.472398e+003;2.821820e-002
2.474327e+003;2.815191e-002
2.476256e+003;2.838102e-002
2.478184e+003;2.873605e-002
2.480113e+003;2.870568e-002
2.482041e+003;2.883472e-002
2.483970e+003;2.912213e-002
2.485898e+003;2.945486e-002
2.487827e+003;2.954741e-002
2.489755e+003;2.944996e-002
2.491684e+003;2.977290e-002
2.493613e+003;3.013645e-002
2.495541e+003;3.012885e-002
2.497470e+003;3.017211e-002
2.499398e+003;3.030817e-002
2.501327e+003;3.011156e-002
2.503255e+003;3.013656e-002
2.505184e+003;3.059278e-002
2.507112e+003;3.068127e-002
2.509041e+003;3.073309e-002
2.510969e+003;3.088490e-002
2.512898e+003;3.087170e-002
2.514827e+003;3.096908e-002
2.516755e+003;3.135929e-002
2.518684e+003;3.165670e-002
2.520612e+003;3.186360e-002
2.522541e+003;3.187305e-002
2.524469e+003;3.170157e-002
2.526398e+003;3.201424e-002
2.528326e+003;3.229116e-002
2.530255e+003;3.236390e-002
2.532184e+003;3.261003e-002
2.534112e+003;3.279602e-002
2.536041e+003;3.298466e-002
2.537969e+003;3.315182e-002
2.539898e+003;3.311913e-002
2.541826e+003;3.298798e-002
2.543755e+003;3.301837e-002
2.545683e+003;3.326742e-002
2.547612e+003;3.354119e-002
2.549541e+003;3.353707e-002
2.551469e+003;3.341360e-002
2.553397e+003;3.341185e-002
2.555326e+003;3.379491e-002
2.557255e+003;3.402766e-002
2.559183e+003;3.398437e-002
2.561112e+003;3.401351e-002
2.563040e+003;3.441800e-002
2.564969e+003;3.470686e-002
2.566897e+003;3.471497e-002
2.568826e+003;3.486032e-002
2.570754e+003;3.492858e-002
2.572683e+003;3.507422e-002
2.574612e+003;3.505852e-002
2.576540e+003;3.478536e-002
2.578469e+003;3.486506e-002
2.580397e+003;3.506940e-002
2.582326e+003;3.520294e-002
2.584254e+003;3.535183e-002
2.586183e+003;3.563304e-002
2.588111e+003;3.579978e-002
2.590040e+003;3.581698e-002
2.591969e+003;3.597508e-002
2.593897e+003;3.610688e-002
2.595826e+003;3.604420e-002
2.597754e+003;3.612553e-002
2.599683e+003;3.651459e-002
2.601611e+003;3.681776e-002
2.603540e+003;3.694870e-002
2.605468e+003;3.723650e-002
2.607397e+003;3.741264e-002
2.609325e+003;3.742379e-002
2.611254e+003;3.750694e-002
2.613183e+003;3.751055e-002
2.615111e+003;3.761944e-002
2.617040e+003;3.815601e-002
2.618968e+003;3.851438e-002
2.620897e+003;3.875540e-002
2.622825e+003;3.921090e-002
2.624754e+003;3.961871e-002
2.626682e+003;3.961076e-002
2.628611e+003;3.951063e-002
2.630540e+003;3.965614e-002
2.632468e+003;4.001731e-002
2.634396e+003;4.041584e-002
2.636325e+003;4.059388e-002
2.638254e+003;4.065144e-002
2.640182e+003;4.079584e-002
2.642111e+003;4.091637e-002
2.644039e+003;4.085121e-002
2.645968e+003;4.110817e-002
2.647896e+003;4.156137e-002
2.649825e+003;4.186841e-002
2.651753e+003;4.198785e-002
2.653682e+003;4.223279e-002
2.655611e+003;4.248695e-002
2.657539e+003;4.272664e-002
2.659468e+003;4.311427e-002
2.661396e+003;4.349940e-002
2.663325e+003;4.400504e-002
2.665253e+003;4.418790e-002
2.667182e+003;4.404955e-002
2.669110e+003;4.454699e-002
2.671039e+003;4.520638e-002
2.672968e+003;4.522164e-002
2.674896e+003;4.525591e-002
2.676825e+003;4.538320e-002
2.678753e+003;4.550380e-002
2.680682e+003;4.576449e-002
2.682610e+003;4.613303e-002
2.684539e+003;4.639653e-002
2.686467e+003;4.669110e-002
2.688396e+003;4.685543e-002
2.690324e+003;4.718936e-002
2.692253e+003;4.772254e-002
2.694182e+003;4.810974e-002
2.696110e+003;4.857509e-002
2.698039e+003;4.880211e-002
2.699967e+003;4.883437e-002
2.701896e+003;4.906542e-002
2.703824e+003;4.920816e-002
2.705753e+003;4.938309e-002
2.707681e+003;4.999533e-002
2.709610e+003;5.031505e-002
2.711539e+003;5.047878e-002
2.713467e+003;5.069622e-002
2.715396e+003;5.078776e-002
2.717324e+003;5.088755e-002
2.719253e+003;5.121040e-002
2.721181e+003;5.169599e-002
2.723110e+003;5.207438e-002
2.725038e+003;5.201234e-002
2.726967e+003;5.202574e-002
2.728896e+003;5.210587e-002
2.730824e+003;5.240655e-002
2.732752e+003;5.284962e-002
2.734681e+003;5.304306e-002
2.736610e+003;5.309582e-002
2.738538e+003;5.345763e-002
2.740467e+003;5.374781e-002
2.742395e+003;5.363061e-002
2.744324e+003;5.361501e-002
2.746252e+003;5.378843e-002
2.748181e+003;5.408109e-002
2.750109e+003;5.442994e-002
2.752038e+003;5.474547e-002
2.753967e+003;5.492377e-002
2.755895e+003;5.506671e-002
2.757824e+003;5.521287e-002
2.759752e+003;5.554026e-002
2.761681e+003;5.582182e-002
2.763609e+003;5.576187e-002
2.765538e+003;5.568378e-002
2.767466e+003;5.571286e-002
2.769395e+003;5.617343e-002
2.771323e+003;5.672799e-002
2.773252e+003;5.711329e-002
2.775181e+003;5.760867e-002
2.777109e+003;5.760863e-002
2.779038e+003;5.774807e-002
2.780966e+003;5.825570e-002
2.782895e+003;5.869644e-002
2.784823e+003;5.933920e-002
2.786752e+003;5.996957e-002
2.788680e+003;6.017161e-002
2.790609e+003;6.045824e-002
2.792538e+003;6.109118e-002
2.794466e+003;6.155776e-002
2.796395e+003;6.191145e-002
2.798323e+003;6.224416e-002
2.800252e+003;6.277119e-002
2.802180e+003;6.341723e-002
2.804109e+003;6.406748e-002
2.806037e+003;6.451505e-002
2.807966e+003;6.514111e-002
2.809895e+003;6.591523e-002
2.811823e+003;6.655607e-002
2.813751e+003;6.694902e-002
2.815680e+003;6.766380e-002
2.817609e+003;6.859870e-002
2.819537e+003;6.964637e-002
2.821466e+003;7.075699e-002
2.823394e+003;7.120620e-002
2.825323e+003;7.173368e-002
2.827251e+003;7.282775e-002
2.829180e+003;7.395468e-002
2.831108e+003;7.510726e-002
2.833037e+003;7.635143e-002
2.834966e+003;7.766228e-002
2.836894e+003;7.924259e-002
2.838823e+003;8.124283e-002
2.840751e+003;8.321989e-002
2.842680e+003;8.522261e-002
2.844608e+003;8.741234e-002
2.846537e+003;8.948441e-002
2.848465e+003;9.166702e-002
2.850394e+003;9.424635e-002
2.852323e+003;9.631132e-002
2.854251e+003;9.785001e-002
2.856180e+003;9.921280e-002
2.858108e+003;1.005959e-001
2.860037e+003;1.021849e-001
2.861965e+003;1.033763e-001
2.863894e+003;1.046946e-001
2.865822e+003;1.062509e-001
2.867751e+003;1.073106e-001
2.869679e+003;1.082887e-001
2.871608e+003;1.092831e-001
2.873536e+003;1.105819e-001
2.875465e+003;1.116540e-001
2.877394e+003;1.121407e-001
2.879322e+003;1.127491e-001
2.881251e+003;1.133559e-001
2.883179e+003;1.139512e-001
2.885108e+003;1.147454e-001
2.887036e+003;1.154593e-001
2.888965e+003;1.158681e-001
2.890893e+003;1.169017e-001
2.892822e+003;1.175493e-001
2.894750e+003;1.172904e-001
2.896679e+003;1.172777e-001
2.898608e+003;1.178984e-001
2.900536e+003;1.179568e-001
2.902465e+003;1.174907e-001
2.904393e+003;1.171064e-001
2.906322e+003;1.168648e-001
2.908250e+003;1.167524e-001
2.910179e+003;1.159589e-001
2.912107e+003;1.146716e-001
2.914036e+003;1.136321e-001
2.915965e+003;1.127465e-001
2.917893e+003;1.121485e-001
2.919822e+003;1.113075e-001
2.921750e+003;1.102266e-001
2.923679e+003;1.092656e-001
2.925607e+003;1.082198e-001
2.927536e+003;1.069530e-001
2.929464e+003;1.053940e-001
2.931393e+003;1.040528e-001
2.933322e+003;1.024881e-001
2.935250e+003;1.009641e-001
2.937178e+003;9.982255e-002
2.939107e+003;9.853076e-002
2.941036e+003;9.747855e-002
2.942964e+003;9.655095e-002
2.944893e+003;9.506217e-002
2.946821e+003;9.320692e-002
2.948750e+003;9.149706e-002
2.950678e+003;8.996544e-002
2.952607e+003;8.814242e-002
2.954535e+003;8.643048e-002
2.956464e+003;8.491441e-002
2.958393e+003;8.324000e-002
2.960321e+003;8.125841e-002
2.962250e+003;7.990907e-002
2.964178e+003;7.882401e-002
2.966107e+003;7.742778e-002
2.968035e+003;7.624802e-002
2.969964e+003;7.522234e-002
2.971892e+003;7.382054e-002
2.973821e+003;7.228293e-002
2.975750e+003;7.082321e-002
2.977678e+003;6.913980e-002
2.979607e+003;6.763553e-002
2.981535e+003;6.645717e-002
2.983464e+003;6.545578e-002
2.985392e+003;6.442695e-002
2.987321e+003;6.335872e-002
2.989249e+003;6.256855e-002
2.991178e+003;6.228745e-002
2.993106e+003;6.159758e-002
2.995035e+003;6.077113e-002
2.996964e+003;6.015011e-002
2.998892e+003;5.976815e-002
3.000821e+003;5.956052e-002
3.002749e+003;5.897280e-002
3.004678e+003;5.887869e-002
3.006606e+003;5.912202e-002
3.008535e+003;5.918812e-002
3.010463e+003;5.919203e-002
3.012392e+003;5.926403e-002
3.014321e+003;5.920544e-002
3.016249e+003;5.886950e-002
3.018177e+003;5.922253e-002
3.020106e+003;6.002796e-002
3.022035e+003;6.074704e-002
3.023963e+003;6.102083e-002
3.025892e+003;6.095578e-002
3.027820e+003;6.150568e-002
3.029749e+003;6.214173e-002
3.031677e+003;6.251908e-002
3.033606e+003;6.285635e-002
3.035534e+003;6.323992e-002
3.037463e+003;6.367463e-002
3.039392e+003;6.407005e-002
3.041320e+003;6.458382e-002
3.043249e+003;6.515278e-002
3.045177e+003;6.595318e-002
3.047106e+003;6.649621e-002
3.049034e+003;6.691691e-002
3.050963e+003;6.745274e-002
3.052891e+003;6.789502e-002
3.054820e+003;6.859159e-002
3.056749e+003;6.925866e-002
3.058677e+003;7.009611e-002
3.060606e+003;7.085715e-002
3.062534e+003;7.123286e-002
3.064463e+003;7.185310e-002
3.066391e+003;7.263607e-002
3.068320e+003;7.311738e-002
3.070248e+003;7.393546e-002
3.072177e+003;7.441475e-002
3.074105e+003;7.479293e-002
3.076034e+003;7.548620e-002
3.077963e+003;7.644992e-002
3.079891e+003;7.761212e-002
3.081820e+003;7.850181e-002
3.083748e+003;7.908327e-002
3.085677e+003;7.962718e-002
3.087605e+003;8.059225e-002
3.089534e+003;8.181185e-002
3.091462e+003;8.236352e-002
3.093391e+003;8.307749e-002
3.095320e+003;8.380084e-002
3.097248e+003;8.435282e-002
3.099177e+003;8.487114e-002
3.101105e+003;8.575570e-002
3.103034e+003;8.683019e-002
3.104962e+003;8.782363e-002
3.106891e+003;8.883405e-002
3.108819e+003;8.978087e-002
3.110748e+003;9.057634e-002
3.112677e+003;9.129071e-002
3.114605e+003;9.204733e-002
3.116533e+003;9.264464e-002
3.118462e+003;9.316052e-002
3.120391e+003;9.399685e-002
3.122319e+003;9.501062e-002
3.124248e+003;9.604103e-002
3.126176e+003;9.669573e-002
3.128105e+003;9.759983e-002
3.130033e+003;9.868756e-002
3.131962e+003;9.929533e-002
3.133890e+003;1.000745e-001
3.135819e+003;1.009292e-001
3.137748e+003;1.016367e-001
3.139676e+003;1.026031e-001
3.141605e+003;1.037165e-001
3.143533e+003;1.045511e-001
3.145462e+003;1.055090e-001
3.147390e+003;1.065821e-001
3.149319e+003;1.075963e-001
3.151247e+003;1.084009e-001
3.153176e+003;1.091751e-001
3.155104e+003;1.100681e-001
3.157033e+003;1.105320e-001
3.158962e+003;1.111126e-001
3.160890e+003;1.126468e-001
3.162819e+003;1.139768e-001
3.164747e+003;1.147720e-001
3.166676e+003;1.159597e-001
3.168604e+003;1.167437e-001
3.170533e+003;1.170804e-001
3.172461e+003;1.179556e-001
3.174390e+003;1.190984e-001
3.176319e+003;1.199617e-001
3.178247e+003;1.206365e-001
3.180176e+003;1.210782e-001
3.182104e+003;1.215685e-001
3.184033e+003;1.224576e-001
3.185961e+003;1.238686e-001
3.187890e+003;1.251392e-001
3.189818e+003;1.260696e-001
3.191747e+003;1.270275e-001
3.193676e+003;1.278715e-001
3.195604e+003;1.286737e-001
3.197532e+003;1.293444e-001
3.199461e+003;1.301340e-001
3.201390e+003;1.313426e-001
3.203318e+003;1.323247e-001
3.205247e+003;1.333764e-001
3.207175e+003;1.347599e-001
3.209104e+003;1.357646e-001
3.211032e+003;1.364530e-001
3.212961e+003;1.373091e-001
3.214889e+003;1.382110e-001
3.216818e+003;1.389605e-001
3.218747e+003;1.396382e-001
3.220675e+003;1.406100e-001
3.222604e+003;1.417258e-001
3.224532e+003;1.428015e-001
3.226461e+003;1.436169e-001
3.228389e+003;1.445575e-001
3.230318e+003;1.459475e-001
3.232246e+003;1.466533e-001
3.234175e+003;1.472121e-001
3.236104e+003;1.479916e-001
3.238032e+003;1.488288e-001
3.239961e+003;1.499575e-001
3.241889e+003;1.510413e-001
3.243818e+003;1.517781e-001
3.245746e+003;1.527312e-001
3.247675e+003;1.542357e-001
3.249603e+003;1.554264e-001
3.251532e+003;1.561369e-001
3.253460e+003;1.572093e-001
3.255389e+003;1.580515e-001
3.257318e+003;1.591944e-001
3.259246e+003;1.599600e-001
3.261175e+003;1.601629e-001
3.263103e+003;1.609380e-001
3.265032e+003;1.620197e-001
3.266960e+003;1.628548e-001
3.268889e+003;1.636998e-001
3.270817e+003;1.646028e-001
3.272746e+003;1.650014e-001
3.274675e+003;1.655068e-001
3.276603e+003;1.657806e-001
3.278531e+003;1.662659e-001
3.280460e+003;1.674571e-001
3.282389e+003;1.682281e-001
3.284317e+003;1.680977e-001
3.286246e+003;1.681152e-001
3.288174e+003;1.685008e-001
3.290103e+003;1.688203e-001
3.292031e+003;1.694616e-001
3.293960e+003;1.696042e-001
3.295888e+003;1.691261e-001
3.297817e+003;1.692380e-001
3.299746e+003;1.693964e-001
3.301674e+003;1.697764e-001
3.303603e+003;1.702394e-001
3.305531e+003;1.703156e-001
3.307460e+003;1.705229e-001
3.309388e+003;1.708254e-001
3.311317e+003;1.712729e-001
3.313245e+003;1.719423e-001
3.315174e+003;1.719897e-001
3.317103e+003;1.715673e-001
3.319031e+003;1.721717e-001
3.320960e+003;1.728791e-001
3.322888e+003;1.730805e-001
3.324817e+003;1.733834e-001
3.326745e+003;1.740047e-001
3.328674e+003;1.737848e-001
3.330602e+003;1.730903e-001
3.332531e+003;1.727011e-001
3.334459e+003;1.723276e-001
3.336388e+003;1.722129e-001
3.338317e+003;1.725614e-001
3.340245e+003;1.724401e-001
3.342174e+003;1.712103e-001
3.344102e+003;1.698239e-001
3.346031e+003;1.694740e-001
3.347959e+003;1.699073e-001
3.349888e+003;1.695607e-001
3.351816e+003;1.685387e-001
3.353745e+003;1.676241e-001
3.355674e+003;1.667628e-001
3.357602e+003;1.659200e-001
3.359531e+003;1.651186e-001
3.361459e+003;1.648027e-001
3.363388e+003;1.651383e-001
3.365316e+003;1.648220e-001
3.367245e+003;1.639002e-001
3.369173e+003;1.631172e-001
3.371102e+003;1.624359e-001
3.373031e+003;1.618117e-001
3.374959e+003;1.616953e-001
3.376887e+003;1.613659e-001
3.378816e+003;1.601603e-001
3.380745e+003;1.590529e-001
3.382673e+003;1.583356e-001
3.384602e+003;1.580363e-001
3.386530e+003;1.580794e-001
3.388459e+003;1.580191e-001
3.390387e+003;1.574633e-001
3.392316e+003;1.564410e-001
3.394244e+003;1.559249e-001
3.396173e+003;1.554945e-001
3.398102e+003;1.549577e-001
3.400030e+003;1.542170e-001
3.401959e+003;1.531702e-001
3.403887e+003;1.522043e-001
3.405816e+003;1.516507e-001
3.407744e+003;1.510924e-001
3.409673e+003;1.501525e-001
3.411601e+003;1.492884e-001
3.413530e+003;1.484748e-001
3.415458e+003;1.476315e-001
3.417387e+003;1.467629e-001
3.419316e+003;1.457593e-001
3.421244e+003;1.449295e-001
3.423173e+003;1.443320e-001
3.425101e+003;1.431503e-001
3.427030e+003;1.417299e-001
3.428958e+003;1.414391e-001
3.430887e+003;1.409192e-001
3.432815e+003;1.395913e-001
3.434744e+003;1.385416e-001
3.436673e+003;1.377317e-001
3.438601e+003;1.366797e-001
3.440530e+003;1.352178e-001
3.442458e+003;1.342359e-001
3.444387e+003;1.339623e-001
3.446315e+003;1.327300e-001
3.448244e+003;1.313391e-001
3.450172e+003;1.306603e-001
3.452101e+003;1.299213e-001
3.454030e+003;1.293035e-001
3.455958e+003;1.285371e-001
3.457886e+003;1.272327e-001
3.459815e+003;1.257817e-001
3.461744e+003;1.244243e-001
3.463672e+003;1.235360e-001
3.465601e+003;1.223220e-001
3.467529e+003;1.210528e-001
3.469458e+003;1.198159e-001
3.471386e+003;1.189174e-001
3.473315e+003;1.182732e-001
3.475243e+003;1.168770e-001
3.477172e+003;1.150404e-001
3.479101e+003;1.136543e-001
3.481029e+003;1.128369e-001
3.482958e+003;1.121771e-001
3.484886e+003;1.111756e-001
3.486815e+003;1.094427e-001
3.488743e+003;1.078638e-001
3.490672e+003;1.069394e-001
3.492600e+003;1.056605e-001
3.494529e+003;1.040714e-001
3.496458e+003;1.025829e-001
3.498386e+003;1.014992e-001
3.500315e+003;1.007171e-001
3.502243e+003;9.946815e-002
3.504172e+003;9.848495e-002
3.506100e+003;9.764998e-002
3.508029e+003;9.617795e-002
3.509957e+003;9.502592e-002
3.511886e+003;9.403519e-002
3.513814e+003;9.274120e-002
3.515743e+003;9.128646e-002
3.517672e+003;9.072976e-002
3.519600e+003;9.006067e-002
3.521529e+003;8.795863e-002
3.523457e+003;8.595803e-002
3.525386e+003;8.506326e-002
3.527314e+003;8.411215e-002
3.529243e+003;8.252756e-002
3.531171e+003;8.137356e-002
3.533100e+003;8.048508e-002
3.535029e+003;7.906371e-002
3.536957e+003;7.762445e-002
3.538885e+003;7.626228e-002
3.540814e+003;7.502230e-002
3.542743e+003;7.396768e-002
3.544671e+003;7.288947e-002
3.546600e+003;7.143513e-002
3.548528e+003;6.986032e-002
3.550457e+003;6.874423e-002
3.552385e+003;6.829291e-002
3.554314e+003;6.754676e-002
3.556242e+003;6.577657e-002
3.558171e+003;6.409656e-002
3.560100e+003;6.275898e-002
3.562028e+003;6.184970e-002
3.563957e+003;6.063091e-002
3.565885e+003;5.788226e-002
3.567814e+003;5.584736e-002
3.569742e+003;5.613074e-002
3.571671e+003;5.603019e-002
3.573599e+003;5.466519e-002
3.575528e+003;5.303558e-002
3.577457e+003;5.176067e-002
3.579385e+003;5.076784e-002
3.581314e+003;4.962272e-002
3.583242e+003;4.812710e-002
3.585171e+003;4.624785e-002
3.587099e+003;4.441880e-002
3.589028e+003;4.368505e-002
3.590956e+003;4.340078e-002
3.592885e+003;4.198712e-002
3.594813e+003;4.059563e-002
3.596742e+003;3.979342e-002
3.598671e+003;3.865304e-002
3.600599e+003;3.708718e-002
3.602528e+003;3.626620e-002
3.604456e+003;3.584234e-002
3.606385e+003;3.462425e-002
3.608313e+003;3.288758e-002
3.610242e+003;3.199401e-002
3.612170e+003;3.113283e-002
3.614099e+003;3.037646e-002
3.616028e+003;2.923588e-002
3.617956e+003;2.710552e-002
3.619885e+003;2.620666e-002
3.621813e+003;2.666204e-002
3.623742e+003;2.591742e-002
3.625670e+003;2.391158e-002
3.627599e+003;2.028244e-002
3.629527e+003;1.974128e-002
3.631456e+003;2.194982e-002
3.633385e+003;2.204361e-002
3.635313e+003;2.172418e-002
3.637241e+003;2.115686e-002
3.639170e+003;2.064268e-002
3.641099e+003;1.989370e-002
3.643027e+003;1.882817e-002
3.644956e+003;1.750841e-002
3.646884e+003;1.485278e-002
3.648813e+003;1.253990e-002
3.650741e+003;1.380686e-002
3.652670e+003;1.536465e-002
3.654598e+003;1.352148e-002
3.656527e+003;1.236907e-002
3.658456e+003;1.392005e-002
3.660384e+003;1.471946e-002
3.662313e+003;1.425143e-002
3.664241e+003;1.349831e-002
3.666170e+003;1.243606e-002
3.668098e+003;1.021300e-002
3.670027e+003;8.729027e-003
3.671955e+003;9.632538e-003
3.673884e+003;7.782861e-003
3.675813e+003;6.998295e-003
3.677741e+003;1.019669e-002
3.679669e+003;1.168161e-002
3.681598e+003;1.161429e-002
3.683527e+003;1.108511e-002
3.685455e+003;9.551783e-003
3.687384e+003;6.214707e-003
3.689312e+003;6.206271e-003
3.691241e+003;9.045235e-003
3.693169e+003;1.081089e-002
3.695098e+003;1.108008e-002
3.697026e+003;1.076820e-002
3.698955e+003;1.001026e-002
3.700884e+003;9.539759e-003
3.702812e+003;9.661200e-003
3.704741e+003;9.265702e-003
3.706669e+003;8.364979e-003
3.708598e+003;6.868036e-003
3.710526e+003;5.087762e-003
3.712455e+003;5.439207e-003
3.714383e+003;8.242516e-003
3.716312e+003;9.246510e-003
3.718240e+003;9.012961e-003
3.720169e+003;8.615687e-003
3.722098e+003;8.148614e-003
3.724026e+003;8.018045e-003
3.725955e+003;7.984835e-003
3.727883e+003;8.698601e-003
3.729812e+003;8.257138e-003
3.731740e+003;5.974451e-003
3.733669e+003;4.580196e-003
3.735597e+003;3.812956e-003
3.737526e+003;5.465211e-003
3.739455e+003;7.223250e-003
3.741383e+003;5.833148e-003
3.743312e+003;6.323926e-004
3.745240e+003;9.462449e-004
3.747169e+003;3.442951e-003
3.749097e+003;1.475544e-003
3.751026e+003;1.545866e-003
3.752954e+003;4.893297e-003
3.754883e+003;7.608832e-003
3.756812e+003;7.344449e-003
3.758740e+003;7.163960e-003
3.760668e+003;7.903305e-003
3.762597e+003;8.677542e-003
3.764526e+003;7.772639e-003
3.766454e+003;7.311830e-003
3.768383e+003;6.594247e-003
3.770311e+003;7.076085e-003
3.772240e+003;8.465279e-003
3.774168e+003;8.648844e-003
3.776097e+003;8.308168e-003
3.778025e+003;7.736480e-003
3.779954e+003;7.968871e-003
3.781883e+003;8.604974e-003
3.783811e+003;8.449738e-003
3.785740e+003;8.785319e-003
3.787668e+003;8.774431e-003
3.789597e+003;8.578748e-003
3.791525e+003;9.048009e-003
3.793454e+003;9.054301e-003
3.795382e+003;7.816494e-003
3.797311e+003;7.121183e-003
3.799240e+003;5.717541e-003
3.801168e+003;4.336759e-003
3.803097e+003;7.096528e-003
3.805025e+003;7.493830e-003
3.806954e+003;6.575106e-003
3.808882e+003;8.187037e-003
3.810811e+003;8.689779e-003
3.812739e+003;8.036743e-003
3.814668e+003;5.475915e-003
3.816596e+003;5.278022e-003
3.818525e+003;6.516173e-003
3.820454e+003;5.285199e-003
3.822382e+003;6.496901e-003
3.824311e+003;8.256969e-003
3.826239e+003;8.405076e-003
3.828168e+003;8.747959e-003
3.830096e+003;8.152869e-003
3.832025e+003;6.964052e-003
3.833953e+003;6.328363e-003
3.835882e+003;4.813652e-003
3.837811e+003;3.970856e-003
3.839739e+003;5.873449e-003
3.841667e+003;7.010922e-003
3.843596e+003;8.227421e-003
3.845525e+003;9.186741e-003
3.847453e+003;8.547151e-003
3.849382e+003;6.544697e-003
3.851310e+003;2.323000e-003
3.853239e+003;-6.423913e-004
3.855167e+003;3.953669e-003
3.857096e+003;8.471259e-003
3.859024e+003;9.258120e-003
3.860953e+003;8.704890e-003
3.862882e+003;7.532700e-003
3.864810e+003;7.411145e-003
3.866739e+003;7.893958e-003
3.868667e+003;6.394936e-003
3.870596e+003;6.884565e-003
3.872524e+003;8.077721e-003
3.874453e+003;8.618088e-003
3.876381e+003;9.269798e-003
3.878310e+003;8.519340e-003
3.880239e+003;9.018644e-003
3.882167e+003;9.929879e-003
3.884096e+003;7.680796e-003
3.886024e+003;7.002874e-003
3.887953e+003;9.030011e-003
3.889881e+003;8.845135e-003
3.891810e+003;8.388726e-003
3.893738e+003;9.054572e-003
3.895667e+003;9.603879e-003
3.897595e+003;8.997129e-003
3.899524e+003;7.631829e-003
3.901453e+003;7.267319e-003
3.903381e+003;7.411112e-003
3.905310e+003;8.817643e-003
3.907238e+003;1.053620e-002
3.909167e+003;1.032411e-002
3.911095e+003;9.542366e-003
3.913024e+003;9.141563e-003
3.914952e+003;8.841516e-003
3.916881e+003;8.749514e-003
3.918810e+003;9.796907e-003
3.920738e+003;1.063616e-002
3.922667e+003;1.051529e-002
3.924595e+003;1.015232e-002
3.926524e+003;1.051207e-002
3.928452e+003;1.041964e-002
3.930381e+003;9.666857e-003
3.932309e+003;9.548903e-003
3.934238e+003;1.053091e-002
3.936167e+003;1.110462e-002
3.938095e+003;1.127740e-002
3.940023e+003;1.116483e-002
3.941952e+003;1.057439e-002
3.943881e+003;1.014126e-002
3.945809e+003;9.961678e-003
3.947738e+003;9.753395e-003
3.949666e+003;1.032703e-002
3.951595e+003;1.105054e-002
3.953523e+003;1.120216e-002
3.955452e+003;1.146968e-002
3.957380e+003;1.159085e-002
3.959309e+003;1.134716e-002
3.961238e+003;1.130124e-002
3.963166e+003;1.171797e-002
3.965095e+003;1.123099e-002
3.967023e+003;1.054608e-002
3.968952e+003;1.084405e-002
3.970880e+003;1.119291e-002
3.972809e+003;1.113324e-002
3.974737e+003;1.123711e-002
3.976666e+003;1.195706e-002
3.978594e+003;1.222792e-002
3.980523e+003;1.183491e-002
3.982452e+003;1.178844e-002
3.984380e+003;1.226179e-002
3.986309e+003;1.171787e-002
3.988237e+003;1.126152e-002
3.990166e+003;1.147006e-002
3.992094e+003;1.153936e-002
3.994023e+003;1.167055e-002
3.995951e+003;1.248066e-002
3.997880e+003;1.310367e-002
3.999809e+003;1.283070e-002
4.001737e+003;0.000000e+000
