3.992094e+002;0.000000e+000
4.011380e+002;0.000000e+000
4.030665e+002;0.000000e+000
4.049951e+002;0.000000e+000
4.069236e+002;0.000000e+000
4.088522e+002;0.000000e+000
4.107807e+002;0.000000e+000
4.127093e+002;0.000000e+000
4.146378e+002;0.000000e+000
4.165664e+002;0.000000e+000
4.184949e+002;0.000000e+000
4.204235e+002;0.000000e+000
4.223520e+002;0.000000e+000
4.242806e+002;0.000000e+000
4.262091e+002;0.000000e+000
4.281377e+002;0.000000e+000
4.300662e+002;0.000000e+000
4.319948e+002;0.000000e+000
4.339233e+002;0.000000e+000
4.358519e+002;0.000000e+000
4.377804e+002;0.000000e+000
4.397090e+002;0.000000e+000
4.416375e+002;0.000000e+000
4.435660e+002;0.000000e+000
4.454946e+002;0.000000e+000
4.474232e+002;0.000000e+000
4.493517e+002;0.000000e+000
4.512802e+002;0.000000e+000
4.532088e+002;0.000000e+000
4.551373e+002;0.000000e+000
4.570659e+002;0.000000e+000
4.589944e+002;0.000000e+000
4.609230e+002;0.000000e+000
4.628515e+002;0.000000e+000
4.647801e+002;0.000000e+000
4.667086e+002;0.000000e+000
4.686372e+002;0.000000e+000
4.705657e+002;0.000000e+000
4.724943e+002;0.000000e+000
4.744228e+002;0.000000e+000
4.763513e+002;0.000000e+000
4.782799e+002;0.000000e+000
4.802085e+002;0.000000e+000
4.821370e+002;0.000000e+000
4.840656e+002;0.000000e+000
4.859941e+002;0.000000e+000
4.879226e+002;0.000000e+000
4.898512e+002;0.000000e+000
4.917798e+002;0.000000e+000
4.937083e+002;0.000000e+000
4.956368e+002;0.000000e+000
4.975654e+002;0.000000e+000
4.994939e+002;0.000000e+000
5.014225e+002;0.000000e+000
5.033510e+002;0.000000e+000
5.052796e+002;0.000000e+000
5.072081e+002;0.000000e+000
5.091367e+002;0.000000e+000
5.110652e+002;0.000000e+000
5.129938e+002;0.000000e+000
5.149223e+002;0.000000e+000
5.168509e+002;0.000000e+000
5.187794e+002;0.000000e+000
5.207079e+002;0.000000e+000
5.226365e+002;0.000000e+000
5.245651e+002;0.000000e+000
5.264936e+002;0.000000e+000
5.284222e+002;0.000000e+000
5.303507e+002;0.000000e+000
5.322792e+002;0.000000e+000
5.342078e+002;0.000000e+000
5.361364e+002;0.000000e+000
5.380649e+002;0.000000e+000
5.399935e+002;0.000000e+000
5.419220e+002;0.000000e+000
5.438505e+002;0.000000e+000
5.457791e+002;0.000000e+000
5.477076e+002;0.000000e+000
5.496362e+002;0.000000e+000
5.515648e+002;0.000000e+000
5.534933e+002;0.000000e+000
5.554218e+002;0.000000e+000
5.573504e+002;0.000000e+000
5.592789e+002;0.000000e+000
5.612075e+002;0.000000e+000
5.631360e+002;0.000000e+000
5.650646e+002;0.000000e+000
5.669931e+002;0.000000e+000
5.689217e+002;0.000000e+000
5.708502e+002;0.000000e+000
5.727787e+002;0.000000e+000
5.747073e+002;0.000000e+000
5.766359e+002;0.000000e+000
5.785644e+002;0.000000e+000
5.804930e+002;0.000000e+000
5.824215e+002;0.000000e+000
5.843500e+002;0.000000e+000
5.862786e+002;0.000000e+000
5.882072e+002;0.000000e+000
5.901357e+002;0.000000e+000
5.920643e+002;0.000000e+000
5.939928e+002;0.000000e+000
5.959213e+002;0.000000e+000
5.978499e+002;0.000000e+000
5.997784e+002;2.147344e-001
6.017070e+002;2.146077e-001
6.036355e+002;2.169468e-001
6.055641e+002;2.232962e-001
6.074926e+002;2.223165e-001
6.094211e+002;2.245862e-001
6.113497e+002;2.283838e-001
6.132783e+002;2.245543e-001
6.152068e+002;2.215543e-001
6.171354e+002;2.192078e-001
6.190639e+002;2.203953e-001
6.209924e+002;2.209618e-001
6.229210e+002;2.187122e-001
6.248495e+002;2.126824e-001
6.267781e+002;2.039177e-001
6.287067e+002;2.048877e-001
6.306352e+002;2.113801e-001
6.325637e+002;2.117935e-001
6.344923e+002;2.075045e-001
6.364208e+002;2.033274e-001
6.383494e+002;2.037776e-001
6.402780e+002;2.057727e-001
6.422065e+002;2.049119e-001
6.441350e+002;2.000205e-001
6.460636e+002;1.986546e-001
6.479921e+002;1.959974e-001
6.499207e+002;1.937946e-001
6.518492e+002;1.962559e-001
6.537778e+002;1.979020e-001
6.557063e+002;1.994770e-001
6.576349e+002;2.034627e-001
6.595634e+002;2.103126e-001
6.614919e+002;2.112093e-001
6.634205e+002;2.084088e-001
6.653491e+002;2.052131e-001
6.672776e+002;2.010000e-001
6.692062e+002;2.008868e-001
6.711347e+002;2.010267e-001
6.730632e+002;1.981003e-001
6.749918e+002;1.943717e-001
6.769203e+002;1.885268e-001
6.788489e+002;1.846306e-001
6.807775e+002;1.816739e-001
6.827060e+002;1.772885e-001
6.846345e+002;1.746916e-001
6.865631e+002;1.746668e-001
6.884916e+002;1.740576e-001
6.904202e+002;1.734005e-001
6.923488e+002;1.730960e-001
6.942773e+002;1.719715e-001
6.962058e+002;1.705845e-001
6.981344e+002;1.696572e-001
7.000629e+002;1.693401e-001
7.019915e+002;1.690199e-001
7.039200e+002;1.685267e-001
7.058486e+002;1.680842e-001
7.077771e+002;1.672138e-001
7.097057e+002;1.660265e-001
7.116342e+002;1.639756e-001
7.135627e+002;1.618910e-001
7.154913e+002;1.598763e-001
7.174199e+002;1.581005e-001
7.193484e+002;1.559901e-001
7.212770e+002;1.539519e-001
7.232055e+002;1.510462e-001
7.251340e+002;1.486830e-001
7.270626e+002;1.461216e-001
7.289911e+002;1.428596e-001
7.309197e+002;1.406647e-001
7.328483e+002;1.386953e-001
7.347768e+002;1.360571e-001
7.367053e+002;1.332879e-001
7.386339e+002;1.311184e-001
7.405624e+002;1.298335e-001
7.424910e+002;1.290228e-001
7.444196e+002;1.283645e-001
7.463481e+002;1.278304e-001
7.482766e+002;1.264505e-001
7.502052e+002;1.233004e-001
7.521337e+002;1.213432e-001
7.540623e+002;1.210981e-001
7.559908e+002;1.203355e-001
7.579194e+002;1.186330e-001
7.598479e+002;1.162576e-001
7.617765e+002;1.146545e-001
7.637050e+002;1.134909e-001
7.656335e+002;1.118826e-001
7.675621e+002;1.104076e-001
7.694907e+002;1.085269e-001
7.714192e+002;1.068409e-001
7.733478e+002;1.057453e-001
7.752763e+002;1.041961e-001
7.772048e+002;1.023190e-001
7.791334e+002;1.008924e-001
7.810620e+002;1.002667e-001
7.829905e+002;9.940308e-002
7.849191e+002;9.842364e-002
7.868476e+002;9.733011e-002
7.887761e+002;9.665276e-002
7.907047e+002;9.621719e-002
7.926332e+002;9.549411e-002
7.945618e+002;9.456079e-002
7.964903e+002;9.365231e-002
7.984189e+002;9.309934e-002
8.003474e+002;9.289945e-002
8.022759e+002;9.263131e-002
8.042045e+002;9.214789e-002
8.061331e+002;9.177756e-002
8.080616e+002;9.075532e-002
8.099902e+002;8.987284e-002
8.119187e+002;8.960579e-002
8.138472e+002;8.916361e-002
8.157758e+002;8.870337e-002
8.177043e+002;8.835537e-002
8.196329e+002;8.748188e-002
8.215615e+002;8.688398e-002
8.234900e+002;8.709566e-002
8.254185e+002;8.723465e-002
8.273471e+002;8.691134e-002
8.292756e+002;8.652000e-002
8.312042e+002;8.615031e-002
8.331328e+002;8.589842e-002
8.350613e+002;8.553269e-002
8.369898e+002;8.396620e-002
8.389184e+002;8.268417e-002
8.408469e+002;8.221186e-002
8.427755e+002;8.139382e-002
8.447040e+002;8.010347e-002
8.466326e+002;7.876395e-002
8.485611e+002;7.762267e-002
8.504897e+002;7.707366e-002
8.524182e+002;7.677233e-002
8.543467e+002;7.615834e-002
8.562753e+002;7.569882e-002
8.582039e+002;7.581429e-002
8.601324e+002;7.572900e-002
8.620610e+002;7.545619e-002
8.639895e+002;7.569894e-002
8.659180e+002;7.627954e-002
8.678466e+002;7.670698e-002
8.697751e+002;7.757393e-002
8.717037e+002;7.930133e-002
8.736323e+002;8.162951e-002
8.755608e+002;8.343891e-002
8.774893e+002;8.551239e-002
8.794179e+002;8.912467e-002
8.813464e+002;9.344028e-002
8.832750e+002;9.738886e-002
8.852036e+002;1.017454e-001
8.871321e+002;1.062196e-001
8.890606e+002;1.104028e-001
8.909892e+002;1.147523e-001
8.929177e+002;1.190119e-001
8.948463e+002;1.224546e-001
8.967748e+002;1.248912e-001
8.987034e+002;1.261518e-001
9.006319e+002;1.264492e-001
9.025605e+002;1.261039e-001
9.044890e+002;1.249134e-001
9.064175e+002;1.228430e-001
9.083461e+002;1.200080e-001
9.102747e+002;1.169385e-001
9.122032e+002;1.137975e-001
9.141318e+002;1.106440e-001
9.160603e+002;1.080475e-001
9.179888e+002;1.055725e-001
9.199174e+002;1.035493e-001
9.218459e+002;1.025581e-001
9.237745e+002;1.023542e-001
9.257031e+002;1.027814e-001
9.276316e+002;1.032037e-001
9.295601e+002;1.034681e-001
9.314887e+002;1.041704e-001
9.334172e+002;1.051293e-001
9.353458e+002;1.063297e-001
9.372744e+002;1.072549e-001
9.392029e+002;1.079099e-001
9.411314e+002;1.090639e-001
9.430600e+002;1.107371e-001
9.449885e+002;1.124675e-001
9.469171e+002;1.145032e-001
9.488456e+002;1.175553e-001
9.507742e+002;1.207995e-001
9.527027e+002;1.242628e-001
9.546313e+002;1.279539e-001
9.565598e+002;1.321973e-001
9.584883e+002;1.368768e-001
9.604169e+002;1.420521e-001
9.623455e+002;1.475500e-001
9.642740e+002;1.528598e-001
9.662026e+002;1.585363e-001
9.681311e+002;1.651767e-001
9.700596e+002;1.727238e-001
9.719882e+002;1.810328e-001
9.739167e+002;1.907888e-001
9.758453e+002;2.025245e-001
9.777739e+002;2.163380e-001
9.797024e+002;2.321802e-001
9.816309e+002;2.491954e-001
9.835595e+002;2.660411e-001
9.854880e+002;2.804858e-001
9.874166e+002;2.922546e-001
9.893452e+002;3.019005e-001
9.912737e+002;3.097829e-001
9.932022e+002;3.165061e-001
9.951307e+002;3.227717e-001
9.970593e+002;3.280719e-001
9.989879e+002;3.321813e-001
1.000916e+003;3.352204e-001
1.002845e+003;3.373764e-001
1.004773e+003;3.398630e-001
1.006702e+003;3.431756e-001
1.008631e+003;3.469086e-001
1.010559e+003;3.518354e-001
1.012488e+003;3.574396e-001
1.014416e+003;3.629225e-001
1.016345e+003;3.678262e-001
1.018273e+003;3.721308e-001
1.020202e+003;3.756289e-001
1.022130e+003;3.784048e-001
1.024059e+003;3.808409e-001
1.025988e+003;3.830226e-001
1.027916e+003;3.839635e-001
1.029845e+003;3.840455e-001
1.031773e+003;3.842733e-001
1.033702e+003;3.837875e-001
1.035630e+003;3.816056e-001
1.037559e+003;3.783548e-001
1.039487e+003;3.749276e-001
1.041416e+003;3.714892e-001
1.043344e+003;3.681162e-001
1.045273e+003;3.658772e-001
1.047202e+003;3.649031e-001
1.049130e+003;3.648172e-001
1.051059e+003;3.652726e-001
1.052987e+003;3.654599e-001
1.054916e+003;3.646216e-001
1.056844e+003;3.626467e-001
1.058773e+003;3.593858e-001
1.060701e+003;3.544722e-001
1.062630e+003;3.475065e-001
1.064558e+003;3.386983e-001
1.066487e+003;3.290467e-001
1.068416e+003;3.193808e-001
1.070344e+003;3.108015e-001
1.072273e+003;3.034857e-001
1.074201e+003;2.968115e-001
1.076130e+003;2.906433e-001
1.078058e+003;2.843269e-001
1.079987e+003;2.788829e-001
1.081915e+003;2.747219e-001
1.083844e+003;2.706711e-001
1.085773e+003;2.673246e-001
1.087701e+003;2.647471e-001
1.089630e+003;2.620302e-001
1.091558e+003;2.596933e-001
1.093487e+003;2.564957e-001
1.095415e+003;2.540559e-001
1.097344e+003;2.530188e-001
1.099272e+003;2.513737e-001
1.101201e+003;2.489846e-001
1.103129e+003;2.470734e-001
1.105058e+003;2.449440e-001
1.106987e+003;2.420560e-001
1.108915e+003;2.392287e-001
1.110844e+003;2.364467e-001
1.112772e+003;2.330090e-001
1.114701e+003;2.287180e-001
1.116629e+003;2.237965e-001
1.118558e+003;2.184038e-001
1.120486e+003;2.129956e-001
1.122415e+003;2.076204e-001
1.124344e+003;2.016888e-001
1.126272e+003;1.952216e-001
1.128201e+003;1.888671e-001
1.130129e+003;1.829946e-001
1.132058e+003;1.778602e-001
1.133986e+003;1.730164e-001
1.135915e+003;1.683670e-001
1.137843e+003;1.647067e-001
1.139772e+003;1.615703e-001
1.141700e+003;1.593718e-001
1.143629e+003;1.585286e-001
1.145557e+003;1.580910e-001
1.147486e+003;1.581087e-001
1.149415e+003;1.586386e-001
1.151343e+003;1.594762e-001
1.153272e+003;1.601214e-001
1.155200e+003;1.605860e-001
1.157129e+003;1.608380e-001
1.159057e+003;1.608366e-001
1.160986e+003;1.601994e-001
1.162914e+003;1.582931e-001
1.164843e+003;1.550570e-001
1.166771e+003;1.506608e-001
1.168700e+003;1.452519e-001
1.170629e+003;1.393039e-001
1.172557e+003;1.333176e-001
1.174486e+003;1.276746e-001
1.176414e+003;1.223096e-001
1.178343e+003;1.176158e-001
1.180271e+003;1.140725e-001
1.182200e+003;1.110891e-001
1.184128e+003;1.086605e-001
1.186057e+003;1.074964e-001
1.187986e+003;1.072257e-001
1.189914e+003;1.077957e-001
1.191843e+003;1.094753e-001
1.193771e+003;1.119542e-001
1.195700e+003;1.146768e-001
1.197628e+003;1.172263e-001
1.199557e+003;1.190248e-001
1.201485e+003;1.200332e-001
1.203414e+003;1.202438e-001
1.205343e+003;1.199309e-001
1.207271e+003;1.188212e-001
1.209200e+003;1.169199e-001
1.211128e+003;1.140173e-001
1.213057e+003;1.106438e-001
1.214985e+003;1.083515e-001
1.216914e+003;1.076306e-001
1.218842e+003;1.079283e-001
1.220771e+003;1.090526e-001
1.222699e+003;1.105406e-001
1.224628e+003;1.124520e-001
1.226557e+003;1.144998e-001
1.228485e+003;1.163672e-001
1.230414e+003;1.180918e-001
1.232342e+003;1.198467e-001
1.234271e+003;1.212096e-001
1.236199e+003;1.220391e-001
1.238128e+003;1.223908e-001
1.240056e+003;1.222363e-001
1.241985e+003;1.223052e-001
1.243913e+003;1.228797e-001
1.245842e+003;1.237726e-001
1.247771e+003;1.246743e-001
1.249699e+003;1.252492e-001
1.251628e+003;1.257423e-001
1.253556e+003;1.262162e-001
1.255485e+003;1.266812e-001
1.257413e+003;1.271646e-001
1.259342e+003;1.272564e-001
1.261270e+003;1.272135e-001
1.263199e+003;1.273704e-001
1.265127e+003;1.269784e-001
1.267056e+003;1.261772e-001
1.268985e+003;1.258627e-001
1.270913e+003;1.259927e-001
1.272842e+003;1.257893e-001
1.274770e+003;1.256201e-001
1.276699e+003;1.258698e-001
1.278627e+003;1.258095e-001
1.280556e+003;1.248752e-001
1.282484e+003;1.236424e-001
1.284413e+003;1.225213e-001
1.286342e+003;1.217886e-001
1.288270e+003;1.215879e-001
1.290199e+003;1.217307e-001
1.292127e+003;1.222252e-001
1.294056e+003;1.230742e-001
1.295984e+003;1.242153e-001
1.297913e+003;1.253272e-001
1.299841e+003;1.267791e-001
1.301770e+003;1.286828e-001
1.303698e+003;1.309876e-001
1.305627e+003;1.337737e-001
1.307556e+003;1.367953e-001
1.309484e+003;1.400005e-001
1.311413e+003;1.429628e-001
1.313341e+003;1.453219e-001
1.315270e+003;1.472065e-001
1.317198e+003;1.482156e-001
1.319127e+003;1.482724e-001
1.321055e+003;1.474825e-001
1.322984e+003;1.459458e-001
1.324912e+003;1.443323e-001
1.326841e+003;1.428571e-001
1.328770e+003;1.420905e-001
1.330698e+003;1.419108e-001
1.332627e+003;1.419387e-001
1.334555e+003;1.422147e-001
1.336484e+003;1.422723e-001
1.338412e+003;1.416784e-001
1.340341e+003;1.410780e-001
1.342269e+003;1.405867e-001
1.344198e+003;1.394618e-001
1.346126e+003;1.378869e-001
1.348055e+003;1.365547e-001
1.349984e+003;1.359302e-001
1.351912e+003;1.357508e-001
1.353841e+003;1.360931e-001
1.355769e+003;1.368779e-001
1.357698e+003;1.377544e-001
1.359626e+003;1.381656e-001
1.361555e+003;1.378161e-001
1.363483e+003;1.374685e-001
1.365412e+003;1.373215e-001
1.367341e+003;1.366716e-001
1.369269e+003;1.358799e-001
1.371198e+003;1.348467e-001
1.373126e+003;1.330527e-001
1.375055e+003;1.312628e-001
1.376983e+003;1.294719e-001
1.378912e+003;1.269368e-001
1.380840e+003;1.244914e-001
1.382769e+003;1.222933e-001
1.384698e+003;1.197956e-001
1.386626e+003;1.166461e-001
1.388555e+003;1.150429e-001
1.390483e+003;1.144877e-001
1.392412e+003;1.128799e-001
1.394340e+003;1.109932e-001
1.396269e+003;1.107045e-001
1.398197e+003;1.106791e-001
1.400126e+003;1.111662e-001
1.402054e+003;1.118873e-001
1.403983e+003;1.117143e-001
1.405911e+003;1.118606e-001
1.407840e+003;1.124467e-001
1.409769e+003;1.128713e-001
1.411697e+003;1.131787e-001
1.413626e+003;1.134816e-001
1.415554e+003;1.133793e-001
1.417483e+003;1.120145e-001
1.419411e+003;1.118011e-001
1.421340e+003;1.146088e-001
1.423268e+003;1.161452e-001
1.425197e+003;1.169861e-001
1.427125e+003;1.179076e-001
1.429054e+003;1.179605e-001
1.430983e+003;1.176637e-001
1.432911e+003;1.169640e-001
1.434840e+003;1.142723e-001
1.436768e+003;1.116821e-001
1.438697e+003;1.122601e-001
1.440625e+003;1.117973e-001
1.442554e+003;1.103120e-001
1.444482e+003;1.087890e-001
1.446411e+003;1.070623e-001
1.448340e+003;1.057690e-001
1.450268e+003;1.055990e-001
1.452197e+003;1.049518e-001
1.454125e+003;1.021682e-001
1.456054e+003;9.666005e-002
1.457982e+003;9.600507e-002
1.459911e+003;9.890179e-002
1.461839e+003;9.846658e-002
1.463768e+003;9.519569e-002
1.465697e+003;9.294607e-002
1.467625e+003;9.169636e-002
1.469554e+003;8.842031e-002
1.471482e+003;8.310661e-002
1.473411e+003;7.998495e-002
1.475339e+003;7.911731e-002
1.477268e+003;7.765242e-002
1.479196e+003;7.598287e-002
1.481125e+003;7.365385e-002
1.483053e+003;7.121315e-002
1.484982e+003;6.793709e-002
1.486911e+003;6.373149e-002
1.488839e+003;5.960350e-002
1.490768e+003;5.766554e-002
1.492696e+003;5.727567e-002
1.494625e+003;5.428705e-002
1.496553e+003;5.102977e-002
1.498482e+003;5.094731e-002
1.500410e+003;5.145943e-002
1.502339e+003;5.071395e-002
1.504267e+003;4.614209e-002
1.506196e+003;4.103304e-002
1.508125e+003;4.294514e-002
1.510053e+003;4.611261e-002
1.511982e+003;4.627458e-002
1.513910e+003;4.600120e-002
1.515839e+003;4.472064e-002
1.517767e+003;4.382155e-002
1.519696e+003;4.154489e-002
1.521624e+003;3.989322e-002
1.523553e+003;4.208225e-002
1.525481e+003;4.301282e-002
1.527410e+003;4.366457e-002
1.529339e+003;4.458767e-002
1.531267e+003;4.411641e-002
1.533196e+003;4.271092e-002
1.535124e+003;4.369062e-002
1.537053e+003;4.178217e-002
1.538981e+003;3.592904e-002
1.540910e+003;3.572721e-002
1.542838e+003;3.943163e-002
1.544767e+003;4.191253e-002
1.546695e+003;4.405241e-002
1.548624e+003;4.468083e-002
1.550553e+003;4.458705e-002
1.552481e+003;4.388655e-002
1.554410e+003;4.248352e-002
1.556338e+003;3.978409e-002
1.558267e+003;3.449631e-002
1.560195e+003;3.670976e-002
1.562124e+003;4.312767e-002
1.564052e+003;4.516663e-002
1.565981e+003;4.555104e-002
1.567910e+003;4.458972e-002
1.569838e+003;4.363585e-002
1.571767e+003;4.516663e-002
1.573695e+003;4.434948e-002
1.575624e+003;4.108377e-002
1.577552e+003;4.302544e-002
1.579481e+003;4.631830e-002
1.581409e+003;4.700578e-002
1.583338e+003;4.731419e-002
1.585266e+003;4.789070e-002
1.587195e+003;4.851862e-002
1.589124e+003;4.884957e-002
1.591052e+003;4.912322e-002
1.592981e+003;4.924712e-002
1.594909e+003;4.975375e-002
1.596838e+003;5.039382e-002
1.598766e+003;5.104781e-002
1.600695e+003;5.130137e-002
1.602623e+003;5.154557e-002
1.604552e+003;5.228418e-002
1.606480e+003;5.288476e-002
1.608409e+003;5.314266e-002
1.610338e+003;5.370604e-002
1.612266e+003;5.423723e-002
1.614195e+003;5.318640e-002
1.616123e+003;5.092440e-002
1.618052e+003;5.315760e-002
1.619980e+003;5.612403e-002
1.621909e+003;5.544967e-002
1.623837e+003;5.521557e-002
1.625766e+003;5.650283e-002
1.627694e+003;5.726066e-002
1.629623e+003;5.819330e-002
1.631552e+003;5.873023e-002
1.633480e+003;5.680597e-002
1.635409e+003;5.464576e-002
1.637337e+003;5.732848e-002
1.639266e+003;6.012103e-002
1.641194e+003;6.059052e-002
1.643123e+003;5.981538e-002
1.645051e+003;5.707833e-002
1.646980e+003;5.627005e-002
1.648909e+003;5.800543e-002
1.650837e+003;5.400607e-002
1.652766e+003;4.792370e-002
1.654694e+003;5.268725e-002
1.656623e+003;5.791864e-002
1.658551e+003;5.817314e-002
1.660480e+003;5.657510e-002
1.662408e+003;5.466380e-002
1.664337e+003;5.479816e-002
1.666266e+003;5.411824e-002
1.668194e+003;5.101934e-002
1.670123e+003;4.993343e-002
1.672051e+003;5.047807e-002
1.673980e+003;4.858558e-002
1.675908e+003;4.763461e-002
1.677837e+003;4.852118e-002
1.679765e+003;4.744711e-002
1.681694e+003;4.421864e-002
1.683622e+003;3.855776e-002
1.685551e+003;3.923002e-002
1.687479e+003;4.287206e-002
1.689408e+003;4.284925e-002
1.691337e+003;4.235839e-002
1.693265e+003;3.988232e-002
1.695194e+003;3.493468e-002
1.697122e+003;3.441011e-002
1.699051e+003;3.249464e-002
1.700979e+003;3.229022e-002
1.702908e+003;3.605128e-002
1.704836e+003;3.589917e-002
1.706765e+003;3.578549e-002
1.708693e+003;3.604405e-002
1.710622e+003;3.578189e-002
1.712551e+003;3.450664e-002
1.714479e+003;3.222820e-002
1.716408e+003;2.927398e-002
1.718336e+003;2.989548e-002
1.720265e+003;3.337152e-002
1.722193e+003;3.461998e-002
1.724122e+003;3.468163e-002
1.726050e+003;3.518372e-002
1.727979e+003;3.511743e-002
1.729908e+003;3.437755e-002
1.731836e+003;3.169541e-002
1.733765e+003;2.888855e-002
1.735693e+003;3.176377e-002
1.737622e+003;3.354742e-002
1.739550e+003;3.191734e-002
1.741479e+003;3.156615e-002
1.743407e+003;3.100011e-002
1.745336e+003;2.981726e-002
1.747265e+003;2.801819e-002
1.749193e+003;2.591408e-002
1.751122e+003;2.464379e-002
1.753050e+003;2.555520e-002
1.754979e+003;2.536284e-002
1.756907e+003;2.450140e-002
1.758836e+003;2.431427e-002
1.760764e+003;2.322409e-002
1.762693e+003;2.295289e-002
1.764621e+003;2.370672e-002
1.766550e+003;2.275145e-002
1.768479e+003;2.165026e-002
1.770407e+003;2.040310e-002
1.772336e+003;1.929143e-002
1.774264e+003;2.120793e-002
1.776193e+003;2.270519e-002
1.778121e+003;2.247148e-002
1.780050e+003;2.192845e-002
1.781978e+003;2.199133e-002
1.783907e+003;2.188228e-002
1.785835e+003;2.188203e-002
1.787764e+003;2.197745e-002
1.789693e+003;2.094022e-002
1.791621e+003;1.931720e-002
1.793550e+003;1.982166e-002
1.795478e+003;2.118988e-002
1.797407e+003;2.114851e-002
1.799335e+003;2.075274e-002
1.801264e+003;2.080151e-002
1.803192e+003;2.123949e-002
1.805121e+003;2.134069e-002
1.807049e+003;2.134921e-002
1.808978e+003;2.091515e-002
1.810907e+003;2.068289e-002
1.812835e+003;2.101620e-002
1.814764e+003;2.105460e-002
1.816692e+003;2.061197e-002
1.818621e+003;2.044985e-002
1.820549e+003;2.041418e-002
1.822478e+003;2.021054e-002
1.824406e+003;1.948538e-002
1.826335e+003;1.963054e-002
1.828264e+003;1.935226e-002
1.830192e+003;1.900720e-002
1.832121e+003;1.975782e-002
1.834049e+003;1.999868e-002
1.835978e+003;1.966704e-002
1.837906e+003;1.962752e-002
1.839835e+003;1.988905e-002
1.841763e+003;1.901506e-002
1.843692e+003;1.738621e-002
1.845620e+003;1.813827e-002
1.847549e+003;1.916131e-002
1.849478e+003;1.935739e-002
1.851406e+003;1.941951e-002
1.853335e+003;1.914171e-002
1.855263e+003;1.902697e-002
1.857192e+003;1.910913e-002
1.859120e+003;1.889987e-002
1.861049e+003;1.879596e-002
1.862977e+003;1.885575e-002
1.864906e+003;1.866682e-002
1.866834e+003;1.804797e-002
1.868763e+003;1.745129e-002
1.870692e+003;1.795552e-002
1.872620e+003;1.862445e-002
1.874549e+003;1.864765e-002
1.876477e+003;1.849888e-002
1.878406e+003;1.847102e-002
1.880334e+003;1.848526e-002
1.882263e+003;1.823024e-002
1.884191e+003;1.811961e-002
1.886120e+003;1.812006e-002
1.888048e+003;1.788432e-002
1.889977e+003;1.782324e-002
1.891906e+003;1.820588e-002
1.893834e+003;1.803644e-002
1.895763e+003;1.786978e-002
1.897691e+003;1.794378e-002
1.899620e+003;1.808303e-002
1.901548e+003;1.818063e-002
1.903477e+003;1.824168e-002
1.905405e+003;1.794412e-002
1.907334e+003;1.776756e-002
1.909262e+003;1.783798e-002
1.911191e+003;1.815644e-002
1.913120e+003;1.828826e-002
1.915048e+003;1.802003e-002
1.916977e+003;1.732875e-002
1.918905e+003;1.732551e-002
1.920834e+003;1.768414e-002
1.922762e+003;1.762006e-002
1.924691e+003;1.774899e-002
1.926619e+003;1.803630e-002
1.928548e+003;1.835642e-002
1.930477e+003;1.837885e-002
1.932405e+003;1.832134e-002
1.934334e+003;1.842670e-002
1.936262e+003;1.846576e-002
1.938191e+003;1.837301e-002
1.940119e+003;1.814528e-002
1.942048e+003;1.784927e-002
1.943976e+003;1.821780e-002
1.945905e+003;1.846960e-002
1.947833e+003;1.858630e-002
1.949762e+003;1.891046e-002
1.951691e+003;1.899668e-002
1.953619e+003;1.890420e-002
1.955548e+003;1.867719e-002
1.957476e+003;1.865053e-002
1.959405e+003;1.882658e-002
1.961333e+003;1.905771e-002
1.963262e+003;1.911363e-002
1.965190e+003;1.894414e-002
1.967119e+003;1.852160e-002
1.969047e+003;1.850054e-002
1.970976e+003;1.877572e-002
1.972905e+003;1.897377e-002
1.974833e+003;1.914503e-002
1.976762e+003;1.908112e-002
1.978690e+003;1.903438e-002
1.980619e+003;1.894241e-002
1.982547e+003;1.863738e-002
1.984476e+003;1.862389e-002
1.986404e+003;1.869093e-002
1.988333e+003;1.852855e-002
1.990261e+003;1.849349e-002
1.992190e+003;1.872642e-002
1.994119e+003;1.892777e-002
1.996047e+003;1.901974e-002
1.997976e+003;1.908264e-002
1.999904e+003;1.906713e-002
2.001833e+003;1.894390e-002
2.003761e+003;1.886603e-002
2.005690e+003;1.889987e-002
2.007618e+003;1.897245e-002
2.009547e+003;1.906429e-002
2.011476e+003;1.924931e-002
2.013404e+003;1.913638e-002
2.015333e+003;1.897318e-002
2.017261e+003;1.901157e-002
2.019190e+003;1.906405e-002
2.021118e+003;1.934322e-002
2.023047e+003;1.964780e-002
2.024975e+003;1.954846e-002
2.026904e+003;1.933078e-002
2.028833e+003;1.937883e-002
2.030761e+003;1.952101e-002
2.032690e+003;1.939612e-002
2.034618e+003;1.949872e-002
2.036547e+003;1.998154e-002
2.038475e+003;2.017809e-002
2.040404e+003;1.985617e-002
2.042332e+003;1.958662e-002
2.044261e+003;1.952284e-002
2.046189e+003;1.958395e-002
2.048118e+003;1.968074e-002
2.050047e+003;1.974252e-002
2.051975e+003;1.986130e-002
2.053904e+003;1.980262e-002
2.055832e+003;1.977529e-002
2.057761e+003;2.002685e-002
2.059689e+003;2.005048e-002
2.061618e+003;1.979784e-002
2.063546e+003;1.954011e-002
2.065475e+003;1.964233e-002
2.067404e+003;1.970924e-002
2.069332e+003;1.952316e-002
2.071260e+003;1.944023e-002
2.073189e+003;1.963543e-002
2.075118e+003;1.977120e-002
2.077046e+003;1.989242e-002
2.078975e+003;2.001668e-002
2.080903e+003;1.988374e-002
2.082832e+003;1.945135e-002
2.084760e+003;1.933709e-002
2.086689e+003;1.948032e-002
2.088617e+003;1.961220e-002
2.090546e+003;1.970313e-002
2.092475e+003;1.963362e-002
2.094403e+003;1.968150e-002
2.096332e+003;1.988149e-002
2.098260e+003;1.981559e-002
2.100189e+003;1.973625e-002
2.102117e+003;1.965969e-002
2.104046e+003;1.960735e-002
2.105974e+003;1.954149e-002
2.107903e+003;1.967481e-002
2.109832e+003;1.980831e-002
2.111760e+003;1.980384e-002
2.113688e+003;1.992325e-002
2.115617e+003;2.019093e-002
2.117546e+003;2.031157e-002
2.119474e+003;2.014866e-002
2.121403e+003;1.992815e-002
2.123331e+003;1.971274e-002
2.125260e+003;1.980744e-002
2.127188e+003;2.001134e-002
2.129117e+003;1.984320e-002
2.131045e+003;1.989072e-002
2.132974e+003;2.002903e-002
2.134903e+003;2.004121e-002
2.136831e+003;1.991420e-002
2.138760e+003;1.993050e-002
2.140688e+003;2.013935e-002
2.142617e+003;2.013686e-002
2.144545e+003;1.988125e-002
2.146474e+003;1.988260e-002
2.148402e+003;1.998841e-002
2.150331e+003;1.992610e-002
2.152260e+003;1.976520e-002
2.154188e+003;1.965321e-002
2.156117e+003;1.963009e-002
2.158045e+003;1.957560e-002
2.159974e+003;1.961536e-002
2.161902e+003;1.952063e-002
2.163831e+003;1.920210e-002
2.165759e+003;1.922150e-002
2.167688e+003;1.919390e-002
2.169616e+003;1.901063e-002
2.171545e+003;1.868574e-002
2.173474e+003;1.851849e-002
2.175402e+003;1.851112e-002
2.177331e+003;1.862130e-002
2.179259e+003;1.847209e-002
2.181188e+003;1.822136e-002
2.183116e+003;1.815409e-002
2.185045e+003;1.823975e-002
2.186973e+003;1.822219e-002
2.188902e+003;1.794626e-002
2.190831e+003;1.804110e-002
2.192759e+003;1.812041e-002
2.194688e+003;1.782970e-002
2.196616e+003;1.782473e-002
2.198545e+003;1.794288e-002
2.200473e+003;1.791898e-002
2.202402e+003;1.786005e-002
2.204330e+003;1.768155e-002
2.206259e+003;1.741659e-002
2.208188e+003;1.739493e-002
2.210116e+003;1.745015e-002
2.212044e+003;1.734358e-002
2.213973e+003;1.741438e-002
2.215902e+003;1.741614e-002
2.217830e+003;1.740411e-002
2.219759e+003;1.737617e-002
2.221687e+003;1.740662e-002
2.223616e+003;1.764718e-002
2.225544e+003;1.763766e-002
2.227473e+003;1.746836e-002
2.229401e+003;1.724128e-002
2.231330e+003;1.696146e-002
2.233259e+003;1.710840e-002
2.235187e+003;1.740690e-002
2.237116e+003;1.748489e-002
2.239044e+003;1.756247e-002
2.240973e+003;1.739876e-002
2.242901e+003;1.713490e-002
2.244830e+003;1.726124e-002
2.246758e+003;1.727072e-002
2.248687e+003;1.730220e-002
2.250615e+003;1.720939e-002
2.252544e+003;1.712815e-002
2.254473e+003;1.693610e-002
2.256401e+003;1.683221e-002
2.258330e+003;1.674704e-002
2.260258e+003;1.665331e-002
2.262187e+003;1.672944e-002
2.264115e+003;1.678616e-002
2.266044e+003;1.675169e-002
2.267972e+003;1.687344e-002
2.269901e+003;1.670324e-002
2.271830e+003;1.618509e-002
2.273758e+003;1.601429e-002
2.275687e+003;1.630248e-002
2.277615e+003;1.640456e-002
2.279544e+003;1.652684e-002
2.281472e+003;1.684668e-002
2.283401e+003;1.671185e-002
2.285329e+003;1.634545e-002
2.287258e+003;1.632178e-002
2.289187e+003;1.625831e-002
2.291115e+003;1.602643e-002
2.293043e+003;1.592114e-002
2.294972e+003;1.596015e-002
2.296901e+003;1.609746e-002
2.298829e+003;1.594252e-002
2.300758e+003;1.589158e-002
2.302686e+003;1.575698e-002
2.304615e+003;1.556942e-002
2.306543e+003;1.540951e-002
2.308472e+003;1.507114e-002
2.310400e+003;1.468207e-002
2.312329e+003;1.440102e-002
2.314258e+003;1.406401e-002
2.316186e+003;1.348381e-002
2.318115e+003;1.286033e-002
2.320043e+003;1.244735e-002
2.321972e+003;1.192978e-002
2.323900e+003;1.106951e-002
2.325829e+003;1.035591e-002
2.327757e+003;9.964356e-003
2.329686e+003;9.536846e-003
2.331615e+003;8.887203e-003
2.333543e+003;8.636001e-003
2.335472e+003;8.621399e-003
2.337400e+003;8.610381e-003
2.339329e+003;8.969324e-003
2.341257e+003;9.625221e-003
2.343186e+003;1.051421e-002
2.345114e+003;1.190925e-002
2.347043e+003;1.367991e-002
2.348971e+003;1.440824e-002
2.350900e+003;1.312177e-002
2.352829e+003;1.090850e-002
2.354757e+003;9.055181e-003
2.356686e+003;7.748117e-003
2.358614e+003;6.871571e-003
2.360543e+003;6.459132e-003
2.362471e+003;6.521118e-003
2.364400e+003;6.935501e-003
2.366328e+003;8.079139e-003
2.368257e+003;9.492039e-003
2.370186e+003;1.090197e-002
2.372114e+003;1.248462e-002
2.374042e+003;1.406583e-002
2.375971e+003;1.550129e-002
2.377900e+003;1.663190e-002
2.379828e+003;1.731882e-002
2.381757e+003;1.764573e-002
2.383685e+003;1.782148e-002
2.385614e+003;1.806600e-002
2.387542e+003;1.840132e-002
2.389471e+003;1.853979e-002
2.391399e+003;1.861089e-002
2.393328e+003;1.876568e-002
2.395257e+003;1.894919e-002
2.397185e+003;1.900942e-002
2.399114e+003;1.901077e-002
2.401042e+003;1.919480e-002
2.402971e+003;1.950940e-002
2.404899e+003;1.966125e-002
2.406828e+003;1.953123e-002
2.408756e+003;1.941781e-002
2.410685e+003;1.952853e-002
2.412614e+003;1.970008e-002
2.414542e+003;1.981968e-002
2.416471e+003;1.982912e-002
2.418399e+003;1.983356e-002
2.420328e+003;1.999736e-002
2.422256e+003;2.025859e-002
2.424185e+003;2.060314e-002
2.426113e+003;2.071715e-002
2.428042e+003;2.065526e-002
2.429970e+003;2.070436e-002
2.431899e+003;2.068831e-002
2.433828e+003;2.083467e-002
2.435756e+003;2.108976e-002
2.437685e+003;2.112764e-002
2.439613e+003;2.128414e-002
2.441542e+003;2.168718e-002
2.443470e+003;2.187817e-002
2.445399e+003;2.194814e-002
2.447327e+003;2.217327e-002
2.449256e+003;2.221020e-002
2.451185e+003;2.192079e-002
2.453113e+003;2.192218e-002
2.455042e+003;2.234361e-002
2.456970e+003;2.264312e-002
2.458899e+003;2.275145e-002
2.460827e+003;2.263275e-002
2.462756e+003;2.290042e-002
2.464684e+003;2.331351e-002
2.466613e+003;2.325306e-002
2.468542e+003;2.313584e-002
2.470470e+003;2.321965e-002
2.472398e+003;2.350283e-002
2.474327e+003;2.368048e-002
2.476256e+003;2.366602e-002
2.478184e+003;2.369766e-002
2.480113e+003;2.392422e-002
2.482041e+003;2.439256e-002
2.483970e+003;2.477416e-002
2.485898e+003;2.483689e-002
2.487827e+003;2.483292e-002
2.489755e+003;2.479272e-002
2.491684e+003;2.489748e-002
2.493613e+003;2.526920e-002
2.495541e+003;2.538750e-002
2.497470e+003;2.515890e-002
2.499398e+003;2.522692e-002
2.501327e+003;2.524648e-002
2.503255e+003;2.513113e-002
2.505184e+003;2.549680e-002
2.507112e+003;2.587708e-002
2.509041e+003;2.593388e-002
2.510969e+003;2.588011e-002
2.512898e+003;2.609606e-002
2.514827e+003;2.649916e-002
2.516755e+003;2.662829e-002
2.518684e+003;2.690898e-002
2.520612e+003;2.714224e-002
2.522541e+003;2.717116e-002
2.524469e+003;2.701884e-002
2.526398e+003;2.696733e-002
2.528326e+003;2.719437e-002
2.530255e+003;2.728207e-002
2.532184e+003;2.736771e-002
2.534112e+003;2.777337e-002
2.536041e+003;2.796182e-002
2.537969e+003;2.794285e-002
2.539898e+003;2.794444e-002
2.541826e+003;2.801010e-002
2.543755e+003;2.821219e-002
2.545683e+003;2.848202e-002
2.547612e+003;2.861928e-002
2.549541e+003;2.859684e-002
2.551469e+003;2.863351e-002
2.553397e+003;2.883518e-002
2.555326e+003;2.921284e-002
2.557255e+003;2.910119e-002
2.559183e+003;2.902169e-002
2.561112e+003;2.932204e-002
2.563040e+003;2.957912e-002
2.564969e+003;2.978184e-002
2.566897e+003;2.975636e-002
2.568826e+003;2.956571e-002
2.570754e+003;2.979933e-002
2.572683e+003;3.014530e-002
2.574612e+003;3.012296e-002
2.576540e+003;3.005886e-002
2.578469e+003;3.021633e-002
2.580397e+003;3.035272e-002
2.582326e+003;3.025101e-002
2.584254e+003;3.027850e-002
2.586183e+003;3.074550e-002
2.588111e+003;3.120649e-002
2.590040e+003;3.120464e-002
2.591969e+003;3.103613e-002
2.593897e+003;3.110499e-002
2.595826e+003;3.111147e-002
2.597754e+003;3.133058e-002
2.599683e+003;3.174659e-002
2.601611e+003;3.208098e-002
2.603540e+003;3.234355e-002
2.605468e+003;3.247093e-002
2.607397e+003;3.239517e-002
2.609325e+003;3.236611e-002
2.611254e+003;3.250539e-002
2.613183e+003;3.244308e-002
2.615111e+003;3.258228e-002
2.617040e+003;3.319205e-002
2.618968e+003;3.354295e-002
2.620897e+003;3.380511e-002
2.622825e+003;3.399559e-002
2.624754e+003;3.424387e-002
2.626682e+003;3.446406e-002
2.628611e+003;3.450262e-002
2.630540e+003;3.449566e-002
2.632468e+003;3.475173e-002
2.634396e+003;3.519155e-002
2.636325e+003;3.525763e-002
2.638254e+003;3.530672e-002
2.640182e+003;3.581252e-002
2.642111e+003;3.610450e-002
2.644039e+003;3.603937e-002
2.645968e+003;3.631400e-002
2.647896e+003;3.676749e-002
2.649825e+003;3.692940e-002
2.651753e+003;3.706455e-002
2.653682e+003;3.737666e-002
2.655611e+003;3.762999e-002
2.657539e+003;3.781503e-002
2.659468e+003;3.795922e-002
2.661396e+003;3.816708e-002
2.663325e+003;3.862254e-002
2.665253e+003;3.920336e-002
2.667182e+003;3.951963e-002
2.669110e+003;3.968681e-002
2.671039e+003;3.987713e-002
2.672968e+003;4.002345e-002
2.674896e+003;4.033112e-002
2.676825e+003;4.055139e-002
2.678753e+003;4.071589e-002
2.680682e+003;4.071960e-002
2.682610e+003;4.086864e-002
2.684539e+003;4.126009e-002
2.686467e+003;4.160145e-002
2.688396e+003;4.163182e-002
2.690324e+003;4.164863e-002
2.692253e+003;4.196428e-002
2.694182e+003;4.247636e-002
2.696110e+003;4.296757e-002
2.698039e+003;4.318882e-002
2.699967e+003;4.344270e-002
2.701896e+003;4.390814e-002
2.703824e+003;4.407313e-002
2.705753e+003;4.397992e-002
2.707681e+003;4.441657e-002
2.709610e+003;4.496421e-002
2.711539e+003;4.533693e-002
2.713467e+003;4.526856e-002
2.715396e+003;4.529923e-002
2.717324e+003;4.570161e-002
2.719253e+003;4.597884e-002
2.721181e+003;4.633691e-002
2.723110e+003;4.650151e-002
2.725038e+003;4.653013e-002
2.726967e+003;4.659836e-002
2.728896e+003;4.669937e-002
2.730824e+003;4.704540e-002
2.732752e+003;4.750314e-002
2.734681e+003;4.774363e-002
2.736610e+003;4.797021e-002
2.738538e+003;4.809823e-002
2.740467e+003;4.826668e-002
2.742395e+003;4.858832e-002
2.744324e+003;4.869131e-002
2.746252e+003;4.849691e-002
2.748181e+003;4.842963e-002
2.750109e+003;4.872693e-002
2.752038e+003;4.890445e-002
2.753967e+003;4.901415e-002
2.755895e+003;4.918281e-002
2.757824e+003;4.951772e-002
2.759752e+003;4.996358e-002
2.761681e+003;5.023704e-002
2.763609e+003;5.033537e-002
2.765538e+003;5.058096e-002
2.767466e+003;5.079789e-002
2.769395e+003;5.077678e-002
2.771323e+003;5.093267e-002
2.773252e+003;5.153180e-002
2.775181e+003;5.197988e-002
2.777109e+003;5.187529e-002
2.779038e+003;5.211237e-002
2.780966e+003;5.279223e-002
2.782895e+003;5.333908e-002
2.784823e+003;5.393794e-002
2.786752e+003;5.426227e-002
2.788680e+003;5.429595e-002
2.790609e+003;5.447553e-002
2.792538e+003;5.499631e-002
2.794466e+003;5.560070e-002
2.796395e+003;5.602767e-002
2.798323e+003;5.633421e-002
2.800252e+003;5.679600e-002
2.802180e+003;5.761980e-002
2.804109e+003;5.817583e-002
2.806037e+003;5.817045e-002
2.807966e+003;5.862726e-002
2.809895e+003;5.943527e-002
2.811823e+003;6.009603e-002
2.813751e+003;6.067472e-002
2.815680e+003;6.141648e-002
2.817609e+003;6.220603e-002
2.819537e+003;6.305943e-002
2.821466e+003;6.370658e-002
2.823394e+003;6.418493e-002
2.825323e+003;6.492948e-002
2.827251e+003;6.573752e-002
2.829180e+003;6.635721e-002
2.831108e+003;6.728965e-002
2.833037e+003;6.854119e-002
2.834966e+003;6.979133e-002
2.836894e+003;7.109582e-002
2.838823e+003;7.252986e-002
2.840751e+003;7.368150e-002
2.842680e+003;7.503574e-002
2.844608e+003;7.707754e-002
2.846537e+003;7.880717e-002
2.848465e+003;8.038954e-002
2.850394e+003;8.240389e-002
2.852323e+003;8.432233e-002
2.854251e+003;8.618938e-002
2.856180e+003;8.787035e-002
2.858108e+003;8.949117e-002
2.860037e+003;9.129410e-002
2.861965e+003;9.264472e-002
2.863894e+003;9.373958e-002
2.865822e+003;9.507912e-002
2.867751e+003;9.625673e-002
2.869679e+003;9.749667e-002
2.871608e+003;9.857678e-002
2.873536e+003;9.985440e-002
2.875465e+003;1.006693e-001
2.877394e+003;1.011836e-001
2.879322e+003;1.019084e-001
2.881251e+003;1.025413e-001
2.883179e+003;1.030360e-001
2.885108e+003;1.036480e-001
2.887036e+003;1.041755e-001
2.888965e+003;1.045946e-001
2.890893e+003;1.053118e-001
2.892822e+003;1.056886e-001
2.894750e+003;1.057463e-001
2.896679e+003;1.057114e-001
2.898608e+003;1.056888e-001
2.900536e+003;1.055766e-001
2.902465e+003;1.053884e-001
2.904393e+003;1.051048e-001
2.906322e+003;1.047102e-001
2.908250e+003;1.045243e-001
2.910179e+003;1.041023e-001
2.912107e+003;1.030044e-001
2.914036e+003;1.016333e-001
2.915965e+003;1.003943e-001
2.917893e+003;9.975876e-002
2.919822e+003;9.925319e-002
2.921750e+003;9.827724e-002
2.923679e+003;9.746553e-002
2.925607e+003;9.698556e-002
2.927536e+003;9.632286e-002
2.929464e+003;9.480304e-002
2.931393e+003;9.370998e-002
2.933322e+003;9.280466e-002
2.935250e+003;9.187138e-002
2.937178e+003;9.134452e-002
2.939107e+003;9.046647e-002
2.941036e+003;8.973961e-002
2.942964e+003;8.888158e-002
2.944893e+003;8.740934e-002
2.946821e+003;8.618065e-002
2.948750e+003;8.483807e-002
2.950678e+003;8.316564e-002
2.952607e+003;8.153991e-002
2.954535e+003;8.019062e-002
2.956464e+003;7.898919e-002
2.958393e+003;7.756090e-002
2.960321e+003;7.576541e-002
2.962250e+003;7.442840e-002
2.964178e+003;7.359784e-002
2.966107e+003;7.225531e-002
2.968035e+003;7.102814e-002
2.969964e+003;7.004109e-002
2.971892e+003;6.888151e-002
2.973821e+003;6.775577e-002
2.975750e+003;6.660419e-002
2.977678e+003;6.511767e-002
2.979607e+003;6.371326e-002
2.981535e+003;6.236295e-002
2.983464e+003;6.102521e-002
2.985392e+003;5.990623e-002
2.987321e+003;5.897306e-002
2.989249e+003;5.799948e-002
2.991178e+003;5.732463e-002
2.993106e+003;5.680355e-002
2.995035e+003;5.617044e-002
2.996964e+003;5.562503e-002
2.998892e+003;5.520395e-002
3.000821e+003;5.485346e-002
3.002749e+003;5.455419e-002
3.004678e+003;5.444992e-002
3.006606e+003;5.462461e-002
3.008535e+003;5.476708e-002
3.010463e+003;5.472028e-002
3.012392e+003;5.450468e-002
3.014321e+003;5.458087e-002
3.016249e+003;5.456918e-002
3.018177e+003;5.462393e-002
3.020106e+003;5.507518e-002
3.022035e+003;5.566454e-002
3.023963e+003;5.598722e-002
3.025892e+003;5.580185e-002
3.027820e+003;5.617063e-002
3.029749e+003;5.703227e-002
3.031677e+003;5.759876e-002
3.033606e+003;5.757451e-002
3.035534e+003;5.770447e-002
3.037463e+003;5.827718e-002
3.039392e+003;5.906276e-002
3.041320e+003;5.957899e-002
3.043249e+003;6.004790e-002
3.045177e+003;6.084099e-002
3.047106e+003;6.120676e-002
3.049034e+003;6.162412e-002
3.050963e+003;6.227984e-002
3.052891e+003;6.250951e-002
3.054820e+003;6.318623e-002
3.056749e+003;6.400516e-002
3.058677e+003;6.452850e-002
3.060606e+003;6.508630e-002
3.062534e+003;6.543737e-002
3.064463e+003;6.599792e-002
3.066391e+003;6.693832e-002
3.068320e+003;6.753309e-002
3.070248e+003;6.802714e-002
3.072177e+003;6.858244e-002
3.074105e+003;6.914505e-002
3.076034e+003;6.973803e-002
3.077963e+003;7.065101e-002
3.079891e+003;7.176874e-002
3.081820e+003;7.250057e-002
3.083748e+003;7.264590e-002
3.085677e+003;7.331182e-002
3.087605e+003;7.438030e-002
3.089534e+003;7.540274e-002
3.091462e+003;7.609659e-002
3.093391e+003;7.643186e-002
3.095320e+003;7.687021e-002
3.097248e+003;7.770730e-002
3.099177e+003;7.849701e-002
3.101105e+003;7.919189e-002
3.103034e+003;7.976026e-002
3.104962e+003;8.054953e-002
3.106891e+003;8.182145e-002
3.108819e+003;8.272218e-002
3.110748e+003;8.332530e-002
3.112677e+003;8.428181e-002
3.114605e+003;8.497618e-002
3.116533e+003;8.539218e-002
3.118462e+003;8.586967e-002
3.120391e+003;8.655640e-002
3.122319e+003;8.752043e-002
3.124248e+003;8.857695e-002
3.126176e+003;8.933948e-002
3.128105e+003;9.000053e-002
3.130033e+003;9.115013e-002
3.131962e+003;9.183875e-002
3.133890e+003;9.237453e-002
3.135819e+003;9.324548e-002
3.137748e+003;9.380657e-002
3.139676e+003;9.444633e-002
3.141605e+003;9.537485e-002
3.143533e+003;9.653642e-002
3.145462e+003;9.746126e-002
3.147390e+003;9.824949e-002
3.149319e+003;9.946273e-002
3.151247e+003;1.001432e-001
3.153176e+003;1.006300e-001
3.155104e+003;1.011470e-001
3.157033e+003;1.016967e-001
3.158962e+003;1.025869e-001
3.160890e+003;1.038383e-001
3.162819e+003;1.050643e-001
3.164747e+003;1.057705e-001
3.166676e+003;1.064575e-001
3.168604e+003;1.068682e-001
3.170533e+003;1.075096e-001
3.172461e+003;1.085837e-001
3.174390e+003;1.100129e-001
3.176319e+003;1.110127e-001
3.178247e+003;1.111663e-001
3.180176e+003;1.114189e-001
3.182104e+003;1.122150e-001
3.184033e+003;1.134146e-001
3.185961e+003;1.145691e-001
3.187890e+003;1.154335e-001
3.189818e+003;1.158225e-001
3.191747e+003;1.164749e-001
3.193676e+003;1.175302e-001
3.195604e+003;1.183535e-001
3.197532e+003;1.190341e-001
3.199461e+003;1.202152e-001
3.201390e+003;1.211325e-001
3.203318e+003;1.219865e-001
3.205247e+003;1.233069e-001
3.207175e+003;1.240065e-001
3.209104e+003;1.243071e-001
3.211032e+003;1.250346e-001
3.212961e+003;1.262745e-001
3.214889e+003;1.276820e-001
3.216818e+003;1.284536e-001
3.218747e+003;1.290947e-001
3.220675e+003;1.295554e-001
3.222604e+003;1.303835e-001
3.224532e+003;1.317904e-001
3.226461e+003;1.325828e-001
3.228389e+003;1.330462e-001
3.230318e+003;1.339228e-001
3.232246e+003;1.348568e-001
3.234175e+003;1.357354e-001
3.236104e+003;1.364657e-001
3.238032e+003;1.372799e-001
3.239961e+003;1.380665e-001
3.241889e+003;1.389006e-001
3.243818e+003;1.400134e-001
3.245746e+003;1.409027e-001
3.247675e+003;1.419326e-001
3.249603e+003;1.428773e-001
3.251532e+003;1.433816e-001
3.253460e+003;1.438842e-001
3.255389e+003;1.444362e-001
3.257318e+003;1.454594e-001
3.259246e+003;1.465048e-001
3.261175e+003;1.472696e-001
3.263103e+003;1.478335e-001
3.265032e+003;1.481070e-001
3.266960e+003;1.486532e-001
3.268889e+003;1.494806e-001
3.270817e+003;1.500868e-001
3.272746e+003;1.498432e-001
3.274675e+003;1.498264e-001
3.276603e+003;1.499652e-001
3.278531e+003;1.504993e-001
3.280460e+003;1.515291e-001
3.282389e+003;1.520108e-001
3.284317e+003;1.522172e-001
3.286246e+003;1.522005e-001
3.288174e+003;1.520061e-001
3.290103e+003;1.521455e-001
3.292031e+003;1.526985e-001
3.293960e+003;1.526023e-001
3.295888e+003;1.533011e-001
3.297817e+003;1.543328e-001
3.299746e+003;1.541259e-001
3.301674e+003;1.539946e-001
3.303603e+003;1.545874e-001
3.305531e+003;1.549485e-001
3.307460e+003;1.552102e-001
3.309388e+003;1.553886e-001
3.311317e+003;1.551899e-001
3.313245e+003;1.552315e-001
3.315174e+003;1.553884e-001
3.317103e+003;1.551870e-001
3.319031e+003;1.554730e-001
3.320960e+003;1.561269e-001
3.322888e+003;1.556483e-001
3.324817e+003;1.553443e-001
3.326745e+003;1.553361e-001
3.328674e+003;1.551728e-001
3.330602e+003;1.548103e-001
3.332531e+003;1.542296e-001
3.334459e+003;1.538036e-001
3.336388e+003;1.537688e-001
3.338317e+003;1.539167e-001
3.340245e+003;1.533472e-001
3.342174e+003;1.517618e-001
3.344102e+003;1.503732e-001
3.346031e+003;1.496683e-001
3.347959e+003;1.496229e-001
3.349888e+003;1.494427e-001
3.351816e+003;1.491228e-001
3.353745e+003;1.490751e-001
3.355674e+003;1.485896e-001
3.357602e+003;1.478186e-001
3.359531e+003;1.472131e-001
3.361459e+003;1.464860e-001
3.363388e+003;1.462410e-001
3.365316e+003;1.456177e-001
3.367245e+003;1.453209e-001
3.369173e+003;1.450333e-001
3.371102e+003;1.441538e-001
3.373031e+003;1.437977e-001
3.374959e+003;1.435431e-001
3.376887e+003;1.430625e-001
3.378816e+003;1.421868e-001
3.380745e+003;1.411106e-001
3.382673e+003;1.404019e-001
3.384602e+003;1.401900e-001
3.386530e+003;1.397035e-001
3.388459e+003;1.395290e-001
3.390387e+003;1.392341e-001
3.392316e+003;1.384786e-001
3.394244e+003;1.379738e-001
3.396173e+003;1.375269e-001
3.398102e+003;1.367992e-001
3.400030e+003;1.362002e-001
3.401959e+003;1.351381e-001
3.403887e+003;1.338284e-001
3.405816e+003;1.332192e-001
3.407744e+003;1.331013e-001
3.409673e+003;1.325249e-001
3.411601e+003;1.315470e-001
3.413530e+003;1.305813e-001
3.415458e+003;1.295779e-001
3.417387e+003;1.283838e-001
3.419316e+003;1.270437e-001
3.421244e+003;1.264438e-001
3.423173e+003;1.265493e-001
3.425101e+003;1.260606e-001
3.427030e+003;1.252393e-001
3.428958e+003;1.246781e-001
3.430887e+003;1.235329e-001
3.432815e+003;1.223680e-001
3.434744e+003;1.219161e-001
3.436673e+003;1.213542e-001
3.438601e+003;1.204153e-001
3.440530e+003;1.194017e-001
3.442458e+003;1.186322e-001
3.444387e+003;1.180426e-001
3.446315e+003;1.165349e-001
3.448244e+003;1.154663e-001
3.450172e+003;1.148581e-001
3.452101e+003;1.140618e-001
3.454030e+003;1.131395e-001
3.455958e+003;1.121531e-001
3.457886e+003;1.113986e-001
3.459815e+003;1.101379e-001
3.461744e+003;1.083393e-001
3.463672e+003;1.074369e-001
3.465601e+003;1.070691e-001
3.467529e+003;1.067540e-001
3.469458e+003;1.052885e-001
3.471386e+003;1.041084e-001
3.473315e+003;1.033798e-001
3.475243e+003;1.018409e-001
3.477172e+003;1.004836e-001
3.479101e+003;9.982955e-002
3.481029e+003;9.920055e-002
3.482958e+003;9.811345e-002
3.484886e+003;9.746815e-002
3.486815e+003;9.633614e-002
3.488743e+003;9.452393e-002
3.490672e+003;9.344554e-002
3.492600e+003;9.251797e-002
3.494529e+003;9.166116e-002
3.496458e+003;9.047733e-002
3.498386e+003;8.921231e-002
3.500315e+003;8.836021e-002
3.502243e+003;8.708841e-002
3.504172e+003;8.595104e-002
3.506100e+003;8.515420e-002
3.508029e+003;8.390521e-002
3.509957e+003;8.271248e-002
3.511886e+003;8.201567e-002
3.513814e+003;8.103473e-002
3.515743e+003;7.947413e-002
3.517672e+003;7.786187e-002
3.519600e+003;7.700169e-002
3.521529e+003;7.581149e-002
3.523457e+003;7.428782e-002
3.525386e+003;7.357617e-002
3.527314e+003;7.316408e-002
3.529243e+003;7.186518e-002
3.531171e+003;7.074451e-002
3.533100e+003;6.947654e-002
3.535029e+003;6.794147e-002
3.536957e+003;6.710403e-002
3.538885e+003;6.643137e-002
3.540814e+003;6.503934e-002
3.542743e+003;6.307507e-002
3.544671e+003;6.200454e-002
3.546600e+003;6.133939e-002
3.548528e+003;6.012895e-002
3.550457e+003;5.858824e-002
3.552385e+003;5.788389e-002
3.554314e+003;5.725446e-002
3.556242e+003;5.580230e-002
3.558171e+003;5.461728e-002
3.560100e+003;5.368223e-002
3.562028e+003;5.246140e-002
3.563957e+003;5.046095e-002
3.565885e+003;4.787372e-002
3.567814e+003;4.633625e-002
3.569742e+003;4.618355e-002
3.571671e+003;4.586095e-002
3.573599e+003;4.474121e-002
3.575528e+003;4.363328e-002
3.577457e+003;4.262396e-002
3.579385e+003;4.148769e-002
3.581314e+003;4.041682e-002
3.583242e+003;3.927778e-002
3.585171e+003;3.714406e-002
3.587099e+003;3.500047e-002
3.589028e+003;3.469961e-002
3.590956e+003;3.439645e-002
3.592885e+003;3.311180e-002
3.594813e+003;3.176681e-002
3.596742e+003;3.100563e-002
3.598671e+003;3.011269e-002
3.600599e+003;2.869726e-002
3.602528e+003;2.785526e-002
3.604456e+003;2.692284e-002
3.606385e+003;2.561660e-002
3.608313e+003;2.425572e-002
3.610242e+003;2.311567e-002
3.612170e+003;2.171271e-002
3.614099e+003;2.106653e-002
3.616028e+003;2.053880e-002
3.617956e+003;1.904435e-002
3.619885e+003;1.824838e-002
3.621813e+003;1.850870e-002
3.623742e+003;1.766016e-002
3.625670e+003;1.530852e-002
3.627599e+003;1.145039e-002
3.629527e+003;1.120991e-002
3.631456e+003;1.380265e-002
3.633385e+003;1.392837e-002
3.635313e+003;1.340979e-002
3.637241e+003;1.245106e-002
3.639170e+003;1.216481e-002
3.641099e+003;1.229339e-002
3.643027e+003;1.107896e-002
3.644956e+003;9.190497e-003
3.646884e+003;6.849590e-003
3.648813e+003;4.992966e-003
3.650741e+003;6.427689e-003
3.652670e+003;8.090278e-003
3.654598e+003;6.195012e-003
3.656527e+003;5.277284e-003
3.658456e+003;7.012404e-003
3.660384e+003;7.669970e-003
3.662313e+003;6.923751e-003
3.664241e+003;5.733790e-003
3.666170e+003;4.665660e-003
3.668098e+003;2.763738e-003
3.670027e+003;1.122972e-003
3.671955e+003;1.895521e-003
3.673884e+003;1.917890e-004
3.675813e+003;-7.949528e-004
3.677741e+003;2.017505e-003
3.679669e+003;3.458648e-003
3.681598e+003;3.956612e-003
3.683527e+003;3.861727e-003
3.685455e+003;2.623543e-003
3.687384e+003;-3.919975e-004
3.689312e+003;-7.805325e-004
3.691241e+003;1.570474e-003
3.693169e+003;3.259403e-003
3.695098e+003;2.984208e-003
3.697026e+003;2.685216e-003
3.698955e+003;2.586909e-003
3.700884e+003;1.744860e-003
3.702812e+003;1.724800e-003
3.704741e+003;1.889597e-003
3.706669e+003;1.497587e-003
3.708598e+003;-3.020442e-004
3.710526e+003;-2.390952e-003
3.712455e+003;-1.509281e-003
3.714383e+003;1.108189e-003
3.716312e+003;1.749551e-003
3.718240e+003;1.292426e-003
3.720169e+003;3.501691e-004
3.722098e+003;-6.848266e-005
3.724026e+003;5.634452e-004
3.725955e+003;6.685960e-004
3.727883e+003;9.405002e-004
3.729812e+003;4.682092e-005
3.731740e+003;-2.073112e-003
3.733669e+003;-2.789951e-003
3.735597e+003;-3.141480e-003
3.737526e+003;-1.398553e-003
3.739455e+003;-8.667000e-005
3.741383e+003;-1.661538e-003
3.743312e+003;-6.822177e-003
3.745240e+003;-6.701834e-003
3.747169e+003;-4.434376e-003
3.749097e+003;-6.403295e-003
3.751026e+003;-6.553520e-003
3.752954e+003;-3.269226e-003
3.754883e+003;-4.937146e-004
3.756812e+003;-8.922109e-004
3.758740e+003;-1.293711e-003
3.760668e+003;-5.672156e-004
3.762597e+003;1.538686e-004
3.764526e+003;-5.169808e-004
3.766454e+003;-6.058639e-004
3.768383e+003;-1.489568e-003
3.770311e+003;-1.591754e-003
3.772240e+003;-7.020726e-004
3.774168e+003;-3.448216e-004
3.776097e+003;-6.033492e-004
3.778025e+003;-1.049643e-003
3.779954e+003;-6.154923e-004
3.781883e+003;4.267109e-004
3.783811e+003;8.484300e-004
3.785740e+003;1.079688e-003
3.787668e+003;8.757536e-004
3.789597e+003;9.565721e-004
3.791525e+003;6.983973e-004
3.793454e+003;1.149766e-005
3.795382e+003;-9.788353e-004
3.797311e+003;-8.775624e-004
3.799240e+003;-2.546327e-003
3.801168e+003;-4.228851e-003
3.803097e+003;-1.911861e-003
3.805025e+003;-1.561778e-003
3.806954e+003;-2.302566e-003
3.808882e+003;-9.675288e-004
3.810811e+003;-2.612165e-004
3.812739e+003;-1.003166e-003
3.814668e+003;-3.773332e-003
3.816596e+003;-3.669489e-003
3.818525e+003;-2.352463e-003
3.820454e+003;-3.517441e-003
3.822382e+003;-2.324450e-003
3.824311e+003;-8.059992e-004
3.826239e+003;-7.358466e-004
3.828168e+003;-6.709125e-005
3.830096e+003;-5.571889e-004
3.832025e+003;-2.012563e-003
3.833953e+003;-2.858719e-003
3.835882e+003;-4.332429e-003
3.837811e+003;-5.152570e-003
3.839739e+003;-3.038341e-003
3.841667e+003;-1.607864e-003
3.843596e+003;-6.679653e-004
3.845525e+003;2.365421e-004
3.847453e+003;4.104927e-004
3.849382e+003;-1.435477e-003
3.851310e+003;-6.308603e-003
3.853239e+003;-9.492152e-003
3.855167e+003;-4.969988e-003
3.857096e+003;-5.646345e-004
3.859024e+003;2.156899e-004
3.860953e+003;-8.365903e-004
3.862882e+003;-2.465187e-003
3.864810e+003;-2.637891e-003
3.866739e+003;-1.596343e-003
3.868667e+003;-3.099668e-003
3.870596e+003;-2.505874e-003
3.872524e+003;-9.580735e-004
3.874453e+003;-5.756205e-004
3.876381e+003;1.575809e-004
3.878310e+003;-3.094941e-004
3.880239e+003;-4.381754e-004
3.882167e+003;1.726295e-004
3.884096e+003;-1.111813e-003
3.886024e+003;-1.306100e-003
3.887953e+003;-2.027992e-004
3.889881e+003;-9.203161e-004
3.891810e+003;-9.028911e-004
3.893738e+003;5.414162e-004
3.895667e+003;7.672997e-004
3.897595e+003;-2.852235e-004
3.899524e+003;-1.439671e-003
3.901453e+003;-2.064208e-003
3.903381e+003;-2.530219e-003
3.905310e+003;-1.539459e-003
3.907238e+003;1.378926e-004
3.909167e+003;4.188173e-004
3.911095e+003;2.824933e-004
3.913024e+003;-1.256924e-004
3.914952e+003;-8.136058e-004
3.916881e+003;-1.479661e-003
3.918810e+003;-6.515888e-004
3.920738e+003;5.269852e-004
3.922667e+003;1.065804e-003
3.924595e+003;9.287455e-004
3.926524e+003;6.114551e-004
3.928452e+003;1.711379e-004
3.930381e+003;-3.185332e-004
3.932309e+003;1.754802e-004
3.934238e+003;1.932196e-003
3.936167e+003;2.116117e-003
3.938095e+003;1.175894e-003
3.940023e+003;7.876804e-004
3.941952e+003;8.148010e-004
3.943881e+003;5.168671e-004
3.945809e+003;5.735643e-004
3.947738e+003;7.734736e-004
3.949666e+003;4.771603e-004
3.951595e+003;7.750337e-004
3.953523e+003;1.277737e-003
3.955452e+003;1.069491e-003
3.957380e+003;8.719023e-004
3.959309e+003;9.526869e-004
3.961238e+003;1.074141e-003
3.963166e+003;1.935458e-003
3.965095e+003;2.308876e-003
3.967023e+003;1.336927e-003
3.968952e+003;1.151674e-003
3.970880e+003;1.547030e-003
3.972809e+003;1.508260e-003
3.974737e+003;1.139316e-003
3.976666e+003;1.670214e-003
3.978594e+003;2.486325e-003
3.980523e+003;2.294719e-003
3.982452e+003;2.125673e-003
3.984380e+003;2.799086e-003
3.986309e+003;2.642944e-003
3.988237e+003;2.132599e-003
3.990166e+003;1.936456e-003
3.992094e+003;1.900113e-003
3.994023e+003;1.884373e-003
3.995951e+003;2.085552e-003
3.997880e+003;2.075531e-003
3.999809e+003;2.540980e-003
4.001737e+003;0.000000e+000
