3.992094e+002;0.000000e+000
4.011380e+002;0.000000e+000
4.030665e+002;0.000000e+000
4.049951e+002;0.000000e+000
4.069236e+002;0.000000e+000
4.088522e+002;0.000000e+000
4.107807e+002;0.000000e+000
4.127093e+002;0.000000e+000
4.146378e+002;0.000000e+000
4.165664e+002;0.000000e+000
4.184949e+002;0.000000e+000
4.204235e+002;0.000000e+000
4.223520e+002;0.000000e+000
4.242806e+002;0.000000e+000
4.262091e+002;0.000000e+000
4.281377e+002;0.000000e+000
4.300662e+002;0.000000e+000
4.319948e+002;0.000000e+000
4.339233e+002;0.000000e+000
4.358519e+002;0.000000e+000
4.377804e+002;0.000000e+000
4.397090e+002;0.000000e+000
4.416375e+002;0.000000e+000
4.435660e+002;0.000000e+000
4.454946e+002;0.000000e+000
4.474232e+002;0.000000e+000
4.493517e+002;0.000000e+000
4.512802e+002;0.000000e+000
4.532088e+002;0.000000e+000
4.551373e+002;0.000000e+000
4.570659e+002;0.000000e+000
4.589944e+002;0.000000e+000
4.609230e+002;0.000000e+000
4.628515e+002;0.000000e+000
4.647801e+002;0.000000e+000
4.667086e+002;0.000000e+000
4.686372e+002;0.000000e+000
4.705657e+002;0.000000e+000
4.724943e+002;0.000000e+000
4.744228e+002;0.000000e+000
4.763513e+002;0.000000e+000
4.782799e+002;0.000000e+000
4.802085e+002;0.000000e+000
4.821370e+002;0.000000e+000
4.840656e+002;0.000000e+000
4.859941e+002;0.000000e+000
4.879226e+002;0.000000e+000
4.898512e+002;0.000000e+000
4.917798e+002;0.000000e+000
4.937083e+002;0.000000e+000
4.956368e+002;0.000000e+000
4.975654e+002;0.000000e+000
4.994939e+002;0.000000e+000
5.014225e+002;0.000000e+000
5.033510e+002;0.000000e+000
5.052796e+002;0.000000e+000
5.072081e+002;0.000000e+000
5.091367e+002;0.000000e+000
5.110652e+002;0.000000e+000
5.129938e+002;0.000000e+000
5.149223e+002;0.000000e+000
5.168509e+002;0.000000e+000
5.187794e+002;0.000000e+000
5.207079e+002;0.000000e+000
5.226365e+002;0.000000e+000
5.245651e+002;0.000000e+000
5.264936e+002;0.000000e+000
5.284222e+002;0.000000e+000
5.303507e+002;0.000000e+000
5.322792e+002;0.000000e+000
5.342078e+002;0.000000e+000
5.361364e+002;0.000000e+000
5.380649e+002;0.000000e+000
5.399935e+002;0.000000e+000
5.419220e+002;0.000000e+000
5.438505e+002;0.000000e+000
5.457791e+002;0.000000e+000
5.477076e+002;0.000000e+000
5.496362e+002;0.000000e+000
5.515648e+002;0.000000e+000
5.534933e+002;0.000000e+000
5.554218e+002;0.000000e+000
5.573504e+002;0.000000e+000
5.592789e+002;0.000000e+000
5.612075e+002;0.000000e+000
5.631360e+002;0.000000e+000
5.650646e+002;0.000000e+000
5.669931e+002;0.000000e+000
5.689217e+002;0.000000e+000
5.708502e+002;0.000000e+000
5.727787e+002;0.000000e+000
5.747073e+002;0.000000e+000
5.766359e+002;0.000000e+000
5.785644e+002;0.000000e+000
5.804930e+002;0.000000e+000
5.824215e+002;0.000000e+000
5.843500e+002;0.000000e+000
5.862786e+002;0.000000e+000
5.882072e+002;0.000000e+000
5.901357e+002;0.000000e+000
5.920643e+002;0.000000e+000
5.939928e+002;0.000000e+000
5.959213e+002;0.000000e+000
5.978499e+002;0.000000e+000
5.997784e+002;3.215757e-001
6.017070e+002;3.215127e-001
6.036355e+002;3.232146e-001
6.055641e+002;3.179258e-001
6.074926e+002;3.143053e-001
6.094211e+002;3.138005e-001
6.113497e+002;3.161856e-001
6.132783e+002;3.194053e-001
6.152068e+002;3.164402e-001
6.171354e+002;3.102687e-001
6.190639e+002;3.067382e-001
6.209924e+002;3.029281e-001
6.229210e+002;2.994643e-001
6.248495e+002;2.965066e-001
6.267781e+002;2.923594e-001
6.287067e+002;2.919585e-001
6.306352e+002;2.929490e-001
6.325637e+002;2.888518e-001
6.344923e+002;2.809948e-001
6.364208e+002;2.806495e-001
6.383494e+002;2.822012e-001
6.402780e+002;2.796527e-001
6.422065e+002;2.746584e-001
6.441350e+002;2.699397e-001
6.460636e+002;2.664907e-001
6.479921e+002;2.626269e-001
6.499207e+002;2.639284e-001
6.518492e+002;2.680062e-001
6.537778e+002;2.703515e-001
6.557063e+002;2.723850e-001
6.576349e+002;2.808328e-001
6.595634e+002;2.890649e-001
6.614919e+002;2.873639e-001
6.634205e+002;2.867886e-001
6.653491e+002;2.837104e-001
6.672776e+002;2.801060e-001
6.692062e+002;2.791912e-001
6.711347e+002;2.744947e-001
6.730632e+002;2.664077e-001
6.749918e+002;2.594172e-001
6.769203e+002;2.527261e-001
6.788489e+002;2.462148e-001
6.807775e+002;2.406802e-001
6.827060e+002;2.368780e-001
6.846345e+002;2.341032e-001
6.865631e+002;2.328310e-001
6.884916e+002;2.315527e-001
6.904202e+002;2.306340e-001
6.923488e+002;2.294116e-001
6.942773e+002;2.279382e-001
6.962058e+002;2.268288e-001
6.981344e+002;2.257927e-001
7.000629e+002;2.252171e-001
7.019915e+002;2.244737e-001
7.039200e+002;2.235455e-001
7.058486e+002;2.223643e-001
7.077771e+002;2.200365e-001
7.097057e+002;2.179928e-001
7.116342e+002;2.160337e-001
7.135627e+002;2.134387e-001
7.154913e+002;2.101810e-001
7.174199e+002;2.065333e-001
7.193484e+002;2.025356e-001
7.212770e+002;1.984268e-001
7.232055e+002;1.947234e-001
7.251340e+002;1.902675e-001
7.270626e+002;1.850214e-001
7.289911e+002;1.805932e-001
7.309197e+002;1.769628e-001
7.328483e+002;1.732200e-001
7.347768e+002;1.696848e-001
7.367053e+002;1.678196e-001
7.386339e+002;1.660373e-001
7.405624e+002;1.644678e-001
7.424910e+002;1.629212e-001
7.444196e+002;1.609100e-001
7.463481e+002;1.596837e-001
7.482766e+002;1.579614e-001
7.502052e+002;1.554591e-001
7.521337e+002;1.538753e-001
7.540623e+002;1.523740e-001
7.559908e+002;1.498419e-001
7.579194e+002;1.477914e-001
7.598479e+002;1.460268e-001
7.617765e+002;1.442044e-001
7.637050e+002;1.432330e-001
7.656335e+002;1.417907e-001
7.675621e+002;1.399948e-001
7.694907e+002;1.381741e-001
7.714192e+002;1.370000e-001
7.733478e+002;1.363428e-001
7.752763e+002;1.348495e-001
7.772048e+002;1.333538e-001
7.791334e+002;1.319614e-001
7.810620e+002;1.304964e-001
7.829905e+002;1.296979e-001
7.849191e+002;1.293630e-001
7.868476e+002;1.290425e-001
7.887761e+002;1.286766e-001
7.907047e+002;1.289790e-001
7.926332e+002;1.285705e-001
7.945618e+002;1.276812e-001
7.964903e+002;1.275388e-001
7.984189e+002;1.272025e-001
8.003474e+002;1.270015e-001
8.022759e+002;1.271805e-001
8.042045e+002;1.268193e-001
8.061331e+002;1.271716e-001
8.080616e+002;1.270597e-001
8.099902e+002;1.251207e-001
8.119187e+002;1.240452e-001
8.138472e+002;1.242836e-001
8.157758e+002;1.241100e-001
8.177043e+002;1.235356e-001
8.196329e+002;1.224366e-001
8.215615e+002;1.218768e-001
8.234900e+002;1.218859e-001
8.254185e+002;1.216029e-001
8.273471e+002;1.209295e-001
8.292756e+002;1.200458e-001
8.312042e+002;1.194376e-001
8.331328e+002;1.191743e-001
8.350613e+002;1.187696e-001
8.369898e+002;1.175425e-001
8.389184e+002;1.167870e-001
8.408469e+002;1.167347e-001
8.427755e+002;1.166518e-001
8.447040e+002;1.164252e-001
8.466326e+002;1.159310e-001
8.485611e+002;1.150442e-001
8.504897e+002;1.146741e-001
8.524182e+002;1.153881e-001
8.543467e+002;1.160853e-001
8.562753e+002;1.163704e-001
8.582039e+002;1.171051e-001
8.601324e+002;1.179134e-001
8.620610e+002;1.190495e-001
8.639895e+002;1.206710e-001
8.659180e+002;1.221867e-001
8.678466e+002;1.237006e-001
8.697751e+002;1.256766e-001
8.717037e+002;1.283929e-001
8.736323e+002;1.317574e-001
8.755608e+002;1.355270e-001
8.774893e+002;1.393391e-001
8.794179e+002;1.435362e-001
8.813464e+002;1.484990e-001
8.832750e+002;1.537954e-001
8.852036e+002;1.593915e-001
8.871321e+002;1.650446e-001
8.890606e+002;1.704866e-001
8.909892e+002;1.758586e-001
8.929177e+002;1.807390e-001
8.948463e+002;1.839579e-001
8.967748e+002;1.860525e-001
8.987034e+002;1.871255e-001
9.006319e+002;1.870587e-001
9.025605e+002;1.855532e-001
9.044890e+002;1.830475e-001
9.064175e+002;1.801469e-001
9.083461e+002;1.769691e-001
9.102747e+002;1.737339e-001
9.122032e+002;1.705026e-001
9.141318e+002;1.673705e-001
9.160603e+002;1.648538e-001
9.179888e+002;1.634042e-001
9.199174e+002;1.627765e-001
9.218459e+002;1.626360e-001
9.237745e+002;1.638590e-001
9.257031e+002;1.660604e-001
9.276316e+002;1.674697e-001
9.295601e+002;1.689333e-001
9.314887e+002;1.713704e-001
9.334172e+002;1.738354e-001
9.353458e+002;1.761627e-001
9.372744e+002;1.782550e-001
9.392029e+002;1.804142e-001
9.411314e+002;1.831737e-001
9.430600e+002;1.868901e-001
9.449885e+002;1.905662e-001
9.469171e+002;1.946885e-001
9.488456e+002;1.999846e-001
9.507742e+002;2.057043e-001
9.527027e+002;2.120414e-001
9.546313e+002;2.192456e-001
9.565598e+002;2.270504e-001
9.584883e+002;2.347896e-001
9.604169e+002;2.432125e-001
9.623455e+002;2.524097e-001
9.642740e+002;2.616209e-001
9.662026e+002;2.712032e-001
9.681311e+002;2.819950e-001
9.700596e+002;2.941314e-001
9.719882e+002;3.079492e-001
9.739167e+002;3.246087e-001
9.758453e+002;3.443019e-001
9.777739e+002;3.673464e-001
9.797024e+002;3.926845e-001
9.816309e+002;4.176360e-001
9.835595e+002;4.381097e-001
9.854880e+002;4.515710e-001
9.874166e+002;4.589116e-001
9.893452e+002;4.637744e-001
9.912737e+002;4.693782e-001
9.932022e+002;4.760187e-001
9.951307e+002;4.842742e-001
9.970593e+002;4.933083e-001
9.989879e+002;5.001729e-001
1.000916e+003;5.046320e-001
1.002845e+003;5.087250e-001
1.004773e+003;5.118608e-001
1.006702e+003;5.144749e-001
1.008631e+003;5.186102e-001
1.010559e+003;5.242820e-001
1.012488e+003;5.297007e-001
1.014416e+003;5.357826e-001
1.016345e+003;5.420911e-001
1.018273e+003;5.482579e-001
1.020202e+003;5.548958e-001
1.022130e+003;5.614988e-001
1.024059e+003;5.669779e-001
1.025988e+003;5.714422e-001
1.027916e+003;5.748292e-001
1.029845e+003;5.764906e-001
1.031773e+003;5.760015e-001
1.033702e+003;5.717816e-001
1.035630e+003;5.621167e-001
1.037559e+003;5.496331e-001
1.039487e+003;5.377726e-001
1.041416e+003;5.285081e-001
1.043344e+003;5.216357e-001
1.045273e+003;5.200256e-001
1.047202e+003;5.236794e-001
1.049130e+003;5.279823e-001
1.051059e+003;5.313316e-001
1.052987e+003;5.339426e-001
1.054916e+003;5.329234e-001
1.056844e+003;5.268164e-001
1.058773e+003;5.149289e-001
1.060701e+003;4.981504e-001
1.062630e+003;4.756891e-001
1.064558e+003;4.512544e-001
1.066487e+003;4.292340e-001
1.068416e+003;4.097486e-001
1.070344e+003;3.935007e-001
1.072273e+003;3.805987e-001
1.074201e+003;3.702291e-001
1.076130e+003;3.614536e-001
1.078058e+003;3.524566e-001
1.079987e+003;3.437891e-001
1.081915e+003;3.375045e-001
1.083844e+003;3.334119e-001
1.085773e+003;3.300344e-001
1.087701e+003;3.272810e-001
1.089630e+003;3.260236e-001
1.091558e+003;3.252999e-001
1.093487e+003;3.242085e-001
1.095415e+003;3.239176e-001
1.097344e+003;3.249968e-001
1.099272e+003;3.260748e-001
1.101201e+003;3.258300e-001
1.103129e+003;3.250953e-001
1.105058e+003;3.236611e-001
1.106987e+003;3.212953e-001
1.108915e+003;3.179789e-001
1.110844e+003;3.132616e-001
1.112772e+003;3.062350e-001
1.114701e+003;2.974707e-001
1.116629e+003;2.864933e-001
1.118558e+003;2.740844e-001
1.120486e+003;2.621584e-001
1.122415e+003;2.519121e-001
1.124344e+003;2.424870e-001
1.126272e+003;2.332835e-001
1.128201e+003;2.238398e-001
1.130129e+003;2.147515e-001
1.132058e+003;2.070356e-001
1.133986e+003;2.010182e-001
1.135915e+003;1.963201e-001
1.137843e+003;1.924261e-001
1.139772e+003;1.899848e-001
1.141700e+003;1.892720e-001
1.143629e+003;1.904427e-001
1.145557e+003;1.927086e-001
1.147486e+003;1.949670e-001
1.149415e+003;1.973824e-001
1.151343e+003;1.998525e-001
1.153272e+003;2.012616e-001
1.155200e+003;2.026016e-001
1.157129e+003;2.043372e-001
1.159057e+003;2.054909e-001
1.160986e+003;2.050016e-001
1.162914e+003;2.020390e-001
1.164843e+003;1.961456e-001
1.166771e+003;1.873693e-001
1.168700e+003;1.768219e-001
1.170629e+003;1.664211e-001
1.172557e+003;1.568234e-001
1.174486e+003;1.482955e-001
1.176414e+003;1.411697e-001
1.178343e+003;1.352962e-001
1.180271e+003;1.305809e-001
1.182200e+003;1.271123e-001
1.184128e+003;1.245240e-001
1.186057e+003;1.229073e-001
1.187986e+003;1.230147e-001
1.189914e+003;1.247244e-001
1.191843e+003;1.270171e-001
1.193771e+003;1.295910e-001
1.195700e+003;1.327478e-001
1.197628e+003;1.356849e-001
1.199557e+003;1.378099e-001
1.201485e+003;1.391538e-001
1.203414e+003;1.399205e-001
1.205343e+003;1.398292e-001
1.207271e+003;1.379026e-001
1.209200e+003;1.344092e-001
1.211128e+003;1.295567e-001
1.213057e+003;1.249808e-001
1.214985e+003;1.225636e-001
1.216914e+003;1.223031e-001
1.218842e+003;1.231845e-001
1.220771e+003;1.250826e-001
1.222699e+003;1.272484e-001
1.224628e+003;1.298263e-001
1.226557e+003;1.328426e-001
1.228485e+003;1.354702e-001
1.230414e+003;1.378231e-001
1.232342e+003;1.402401e-001
1.234271e+003;1.421097e-001
1.236199e+003;1.428141e-001
1.238128e+003;1.427115e-001
1.240056e+003;1.426514e-001
1.241985e+003;1.432035e-001
1.243913e+003;1.443100e-001
1.245842e+003;1.459093e-001
1.247771e+003;1.472441e-001
1.249699e+003;1.476838e-001
1.251628e+003;1.479286e-001
1.253556e+003;1.485171e-001
1.255485e+003;1.493845e-001
1.257413e+003;1.501489e-001
1.259342e+003;1.508046e-001
1.261270e+003;1.512722e-001
1.263199e+003;1.512766e-001
1.265127e+003;1.506588e-001
1.267056e+003;1.497487e-001
1.268985e+003;1.495832e-001
1.270913e+003;1.503028e-001
1.272842e+003;1.512079e-001
1.274770e+003;1.518845e-001
1.276699e+003;1.522244e-001
1.278627e+003;1.524086e-001
1.280556e+003;1.518918e-001
1.282484e+003;1.504207e-001
1.284413e+003;1.489657e-001
1.286342e+003;1.481440e-001
1.288270e+003;1.478953e-001
1.290199e+003;1.481862e-001
1.292127e+003;1.488831e-001
1.294056e+003;1.496955e-001
1.295984e+003;1.510380e-001
1.297913e+003;1.529815e-001
1.299841e+003;1.555318e-001
1.301770e+003;1.591601e-001
1.303698e+003;1.632229e-001
1.305627e+003;1.676239e-001
1.307556e+003;1.725545e-001
1.309484e+003;1.775967e-001
1.311413e+003;1.823213e-001
1.313341e+003;1.860321e-001
1.315270e+003;1.880769e-001
1.317198e+003;1.878522e-001
1.319127e+003;1.855074e-001
1.321055e+003;1.822484e-001
1.322984e+003;1.787052e-001
1.324912e+003;1.756587e-001
1.326841e+003;1.735503e-001
1.328770e+003;1.728257e-001
1.330698e+003;1.733077e-001
1.332627e+003;1.742763e-001
1.334555e+003;1.750837e-001
1.336484e+003;1.752158e-001
1.338412e+003;1.740361e-001
1.340341e+003;1.718877e-001
1.342269e+003;1.696002e-001
1.344198e+003;1.669660e-001
1.346126e+003;1.642023e-001
1.348055e+003;1.621618e-001
1.349984e+003;1.614165e-001
1.351912e+003;1.618046e-001
1.353841e+003;1.631428e-001
1.355769e+003;1.647935e-001
1.357698e+003;1.659899e-001
1.359626e+003;1.668223e-001
1.361555e+003;1.664954e-001
1.363483e+003;1.655970e-001
1.365412e+003;1.647801e-001
1.367341e+003;1.637500e-001
1.369269e+003;1.629101e-001
1.371198e+003;1.617249e-001
1.373126e+003;1.591979e-001
1.375055e+003;1.555352e-001
1.376983e+003;1.516777e-001
1.378912e+003;1.478364e-001
1.380840e+003;1.443470e-001
1.382769e+003;1.411372e-001
1.384698e+003;1.378468e-001
1.386626e+003;1.344762e-001
1.388555e+003;1.323671e-001
1.390483e+003;1.311781e-001
1.392412e+003;1.298429e-001
1.394340e+003;1.288226e-001
1.396269e+003;1.285477e-001
1.398197e+003;1.283662e-001
1.400126e+003;1.288499e-001
1.402054e+003;1.297159e-001
1.403983e+003;1.301844e-001
1.405911e+003;1.309424e-001
1.407840e+003;1.316579e-001
1.409769e+003;1.323573e-001
1.411697e+003;1.332513e-001
1.413626e+003;1.341454e-001
1.415554e+003;1.349663e-001
1.417483e+003;1.354940e-001
1.419411e+003;1.368677e-001
1.421340e+003;1.398493e-001
1.423268e+003;1.419643e-001
1.425197e+003;1.433436e-001
1.427125e+003;1.442563e-001
1.429054e+003;1.442737e-001
1.430983e+003;1.437147e-001
1.432911e+003;1.422916e-001
1.434840e+003;1.392773e-001
1.436768e+003;1.362444e-001
1.438697e+003;1.350150e-001
1.440625e+003;1.335073e-001
1.442554e+003;1.317724e-001
1.444482e+003;1.301837e-001
1.446411e+003;1.287066e-001
1.448340e+003;1.277688e-001
1.450268e+003;1.274710e-001
1.452197e+003;1.266733e-001
1.454125e+003;1.245242e-001
1.456054e+003;1.209121e-001
1.457982e+003;1.196415e-001
1.459911e+003;1.200733e-001
1.461839e+003;1.187364e-001
1.463768e+003;1.157676e-001
1.465697e+003;1.129959e-001
1.467625e+003;1.106317e-001
1.469554e+003;1.075320e-001
1.471482e+003;1.035270e-001
1.473411e+003;1.003882e-001
1.475339e+003;9.833176e-002
1.477268e+003;9.604318e-002
1.479196e+003;9.413844e-002
1.481125e+003;9.217825e-002
1.483053e+003;8.961911e-002
1.484982e+003;8.593363e-002
1.486911e+003;8.166943e-002
1.488839e+003;7.776706e-002
1.490768e+003;7.523718e-002
1.492696e+003;7.382996e-002
1.494625e+003;7.153943e-002
1.496553e+003;6.934763e-002
1.498482e+003;6.877062e-002
1.500410e+003;6.865011e-002
1.502339e+003;6.783838e-002
1.504267e+003;6.495476e-002
1.506196e+003;6.194897e-002
1.508125e+003;6.266351e-002
1.510053e+003;6.413253e-002
1.511982e+003;6.425903e-002
1.513910e+003;6.411422e-002
1.515839e+003;6.333280e-002
1.517767e+003;6.270657e-002
1.519696e+003;6.125758e-002
1.521624e+003;6.013519e-002
1.523553e+003;6.106636e-002
1.525481e+003;6.153424e-002
1.527410e+003;6.215717e-002
1.529339e+003;6.274811e-002
1.531267e+003;6.256798e-002
1.533196e+003;6.220206e-002
1.535124e+003;6.302404e-002
1.537053e+003;6.232746e-002
1.538981e+003;5.975397e-002
1.540910e+003;5.981169e-002
1.542838e+003;6.166395e-002
1.544767e+003;6.300776e-002
1.546695e+003;6.420248e-002
1.548624e+003;6.431739e-002
1.550553e+003;6.398524e-002
1.552481e+003;6.352069e-002
1.554410e+003;6.263518e-002
1.556338e+003;6.114618e-002
1.558267e+003;5.841881e-002
1.560195e+003;5.960305e-002
1.562124e+003;6.290817e-002
1.564052e+003;6.389214e-002
1.565981e+003;6.403987e-002
1.567910e+003;6.386803e-002
1.569838e+003;6.374051e-002
1.571767e+003;6.472621e-002
1.573695e+003;6.460335e-002
1.575624e+003;6.305469e-002
1.577552e+003;6.401461e-002
1.579481e+003;6.585149e-002
1.581409e+003;6.656128e-002
1.583338e+003;6.685742e-002
1.585266e+003;6.690747e-002
1.587195e+003;6.726001e-002
1.589124e+003;6.751122e-002
1.591052e+003;6.774805e-002
1.592981e+003;6.815221e-002
1.594909e+003;6.880832e-002
1.596838e+003;6.929201e-002
1.598766e+003;6.953180e-002
1.600695e+003;6.988367e-002
1.602623e+003;7.045425e-002
1.604552e+003;7.116041e-002
1.606480e+003;7.183226e-002
1.608409e+003;7.221641e-002
1.610338e+003;7.265346e-002
1.612266e+003;7.320282e-002
1.614195e+003;7.291545e-002
1.616123e+003;7.190455e-002
1.618052e+003;7.311851e-002
1.619980e+003;7.482843e-002
1.621909e+003;7.491913e-002
1.623837e+003;7.527714e-002
1.625766e+003;7.610796e-002
1.627694e+003;7.647900e-002
1.629623e+003;7.706899e-002
1.631552e+003;7.763007e-002
1.633480e+003;7.688591e-002
1.635409e+003;7.572845e-002
1.637337e+003;7.696332e-002
1.639266e+003;7.850575e-002
1.641194e+003;7.865135e-002
1.643123e+003;7.815289e-002
1.645051e+003;7.658768e-002
1.646980e+003;7.597241e-002
1.648909e+003;7.669223e-002
1.650837e+003;7.457221e-002
1.652766e+003;7.122783e-002
1.654694e+003;7.322156e-002
1.656623e+003;7.535557e-002
1.658551e+003;7.492127e-002
1.660480e+003;7.368923e-002
1.662408e+003;7.230821e-002
1.664337e+003;7.193279e-002
1.666266e+003;7.127569e-002
1.668194e+003;6.910033e-002
1.670123e+003;6.787611e-002
1.672051e+003;6.763251e-002
1.673980e+003;6.609282e-002
1.675908e+003;6.496857e-002
1.677837e+003;6.484299e-002
1.679765e+003;6.383994e-002
1.681694e+003;6.178487e-002
1.683622e+003;5.824490e-002
1.685551e+003;5.800656e-002
1.687479e+003;5.956960e-002
1.689408e+003;5.910899e-002
1.691337e+003;5.826460e-002
1.693265e+003;5.658393e-002
1.695194e+003;5.386066e-002
1.697122e+003;5.314903e-002
1.699051e+003;5.165229e-002
1.700979e+003;5.128466e-002
1.702908e+003;5.306381e-002
1.704836e+003;5.251935e-002
1.706765e+003;5.196457e-002
1.708693e+003;5.180468e-002
1.710622e+003;5.153117e-002
1.712551e+003;5.055996e-002
1.714479e+003;4.919491e-002
1.716408e+003;4.759187e-002
1.718336e+003;4.758370e-002
1.720265e+003;4.909365e-002
1.722193e+003;4.944851e-002
1.724122e+003;4.928149e-002
1.726050e+003;4.955319e-002
1.727979e+003;4.939835e-002
1.729908e+003;4.883211e-002
1.731836e+003;4.715590e-002
1.733765e+003;4.549879e-002
1.735693e+003;4.670243e-002
1.737622e+003;4.727359e-002
1.739550e+003;4.624719e-002
1.741479e+003;4.552481e-002
1.743407e+003;4.437528e-002
1.745336e+003;4.327026e-002
1.747265e+003;4.181394e-002
1.749193e+003;3.992616e-002
1.751122e+003;3.887500e-002
1.753050e+003;3.929679e-002
1.754979e+003;3.898880e-002
1.756907e+003;3.823510e-002
1.758836e+003;3.797708e-002
1.760764e+003;3.731091e-002
1.762693e+003;3.699874e-002
1.764621e+003;3.727968e-002
1.766550e+003;3.663570e-002
1.768479e+003;3.599423e-002
1.770407e+003;3.530672e-002
1.772336e+003;3.439071e-002
1.774264e+003;3.494682e-002
1.776193e+003;3.552738e-002
1.778121e+003;3.546643e-002
1.780050e+003;3.530521e-002
1.781978e+003;3.527578e-002
1.783907e+003;3.506602e-002
1.785835e+003;3.486118e-002
1.787764e+003;3.470546e-002
1.789693e+003;3.393726e-002
1.791621e+003;3.287728e-002
1.793550e+003;3.319502e-002
1.795478e+003;3.405601e-002
1.797407e+003;3.399004e-002
1.799335e+003;3.367845e-002
1.801264e+003;3.373972e-002
1.803192e+003;3.392110e-002
1.805121e+003;3.383054e-002
1.807049e+003;3.358891e-002
1.808978e+003;3.326041e-002
1.810907e+003;3.313379e-002
1.812835e+003;3.321426e-002
1.814764e+003;3.319294e-002
1.816692e+003;3.300282e-002
1.818621e+003;3.275532e-002
1.820549e+003;3.257121e-002
1.822478e+003;3.256164e-002
1.824406e+003;3.213421e-002
1.826335e+003;3.207788e-002
1.828264e+003;3.194647e-002
1.830192e+003;3.170966e-002
1.832121e+003;3.209518e-002
1.834049e+003;3.222088e-002
1.835978e+003;3.203357e-002
1.837906e+003;3.193046e-002
1.839835e+003;3.180851e-002
1.841763e+003;3.136238e-002
1.843692e+003;3.067544e-002
1.845620e+003;3.102089e-002
1.847549e+003;3.118851e-002
1.849478e+003;3.097495e-002
1.851406e+003;3.094972e-002
1.853335e+003;3.087170e-002
1.855263e+003;3.098171e-002
1.857192e+003;3.112945e-002
1.859120e+003;3.095126e-002
1.861049e+003;3.086043e-002
1.862977e+003;3.092158e-002
1.864906e+003;3.071712e-002
1.866834e+003;3.034355e-002
1.868763e+003;3.003319e-002
1.870692e+003;3.034917e-002
1.872620e+003;3.089903e-002
1.874549e+003;3.109848e-002
1.876477e+003;3.096673e-002
1.878406e+003;3.078612e-002
1.880334e+003;3.047444e-002
1.882263e+003;3.018057e-002
1.884191e+003;3.026791e-002
1.886120e+003;3.035852e-002
1.888048e+003;3.029420e-002
1.889977e+003;3.035521e-002
1.891906e+003;3.048958e-002
1.893834e+003;3.034668e-002
1.895763e+003;3.030785e-002
1.897691e+003;3.039025e-002
1.899620e+003;3.052072e-002
1.901548e+003;3.070567e-002
1.903477e+003;3.081475e-002
1.905405e+003;3.050231e-002
1.907334e+003;3.027847e-002
1.909262e+003;3.047327e-002
1.911191e+003;3.079209e-002
1.913120e+003;3.097670e-002
1.915048e+003;3.094485e-002
1.916977e+003;3.066737e-002
1.918905e+003;3.068700e-002
1.920834e+003;3.093656e-002
1.922762e+003;3.094884e-002
1.924691e+003;3.096930e-002
1.926619e+003;3.127667e-002
1.928548e+003;3.153718e-002
1.930477e+003;3.152731e-002
1.932405e+003;3.146817e-002
1.934334e+003;3.155233e-002
1.936262e+003;3.179461e-002
1.938191e+003;3.182574e-002
1.940119e+003;3.175272e-002
1.942048e+003;3.162769e-002
1.943976e+003;3.179557e-002
1.945905e+003;3.185244e-002
1.947833e+003;3.205968e-002
1.949762e+003;3.246686e-002
1.951691e+003;3.273906e-002
1.953619e+003;3.288987e-002
1.955548e+003;3.269666e-002
1.957476e+003;3.263979e-002
1.959405e+003;3.279423e-002
1.961333e+003;3.294326e-002
1.963262e+003;3.296389e-002
1.965190e+003;3.288954e-002
1.967119e+003;3.276679e-002
1.969047e+003;3.289180e-002
1.970976e+003;3.306989e-002
1.972905e+003;3.302484e-002
1.974833e+003;3.305180e-002
1.976762e+003;3.307762e-002
1.978690e+003;3.314058e-002
1.980619e+003;3.327464e-002
1.982547e+003;3.320450e-002
1.984476e+003;3.323884e-002
1.986404e+003;3.336297e-002
1.988333e+003;3.331510e-002
1.990261e+003;3.320378e-002
1.992190e+003;3.328287e-002
1.994119e+003;3.349316e-002
1.996047e+003;3.358153e-002
1.997976e+003;3.368378e-002
1.999904e+003;3.370025e-002
2.001833e+003;3.348929e-002
2.003761e+003;3.333410e-002
2.005690e+003;3.346041e-002
2.007618e+003;3.370498e-002
2.009547e+003;3.395858e-002
2.011476e+003;3.418704e-002
2.013404e+003;3.406016e-002
2.015333e+003;3.403189e-002
2.017261e+003;3.426724e-002
2.019190e+003;3.433598e-002
2.021118e+003;3.450305e-002
2.023047e+003;3.482090e-002
2.024975e+003;3.483078e-002
2.026904e+003;3.465041e-002
2.028833e+003;3.451959e-002
2.030761e+003;3.472362e-002
2.032690e+003;3.506078e-002
2.034618e+003;3.536153e-002
2.036547e+003;3.572897e-002
2.038475e+003;3.596205e-002
2.040404e+003;3.587085e-002
2.042332e+003;3.579694e-002
2.044261e+003;3.567670e-002
2.046189e+003;3.568350e-002
2.048118e+003;3.568562e-002
2.050047e+003;3.561182e-002
2.051975e+003;3.556025e-002
2.053904e+003;3.554162e-002
2.055832e+003;3.557111e-002
2.057761e+003;3.560826e-002
2.059689e+003;3.565440e-002
2.061618e+003;3.574092e-002
2.063546e+003;3.570055e-002
2.065475e+003;3.562516e-002
2.067404e+003;3.541049e-002
2.069332e+003;3.522382e-002
2.071260e+003;3.524045e-002
2.073189e+003;3.525307e-002
2.075118e+003;3.525565e-002
2.077046e+003;3.531700e-002
2.078975e+003;3.533073e-002
2.080903e+003;3.530679e-002
2.082832e+003;3.524620e-002
2.084760e+003;3.534277e-002
2.086689e+003;3.547535e-002
2.088617e+003;3.537005e-002
2.090546e+003;3.524796e-002
2.092475e+003;3.526949e-002
2.094403e+003;3.528347e-002
2.096332e+003;3.519873e-002
2.098260e+003;3.505237e-002
2.100189e+003;3.506132e-002
2.102117e+003;3.533540e-002
2.104046e+003;3.556201e-002
2.105974e+003;3.539104e-002
2.107903e+003;3.538799e-002
2.109832e+003;3.547370e-002
2.111760e+003;3.548862e-002
2.113688e+003;3.560139e-002
2.115617e+003;3.580359e-002
2.117546e+003;3.604808e-002
2.119474e+003;3.609388e-002
2.121403e+003;3.583511e-002
2.123331e+003;3.569210e-002
2.125260e+003;3.581791e-002
2.127188e+003;3.602328e-002
2.129117e+003;3.630856e-002
2.131045e+003;3.654043e-002
2.132974e+003;3.666981e-002
2.134903e+003;3.666653e-002
2.136831e+003;3.646075e-002
2.138760e+003;3.631501e-002
2.140688e+003;3.648021e-002
2.142617e+003;3.637384e-002
2.144545e+003;3.601910e-002
2.146474e+003;3.588251e-002
2.148402e+003;3.596172e-002
2.150331e+003;3.594862e-002
2.152260e+003;3.577733e-002
2.154188e+003;3.565721e-002
2.156117e+003;3.544529e-002
2.158045e+003;3.527833e-002
2.159974e+003;3.541093e-002
2.161902e+003;3.531262e-002
2.163831e+003;3.496270e-002
2.165759e+003;3.482076e-002
2.167688e+003;3.468558e-002
2.169616e+003;3.446355e-002
2.171545e+003;3.422361e-002
2.173474e+003;3.409364e-002
2.175402e+003;3.377603e-002
2.177331e+003;3.345565e-002
2.179259e+003;3.325243e-002
2.181188e+003;3.314105e-002
2.183116e+003;3.292646e-002
2.185045e+003;3.276450e-002
2.186973e+003;3.276361e-002
2.188902e+003;3.264761e-002
2.190831e+003;3.258407e-002
2.192759e+003;3.243855e-002
2.194688e+003;3.220343e-002
2.196616e+003;3.206243e-002
2.198545e+003;3.203682e-002
2.200473e+003;3.190086e-002
2.202402e+003;3.181265e-002
2.204330e+003;3.170564e-002
2.206259e+003;3.161803e-002
2.208188e+003;3.161892e-002
2.210116e+003;3.147188e-002
2.212044e+003;3.149828e-002
2.213973e+003;3.185155e-002
2.215902e+003;3.189972e-002
2.217830e+003;3.186859e-002
2.219759e+003;3.189445e-002
2.221687e+003;3.175319e-002
2.223616e+003;3.173422e-002
2.225544e+003;3.179222e-002
2.227473e+003;3.176046e-002
2.229401e+003;3.170418e-002
2.231330e+003;3.166083e-002
2.233259e+003;3.178299e-002
2.235187e+003;3.183451e-002
2.237116e+003;3.182203e-002
2.239044e+003;3.187747e-002
2.240973e+003;3.176299e-002
2.242901e+003;3.170050e-002
2.244830e+003;3.186973e-002
2.246758e+003;3.162324e-002
2.248687e+003;3.151057e-002
2.250615e+003;3.164872e-002
2.252544e+003;3.155731e-002
2.254473e+003;3.123483e-002
2.256401e+003;3.119224e-002
2.258330e+003;3.120093e-002
2.260258e+003;3.111240e-002
2.262187e+003;3.094129e-002
2.264115e+003;3.083446e-002
2.266044e+003;3.074120e-002
2.267972e+003;3.070307e-002
2.269901e+003;3.070343e-002
2.271830e+003;3.040404e-002
2.273758e+003;3.011600e-002
2.275687e+003;3.008112e-002
2.277615e+003;3.004530e-002
2.279544e+003;3.017346e-002
2.281472e+003;3.058193e-002
2.283401e+003;3.081543e-002
2.285329e+003;3.047572e-002
2.287258e+003;3.026721e-002
2.289187e+003;3.015229e-002
2.291115e+003;2.988540e-002
2.293043e+003;2.992150e-002
2.294972e+003;3.001139e-002
2.296901e+003;2.995636e-002
2.298829e+003;2.965954e-002
2.300758e+003;2.954397e-002
2.302686e+003;2.942390e-002
2.304615e+003;2.921135e-002
2.306543e+003;2.904907e-002
2.308472e+003;2.868681e-002
2.310400e+003;2.827071e-002
2.312329e+003;2.815753e-002
2.314258e+003;2.790320e-002
2.316186e+003;2.727989e-002
2.318115e+003;2.667959e-002
2.320043e+003;2.630709e-002
2.321972e+003;2.589677e-002
2.323900e+003;2.515315e-002
2.325829e+003;2.443007e-002
2.327757e+003;2.387209e-002
2.329686e+003;2.348650e-002
2.331615e+003;2.298461e-002
2.333543e+003;2.291457e-002
2.335472e+003;2.319039e-002
2.337400e+003;2.346457e-002
2.339329e+003;2.384328e-002
2.341257e+003;2.443704e-002
2.343186e+003;2.547020e-002
2.345114e+003;2.698496e-002
2.347043e+003;2.858103e-002
2.348971e+003;2.929847e-002
2.350900e+003;2.821106e-002
2.352829e+003;2.627829e-002
2.354757e+003;2.451066e-002
2.356686e+003;2.317187e-002
2.358614e+003;2.234595e-002
2.360543e+003;2.164023e-002
2.362471e+003;2.157288e-002
2.364400e+003;2.229080e-002
2.366328e+003;2.363933e-002
2.368257e+003;2.526242e-002
2.370186e+003;2.683211e-002
2.372114e+003;2.842513e-002
2.374042e+003;3.001427e-002
2.375971e+003;3.119317e-002
2.377900e+003;3.216308e-002
2.379828e+003;3.306875e-002
2.381757e+003;3.365654e-002
2.383685e+003;3.397545e-002
2.385614e+003;3.429349e-002
2.387542e+003;3.453387e-002
2.389471e+003;3.470769e-002
2.391399e+003;3.477678e-002
2.393328e+003;3.497358e-002
2.395257e+003;3.522471e-002
2.397185e+003;3.539784e-002
2.399114e+003;3.545856e-002
2.401042e+003;3.571311e-002
2.402971e+003;3.605507e-002
2.404899e+003;3.614591e-002
2.406828e+003;3.625403e-002
2.408756e+003;3.653301e-002
2.410685e+003;3.662759e-002
2.412614e+003;3.662911e-002
2.414542e+003;3.675007e-002
2.416471e+003;3.696634e-002
2.418399e+003;3.713034e-002
2.420328e+003;3.717770e-002
2.422256e+003;3.755253e-002
2.424185e+003;3.807968e-002
2.426113e+003;3.840498e-002
2.428042e+003;3.876819e-002
2.429970e+003;3.896506e-002
2.431899e+003;3.896129e-002
2.433828e+003;3.907095e-002
2.435756e+003;3.925497e-002
2.437685e+003;3.935366e-002
2.439613e+003;3.935602e-002
2.441542e+003;3.959947e-002
2.443470e+003;3.992656e-002
2.445399e+003;4.013675e-002
2.447327e+003;4.049392e-002
2.449256e+003;4.092995e-002
2.451185e+003;4.106851e-002
2.453113e+003;4.089919e-002
2.455042e+003;4.112959e-002
2.456970e+003;4.144595e-002
2.458899e+003;4.173190e-002
2.460827e+003;4.183904e-002
2.462756e+003;4.195457e-002
2.464684e+003;4.210630e-002
2.466613e+003;4.231401e-002
2.468542e+003;4.255233e-002
2.470470e+003;4.270346e-002
2.472398e+003;4.269133e-002
2.474327e+003;4.277260e-002
2.476256e+003;4.322180e-002
2.478184e+003;4.359452e-002
2.480113e+003;4.362309e-002
2.482041e+003;4.365885e-002
2.483970e+003;4.393094e-002
2.485898e+003;4.431855e-002
2.487827e+003;4.447486e-002
2.489755e+003;4.455676e-002
2.491684e+003;4.489002e-002
2.493613e+003;4.514130e-002
2.495541e+003;4.513539e-002
2.497470e+003;4.539217e-002
2.499398e+003;4.567912e-002
2.501327e+003;4.548389e-002
2.503255e+003;4.552469e-002
2.505184e+003;4.617223e-002
2.507112e+003;4.649911e-002
2.509041e+003;4.672107e-002
2.510969e+003;4.688891e-002
2.512898e+003;4.693468e-002
2.514827e+003;4.715712e-002
2.516755e+003;4.739201e-002
2.518684e+003;4.751113e-002
2.520612e+003;4.783436e-002
2.522541e+003;4.801714e-002
2.524469e+003;4.797044e-002
2.526398e+003;4.808516e-002
2.528326e+003;4.833511e-002
2.530255e+003;4.848961e-002
2.532184e+003;4.852844e-002
2.534112e+003;4.884901e-002
2.536041e+003;4.898129e-002
2.537969e+003;4.906616e-002
2.539898e+003;4.909306e-002
2.541826e+003;4.908226e-002
2.543755e+003;4.936467e-002
2.545683e+003;4.963167e-002
2.547612e+003;4.957232e-002
2.549541e+003;4.969917e-002
2.551469e+003;4.982535e-002
2.553397e+003;4.982751e-002
2.555326e+003;4.994246e-002
2.557255e+003;4.998135e-002
2.559183e+003;5.013636e-002
2.561112e+003;5.048995e-002
2.563040e+003;5.071101e-002
2.564969e+003;5.086807e-002
2.566897e+003;5.085644e-002
2.568826e+003;5.087805e-002
2.570754e+003;5.097298e-002
2.572683e+003;5.103480e-002
2.574612e+003;5.105031e-002
2.576540e+003;5.101401e-002
2.578469e+003;5.111631e-002
2.580397e+003;5.137562e-002
2.582326e+003;5.148778e-002
2.584254e+003;5.144361e-002
2.586183e+003;5.184799e-002
2.588111e+003;5.208342e-002
2.590040e+003;5.194571e-002
2.591969e+003;5.207621e-002
2.593897e+003;5.229558e-002
2.595826e+003;5.238607e-002
2.597754e+003;5.269936e-002
2.599683e+003;5.289543e-002
2.601611e+003;5.322277e-002
2.603540e+003;5.355548e-002
2.605468e+003;5.363177e-002
2.607397e+003;5.350549e-002
2.609325e+003;5.353045e-002
2.611254e+003;5.369825e-002
2.613183e+003;5.397786e-002
2.615111e+003;5.425303e-002
2.617040e+003;5.469657e-002
2.618968e+003;5.504012e-002
2.620897e+003;5.508774e-002
2.622825e+003;5.528485e-002
2.624754e+003;5.591308e-002
2.626682e+003;5.624282e-002
2.628611e+003;5.605258e-002
2.630540e+003;5.601342e-002
2.632468e+003;5.638884e-002
2.634396e+003;5.694530e-002
2.636325e+003;5.714602e-002
2.638254e+003;5.711370e-002
2.640182e+003;5.737696e-002
2.642111e+003;5.758105e-002
2.644039e+003;5.770266e-002
2.645968e+003;5.806087e-002
2.647896e+003;5.840808e-002
2.649825e+003;5.853747e-002
2.651753e+003;5.876119e-002
2.653682e+003;5.915585e-002
2.655611e+003;5.964604e-002
2.657539e+003;6.007042e-002
2.659468e+003;6.022029e-002
2.661396e+003;6.027696e-002
2.663325e+003;6.052950e-002
2.665253e+003;6.102658e-002
2.667182e+003;6.148965e-002
2.669110e+003;6.197943e-002
2.671039e+003;6.220898e-002
2.672968e+003;6.225334e-002
2.674896e+003;6.218558e-002
2.676825e+003;6.227888e-002
2.678753e+003;6.272954e-002
2.680682e+003;6.296099e-002
2.682610e+003;6.301335e-002
2.684539e+003;6.307752e-002
2.686467e+003;6.357773e-002
2.688396e+003;6.407382e-002
2.690324e+003;6.427674e-002
2.692253e+003;6.462646e-002
2.694182e+003;6.503623e-002
2.696110e+003;6.559005e-002
2.698039e+003;6.609822e-002
2.699967e+003;6.631576e-002
2.701896e+003;6.673550e-002
2.703824e+003;6.719805e-002
2.705753e+003;6.721313e-002
2.707681e+003;6.750604e-002
2.709610e+003;6.799754e-002
2.711539e+003;6.837893e-002
2.713467e+003;6.845736e-002
2.715396e+003;6.846174e-002
2.717324e+003;6.865779e-002
2.719253e+003;6.906699e-002
2.721181e+003;6.961717e-002
2.723110e+003;6.985199e-002
2.725038e+003;6.992287e-002
2.726967e+003;7.026420e-002
2.728896e+003;7.017407e-002
2.730824e+003;7.000948e-002
2.732752e+003;7.061881e-002
2.734681e+003;7.113633e-002
2.736610e+003;7.133039e-002
2.738538e+003;7.111123e-002
2.740467e+003;7.115046e-002
2.742395e+003;7.170311e-002
2.744324e+003;7.166052e-002
2.746252e+003;7.144384e-002
2.748181e+003;7.158112e-002
2.750109e+003;7.186041e-002
2.752038e+003;7.202610e-002
2.753967e+003;7.232285e-002
2.755895e+003;7.281878e-002
2.757824e+003;7.303296e-002
2.759752e+003;7.309726e-002
2.761681e+003;7.338816e-002
2.763609e+003;7.363584e-002
2.765538e+003;7.375617e-002
2.767466e+003;7.372861e-002
2.769395e+003;7.379415e-002
2.771323e+003;7.411031e-002
2.773252e+003;7.441153e-002
2.775181e+003;7.488316e-002
2.777109e+003;7.540361e-002
2.779038e+003;7.571058e-002
2.780966e+003;7.592387e-002
2.782895e+003;7.634866e-002
2.784823e+003;7.719963e-002
2.786752e+003;7.770797e-002
2.788680e+003;7.755271e-002
2.790609e+003;7.773171e-002
2.792538e+003;7.838821e-002
2.794466e+003;7.881908e-002
2.796395e+003;7.908240e-002
2.798323e+003;7.948467e-002
2.800252e+003;7.996017e-002
2.802180e+003;8.070679e-002
2.804109e+003;8.149746e-002
2.806037e+003;8.202195e-002
2.807966e+003;8.254691e-002
2.809895e+003;8.307970e-002
2.811823e+003;8.368199e-002
2.813751e+003;8.422372e-002
2.815680e+003;8.512050e-002
2.817609e+003;8.606733e-002
2.819537e+003;8.694105e-002
2.821466e+003;8.791502e-002
2.823394e+003;8.861600e-002
2.825323e+003;8.925740e-002
2.827251e+003;9.014731e-002
2.829180e+003;9.113897e-002
2.831108e+003;9.237228e-002
2.833037e+003;9.364618e-002
2.834966e+003;9.489790e-002
2.836894e+003;9.644527e-002
2.838823e+003;9.828917e-002
2.840751e+003;1.001298e-001
2.842680e+003;1.020454e-001
2.844608e+003;1.043825e-001
2.846537e+003;1.070435e-001
2.848465e+003;1.093905e-001
2.850394e+003;1.118719e-001
2.852323e+003;1.136680e-001
2.854251e+003;1.143647e-001
2.856180e+003;1.152352e-001
2.858108e+003;1.163595e-001
2.860037e+003;1.175155e-001
2.861965e+003;1.184677e-001
2.863894e+003;1.194012e-001
2.865822e+003;1.206852e-001
2.867751e+003;1.216450e-001
2.869679e+003;1.221925e-001
2.871608e+003;1.230746e-001
2.873536e+003;1.244830e-001
2.875465e+003;1.253373e-001
2.877394e+003;1.256788e-001
2.879322e+003;1.261239e-001
2.881251e+003;1.266426e-001
2.883179e+003;1.273634e-001
2.885108e+003;1.281002e-001
2.887036e+003;1.287744e-001
2.888965e+003;1.294181e-001
2.890893e+003;1.302474e-001
2.892822e+003;1.311758e-001
2.894750e+003;1.315231e-001
2.896679e+003;1.313269e-001
2.898608e+003;1.312290e-001
2.900536e+003;1.310013e-001
2.902465e+003;1.306844e-001
2.904393e+003;1.304674e-001
2.906322e+003;1.299966e-001
2.908250e+003;1.289296e-001
2.910179e+003;1.276428e-001
2.912107e+003;1.263801e-001
2.914036e+003;1.254567e-001
2.915965e+003;1.247076e-001
2.917893e+003;1.239893e-001
2.919822e+003;1.230102e-001
2.921750e+003;1.216665e-001
2.923679e+003;1.203172e-001
2.925607e+003;1.186772e-001
2.927536e+003;1.170618e-001
2.929464e+003;1.152694e-001
2.931393e+003;1.130367e-001
2.933322e+003;1.113299e-001
2.935250e+003;1.104792e-001
2.937178e+003;1.094710e-001
2.939107e+003;1.083139e-001
2.941036e+003;1.073244e-001
2.942964e+003;1.066115e-001
2.944893e+003;1.054908e-001
2.946821e+003;1.039814e-001
2.948750e+003;1.024585e-001
2.950678e+003;1.006382e-001
2.952607e+003;9.853824e-002
2.954535e+003;9.709767e-002
2.956464e+003;9.610076e-002
2.958393e+003;9.444110e-002
2.960321e+003;9.245972e-002
2.962250e+003;9.128470e-002
2.964178e+003;9.045815e-002
2.966107e+003;8.929715e-002
2.968035e+003;8.843391e-002
2.969964e+003;8.788516e-002
2.971892e+003;8.680203e-002
2.973821e+003;8.539759e-002
2.975750e+003;8.381249e-002
2.977678e+003;8.195392e-002
2.979607e+003;8.059548e-002
2.981535e+003;7.950811e-002
2.983464e+003;7.831416e-002
2.985392e+003;7.708608e-002
2.987321e+003;7.595796e-002
2.989249e+003;7.523644e-002
2.991178e+003;7.488173e-002
2.993106e+003;7.425834e-002
2.995035e+003;7.379065e-002
2.996964e+003;7.366402e-002
2.998892e+003;7.365574e-002
3.000821e+003;7.327883e-002
3.002749e+003;7.289060e-002
3.004678e+003;7.297268e-002
3.006606e+003;7.311400e-002
3.008535e+003;7.305468e-002
3.010463e+003;7.307974e-002
3.012392e+003;7.302061e-002
3.014321e+003;7.331060e-002
3.016249e+003;7.364997e-002
3.018177e+003;7.381468e-002
3.020106e+003;7.398591e-002
3.022035e+003;7.438596e-002
3.023963e+003;7.484815e-002
3.025892e+003;7.497387e-002
3.027820e+003;7.531052e-002
3.029749e+003;7.591566e-002
3.031677e+003;7.659961e-002
3.033606e+003;7.708316e-002
3.035534e+003;7.746743e-002
3.037463e+003;7.765650e-002
3.039392e+003;7.762766e-002
3.041320e+003;7.812964e-002
3.043249e+003;7.896896e-002
3.045177e+003;7.983834e-002
3.047106e+003;8.016041e-002
3.049034e+003;8.032590e-002
3.050963e+003;8.081326e-002
3.052891e+003;8.136713e-002
3.054820e+003;8.219724e-002
3.056749e+003;8.267720e-002
3.058677e+003;8.303520e-002
3.060606e+003;8.376085e-002
3.062534e+003;8.428966e-002
3.064463e+003;8.501092e-002
3.066391e+003;8.547403e-002
3.068320e+003;8.563917e-002
3.070248e+003;8.653646e-002
3.072177e+003;8.731725e-002
3.074105e+003;8.751784e-002
3.076034e+003;8.793697e-002
3.077963e+003;8.898955e-002
3.079891e+003;9.002524e-002
3.081820e+003;9.095873e-002
3.083748e+003;9.149997e-002
3.085677e+003;9.189811e-002
3.087605e+003;9.265002e-002
3.089534e+003;9.362201e-002
3.091462e+003;9.466247e-002
3.093391e+003;9.522717e-002
3.095320e+003;9.540135e-002
3.097248e+003;9.578161e-002
3.099177e+003;9.627835e-002
3.101105e+003;9.685953e-002
3.103034e+003;9.741116e-002
3.104962e+003;9.835694e-002
3.106891e+003;9.985086e-002
3.108819e+003;1.010016e-001
3.110748e+003;1.014379e-001
3.112677e+003;1.016549e-001
3.114605e+003;1.022163e-001
3.116533e+003;1.030868e-001
3.118462e+003;1.037936e-001
3.120391e+003;1.041546e-001
3.122319e+003;1.049148e-001
3.124248e+003;1.063478e-001
3.126176e+003;1.075579e-001
3.128105e+003;1.082876e-001
3.130033e+003;1.087946e-001
3.131962e+003;1.091903e-001
3.133890e+003;1.097447e-001
3.135819e+003;1.098918e-001
3.137748e+003;1.104578e-001
3.139676e+003;1.118225e-001
3.141605e+003;1.132135e-001
3.143533e+003;1.141716e-001
3.145462e+003;1.148660e-001
3.147390e+003;1.156036e-001
3.149319e+003;1.165214e-001
3.151247e+003;1.173446e-001
3.153176e+003;1.178681e-001
3.155104e+003;1.185911e-001
3.157033e+003;1.194848e-001
3.158962e+003;1.200113e-001
3.160890e+003;1.206983e-001
3.162819e+003;1.220028e-001
3.164747e+003;1.233547e-001
3.166676e+003;1.245566e-001
3.168604e+003;1.252081e-001
3.170533e+003;1.252941e-001
3.172461e+003;1.256539e-001
3.174390e+003;1.268227e-001
3.176319e+003;1.278106e-001
3.178247e+003;1.286343e-001
3.180176e+003;1.294801e-001
3.182104e+003;1.299594e-001
3.184033e+003;1.308565e-001
3.185961e+003;1.325621e-001
3.187890e+003;1.335500e-001
3.189818e+003;1.341176e-001
3.191747e+003;1.350632e-001
3.193676e+003;1.361977e-001
3.195604e+003;1.370125e-001
3.197532e+003;1.376856e-001
3.199461e+003;1.385225e-001
3.201390e+003;1.396145e-001
3.203318e+003;1.410183e-001
3.205247e+003;1.423422e-001
3.207175e+003;1.435802e-001
3.209104e+003;1.445340e-001
3.211032e+003;1.453549e-001
3.212961e+003;1.466716e-001
3.214889e+003;1.480760e-001
3.216818e+003;1.488964e-001
3.218747e+003;1.498712e-001
3.220675e+003;1.508910e-001
3.222604e+003;1.517523e-001
3.224532e+003;1.532163e-001
3.226461e+003;1.546525e-001
3.228389e+003;1.557745e-001
3.230318e+003;1.570554e-001
3.232246e+003;1.582144e-001
3.234175e+003;1.592529e-001
3.236104e+003;1.602357e-001
3.238032e+003;1.616712e-001
3.239961e+003;1.628115e-001
3.241889e+003;1.637741e-001
3.243818e+003;1.653060e-001
3.245746e+003;1.672413e-001
3.247675e+003;1.688404e-001
3.249603e+003;1.699224e-001
3.251532e+003;1.716238e-001
3.253460e+003;1.731775e-001
3.255389e+003;1.742110e-001
3.257318e+003;1.754535e-001
3.259246e+003;1.766369e-001
3.261175e+003;1.779214e-001
3.263103e+003;1.794424e-001
3.265032e+003;1.805610e-001
3.266960e+003;1.811108e-001
3.268889e+003;1.819305e-001
3.270817e+003;1.830956e-001
3.272746e+003;1.836184e-001
3.274675e+003;1.842763e-001
3.276603e+003;1.850220e-001
3.278531e+003;1.853039e-001
3.280460e+003;1.858069e-001
3.282389e+003;1.863403e-001
3.284317e+003;1.868024e-001
3.286246e+003;1.871465e-001
3.288174e+003;1.872278e-001
3.290103e+003;1.873084e-001
3.292031e+003;1.877177e-001
3.293960e+003;1.880298e-001
3.295888e+003;1.886105e-001
3.297817e+003;1.891808e-001
3.299746e+003;1.894614e-001
3.301674e+003;1.899094e-001
3.303603e+003;1.901868e-001
3.305531e+003;1.906410e-001
3.307460e+003;1.915253e-001
3.309388e+003;1.915147e-001
3.311317e+003;1.914707e-001
3.313245e+003;1.920274e-001
3.315174e+003;1.928072e-001
3.317103e+003;1.933586e-001
3.319031e+003;1.942544e-001
3.320960e+003;1.948174e-001
3.322888e+003;1.950508e-001
3.324817e+003;1.956140e-001
3.326745e+003;1.961744e-001
3.328674e+003;1.960730e-001
3.330602e+003;1.955805e-001
3.332531e+003;1.945580e-001
3.334459e+003;1.930892e-001
3.336388e+003;1.922134e-001
3.338317e+003;1.919493e-001
3.340245e+003;1.910307e-001
3.342174e+003;1.896287e-001
3.344102e+003;1.884227e-001
3.346031e+003;1.871682e-001
3.347959e+003;1.861396e-001
3.349888e+003;1.852535e-001
3.351816e+003;1.841327e-001
3.353745e+003;1.831995e-001
3.355674e+003;1.822692e-001
3.357602e+003;1.806398e-001
3.359531e+003;1.789640e-001
3.361459e+003;1.774943e-001
3.363388e+003;1.768460e-001
3.365316e+003;1.760782e-001
3.367245e+003;1.756469e-001
3.369173e+003;1.749221e-001
3.371102e+003;1.734927e-001
3.373031e+003;1.723545e-001
3.374959e+003;1.721235e-001
3.376887e+003;1.718179e-001
3.378816e+003;1.706572e-001
3.380745e+003;1.695345e-001
3.382673e+003;1.686125e-001
3.384602e+003;1.681897e-001
3.386530e+003;1.678016e-001
3.388459e+003;1.670809e-001
3.390387e+003;1.662517e-001
3.392316e+003;1.654087e-001
3.394244e+003;1.648404e-001
3.396173e+003;1.643919e-001
3.398102e+003;1.639545e-001
3.400030e+003;1.631998e-001
3.401959e+003;1.620716e-001
3.403887e+003;1.608762e-001
3.405816e+003;1.596632e-001
3.407744e+003;1.583150e-001
3.409673e+003;1.568954e-001
3.411601e+003;1.557061e-001
3.413530e+003;1.544161e-001
3.415458e+003;1.526586e-001
3.417387e+003;1.515412e-001
3.419316e+003;1.505927e-001
3.421244e+003;1.496677e-001
3.423173e+003;1.489925e-001
3.425101e+003;1.477062e-001
3.427030e+003;1.469458e-001
3.428958e+003;1.464417e-001
3.430887e+003;1.450905e-001
3.432815e+003;1.433807e-001
3.434744e+003;1.421129e-001
3.436673e+003;1.409953e-001
3.438601e+003;1.393573e-001
3.440530e+003;1.377008e-001
3.442458e+003;1.371561e-001
3.444387e+003;1.366194e-001
3.446315e+003;1.350318e-001
3.448244e+003;1.338332e-001
3.450172e+003;1.325692e-001
3.452101e+003;1.313022e-001
3.454030e+003;1.307150e-001
3.455958e+003;1.295618e-001
3.457886e+003;1.283848e-001
3.459815e+003;1.272169e-001
3.461744e+003;1.256525e-001
3.463672e+003;1.239294e-001
3.465601e+003;1.222711e-001
3.467529e+003;1.210994e-001
3.469458e+003;1.200271e-001
3.471386e+003;1.193781e-001
3.473315e+003;1.182655e-001
3.475243e+003;1.164874e-001
3.477172e+003;1.149423e-001
3.479101e+003;1.140083e-001
3.481029e+003;1.131220e-001
3.482958e+003;1.123120e-001
3.484886e+003;1.115089e-001
3.486815e+003;1.096103e-001
3.488743e+003;1.075310e-001
3.490672e+003;1.063678e-001
3.492600e+003;1.056651e-001
3.494529e+003;1.047675e-001
3.496458e+003;1.037145e-001
3.498386e+003;1.024117e-001
3.500315e+003;1.012251e-001
3.502243e+003;9.964592e-002
3.504172e+003;9.830143e-002
3.506100e+003;9.715382e-002
3.508029e+003;9.604958e-002
3.509957e+003;9.541526e-002
3.511886e+003;9.475902e-002
3.513814e+003;9.358650e-002
3.515743e+003;9.200429e-002
3.517672e+003;9.097323e-002
3.519600e+003;9.023067e-002
3.521529e+003;8.872747e-002
3.523457e+003;8.702881e-002
3.525386e+003;8.650399e-002
3.527314e+003;8.577730e-002
3.529243e+003;8.461227e-002
3.531171e+003;8.389460e-002
3.533100e+003;8.255341e-002
3.535029e+003;8.076233e-002
3.536957e+003;7.979103e-002
3.538885e+003;7.860643e-002
3.540814e+003;7.704762e-002
3.542743e+003;7.588713e-002
3.544671e+003;7.536235e-002
3.546600e+003;7.469647e-002
3.548528e+003;7.360612e-002
3.550457e+003;7.206677e-002
3.552385e+003;7.099631e-002
3.554314e+003;7.032727e-002
3.556242e+003;6.935851e-002
3.558171e+003;6.844075e-002
3.560100e+003;6.743053e-002
3.562028e+003;6.587898e-002
3.563957e+003;6.445639e-002
3.565885e+003;6.333725e-002
3.567814e+003;6.210598e-002
3.569742e+003;6.087953e-002
3.571671e+003;6.010722e-002
3.573599e+003;5.912775e-002
3.575528e+003;5.823134e-002
3.577457e+003;5.746856e-002
3.579385e+003;5.633210e-002
3.581314e+003;5.529531e-002
3.583242e+003;5.450382e-002
3.585171e+003;5.313012e-002
3.587099e+003;5.131308e-002
3.589028e+003;5.072780e-002
3.590956e+003;5.050334e-002
3.592885e+003;4.936545e-002
3.594813e+003;4.785518e-002
3.596742e+003;4.674070e-002
3.598671e+003;4.539567e-002
3.600599e+003;4.395356e-002
3.602528e+003;4.301541e-002
3.604456e+003;4.262597e-002
3.606385e+003;4.222304e-002
3.608313e+003;4.109178e-002
3.610242e+003;3.976818e-002
3.612170e+003;3.846550e-002
3.614099e+003;3.721935e-002
3.616028e+003;3.613691e-002
3.617956e+003;3.451916e-002
3.619885e+003;3.343736e-002
3.621813e+003;3.327046e-002
3.623742e+003;3.237597e-002
3.625670e+003;3.061756e-002
3.627599e+003;2.825339e-002
3.629527e+003;2.763236e-002
3.631456e+003;2.825279e-002
3.633385e+003;2.779372e-002
3.635313e+003;2.727399e-002
3.637241e+003;2.613663e-002
3.639170e+003;2.497693e-002
3.641099e+003;2.405672e-002
3.643027e+003;2.333378e-002
3.644956e+003;2.245497e-002
3.646884e+003;2.101091e-002
3.648813e+003;1.949467e-002
3.650741e+003;1.971759e-002
3.652670e+003;2.001446e-002
3.654598e+003;1.827344e-002
3.656527e+003;1.736586e-002
3.658456e+003;1.806576e-002
3.660384e+003;1.788929e-002
3.662313e+003;1.677986e-002
3.664241e+003;1.581725e-002
3.666170e+003;1.512974e-002
3.668098e+003;1.421603e-002
3.670027e+003;1.343245e-002
3.671955e+003;1.355888e-002
3.673884e+003;1.243398e-002
3.675813e+003;1.147475e-002
3.677741e+003;1.246146e-002
3.679669e+003;1.331575e-002
3.681598e+003;1.357765e-002
3.683527e+003;1.292538e-002
3.685455e+003;1.180158e-002
3.687384e+003;1.021446e-002
3.689312e+003;1.000626e-002
3.691241e+003;1.135579e-002
3.693169e+003;1.247469e-002
3.695098e+003;1.229032e-002
3.697026e+003;1.166854e-002
3.698955e+003;1.113603e-002
3.700884e+003;1.076983e-002
3.702812e+003;1.058821e-002
3.704741e+003;1.041716e-002
3.706669e+003;1.007018e-002
3.708598e+003;8.855618e-003
3.710526e+003;7.737728e-003
3.712455e+003;8.538669e-003
3.714383e+003;1.016830e-002
3.716312e+003;1.022233e-002
3.718240e+003;9.952151e-003
3.720169e+003;9.630912e-003
3.722098e+003;9.274570e-003
3.724026e+003;9.154592e-003
3.725955e+003;8.789748e-003
3.727883e+003;8.718005e-003
3.729812e+003;8.524815e-003
3.731740e+003;7.445795e-003
3.733669e+003;6.694206e-003
3.735597e+003;6.073663e-003
3.737526e+003;6.964961e-003
3.739455e+003;8.099832e-003
3.741383e+003;7.580644e-003
3.743312e+003;4.626208e-003
3.745240e+003;4.287634e-003
3.747169e+003;5.495645e-003
3.749097e+003;4.782160e-003
3.751026e+003;5.160181e-003
3.752954e+003;6.827879e-003
3.754883e+003;7.834239e-003
3.756812e+003;7.313953e-003
3.758740e+003;6.998093e-003
3.760668e+003;7.623399e-003
3.762597e+003;8.004274e-003
3.764526e+003;7.179995e-003
3.766454e+003;7.187103e-003
3.768383e+003;7.127380e-003
3.770311e+003;7.119162e-003
3.772240e+003;7.623062e-003
3.774168e+003;7.565808e-003
3.776097e+003;7.324904e-003
3.778025e+003;7.243229e-003
3.779954e+003;7.795409e-003
3.781883e+003;8.570299e-003
3.783811e+003;8.647627e-003
3.785740e+003;8.411765e-003
3.787668e+003;7.851311e-003
3.789597e+003;7.906307e-003
3.791525e+003;8.417879e-003
3.793454e+003;8.402069e-003
3.795382e+003;7.321198e-003
3.797311e+003;7.007050e-003
3.799240e+003;6.514323e-003
3.801168e+003;5.836473e-003
3.803097e+003;6.998093e-003
3.805025e+003;6.712410e-003
3.806954e+003;6.014764e-003
3.808882e+003;6.849321e-003
3.810811e+003;7.477109e-003
3.812739e+003;7.542207e-003
3.814668e+003;6.576754e-003
3.816596e+003;6.718501e-003
3.818525e+003;6.841175e-003
3.820454e+003;5.895011e-003
3.822382e+003;6.883488e-003
3.824311e+003;7.683764e-003
3.826239e+003;7.580644e-003
3.828168e+003;7.751355e-003
3.830096e+003;7.417077e-003
3.832025e+003;6.806304e-003
3.833953e+003;6.570161e-003
3.835882e+003;5.837044e-003
3.837811e+003;4.943631e-003
3.839739e+003;5.711162e-003
3.841667e+003;6.473728e-003
3.843596e+003;7.510315e-003
3.845525e+003;8.089469e-003
3.847453e+003;7.717457e-003
3.849382e+003;6.970819e-003
3.851310e+003;5.366608e-003
3.853239e+003;3.768802e-003
3.855167e+003;5.686251e-003
3.857096e+003;8.333904e-003
3.859024e+003;8.916593e-003
3.860953e+003;8.663852e-003
3.862882e+003;8.209626e-003
3.864810e+003;8.151788e-003
3.866739e+003;8.747452e-003
3.868667e+003;8.145813e-003
3.870596e+003;8.491159e-003
3.872524e+003;9.092906e-003
3.874453e+003;8.950416e-003
3.876381e+003;9.201632e-003
3.878310e+003;8.870294e-003
3.880239e+003;8.916322e-003
3.882167e+003;9.391061e-003
3.884096e+003;8.214995e-003
3.886024e+003;7.950749e-003
3.887953e+003;9.116963e-003
3.889881e+003;9.115914e-003
3.891810e+003;8.941114e-003
3.893738e+003;9.368884e-003
3.895667e+003;9.384392e-003
3.897595e+003;8.883551e-003
3.899524e+003;8.093452e-003
3.901453e+003;8.117555e-003
3.903381e+003;8.494505e-003
3.905310e+003;9.189515e-003
3.907238e+003;1.057395e-002
3.909167e+003;1.108140e-002
3.911095e+003;1.064319e-002
3.913024e+003;9.594598e-003
3.914952e+003;8.845000e-003
3.916881e+003;8.761516e-003
3.918810e+003;9.472634e-003
3.920738e+003;1.014452e-002
3.922667e+003;1.039018e-002
3.924595e+003;1.023122e-002
3.926524e+003;1.005482e-002
3.928452e+003;9.720492e-003
3.930381e+003;1.011200e-002
3.932309e+003;1.067011e-002
3.934238e+003;1.064573e-002
3.936167e+003;1.077543e-002
3.938095e+003;1.106071e-002
3.940023e+003;1.081171e-002
3.941952e+003;1.051770e-002
3.943881e+003;1.045511e-002
3.945809e+003;1.032941e-002
3.947738e+003;1.025164e-002
3.949666e+003;1.050046e-002
3.951595e+003;1.131940e-002
3.953523e+003;1.158173e-002
3.955452e+003;1.166426e-002
3.957380e+003;1.179766e-002
3.959309e+003;1.143641e-002
3.961238e+003;1.141597e-002
3.963166e+003;1.220617e-002
3.965095e+003;1.217936e-002
3.967023e+003;1.118866e-002
3.968952e+003;1.115837e-002
3.970880e+003;1.187278e-002
3.972809e+003;1.212548e-002
3.974737e+003;1.189038e-002
3.976666e+003;1.195059e-002
3.978594e+003;1.256084e-002
3.980523e+003;1.298789e-002
3.982452e+003;1.290193e-002
3.984380e+003;1.282347e-002
3.986309e+003;1.247647e-002
3.988237e+003;1.214508e-002
3.990166e+003;1.195689e-002
3.992094e+003;1.231006e-002
3.994023e+003;1.261323e-002
3.995951e+003;1.268743e-002
3.997880e+003;1.297932e-002
3.999809e+003;1.339810e-002
4.001737e+003;0.000000e+000
