3.992094e+002;0.000000e+000
4.011380e+002;0.000000e+000
4.030665e+002;0.000000e+000
4.049951e+002;0.000000e+000
4.069236e+002;0.000000e+000
4.088522e+002;0.000000e+000
4.107807e+002;0.000000e+000
4.127093e+002;0.000000e+000
4.146378e+002;0.000000e+000
4.165664e+002;0.000000e+000
4.184949e+002;0.000000e+000
4.204235e+002;0.000000e+000
4.223520e+002;0.000000e+000
4.242806e+002;0.000000e+000
4.262091e+002;0.000000e+000
4.281377e+002;0.000000e+000
4.300662e+002;0.000000e+000
4.319948e+002;0.000000e+000
4.339233e+002;0.000000e+000
4.358519e+002;0.000000e+000
4.377804e+002;0.000000e+000
4.397090e+002;0.000000e+000
4.416375e+002;0.000000e+000
4.435660e+002;0.000000e+000
4.454946e+002;0.000000e+000
4.474232e+002;0.000000e+000
4.493517e+002;0.000000e+000
4.512802e+002;0.000000e+000
4.532088e+002;0.000000e+000
4.551373e+002;0.000000e+000
4.570659e+002;0.000000e+000
4.589944e+002;0.000000e+000
4.609230e+002;0.000000e+000
4.628515e+002;0.000000e+000
4.647801e+002;0.000000e+000
4.667086e+002;0.000000e+000
4.686372e+002;0.000000e+000
4.705657e+002;0.000000e+000
4.724943e+002;0.000000e+000
4.744228e+002;0.000000e+000
4.763513e+002;0.000000e+000
4.782799e+002;0.000000e+000
4.802085e+002;0.000000e+000
4.821370e+002;0.000000e+000
4.840656e+002;0.000000e+000
4.859941e+002;0.000000e+000
4.879226e+002;0.000000e+000
4.898512e+002;0.000000e+000
4.917798e+002;0.000000e+000
4.937083e+002;0.000000e+000
4.956368e+002;0.000000e+000
4.975654e+002;0.000000e+000
4.994939e+002;0.000000e+000
5.014225e+002;0.000000e+000
5.033510e+002;0.000000e+000
5.052796e+002;0.000000e+000
5.072081e+002;0.000000e+000
5.091367e+002;0.000000e+000
5.110652e+002;0.000000e+000
5.129938e+002;0.000000e+000
5.149223e+002;0.000000e+000
5.168509e+002;0.000000e+000
5.187794e+002;0.000000e+000
5.207079e+002;0.000000e+000
5.226365e+002;0.000000e+000
5.245651e+002;0.000000e+000
5.264936e+002;0.000000e+000
5.284222e+002;0.000000e+000
5.303507e+002;0.000000e+000
5.322792e+002;0.000000e+000
5.342078e+002;0.000000e+000
5.361364e+002;0.000000e+000
5.380649e+002;0.000000e+000
5.399935e+002;0.000000e+000
5.419220e+002;0.000000e+000
5.438505e+002;0.000000e+000
5.457791e+002;0.000000e+000
5.477076e+002;0.000000e+000
5.496362e+002;0.000000e+000
5.515648e+002;0.000000e+000
5.534933e+002;0.000000e+000
5.554218e+002;0.000000e+000
5.573504e+002;0.000000e+000
5.592789e+002;0.000000e+000
5.612075e+002;0.000000e+000
5.631360e+002;0.000000e+000
5.650646e+002;0.000000e+000
5.669931e+002;0.000000e+000
5.689217e+002;0.000000e+000
5.708502e+002;0.000000e+000
5.727787e+002;0.000000e+000
5.747073e+002;0.000000e+000
5.766359e+002;0.000000e+000
5.785644e+002;0.000000e+000
5.804930e+002;0.000000e+000
5.824215e+002;0.000000e+000
5.843500e+002;0.000000e+000
5.862786e+002;0.000000e+000
5.882072e+002;0.000000e+000
5.901357e+002;0.000000e+000
5.920643e+002;0.000000e+000
5.939928e+002;0.000000e+000
5.959213e+002;0.000000e+000
5.978499e+002;0.000000e+000
5.997784e+002;2.404799e-001
6.017070e+002;2.420072e-001
6.036355e+002;2.353447e-001
6.055641e+002;2.324260e-001
6.074926e+002;2.371679e-001
6.094211e+002;2.401462e-001
6.113497e+002;2.347600e-001
6.132783e+002;2.344664e-001
6.152068e+002;2.386610e-001
6.171354e+002;2.393102e-001
6.190639e+002;2.387152e-001
6.209924e+002;2.367957e-001
6.229210e+002;2.281963e-001
6.248495e+002;2.220195e-001
6.267781e+002;2.229570e-001
6.287067e+002;2.286057e-001
6.306352e+002;2.312251e-001
6.325637e+002;2.267841e-001
6.344923e+002;2.233711e-001
6.364208e+002;2.251525e-001
6.383494e+002;2.268340e-001
6.402780e+002;2.272807e-001
6.422065e+002;2.202953e-001
6.441350e+002;2.152625e-001
6.460636e+002;2.201795e-001
6.479921e+002;2.211366e-001
6.499207e+002;2.177830e-001
6.518492e+002;2.151246e-001
6.537778e+002;2.151275e-001
6.557063e+002;2.179062e-001
6.576349e+002;2.213793e-001
6.595634e+002;2.262942e-001
6.614919e+002;2.278659e-001
6.634205e+002;2.263062e-001
6.653491e+002;2.222819e-001
6.672776e+002;2.187428e-001
6.692062e+002;2.192823e-001
6.711347e+002;2.185357e-001
6.730632e+002;2.139223e-001
6.749918e+002;2.086441e-001
6.769203e+002;2.039089e-001
6.788489e+002;2.003525e-001
6.807775e+002;1.966574e-001
6.827060e+002;1.929825e-001
6.846345e+002;1.912173e-001
6.865631e+002;1.908946e-001
6.884916e+002;1.898282e-001
6.904202e+002;1.881469e-001
6.923488e+002;1.856452e-001
6.942773e+002;1.835375e-001
6.962058e+002;1.830109e-001
6.981344e+002;1.829660e-001
7.000629e+002;1.824221e-001
7.019915e+002;1.813144e-001
7.039200e+002;1.813865e-001
7.058486e+002;1.808819e-001
7.077771e+002;1.792185e-001
7.097057e+002;1.778155e-001
7.116342e+002;1.754850e-001
7.135627e+002;1.731649e-001
7.154913e+002;1.711472e-001
7.174199e+002;1.693088e-001
7.193484e+002;1.680934e-001
7.212770e+002;1.651690e-001
7.232055e+002;1.603788e-001
7.251340e+002;1.571834e-001
7.270626e+002;1.541307e-001
7.289911e+002;1.503734e-001
7.309197e+002;1.478440e-001
7.328483e+002;1.457883e-001
7.347768e+002;1.427237e-001
7.367053e+002;1.401946e-001
7.386339e+002;1.384161e-001
7.405624e+002;1.373062e-001
7.424910e+002;1.359942e-001
7.444196e+002;1.346314e-001
7.463481e+002;1.328882e-001
7.482766e+002;1.309746e-001
7.502052e+002;1.290851e-001
7.521337e+002;1.278177e-001
7.540623e+002;1.269431e-001
7.559908e+002;1.248488e-001
7.579194e+002;1.223295e-001
7.598479e+002;1.202524e-001
7.617765e+002;1.190077e-001
7.637050e+002;1.175286e-001
7.656335e+002;1.157261e-001
7.675621e+002;1.138382e-001
7.694907e+002;1.116192e-001
7.714192e+002;1.098159e-001
7.733478e+002;1.085651e-001
7.752763e+002;1.074157e-001
7.772048e+002;1.058689e-001
7.791334e+002;1.040749e-001
7.810620e+002;1.028847e-001
7.829905e+002;1.020594e-001
7.849191e+002;1.016275e-001
7.868476e+002;1.009512e-001
7.887761e+002;1.000281e-001
7.907047e+002;9.978035e-002
7.926332e+002;9.947249e-002
7.945618e+002;9.821634e-002
7.964903e+002;9.730387e-002
7.984189e+002;9.710936e-002
8.003474e+002;9.687787e-002
8.022759e+002;9.667160e-002
8.042045e+002;9.675033e-002
8.061331e+002;9.639839e-002
8.080616e+002;9.525580e-002
8.099902e+002;9.396492e-002
8.119187e+002;9.286198e-002
8.138472e+002;9.261138e-002
8.157758e+002;9.214482e-002
8.177043e+002;9.098332e-002
8.196329e+002;8.984432e-002
8.215615e+002;8.913102e-002
8.234900e+002;8.860540e-002
8.254185e+002;8.781592e-002
8.273471e+002;8.690138e-002
8.292756e+002;8.579728e-002
8.312042e+002;8.505759e-002
8.331328e+002;8.494741e-002
8.350613e+002;8.459117e-002
8.369898e+002;8.286018e-002
8.389184e+002;8.151425e-002
8.408469e+002;8.117372e-002
8.427755e+002;7.995388e-002
8.447040e+002;7.831634e-002
8.466326e+002;7.722259e-002
8.485611e+002;7.671042e-002
8.504897e+002;7.679250e-002
8.524182e+002;7.620743e-002
8.543467e+002;7.527632e-002
8.562753e+002;7.521906e-002
8.582039e+002;7.523679e-002
8.601324e+002;7.486815e-002
8.620610e+002;7.459085e-002
8.639895e+002;7.472358e-002
8.659180e+002;7.547567e-002
8.678466e+002;7.591183e-002
8.697751e+002;7.616273e-002
8.717037e+002;7.722998e-002
8.736323e+002;7.917388e-002
8.755608e+002;8.111936e-002
8.774893e+002;8.260498e-002
8.794179e+002;8.478003e-002
8.813464e+002;8.812306e-002
8.832750e+002;9.185836e-002
8.852036e+002;9.576868e-002
8.871321e+002;9.997284e-002
8.890606e+002;1.042458e-001
8.909892e+002;1.081170e-001
8.929177e+002;1.116427e-001
8.948463e+002;1.145100e-001
8.967748e+002;1.165612e-001
8.987034e+002;1.176578e-001
9.006319e+002;1.177130e-001
9.025605e+002;1.167598e-001
9.044890e+002;1.148081e-001
9.064175e+002;1.120067e-001
9.083461e+002;1.087937e-001
9.102747e+002;1.056841e-001
9.122032e+002;1.025078e-001
9.141318e+002;9.962812e-002
9.160603e+002;9.701841e-002
9.179888e+002;9.474695e-002
9.199174e+002;9.368157e-002
9.218459e+002;9.302011e-002
9.237745e+002;9.303030e-002
9.257031e+002;9.350089e-002
9.276316e+002;9.334756e-002
9.295601e+002;9.345227e-002
9.314887e+002;9.412650e-002
9.334172e+002;9.450379e-002
9.353458e+002;9.503610e-002
9.372744e+002;9.565815e-002
9.392029e+002;9.623642e-002
9.411314e+002;9.729562e-002
9.430600e+002;9.868798e-002
9.449885e+002;1.003481e-001
9.469171e+002;1.025169e-001
9.488456e+002;1.052672e-001
9.507742e+002;1.077865e-001
9.527027e+002;1.103346e-001
9.546313e+002;1.138289e-001
9.565598e+002;1.176925e-001
9.584883e+002;1.215531e-001
9.604169e+002;1.257700e-001
9.623455e+002;1.302388e-001
9.642740e+002;1.346989e-001
9.662026e+002;1.396497e-001
9.681311e+002;1.454105e-001
9.700596e+002;1.517772e-001
9.719882e+002;1.586715e-001
9.739167e+002;1.669816e-001
9.758453e+002;1.774499e-001
9.777739e+002;1.904727e-001
9.797024e+002;2.063584e-001
9.816309e+002;2.238687e-001
9.835595e+002;2.415598e-001
9.854880e+002;2.570702e-001
9.874166e+002;2.689587e-001
9.893452e+002;2.787883e-001
9.912737e+002;2.879590e-001
9.932022e+002;2.960812e-001
9.951307e+002;3.031833e-001
9.970593e+002;3.092716e-001
9.989879e+002;3.148188e-001
1.000916e+003;3.191468e-001
1.002845e+003;3.223403e-001
1.004773e+003;3.253592e-001
1.006702e+003;3.291813e-001
1.008631e+003;3.339967e-001
1.010559e+003;3.406568e-001
1.012488e+003;3.481433e-001
1.014416e+003;3.550704e-001
1.016345e+003;3.613714e-001
1.018273e+003;3.670128e-001
1.020202e+003;3.712977e-001
1.022130e+003;3.738628e-001
1.024059e+003;3.759158e-001
1.025988e+003;3.770671e-001
1.027916e+003;3.778445e-001
1.029845e+003;3.784401e-001
1.031773e+003;3.788090e-001
1.033702e+003;3.778498e-001
1.035630e+003;3.740776e-001
1.037559e+003;3.694600e-001
1.039487e+003;3.646589e-001
1.041416e+003;3.597751e-001
1.043344e+003;3.563525e-001
1.045273e+003;3.544081e-001
1.047202e+003;3.537568e-001
1.049130e+003;3.543507e-001
1.051059e+003;3.554358e-001
1.052987e+003;3.568666e-001
1.054916e+003;3.575597e-001
1.056844e+003;3.562856e-001
1.058773e+003;3.531882e-001
1.060701e+003;3.475894e-001
1.062630e+003;3.388807e-001
1.064558e+003;3.282284e-001
1.066487e+003;3.178711e-001
1.068416e+003;3.085943e-001
1.070344e+003;3.001878e-001
1.072273e+003;2.926388e-001
1.074201e+003;2.857358e-001
1.076130e+003;2.791153e-001
1.078058e+003;2.733603e-001
1.079987e+003;2.682003e-001
1.081915e+003;2.634449e-001
1.083844e+003;2.592158e-001
1.085773e+003;2.561417e-001
1.087701e+003;2.535412e-001
1.089630e+003;2.507055e-001
1.091558e+003;2.481012e-001
1.093487e+003;2.456181e-001
1.095415e+003;2.439267e-001
1.097344e+003;2.429559e-001
1.099272e+003;2.416300e-001
1.101201e+003;2.401887e-001
1.103129e+003;2.391535e-001
1.105058e+003;2.378479e-001
1.106987e+003;2.360050e-001
1.108915e+003;2.339080e-001
1.110844e+003;2.308710e-001
1.112772e+003;2.268868e-001
1.114701e+003;2.222267e-001
1.116629e+003;2.166325e-001
1.118558e+003;2.103401e-001
1.120486e+003;2.040227e-001
1.122415e+003;1.983592e-001
1.124344e+003;1.928708e-001
1.126272e+003;1.868367e-001
1.128201e+003;1.804542e-001
1.130129e+003;1.746835e-001
1.132058e+003;1.694717e-001
1.133986e+003;1.648445e-001
1.135915e+003;1.608967e-001
1.137843e+003;1.578906e-001
1.139772e+003;1.552320e-001
1.141700e+003;1.536635e-001
1.143629e+003;1.536679e-001
1.145557e+003;1.543169e-001
1.147486e+003;1.558058e-001
1.149415e+003;1.579129e-001
1.151343e+003;1.595017e-001
1.153272e+003;1.608814e-001
1.155200e+003;1.624342e-001
1.157129e+003;1.635106e-001
1.159057e+003;1.638223e-001
1.160986e+003;1.631124e-001
1.162914e+003;1.610427e-001
1.164843e+003;1.569832e-001
1.166771e+003;1.508524e-001
1.168700e+003;1.435538e-001
1.170629e+003;1.361556e-001
1.172557e+003;1.292011e-001
1.174486e+003;1.228869e-001
1.176414e+003;1.171086e-001
1.178343e+003;1.120629e-001
1.180271e+003;1.079688e-001
1.182200e+003;1.045367e-001
1.184128e+003;1.022206e-001
1.186057e+003;1.011767e-001
1.187986e+003;1.009656e-001
1.189914e+003;1.016865e-001
1.191843e+003;1.035998e-001
1.193771e+003;1.059826e-001
1.195700e+003;1.086083e-001
1.197628e+003;1.113162e-001
1.199557e+003;1.131953e-001
1.201485e+003;1.141647e-001
1.203414e+003;1.146345e-001
1.205343e+003;1.141323e-001
1.207271e+003;1.123195e-001
1.209200e+003;1.095970e-001
1.211128e+003;1.061816e-001
1.213057e+003;1.030726e-001
1.214985e+003;1.011152e-001
1.216914e+003;1.004684e-001
1.218842e+003;1.009782e-001
1.220771e+003;1.025744e-001
1.222699e+003;1.046422e-001
1.224628e+003;1.064439e-001
1.226557e+003;1.084404e-001
1.228485e+003;1.106460e-001
1.230414e+003;1.125055e-001
1.232342e+003;1.142434e-001
1.234271e+003;1.156564e-001
1.236199e+003;1.166009e-001
1.238128e+003;1.169982e-001
1.240056e+003;1.170015e-001
1.241985e+003;1.172453e-001
1.243913e+003;1.178173e-001
1.245842e+003;1.187533e-001
1.247771e+003;1.196449e-001
1.249699e+003;1.200833e-001
1.251628e+003;1.206517e-001
1.253556e+003;1.211295e-001
1.255485e+003;1.217103e-001
1.257413e+003;1.225574e-001
1.259342e+003;1.232163e-001
1.261270e+003;1.233298e-001
1.263199e+003;1.229106e-001
1.265127e+003;1.220720e-001
1.267056e+003;1.207770e-001
1.268985e+003;1.197957e-001
1.270913e+003;1.193430e-001
1.272842e+003;1.193047e-001
1.274770e+003;1.193017e-001
1.276699e+003;1.190450e-001
1.278627e+003;1.186402e-001
1.280556e+003;1.176773e-001
1.282484e+003;1.162861e-001
1.284413e+003;1.151675e-001
1.286342e+003;1.145098e-001
1.288270e+003;1.140318e-001
1.290199e+003;1.142052e-001
1.292127e+003;1.150560e-001
1.294056e+003;1.158386e-001
1.295984e+003;1.166451e-001
1.297913e+003;1.177513e-001
1.299841e+003;1.192265e-001
1.301770e+003;1.213299e-001
1.303698e+003;1.239198e-001
1.305627e+003;1.267329e-001
1.307556e+003;1.296710e-001
1.309484e+003;1.324696e-001
1.311413e+003;1.350976e-001
1.313341e+003;1.374293e-001
1.315270e+003;1.392024e-001
1.317198e+003;1.396869e-001
1.319127e+003;1.388646e-001
1.321055e+003;1.374701e-001
1.322984e+003;1.359173e-001
1.324912e+003;1.339663e-001
1.326841e+003;1.322538e-001
1.328770e+003;1.318928e-001
1.330698e+003;1.321570e-001
1.332627e+003;1.323676e-001
1.334555e+003;1.325603e-001
1.336484e+003;1.324945e-001
1.338412e+003;1.318664e-001
1.340341e+003;1.311669e-001
1.342269e+003;1.303606e-001
1.344198e+003;1.287831e-001
1.346126e+003;1.270462e-001
1.348055e+003;1.257946e-001
1.349984e+003;1.253123e-001
1.351912e+003;1.255241e-001
1.353841e+003;1.264513e-001
1.355769e+003;1.274729e-001
1.357698e+003;1.282170e-001
1.359626e+003;1.285569e-001
1.361555e+003;1.282961e-001
1.363483e+003;1.281277e-001
1.365412e+003;1.281483e-001
1.367341e+003;1.278321e-001
1.369269e+003;1.273562e-001
1.371198e+003;1.262508e-001
1.373126e+003;1.243271e-001
1.375055e+003;1.224704e-001
1.376983e+003;1.207613e-001
1.378912e+003;1.184140e-001
1.380840e+003;1.158028e-001
1.382769e+003;1.135188e-001
1.384698e+003;1.110269e-001
1.386626e+003;1.077750e-001
1.388555e+003;1.061500e-001
1.390483e+003;1.056268e-001
1.392412e+003;1.041682e-001
1.394340e+003;1.026798e-001
1.396269e+003;1.026988e-001
1.398197e+003;1.026942e-001
1.400126e+003;1.031959e-001
1.402054e+003;1.038440e-001
1.403983e+003;1.036376e-001
1.405911e+003;1.040572e-001
1.407840e+003;1.047345e-001
1.409769e+003;1.052017e-001
1.411697e+003;1.055591e-001
1.413626e+003;1.059727e-001
1.415554e+003;1.059389e-001
1.417483e+003;1.045975e-001
1.419411e+003;1.043700e-001
1.421340e+003;1.069570e-001
1.423268e+003;1.087233e-001
1.425197e+003;1.100045e-001
1.427125e+003;1.107699e-001
1.429054e+003;1.105581e-001
1.430983e+003;1.103811e-001
1.432911e+003;1.098764e-001
1.434840e+003;1.073124e-001
1.436768e+003;1.047203e-001
1.438697e+003;1.051944e-001
1.440625e+003;1.049121e-001
1.442554e+003;1.036276e-001
1.444482e+003;1.023443e-001
1.446411e+003;1.009817e-001
1.448340e+003;1.002311e-001
1.450268e+003;1.002869e-001
1.452197e+003;9.948844e-002
1.454125e+003;9.691726e-002
1.456054e+003;9.209996e-002
1.457982e+003;9.133670e-002
1.459911e+003;9.365070e-002
1.461839e+003;9.337487e-002
1.463768e+003;9.059483e-002
1.465697e+003;8.815627e-002
1.467625e+003;8.668534e-002
1.469554e+003;8.352589e-002
1.471482e+003;7.820901e-002
1.473411e+003;7.456139e-002
1.475339e+003;7.304554e-002
1.477268e+003;7.127870e-002
1.479196e+003;6.947926e-002
1.481125e+003;6.733375e-002
1.483053e+003;6.520529e-002
1.484982e+003;6.210854e-002
1.486911e+003;5.827275e-002
1.488839e+003;5.487523e-002
1.490768e+003;5.346003e-002
1.492696e+003;5.348945e-002
1.494625e+003;5.115284e-002
1.496553e+003;4.833785e-002
1.498482e+003;4.842723e-002
1.500410e+003;4.938361e-002
1.502339e+003;4.919075e-002
1.504267e+003;4.518300e-002
1.506196e+003;4.078860e-002
1.508125e+003;4.270383e-002
1.510053e+003;4.578878e-002
1.511982e+003;4.632279e-002
1.513910e+003;4.639952e-002
1.515839e+003;4.559892e-002
1.517767e+003;4.465288e-002
1.519696e+003;4.233008e-002
1.521624e+003;4.103850e-002
1.523553e+003;4.316844e-002
1.525481e+003;4.409517e-002
1.527410e+003;4.493875e-002
1.529339e+003;4.573474e-002
1.531267e+003;4.521024e-002
1.533196e+003;4.411270e-002
1.535124e+003;4.513391e-002
1.537053e+003;4.362650e-002
1.538981e+003;3.859520e-002
1.540910e+003;3.845689e-002
1.542838e+003;4.179315e-002
1.544767e+003;4.407911e-002
1.546695e+003;4.616232e-002
1.548624e+003;4.683934e-002
1.550553e+003;4.678180e-002
1.552481e+003;4.602025e-002
1.554410e+003;4.463570e-002
1.556338e+003;4.215030e-002
1.558267e+003;3.733839e-002
1.560195e+003;3.915506e-002
1.562124e+003;4.483616e-002
1.564052e+003;4.656557e-002
1.565981e+003;4.664337e-002
1.567910e+003;4.553787e-002
1.569838e+003;4.457900e-002
1.571767e+003;4.595439e-002
1.573695e+003;4.517417e-002
1.575624e+003;4.207217e-002
1.577552e+003;4.363889e-002
1.579481e+003;4.660415e-002
1.581409e+003;4.711084e-002
1.583338e+003;4.724241e-002
1.585266e+003;4.756000e-002
1.587195e+003;4.786173e-002
1.589124e+003;4.783228e-002
1.591052e+003;4.781764e-002
1.592981e+003;4.795301e-002
1.594909e+003;4.828208e-002
1.596838e+003;4.852662e-002
1.598766e+003;4.883474e-002
1.600695e+003;4.894513e-002
1.602623e+003;4.913565e-002
1.604552e+003;4.975642e-002
1.606480e+003;5.041942e-002
1.608409e+003;5.082288e-002
1.610338e+003;5.113342e-002
1.612266e+003;5.144134e-002
1.614195e+003;5.049683e-002
1.616123e+003;4.848894e-002
1.618052e+003;5.059306e-002
1.619980e+003;5.326764e-002
1.621909e+003;5.286471e-002
1.623837e+003;5.297920e-002
1.625766e+003;5.430909e-002
1.627694e+003;5.521915e-002
1.629623e+003;5.642106e-002
1.631552e+003;5.720041e-002
1.633480e+003;5.562668e-002
1.635409e+003;5.377358e-002
1.637337e+003;5.648222e-002
1.639266e+003;5.930452e-002
1.641194e+003;5.994906e-002
1.643123e+003;5.933893e-002
1.645051e+003;5.696502e-002
1.646980e+003;5.639087e-002
1.648909e+003;5.801717e-002
1.650837e+003;5.447880e-002
1.652766e+003;4.905366e-002
1.654694e+003;5.315349e-002
1.656623e+003;5.783850e-002
1.658551e+003;5.802849e-002
1.660480e+003;5.649524e-002
1.662408e+003;5.481621e-002
1.664337e+003;5.475614e-002
1.666266e+003;5.407433e-002
1.668194e+003;5.125495e-002
1.670123e+003;5.004232e-002
1.672051e+003;5.029254e-002
1.673980e+003;4.837837e-002
1.675908e+003;4.745890e-002
1.677837e+003;4.834792e-002
1.679765e+003;4.733355e-002
1.681694e+003;4.425808e-002
1.683622e+003;3.892038e-002
1.685551e+003;3.919226e-002
1.687479e+003;4.253906e-002
1.689408e+003;4.253124e-002
1.691337e+003;4.181435e-002
1.693265e+003;3.964271e-002
1.695194e+003;3.537246e-002
1.697122e+003;3.470643e-002
1.699051e+003;3.273581e-002
1.700979e+003;3.240477e-002
1.702908e+003;3.585491e-002
1.704836e+003;3.578388e-002
1.706765e+003;3.563941e-002
1.708693e+003;3.595485e-002
1.710622e+003;3.599876e-002
1.712551e+003;3.496126e-002
1.714479e+003;3.301691e-002
1.716408e+003;3.045933e-002
1.718336e+003;3.103698e-002
1.720265e+003;3.432121e-002
1.722193e+003;3.555029e-002
1.724122e+003;3.581226e-002
1.726050e+003;3.661155e-002
1.727979e+003;3.689827e-002
1.729908e+003;3.659324e-002
1.731836e+003;3.442457e-002
1.733765e+003;3.224237e-002
1.735693e+003;3.525867e-002
1.737622e+003;3.687475e-002
1.739550e+003;3.521742e-002
1.741479e+003;3.459099e-002
1.743407e+003;3.353811e-002
1.745336e+003;3.205112e-002
1.747265e+003;2.994280e-002
1.749193e+003;2.732060e-002
1.751122e+003;2.555488e-002
1.753050e+003;2.583632e-002
1.754979e+003;2.498518e-002
1.756907e+003;2.366550e-002
1.758836e+003;2.329921e-002
1.760764e+003;2.208827e-002
1.762693e+003;2.170756e-002
1.764621e+003;2.232146e-002
1.766550e+003;2.135823e-002
1.768479e+003;2.034403e-002
1.770407e+003;1.922049e-002
1.772336e+003;1.795980e-002
1.774264e+003;1.935739e-002
1.776193e+003;2.046923e-002
1.778121e+003;2.047871e-002
1.780050e+003;2.036574e-002
1.781978e+003;2.033778e-002
1.783907e+003;1.991507e-002
1.785835e+003;1.983231e-002
1.787764e+003;2.004725e-002
1.789693e+003;1.914863e-002
1.791621e+003;1.769377e-002
1.793550e+003;1.807080e-002
1.795478e+003;1.940683e-002
1.797407e+003;1.948039e-002
1.799335e+003;1.900835e-002
1.801264e+003;1.889427e-002
1.803192e+003;1.921003e-002
1.805121e+003;1.932922e-002
1.807049e+003;1.931592e-002
1.808978e+003;1.900658e-002
1.810907e+003;1.895971e-002
1.812835e+003;1.922680e-002
1.814764e+003;1.920661e-002
1.816692e+003;1.874700e-002
1.818621e+003;1.852240e-002
1.820549e+003;1.864555e-002
1.822478e+003;1.869698e-002
1.824406e+003;1.808286e-002
1.826335e+003;1.801105e-002
1.828264e+003;1.749165e-002
1.830192e+003;1.703813e-002
1.832121e+003;1.789806e-002
1.834049e+003;1.847959e-002
1.835978e+003;1.829725e-002
1.837906e+003;1.806134e-002
1.839835e+003;1.801975e-002
1.841763e+003;1.722818e-002
1.843692e+003;1.586429e-002
1.845620e+003;1.668027e-002
1.847549e+003;1.762448e-002
1.849478e+003;1.774910e-002
1.851406e+003;1.797265e-002
1.853335e+003;1.781164e-002
1.855263e+003;1.756082e-002
1.857192e+003;1.745253e-002
1.859120e+003;1.735020e-002
1.861049e+003;1.735413e-002
1.862977e+003;1.739648e-002
1.864906e+003;1.718640e-002
1.866834e+003;1.663334e-002
1.868763e+003;1.614237e-002
1.870692e+003;1.668888e-002
1.872620e+003;1.742021e-002
1.874549e+003;1.741297e-002
1.876477e+003;1.717182e-002
1.878406e+003;1.717847e-002
1.880334e+003;1.716058e-002
1.882263e+003;1.677352e-002
1.884191e+003;1.664646e-002
1.886120e+003;1.673216e-002
1.888048e+003;1.653654e-002
1.889977e+003;1.652625e-002
1.891906e+003;1.694547e-002
1.893834e+003;1.666319e-002
1.895763e+003;1.641798e-002
1.897691e+003;1.669866e-002
1.899620e+003;1.692088e-002
1.901548e+003;1.700546e-002
1.903477e+003;1.701900e-002
1.905405e+003;1.669146e-002
1.907334e+003;1.657603e-002
1.909262e+003;1.663975e-002
1.911191e+003;1.682794e-002
1.913120e+003;1.701773e-002
1.915048e+003;1.699495e-002
1.916977e+003;1.637446e-002
1.918905e+003;1.636400e-002
1.920834e+003;1.679140e-002
1.922762e+003;1.675382e-002
1.924691e+003;1.684440e-002
1.926619e+003;1.707014e-002
1.928548e+003;1.721212e-002
1.930477e+003;1.728090e-002
1.932405e+003;1.727279e-002
1.934334e+003;1.722935e-002
1.936262e+003;1.735148e-002
1.938191e+003;1.734020e-002
1.940119e+003;1.698213e-002
1.942048e+003;1.674415e-002
1.943976e+003;1.720446e-002
1.945905e+003;1.747174e-002
1.947833e+003;1.740135e-002
1.949762e+003;1.736576e-002
1.951691e+003;1.736945e-002
1.953619e+003;1.746995e-002
1.955548e+003;1.740249e-002
1.957476e+003;1.746388e-002
1.959405e+003;1.764004e-002
1.961333e+003;1.784292e-002
1.963262e+003;1.787693e-002
1.965190e+003;1.752439e-002
1.967119e+003;1.715610e-002
1.969047e+003;1.734772e-002
1.970976e+003;1.758711e-002
1.972905e+003;1.759270e-002
1.974833e+003;1.760785e-002
1.976762e+003;1.768366e-002
1.978690e+003;1.769098e-002
1.980619e+003;1.760677e-002
1.982547e+003;1.754395e-002
1.984476e+003;1.763359e-002
1.986404e+003;1.771814e-002
1.988333e+003;1.755823e-002
1.990261e+003;1.735889e-002
1.992190e+003;1.744108e-002
1.994119e+003;1.764259e-002
1.996047e+003;1.775476e-002
1.997976e+003;1.766740e-002
1.999904e+003;1.743511e-002
2.001833e+003;1.722783e-002
2.003761e+003;1.724249e-002
2.005690e+003;1.749513e-002
2.007618e+003;1.757017e-002
2.009547e+003;1.763307e-002
2.011476e+003;1.796816e-002
2.013404e+003;1.813215e-002
2.015333e+003;1.802973e-002
2.017261e+003;1.807191e-002
2.019190e+003;1.807084e-002
2.021118e+003;1.808579e-002
2.023047e+003;1.838601e-002
2.024975e+003;1.857655e-002
2.026904e+003;1.853229e-002
2.028833e+003;1.836399e-002
2.030761e+003;1.829431e-002
2.032690e+003;1.825806e-002
2.034618e+003;1.838940e-002
2.036547e+003;1.876544e-002
2.038475e+003;1.901278e-002
2.040404e+003;1.863908e-002
2.042332e+003;1.852935e-002
2.044261e+003;1.859325e-002
2.046189e+003;1.858720e-002
2.048118e+003;1.854740e-002
2.050047e+003;1.855231e-002
2.051975e+003;1.873496e-002
2.053904e+003;1.878212e-002
2.055832e+003;1.874406e-002
2.057761e+003;1.882388e-002
2.059689e+003;1.900361e-002
2.061618e+003;1.889901e-002
2.063546e+003;1.853222e-002
2.065475e+003;1.861694e-002
2.067404e+003;1.863112e-002
2.069332e+003;1.835874e-002
2.071260e+003;1.817023e-002
2.073189e+003;1.816124e-002
2.075118e+003;1.820308e-002
2.077046e+003;1.819092e-002
2.078975e+003;1.840623e-002
2.080903e+003;1.866242e-002
2.082832e+003;1.857102e-002
2.084760e+003;1.850331e-002
2.086689e+003;1.853792e-002
2.088617e+003;1.874268e-002
2.090546e+003;1.888385e-002
2.092475e+003;1.878412e-002
2.094403e+003;1.875790e-002
2.096332e+003;1.869933e-002
2.098260e+003;1.833637e-002
2.100189e+003;1.825930e-002
2.102117e+003;1.857018e-002
2.104046e+003;1.871061e-002
2.105974e+003;1.866920e-002
2.107903e+003;1.867508e-002
2.109832e+003;1.857790e-002
2.111760e+003;1.856109e-002
2.113688e+003;1.873628e-002
2.115617e+003;1.907589e-002
2.117546e+003;1.925146e-002
2.119474e+003;1.908842e-002
2.121403e+003;1.885613e-002
2.123331e+003;1.880696e-002
2.125260e+003;1.885952e-002
2.127188e+003;1.897522e-002
2.129117e+003;1.894023e-002
2.131045e+003;1.895116e-002
2.132974e+003;1.900828e-002
2.134903e+003;1.910601e-002
2.136831e+003;1.915816e-002
2.138760e+003;1.915189e-002
2.140688e+003;1.938001e-002
2.142617e+003;1.933469e-002
2.144545e+003;1.908032e-002
2.146474e+003;1.911796e-002
2.148402e+003;1.923546e-002
2.150331e+003;1.922936e-002
2.152260e+003;1.912862e-002
2.154188e+003;1.896774e-002
2.156117e+003;1.883634e-002
2.158045e+003;1.873420e-002
2.159974e+003;1.888125e-002
2.161902e+003;1.894036e-002
2.163831e+003;1.885302e-002
2.165759e+003;1.885374e-002
2.167688e+003;1.862130e-002
2.169616e+003;1.842770e-002
2.171545e+003;1.836973e-002
2.173474e+003;1.831920e-002
2.175402e+003;1.817199e-002
2.177331e+003;1.806072e-002
2.179259e+003;1.783212e-002
2.181188e+003;1.765495e-002
2.183116e+003;1.755547e-002
2.185045e+003;1.763397e-002
2.186973e+003;1.773961e-002
2.188902e+003;1.774892e-002
2.190831e+003;1.791950e-002
2.192759e+003;1.785273e-002
2.194688e+003;1.751973e-002
2.196616e+003;1.764152e-002
2.198545e+003;1.764949e-002
2.200473e+003;1.736848e-002
2.202402e+003;1.732234e-002
2.204330e+003;1.731479e-002
2.206259e+003;1.721701e-002
2.208188e+003;1.717254e-002
2.210116e+003;1.728545e-002
2.212044e+003;1.756047e-002
2.213973e+003;1.788149e-002
2.215902e+003;1.779518e-002
2.217830e+003;1.763227e-002
2.219759e+003;1.744135e-002
2.221687e+003;1.723539e-002
2.223616e+003;1.732424e-002
2.225544e+003;1.735617e-002
2.227473e+003;1.726921e-002
2.229401e+003;1.708217e-002
2.231330e+003;1.687954e-002
2.233259e+003;1.706804e-002
2.235187e+003;1.723090e-002
2.237116e+003;1.715410e-002
2.239044e+003;1.722342e-002
2.240973e+003;1.718412e-002
2.242901e+003;1.693958e-002
2.244830e+003;1.696639e-002
2.246758e+003;1.705922e-002
2.248687e+003;1.714893e-002
2.250615e+003;1.723587e-002
2.252544e+003;1.718474e-002
2.254473e+003;1.684203e-002
2.256401e+003;1.666887e-002
2.258330e+003;1.665844e-002
2.260258e+003;1.651025e-002
2.262187e+003;1.663224e-002
2.264115e+003;1.676415e-002
2.266044e+003;1.669883e-002
2.267972e+003;1.665800e-002
2.269901e+003;1.659344e-002
2.271830e+003;1.633596e-002
2.273758e+003;1.615764e-002
2.275687e+003;1.631366e-002
2.277615e+003;1.639555e-002
2.279544e+003;1.655282e-002
2.281472e+003;1.675310e-002
2.283401e+003;1.667955e-002
2.285329e+003;1.645394e-002
2.287258e+003;1.647325e-002
2.289187e+003;1.642714e-002
2.291115e+003;1.604771e-002
2.293043e+003;1.593007e-002
2.294972e+003;1.618130e-002
2.296901e+003;1.641296e-002
2.298829e+003;1.624321e-002
2.300758e+003;1.607360e-002
2.302686e+003;1.591169e-002
2.304615e+003;1.574712e-002
2.306543e+003;1.544676e-002
2.308472e+003;1.489770e-002
2.310400e+003;1.452163e-002
2.312329e+003;1.447915e-002
2.314258e+003;1.423644e-002
2.316186e+003;1.349219e-002
2.318115e+003;1.276419e-002
2.320043e+003;1.219408e-002
2.321972e+003;1.182827e-002
2.323900e+003;1.115599e-002
2.325829e+003;1.034627e-002
2.327757e+003;9.871743e-003
2.329686e+003;9.679223e-003
2.331615e+003;9.103733e-003
2.333543e+003;8.891464e-003
2.335472e+003;9.066684e-003
2.337400e+003;9.113343e-003
2.339329e+003;9.272574e-003
2.341257e+003;9.668754e-003
2.343186e+003;1.067358e-002
2.345114e+003;1.195618e-002
2.347043e+003;1.361655e-002
2.348971e+003;1.450217e-002
2.350900e+003;1.342592e-002
2.352829e+003;1.120858e-002
2.354757e+003;9.134051e-003
2.356686e+003;7.615947e-003
2.358614e+003;6.615004e-003
2.360543e+003;6.085893e-003
2.362471e+003;6.304022e-003
2.364400e+003;6.981527e-003
2.366328e+003;8.086464e-003
2.368257e+003;9.526922e-003
2.370186e+003;1.115038e-002
2.372114e+003;1.281575e-002
2.374042e+003;1.429492e-002
2.375971e+003;1.528721e-002
2.377900e+003;1.619668e-002
2.379828e+003;1.704778e-002
2.381757e+003;1.768890e-002
2.383685e+003;1.790545e-002
2.385614e+003;1.809502e-002
2.387542e+003;1.830195e-002
2.389471e+003;1.815644e-002
2.391399e+003;1.815198e-002
2.393328e+003;1.844785e-002
2.395257e+003;1.865388e-002
2.397185e+003;1.861829e-002
2.399114e+003;1.859014e-002
2.401042e+003;1.858713e-002
2.402971e+003;1.872528e-002
2.404899e+003;1.898567e-002
2.406828e+003;1.927789e-002
2.408756e+003;1.952305e-002
2.410685e+003;1.950195e-002
2.412614e+003;1.952475e-002
2.414542e+003;1.961927e-002
2.416471e+003;1.954981e-002
2.418399e+003;1.945353e-002
2.420328e+003;1.960894e-002
2.422256e+003;1.981930e-002
2.424185e+003;2.005804e-002
2.426113e+003;2.023446e-002
2.428042e+003;2.039167e-002
2.429970e+003;2.049118e-002
2.431899e+003;2.041039e-002
2.433828e+003;2.045026e-002
2.435756e+003;2.060245e-002
2.437685e+003;2.063028e-002
2.439613e+003;2.083550e-002
2.441542e+003;2.103001e-002
2.443470e+003;2.128998e-002
2.445399e+003;2.149510e-002
2.447327e+003;2.144605e-002
2.449256e+003;2.142412e-002
2.451185e+003;2.146105e-002
2.453113e+003;2.163787e-002
2.455042e+003;2.191552e-002
2.456970e+003;2.209876e-002
2.458899e+003;2.212230e-002
2.460827e+003;2.187506e-002
2.462756e+003;2.202751e-002
2.464684e+003;2.228975e-002
2.466613e+003;2.224950e-002
2.468542e+003;2.231274e-002
2.470470e+003;2.233928e-002
2.472398e+003;2.231054e-002
2.474327e+003;2.242207e-002
2.476256e+003;2.261481e-002
2.478184e+003;2.274534e-002
2.480113e+003;2.283340e-002
2.482041e+003;2.297720e-002
2.483970e+003;2.310714e-002
2.485898e+003;2.339371e-002
2.487827e+003;2.342928e-002
2.489755e+003;2.323202e-002
2.491684e+003;2.334774e-002
2.493613e+003;2.373723e-002
2.495541e+003;2.386012e-002
2.497470e+003;2.377468e-002
2.499398e+003;2.392240e-002
2.501327e+003;2.379222e-002
2.503255e+003;2.365777e-002
2.505184e+003;2.410778e-002
2.507112e+003;2.442106e-002
2.509041e+003;2.439046e-002
2.510969e+003;2.422268e-002
2.512898e+003;2.420068e-002
2.514827e+003;2.458934e-002
2.516755e+003;2.484292e-002
2.518684e+003;2.496096e-002
2.520612e+003;2.541384e-002
2.522541e+003;2.563523e-002
2.524469e+003;2.536807e-002
2.526398e+003;2.528019e-002
2.528326e+003;2.518850e-002
2.530255e+003;2.512516e-002
2.532184e+003;2.494591e-002
2.534112e+003;2.524441e-002
2.536041e+003;2.581252e-002
2.537969e+003;2.609342e-002
2.539898e+003;2.599350e-002
2.541826e+003;2.584842e-002
2.543755e+003;2.591503e-002
2.545683e+003;2.613276e-002
2.547612e+003;2.632271e-002
2.549541e+003;2.636972e-002
2.551469e+003;2.627364e-002
2.553397e+003;2.632388e-002
2.555326e+003;2.662769e-002
2.557255e+003;2.675929e-002
2.559183e+003;2.661786e-002
2.561112e+003;2.658715e-002
2.563040e+003;2.688448e-002
2.564969e+003;2.719991e-002
2.566897e+003;2.723706e-002
2.568826e+003;2.728976e-002
2.570754e+003;2.732060e-002
2.572683e+003;2.718266e-002
2.574612e+003;2.709385e-002
2.576540e+003;2.718732e-002
2.578469e+003;2.736334e-002
2.580397e+003;2.752510e-002
2.582326e+003;2.765665e-002
2.584254e+003;2.764705e-002
2.586183e+003;2.776013e-002
2.588111e+003;2.779213e-002
2.590040e+003;2.773339e-002
2.591969e+003;2.790628e-002
2.593897e+003;2.828447e-002
2.595826e+003;2.833540e-002
2.597754e+003;2.830682e-002
2.599683e+003;2.835379e-002
2.601611e+003;2.865669e-002
2.603540e+003;2.893310e-002
2.605468e+003;2.916358e-002
2.607397e+003;2.931435e-002
2.609325e+003;2.931439e-002
2.611254e+003;2.927965e-002
2.613183e+003;2.924867e-002
2.615111e+003;2.925934e-002
2.617040e+003;2.963208e-002
2.618968e+003;3.011159e-002
2.620897e+003;3.030163e-002
2.622825e+003;3.039284e-002
2.624754e+003;3.095154e-002
2.626682e+003;3.123547e-002
2.628611e+003;3.099641e-002
2.630540e+003;3.100428e-002
2.632468e+003;3.101492e-002
2.634396e+003;3.112254e-002
2.636325e+003;3.117217e-002
2.638254e+003;3.122799e-002
2.640182e+003;3.147152e-002
2.642111e+003;3.158457e-002
2.644039e+003;3.150707e-002
2.645968e+003;3.169020e-002
2.647896e+003;3.206318e-002
2.649825e+003;3.220604e-002
2.651753e+003;3.235091e-002
2.653682e+003;3.255725e-002
2.655611e+003;3.289612e-002
2.657539e+003;3.330766e-002
2.659468e+003;3.347333e-002
2.661396e+003;3.356800e-002
2.663325e+003;3.374000e-002
2.665253e+003;3.403845e-002
2.667182e+003;3.409651e-002
2.669110e+003;3.440208e-002
2.671039e+003;3.495957e-002
2.672968e+003;3.503388e-002
2.674896e+003;3.492915e-002
2.676825e+003;3.494506e-002
2.678753e+003;3.503187e-002
2.680682e+003;3.496108e-002
2.682610e+003;3.505331e-002
2.684539e+003;3.531121e-002
2.686467e+003;3.556826e-002
2.688396e+003;3.575876e-002
2.690324e+003;3.586584e-002
2.692253e+003;3.615225e-002
2.694182e+003;3.649729e-002
2.696110e+003;3.682072e-002
2.698039e+003;3.709588e-002
2.699967e+003;3.736540e-002
2.701896e+003;3.770494e-002
2.703824e+003;3.782750e-002
2.705753e+003;3.807936e-002
2.707681e+003;3.846351e-002
2.709610e+003;3.856189e-002
2.711539e+003;3.884308e-002
2.713467e+003;3.906587e-002
2.715396e+003;3.920361e-002
2.717324e+003;3.925287e-002
2.719253e+003;3.956216e-002
2.721181e+003;4.002389e-002
2.723110e+003;4.010176e-002
2.725038e+003;4.003580e-002
2.726967e+003;3.995701e-002
2.728896e+003;3.984582e-002
2.730824e+003;4.010107e-002
2.732752e+003;4.047668e-002
2.734681e+003;4.081026e-002
2.736610e+003;4.089391e-002
2.738538e+003;4.082100e-002
2.740467e+003;4.103428e-002
2.742395e+003;4.143286e-002
2.744324e+003;4.127011e-002
2.746252e+003;4.094317e-002
2.748181e+003;4.131537e-002
2.750109e+003;4.185448e-002
2.752038e+003;4.197932e-002
2.753967e+003;4.193815e-002
2.755895e+003;4.188287e-002
2.757824e+003;4.193395e-002
2.759752e+003;4.225236e-002
2.761681e+003;4.262111e-002
2.763609e+003;4.291438e-002
2.765538e+003;4.317308e-002
2.767466e+003;4.305983e-002
2.769395e+003;4.307520e-002
2.771323e+003;4.325324e-002
2.773252e+003;4.367563e-002
2.775181e+003;4.434955e-002
2.777109e+003;4.465244e-002
2.779038e+003;4.508466e-002
2.780966e+003;4.518991e-002
2.782895e+003;4.486522e-002
2.784823e+003;4.536257e-002
2.786752e+003;4.610539e-002
2.788680e+003;4.622604e-002
2.790609e+003;4.623024e-002
2.792538e+003;4.655712e-002
2.794466e+003;4.701439e-002
2.796395e+003;4.756684e-002
2.798323e+003;4.822058e-002
2.800252e+003;4.877264e-002
2.802180e+003;4.921317e-002
2.804109e+003;4.963542e-002
2.806037e+003;4.986270e-002
2.807966e+003;5.026855e-002
2.809895e+003;5.079566e-002
2.811823e+003;5.134895e-002
2.813751e+003;5.182279e-002
2.815680e+003;5.273820e-002
2.817609e+003;5.350148e-002
2.819537e+003;5.411055e-002
2.821466e+003;5.467131e-002
2.823394e+003;5.510624e-002
2.825323e+003;5.597297e-002
2.827251e+003;5.694171e-002
2.829180e+003;5.762581e-002
2.831108e+003;5.870228e-002
2.833037e+003;6.008831e-002
2.834966e+003;6.120569e-002
2.836894e+003;6.251208e-002
2.838823e+003;6.427716e-002
2.840751e+003;6.607345e-002
2.842680e+003;6.817117e-002
2.844608e+003;7.106729e-002
2.846537e+003;7.368224e-002
2.848465e+003;7.605632e-002
2.850394e+003;7.867875e-002
2.852323e+003;8.035026e-002
2.854251e+003;8.121970e-002
2.856180e+003;8.202872e-002
2.858108e+003;8.237040e-002
2.860037e+003;8.283415e-002
2.861965e+003;8.356915e-002
2.863894e+003;8.444063e-002
2.865822e+003;8.538605e-002
2.867751e+003;8.627368e-002
2.869679e+003;8.724769e-002
2.871608e+003;8.767731e-002
2.873536e+003;8.844403e-002
2.875465e+003;8.954516e-002
2.877394e+003;9.010927e-002
2.879322e+003;9.030098e-002
2.881251e+003;9.052226e-002
2.883179e+003;9.084798e-002
2.885108e+003;9.128396e-002
2.887036e+003;9.232937e-002
2.888965e+003;9.311946e-002
2.890893e+003;9.352242e-002
2.892822e+003;9.392708e-002
2.894750e+003;9.424763e-002
2.896679e+003;9.437884e-002
2.898608e+003;9.467220e-002
2.900536e+003;9.459433e-002
2.902465e+003;9.456244e-002
2.904393e+003;9.481166e-002
2.906322e+003;9.474258e-002
2.908250e+003;9.480646e-002
2.910179e+003;9.470117e-002
2.912107e+003;9.436595e-002
2.914036e+003;9.396636e-002
2.915965e+003;9.379247e-002
2.917893e+003;9.405337e-002
2.919822e+003;9.425396e-002
2.921750e+003;9.358490e-002
2.923679e+003;9.247263e-002
2.925607e+003;9.111833e-002
2.927536e+003;8.958779e-002
2.929464e+003;8.795867e-002
2.931393e+003;8.659482e-002
2.933322e+003;8.546556e-002
2.935250e+003;8.405264e-002
2.937178e+003;8.231321e-002
2.939107e+003;8.040708e-002
2.941036e+003;7.908884e-002
2.942964e+003;7.817823e-002
2.944893e+003;7.683802e-002
2.946821e+003;7.567713e-002
2.948750e+003;7.466608e-002
2.950678e+003;7.335968e-002
2.952607e+003;7.180087e-002
2.954535e+003;7.035010e-002
2.956464e+003;6.940030e-002
2.958393e+003;6.823049e-002
2.960321e+003;6.626982e-002
2.962250e+003;6.485938e-002
2.964178e+003;6.391590e-002
2.966107e+003;6.282020e-002
2.968035e+003;6.151294e-002
2.969964e+003;6.014542e-002
2.971892e+003;5.897838e-002
2.973821e+003;5.778180e-002
2.975750e+003;5.638020e-002
2.977678e+003;5.497931e-002
2.979607e+003;5.362300e-002
2.981535e+003;5.237743e-002
2.983464e+003;5.134824e-002
2.985392e+003;5.038816e-002
2.987321e+003;4.974323e-002
2.989249e+003;4.884256e-002
2.991178e+003;4.778853e-002
2.993106e+003;4.713795e-002
2.995035e+003;4.678195e-002
2.996964e+003;4.651316e-002
2.998892e+003;4.670760e-002
3.000821e+003;4.672394e-002
3.002749e+003;4.592787e-002
3.004678e+003;4.567290e-002
3.006606e+003;4.610889e-002
3.008535e+003;4.611751e-002
3.010463e+003;4.587856e-002
3.012392e+003;4.572830e-002
3.014321e+003;4.566230e-002
3.016249e+003;4.565379e-002
3.018177e+003;4.557102e-002
3.020106e+003;4.594481e-002
3.022035e+003;4.652290e-002
3.023963e+003;4.679284e-002
3.025892e+003;4.713086e-002
3.027820e+003;4.766119e-002
3.029749e+003;4.781223e-002
3.031677e+003;4.808783e-002
3.033606e+003;4.837311e-002
3.035534e+003;4.847902e-002
3.037463e+003;4.850632e-002
3.039392e+003;4.867504e-002
3.041320e+003;4.927232e-002
3.043249e+003;4.977429e-002
3.045177e+003;5.032290e-002
3.047106e+003;5.061904e-002
3.049034e+003;5.079916e-002
3.050963e+003;5.105824e-002
3.052891e+003;5.135425e-002
3.054820e+003;5.194582e-002
3.056749e+003;5.247052e-002
3.058677e+003;5.325232e-002
3.060606e+003;5.407414e-002
3.062534e+003;5.420922e-002
3.064463e+003;5.450014e-002
3.066391e+003;5.499807e-002
3.068320e+003;5.522551e-002
3.070248e+003;5.601172e-002
3.072177e+003;5.667868e-002
3.074105e+003;5.720649e-002
3.076034e+003;5.782972e-002
3.077963e+003;5.845505e-002
3.079891e+003;5.890787e-002
3.081820e+003;5.953798e-002
3.083748e+003;6.031857e-002
3.085677e+003;6.057563e-002
3.087605e+003;6.090324e-002
3.089534e+003;6.180863e-002
3.091462e+003;6.238773e-002
3.093391e+003;6.281611e-002
3.095320e+003;6.311898e-002
3.097248e+003;6.356069e-002
3.099177e+003;6.425595e-002
3.101105e+003;6.485315e-002
3.103034e+003;6.516968e-002
3.104962e+003;6.598218e-002
3.106891e+003;6.716130e-002
3.108819e+003;6.792272e-002
3.110748e+003;6.845239e-002
3.112677e+003;6.937394e-002
3.114605e+003;7.023120e-002
3.116533e+003;7.067994e-002
3.118462e+003;7.087115e-002
3.120391e+003;7.112973e-002
3.122319e+003;7.167892e-002
3.124248e+003;7.261876e-002
3.126176e+003;7.319074e-002
3.128105e+003;7.380530e-002
3.130033e+003;7.477214e-002
3.131962e+003;7.528317e-002
3.133890e+003;7.623076e-002
3.135819e+003;7.692622e-002
3.137748e+003;7.769383e-002
3.139676e+003;7.895577e-002
3.141605e+003;7.992488e-002
3.143533e+003;8.042103e-002
3.145462e+003;8.061235e-002
3.147390e+003;8.075432e-002
3.149319e+003;8.180360e-002
3.151247e+003;8.283748e-002
3.153176e+003;8.345605e-002
3.155104e+003;8.414002e-002
3.157033e+003;8.489483e-002
3.158962e+003;8.539601e-002
3.160890e+003;8.584642e-002
3.162819e+003;8.698055e-002
3.164747e+003;8.805322e-002
3.166676e+003;8.904430e-002
3.168604e+003;8.968530e-002
3.170533e+003;8.979444e-002
3.172461e+003;9.091882e-002
3.174390e+003;9.211070e-002
3.176319e+003;9.234449e-002
3.178247e+003;9.286761e-002
3.180176e+003;9.340733e-002
3.182104e+003;9.378766e-002
3.184033e+003;9.488610e-002
3.185961e+003;9.624995e-002
3.187890e+003;9.708624e-002
3.189818e+003;9.739711e-002
3.191747e+003;9.810407e-002
3.193676e+003;9.963537e-002
3.195604e+003;1.004758e-001
3.197532e+003;1.003040e-001
3.199461e+003;1.011688e-001
3.201390e+003;1.026205e-001
3.203318e+003;1.033693e-001
3.205247e+003;1.039127e-001
3.207175e+003;1.044941e-001
3.209104e+003;1.048808e-001
3.211032e+003;1.055888e-001
3.212961e+003;1.069628e-001
3.214889e+003;1.082008e-001
3.216818e+003;1.089055e-001
3.218747e+003;1.096184e-001
3.220675e+003;1.103175e-001
3.222604e+003;1.107471e-001
3.224532e+003;1.118125e-001
3.226461e+003;1.129078e-001
3.228389e+003;1.134762e-001
3.230318e+003;1.143404e-001
3.232246e+003;1.153967e-001
3.234175e+003;1.163933e-001
3.236104e+003;1.174527e-001
3.238032e+003;1.185939e-001
3.239961e+003;1.191425e-001
3.241889e+003;1.192957e-001
3.243818e+003;1.201575e-001
3.245746e+003;1.212602e-001
3.247675e+003;1.224269e-001
3.249603e+003;1.233851e-001
3.251532e+003;1.241940e-001
3.253460e+003;1.254519e-001
3.255389e+003;1.260052e-001
3.257318e+003;1.267108e-001
3.259246e+003;1.276311e-001
3.261175e+003;1.283726e-001
3.263103e+003;1.292013e-001
3.265032e+003;1.297344e-001
3.266960e+003;1.302888e-001
3.268889e+003;1.311281e-001
3.270817e+003;1.316582e-001
3.272746e+003;1.315522e-001
3.274675e+003;1.321288e-001
3.276603e+003;1.330393e-001
3.278531e+003;1.337447e-001
3.280460e+003;1.343505e-001
3.282389e+003;1.346988e-001
3.284317e+003;1.344345e-001
3.286246e+003;1.343831e-001
3.288174e+003;1.346718e-001
3.290103e+003;1.350844e-001
3.292031e+003;1.359870e-001
3.293960e+003;1.362760e-001
3.295888e+003;1.361456e-001
3.297817e+003;1.365615e-001
3.299746e+003;1.368195e-001
3.301674e+003;1.369911e-001
3.303603e+003;1.375811e-001
3.305531e+003;1.381061e-001
3.307460e+003;1.379606e-001
3.309388e+003;1.377053e-001
3.311317e+003;1.379333e-001
3.313245e+003;1.385907e-001
3.315174e+003;1.391462e-001
3.317103e+003;1.394340e-001
3.319031e+003;1.400582e-001
3.320960e+003;1.409632e-001
3.322888e+003;1.417727e-001
3.324817e+003;1.417809e-001
3.326745e+003;1.411167e-001
3.328674e+003;1.405319e-001
3.330602e+003;1.409402e-001
3.332531e+003;1.410747e-001
3.334459e+003;1.405307e-001
3.336388e+003;1.406151e-001
3.338317e+003;1.405610e-001
3.340245e+003;1.400036e-001
3.342174e+003;1.389998e-001
3.344102e+003;1.381417e-001
3.346031e+003;1.379110e-001
3.347959e+003;1.374933e-001
3.349888e+003;1.367727e-001
3.351816e+003;1.363939e-001
3.353745e+003;1.361609e-001
3.355674e+003;1.356149e-001
3.357602e+003;1.352141e-001
3.359531e+003;1.344805e-001
3.361459e+003;1.336805e-001
3.363388e+003;1.337106e-001
3.365316e+003;1.335149e-001
3.367245e+003;1.332035e-001
3.369173e+003;1.327460e-001
3.371102e+003;1.321381e-001
3.373031e+003;1.313147e-001
3.374959e+003;1.310188e-001
3.376887e+003;1.308782e-001
3.378816e+003;1.299371e-001
3.380745e+003;1.290182e-001
3.382673e+003;1.288400e-001
3.384602e+003;1.291037e-001
3.386530e+003;1.291065e-001
3.388459e+003;1.286765e-001
3.390387e+003;1.280861e-001
3.392316e+003;1.274064e-001
3.394244e+003;1.270574e-001
3.396173e+003;1.270541e-001
3.398102e+003;1.264196e-001
3.400030e+003;1.256475e-001
3.401959e+003;1.248104e-001
3.403887e+003;1.239363e-001
3.405816e+003;1.234139e-001
3.407744e+003;1.229865e-001
3.409673e+003;1.227813e-001
3.411601e+003;1.221811e-001
3.413530e+003;1.211327e-001
3.415458e+003;1.199628e-001
3.417387e+003;1.190307e-001
3.419316e+003;1.181352e-001
3.421244e+003;1.174987e-001
3.423173e+003;1.171647e-001
3.425101e+003;1.166882e-001
3.427030e+003;1.163001e-001
3.428958e+003;1.157525e-001
3.430887e+003;1.146299e-001
3.432815e+003;1.135703e-001
3.434744e+003;1.126637e-001
3.436673e+003;1.119663e-001
3.438601e+003;1.112003e-001
3.440530e+003;1.104608e-001
3.442458e+003;1.099068e-001
3.444387e+003;1.095980e-001
3.446315e+003;1.089720e-001
3.448244e+003;1.078630e-001
3.450172e+003;1.067907e-001
3.452101e+003;1.058880e-001
3.454030e+003;1.054891e-001
3.455958e+003;1.046478e-001
3.457886e+003;1.036841e-001
3.459815e+003;1.032515e-001
3.461744e+003;1.026629e-001
3.463672e+003;1.016569e-001
3.465601e+003;1.003958e-001
3.467529e+003;9.959553e-002
3.469458e+003;9.873298e-002
3.471386e+003;9.751443e-002
3.473315e+003;9.657561e-002
3.475243e+003;9.594589e-002
3.477172e+003;9.481215e-002
3.479101e+003;9.313034e-002
3.481029e+003;9.242970e-002
3.482958e+003;9.221623e-002
3.484886e+003;9.140279e-002
3.486815e+003;9.026505e-002
3.488743e+003;8.907423e-002
3.490672e+003;8.790313e-002
3.492600e+003;8.669056e-002
3.494529e+003;8.592112e-002
3.496458e+003;8.502293e-002
3.498386e+003;8.404375e-002
3.500315e+003;8.322760e-002
3.502243e+003;8.193859e-002
3.504172e+003;8.103087e-002
3.506100e+003;8.018851e-002
3.508029e+003;7.898919e-002
3.509957e+003;7.823365e-002
3.511886e+003;7.766775e-002
3.513814e+003;7.708292e-002
3.515743e+003;7.595871e-002
3.517672e+003;7.478112e-002
3.519600e+003;7.377259e-002
3.521529e+003;7.250997e-002
3.523457e+003;7.139795e-002
3.525386e+003;7.086854e-002
3.527314e+003;7.016169e-002
3.529243e+003;6.887844e-002
3.531171e+003;6.768176e-002
3.533100e+003;6.643496e-002
3.535029e+003;6.520129e-002
3.536957e+003;6.451608e-002
3.538885e+003;6.421139e-002
3.540814e+003;6.335619e-002
3.542743e+003;6.164905e-002
3.544671e+003;6.061540e-002
3.546600e+003;5.997831e-002
3.548528e+003;5.854440e-002
3.550457e+003;5.713207e-002
3.552385e+003;5.597176e-002
3.554314e+003;5.485789e-002
3.556242e+003;5.390830e-002
3.558171e+003;5.321314e-002
3.560100e+003;5.239306e-002
3.562028e+003;5.124559e-002
3.563957e+003;4.955337e-002
3.565885e+003;4.720661e-002
3.567814e+003;4.598245e-002
3.569742e+003;4.607242e-002
3.571671e+003;4.560705e-002
3.573599e+003;4.476361e-002
3.575528e+003;4.429301e-002
3.577457e+003;4.370711e-002
3.579385e+003;4.262681e-002
3.581314e+003;4.134029e-002
3.583242e+003;4.019490e-002
3.585171e+003;3.828402e-002
3.587099e+003;3.634469e-002
3.589028e+003;3.615570e-002
3.590956e+003;3.616679e-002
3.592885e+003;3.502156e-002
3.594813e+003;3.416410e-002
3.596742e+003;3.359858e-002
3.598671e+003;3.232092e-002
3.600599e+003;3.065212e-002
3.602528e+003;2.966458e-002
3.604456e+003;2.930662e-002
3.606385e+003;2.901319e-002
3.608313e+003;2.750511e-002
3.610242e+003;2.632310e-002
3.612170e+003;2.548552e-002
3.614099e+003;2.499013e-002
3.616028e+003;2.421364e-002
3.617956e+003;2.213356e-002
3.619885e+003;2.164065e-002
3.621813e+003;2.238770e-002
3.623742e+003;2.140027e-002
3.625670e+003;1.901669e-002
3.627599e+003;1.553724e-002
3.629527e+003;1.553755e-002
3.631456e+003;1.791916e-002
3.633385e+003;1.856725e-002
3.635313e+003;1.867612e-002
3.637241e+003;1.780602e-002
3.639170e+003;1.745453e-002
3.641099e+003;1.720177e-002
3.643027e+003;1.585824e-002
3.644956e+003;1.406206e-002
3.646884e+003;1.163461e-002
3.648813e+003;9.859778e-003
3.650741e+003;1.133491e-002
3.652670e+003;1.286098e-002
3.654598e+003;1.156808e-002
3.656527e+003;1.126047e-002
3.658456e+003;1.260105e-002
3.660384e+003;1.279784e-002
3.662313e+003;1.214395e-002
3.664241e+003;1.148656e-002
3.666170e+003;1.035679e-002
3.668098e+003;8.226982e-003
3.670027e+003;6.703056e-003
3.671955e+003;7.811434e-003
3.673884e+003;6.464042e-003
3.675813e+003;5.685748e-003
3.677741e+003;8.299218e-003
3.679669e+003;9.959373e-003
3.681598e+003;1.055447e-002
3.683527e+003;9.909030e-003
3.685455e+003;8.403691e-003
3.687384e+003;5.446857e-003
3.689312e+003;5.228018e-003
3.691241e+003;7.460895e-003
3.693169e+003;8.763680e-003
3.695098e+003;9.078898e-003
3.697026e+003;9.006331e-003
3.698955e+003;8.488592e-003
3.700884e+003;7.806947e-003
3.702812e+003;8.132207e-003
3.704741e+003;8.362513e-003
3.706669e+003;7.572956e-003
3.708598e+003;6.153505e-003
3.710526e+003;4.897485e-003
3.712455e+003;5.586491e-003
3.714383e+003;7.242016e-003
3.716312e+003;7.538735e-003
3.718240e+003;7.678435e-003
3.720169e+003;7.737222e-003
3.722098e+003;7.657594e-003
3.724026e+003;7.427863e-003
3.725955e+003;6.898300e-003
3.727883e+003;6.979035e-003
3.729812e+003;6.468112e-003
3.731740e+003;4.960522e-003
3.733669e+003;4.037504e-003
3.735597e+003;3.390720e-003
3.737526e+003;5.058630e-003
3.739455e+003;6.428900e-003
3.741383e+003;5.374995e-003
3.743312e+003;1.033885e-003
3.745240e+003;4.995841e-004
3.747169e+003;2.207957e-003
3.749097e+003;9.607563e-004
3.751026e+003;1.471089e-003
3.752954e+003;4.514771e-003
3.754883e+003;7.017051e-003
3.756812e+003;6.390363e-003
3.758740e+003;6.179181e-003
3.760668e+003;7.269307e-003
3.762597e+003;7.262771e-003
3.764526e+003;6.094798e-003
3.766454e+003;6.189903e-003
3.768383e+003;6.139458e-003
3.770311e+003;6.732702e-003
3.772240e+003;7.711959e-003
3.774168e+003;7.211864e-003
3.776097e+003;6.465623e-003
3.778025e+003;5.998840e-003
3.779954e+003;6.443965e-003
3.781883e+003;7.787819e-003
3.783811e+003;7.925407e-003
3.785740e+003;7.862647e-003
3.787668e+003;7.603875e-003
3.789597e+003;7.851749e-003
3.791525e+003;8.058616e-003
3.793454e+003;7.304888e-003
3.795382e+003;6.155521e-003
3.797311e+003;6.290172e-003
3.799240e+003;5.302372e-003
3.801168e+003;3.911674e-003
3.803097e+003;6.039223e-003
3.805025e+003;6.355025e-003
3.806954e+003;5.399317e-003
3.808882e+003;6.259144e-003
3.810811e+003;6.690437e-003
3.812739e+003;7.051871e-003
3.814668e+003;5.125579e-003
3.816596e+003;4.551601e-003
3.818525e+003;5.532088e-003
3.820454e+003;4.458662e-003
3.822382e+003;5.212089e-003
3.824311e+003;6.199582e-003
3.826239e+003;6.512877e-003
3.828168e+003;7.681808e-003
3.830096e+003;7.193571e-003
3.832025e+003;5.729325e-003
3.833953e+003;5.303646e-003
3.835882e+003;4.268292e-003
3.837811e+003;3.345040e-003
3.839739e+003;4.755863e-003
3.841667e+003;6.077157e-003
3.843596e+003;7.479233e-003
3.845525e+003;8.657429e-003
3.847453e+003;8.409873e-003
3.849382e+003;6.513415e-003
3.851310e+003;2.408020e-003
3.853239e+003;-4.389698e-004
3.855167e+003;3.854005e-003
3.857096e+003;8.043966e-003
3.859024e+003;8.364236e-003
3.860953e+003;7.350414e-003
3.862882e+003;6.159420e-003
3.864810e+003;6.297971e-003
3.866739e+003;7.596053e-003
3.868667e+003;5.946872e-003
3.870596e+003;5.982446e-003
3.872524e+003;7.696344e-003
3.874453e+003;8.173362e-003
3.876381e+003;8.401867e-003
3.878310e+003;7.301957e-003
3.880239e+003;7.509708e-003
3.882167e+003;8.305702e-003
3.884096e+003;6.952167e-003
3.886024e+003;6.908264e-003
3.887953e+003;7.820137e-003
3.889881e+003;7.446502e-003
3.891810e+003;7.502730e-003
3.893738e+003;8.343463e-003
3.895667e+003;7.808262e-003
3.897595e+003;6.436500e-003
3.899524e+003;5.738087e-003
3.901453e+003;6.134652e-003
3.903381e+003;6.732029e-003
3.905310e+003;7.804990e-003
3.907238e+003;9.465286e-003
3.909167e+003;9.958085e-003
3.911095e+003;9.541994e-003
3.913024e+003;8.965976e-003
3.914952e+003;7.858092e-003
3.916881e+003;7.053285e-003
3.918810e+003;7.603471e-003
3.920738e+003;8.552963e-003
3.922667e+003;8.854096e-003
3.924595e+003;8.842902e-003
3.926524e+003;9.038266e-003
3.928452e+003;8.614741e-003
3.930381e+003;8.015344e-003
3.932309e+003;7.975790e-003
3.934238e+003;9.164405e-003
3.936167e+003;9.867506e-003
3.938095e+003;9.219603e-003
3.940023e+003;9.066008e-003
3.941952e+003;9.067057e-003
3.943881e+003;8.553706e-003
3.945809e+003;9.106508e-003
3.947738e+003;9.583318e-003
3.949666e+003;9.718019e-003
3.951595e+003;1.059857e-002
3.953523e+003;1.062838e-002
3.955452e+003;9.946117e-003
3.957380e+003;9.559268e-003
3.959309e+003;9.784470e-003
3.961238e+003;1.010341e-002
3.963166e+003;1.057979e-002
3.965095e+003;1.048376e-002
3.967023e+003;9.839950e-003
3.968952e+003;9.822359e-003
3.970880e+003;9.826935e-003
3.972809e+003;9.842696e-003
3.974737e+003;9.791892e-003
3.976666e+003;9.590262e-003
3.978594e+003;9.895301e-003
3.980523e+003;1.023431e-002
3.982452e+003;1.024968e-002
3.984380e+003;1.079938e-002
3.986309e+003;1.117091e-002
3.988237e+003;1.080617e-002
3.990166e+003;1.008029e-002
3.992094e+003;1.023075e-002
3.994023e+003;1.039955e-002
3.995951e+003;1.083549e-002
3.997880e+003;1.133001e-002
3.999809e+003;1.168035e-002
4.001737e+003;0.000000e+000
