3.992094e+002;0.000000e+000
4.011380e+002;0.000000e+000
4.030665e+002;0.000000e+000
4.049951e+002;0.000000e+000
4.069236e+002;0.000000e+000
4.088522e+002;0.000000e+000
4.107807e+002;0.000000e+000
4.127093e+002;0.000000e+000
4.146378e+002;0.000000e+000
4.165664e+002;0.000000e+000
4.184949e+002;0.000000e+000
4.204235e+002;0.000000e+000
4.223520e+002;0.000000e+000
4.242806e+002;0.000000e+000
4.262091e+002;0.000000e+000
4.281377e+002;0.000000e+000
4.300662e+002;0.000000e+000
4.319948e+002;0.000000e+000
4.339233e+002;0.000000e+000
4.358519e+002;0.000000e+000
4.377804e+002;0.000000e+000
4.397090e+002;0.000000e+000
4.416375e+002;0.000000e+000
4.435660e+002;0.000000e+000
4.454946e+002;0.000000e+000
4.474232e+002;0.000000e+000
4.493517e+002;0.000000e+000
4.512802e+002;0.000000e+000
4.532088e+002;0.000000e+000
4.551373e+002;0.000000e+000
4.570659e+002;0.000000e+000
4.589944e+002;0.000000e+000
4.609230e+002;0.000000e+000
4.628515e+002;0.000000e+000
4.647801e+002;0.000000e+000
4.667086e+002;0.000000e+000
4.686372e+002;0.000000e+000
4.705657e+002;0.000000e+000
4.724943e+002;0.000000e+000
4.744228e+002;0.000000e+000
4.763513e+002;0.000000e+000
4.782799e+002;0.000000e+000
4.802085e+002;0.000000e+000
4.821370e+002;0.000000e+000
4.840656e+002;0.000000e+000
4.859941e+002;0.000000e+000
4.879226e+002;0.000000e+000
4.898512e+002;0.000000e+000
4.917798e+002;0.000000e+000
4.937083e+002;0.000000e+000
4.956368e+002;0.000000e+000
4.975654e+002;0.000000e+000
4.994939e+002;0.000000e+000
5.014225e+002;0.000000e+000
5.033510e+002;0.000000e+000
5.052796e+002;0.000000e+000
5.072081e+002;0.000000e+000
5.091367e+002;0.000000e+000
5.110652e+002;0.000000e+000
5.129938e+002;0.000000e+000
5.149223e+002;0.000000e+000
5.168509e+002;0.000000e+000
5.187794e+002;0.000000e+000
5.207079e+002;0.000000e+000
5.226365e+002;0.000000e+000
5.245651e+002;0.000000e+000
5.264936e+002;0.000000e+000
5.284222e+002;0.000000e+000
5.303507e+002;0.000000e+000
5.322792e+002;0.000000e+000
5.342078e+002;0.000000e+000
5.361364e+002;0.000000e+000
5.380649e+002;0.000000e+000
5.399935e+002;0.000000e+000
5.419220e+002;0.000000e+000
5.438505e+002;0.000000e+000
5.457791e+002;0.000000e+000
5.477076e+002;0.000000e+000
5.496362e+002;0.000000e+000
5.515648e+002;0.000000e+000
5.534933e+002;0.000000e+000
5.554218e+002;0.000000e+000
5.573504e+002;0.000000e+000
5.592789e+002;0.000000e+000
5.612075e+002;0.000000e+000
5.631360e+002;0.000000e+000
5.650646e+002;0.000000e+000
5.669931e+002;0.000000e+000
5.689217e+002;0.000000e+000
5.708502e+002;0.000000e+000
5.727787e+002;0.000000e+000
5.747073e+002;0.000000e+000
5.766359e+002;0.000000e+000
5.785644e+002;0.000000e+000
5.804930e+002;0.000000e+000
5.824215e+002;0.000000e+000
5.843500e+002;0.000000e+000
5.862786e+002;0.000000e+000
5.882072e+002;0.000000e+000
5.901357e+002;0.000000e+000
5.920643e+002;0.000000e+000
5.939928e+002;0.000000e+000
5.959213e+002;0.000000e+000
5.978499e+002;0.000000e+000
5.997784e+002;3.146106e-001
6.017070e+002;3.147025e-001
6.036355e+002;3.062301e-001
6.055641e+002;3.175463e-001
6.074926e+002;3.311289e-001
6.094211e+002;3.304676e-001
6.113497e+002;3.296390e-001
6.132783e+002;3.288150e-001
6.152068e+002;3.264952e-001
6.171354e+002;3.252280e-001
6.190639e+002;3.195843e-001
6.209924e+002;3.095958e-001
6.229210e+002;3.016503e-001
6.248495e+002;3.010052e-001
6.267781e+002;2.990177e-001
6.287067e+002;2.937161e-001
6.306352e+002;2.904756e-001
6.325637e+002;2.925549e-001
6.344923e+002;2.943053e-001
6.364208e+002;2.891107e-001
6.383494e+002;2.837051e-001
6.402780e+002;2.843688e-001
6.422065e+002;2.799411e-001
6.441350e+002;2.721400e-001
6.460636e+002;2.723161e-001
6.479921e+002;2.759363e-001
6.499207e+002;2.750632e-001
6.518492e+002;2.734372e-001
6.537778e+002;2.759918e-001
6.557063e+002;2.845981e-001
6.576349e+002;2.923449e-001
6.595634e+002;2.960933e-001
6.614919e+002;2.987333e-001
6.634205e+002;2.999185e-001
6.653491e+002;2.962725e-001
6.672776e+002;2.931975e-001
6.692062e+002;2.920455e-001
6.711347e+002;2.869698e-001
6.730632e+002;2.791386e-001
6.749918e+002;2.711908e-001
6.769203e+002;2.625891e-001
6.788489e+002;2.557997e-001
6.807775e+002;2.517829e-001
6.827060e+002;2.473694e-001
6.846345e+002;2.427477e-001
6.865631e+002;2.414693e-001
6.884916e+002;2.416558e-001
6.904202e+002;2.412834e-001
6.923488e+002;2.400727e-001
6.942773e+002;2.385530e-001
6.962058e+002;2.380949e-001
6.981344e+002;2.376991e-001
7.000629e+002;2.363480e-001
7.019915e+002;2.342909e-001
7.039200e+002;2.341551e-001
7.058486e+002;2.337665e-001
7.077771e+002;2.312161e-001
7.097057e+002;2.280831e-001
7.116342e+002;2.250371e-001
7.135627e+002;2.233102e-001
7.154913e+002;2.207469e-001
7.174199e+002;2.161759e-001
7.193484e+002;2.117766e-001
7.212770e+002;2.068094e-001
7.232055e+002;2.013198e-001
7.251340e+002;1.970462e-001
7.270626e+002;1.919944e-001
7.289911e+002;1.873276e-001
7.309197e+002;1.837522e-001
7.328483e+002;1.798109e-001
7.347768e+002;1.751668e-001
7.367053e+002;1.714122e-001
7.386339e+002;1.687039e-001
7.405624e+002;1.667094e-001
7.424910e+002;1.653934e-001
7.444196e+002;1.636730e-001
7.463481e+002;1.611841e-001
7.482766e+002;1.593453e-001
7.502052e+002;1.573647e-001
7.521337e+002;1.553496e-001
7.540623e+002;1.536461e-001
7.559908e+002;1.520934e-001
7.579194e+002;1.500067e-001
7.598479e+002;1.472092e-001
7.617765e+002;1.452399e-001
7.637050e+002;1.441738e-001
7.656335e+002;1.428743e-001
7.675621e+002;1.407706e-001
7.694907e+002;1.387895e-001
7.714192e+002;1.377293e-001
7.733478e+002;1.367775e-001
7.752763e+002;1.356000e-001
7.772048e+002;1.345651e-001
7.791334e+002;1.333046e-001
7.810620e+002;1.321309e-001
7.829905e+002;1.315410e-001
7.849191e+002;1.311427e-001
7.868476e+002;1.306385e-001
7.887761e+002;1.304902e-001
7.907047e+002;1.307168e-001
7.926332e+002;1.303702e-001
7.945618e+002;1.292437e-001
7.964903e+002;1.284626e-001
7.984189e+002;1.290058e-001
8.003474e+002;1.295035e-001
8.022759e+002;1.290696e-001
8.042045e+002;1.294934e-001
8.061331e+002;1.293532e-001
8.080616e+002;1.284956e-001
8.099902e+002;1.276307e-001
8.119187e+002;1.264736e-001
8.138472e+002;1.261101e-001
8.157758e+002;1.255756e-001
8.177043e+002;1.243842e-001
8.196329e+002;1.232292e-001
8.215615e+002;1.230183e-001
8.234900e+002;1.228574e-001
8.254185e+002;1.221965e-001
8.273471e+002;1.212251e-001
8.292756e+002;1.199956e-001
8.312042e+002;1.191510e-001
8.331328e+002;1.188941e-001
8.350613e+002;1.183879e-001
8.369898e+002;1.168535e-001
8.389184e+002;1.160106e-001
8.408469e+002;1.161922e-001
8.427755e+002;1.157423e-001
8.447040e+002;1.152298e-001
8.466326e+002;1.155662e-001
8.485611e+002;1.153257e-001
8.504897e+002;1.148309e-001
8.524182e+002;1.154067e-001
8.543467e+002;1.166702e-001
8.562753e+002;1.173177e-001
8.582039e+002;1.177606e-001
8.601324e+002;1.185685e-001
8.620610e+002;1.195140e-001
8.639895e+002;1.206905e-001
8.659180e+002;1.226992e-001
8.678466e+002;1.247923e-001
8.697751e+002;1.268209e-001
8.717037e+002;1.294502e-001
8.736323e+002;1.331089e-001
8.755608e+002;1.369738e-001
8.774893e+002;1.406036e-001
8.794179e+002;1.444880e-001
8.813464e+002;1.494395e-001
8.832750e+002;1.545473e-001
8.852036e+002;1.599263e-001
8.871321e+002;1.657254e-001
8.890606e+002;1.712928e-001
8.909892e+002;1.763811e-001
8.929177e+002;1.810573e-001
8.948463e+002;1.845446e-001
8.967748e+002;1.864465e-001
8.987034e+002;1.876750e-001
9.006319e+002;1.879110e-001
9.025605e+002;1.866010e-001
9.044890e+002;1.846028e-001
9.064175e+002;1.821640e-001
9.083461e+002;1.793885e-001
9.102747e+002;1.768834e-001
9.122032e+002;1.742719e-001
9.141318e+002;1.714135e-001
9.160603e+002;1.688140e-001
9.179888e+002;1.672862e-001
9.199174e+002;1.668642e-001
9.218459e+002;1.667378e-001
9.237745e+002;1.676311e-001
9.257031e+002;1.695914e-001
9.276316e+002;1.715142e-001
9.295601e+002;1.735308e-001
9.314887e+002;1.757978e-001
9.334172e+002;1.779907e-001
9.353458e+002;1.803203e-001
9.372744e+002;1.824714e-001
9.392029e+002;1.844445e-001
9.411314e+002;1.872197e-001
9.430600e+002;1.907429e-001
9.449885e+002;1.945763e-001
9.469171e+002;1.987276e-001
9.488456e+002;2.038549e-001
9.507742e+002;2.092801e-001
9.527027e+002;2.153026e-001
9.546313e+002;2.226215e-001
9.565598e+002;2.302863e-001
9.584883e+002;2.380056e-001
9.604169e+002;2.465479e-001
9.623455e+002;2.559733e-001
9.642740e+002;2.649805e-001
9.662026e+002;2.744475e-001
9.681311e+002;2.853579e-001
9.700596e+002;2.977238e-001
9.719882e+002;3.122394e-001
9.739167e+002;3.293870e-001
9.758453e+002;3.493685e-001
9.777739e+002;3.723288e-001
9.797024e+002;3.976684e-001
9.816309e+002;4.221916e-001
9.835595e+002;4.422559e-001
9.854880e+002;4.549461e-001
9.874166e+002;4.610714e-001
9.893452e+002;4.649733e-001
9.912737e+002;4.698999e-001
9.932022e+002;4.772098e-001
9.951307e+002;4.871412e-001
9.970593e+002;4.967744e-001
9.989879e+002;5.052389e-001
1.000916e+003;5.108083e-001
1.002845e+003;5.137820e-001
1.004773e+003;5.161743e-001
1.006702e+003;5.190555e-001
1.008631e+003;5.225512e-001
1.010559e+003;5.273314e-001
1.012488e+003;5.323745e-001
1.014416e+003;5.378850e-001
1.016345e+003;5.432250e-001
1.018273e+003;5.492645e-001
1.020202e+003;5.560201e-001
1.022130e+003;5.624644e-001
1.024059e+003;5.699168e-001
1.025988e+003;5.770305e-001
1.027916e+003;5.826567e-001
1.029845e+003;5.865763e-001
1.031773e+003;5.876422e-001
1.033702e+003;5.852801e-001
1.035630e+003;5.775368e-001
1.037559e+003;5.647506e-001
1.039487e+003;5.508510e-001
1.041416e+003;5.397002e-001
1.043344e+003;5.322592e-001
1.045273e+003;5.301299e-001
1.047202e+003;5.326809e-001
1.049130e+003;5.390012e-001
1.051059e+003;5.454406e-001
1.052987e+003;5.492449e-001
1.054916e+003;5.492299e-001
1.056844e+003;5.437450e-001
1.058773e+003;5.322468e-001
1.060701e+003;5.150469e-001
1.062630e+003;4.914087e-001
1.064558e+003;4.644261e-001
1.066487e+003;4.376626e-001
1.068416e+003;4.136759e-001
1.070344e+003;3.951424e-001
1.072273e+003;3.808683e-001
1.074201e+003;3.694131e-001
1.076130e+003;3.599347e-001
1.078058e+003;3.515155e-001
1.079987e+003;3.435336e-001
1.081915e+003;3.370964e-001
1.083844e+003;3.328426e-001
1.085773e+003;3.302642e-001
1.087701e+003;3.291104e-001
1.089630e+003;3.290785e-001
1.091558e+003;3.298872e-001
1.093487e+003;3.305775e-001
1.095415e+003;3.321539e-001
1.097344e+003;3.348254e-001
1.099272e+003;3.368238e-001
1.101201e+003;3.382227e-001
1.103129e+003;3.398387e-001
1.105058e+003;3.400272e-001
1.106987e+003;3.384576e-001
1.108915e+003;3.349943e-001
1.110844e+003;3.303687e-001
1.112772e+003;3.248418e-001
1.114701e+003;3.159519e-001
1.116629e+003;3.035043e-001
1.118558e+003;2.886487e-001
1.120486e+003;2.741789e-001
1.122415e+003;2.625594e-001
1.124344e+003;2.523251e-001
1.126272e+003;2.417634e-001
1.128201e+003;2.308369e-001
1.130129e+003;2.207318e-001
1.132058e+003;2.124622e-001
1.133986e+003;2.057075e-001
1.135915e+003;2.000006e-001
1.137843e+003;1.957555e-001
1.139772e+003;1.932850e-001
1.141700e+003;1.927164e-001
1.143629e+003;1.940832e-001
1.145557e+003;1.964674e-001
1.147486e+003;1.992133e-001
1.149415e+003;2.020255e-001
1.151343e+003;2.040144e-001
1.153272e+003;2.058421e-001
1.155200e+003;2.079748e-001
1.157129e+003;2.100406e-001
1.159057e+003;2.116044e-001
1.160986e+003;2.118531e-001
1.162914e+003;2.097418e-001
1.164843e+003;2.043621e-001
1.166771e+003;1.956470e-001
1.168700e+003;1.849647e-001
1.170629e+003;1.740474e-001
1.172557e+003;1.638269e-001
1.174486e+003;1.544583e-001
1.176414e+003;1.463739e-001
1.178343e+003;1.399166e-001
1.180271e+003;1.350536e-001
1.182200e+003;1.316226e-001
1.184128e+003;1.289837e-001
1.186057e+003;1.274102e-001
1.187986e+003;1.275992e-001
1.189914e+003;1.288742e-001
1.191843e+003;1.306951e-001
1.193771e+003;1.333648e-001
1.195700e+003;1.366976e-001
1.197628e+003;1.399108e-001
1.199557e+003;1.425285e-001
1.201485e+003;1.445200e-001
1.203414e+003;1.455106e-001
1.205343e+003;1.455647e-001
1.207271e+003;1.441192e-001
1.209200e+003;1.404095e-001
1.211128e+003;1.345802e-001
1.213057e+003;1.290229e-001
1.214985e+003;1.257920e-001
1.216914e+003;1.251085e-001
1.218842e+003;1.257664e-001
1.220771e+003;1.271847e-001
1.222699e+003;1.291502e-001
1.224628e+003;1.317871e-001
1.226557e+003;1.347818e-001
1.228485e+003;1.375481e-001
1.230414e+003;1.401334e-001
1.232342e+003;1.428468e-001
1.234271e+003;1.449639e-001
1.236199e+003;1.459915e-001
1.238128e+003;1.462368e-001
1.240056e+003;1.462264e-001
1.241985e+003;1.466409e-001
1.243913e+003;1.480620e-001
1.245842e+003;1.500850e-001
1.247771e+003;1.516824e-001
1.249699e+003;1.523416e-001
1.251628e+003;1.527143e-001
1.253556e+003;1.531469e-001
1.255485e+003;1.534836e-001
1.257413e+003;1.540343e-001
1.259342e+003;1.548267e-001
1.261270e+003;1.553704e-001
1.263199e+003;1.553439e-001
1.265127e+003;1.549934e-001
1.267056e+003;1.547019e-001
1.268985e+003;1.548965e-001
1.270913e+003;1.558172e-001
1.272842e+003;1.571267e-001
1.274770e+003;1.584906e-001
1.276699e+003;1.596270e-001
1.278627e+003;1.601296e-001
1.280556e+003;1.594781e-001
1.282484e+003;1.579404e-001
1.284413e+003;1.563850e-001
1.286342e+003;1.552388e-001
1.288270e+003;1.546824e-001
1.290199e+003;1.547260e-001
1.292127e+003;1.551720e-001
1.294056e+003;1.558666e-001
1.295984e+003;1.572211e-001
1.297913e+003;1.593442e-001
1.299841e+003;1.623495e-001
1.301770e+003;1.664090e-001
1.303698e+003;1.713810e-001
1.305627e+003;1.768595e-001
1.307556e+003;1.829188e-001
1.309484e+003;1.892841e-001
1.311413e+003;1.950455e-001
1.313341e+003;1.997225e-001
1.315270e+003;2.023314e-001
1.317198e+003;2.019150e-001
1.319127e+003;1.988459e-001
1.321055e+003;1.943351e-001
1.322984e+003;1.897594e-001
1.324912e+003;1.857216e-001
1.326841e+003;1.826068e-001
1.328770e+003;1.812173e-001
1.330698e+003;1.816615e-001
1.332627e+003;1.831390e-001
1.334555e+003;1.847587e-001
1.336484e+003;1.853226e-001
1.338412e+003;1.838725e-001
1.340341e+003;1.813776e-001
1.342269e+003;1.784521e-001
1.344198e+003;1.748322e-001
1.346126e+003;1.711469e-001
1.348055e+003;1.682218e-001
1.349984e+003;1.668072e-001
1.351912e+003;1.670810e-001
1.353841e+003;1.685539e-001
1.355769e+003;1.704861e-001
1.357698e+003;1.720129e-001
1.359626e+003;1.730159e-001
1.361555e+003;1.728420e-001
1.363483e+003;1.715675e-001
1.365412e+003;1.701934e-001
1.367341e+003;1.692480e-001
1.369269e+003;1.687220e-001
1.371198e+003;1.673146e-001
1.373126e+003;1.644645e-001
1.375055e+003;1.605309e-001
1.376983e+003;1.563197e-001
1.378912e+003;1.519140e-001
1.380840e+003;1.473737e-001
1.382769e+003;1.432303e-001
1.384698e+003;1.397869e-001
1.386626e+003;1.363081e-001
1.388555e+003;1.336191e-001
1.390483e+003;1.320639e-001
1.392412e+003;1.307661e-001
1.394340e+003;1.298215e-001
1.396269e+003;1.297021e-001
1.398197e+003;1.298693e-001
1.400126e+003;1.305561e-001
1.402054e+003;1.312790e-001
1.403983e+003;1.315003e-001
1.405911e+003;1.320447e-001
1.407840e+003;1.328023e-001
1.409769e+003;1.335074e-001
1.411697e+003;1.343251e-001
1.413626e+003;1.354686e-001
1.415554e+003;1.367337e-001
1.417483e+003;1.377360e-001
1.419411e+003;1.396907e-001
1.421340e+003;1.431827e-001
1.423268e+003;1.457956e-001
1.425197e+003;1.475776e-001
1.427125e+003;1.489215e-001
1.429054e+003;1.494635e-001
1.430983e+003;1.490164e-001
1.432911e+003;1.474514e-001
1.434840e+003;1.446470e-001
1.436768e+003;1.414633e-001
1.438697e+003;1.393582e-001
1.440625e+003;1.374792e-001
1.442554e+003;1.357772e-001
1.444482e+003;1.344431e-001
1.446411e+003;1.335126e-001
1.448340e+003;1.330812e-001
1.450268e+003;1.330145e-001
1.452197e+003;1.325414e-001
1.454125e+003;1.312648e-001
1.456054e+003;1.284696e-001
1.457982e+003;1.269177e-001
1.459911e+003;1.266874e-001
1.461839e+003;1.250044e-001
1.463768e+003;1.219794e-001
1.465697e+003;1.187195e-001
1.467625e+003;1.158063e-001
1.469554e+003;1.127515e-001
1.471482e+003;1.090361e-001
1.473411e+003;1.055283e-001
1.475339e+003;1.027272e-001
1.477268e+003;1.001880e-001
1.479196e+003;9.806187e-002
1.481125e+003;9.578880e-002
1.483053e+003;9.277767e-002
1.484982e+003;8.880092e-002
1.486911e+003;8.444855e-002
1.488839e+003;8.032519e-002
1.490768e+003;7.746394e-002
1.492696e+003;7.579042e-002
1.494625e+003;7.347275e-002
1.496553e+003;7.126730e-002
1.498482e+003;7.051407e-002
1.500410e+003;7.017041e-002
1.502339e+003;6.958236e-002
1.504267e+003;6.750669e-002
1.506196e+003;6.516872e-002
1.508125e+003;6.563114e-002
1.510053e+003;6.681889e-002
1.511982e+003;6.699190e-002
1.513910e+003;6.698328e-002
1.515839e+003;6.658071e-002
1.517767e+003;6.605219e-002
1.519696e+003;6.491524e-002
1.521624e+003;6.437487e-002
1.523553e+003;6.547381e-002
1.525481e+003;6.607507e-002
1.527410e+003;6.678770e-002
1.529339e+003;6.766569e-002
1.531267e+003;6.798506e-002
1.533196e+003;6.794976e-002
1.535124e+003;6.889521e-002
1.537053e+003;6.889149e-002
1.538981e+003;6.747608e-002
1.540910e+003;6.791547e-002
1.542838e+003;6.922784e-002
1.544767e+003;7.009794e-002
1.546695e+003;7.115139e-002
1.548624e+003;7.127128e-002
1.550553e+003;7.082618e-002
1.552481e+003;7.034285e-002
1.554410e+003;6.959060e-002
1.556338e+003;6.843963e-002
1.558267e+003;6.623497e-002
1.560195e+003;6.668586e-002
1.562124e+003;6.906618e-002
1.564052e+003;7.007018e-002
1.565981e+003;7.052580e-002
1.567910e+003;7.044127e-002
1.569838e+003;7.029411e-002
1.571767e+003;7.122080e-002
1.573695e+003;7.128721e-002
1.575624e+003;7.014607e-002
1.577552e+003;7.080714e-002
1.579481e+003;7.208046e-002
1.581409e+003;7.223371e-002
1.583338e+003;7.192571e-002
1.585266e+003;7.165501e-002
1.587195e+003;7.163305e-002
1.589124e+003;7.172485e-002
1.591052e+003;7.188278e-002
1.592981e+003;7.198241e-002
1.594909e+003;7.206325e-002
1.596838e+003;7.210108e-002
1.598766e+003;7.223496e-002
1.600695e+003;7.242560e-002
1.602623e+003;7.286686e-002
1.604552e+003;7.341939e-002
1.606480e+003;7.396548e-002
1.608409e+003;7.440677e-002
1.610338e+003;7.494800e-002
1.612266e+003;7.545525e-002
1.614195e+003;7.539053e-002
1.616123e+003;7.473429e-002
1.618052e+003;7.582565e-002
1.619980e+003;7.720679e-002
1.621909e+003;7.725611e-002
1.623837e+003;7.752027e-002
1.625766e+003;7.803358e-002
1.627694e+003;7.840849e-002
1.629623e+003;7.906105e-002
1.631552e+003;7.954774e-002
1.633480e+003;7.908443e-002
1.635409e+003;7.831804e-002
1.637337e+003;7.953446e-002
1.639266e+003;8.078149e-002
1.641194e+003;8.078217e-002
1.643123e+003;8.032244e-002
1.645051e+003;7.921427e-002
1.646980e+003;7.879819e-002
1.648909e+003;7.943542e-002
1.650837e+003;7.786278e-002
1.652766e+003;7.523033e-002
1.654694e+003;7.656246e-002
1.656623e+003;7.814936e-002
1.658551e+003;7.773948e-002
1.660480e+003;7.663195e-002
1.662408e+003;7.522127e-002
1.664337e+003;7.439470e-002
1.666266e+003;7.346208e-002
1.668194e+003;7.168189e-002
1.670123e+003;7.062829e-002
1.672051e+003;7.020733e-002
1.673980e+003;6.888566e-002
1.675908e+003;6.796789e-002
1.677837e+003;6.762035e-002
1.679765e+003;6.644022e-002
1.681694e+003;6.457090e-002
1.683622e+003;6.189979e-002
1.685551e+003;6.150920e-002
1.687479e+003;6.216922e-002
1.689408e+003;6.123434e-002
1.691337e+003;6.024777e-002
1.693265e+003;5.904199e-002
1.695194e+003;5.711019e-002
1.697122e+003;5.640830e-002
1.699051e+003;5.515165e-002
1.700979e+003;5.483628e-002
1.702908e+003;5.597214e-002
1.704836e+003;5.557283e-002
1.706765e+003;5.514717e-002
1.708693e+003;5.486365e-002
1.710622e+003;5.468917e-002
1.712551e+003;5.402559e-002
1.714479e+003;5.290614e-002
1.716408e+003;5.169028e-002
1.718336e+003;5.168587e-002
1.720265e+003;5.275526e-002
1.722193e+003;5.309189e-002
1.724122e+003;5.294091e-002
1.726050e+003;5.299747e-002
1.727979e+003;5.304666e-002
1.729908e+003;5.308410e-002
1.731836e+003;5.203123e-002
1.733765e+003;5.084099e-002
1.735693e+003;5.177680e-002
1.737622e+003;5.192748e-002
1.739550e+003;5.055441e-002
1.741479e+003;4.964809e-002
1.743407e+003;4.851254e-002
1.745336e+003;4.681978e-002
1.747265e+003;4.481585e-002
1.749193e+003;4.292503e-002
1.751122e+003;4.171596e-002
1.753050e+003;4.136551e-002
1.754979e+003;4.034450e-002
1.756907e+003;3.904046e-002
1.758836e+003;3.838333e-002
1.760764e+003;3.777657e-002
1.762693e+003;3.724231e-002
1.764621e+003;3.705759e-002
1.766550e+003;3.627920e-002
1.768479e+003;3.546442e-002
1.770407e+003;3.480615e-002
1.772336e+003;3.406074e-002
1.774264e+003;3.434179e-002
1.776193e+003;3.463864e-002
1.778121e+003;3.445943e-002
1.780050e+003;3.425653e-002
1.781978e+003;3.404662e-002
1.783907e+003;3.369392e-002
1.785835e+003;3.347147e-002
1.787764e+003;3.344288e-002
1.789693e+003;3.295120e-002
1.791621e+003;3.199616e-002
1.793550e+003;3.186003e-002
1.795478e+003;3.224936e-002
1.797407e+003;3.214270e-002
1.799335e+003;3.181215e-002
1.801264e+003;3.169655e-002
1.803192e+003;3.163746e-002
1.805121e+003;3.145161e-002
1.807049e+003;3.148599e-002
1.808978e+003;3.129671e-002
1.810907e+003;3.108634e-002
1.812835e+003;3.114127e-002
1.814764e+003;3.109887e-002
1.816692e+003;3.093009e-002
1.818621e+003;3.060682e-002
1.820549e+003;3.047195e-002
1.822478e+003;3.044906e-002
1.824406e+003;3.011486e-002
1.826335e+003;3.006263e-002
1.828264e+003;2.984593e-002
1.830192e+003;2.949344e-002
1.832121e+003;2.973795e-002
1.834049e+003;2.981083e-002
1.835978e+003;2.960828e-002
1.837906e+003;2.947698e-002
1.839835e+003;2.938174e-002
1.841763e+003;2.892602e-002
1.843692e+003;2.826343e-002
1.845620e+003;2.859957e-002
1.847549e+003;2.887353e-002
1.849478e+003;2.873584e-002
1.851406e+003;2.864933e-002
1.853335e+003;2.833197e-002
1.855263e+003;2.820385e-002
1.857192e+003;2.831258e-002
1.859120e+003;2.810168e-002
1.861049e+003;2.791359e-002
1.862977e+003;2.791197e-002
1.864906e+003;2.775473e-002
1.866834e+003;2.746579e-002
1.868763e+003;2.725353e-002
1.870692e+003;2.753629e-002
1.872620e+003;2.794253e-002
1.874549e+003;2.788780e-002
1.876477e+003;2.772075e-002
1.878406e+003;2.771202e-002
1.880334e+003;2.760771e-002
1.882263e+003;2.740699e-002
1.884191e+003;2.738688e-002
1.886120e+003;2.742150e-002
1.888048e+003;2.745993e-002
1.889977e+003;2.761124e-002
1.891906e+003;2.777836e-002
1.893834e+003;2.763818e-002
1.895763e+003;2.733673e-002
1.897691e+003;2.730748e-002
1.899620e+003;2.751737e-002
1.901548e+003;2.761265e-002
1.903477e+003;2.759768e-002
1.905405e+003;2.746353e-002
1.907334e+003;2.744253e-002
1.909262e+003;2.746209e-002
1.911191e+003;2.747080e-002
1.913120e+003;2.754914e-002
1.915048e+003;2.762819e-002
1.916977e+003;2.754688e-002
1.918905e+003;2.766018e-002
1.920834e+003;2.790486e-002
1.922762e+003;2.776038e-002
1.924691e+003;2.776331e-002
1.926619e+003;2.804208e-002
1.928548e+003;2.813873e-002
1.930477e+003;2.816969e-002
1.932405e+003;2.834887e-002
1.934334e+003;2.843398e-002
1.936262e+003;2.860576e-002
1.938191e+003;2.864724e-002
1.940119e+003;2.852002e-002
1.942048e+003;2.842641e-002
1.943976e+003;2.873623e-002
1.945905e+003;2.888990e-002
1.947833e+003;2.888621e-002
1.949762e+003;2.902650e-002
1.951691e+003;2.916376e-002
1.953619e+003;2.938908e-002
1.955548e+003;2.956589e-002
1.957476e+003;2.954333e-002
1.959405e+003;2.954007e-002
1.961333e+003;2.962335e-002
1.963262e+003;2.956366e-002
1.965190e+003;2.955433e-002
1.967119e+003;2.944659e-002
1.969047e+003;2.953550e-002
1.970976e+003;2.972642e-002
1.972905e+003;2.976736e-002
1.974833e+003;2.981712e-002
1.976762e+003;2.996232e-002
1.978690e+003;2.994667e-002
1.980619e+003;2.983387e-002
1.982547e+003;2.984820e-002
1.984476e+003;3.022976e-002
1.986404e+003;3.046687e-002
1.988333e+003;3.035251e-002
1.990261e+003;3.036687e-002
1.992190e+003;3.051599e-002
1.994119e+003;3.073512e-002
1.996047e+003;3.078366e-002
1.997976e+003;3.069369e-002
1.999904e+003;3.065699e-002
2.001833e+003;3.057404e-002
2.003761e+003;3.064501e-002
2.005690e+003;3.082165e-002
2.007618e+003;3.088551e-002
2.009547e+003;3.100844e-002
2.011476e+003;3.122404e-002
2.013404e+003;3.117295e-002
2.015333e+003;3.116555e-002
2.017261e+003;3.136808e-002
2.019190e+003;3.157709e-002
2.021118e+003;3.180855e-002
2.023047e+003;3.202744e-002
2.024975e+003;3.219697e-002
2.026904e+003;3.215680e-002
2.028833e+003;3.223348e-002
2.030761e+003;3.249229e-002
2.032690e+003;3.273610e-002
2.034618e+003;3.283786e-002
2.036547e+003;3.314978e-002
2.038475e+003;3.353314e-002
2.040404e+003;3.324949e-002
2.042332e+003;3.287575e-002
2.044261e+003;3.288139e-002
2.046189e+003;3.311699e-002
2.048118e+003;3.328827e-002
2.050047e+003;3.320739e-002
2.051975e+003;3.296675e-002
2.053904e+003;3.280606e-002
2.055832e+003;3.278408e-002
2.057761e+003;3.309049e-002
2.059689e+003;3.332147e-002
2.061618e+003;3.315360e-002
2.063546e+003;3.299377e-002
2.065475e+003;3.298387e-002
2.067404e+003;3.286406e-002
2.069332e+003;3.282096e-002
2.071260e+003;3.279798e-002
2.073189e+003;3.270913e-002
2.075118e+003;3.267497e-002
2.077046e+003;3.267901e-002
2.078975e+003;3.271716e-002
2.080903e+003;3.268990e-002
2.082832e+003;3.246258e-002
2.084760e+003;3.258442e-002
2.086689e+003;3.283490e-002
2.088617e+003;3.279613e-002
2.090546e+003;3.277036e-002
2.092475e+003;3.272349e-002
2.094403e+003;3.256110e-002
2.096332e+003;3.248343e-002
2.098260e+003;3.259375e-002
2.100189e+003;3.270737e-002
2.102117e+003;3.278062e-002
2.104046e+003;3.289844e-002
2.105974e+003;3.284837e-002
2.107903e+003;3.283926e-002
2.109832e+003;3.260528e-002
2.111760e+003;3.265043e-002
2.113688e+003;3.306814e-002
2.115617e+003;3.344195e-002
2.117546e+003;3.352405e-002
2.119474e+003;3.344144e-002
2.121403e+003;3.333882e-002
2.123331e+003;3.329235e-002
2.125260e+003;3.336823e-002
2.127188e+003;3.338974e-002
2.129117e+003;3.345193e-002
2.131045e+003;3.363513e-002
2.132974e+003;3.371852e-002
2.134903e+003;3.382460e-002
2.136831e+003;3.385114e-002
2.138760e+003;3.359406e-002
2.140688e+003;3.352813e-002
2.142617e+003;3.371193e-002
2.144545e+003;3.352229e-002
2.146474e+003;3.321609e-002
2.148402e+003;3.328491e-002
2.150331e+003;3.341046e-002
2.152260e+003;3.327231e-002
2.154188e+003;3.295681e-002
2.156117e+003;3.268140e-002
2.158045e+003;3.269762e-002
2.159974e+003;3.291184e-002
2.161902e+003;3.263286e-002
2.163831e+003;3.219787e-002
2.165759e+003;3.215455e-002
2.167688e+003;3.192693e-002
2.169616e+003;3.164344e-002
2.171545e+003;3.150113e-002
2.173474e+003;3.124946e-002
2.175402e+003;3.099570e-002
2.177331e+003;3.101734e-002
2.179259e+003;3.070898e-002
2.181188e+003;3.020429e-002
2.183116e+003;3.027768e-002
2.185045e+003;3.045045e-002
2.186973e+003;3.022802e-002
2.188902e+003;2.970353e-002
2.190831e+003;2.961119e-002
2.192759e+003;2.964900e-002
2.194688e+003;2.954060e-002
2.196616e+003;2.933878e-002
2.198545e+003;2.907050e-002
2.200473e+003;2.900724e-002
2.202402e+003;2.913205e-002
2.204330e+003;2.902183e-002
2.206259e+003;2.877786e-002
2.208188e+003;2.881961e-002
2.210116e+003;2.881918e-002
2.212044e+003;2.894769e-002
2.213973e+003;2.927717e-002
2.215902e+003;2.915480e-002
2.217830e+003;2.895818e-002
2.219759e+003;2.894840e-002
2.221687e+003;2.887074e-002
2.223616e+003;2.910526e-002
2.225544e+003;2.921858e-002
2.227473e+003;2.903958e-002
2.229401e+003;2.898949e-002
2.231330e+003;2.896923e-002
2.233259e+003;2.909615e-002
2.235187e+003;2.915292e-002
2.237116e+003;2.909605e-002
2.239044e+003;2.908790e-002
2.240973e+003;2.906027e-002
2.242901e+003;2.894387e-002
2.244830e+003;2.901669e-002
2.246758e+003;2.897904e-002
2.248687e+003;2.880456e-002
2.250615e+003;2.879748e-002
2.252544e+003;2.879981e-002
2.254473e+003;2.852756e-002
2.256401e+003;2.829593e-002
2.258330e+003;2.832447e-002
2.260258e+003;2.828422e-002
2.262187e+003;2.802084e-002
2.264115e+003;2.791645e-002
2.266044e+003;2.805908e-002
2.267972e+003;2.816595e-002
2.269901e+003;2.788579e-002
2.271830e+003;2.745372e-002
2.273758e+003;2.723871e-002
2.275687e+003;2.718456e-002
2.277615e+003;2.703813e-002
2.279544e+003;2.707480e-002
2.281472e+003;2.741726e-002
2.283401e+003;2.754907e-002
2.285329e+003;2.729396e-002
2.287258e+003;2.708912e-002
2.289187e+003;2.692777e-002
2.291115e+003;2.664348e-002
2.293043e+003;2.670718e-002
2.294972e+003;2.711903e-002
2.296901e+003;2.718340e-002
2.298829e+003;2.679778e-002
2.300758e+003;2.653783e-002
2.302686e+003;2.638324e-002
2.304615e+003;2.627026e-002
2.306543e+003;2.610464e-002
2.308472e+003;2.571773e-002
2.310400e+003;2.527271e-002
2.312329e+003;2.514669e-002
2.314258e+003;2.501249e-002
2.316186e+003;2.436901e-002
2.318115e+003;2.361309e-002
2.320043e+003;2.324981e-002
2.321972e+003;2.307982e-002
2.323900e+003;2.245103e-002
2.325829e+003;2.162209e-002
2.327757e+003;2.118320e-002
2.329686e+003;2.101484e-002
2.331615e+003;2.051845e-002
2.333543e+003;2.016490e-002
2.335472e+003;2.017417e-002
2.337400e+003;2.028969e-002
2.339329e+003;2.058497e-002
2.341257e+003;2.122787e-002
2.343186e+003;2.242549e-002
2.345114e+003;2.413069e-002
2.347043e+003;2.555485e-002
2.348971e+003;2.589699e-002
2.350900e+003;2.484419e-002
2.352829e+003;2.299030e-002
2.354757e+003;2.127004e-002
2.356686e+003;2.014369e-002
2.358614e+003;1.927958e-002
2.360543e+003;1.883648e-002
2.362471e+003;1.898796e-002
2.364400e+003;1.965016e-002
2.366328e+003;2.090556e-002
2.368257e+003;2.221271e-002
2.370186e+003;2.360749e-002
2.372114e+003;2.538335e-002
2.374042e+003;2.700305e-002
2.375971e+003;2.820194e-002
2.377900e+003;2.925661e-002
2.379828e+003;2.995494e-002
2.381757e+003;3.029321e-002
2.383685e+003;3.051546e-002
2.385614e+003;3.094386e-002
2.387542e+003;3.136983e-002
2.389471e+003;3.113450e-002
2.391399e+003;3.109695e-002
2.393328e+003;3.178142e-002
2.395257e+003;3.234687e-002
2.397185e+003;3.230054e-002
2.399114e+003;3.228705e-002
2.401042e+003;3.236229e-002
2.402971e+003;3.260239e-002
2.404899e+003;3.291667e-002
2.406828e+003;3.310808e-002
2.408756e+003;3.337245e-002
2.410685e+003;3.357910e-002
2.412614e+003;3.365979e-002
2.414542e+003;3.367734e-002
2.416471e+003;3.369822e-002
2.418399e+003;3.384831e-002
2.420328e+003;3.405593e-002
2.422256e+003;3.452117e-002
2.424185e+003;3.512174e-002
2.426113e+003;3.538195e-002
2.428042e+003;3.548538e-002
2.429970e+003;3.567998e-002
2.431899e+003;3.563401e-002
2.433828e+003;3.563160e-002
2.435756e+003;3.588773e-002
2.437685e+003;3.610486e-002
2.439613e+003;3.640591e-002
2.441542e+003;3.684070e-002
2.443470e+003;3.713175e-002
2.445399e+003;3.740187e-002
2.447327e+003;3.767238e-002
2.449256e+003;3.794034e-002
2.451185e+003;3.796656e-002
2.453113e+003;3.804550e-002
2.455042e+003;3.824248e-002
2.456970e+003;3.846072e-002
2.458899e+003;3.873910e-002
2.460827e+003;3.891193e-002
2.462756e+003;3.921141e-002
2.464684e+003;3.931090e-002
2.466613e+003;3.929566e-002
2.468542e+003;3.941734e-002
2.470470e+003;3.962841e-002
2.472398e+003;3.979178e-002
2.474327e+003;4.007472e-002
2.476256e+003;4.042111e-002
2.478184e+003;4.047577e-002
2.480113e+003;4.051360e-002
2.482041e+003;4.122041e-002
2.483970e+003;4.174967e-002
2.485898e+003;4.184335e-002
2.487827e+003;4.170582e-002
2.489755e+003;4.180847e-002
2.491684e+003;4.206797e-002
2.493613e+003;4.230769e-002
2.495541e+003;4.243840e-002
2.497470e+003;4.253979e-002
2.499398e+003;4.283356e-002
2.501327e+003;4.305654e-002
2.503255e+003;4.306686e-002
2.505184e+003;4.325426e-002
2.507112e+003;4.356880e-002
2.509041e+003;4.385946e-002
2.510969e+003;4.387665e-002
2.512898e+003;4.408993e-002
2.514827e+003;4.476262e-002
2.516755e+003;4.513928e-002
2.518684e+003;4.526933e-002
2.520612e+003;4.559689e-002
2.522541e+003;4.575101e-002
2.524469e+003;4.562074e-002
2.526398e+003;4.602323e-002
2.528326e+003;4.635641e-002
2.530255e+003;4.621277e-002
2.532184e+003;4.601804e-002
2.534112e+003;4.614788e-002
2.536041e+003;4.648491e-002
2.537969e+003;4.695022e-002
2.539898e+003;4.721005e-002
2.541826e+003;4.717344e-002
2.543755e+003;4.715553e-002
2.545683e+003;4.745476e-002
2.547612e+003;4.783639e-002
2.549541e+003;4.782718e-002
2.551469e+003;4.776064e-002
2.553397e+003;4.794416e-002
2.555326e+003;4.823246e-002
2.557255e+003;4.828797e-002
2.559183e+003;4.829912e-002
2.561112e+003;4.854374e-002
2.563040e+003;4.867848e-002
2.564969e+003;4.870313e-002
2.566897e+003;4.887163e-002
2.568826e+003;4.915992e-002
2.570754e+003;4.930198e-002
2.572683e+003;4.923888e-002
2.574612e+003;4.905073e-002
2.576540e+003;4.910282e-002
2.578469e+003;4.934188e-002
2.580397e+003;4.962034e-002
2.582326e+003;4.982461e-002
2.584254e+003;4.982810e-002
2.586183e+003;4.996183e-002
2.588111e+003;5.007995e-002
2.590040e+003;5.008389e-002
2.591969e+003;5.021893e-002
2.593897e+003;5.032818e-002
2.595826e+003;5.037804e-002
2.597754e+003;5.084933e-002
2.599683e+003;5.132434e-002
2.601611e+003;5.162258e-002
2.603540e+003;5.205940e-002
2.605468e+003;5.235000e-002
2.607397e+003;5.218735e-002
2.609325e+003;5.212675e-002
2.611254e+003;5.249651e-002
2.613183e+003;5.281269e-002
2.615111e+003;5.279455e-002
2.617040e+003;5.291243e-002
2.618968e+003;5.326146e-002
2.620897e+003;5.352277e-002
2.622825e+003;5.366949e-002
2.624754e+003;5.422905e-002
2.626682e+003;5.478824e-002
2.628611e+003;5.483722e-002
2.630540e+003;5.489324e-002
2.632468e+003;5.505238e-002
2.634396e+003;5.526844e-002
2.636325e+003;5.556560e-002
2.638254e+003;5.586553e-002
2.640182e+003;5.609055e-002
2.642111e+003;5.628336e-002
2.644039e+003;5.628015e-002
2.645968e+003;5.644355e-002
2.647896e+003;5.712523e-002
2.649825e+003;5.759463e-002
2.651753e+003;5.781015e-002
2.653682e+003;5.786897e-002
2.655611e+003;5.795185e-002
2.657539e+003;5.826294e-002
2.659468e+003;5.864232e-002
2.661396e+003;5.887216e-002
2.663325e+003;5.914298e-002
2.665253e+003;5.959484e-002
2.667182e+003;6.005204e-002
2.669110e+003;6.053666e-002
2.671039e+003;6.076057e-002
2.672968e+003;6.060595e-002
2.674896e+003;6.095608e-002
2.676825e+003;6.145850e-002
2.678753e+003;6.152527e-002
2.680682e+003;6.145052e-002
2.682610e+003;6.163046e-002
2.684539e+003;6.207269e-002
2.686467e+003;6.258421e-002
2.688396e+003;6.302090e-002
2.690324e+003;6.345661e-002
2.692253e+003;6.392534e-002
2.694182e+003;6.427893e-002
2.696110e+003;6.461015e-002
2.698039e+003;6.480737e-002
2.699967e+003;6.485957e-002
2.701896e+003;6.532385e-002
2.703824e+003;6.574685e-002
2.705753e+003;6.612152e-002
2.707681e+003;6.668504e-002
2.709610e+003;6.732780e-002
2.711539e+003;6.788405e-002
2.713467e+003;6.795739e-002
2.715396e+003;6.811764e-002
2.717324e+003;6.842927e-002
2.719253e+003;6.869312e-002
2.721181e+003;6.904855e-002
2.723110e+003;6.926585e-002
2.725038e+003;6.934922e-002
2.726967e+003;6.941811e-002
2.728896e+003;6.948871e-002
2.730824e+003;6.973819e-002
2.732752e+003;7.019506e-002
2.734681e+003;7.064641e-002
2.736610e+003;7.095242e-002
2.738538e+003;7.082251e-002
2.740467e+003;7.085063e-002
2.742395e+003;7.118981e-002
2.744324e+003;7.115569e-002
2.746252e+003;7.086573e-002
2.748181e+003;7.084911e-002
2.750109e+003;7.124758e-002
2.752038e+003;7.138339e-002
2.753967e+003;7.140436e-002
2.755895e+003;7.148252e-002
2.757824e+003;7.157717e-002
2.759752e+003;7.212889e-002
2.761681e+003;7.255763e-002
2.763609e+003;7.274351e-002
2.765538e+003;7.301509e-002
2.767466e+003;7.318109e-002
2.769395e+003;7.333872e-002
2.771323e+003;7.356216e-002
2.773252e+003;7.400233e-002
2.775181e+003;7.461395e-002
2.777109e+003;7.495520e-002
2.779038e+003;7.534496e-002
2.780966e+003;7.558279e-002
2.782895e+003;7.565563e-002
2.784823e+003;7.603489e-002
2.786752e+003;7.663776e-002
2.788680e+003;7.695968e-002
2.790609e+003;7.711960e-002
2.792538e+003;7.778557e-002
2.794466e+003;7.854851e-002
2.796395e+003;7.902508e-002
2.798323e+003;7.937387e-002
2.800252e+003;7.992113e-002
2.802180e+003;8.063055e-002
2.804109e+003;8.101142e-002
2.806037e+003;8.129589e-002
2.807966e+003;8.224121e-002
2.809895e+003;8.345686e-002
2.811823e+003;8.430635e-002
2.813751e+003;8.501249e-002
2.815680e+003;8.589212e-002
2.817609e+003;8.680001e-002
2.819537e+003;8.787619e-002
2.821466e+003;8.870976e-002
2.823394e+003;8.944210e-002
2.825323e+003;9.056344e-002
2.827251e+003;9.131095e-002
2.829180e+003;9.208870e-002
2.831108e+003;9.371874e-002
2.833037e+003;9.538546e-002
2.834966e+003;9.688938e-002
2.836894e+003;9.850295e-002
2.838823e+003;1.004580e-001
2.840751e+003;1.029622e-001
2.842680e+003;1.054644e-001
2.844608e+003;1.083142e-001
2.846537e+003;1.113005e-001
2.848465e+003;1.142766e-001
2.850394e+003;1.173217e-001
2.852323e+003;1.193348e-001
2.854251e+003;1.203535e-001
2.856180e+003;1.209110e-001
2.858108e+003;1.215716e-001
2.860037e+003;1.226130e-001
2.861965e+003;1.234291e-001
2.863894e+003;1.241990e-001
2.865822e+003;1.250491e-001
2.867751e+003;1.258948e-001
2.869679e+003;1.269697e-001
2.871608e+003;1.280481e-001
2.873536e+003;1.288035e-001
2.875465e+003;1.295116e-001
2.877394e+003;1.299467e-001
2.879322e+003;1.300115e-001
2.881251e+003;1.302619e-001
2.883179e+003;1.308576e-001
2.885108e+003;1.317798e-001
2.887036e+003;1.327189e-001
2.888965e+003;1.336815e-001
2.890893e+003;1.347855e-001
2.892822e+003;1.356480e-001
2.894750e+003;1.360828e-001
2.896679e+003;1.362643e-001
2.898608e+003;1.367710e-001
2.900536e+003;1.370340e-001
2.902465e+003;1.367043e-001
2.904393e+003;1.360192e-001
2.906322e+003;1.355802e-001
2.908250e+003;1.353533e-001
2.910179e+003;1.345679e-001
2.912107e+003;1.332320e-001
2.914036e+003;1.317190e-001
2.915965e+003;1.309635e-001
2.917893e+003;1.305631e-001
2.919822e+003;1.294790e-001
2.921750e+003;1.278432e-001
2.923679e+003;1.261511e-001
2.925607e+003;1.243360e-001
2.927536e+003;1.223637e-001
2.929464e+003;1.198456e-001
2.931393e+003;1.177406e-001
2.933322e+003;1.158514e-001
2.935250e+003;1.142191e-001
2.937178e+003;1.131344e-001
2.939107e+003;1.119364e-001
2.941036e+003;1.110390e-001
2.942964e+003;1.099598e-001
2.944893e+003;1.083592e-001
2.946821e+003;1.069421e-001
2.948750e+003;1.053973e-001
2.950678e+003;1.036070e-001
2.952607e+003;1.018621e-001
2.954535e+003;9.982809e-002
2.956464e+003;9.804978e-002
2.958393e+003;9.657557e-002
2.960321e+003;9.464817e-002
2.962250e+003;9.303300e-002
2.964178e+003;9.209358e-002
2.966107e+003;9.132408e-002
2.968035e+003;9.043946e-002
2.969964e+003;8.955615e-002
2.971892e+003;8.834177e-002
2.973821e+003;8.656392e-002
2.975750e+003;8.475788e-002
2.977678e+003;8.273733e-002
2.979607e+003;8.056297e-002
2.981535e+003;7.912943e-002
2.983464e+003;7.813666e-002
2.985392e+003;7.692080e-002
2.987321e+003;7.565898e-002
2.989249e+003;7.458460e-002
2.991178e+003;7.397899e-002
2.993106e+003;7.325169e-002
2.995035e+003;7.266149e-002
2.996964e+003;7.223719e-002
2.998892e+003;7.200552e-002
3.000821e+003;7.186025e-002
3.002749e+003;7.164391e-002
3.004678e+003;7.143408e-002
3.006606e+003;7.151291e-002
3.008535e+003;7.177319e-002
3.010463e+003;7.185771e-002
3.012392e+003;7.145310e-002
3.014321e+003;7.124988e-002
3.016249e+003;7.181686e-002
3.018177e+003;7.235643e-002
3.020106e+003;7.267638e-002
3.022035e+003;7.279342e-002
3.023963e+003;7.292811e-002
3.025892e+003;7.319736e-002
3.027820e+003;7.373890e-002
3.029749e+003;7.458873e-002
3.031677e+003;7.500057e-002
3.033606e+003;7.508232e-002
3.035534e+003;7.533050e-002
3.037463e+003;7.576805e-002
3.039392e+003;7.630881e-002
3.041320e+003;7.674466e-002
3.043249e+003;7.710148e-002
3.045177e+003;7.775351e-002
3.047106e+003;7.841929e-002
3.049034e+003;7.894615e-002
3.050963e+003;7.953613e-002
3.052891e+003;8.009060e-002
3.054820e+003;8.047447e-002
3.056749e+003;8.067902e-002
3.058677e+003;8.113785e-002
3.060606e+003;8.194564e-002
3.062534e+003;8.275938e-002
3.064463e+003;8.355433e-002
3.066391e+003;8.410813e-002
3.068320e+003;8.453429e-002
3.070248e+003;8.514977e-002
3.072177e+003;8.582231e-002
3.074105e+003;8.636705e-002
3.076034e+003;8.667062e-002
3.077963e+003;8.732345e-002
3.079891e+003;8.831878e-002
3.081820e+003;8.912069e-002
3.083748e+003;8.981938e-002
3.085677e+003;9.048520e-002
3.087605e+003;9.128973e-002
3.089534e+003;9.212556e-002
3.091462e+003;9.291689e-002
3.093391e+003;9.309010e-002
3.095320e+003;9.328019e-002
3.097248e+003;9.400182e-002
3.099177e+003;9.482303e-002
3.101105e+003;9.585039e-002
3.103034e+003;9.693536e-002
3.104962e+003;9.758510e-002
3.106891e+003;9.840935e-002
3.108819e+003;9.936767e-002
3.110748e+003;1.000658e-001
3.112677e+003;1.008782e-001
3.114605e+003;1.014464e-001
3.116533e+003;1.020803e-001
3.118462e+003;1.029228e-001
3.120391e+003;1.036262e-001
3.122319e+003;1.041338e-001
3.124248e+003;1.047695e-001
3.126176e+003;1.054870e-001
3.128105e+003;1.064215e-001
3.130033e+003;1.070827e-001
3.131962e+003;1.076579e-001
3.133890e+003;1.087711e-001
3.135819e+003;1.095050e-001
3.137748e+003;1.101414e-001
3.139676e+003;1.109986e-001
3.141605e+003;1.116657e-001
3.143533e+003;1.128951e-001
3.145462e+003;1.139492e-001
3.147390e+003;1.143502e-001
3.149319e+003;1.155573e-001
3.151247e+003;1.170219e-001
3.153176e+003;1.176626e-001
3.155104e+003;1.183319e-001
3.157033e+003;1.190864e-001
3.158962e+003;1.197287e-001
3.160890e+003;1.204820e-001
3.162819e+003;1.214669e-001
3.164747e+003;1.226829e-001
3.166676e+003;1.237797e-001
3.168604e+003;1.242469e-001
3.170533e+003;1.249466e-001
3.172461e+003;1.262702e-001
3.174390e+003;1.273860e-001
3.176319e+003;1.281590e-001
3.178247e+003;1.287243e-001
3.180176e+003;1.294354e-001
3.182104e+003;1.303518e-001
3.184033e+003;1.314957e-001
3.185961e+003;1.331498e-001
3.187890e+003;1.346850e-001
3.189818e+003;1.352958e-001
3.191747e+003;1.358772e-001
3.193676e+003;1.374525e-001
3.195604e+003;1.389498e-001
3.197532e+003;1.398015e-001
3.199461e+003;1.409067e-001
3.201390e+003;1.424699e-001
3.203318e+003;1.437354e-001
3.205247e+003;1.445617e-001
3.207175e+003;1.456725e-001
3.209104e+003;1.471221e-001
3.211032e+003;1.482074e-001
3.212961e+003;1.492784e-001
3.214889e+003;1.510193e-001
3.216818e+003;1.528269e-001
3.218747e+003;1.541354e-001
3.220675e+003;1.553627e-001
3.222604e+003;1.563368e-001
3.224532e+003;1.574864e-001
3.226461e+003;1.592914e-001
3.228389e+003;1.606570e-001
3.230318e+003;1.616323e-001
3.232246e+003;1.632274e-001
3.234175e+003;1.649937e-001
3.236104e+003;1.661572e-001
3.238032e+003;1.675196e-001
3.239961e+003;1.690875e-001
3.241889e+003;1.710061e-001
3.243818e+003;1.736712e-001
3.245746e+003;1.760789e-001
3.247675e+003;1.775340e-001
3.249603e+003;1.792610e-001
3.251532e+003;1.811622e-001
3.253460e+003;1.830002e-001
3.255389e+003;1.847177e-001
3.257318e+003;1.864274e-001
3.259246e+003;1.879570e-001
3.261175e+003;1.892656e-001
3.263103e+003;1.903760e-001
3.265032e+003;1.912044e-001
3.266960e+003;1.927248e-001
3.268889e+003;1.943494e-001
3.270817e+003;1.950096e-001
3.272746e+003;1.949707e-001
3.274675e+003;1.953633e-001
3.276603e+003;1.962992e-001
3.278531e+003;1.975592e-001
3.280460e+003;1.984929e-001
3.282389e+003;1.993937e-001
3.284317e+003;1.999927e-001
3.286246e+003;1.999165e-001
3.288174e+003;1.996721e-001
3.290103e+003;1.999087e-001
3.292031e+003;2.008339e-001
3.293960e+003;2.011003e-001
3.295888e+003;2.010080e-001
3.297817e+003;2.011233e-001
3.299746e+003;2.013915e-001
3.301674e+003;2.018886e-001
3.303603e+003;2.023033e-001
3.305531e+003;2.023039e-001
3.307460e+003;2.021088e-001
3.309388e+003;2.022540e-001
3.311317e+003;2.031445e-001
3.313245e+003;2.045302e-001
3.315174e+003;2.052590e-001
3.317103e+003;2.049212e-001
3.319031e+003;2.051817e-001
3.320960e+003;2.060889e-001
3.322888e+003;2.065770e-001
3.324817e+003;2.066890e-001
3.326745e+003;2.067658e-001
3.328674e+003;2.064122e-001
3.330602e+003;2.055795e-001
3.332531e+003;2.044352e-001
3.334459e+003;2.033709e-001
3.336388e+003;2.025063e-001
3.338317e+003;2.016564e-001
3.340245e+003;2.000521e-001
3.342174e+003;1.976957e-001
3.344102e+003;1.959108e-001
3.346031e+003;1.943961e-001
3.347959e+003;1.930635e-001
3.349888e+003;1.918374e-001
3.351816e+003;1.903128e-001
3.353745e+003;1.888001e-001
3.355674e+003;1.869920e-001
3.357602e+003;1.855303e-001
3.359531e+003;1.842697e-001
3.361459e+003;1.825910e-001
3.363388e+003;1.812571e-001
3.365316e+003;1.801071e-001
3.367245e+003;1.792333e-001
3.369173e+003;1.783511e-001
3.371102e+003;1.769085e-001
3.373031e+003;1.756557e-001
3.374959e+003;1.748936e-001
3.376887e+003;1.737082e-001
3.378816e+003;1.717562e-001
3.380745e+003;1.703306e-001
3.382673e+003;1.701524e-001
3.384602e+003;1.698211e-001
3.386530e+003;1.693209e-001
3.388459e+003;1.689390e-001
3.390387e+003;1.677105e-001
3.392316e+003;1.662415e-001
3.394244e+003;1.648586e-001
3.396173e+003;1.638985e-001
3.398102e+003;1.630298e-001
3.400030e+003;1.617903e-001
3.401959e+003;1.603483e-001
3.403887e+003;1.588055e-001
3.405816e+003;1.569941e-001
3.407744e+003;1.553069e-001
3.409673e+003;1.540671e-001
3.411601e+003;1.530260e-001
3.413530e+003;1.514893e-001
3.415458e+003;1.497524e-001
3.417387e+003;1.480003e-001
3.419316e+003;1.462666e-001
3.421244e+003;1.449604e-001
3.423173e+003;1.440651e-001
3.425101e+003;1.427051e-001
3.427030e+003;1.412878e-001
3.428958e+003;1.401215e-001
3.430887e+003;1.385669e-001
3.432815e+003;1.370919e-001
3.434744e+003;1.359206e-001
3.436673e+003;1.349517e-001
3.438601e+003;1.336418e-001
3.440530e+003;1.320206e-001
3.442458e+003;1.308630e-001
3.444387e+003;1.300953e-001
3.446315e+003;1.289127e-001
3.448244e+003;1.275130e-001
3.450172e+003;1.255489e-001
3.452101e+003;1.234797e-001
3.454030e+003;1.223026e-001
3.455958e+003;1.216852e-001
3.457886e+003;1.211603e-001
3.459815e+003;1.200018e-001
3.461744e+003;1.182707e-001
3.463672e+003;1.169404e-001
3.465601e+003;1.155273e-001
3.467529e+003;1.144400e-001
3.469458e+003;1.133925e-001
3.471386e+003;1.125165e-001
3.473315e+003;1.114672e-001
3.475243e+003;1.095907e-001
3.477172e+003;1.077459e-001
3.479101e+003;1.062597e-001
3.481029e+003;1.056478e-001
3.482958e+003;1.046225e-001
3.484886e+003;1.031098e-001
3.486815e+003;1.015830e-001
3.488743e+003;1.001883e-001
3.490672e+003;9.971999e-002
3.492600e+003;9.874683e-002
3.494529e+003;9.739408e-002
3.496458e+003;9.638267e-002
3.498386e+003;9.489443e-002
3.500315e+003;9.338958e-002
3.502243e+003;9.217739e-002
3.504172e+003;9.133679e-002
3.506100e+003;9.021558e-002
3.508029e+003;8.864562e-002
3.509957e+003;8.768489e-002
3.511886e+003;8.711918e-002
3.513814e+003;8.611621e-002
3.515743e+003;8.460091e-002
3.517672e+003;8.335299e-002
3.519600e+003;8.253125e-002
3.521529e+003;8.120923e-002
3.523457e+003;7.984292e-002
3.525386e+003;7.893626e-002
3.527314e+003;7.817974e-002
3.529243e+003;7.727674e-002
3.531171e+003;7.672991e-002
3.533100e+003;7.549160e-002
3.535029e+003;7.384461e-002
3.536957e+003;7.280667e-002
3.538885e+003;7.214063e-002
3.540814e+003;7.118063e-002
3.542743e+003;7.009817e-002
3.544671e+003;6.900831e-002
3.546600e+003;6.810977e-002
3.548528e+003;6.685159e-002
3.550457e+003;6.560782e-002
3.552385e+003;6.475933e-002
3.554314e+003;6.414636e-002
3.556242e+003;6.316661e-002
3.558171e+003;6.206500e-002
3.560100e+003;6.079106e-002
3.562028e+003;5.933624e-002
3.563957e+003;5.842980e-002
3.565885e+003;5.700911e-002
3.567814e+003;5.549873e-002
3.569742e+003;5.478865e-002
3.571671e+003;5.442002e-002
3.573599e+003;5.359589e-002
3.575528e+003;5.260002e-002
3.577457e+003;5.169961e-002
3.579385e+003;5.026576e-002
3.581314e+003;4.939074e-002
3.583242e+003;4.879322e-002
3.585171e+003;4.737357e-002
3.587099e+003;4.557735e-002
3.589028e+003;4.469901e-002
3.590956e+003;4.405388e-002
3.592885e+003;4.262041e-002
3.594813e+003;4.147869e-002
3.596742e+003;4.042122e-002
3.598671e+003;3.912895e-002
3.600599e+003;3.813271e-002
3.602528e+003;3.740115e-002
3.604456e+003;3.689610e-002
3.606385e+003;3.675909e-002
3.608313e+003;3.559883e-002
3.610242e+003;3.383080e-002
3.612170e+003;3.246379e-002
3.614099e+003;3.158749e-002
3.616028e+003;3.093279e-002
3.617956e+003;2.955869e-002
3.619885e+003;2.820205e-002
3.621813e+003;2.746671e-002
3.623742e+003;2.631286e-002
3.625670e+003;2.460785e-002
3.627599e+003;2.266200e-002
3.629527e+003;2.201064e-002
3.631456e+003;2.220487e-002
3.633385e+003;2.184688e-002
3.635313e+003;2.133755e-002
3.637241e+003;2.040025e-002
3.639170e+003;1.966652e-002
3.641099e+003;1.900984e-002
3.643027e+003;1.792244e-002
3.644956e+003;1.701942e-002
3.646884e+003;1.576206e-002
3.648813e+003;1.435139e-002
3.650741e+003;1.440708e-002
3.652670e+003;1.434892e-002
3.654598e+003;1.294532e-002
3.656527e+003;1.198159e-002
3.658456e+003;1.250958e-002
3.660384e+003;1.250828e-002
3.662313e+003;1.175531e-002
3.664241e+003;1.120770e-002
3.666170e+003;1.074727e-002
3.668098e+003;9.727981e-003
3.670027e+003;8.656281e-003
3.671955e+003;8.039983e-003
3.673884e+003;6.710560e-003
3.675813e+003;6.737379e-003
3.677741e+003;8.035325e-003
3.679669e+003;8.452271e-003
3.681598e+003;8.105537e-003
3.683527e+003;7.234099e-003
3.685455e+003;6.231748e-003
3.687384e+003;5.328502e-003
3.689312e+003;5.660033e-003
3.691241e+003;6.360136e-003
3.693169e+003;6.250471e-003
3.695098e+003;5.680511e-003
3.697026e+003;5.371304e-003
3.698955e+003;5.168430e-003
3.700884e+003;5.312669e-003
3.702812e+003;5.206388e-003
3.704741e+003;4.464085e-003
3.706669e+003;3.739959e-003
3.708598e+003;2.584009e-003
3.710526e+003;1.872459e-003
3.712455e+003;2.476428e-003
3.714383e+003;3.922574e-003
3.716312e+003;4.488590e-003
3.718240e+003;4.144570e-003
3.720169e+003;3.385678e-003
3.722098e+003;3.241810e-003
3.724026e+003;3.433633e-003
3.725955e+003;3.106799e-003
3.727883e+003;2.911451e-003
3.729812e+003;2.530515e-003
3.731740e+003;1.822979e-003
3.733669e+003;1.640479e-003
3.735597e+003;1.326059e-003
3.737526e+003;1.859015e-003
3.739455e+003;2.372304e-003
3.741383e+003;1.632264e-003
3.743312e+003;-5.748594e-004
3.745240e+003;-7.466960e-004
3.747169e+003;4.551688e-004
3.749097e+003;-3.266893e-005
3.751026e+003;3.496385e-004
3.752954e+003;2.120778e-003
3.754883e+003;2.924060e-003
3.756812e+003;1.930299e-003
3.758740e+003;1.451540e-003
3.760668e+003;2.181815e-003
3.762597e+003;2.581176e-003
3.764526e+003;1.745958e-003
3.766454e+003;1.357766e-003
3.768383e+003;1.569642e-003
3.770311e+003;1.955993e-003
3.772240e+003;1.978626e-003
3.774168e+003;1.778195e-003
3.776097e+003;1.884373e-003
3.778025e+003;2.090247e-003
3.779954e+003;2.517251e-003
3.781883e+003;2.797385e-003
3.783811e+003;2.774942e-003
3.785740e+003;2.333826e-003
3.787668e+003;1.647564e-003
3.789597e+003;1.589030e-003
3.791525e+003;1.957657e-003
3.793454e+003;2.506853e-003
3.795382e+003;2.153177e-003
3.797311e+003;1.873391e-003
3.799240e+003;1.522125e-003
3.801168e+003;9.304721e-004
3.803097e+003;1.596280e-003
3.805025e+003;1.428835e-003
3.806954e+003;1.261321e-003
3.808882e+003;1.877684e-003
3.810811e+003;2.017872e-003
3.812739e+003;1.975198e-003
3.814668e+003;1.503339e-003
3.816596e+003;1.745359e-003
3.818525e+003;1.884273e-003
3.820454e+003;9.454147e-004
3.822382e+003;1.229919e-003
3.824311e+003;1.963981e-003
3.826239e+003;2.052593e-003
3.828168e+003;2.624943e-003
3.830096e+003;2.452735e-003
3.832025e+003;1.175462e-003
3.833953e+003;7.004549e-004
3.835882e+003;6.165649e-004
3.837811e+003;7.448953e-004
3.839739e+003;1.381000e-003
3.841667e+003;1.480863e-003
3.843596e+003;2.238596e-003
3.845525e+003;3.074630e-003
3.847453e+003;2.755735e-003
3.849382e+003;1.846970e-003
3.851310e+003;2.559365e-004
3.853239e+003;-5.717489e-004
3.855167e+003;1.304323e-003
3.857096e+003;3.054942e-003
3.859024e+003;3.428490e-003
3.860953e+003;3.273524e-003
3.862882e+003;2.687350e-003
3.864810e+003;2.738029e-003
3.866739e+003;3.426353e-003
3.868667e+003;2.697152e-003
3.870596e+003;2.075431e-003
3.872524e+003;2.540880e-003
3.874453e+003;3.293722e-003
3.876381e+003;3.827530e-003
3.878310e+003;3.325107e-003
3.880239e+003;3.477653e-003
3.882167e+003;4.062454e-003
3.884096e+003;3.650768e-003
3.886024e+003;3.897432e-003
3.887953e+003;4.147246e-003
3.889881e+003;3.834850e-003
3.891810e+003;3.766228e-003
3.893738e+003;3.898769e-003
3.895667e+003;4.348540e-003
3.897595e+003;4.128346e-003
3.899524e+003;2.948479e-003
3.901453e+003;2.630243e-003
3.903381e+003;2.819295e-003
3.905310e+003;3.493485e-003
3.907238e+003;4.499571e-003
3.909167e+003;4.791775e-003
3.911095e+003;5.132788e-003
3.913024e+003;4.801189e-003
3.914952e+003;4.182974e-003
3.916881e+003;3.851331e-003
3.918810e+003;4.512327e-003
3.920738e+003;5.116628e-003
3.922667e+003;4.855969e-003
3.924595e+003;4.770301e-003
3.926524e+003;4.665291e-003
3.928452e+003;4.217668e-003
3.930381e+003;4.185952e-003
3.932309e+003;4.602431e-003
3.934238e+003;5.284126e-003
3.936167e+003;5.815384e-003
3.938095e+003;5.869721e-003
3.940023e+003;5.830864e-003
3.941952e+003;5.567964e-003
3.943881e+003;5.348460e-003
3.945809e+003;5.358993e-003
3.947738e+003;5.398646e-003
3.949666e+003;5.776969e-003
3.951595e+003;6.555865e-003
3.953523e+003;6.634282e-003
3.955452e+003;5.962660e-003
3.957380e+003;5.677254e-003
3.959309e+003;6.150480e-003
3.961238e+003;6.948092e-003
3.963166e+003;7.584791e-003
3.965095e+003;7.013852e-003
3.967023e+003;5.917951e-003
3.968952e+003;5.748597e-003
3.970880e+003;5.943580e-003
3.972809e+003;6.566595e-003
3.974737e+003;6.922236e-003
3.976666e+003;7.012606e-003
3.978594e+003;7.455940e-003
3.980523e+003;7.416201e-003
3.982452e+003;7.120475e-003
3.984380e+003;7.654154e-003
3.986309e+003;7.539813e-003
3.988237e+003;6.680949e-003
3.990166e+003;6.446420e-003
3.992094e+003;6.779346e-003
3.994023e+003;6.758715e-003
3.995951e+003;7.016714e-003
3.997880e+003;8.274226e-003
3.999809e+003;9.351991e-003
4.001737e+003;0.000000e+000
