3.992094e+002;0.000000e+000
4.011380e+002;0.000000e+000
4.030665e+002;0.000000e+000
4.049951e+002;0.000000e+000
4.069236e+002;0.000000e+000
4.088522e+002;0.000000e+000
4.107807e+002;0.000000e+000
4.127093e+002;0.000000e+000
4.146378e+002;0.000000e+000
4.165664e+002;0.000000e+000
4.184949e+002;0.000000e+000
4.204235e+002;0.000000e+000
4.223520e+002;0.000000e+000
4.242806e+002;0.000000e+000
4.262091e+002;0.000000e+000
4.281377e+002;0.000000e+000
4.300662e+002;0.000000e+000
4.319948e+002;0.000000e+000
4.339233e+002;0.000000e+000
4.358519e+002;0.000000e+000
4.377804e+002;0.000000e+000
4.397090e+002;0.000000e+000
4.416375e+002;0.000000e+000
4.435660e+002;0.000000e+000
4.454946e+002;0.000000e+000
4.474232e+002;0.000000e+000
4.493517e+002;0.000000e+000
4.512802e+002;0.000000e+000
4.532088e+002;0.000000e+000
4.551373e+002;0.000000e+000
4.570659e+002;0.000000e+000
4.589944e+002;0.000000e+000
4.609230e+002;0.000000e+000
4.628515e+002;0.000000e+000
4.647801e+002;0.000000e+000
4.667086e+002;0.000000e+000
4.686372e+002;0.000000e+000
4.705657e+002;0.000000e+000
4.724943e+002;0.000000e+000
4.744228e+002;0.000000e+000
4.763513e+002;0.000000e+000
4.782799e+002;0.000000e+000
4.802085e+002;0.000000e+000
4.821370e+002;0.000000e+000
4.840656e+002;0.000000e+000
4.859941e+002;0.000000e+000
4.879226e+002;0.000000e+000
4.898512e+002;0.000000e+000
4.917798e+002;0.000000e+000
4.937083e+002;0.000000e+000
4.956368e+002;0.000000e+000
4.975654e+002;0.000000e+000
4.994939e+002;0.000000e+000
5.014225e+002;0.000000e+000
5.033510e+002;0.000000e+000
5.052796e+002;0.000000e+000
5.072081e+002;0.000000e+000
5.091367e+002;0.000000e+000
5.110652e+002;0.000000e+000
5.129938e+002;0.000000e+000
5.149223e+002;0.000000e+000
5.168509e+002;0.000000e+000
5.187794e+002;0.000000e+000
5.207079e+002;0.000000e+000
5.226365e+002;0.000000e+000
5.245651e+002;0.000000e+000
5.264936e+002;0.000000e+000
5.284222e+002;0.000000e+000
5.303507e+002;0.000000e+000
5.322792e+002;0.000000e+000
5.342078e+002;0.000000e+000
5.361364e+002;0.000000e+000
5.380649e+002;0.000000e+000
5.399935e+002;0.000000e+000
5.419220e+002;0.000000e+000
5.438505e+002;0.000000e+000
5.457791e+002;0.000000e+000
5.477076e+002;0.000000e+000
5.496362e+002;0.000000e+000
5.515648e+002;0.000000e+000
5.534933e+002;0.000000e+000
5.554218e+002;0.000000e+000
5.573504e+002;0.000000e+000
5.592789e+002;0.000000e+000
5.612075e+002;0.000000e+000
5.631360e+002;0.000000e+000
5.650646e+002;0.000000e+000
5.669931e+002;0.000000e+000
5.689217e+002;0.000000e+000
5.708502e+002;0.000000e+000
5.727787e+002;0.000000e+000
5.747073e+002;0.000000e+000
5.766359e+002;0.000000e+000
5.785644e+002;0.000000e+000
5.804930e+002;0.000000e+000
5.824215e+002;0.000000e+000
5.843500e+002;0.000000e+000
5.862786e+002;0.000000e+000
5.882072e+002;0.000000e+000
5.901357e+002;0.000000e+000
5.920643e+002;0.000000e+000
5.939928e+002;0.000000e+000
5.959213e+002;0.000000e+000
5.978499e+002;0.000000e+000
5.997784e+002;2.943273e-001
6.017070e+002;2.927008e-001
6.036355e+002;2.928926e-001
6.055641e+002;2.894943e-001
6.074926e+002;2.898082e-001
6.094211e+002;2.951223e-001
6.113497e+002;2.976926e-001
6.132783e+002;2.992565e-001
6.152068e+002;2.963080e-001
6.171354e+002;2.931789e-001
6.190639e+002;2.934412e-001
6.209924e+002;2.955364e-001
6.229210e+002;2.900062e-001
6.248495e+002;2.841073e-001
6.267781e+002;2.783792e-001
6.287067e+002;2.765880e-001
6.306352e+002;2.766151e-001
6.325637e+002;2.746464e-001
6.344923e+002;2.699706e-001
6.364208e+002;2.650284e-001
6.383494e+002;2.638245e-001
6.402780e+002;2.664669e-001
6.422065e+002;2.624819e-001
6.441350e+002;2.589294e-001
6.460636e+002;2.608805e-001
6.479921e+002;2.599688e-001
6.499207e+002;2.612136e-001
6.518492e+002;2.605017e-001
6.537778e+002;2.601274e-001
6.557063e+002;2.663263e-001
6.576349e+002;2.707034e-001
6.595634e+002;2.720005e-001
6.614919e+002;2.729029e-001
6.634205e+002;2.730936e-001
6.653491e+002;2.706576e-001
6.672776e+002;2.657032e-001
6.692062e+002;2.652276e-001
6.711347e+002;2.630396e-001
6.730632e+002;2.546842e-001
6.749918e+002;2.474849e-001
6.769203e+002;2.406907e-001
6.788489e+002;2.332171e-001
6.807775e+002;2.283651e-001
6.827060e+002;2.253359e-001
6.846345e+002;2.235025e-001
6.865631e+002;2.225757e-001
6.884916e+002;2.216598e-001
6.904202e+002;2.205262e-001
6.923488e+002;2.189268e-001
6.942773e+002;2.190748e-001
6.962058e+002;2.190953e-001
6.981344e+002;2.171136e-001
7.000629e+002;2.154743e-001
7.019915e+002;2.153038e-001
7.039200e+002;2.157604e-001
7.058486e+002;2.143201e-001
7.077771e+002;2.102772e-001
7.097057e+002;2.079841e-001
7.116342e+002;2.061541e-001
7.135627e+002;2.041124e-001
7.154913e+002;2.020546e-001
7.174199e+002;1.994588e-001
7.193484e+002;1.961875e-001
7.212770e+002;1.919371e-001
7.232055e+002;1.877402e-001
7.251340e+002;1.842587e-001
7.270626e+002;1.804076e-001
7.289911e+002;1.766892e-001
7.309197e+002;1.735951e-001
7.328483e+002;1.701556e-001
7.347768e+002;1.666795e-001
7.367053e+002;1.640267e-001
7.386339e+002;1.616126e-001
7.405624e+002;1.601417e-001
7.424910e+002;1.589958e-001
7.444196e+002;1.571668e-001
7.463481e+002;1.553619e-001
7.482766e+002;1.541611e-001
7.502052e+002;1.520560e-001
7.521337e+002;1.494296e-001
7.540623e+002;1.491632e-001
7.559908e+002;1.478845e-001
7.579194e+002;1.448119e-001
7.598479e+002;1.422420e-001
7.617765e+002;1.402869e-001
7.637050e+002;1.391806e-001
7.656335e+002;1.378584e-001
7.675621e+002;1.355467e-001
7.694907e+002;1.332458e-001
7.714192e+002;1.322245e-001
7.733478e+002;1.314654e-001
7.752763e+002;1.300584e-001
7.772048e+002;1.286324e-001
7.791334e+002;1.273674e-001
7.810620e+002;1.259754e-001
7.829905e+002;1.247052e-001
7.849191e+002;1.235102e-001
7.868476e+002;1.228775e-001
7.887761e+002;1.228950e-001
7.907047e+002;1.226005e-001
7.926332e+002;1.219480e-001
7.945618e+002;1.209512e-001
7.964903e+002;1.200403e-001
7.984189e+002;1.197196e-001
8.003474e+002;1.199296e-001
8.022759e+002;1.204409e-001
8.042045e+002;1.203978e-001
8.061331e+002;1.198210e-001
8.080616e+002;1.185992e-001
8.099902e+002;1.170446e-001
8.119187e+002;1.158111e-001
8.138472e+002;1.158707e-001
8.157758e+002;1.163403e-001
8.177043e+002;1.155136e-001
8.196329e+002;1.144331e-001
8.215615e+002;1.138392e-001
8.234900e+002;1.133617e-001
8.254185e+002;1.122803e-001
8.273471e+002;1.116279e-001
8.292756e+002;1.108171e-001
8.312042e+002;1.100183e-001
8.331328e+002;1.097766e-001
8.350613e+002;1.094277e-001
8.369898e+002;1.080392e-001
8.389184e+002;1.069720e-001
8.408469e+002;1.067427e-001
8.427755e+002;1.058301e-001
8.447040e+002;1.043326e-001
8.466326e+002;1.036853e-001
8.485611e+002;1.032782e-001
8.504897e+002;1.025853e-001
8.524182e+002;1.022181e-001
8.543467e+002;1.020959e-001
8.562753e+002;1.021627e-001
8.582039e+002;1.024407e-001
8.601324e+002;1.022880e-001
8.620610e+002;1.026384e-001
8.639895e+002;1.035918e-001
8.659180e+002;1.044032e-001
8.678466e+002;1.053691e-001
8.697751e+002;1.065787e-001
8.717037e+002;1.083745e-001
8.736323e+002;1.106064e-001
8.755608e+002;1.135352e-001
8.774893e+002;1.168366e-001
8.794179e+002;1.204851e-001
8.813464e+002;1.249331e-001
8.832750e+002;1.301268e-001
8.852036e+002;1.357104e-001
8.871321e+002;1.414603e-001
8.890606e+002;1.476008e-001
8.909892e+002;1.534575e-001
8.929177e+002;1.586191e-001
8.948463e+002;1.625464e-001
8.967748e+002;1.649980e-001
8.987034e+002;1.664774e-001
9.006319e+002;1.667654e-001
9.025605e+002;1.654787e-001
9.044890e+002;1.629807e-001
9.064175e+002;1.597692e-001
9.083461e+002;1.561676e-001
9.102747e+002;1.523116e-001
9.122032e+002;1.484412e-001
9.141318e+002;1.449127e-001
9.160603e+002;1.414609e-001
9.179888e+002;1.382838e-001
9.199174e+002;1.367805e-001
9.218459e+002;1.362457e-001
9.237745e+002;1.362413e-001
9.257031e+002;1.376225e-001
9.276316e+002;1.385969e-001
9.295601e+002;1.390217e-001
9.314887e+002;1.402749e-001
9.334172e+002;1.415985e-001
9.353458e+002;1.429013e-001
9.372744e+002;1.441443e-001
9.392029e+002;1.453842e-001
9.411314e+002;1.471571e-001
9.430600e+002;1.494458e-001
9.449885e+002;1.523857e-001
9.469171e+002;1.555921e-001
9.488456e+002;1.598025e-001
9.507742e+002;1.644519e-001
9.527027e+002;1.694869e-001
9.546313e+002;1.754754e-001
9.565598e+002;1.821471e-001
9.584883e+002;1.893709e-001
9.604169e+002;1.969145e-001
9.623455e+002;2.047035e-001
9.642740e+002;2.127432e-001
9.662026e+002;2.211709e-001
9.681311e+002;2.305430e-001
9.700596e+002;2.416253e-001
9.719882e+002;2.542727e-001
9.739167e+002;2.688654e-001
9.758453e+002;2.861408e-001
9.777739e+002;3.067556e-001
9.797024e+002;3.298996e-001
9.816309e+002;3.541914e-001
9.835595e+002;3.772244e-001
9.854880e+002;3.954847e-001
9.874166e+002;4.085848e-001
9.893452e+002;4.189636e-001
9.912737e+002;4.291011e-001
9.932022e+002;4.385087e-001
9.951307e+002;4.471931e-001
9.970593e+002;4.554417e-001
9.989879e+002;4.623475e-001
1.000916e+003;4.670134e-001
1.002845e+003;4.704563e-001
1.004773e+003;4.736163e-001
1.006702e+003;4.776363e-001
1.008631e+003;4.828022e-001
1.010559e+003;4.904155e-001
1.012488e+003;5.001974e-001
1.014416e+003;5.087261e-001
1.016345e+003;5.157206e-001
1.018273e+003;5.226936e-001
1.020202e+003;5.296097e-001
1.022130e+003;5.348622e-001
1.024059e+003;5.376896e-001
1.025988e+003;5.396755e-001
1.027916e+003;5.406995e-001
1.029845e+003;5.411559e-001
1.031773e+003;5.399230e-001
1.033702e+003;5.359377e-001
1.035630e+003;5.305451e-001
1.037559e+003;5.243842e-001
1.039487e+003;5.163770e-001
1.041416e+003;5.078996e-001
1.043344e+003;5.010036e-001
1.045273e+003;4.970686e-001
1.047202e+003;4.957060e-001
1.049130e+003;4.968664e-001
1.051059e+003;4.979634e-001
1.052987e+003;4.977927e-001
1.054916e+003;4.975264e-001
1.056844e+003;4.952617e-001
1.058773e+003;4.889141e-001
1.060701e+003;4.789236e-001
1.062630e+003;4.658074e-001
1.064558e+003;4.504742e-001
1.066487e+003;4.337844e-001
1.068416e+003;4.177067e-001
1.070344e+003;4.038856e-001
1.072273e+003;3.918785e-001
1.074201e+003;3.809443e-001
1.076130e+003;3.709294e-001
1.078058e+003;3.612376e-001
1.079987e+003;3.524078e-001
1.081915e+003;3.454280e-001
1.083844e+003;3.387332e-001
1.085773e+003;3.331596e-001
1.087701e+003;3.296029e-001
1.089630e+003;3.266940e-001
1.091558e+003;3.240446e-001
1.093487e+003;3.213856e-001
1.095415e+003;3.190284e-001
1.097344e+003;3.174545e-001
1.099272e+003;3.156762e-001
1.101201e+003;3.130533e-001
1.103129e+003;3.107651e-001
1.105058e+003;3.084170e-001
1.106987e+003;3.053598e-001
1.108915e+003;3.017512e-001
1.110844e+003;2.975981e-001
1.112772e+003;2.930330e-001
1.114701e+003;2.869074e-001
1.116629e+003;2.787295e-001
1.118558e+003;2.695344e-001
1.120486e+003;2.603180e-001
1.122415e+003;2.513633e-001
1.124344e+003;2.424486e-001
1.126272e+003;2.333571e-001
1.128201e+003;2.244550e-001
1.130129e+003;2.163116e-001
1.132058e+003;2.086611e-001
1.133986e+003;2.020901e-001
1.135915e+003;1.969189e-001
1.137843e+003;1.926915e-001
1.139772e+003;1.891177e-001
1.141700e+003;1.871679e-001
1.143629e+003;1.871101e-001
1.145557e+003;1.881354e-001
1.147486e+003;1.899539e-001
1.149415e+003;1.921412e-001
1.151343e+003;1.946264e-001
1.153272e+003;1.970711e-001
1.155200e+003;1.990996e-001
1.157129e+003;2.008687e-001
1.159057e+003;2.019724e-001
1.160986e+003;2.024452e-001
1.162914e+003;2.014914e-001
1.164843e+003;1.976792e-001
1.166771e+003;1.908555e-001
1.168700e+003;1.819631e-001
1.170629e+003;1.720547e-001
1.172557e+003;1.619962e-001
1.174486e+003;1.526874e-001
1.176414e+003;1.446559e-001
1.178343e+003;1.379075e-001
1.180271e+003;1.324969e-001
1.182200e+003;1.281618e-001
1.184128e+003;1.250121e-001
1.186057e+003;1.233347e-001
1.187986e+003;1.230056e-001
1.189914e+003;1.241147e-001
1.191843e+003;1.261172e-001
1.193771e+003;1.287598e-001
1.195700e+003;1.320350e-001
1.197628e+003;1.352006e-001
1.199557e+003;1.374430e-001
1.201485e+003;1.387592e-001
1.203414e+003;1.394238e-001
1.205343e+003;1.389427e-001
1.207271e+003;1.371769e-001
1.209200e+003;1.343525e-001
1.211128e+003;1.300773e-001
1.213057e+003;1.259376e-001
1.214985e+003;1.236083e-001
1.216914e+003;1.231245e-001
1.218842e+003;1.239258e-001
1.220771e+003;1.256709e-001
1.222699e+003;1.278794e-001
1.224628e+003;1.304037e-001
1.226557e+003;1.331592e-001
1.228485e+003;1.354438e-001
1.230414e+003;1.374846e-001
1.232342e+003;1.397932e-001
1.234271e+003;1.417323e-001
1.236199e+003;1.429085e-001
1.238128e+003;1.432791e-001
1.240056e+003;1.431335e-001
1.241985e+003;1.435386e-001
1.243913e+003;1.444229e-001
1.245842e+003;1.456775e-001
1.247771e+003;1.469646e-001
1.249699e+003;1.476227e-001
1.251628e+003;1.480206e-001
1.253556e+003;1.487298e-001
1.255485e+003;1.492151e-001
1.257413e+003;1.495865e-001
1.259342e+003;1.502769e-001
1.261270e+003;1.505170e-001
1.263199e+003;1.501417e-001
1.265127e+003;1.494961e-001
1.267056e+003;1.487610e-001
1.268985e+003;1.485344e-001
1.270913e+003;1.489210e-001
1.272842e+003;1.490486e-001
1.274770e+003;1.491281e-001
1.276699e+003;1.493381e-001
1.278627e+003;1.493307e-001
1.280556e+003;1.486778e-001
1.282484e+003;1.476256e-001
1.284413e+003;1.465190e-001
1.286342e+003;1.457772e-001
1.288270e+003;1.454986e-001
1.290199e+003;1.457948e-001
1.292127e+003;1.466900e-001
1.294056e+003;1.478597e-001
1.295984e+003;1.492795e-001
1.297913e+003;1.512021e-001
1.299841e+003;1.536471e-001
1.301770e+003;1.564738e-001
1.303698e+003;1.596964e-001
1.305627e+003;1.636086e-001
1.307556e+003;1.679478e-001
1.309484e+003;1.721946e-001
1.311413e+003;1.757455e-001
1.313341e+003;1.788224e-001
1.315270e+003;1.811527e-001
1.317198e+003;1.816477e-001
1.319127e+003;1.802721e-001
1.321055e+003;1.777336e-001
1.322984e+003;1.749487e-001
1.324912e+003;1.721640e-001
1.326841e+003;1.698045e-001
1.328770e+003;1.685528e-001
1.330698e+003;1.685998e-001
1.332627e+003;1.693868e-001
1.334555e+003;1.700938e-001
1.336484e+003;1.703839e-001
1.338412e+003;1.695914e-001
1.340341e+003;1.680491e-001
1.342269e+003;1.664274e-001
1.344198e+003;1.643418e-001
1.346126e+003;1.619759e-001
1.348055e+003;1.600869e-001
1.349984e+003;1.592499e-001
1.351912e+003;1.594289e-001
1.353841e+003;1.602107e-001
1.355769e+003;1.614327e-001
1.357698e+003;1.629336e-001
1.359626e+003;1.640394e-001
1.361555e+003;1.638353e-001
1.363483e+003;1.631567e-001
1.365412e+003;1.627633e-001
1.367341e+003;1.617796e-001
1.369269e+003;1.608199e-001
1.371198e+003;1.598788e-001
1.373126e+003;1.578514e-001
1.375055e+003;1.551627e-001
1.376983e+003;1.523774e-001
1.378912e+003;1.492549e-001
1.380840e+003;1.460887e-001
1.382769e+003;1.428332e-001
1.384698e+003;1.395367e-001
1.386626e+003;1.360004e-001
1.388555e+003;1.341006e-001
1.390483e+003;1.329814e-001
1.392412e+003;1.311067e-001
1.394340e+003;1.294325e-001
1.396269e+003;1.291886e-001
1.398197e+003;1.290362e-001
1.400126e+003;1.296501e-001
1.402054e+003;1.304301e-001
1.403983e+003;1.303991e-001
1.405911e+003;1.306904e-001
1.407840e+003;1.314101e-001
1.409769e+003;1.321264e-001
1.411697e+003;1.327814e-001
1.413626e+003;1.333645e-001
1.415554e+003;1.337181e-001
1.417483e+003;1.328629e-001
1.419411e+003;1.330275e-001
1.421340e+003;1.363189e-001
1.423268e+003;1.386455e-001
1.425197e+003;1.399832e-001
1.427125e+003;1.408511e-001
1.429054e+003;1.409114e-001
1.430983e+003;1.407287e-001
1.432911e+003;1.399446e-001
1.434840e+003;1.369684e-001
1.436768e+003;1.339876e-001
1.438697e+003;1.339354e-001
1.440625e+003;1.329771e-001
1.442554e+003;1.311381e-001
1.444482e+003;1.296096e-001
1.446411e+003;1.281516e-001
1.448340e+003;1.269349e-001
1.450268e+003;1.266011e-001
1.452197e+003;1.257619e-001
1.454125e+003;1.232728e-001
1.456054e+003;1.183164e-001
1.457982e+003;1.171070e-001
1.459911e+003;1.190100e-001
1.461839e+003;1.183195e-001
1.463768e+003;1.148269e-001
1.465697e+003;1.117333e-001
1.467625e+003;1.096236e-001
1.469554e+003;1.059591e-001
1.471482e+003;1.005649e-001
1.473411e+003;9.684785e-002
1.475339e+003;9.496596e-002
1.477268e+003;9.267188e-002
1.479196e+003;9.036952e-002
1.481125e+003;8.779998e-002
1.483053e+003;8.505662e-002
1.484982e+003;8.123995e-002
1.486911e+003;7.670500e-002
1.488839e+003;7.248311e-002
1.490768e+003;7.019845e-002
1.492696e+003;6.956062e-002
1.494625e+003;6.678596e-002
1.496553e+003;6.385913e-002
1.498482e+003;6.383026e-002
1.500410e+003;6.425788e-002
1.502339e+003;6.352725e-002
1.504267e+003;5.933962e-002
1.506196e+003;5.470705e-002
1.508125e+003;5.647947e-002
1.510053e+003;5.945522e-002
1.511982e+003;5.985238e-002
1.513910e+003;5.975560e-002
1.515839e+003;5.875789e-002
1.517767e+003;5.792186e-002
1.519696e+003;5.568337e-002
1.521624e+003;5.430451e-002
1.523553e+003;5.638095e-002
1.525481e+003;5.720925e-002
1.527410e+003;5.799115e-002
1.529339e+003;5.907821e-002
1.531267e+003;5.866754e-002
1.533196e+003;5.741909e-002
1.535124e+003;5.830033e-002
1.537053e+003;5.661953e-002
1.538981e+003;5.181939e-002
1.540910e+003;5.204901e-002
1.542838e+003;5.538767e-002
1.544767e+003;5.757137e-002
1.546695e+003;5.957682e-002
1.548624e+003;6.021930e-002
1.550553e+003;6.010520e-002
1.552481e+003;5.938019e-002
1.554410e+003;5.797748e-002
1.556338e+003;5.559663e-002
1.558267e+003;5.104885e-002
1.560195e+003;5.278033e-002
1.562124e+003;5.830000e-002
1.564052e+003;6.007305e-002
1.565981e+003;6.037717e-002
1.567910e+003;5.953502e-002
1.569838e+003;5.860940e-002
1.571767e+003;5.997618e-002
1.573695e+003;5.931546e-002
1.575624e+003;5.641106e-002
1.577552e+003;5.797040e-002
1.579481e+003;6.086032e-002
1.581409e+003;6.162855e-002
1.583338e+003;6.218967e-002
1.585266e+003;6.260265e-002
1.587195e+003;6.284318e-002
1.589124e+003;6.318140e-002
1.591052e+003;6.368556e-002
1.592981e+003;6.392810e-002
1.594909e+003;6.432081e-002
1.596838e+003;6.473436e-002
1.598766e+003;6.502941e-002
1.600695e+003;6.545108e-002
1.602623e+003;6.629997e-002
1.604552e+003;6.699186e-002
1.606480e+003;6.754463e-002
1.608409e+003;6.804191e-002
1.610338e+003;6.848742e-002
1.612266e+003;6.892492e-002
1.614195e+003;6.814434e-002
1.616123e+003;6.629027e-002
1.618052e+003;6.870732e-002
1.619980e+003;7.152048e-002
1.621909e+003;7.109094e-002
1.623837e+003;7.135952e-002
1.625766e+003;7.265009e-002
1.627694e+003;7.334375e-002
1.629623e+003;7.426565e-002
1.631552e+003;7.497706e-002
1.633480e+003;7.355019e-002
1.635409e+003;7.164504e-002
1.637337e+003;7.404642e-002
1.639266e+003;7.669820e-002
1.641194e+003;7.739428e-002
1.643123e+003;7.666037e-002
1.645051e+003;7.399392e-002
1.646980e+003;7.324737e-002
1.648909e+003;7.492717e-002
1.650837e+003;7.145087e-002
1.652766e+003;6.564706e-002
1.654694e+003;6.920911e-002
1.656623e+003;7.368475e-002
1.658551e+003;7.382250e-002
1.660480e+003;7.212204e-002
1.662408e+003;7.005986e-002
1.664337e+003;6.958695e-002
1.666266e+003;6.886861e-002
1.668194e+003;6.592780e-002
1.670123e+003;6.416215e-002
1.672051e+003;6.424547e-002
1.673980e+003;6.238043e-002
1.675908e+003;6.121927e-002
1.677837e+003;6.175034e-002
1.679765e+003;6.052836e-002
1.681694e+003;5.741897e-002
1.683622e+003;5.200412e-002
1.685551e+003;5.198899e-002
1.687479e+003;5.497280e-002
1.689408e+003;5.469788e-002
1.691337e+003;5.372198e-002
1.693265e+003;5.126281e-002
1.695194e+003;4.684860e-002
1.697122e+003;4.621808e-002
1.699051e+003;4.419054e-002
1.700979e+003;4.357939e-002
1.702908e+003;4.660511e-002
1.704836e+003;4.636416e-002
1.706765e+003;4.605189e-002
1.708693e+003;4.614172e-002
1.710622e+003;4.592570e-002
1.712551e+003;4.468156e-002
1.714479e+003;4.267097e-002
1.716408e+003;4.003962e-002
1.718336e+003;4.059607e-002
1.720265e+003;4.380147e-002
1.722193e+003;4.479289e-002
1.724122e+003;4.493412e-002
1.726050e+003;4.565906e-002
1.727979e+003;4.561853e-002
1.729908e+003;4.507804e-002
1.731836e+003;4.292404e-002
1.733765e+003;4.059120e-002
1.735693e+003;4.315204e-002
1.737622e+003;4.466842e-002
1.739550e+003;4.303466e-002
1.741479e+003;4.219620e-002
1.743407e+003;4.103442e-002
1.745336e+003;3.931510e-002
1.747265e+003;3.697449e-002
1.749193e+003;3.442166e-002
1.751122e+003;3.292418e-002
1.753050e+003;3.332762e-002
1.754979e+003;3.240706e-002
1.756907e+003;3.106737e-002
1.758836e+003;3.076883e-002
1.760764e+003;2.959654e-002
1.762693e+003;2.912276e-002
1.764621e+003;2.956919e-002
1.766550e+003;2.851602e-002
1.768479e+003;2.745584e-002
1.770407e+003;2.613276e-002
1.772336e+003;2.483310e-002
1.774264e+003;2.632909e-002
1.776193e+003;2.754550e-002
1.778121e+003;2.738670e-002
1.780050e+003;2.696821e-002
1.781978e+003;2.691381e-002
1.783907e+003;2.668427e-002
1.785835e+003;2.657697e-002
1.787764e+003;2.647895e-002
1.789693e+003;2.548401e-002
1.791621e+003;2.404772e-002
1.793550e+003;2.440609e-002
1.795478e+003;2.559632e-002
1.797407e+003;2.553942e-002
1.799335e+003;2.509427e-002
1.801264e+003;2.508300e-002
1.803192e+003;2.544220e-002
1.805121e+003;2.559066e-002
1.807049e+003;2.549490e-002
1.808978e+003;2.510494e-002
1.810907e+003;2.500585e-002
1.812835e+003;2.527250e-002
1.814764e+003;2.534296e-002
1.816692e+003;2.491661e-002
1.818621e+003;2.460017e-002
1.820549e+003;2.459652e-002
1.822478e+003;2.449874e-002
1.824406e+003;2.362324e-002
1.826335e+003;2.352864e-002
1.828264e+003;2.349832e-002
1.830192e+003;2.336903e-002
1.832121e+003;2.404642e-002
1.834049e+003;2.415984e-002
1.835978e+003;2.377209e-002
1.837906e+003;2.373090e-002
1.839835e+003;2.382484e-002
1.841763e+003;2.288083e-002
1.843692e+003;2.144817e-002
1.845620e+003;2.228274e-002
1.847549e+003;2.329791e-002
1.849478e+003;2.340550e-002
1.851406e+003;2.333291e-002
1.853335e+003;2.309362e-002
1.855263e+003;2.297982e-002
1.857192e+003;2.282324e-002
1.859120e+003;2.272802e-002
1.861049e+003;2.274597e-002
1.862977e+003;2.278898e-002
1.864906e+003;2.248686e-002
1.866834e+003;2.175065e-002
1.868763e+003;2.122074e-002
1.870692e+003;2.193856e-002
1.872620e+003;2.271674e-002
1.874549e+003;2.270934e-002
1.876477e+003;2.256908e-002
1.878406e+003;2.237532e-002
1.880334e+003;2.222429e-002
1.882263e+003;2.201423e-002
1.884191e+003;2.190298e-002
1.886120e+003;2.185130e-002
1.888048e+003;2.174838e-002
1.889977e+003;2.188521e-002
1.891906e+003;2.230297e-002
1.893834e+003;2.210169e-002
1.895763e+003;2.182695e-002
1.897691e+003;2.195428e-002
1.899620e+003;2.203901e-002
1.901548e+003;2.212069e-002
1.903477e+003;2.226349e-002
1.905405e+003;2.190336e-002
1.907334e+003;2.174553e-002
1.909262e+003;2.190970e-002
1.911191e+003;2.212456e-002
1.913120e+003;2.203859e-002
1.915048e+003;2.191249e-002
1.916977e+003;2.145075e-002
1.918905e+003;2.153559e-002
1.920834e+003;2.212519e-002
1.922762e+003;2.204797e-002
1.924691e+003;2.191402e-002
1.926619e+003;2.224947e-002
1.928548e+003;2.264053e-002
1.930477e+003;2.275794e-002
1.932405e+003;2.262189e-002
1.934334e+003;2.248767e-002
1.936262e+003;2.261935e-002
1.938191e+003;2.278877e-002
1.940119e+003;2.253014e-002
1.942048e+003;2.209273e-002
1.943976e+003;2.248547e-002
1.945905e+003;2.288642e-002
1.947833e+003;2.295013e-002
1.949762e+003;2.299076e-002
1.951691e+003;2.317208e-002
1.953619e+003;2.332816e-002
1.955548e+003;2.329686e-002
1.957476e+003;2.333032e-002
1.959405e+003;2.345978e-002
1.961333e+003;2.358174e-002
1.963262e+003;2.365784e-002
1.965190e+003;2.350409e-002
1.967119e+003;2.305581e-002
1.969047e+003;2.317043e-002
1.970976e+003;2.353277e-002
1.972905e+003;2.364692e-002
1.974833e+003;2.350906e-002
1.976762e+003;2.343243e-002
1.978690e+003;2.361750e-002
1.980619e+003;2.377748e-002
1.982547e+003;2.369780e-002
1.984476e+003;2.372236e-002
1.986404e+003;2.371389e-002
1.988333e+003;2.368090e-002
1.990261e+003;2.366036e-002
1.992190e+003;2.366690e-002
1.994119e+003;2.375358e-002
1.996047e+003;2.392734e-002
1.997976e+003;2.396774e-002
1.999904e+003;2.375575e-002
2.001833e+003;2.362428e-002
2.003761e+003;2.367827e-002
2.005690e+003;2.377608e-002
2.007618e+003;2.383201e-002
2.009547e+003;2.384370e-002
2.011476e+003;2.409455e-002
2.013404e+003;2.427177e-002
2.015333e+003;2.417472e-002
2.017261e+003;2.417676e-002
2.019190e+003;2.447967e-002
2.021118e+003;2.468297e-002
2.023047e+003;2.477104e-002
2.024975e+003;2.491861e-002
2.026904e+003;2.489797e-002
2.028833e+003;2.474747e-002
2.030761e+003;2.475585e-002
2.032690e+003;2.487387e-002
2.034618e+003;2.486159e-002
2.036547e+003;2.506447e-002
2.038475e+003;2.544044e-002
2.040404e+003;2.537569e-002
2.042332e+003;2.517822e-002
2.044261e+003;2.510880e-002
2.046189e+003;2.518320e-002
2.048118e+003;2.530025e-002
2.050047e+003;2.544961e-002
2.051975e+003;2.549817e-002
2.053904e+003;2.531925e-002
2.055832e+003;2.514767e-002
2.057761e+003;2.532740e-002
2.059689e+003;2.547290e-002
2.061618e+003;2.529477e-002
2.063546e+003;2.506356e-002
2.065475e+003;2.500891e-002
2.067404e+003;2.484345e-002
2.069332e+003;2.472604e-002
2.071260e+003;2.472158e-002
2.073189e+003;2.479756e-002
2.075118e+003;2.498634e-002
2.077046e+003;2.504162e-002
2.078975e+003;2.512197e-002
2.080903e+003;2.526232e-002
2.082832e+003;2.509269e-002
2.084760e+003;2.493433e-002
2.086689e+003;2.485078e-002
2.088617e+003;2.481170e-002
2.090546e+003;2.493068e-002
2.092475e+003;2.497391e-002
2.094403e+003;2.501982e-002
2.096332e+003;2.511021e-002
2.098260e+003;2.509301e-002
2.100189e+003;2.508932e-002
2.102117e+003;2.519939e-002
2.104046e+003;2.533512e-002
2.105974e+003;2.526456e-002
2.107903e+003;2.528602e-002
2.109832e+003;2.514988e-002
2.111760e+003;2.499185e-002
2.113688e+003;2.533280e-002
2.115617e+003;2.580953e-002
2.117546e+003;2.585215e-002
2.119474e+003;2.561094e-002
2.121403e+003;2.535255e-002
2.123331e+003;2.532785e-002
2.125260e+003;2.531960e-002
2.127188e+003;2.530769e-002
2.129117e+003;2.539452e-002
2.131045e+003;2.562219e-002
2.132974e+003;2.571245e-002
2.134903e+003;2.583843e-002
2.136831e+003;2.577785e-002
2.138760e+003;2.572001e-002
2.140688e+003;2.568953e-002
2.142617e+003;2.563674e-002
2.144545e+003;2.557562e-002
2.146474e+003;2.574508e-002
2.148402e+003;2.584111e-002
2.150331e+003;2.568405e-002
2.152260e+003;2.541873e-002
2.154188e+003;2.523198e-002
2.156117e+003;2.522169e-002
2.158045e+003;2.515360e-002
2.159974e+003;2.513538e-002
2.161902e+003;2.502860e-002
2.163831e+003;2.483022e-002
2.165759e+003;2.479163e-002
2.167688e+003;2.460234e-002
2.169616e+003;2.438128e-002
2.171545e+003;2.420958e-002
2.173474e+003;2.385883e-002
2.175402e+003;2.358961e-002
2.177331e+003;2.368093e-002
2.179259e+003;2.359395e-002
2.181188e+003;2.324044e-002
2.183116e+003;2.310798e-002
2.185045e+003;2.316044e-002
2.186973e+003;2.310819e-002
2.188902e+003;2.288534e-002
2.190831e+003;2.278836e-002
2.192759e+003;2.269660e-002
2.194688e+003;2.247043e-002
2.196616e+003;2.252441e-002
2.198545e+003;2.274865e-002
2.200473e+003;2.276108e-002
2.202402e+003;2.255031e-002
2.204330e+003;2.229687e-002
2.206259e+003;2.207265e-002
2.208188e+003;2.206376e-002
2.210116e+003;2.227946e-002
2.212044e+003;2.249301e-002
2.213973e+003;2.266431e-002
2.215902e+003;2.237312e-002
2.217830e+003;2.223657e-002
2.219759e+003;2.230332e-002
2.221687e+003;2.211546e-002
2.223616e+003;2.227891e-002
2.225544e+003;2.238038e-002
2.227473e+003;2.215643e-002
2.229401e+003;2.206829e-002
2.231330e+003;2.191096e-002
2.233259e+003;2.200265e-002
2.235187e+003;2.221233e-002
2.237116e+003;2.217829e-002
2.239044e+003;2.225369e-002
2.240973e+003;2.228627e-002
2.242901e+003;2.215022e-002
2.244830e+003;2.191538e-002
2.246758e+003;2.172459e-002
2.248687e+003;2.188604e-002
2.250615e+003;2.201503e-002
2.252544e+003;2.189915e-002
2.254473e+003;2.175999e-002
2.256401e+003;2.174832e-002
2.258330e+003;2.167102e-002
2.260258e+003;2.150690e-002
2.262187e+003;2.126945e-002
2.264115e+003;2.119461e-002
2.266044e+003;2.131779e-002
2.267972e+003;2.123761e-002
2.269901e+003;2.104549e-002
2.271830e+003;2.084698e-002
2.273758e+003;2.093612e-002
2.275687e+003;2.104528e-002
2.277615e+003;2.093935e-002
2.279544e+003;2.112618e-002
2.281472e+003;2.128295e-002
2.283401e+003;2.112329e-002
2.285329e+003;2.087368e-002
2.287258e+003;2.081340e-002
2.289187e+003;2.081267e-002
2.291115e+003;2.054551e-002
2.293043e+003;2.053929e-002
2.294972e+003;2.075681e-002
2.296901e+003;2.091477e-002
2.298829e+003;2.059019e-002
2.300758e+003;2.029990e-002
2.302686e+003;2.019111e-002
2.304615e+003;1.991156e-002
2.306543e+003;1.964382e-002
2.308472e+003;1.938580e-002
2.310400e+003;1.893455e-002
2.312329e+003;1.878603e-002
2.314258e+003;1.867557e-002
2.316186e+003;1.809215e-002
2.318115e+003;1.734003e-002
2.320043e+003;1.685742e-002
2.321972e+003;1.654983e-002
2.323900e+003;1.599319e-002
2.325829e+003;1.539228e-002
2.327757e+003;1.482299e-002
2.329686e+003;1.449248e-002
2.331615e+003;1.375962e-002
2.333543e+003;1.333041e-002
2.335472e+003;1.343887e-002
2.337400e+003;1.352808e-002
2.339329e+003;1.396375e-002
2.341257e+003;1.478668e-002
2.343186e+003;1.572832e-002
2.345114e+003;1.705067e-002
2.347043e+003;1.882388e-002
2.348971e+003;1.975931e-002
2.350900e+003;1.871175e-002
2.352829e+003;1.644018e-002
2.354757e+003;1.442349e-002
2.356686e+003;1.318680e-002
2.358614e+003;1.250286e-002
2.360543e+003;1.192886e-002
2.362471e+003;1.178915e-002
2.364400e+003;1.232376e-002
2.366328e+003;1.362872e-002
2.368257e+003;1.501221e-002
2.370186e+003;1.656298e-002
2.372114e+003;1.823453e-002
2.374042e+003;1.965546e-002
2.375971e+003;2.088313e-002
2.377900e+003;2.207070e-002
2.379828e+003;2.304072e-002
2.381757e+003;2.368996e-002
2.383685e+003;2.391809e-002
2.385614e+003;2.420562e-002
2.387542e+003;2.451648e-002
2.389471e+003;2.448843e-002
2.391399e+003;2.451634e-002
2.393328e+003;2.481454e-002
2.395257e+003;2.519272e-002
2.397185e+003;2.517348e-002
2.399114e+003;2.522105e-002
2.401042e+003;2.531019e-002
2.402971e+003;2.550249e-002
2.404899e+003;2.567955e-002
2.406828e+003;2.593881e-002
2.408756e+003;2.623788e-002
2.410685e+003;2.626259e-002
2.412614e+003;2.632574e-002
2.414542e+003;2.638264e-002
2.416471e+003;2.647331e-002
2.418399e+003;2.666416e-002
2.420328e+003;2.689347e-002
2.422256e+003;2.720806e-002
2.424185e+003;2.744380e-002
2.426113e+003;2.747271e-002
2.428042e+003;2.763165e-002
2.429970e+003;2.804477e-002
2.431899e+003;2.825402e-002
2.433828e+003;2.836277e-002
2.435756e+003;2.850626e-002
2.437685e+003;2.861691e-002
2.439613e+003;2.867634e-002
2.441542e+003;2.895673e-002
2.443470e+003;2.920030e-002
2.445399e+003;2.941177e-002
2.447327e+003;2.961551e-002
2.449256e+003;2.977343e-002
2.451185e+003;2.994912e-002
2.453113e+003;3.006255e-002
2.455042e+003;3.005162e-002
2.456970e+003;3.029587e-002
2.458899e+003;3.042020e-002
2.460827e+003;3.044995e-002
2.462756e+003;3.082617e-002
2.464684e+003;3.112169e-002
2.466613e+003;3.122998e-002
2.468542e+003;3.145307e-002
2.470470e+003;3.148877e-002
2.472398e+003;3.139967e-002
2.474327e+003;3.148474e-002
2.476256e+003;3.189505e-002
2.478184e+003;3.219537e-002
2.480113e+003;3.221942e-002
2.482041e+003;3.242188e-002
2.483970e+003;3.263525e-002
2.485898e+003;3.288329e-002
2.487827e+003;3.315257e-002
2.489755e+003;3.330727e-002
2.491684e+003;3.365482e-002
2.493613e+003;3.400441e-002
2.495541e+003;3.403321e-002
2.497470e+003;3.402085e-002
2.499398e+003;3.417149e-002
2.501327e+003;3.400867e-002
2.503255e+003;3.380228e-002
2.505184e+003;3.430636e-002
2.507112e+003;3.467711e-002
2.509041e+003;3.489307e-002
2.510969e+003;3.501039e-002
2.512898e+003;3.521199e-002
2.514827e+003;3.545899e-002
2.516755e+003;3.563135e-002
2.518684e+003;3.585591e-002
2.520612e+003;3.609705e-002
2.522541e+003;3.598850e-002
2.524469e+003;3.584746e-002
2.526398e+003;3.607253e-002
2.528326e+003;3.617904e-002
2.530255e+003;3.638278e-002
2.532184e+003;3.670500e-002
2.534112e+003;3.682227e-002
2.536041e+003;3.692637e-002
2.537969e+003;3.719463e-002
2.539898e+003;3.747548e-002
2.541826e+003;3.752089e-002
2.543755e+003;3.772883e-002
2.545683e+003;3.797267e-002
2.547612e+003;3.814342e-002
2.549541e+003;3.815713e-002
2.551469e+003;3.802134e-002
2.553397e+003;3.792584e-002
2.555326e+003;3.802634e-002
2.557255e+003;3.822005e-002
2.559183e+003;3.824046e-002
2.561112e+003;3.830259e-002
2.563040e+003;3.864674e-002
2.564969e+003;3.902081e-002
2.566897e+003;3.918084e-002
2.568826e+003;3.908262e-002
2.570754e+003;3.899504e-002
2.572683e+003;3.903194e-002
2.574612e+003;3.888127e-002
2.576540e+003;3.901588e-002
2.578469e+003;3.939158e-002
2.580397e+003;3.942097e-002
2.582326e+003;3.936016e-002
2.584254e+003;3.944644e-002
2.586183e+003;3.996674e-002
2.588111e+003;4.047345e-002
2.590040e+003;4.046686e-002
2.591969e+003;4.043399e-002
2.593897e+003;4.055278e-002
2.595826e+003;4.056897e-002
2.597754e+003;4.092449e-002
2.599683e+003;4.142138e-002
2.601611e+003;4.176338e-002
2.603540e+003;4.177969e-002
2.605468e+003;4.191034e-002
2.607397e+003;4.196632e-002
2.609325e+003;4.185065e-002
2.611254e+003;4.196224e-002
2.613183e+003;4.205012e-002
2.615111e+003;4.236321e-002
2.617040e+003;4.294141e-002
2.618968e+003;4.339283e-002
2.620897e+003;4.345490e-002
2.622825e+003;4.341674e-002
2.624754e+003;4.398894e-002
2.626682e+003;4.449221e-002
2.628611e+003;4.463959e-002
2.630540e+003;4.471105e-002
2.632468e+003;4.466434e-002
2.634396e+003;4.499501e-002
2.636325e+003;4.544997e-002
2.638254e+003;4.571479e-002
2.640182e+003;4.596382e-002
2.642111e+003;4.592813e-002
2.644039e+003;4.605046e-002
2.645968e+003;4.643240e-002
2.647896e+003;4.682498e-002
2.649825e+003;4.719080e-002
2.651753e+003;4.744415e-002
2.653682e+003;4.755331e-002
2.655611e+003;4.787575e-002
2.657539e+003;4.824879e-002
2.659468e+003;4.830112e-002
2.661396e+003;4.839159e-002
2.663325e+003;4.907251e-002
2.665253e+003;4.963163e-002
2.667182e+003;4.994165e-002
2.669110e+003;5.050483e-002
2.671039e+003;5.083432e-002
2.672968e+003;5.089653e-002
2.674896e+003;5.094753e-002
2.676825e+003;5.105790e-002
2.678753e+003;5.139371e-002
2.680682e+003;5.150982e-002
2.682610e+003;5.172327e-002
2.684539e+003;5.209433e-002
2.686467e+003;5.241994e-002
2.688396e+003;5.258327e-002
2.690324e+003;5.289027e-002
2.692253e+003;5.348529e-002
2.694182e+003;5.404165e-002
2.696110e+003;5.447396e-002
2.698039e+003;5.474043e-002
2.699967e+003;5.496321e-002
2.701896e+003;5.528575e-002
2.703824e+003;5.544116e-002
2.705753e+003;5.573332e-002
2.707681e+003;5.621438e-002
2.709610e+003;5.653057e-002
2.711539e+003;5.695539e-002
2.713467e+003;5.712689e-002
2.715396e+003;5.726720e-002
2.717324e+003;5.754122e-002
2.719253e+003;5.786371e-002
2.721181e+003;5.844102e-002
2.723110e+003;5.882124e-002
2.725038e+003;5.884704e-002
2.726967e+003;5.880531e-002
2.728896e+003;5.876160e-002
2.730824e+003;5.884287e-002
2.732752e+003;5.923001e-002
2.734681e+003;5.955725e-002
2.736610e+003;5.989593e-002
2.738538e+003;6.023033e-002
2.740467e+003;6.040542e-002
2.742395e+003;6.078344e-002
2.744324e+003;6.083024e-002
2.746252e+003;6.049930e-002
2.748181e+003;6.061129e-002
2.750109e+003;6.111697e-002
2.752038e+003;6.166097e-002
2.753967e+003;6.192841e-002
2.755895e+003;6.198287e-002
2.757824e+003;6.204138e-002
2.759752e+003;6.241206e-002
2.761681e+003;6.259825e-002
2.763609e+003;6.253564e-002
2.765538e+003;6.286195e-002
2.767466e+003;6.325449e-002
2.769395e+003;6.338298e-002
2.771323e+003;6.361642e-002
2.773252e+003;6.439966e-002
2.775181e+003;6.502806e-002
2.777109e+003;6.499978e-002
2.779038e+003;6.516217e-002
2.780966e+003;6.549454e-002
2.782895e+003;6.599591e-002
2.784823e+003;6.667716e-002
2.786752e+003;6.723901e-002
2.788680e+003;6.746849e-002
2.790609e+003;6.790439e-002
2.792538e+003;6.855838e-002
2.794466e+003;6.897265e-002
2.796395e+003;6.918087e-002
2.798323e+003;6.987858e-002
2.800252e+003;7.082742e-002
2.802180e+003;7.162285e-002
2.804109e+003;7.226963e-002
2.806037e+003;7.267711e-002
2.807966e+003;7.319776e-002
2.809895e+003;7.388955e-002
2.811823e+003;7.465644e-002
2.813751e+003;7.540006e-002
2.815680e+003;7.621615e-002
2.817609e+003;7.690541e-002
2.819537e+003;7.776793e-002
2.821466e+003;7.879501e-002
2.823394e+003;7.967204e-002
2.825323e+003;8.078388e-002
2.827251e+003;8.178845e-002
2.829180e+003;8.273461e-002
2.831108e+003;8.402103e-002
2.833037e+003;8.544966e-002
2.834966e+003;8.683801e-002
2.836894e+003;8.851317e-002
2.838823e+003;9.051099e-002
2.840751e+003;9.251465e-002
2.842680e+003;9.485812e-002
2.844608e+003;9.758805e-002
2.846537e+003;1.001979e-001
2.848465e+003;1.030078e-001
2.850394e+003;1.061160e-001
2.852323e+003;1.086755e-001
2.854251e+003;1.102907e-001
2.856180e+003;1.115796e-001
2.858108e+003;1.129006e-001
2.860037e+003;1.143444e-001
2.861965e+003;1.155438e-001
2.863894e+003;1.164131e-001
2.865822e+003;1.173721e-001
2.867751e+003;1.185191e-001
2.869679e+003;1.198501e-001
2.871608e+003;1.210081e-001
2.873536e+003;1.223589e-001
2.875465e+003;1.235669e-001
2.877394e+003;1.241431e-001
2.879322e+003;1.248472e-001
2.881251e+003;1.257696e-001
2.883179e+003;1.263347e-001
2.885108e+003;1.266742e-001
2.887036e+003;1.270270e-001
2.888965e+003;1.275783e-001
2.890893e+003;1.286524e-001
2.892822e+003;1.294354e-001
2.894750e+003;1.295326e-001
2.896679e+003;1.295461e-001
2.898608e+003;1.299148e-001
2.900536e+003;1.300147e-001
2.902465e+003;1.300198e-001
2.904393e+003;1.298119e-001
2.906322e+003;1.292716e-001
2.908250e+003;1.286976e-001
2.910179e+003;1.277102e-001
2.912107e+003;1.265279e-001
2.914036e+003;1.255899e-001
2.915965e+003;1.248668e-001
2.917893e+003;1.243923e-001
2.919822e+003;1.239819e-001
2.921750e+003;1.229200e-001
2.923679e+003;1.219519e-001
2.925607e+003;1.208049e-001
2.927536e+003;1.191528e-001
2.929464e+003;1.171949e-001
2.931393e+003;1.154905e-001
2.933322e+003;1.140405e-001
2.935250e+003;1.123557e-001
2.937178e+003;1.106281e-001
2.939107e+003;1.090744e-001
2.941036e+003;1.080582e-001
2.942964e+003;1.071829e-001
2.944893e+003;1.052238e-001
2.946821e+003;1.032911e-001
2.948750e+003;1.017286e-001
2.950678e+003;9.973395e-002
2.952607e+003;9.768169e-002
2.954535e+003;9.612040e-002
2.956464e+003;9.480708e-002
2.958393e+003;9.316377e-002
2.960321e+003;9.089794e-002
2.962250e+003;8.917589e-002
2.964178e+003;8.822438e-002
2.966107e+003;8.724000e-002
2.968035e+003;8.602810e-002
2.969964e+003;8.464427e-002
2.971892e+003;8.289976e-002
2.973821e+003;8.145165e-002
2.975750e+003;8.002271e-002
2.977678e+003;7.820969e-002
2.979607e+003;7.658871e-002
2.981535e+003;7.511538e-002
2.983464e+003;7.374930e-002
2.985392e+003;7.247423e-002
2.987321e+003;7.137506e-002
2.989249e+003;7.026041e-002
2.991178e+003;6.973558e-002
2.993106e+003;6.894387e-002
2.995035e+003;6.782386e-002
2.996964e+003;6.726520e-002
2.998892e+003;6.726520e-002
3.000821e+003;6.731452e-002
3.002749e+003;6.679308e-002
3.004678e+003;6.647663e-002
3.006606e+003;6.662617e-002
3.008535e+003;6.656518e-002
3.010463e+003;6.660249e-002
3.012392e+003;6.666750e-002
3.014321e+003;6.665545e-002
3.016249e+003;6.675459e-002
3.018177e+003;6.719255e-002
3.020106e+003;6.783880e-002
3.022035e+003;6.823812e-002
3.023963e+003;6.838063e-002
3.025892e+003;6.849545e-002
3.027820e+003;6.900120e-002
3.029749e+003;6.985515e-002
3.031677e+003;7.069051e-002
3.033606e+003;7.109519e-002
3.035534e+003;7.128803e-002
3.037463e+003;7.151958e-002
3.039392e+003;7.182847e-002
3.041320e+003;7.239374e-002
3.043249e+003;7.310043e-002
3.045177e+003;7.408442e-002
3.047106e+003;7.486709e-002
3.049034e+003;7.528802e-002
3.050963e+003;7.570095e-002
3.052891e+003;7.622172e-002
3.054820e+003;7.716753e-002
3.056749e+003;7.806622e-002
3.058677e+003;7.852940e-002
3.060606e+003;7.900418e-002
3.062534e+003;7.957668e-002
3.064463e+003;8.065089e-002
3.066391e+003;8.176809e-002
3.068320e+003;8.199906e-002
3.070248e+003;8.264922e-002
3.072177e+003;8.361297e-002
3.074105e+003;8.449633e-002
3.076034e+003;8.510809e-002
3.077963e+003;8.585513e-002
3.079891e+003;8.694388e-002
3.081820e+003;8.780602e-002
3.083748e+003;8.832166e-002
3.085677e+003;8.886032e-002
3.087605e+003;8.959651e-002
3.089534e+003;9.053585e-002
3.091462e+003;9.131540e-002
3.093391e+003;9.207809e-002
3.095320e+003;9.275145e-002
3.097248e+003;9.343100e-002
3.099177e+003;9.388734e-002
3.101105e+003;9.483763e-002
3.103034e+003;9.564081e-002
3.104962e+003;9.666013e-002
3.106891e+003;9.822211e-002
3.108819e+003;9.963524e-002
3.110748e+003;1.005463e-001
3.112677e+003;1.013772e-001
3.114605e+003;1.021465e-001
3.116533e+003;1.026873e-001
3.118462e+003;1.030823e-001
3.120391e+003;1.038194e-001
3.122319e+003;1.049493e-001
3.124248e+003;1.060297e-001
3.126176e+003;1.070409e-001
3.128105e+003;1.082023e-001
3.130033e+003;1.090609e-001
3.131962e+003;1.097328e-001
3.133890e+003;1.110428e-001
3.135819e+003;1.118985e-001
3.137748e+003;1.124271e-001
3.139676e+003;1.134390e-001
3.141605e+003;1.143871e-001
3.143533e+003;1.155692e-001
3.145462e+003;1.168583e-001
3.147390e+003;1.177999e-001
3.149319e+003;1.187547e-001
3.151247e+003;1.195881e-001
3.153176e+003;1.201456e-001
3.155104e+003;1.208427e-001
3.157033e+003;1.217756e-001
3.158962e+003;1.226057e-001
3.160890e+003;1.235940e-001
3.162819e+003;1.248116e-001
3.164747e+003;1.259432e-001
3.166676e+003;1.270066e-001
3.168604e+003;1.278917e-001
3.170533e+003;1.284028e-001
3.172461e+003;1.294246e-001
3.174390e+003;1.306892e-001
3.176319e+003;1.317151e-001
3.178247e+003;1.324977e-001
3.180176e+003;1.331514e-001
3.182104e+003;1.337321e-001
3.184033e+003;1.350105e-001
3.185961e+003;1.367228e-001
3.187890e+003;1.378974e-001
3.189818e+003;1.384874e-001
3.191747e+003;1.392544e-001
3.193676e+003;1.405910e-001
3.195604e+003;1.415727e-001
3.197532e+003;1.420566e-001
3.199461e+003;1.432772e-001
3.201390e+003;1.446172e-001
3.203318e+003;1.454238e-001
3.205247e+003;1.465733e-001
3.207175e+003;1.478441e-001
3.209104e+003;1.490104e-001
3.211032e+003;1.496864e-001
3.212961e+003;1.507577e-001
3.214889e+003;1.520747e-001
3.216818e+003;1.529515e-001
3.218747e+003;1.535718e-001
3.220675e+003;1.543834e-001
3.222604e+003;1.555110e-001
3.224532e+003;1.570388e-001
3.226461e+003;1.581545e-001
3.228389e+003;1.592077e-001
3.230318e+003;1.603748e-001
3.232246e+003;1.611152e-001
3.234175e+003;1.616254e-001
3.236104e+003;1.627382e-001
3.238032e+003;1.642337e-001
3.239961e+003;1.652799e-001
3.241889e+003;1.660221e-001
3.243818e+003;1.670584e-001
3.245746e+003;1.684822e-001
3.247675e+003;1.701792e-001
3.249603e+003;1.715313e-001
3.251532e+003;1.729315e-001
3.253460e+003;1.745241e-001
3.255389e+003;1.754217e-001
3.257318e+003;1.761267e-001
3.259246e+003;1.769827e-001
3.261175e+003;1.778357e-001
3.263103e+003;1.782226e-001
3.265032e+003;1.787825e-001
3.266960e+003;1.800524e-001
3.268889e+003;1.813239e-001
3.270817e+003;1.820040e-001
3.272746e+003;1.821640e-001
3.274675e+003;1.830810e-001
3.276603e+003;1.833093e-001
3.278531e+003;1.834326e-001
3.280460e+003;1.842044e-001
3.282389e+003;1.843517e-001
3.284317e+003;1.841618e-001
3.286246e+003;1.841310e-001
3.288174e+003;1.840477e-001
3.290103e+003;1.839619e-001
3.292031e+003;1.846432e-001
3.293960e+003;1.850742e-001
3.295888e+003;1.853931e-001
3.297817e+003;1.858023e-001
3.299746e+003;1.860587e-001
3.301674e+003;1.858554e-001
3.303603e+003;1.853483e-001
3.305531e+003;1.859779e-001
3.307460e+003;1.869764e-001
3.309388e+003;1.873664e-001
3.311317e+003;1.875057e-001
3.313245e+003;1.883623e-001
3.315174e+003;1.895956e-001
3.317103e+003;1.899730e-001
3.319031e+003;1.901174e-001
3.320960e+003;1.902818e-001
3.322888e+003;1.899444e-001
3.324817e+003;1.902028e-001
3.326745e+003;1.905957e-001
3.328674e+003;1.900480e-001
3.330602e+003;1.895297e-001
3.332531e+003;1.891813e-001
3.334459e+003;1.884136e-001
3.336388e+003;1.882465e-001
3.338317e+003;1.880572e-001
3.340245e+003;1.870706e-001
3.342174e+003;1.859739e-001
3.344102e+003;1.849538e-001
3.346031e+003;1.837332e-001
3.347959e+003;1.828891e-001
3.349888e+003;1.823109e-001
3.351816e+003;1.816390e-001
3.353745e+003;1.807640e-001
3.355674e+003;1.800269e-001
3.357602e+003;1.796329e-001
3.359531e+003;1.788182e-001
3.361459e+003;1.778787e-001
3.363388e+003;1.769590e-001
3.365316e+003;1.757942e-001
3.367245e+003;1.754249e-001
3.369173e+003;1.753241e-001
3.371102e+003;1.746694e-001
3.373031e+003;1.739906e-001
3.374959e+003;1.733329e-001
3.376887e+003;1.723543e-001
3.378816e+003;1.714991e-001
3.380745e+003;1.708695e-001
3.382673e+003;1.698316e-001
3.384602e+003;1.690702e-001
3.386530e+003;1.686126e-001
3.388459e+003;1.682681e-001
3.390387e+003;1.675701e-001
3.392316e+003;1.666878e-001
3.394244e+003;1.659494e-001
3.396173e+003;1.657345e-001
3.398102e+003;1.654768e-001
3.400030e+003;1.646306e-001
3.401959e+003;1.631305e-001
3.403887e+003;1.620018e-001
3.405816e+003;1.610079e-001
3.407744e+003;1.598411e-001
3.409673e+003;1.587849e-001
3.411601e+003;1.580950e-001
3.413530e+003;1.568696e-001
3.415458e+003;1.551398e-001
3.417387e+003;1.538058e-001
3.419316e+003;1.525356e-001
3.421244e+003;1.513662e-001
3.423173e+003;1.508493e-001
3.425101e+003;1.500624e-001
3.427030e+003;1.491137e-001
3.428958e+003;1.483098e-001
3.430887e+003;1.470566e-001
3.432815e+003;1.458065e-001
3.434744e+003;1.448063e-001
3.436673e+003;1.437724e-001
3.438601e+003;1.419661e-001
3.440530e+003;1.405183e-001
3.442458e+003;1.399378e-001
3.444387e+003;1.395537e-001
3.446315e+003;1.384399e-001
3.448244e+003;1.372649e-001
3.450172e+003;1.365758e-001
3.452101e+003;1.354286e-001
3.454030e+003;1.338327e-001
3.455958e+003;1.322618e-001
3.457886e+003;1.310564e-001
3.459815e+003;1.297913e-001
3.461744e+003;1.285074e-001
3.463672e+003;1.275283e-001
3.465601e+003;1.264347e-001
3.467529e+003;1.255302e-001
3.469458e+003;1.240471e-001
3.471386e+003;1.229519e-001
3.473315e+003;1.217473e-001
3.475243e+003;1.200601e-001
3.477172e+003;1.190793e-001
3.479101e+003;1.176144e-001
3.481029e+003;1.159630e-001
3.482958e+003;1.144919e-001
3.484886e+003;1.133222e-001
3.486815e+003;1.122961e-001
3.488743e+003;1.111313e-001
3.490672e+003;1.100558e-001
3.492600e+003;1.089095e-001
3.494529e+003;1.076787e-001
3.496458e+003;1.066807e-001
3.498386e+003;1.051847e-001
3.500315e+003;1.037584e-001
3.502243e+003;1.023269e-001
3.504172e+003;1.013490e-001
3.506100e+003;1.002754e-001
3.508029e+003;9.891410e-002
3.509957e+003;9.795358e-002
3.511886e+003;9.661195e-002
3.513814e+003;9.545204e-002
3.515743e+003;9.403379e-002
3.517672e+003;9.280196e-002
3.519600e+003;9.200306e-002
3.521529e+003;9.028626e-002
3.523457e+003;8.858991e-002
3.525386e+003;8.810415e-002
3.527314e+003;8.739172e-002
3.529243e+003;8.598945e-002
3.531171e+003;8.462213e-002
3.533100e+003;8.290393e-002
3.535029e+003;8.127847e-002
3.536957e+003;7.982743e-002
3.538885e+003;7.878857e-002
3.540814e+003;7.763927e-002
3.542743e+003;7.578198e-002
3.544671e+003;7.450305e-002
3.546600e+003;7.340118e-002
3.548528e+003;7.250237e-002
3.550457e+003;7.135832e-002
3.552385e+003;6.978051e-002
3.554314e+003;6.859645e-002
3.556242e+003;6.753534e-002
3.558171e+003;6.637157e-002
3.560100e+003;6.492420e-002
3.562028e+003;6.310779e-002
3.563957e+003;6.129520e-002
3.565885e+003;5.889796e-002
3.567814e+003;5.746935e-002
3.569742e+003;5.693102e-002
3.571671e+003;5.637506e-002
3.573599e+003;5.588109e-002
3.575528e+003;5.488226e-002
3.577457e+003;5.287597e-002
3.579385e+003;5.140273e-002
3.581314e+003;5.063084e-002
3.583242e+003;4.945248e-002
3.585171e+003;4.700608e-002
3.587099e+003;4.465692e-002
3.589028e+003;4.422550e-002
3.590956e+003;4.388482e-002
3.592885e+003;4.200727e-002
3.594813e+003;4.070439e-002
3.596742e+003;4.003813e-002
3.598671e+003;3.880801e-002
3.600599e+003;3.690241e-002
3.602528e+003;3.549124e-002
3.604456e+003;3.510389e-002
3.606385e+003;3.438404e-002
3.608313e+003;3.268333e-002
3.610242e+003;3.150006e-002
3.612170e+003;3.006998e-002
3.614099e+003;2.897128e-002
3.616028e+003;2.810550e-002
3.617956e+003;2.633676e-002
3.619885e+003;2.539962e-002
3.621813e+003;2.514907e-002
3.623742e+003;2.406754e-002
3.625670e+003;2.184587e-002
3.627599e+003;1.836202e-002
3.629527e+003;1.820827e-002
3.631456e+003;2.024220e-002
3.633385e+003;1.997210e-002
3.635313e+003;1.926344e-002
3.637241e+003;1.831964e-002
3.639170e+003;1.762762e-002
3.641099e+003;1.727448e-002
3.643027e+003;1.596926e-002
3.644956e+003;1.395352e-002
3.646884e+003;1.158033e-002
3.648813e+003;9.635825e-003
3.650741e+003;1.063412e-002
3.652670e+003;1.233460e-002
3.654598e+003;1.055073e-002
3.656527e+003;9.229418e-003
3.658456e+003;1.054201e-002
3.660384e+003;1.090061e-002
3.662313e+003;1.044303e-002
3.664241e+003;9.547684e-003
3.666170e+003;7.814571e-003
3.668098e+003;5.246127e-003
3.670027e+003;4.087806e-003
3.671955e+003;5.168061e-003
3.673884e+003;3.448662e-003
3.675813e+003;2.544246e-003
3.677741e+003;5.292679e-003
3.679669e+003;6.485365e-003
3.681598e+003;6.598419e-003
3.683527e+003;6.361111e-003
3.685455e+003;4.889443e-003
3.687384e+003;1.697090e-003
3.689312e+003;1.249657e-003
3.691241e+003;3.416802e-003
3.693169e+003;5.047401e-003
3.695098e+003;4.977849e-003
3.697026e+003;4.712584e-003
3.698955e+003;4.589505e-003
3.700884e+003;4.060481e-003
3.702812e+003;3.786216e-003
3.704741e+003;3.647795e-003
3.706669e+003;3.308947e-003
3.708598e+003;1.479999e-003
3.710526e+003;-5.810473e-004
3.712455e+003;1.424335e-004
3.714383e+003;2.778310e-003
3.716312e+003;3.262774e-003
3.718240e+003;2.504054e-003
3.720169e+003;2.074898e-003
3.722098e+003;2.306544e-003
3.724026e+003;2.431910e-003
3.725955e+003;2.177685e-003
3.727883e+003;2.353148e-003
3.729812e+003;1.583676e-003
3.731740e+003;-2.400891e-004
3.733669e+003;-6.843081e-004
3.735597e+003;-1.260113e-003
3.737526e+003;1.483996e-004
3.739455e+003;1.668551e-003
3.741383e+003;6.544466e-005
3.743312e+003;-4.520723e-003
3.745240e+003;-4.066397e-003
3.747169e+003;-2.555221e-003
3.749097e+003;-4.780710e-003
3.751026e+003;-4.278658e-003
3.752954e+003;-1.054568e-003
3.754883e+003;1.354808e-003
3.756812e+003;1.106927e-003
3.758740e+003;7.159205e-004
3.760668e+003;1.500480e-003
3.762597e+003;2.235832e-003
3.764526e+003;1.560464e-003
3.766454e+003;1.351484e-003
3.768383e+003;4.517524e-004
3.770311e+003;5.535918e-004
3.772240e+003;1.707502e-003
3.774168e+003;1.909365e-003
3.776097e+003;1.476142e-003
3.778025e+003;7.695568e-004
3.779954e+003;1.114800e-003
3.781883e+003;2.263643e-003
3.783811e+003;2.606142e-003
3.785740e+003;2.561111e-003
3.787668e+003;2.211453e-003
3.789597e+003;2.328863e-003
3.791525e+003;2.512985e-003
3.793454e+003;2.307344e-003
3.795382e+003;1.168585e-003
3.797311e+003;7.728761e-004
3.799240e+003;-5.597700e-004
3.801168e+003;-2.080136e-003
3.803097e+003;1.041528e-004
3.805025e+003;2.640591e-004
3.806954e+003;-4.198703e-004
3.808882e+003;1.017611e-003
3.810811e+003;1.824676e-003
3.812739e+003;1.348460e-003
3.814668e+003;-1.032851e-003
3.816596e+003;-1.219673e-003
3.818525e+003;-3.061169e-004
3.820454e+003;-1.412326e-003
3.822382e+003;-1.576563e-004
3.824311e+003;1.209817e-003
3.826239e+003;1.090085e-003
3.828168e+003;1.594717e-003
3.830096e+003;1.382895e-003
3.832025e+003;3.732828e-004
3.833953e+003;-5.634762e-004
3.835882e+003;-2.036671e-003
3.837811e+003;-2.952588e-003
3.839739e+003;-1.189604e-003
3.841667e+003;1.997779e-004
3.843596e+003;1.588032e-003
3.845525e+003;2.666380e-003
3.847453e+003;2.143853e-003
3.849382e+003;2.464546e-004
3.851310e+003;-3.610937e-003
3.853239e+003;-5.952569e-003
3.855167e+003;-1.783352e-003
3.857096e+003;2.023597e-003
3.859024e+003;2.651178e-003
3.860953e+003;2.223076e-003
3.862882e+003;1.327953e-003
3.864810e+003;1.016515e-003
3.866739e+003;1.641444e-003
3.868667e+003;5.883619e-004
3.870596e+003;8.204111e-004
3.872524e+003;1.908600e-003
3.874453e+003;2.102499e-003
3.876381e+003;2.225274e-003
3.878310e+003;1.909665e-003
3.880239e+003;2.002593e-003
3.882167e+003;2.691251e-003
3.884096e+003;1.280362e-003
3.886024e+003;8.217058e-004
3.887953e+003;1.869198e-003
3.889881e+003;1.431560e-003
3.891810e+003;1.735013e-003
3.893738e+003;2.849478e-003
3.895667e+003;3.529761e-003
3.897595e+003;2.685083e-003
3.899524e+003;1.498884e-003
3.901453e+003;1.289235e-003
3.903381e+003;9.531186e-004
3.905310e+003;2.080425e-003
3.907238e+003;3.683014e-003
3.909167e+003;3.610340e-003
3.911095e+003;3.299298e-003
3.913024e+003;3.215839e-003
3.914952e+003;2.454768e-003
3.916881e+003;1.926971e-003
3.918810e+003;2.582976e-003
3.920738e+003;3.547900e-003
3.922667e+003;3.492683e-003
3.924595e+003;3.183695e-003
3.926524e+003;3.339597e-003
3.928452e+003;3.068624e-003
3.930381e+003;2.748533e-003
3.932309e+003;3.208529e-003
3.934238e+003;4.269831e-003
3.936167e+003;4.672157e-003
3.938095e+003;4.449255e-003
3.940023e+003;4.302893e-003
3.941952e+003;4.087405e-003
3.943881e+003;3.886800e-003
3.945809e+003;3.924714e-003
3.947738e+003;3.829803e-003
3.949666e+003;4.242160e-003
3.951595e+003;5.149687e-003
3.953523e+003;5.058295e-003
3.955452e+003;4.703172e-003
3.957380e+003;4.599552e-003
3.959309e+003;4.429606e-003
3.961238e+003;4.540652e-003
3.963166e+003;4.962466e-003
3.965095e+003;5.200117e-003
3.967023e+003;4.782863e-003
3.968952e+003;4.679090e-003
3.970880e+003;4.612879e-003
3.972809e+003;4.524313e-003
3.974737e+003;4.698014e-003
3.976666e+003;4.950334e-003
3.978594e+003;5.212190e-003
3.980523e+003;5.127423e-003
3.982452e+003;4.975336e-003
3.984380e+003;5.045289e-003
3.986309e+003;4.898726e-003
3.988237e+003;5.139628e-003
3.990166e+003;5.299421e-003
3.992094e+003;5.316225e-003
3.994023e+003;5.256759e-003
3.995951e+003;5.497759e-003
3.997880e+003;5.825726e-003
3.999809e+003;6.169435e-003
4.001737e+003;0.000000e+000
