3.992094e+002;0.000000e+000
4.011380e+002;0.000000e+000
4.030665e+002;0.000000e+000
4.049951e+002;0.000000e+000
4.069236e+002;0.000000e+000
4.088522e+002;0.000000e+000
4.107807e+002;0.000000e+000
4.127093e+002;0.000000e+000
4.146378e+002;0.000000e+000
4.165664e+002;0.000000e+000
4.184949e+002;0.000000e+000
4.204235e+002;0.000000e+000
4.223520e+002;0.000000e+000
4.242806e+002;0.000000e+000
4.262091e+002;0.000000e+000
4.281377e+002;0.000000e+000
4.300662e+002;0.000000e+000
4.319948e+002;0.000000e+000
4.339233e+002;0.000000e+000
4.358519e+002;0.000000e+000
4.377804e+002;0.000000e+000
4.397090e+002;0.000000e+000
4.416375e+002;0.000000e+000
4.435660e+002;0.000000e+000
4.454946e+002;0.000000e+000
4.474232e+002;0.000000e+000
4.493517e+002;0.000000e+000
4.512802e+002;0.000000e+000
4.532088e+002;0.000000e+000
4.551373e+002;0.000000e+000
4.570659e+002;0.000000e+000
4.589944e+002;0.000000e+000
4.609230e+002;0.000000e+000
4.628515e+002;0.000000e+000
4.647801e+002;0.000000e+000
4.667086e+002;0.000000e+000
4.686372e+002;0.000000e+000
4.705657e+002;0.000000e+000
4.724943e+002;0.000000e+000
4.744228e+002;0.000000e+000
4.763513e+002;0.000000e+000
4.782799e+002;0.000000e+000
4.802085e+002;0.000000e+000
4.821370e+002;0.000000e+000
4.840656e+002;0.000000e+000
4.859941e+002;0.000000e+000
4.879226e+002;0.000000e+000
4.898512e+002;0.000000e+000
4.917798e+002;0.000000e+000
4.937083e+002;0.000000e+000
4.956368e+002;0.000000e+000
4.975654e+002;0.000000e+000
4.994939e+002;0.000000e+000
5.014225e+002;0.000000e+000
5.033510e+002;0.000000e+000
5.052796e+002;0.000000e+000
5.072081e+002;0.000000e+000
5.091367e+002;0.000000e+000
5.110652e+002;0.000000e+000
5.129938e+002;0.000000e+000
5.149223e+002;0.000000e+000
5.168509e+002;0.000000e+000
5.187794e+002;0.000000e+000
5.207079e+002;0.000000e+000
5.226365e+002;0.000000e+000
5.245651e+002;0.000000e+000
5.264936e+002;0.000000e+000
5.284222e+002;0.000000e+000
5.303507e+002;0.000000e+000
5.322792e+002;0.000000e+000
5.342078e+002;0.000000e+000
5.361364e+002;0.000000e+000
5.380649e+002;0.000000e+000
5.399935e+002;0.000000e+000
5.419220e+002;0.000000e+000
5.438505e+002;0.000000e+000
5.457791e+002;0.000000e+000
5.477076e+002;0.000000e+000
5.496362e+002;0.000000e+000
5.515648e+002;0.000000e+000
5.534933e+002;0.000000e+000
5.554218e+002;0.000000e+000
5.573504e+002;0.000000e+000
5.592789e+002;0.000000e+000
5.612075e+002;0.000000e+000
5.631360e+002;0.000000e+000
5.650646e+002;0.000000e+000
5.669931e+002;0.000000e+000
5.689217e+002;0.000000e+000
5.708502e+002;0.000000e+000
5.727787e+002;0.000000e+000
5.747073e+002;0.000000e+000
5.766359e+002;0.000000e+000
5.785644e+002;0.000000e+000
5.804930e+002;0.000000e+000
5.824215e+002;0.000000e+000
5.843500e+002;0.000000e+000
5.862786e+002;0.000000e+000
5.882072e+002;0.000000e+000
5.901357e+002;0.000000e+000
5.920643e+002;0.000000e+000
5.939928e+002;0.000000e+000
5.959213e+002;0.000000e+000
5.978499e+002;0.000000e+000
5.997784e+002;2.831633e-001
6.017070e+002;2.731917e-001
6.036355e+002;2.707861e-001
6.055641e+002;2.767242e-001
6.074926e+002;2.784647e-001
6.094211e+002;2.820354e-001
6.113497e+002;2.822524e-001
6.132783e+002;2.772938e-001
6.152068e+002;2.739699e-001
6.171354e+002;2.722435e-001
6.190639e+002;2.691585e-001
6.209924e+002;2.665114e-001
6.229210e+002;2.587685e-001
6.248495e+002;2.583744e-001
6.267781e+002;2.550675e-001
6.287067e+002;2.476372e-001
6.306352e+002;2.483996e-001
6.325637e+002;2.461856e-001
6.344923e+002;2.373390e-001
6.364208e+002;2.327273e-001
6.383494e+002;2.319231e-001
6.402780e+002;2.333851e-001
6.422065e+002;2.321768e-001
6.441350e+002;2.297688e-001
6.460636e+002;2.278430e-001
6.479921e+002;2.280992e-001
6.499207e+002;2.304057e-001
6.518492e+002;2.298268e-001
6.537778e+002;2.324726e-001
6.557063e+002;2.386800e-001
6.576349e+002;2.428780e-001
6.595634e+002;2.471174e-001
6.614919e+002;2.525646e-001
6.634205e+002;2.563990e-001
6.653491e+002;2.551705e-001
6.672776e+002;2.507407e-001
6.692062e+002;2.455607e-001
6.711347e+002;2.394235e-001
6.730632e+002;2.339860e-001
6.749918e+002;2.270800e-001
6.769203e+002;2.188119e-001
6.788489e+002;2.133325e-001
6.807775e+002;2.102608e-001
6.827060e+002;2.085009e-001
6.846345e+002;2.069651e-001
6.865631e+002;2.046840e-001
6.884916e+002;2.030743e-001
6.904202e+002;2.014694e-001
6.923488e+002;2.017489e-001
6.942773e+002;2.016274e-001
6.962058e+002;2.000779e-001
6.981344e+002;2.002946e-001
7.000629e+002;2.008799e-001
7.019915e+002;1.994575e-001
7.039200e+002;1.971621e-001
7.058486e+002;1.958630e-001
7.077771e+002;1.942397e-001
7.097057e+002;1.917737e-001
7.116342e+002;1.890246e-001
7.135627e+002;1.854015e-001
7.154913e+002;1.820373e-001
7.174199e+002;1.789469e-001
7.193484e+002;1.758017e-001
7.212770e+002;1.727037e-001
7.232055e+002;1.690274e-001
7.251340e+002;1.654200e-001
7.270626e+002;1.618414e-001
7.289911e+002;1.588559e-001
7.309197e+002;1.559427e-001
7.328483e+002;1.540364e-001
7.347768e+002;1.522224e-001
7.367053e+002;1.505133e-001
7.386339e+002;1.488514e-001
7.405624e+002;1.466664e-001
7.424910e+002;1.454380e-001
7.444196e+002;1.452677e-001
7.463481e+002;1.442032e-001
7.482766e+002;1.421666e-001
7.502052e+002;1.395319e-001
7.521337e+002;1.368435e-001
7.540623e+002;1.360729e-001
7.559908e+002;1.357496e-001
7.579194e+002;1.344890e-001
7.598479e+002;1.328396e-001
7.617765e+002;1.314764e-001
7.637050e+002;1.309661e-001
7.656335e+002;1.302485e-001
7.675621e+002;1.294205e-001
7.694907e+002;1.283845e-001
7.714192e+002;1.274273e-001
7.733478e+002;1.263382e-001
7.752763e+002;1.252500e-001
7.772048e+002;1.251089e-001
7.791334e+002;1.254608e-001
7.810620e+002;1.244924e-001
7.829905e+002;1.235796e-001
7.849191e+002;1.233852e-001
7.868476e+002;1.221701e-001
7.887761e+002;1.202493e-001
7.907047e+002;1.189177e-001
7.926332e+002;1.181168e-001
7.945618e+002;1.163848e-001
7.964903e+002;1.140207e-001
7.984189e+002;1.132334e-001
8.003474e+002;1.133337e-001
8.022759e+002;1.131844e-001
8.042045e+002;1.131187e-001
8.061331e+002;1.130020e-001
8.080616e+002;1.131631e-001
8.099902e+002;1.133442e-001
8.119187e+002;1.130431e-001
8.138472e+002;1.125066e-001
8.157758e+002;1.120117e-001
8.177043e+002;1.118905e-001
8.196329e+002;1.119781e-001
8.215615e+002;1.122490e-001
8.234900e+002;1.124693e-001
8.254185e+002;1.128770e-001
8.273471e+002;1.134514e-001
8.292756e+002;1.140558e-001
8.312042e+002;1.148710e-001
8.331328e+002;1.148491e-001
8.350613e+002;1.142953e-001
8.369898e+002;1.145531e-001
8.389184e+002;1.154814e-001
8.408469e+002;1.160114e-001
8.427755e+002;1.161292e-001
8.447040e+002;1.164774e-001
8.466326e+002;1.170295e-001
8.485611e+002;1.174020e-001
8.504897e+002;1.177095e-001
8.524182e+002;1.183411e-001
8.543467e+002;1.183440e-001
8.562753e+002;1.185813e-001
8.582039e+002;1.203993e-001
8.601324e+002;1.221659e-001
8.620610e+002;1.232562e-001
8.639895e+002;1.247006e-001
8.659180e+002;1.265819e-001
8.678466e+002;1.286597e-001
8.697751e+002;1.313712e-001
8.717037e+002;1.338440e-001
8.736323e+002;1.357338e-001
8.755608e+002;1.379022e-001
8.774893e+002;1.409308e-001
8.794179e+002;1.436069e-001
8.813464e+002;1.462268e-001
8.832750e+002;1.495980e-001
8.852036e+002;1.528514e-001
8.871321e+002;1.557645e-001
8.890606e+002;1.586827e-001
8.909892e+002;1.618358e-001
8.929177e+002;1.649079e-001
8.948463e+002;1.666114e-001
8.967748e+002;1.670008e-001
8.987034e+002;1.669588e-001
9.006319e+002;1.662171e-001
9.025605e+002;1.646097e-001
9.044890e+002;1.625914e-001
9.064175e+002;1.605385e-001
9.083461e+002;1.582466e-001
9.102747e+002;1.562533e-001
9.122032e+002;1.546158e-001
9.141318e+002;1.532958e-001
9.160603e+002;1.523584e-001
9.179888e+002;1.521320e-001
9.199174e+002;1.526327e-001
9.218459e+002;1.533086e-001
9.237745e+002;1.542203e-001
9.257031e+002;1.555588e-001
9.276316e+002;1.571975e-001
9.295601e+002;1.590322e-001
9.314887e+002;1.605378e-001
9.334172e+002;1.622713e-001
9.353458e+002;1.641198e-001
9.372744e+002;1.659612e-001
9.392029e+002;1.681317e-001
9.411314e+002;1.708984e-001
9.430600e+002;1.735377e-001
9.449885e+002;1.762186e-001
9.469171e+002;1.792793e-001
9.488456e+002;1.827865e-001
9.507742e+002;1.874322e-001
9.527027e+002;1.925239e-001
9.546313e+002;1.974183e-001
9.565598e+002;2.025337e-001
9.584883e+002;2.080506e-001
9.604169e+002;2.143497e-001
9.623455e+002;2.209334e-001
9.642740e+002;2.272483e-001
9.662026e+002;2.340661e-001
9.681311e+002;2.423713e-001
9.700596e+002;2.522461e-001
9.719882e+002;2.637471e-001
9.739167e+002;2.769635e-001
9.758453e+002;2.922329e-001
9.777739e+002;3.095296e-001
9.797024e+002;3.282244e-001
9.816309e+002;3.451223e-001
9.835595e+002;3.561620e-001
9.854880e+002;3.612129e-001
9.874166e+002;3.631443e-001
9.893452e+002;3.650244e-001
9.912737e+002;3.695724e-001
9.932022e+002;3.768417e-001
9.951307e+002;3.848370e-001
9.970593e+002;3.931214e-001
9.989879e+002;4.003956e-001
1.000916e+003;4.054690e-001
1.002845e+003;4.087541e-001
1.004773e+003;4.092877e-001
1.006702e+003;4.089563e-001
1.008631e+003;4.100914e-001
1.010559e+003;4.125580e-001
1.012488e+003;4.165425e-001
1.014416e+003;4.215002e-001
1.016345e+003;4.263369e-001
1.018273e+003;4.329612e-001
1.020202e+003;4.401299e-001
1.022130e+003;4.465579e-001
1.024059e+003;4.539891e-001
1.025988e+003;4.615213e-001
1.027916e+003;4.669807e-001
1.029845e+003;4.691586e-001
1.031773e+003;4.667903e-001
1.033702e+003;4.599199e-001
1.035630e+003;4.500930e-001
1.037559e+003;4.397857e-001
1.039487e+003;4.309666e-001
1.041416e+003;4.275368e-001
1.043344e+003;4.288770e-001
1.045273e+003;4.325880e-001
1.047202e+003;4.377699e-001
1.049130e+003;4.433527e-001
1.051059e+003;4.470474e-001
1.052987e+003;4.476906e-001
1.054916e+003;4.438858e-001
1.056844e+003;4.357765e-001
1.058773e+003;4.220690e-001
1.060701e+003;4.023362e-001
1.062630e+003;3.798409e-001
1.064558e+003;3.576339e-001
1.066487e+003;3.384772e-001
1.068416e+003;3.233905e-001
1.070344e+003;3.106548e-001
1.072273e+003;3.004169e-001
1.074201e+003;2.933059e-001
1.076130e+003;2.871922e-001
1.078058e+003;2.802203e-001
1.079987e+003;2.748806e-001
1.081915e+003;2.723152e-001
1.083844e+003;2.714949e-001
1.085773e+003;2.716677e-001
1.087701e+003;2.718700e-001
1.089630e+003;2.723219e-001
1.091558e+003;2.735399e-001
1.093487e+003;2.765027e-001
1.095415e+003;2.797303e-001
1.097344e+003;2.827713e-001
1.099272e+003;2.859869e-001
1.101201e+003;2.878725e-001
1.103129e+003;2.881409e-001
1.105058e+003;2.873338e-001
1.106987e+003;2.844711e-001
1.108915e+003;2.793115e-001
1.110844e+003;2.721491e-001
1.112772e+003;2.624292e-001
1.114701e+003;2.496591e-001
1.116629e+003;2.357592e-001
1.118558e+003;2.236898e-001
1.120486e+003;2.136905e-001
1.122415e+003;2.052789e-001
1.124344e+003;1.979670e-001
1.126272e+003;1.907034e-001
1.128201e+003;1.831042e-001
1.130129e+003;1.763450e-001
1.132058e+003;1.708757e-001
1.133986e+003;1.669033e-001
1.135915e+003;1.637233e-001
1.137843e+003;1.616369e-001
1.139772e+003;1.616908e-001
1.141700e+003;1.640547e-001
1.143629e+003;1.668488e-001
1.145557e+003;1.689462e-001
1.147486e+003;1.704323e-001
1.149415e+003;1.714485e-001
1.151343e+003;1.720694e-001
1.153272e+003;1.724754e-001
1.155200e+003;1.725778e-001
1.157129e+003;1.721361e-001
1.159057e+003;1.705140e-001
1.160986e+003;1.670504e-001
1.162914e+003;1.618525e-001
1.164843e+003;1.546062e-001
1.166771e+003;1.463008e-001
1.168700e+003;1.378576e-001
1.170629e+003;1.299488e-001
1.172557e+003;1.235774e-001
1.174486e+003;1.185268e-001
1.176414e+003;1.144764e-001
1.178343e+003;1.114585e-001
1.180271e+003;1.088832e-001
1.182200e+003;1.069582e-001
1.184128e+003;1.060763e-001
1.186057e+003;1.063660e-001
1.187986e+003;1.079606e-001
1.189914e+003;1.101121e-001
1.191843e+003;1.131613e-001
1.193771e+003;1.168742e-001
1.195700e+003;1.199153e-001
1.197628e+003;1.221470e-001
1.199557e+003;1.240274e-001
1.201485e+003;1.250709e-001
1.203414e+003;1.251050e-001
1.205343e+003;1.241645e-001
1.207271e+003;1.220888e-001
1.209200e+003;1.182887e-001
1.211128e+003;1.137207e-001
1.213057e+003;1.102672e-001
1.214985e+003;1.086366e-001
1.216914e+003;1.089167e-001
1.218842e+003;1.102968e-001
1.220771e+003;1.116344e-001
1.222699e+003;1.131945e-001
1.224628e+003;1.155490e-001
1.226557e+003;1.178943e-001
1.228485e+003;1.201762e-001
1.230414e+003;1.221574e-001
1.232342e+003;1.235278e-001
1.234271e+003;1.242778e-001
1.236199e+003;1.248236e-001
1.238128e+003;1.254804e-001
1.240056e+003;1.259320e-001
1.241985e+003;1.263580e-001
1.243913e+003;1.272742e-001
1.245842e+003;1.286801e-001
1.247771e+003;1.294278e-001
1.249699e+003;1.290105e-001
1.251628e+003;1.285562e-001
1.253556e+003;1.277987e-001
1.255485e+003;1.267899e-001
1.257413e+003;1.261062e-001
1.259342e+003;1.249439e-001
1.261270e+003;1.239991e-001
1.263199e+003;1.239658e-001
1.265127e+003;1.246987e-001
1.267056e+003;1.264372e-001
1.268985e+003;1.287167e-001
1.270913e+003;1.307939e-001
1.272842e+003;1.323669e-001
1.274770e+003;1.334550e-001
1.276699e+003;1.340136e-001
1.278627e+003;1.340941e-001
1.280556e+003;1.333791e-001
1.282484e+003;1.319664e-001
1.284413e+003;1.307948e-001
1.286342e+003;1.301935e-001
1.288270e+003;1.302651e-001
1.290199e+003;1.311070e-001
1.292127e+003;1.322999e-001
1.294056e+003;1.335502e-001
1.295984e+003;1.350941e-001
1.297913e+003;1.373395e-001
1.299841e+003;1.403922e-001
1.301770e+003;1.440443e-001
1.303698e+003;1.486898e-001
1.305627e+003;1.540877e-001
1.307556e+003;1.597134e-001
1.309484e+003;1.654617e-001
1.311413e+003;1.707862e-001
1.313341e+003;1.744267e-001
1.315270e+003;1.755204e-001
1.317198e+003;1.740045e-001
1.319127e+003;1.706280e-001
1.321055e+003;1.665389e-001
1.322984e+003;1.627178e-001
1.324912e+003;1.596934e-001
1.326841e+003;1.579340e-001
1.328770e+003;1.576665e-001
1.330698e+003;1.583882e-001
1.332627e+003;1.594504e-001
1.334555e+003;1.597609e-001
1.336484e+003;1.588615e-001
1.338412e+003;1.568617e-001
1.340341e+003;1.540943e-001
1.342269e+003;1.509739e-001
1.344198e+003;1.477517e-001
1.346126e+003;1.448574e-001
1.348055e+003;1.429068e-001
1.349984e+003;1.422367e-001
1.351912e+003;1.427148e-001
1.353841e+003;1.438957e-001
1.355769e+003;1.452663e-001
1.357698e+003;1.463703e-001
1.359626e+003;1.473033e-001
1.361555e+003;1.474291e-001
1.363483e+003;1.465678e-001
1.365412e+003;1.454615e-001
1.367341e+003;1.444787e-001
1.369269e+003;1.434441e-001
1.371198e+003;1.418403e-001
1.373126e+003;1.391322e-001
1.375055e+003;1.356204e-001
1.376983e+003;1.318615e-001
1.378912e+003;1.281777e-001
1.380840e+003;1.248765e-001
1.382769e+003;1.219815e-001
1.384698e+003;1.193016e-001
1.386626e+003;1.170912e-001
1.388555e+003;1.154738e-001
1.390483e+003;1.143506e-001
1.392412e+003;1.133571e-001
1.394340e+003;1.127818e-001
1.396269e+003;1.126765e-001
1.398197e+003;1.130441e-001
1.400126e+003;1.136508e-001
1.402054e+003;1.140160e-001
1.403983e+003;1.141435e-001
1.405911e+003;1.145474e-001
1.407840e+003;1.151595e-001
1.409769e+003;1.155873e-001
1.411697e+003;1.163571e-001
1.413626e+003;1.177655e-001
1.415554e+003;1.193706e-001
1.417483e+003;1.213347e-001
1.419411e+003;1.234106e-001
1.421340e+003;1.252710e-001
1.423268e+003;1.267717e-001
1.425197e+003;1.278007e-001
1.427125e+003;1.284242e-001
1.429054e+003;1.281398e-001
1.430983e+003;1.267464e-001
1.432911e+003;1.246812e-001
1.434840e+003;1.224887e-001
1.436768e+003;1.204372e-001
1.438697e+003;1.187741e-001
1.440625e+003;1.175240e-001
1.442554e+003;1.168317e-001
1.444482e+003;1.166132e-001
1.446411e+003;1.161174e-001
1.448340e+003;1.155677e-001
1.450268e+003;1.153451e-001
1.452197e+003;1.148091e-001
1.454125e+003;1.138024e-001
1.456054e+003;1.124967e-001
1.457982e+003;1.110348e-001
1.459911e+003;1.093469e-001
1.461839e+003;1.074593e-001
1.463768e+003;1.055771e-001
1.465697e+003;1.034753e-001
1.467625e+003;1.012797e-001
1.469554e+003;9.923761e-002
1.471482e+003;9.692638e-002
1.473411e+003;9.473459e-002
1.475339e+003;9.299191e-002
1.477268e+003;9.146769e-002
1.479196e+003;9.044492e-002
1.481125e+003;8.933346e-002
1.483053e+003;8.745971e-002
1.484982e+003;8.515666e-002
1.486911e+003;8.292639e-002
1.488839e+003;8.088510e-002
1.490768e+003;7.925432e-002
1.492696e+003;7.807308e-002
1.494625e+003;7.707287e-002
1.496553e+003;7.634523e-002
1.498482e+003;7.609541e-002
1.500410e+003;7.596222e-002
1.502339e+003;7.545032e-002
1.504267e+003;7.519499e-002
1.506196e+003;7.520090e-002
1.508125e+003;7.513881e-002
1.510053e+003;7.483776e-002
1.511982e+003;7.437515e-002
1.513910e+003;7.396564e-002
1.515839e+003;7.369371e-002
1.517767e+003;7.329064e-002
1.519696e+003;7.262319e-002
1.521624e+003;7.224811e-002
1.523553e+003;7.224263e-002
1.525481e+003;7.194213e-002
1.527410e+003;7.193654e-002
1.529339e+003;7.207209e-002
1.531267e+003;7.205484e-002
1.533196e+003;7.201854e-002
1.535124e+003;7.198331e-002
1.537053e+003;7.185020e-002
1.538981e+003;7.156162e-002
1.540910e+003;7.162593e-002
1.542838e+003;7.183398e-002
1.544767e+003;7.202926e-002
1.546695e+003;7.200400e-002
1.548624e+003;7.198221e-002
1.550553e+003;7.200149e-002
1.552481e+003;7.194780e-002
1.554410e+003;7.193028e-002
1.556338e+003;7.183000e-002
1.558267e+003;7.176792e-002
1.560195e+003;7.219192e-002
1.562124e+003;7.277361e-002
1.564052e+003;7.285683e-002
1.565981e+003;7.294661e-002
1.567910e+003;7.317623e-002
1.569838e+003;7.354991e-002
1.571767e+003;7.373587e-002
1.573695e+003;7.397883e-002
1.575624e+003;7.433517e-002
1.577552e+003;7.475565e-002
1.579481e+003;7.535115e-002
1.581409e+003;7.577791e-002
1.583338e+003;7.595299e-002
1.585266e+003;7.629021e-002
1.587195e+003;7.696767e-002
1.589124e+003;7.755397e-002
1.591052e+003;7.790186e-002
1.592981e+003;7.821020e-002
1.594909e+003;7.873928e-002
1.596838e+003;7.942543e-002
1.598766e+003;7.991875e-002
1.600695e+003;8.041840e-002
1.602623e+003;8.143443e-002
1.604552e+003;8.263391e-002
1.606480e+003;8.351087e-002
1.608409e+003;8.415695e-002
1.610338e+003;8.471386e-002
1.612266e+003;8.529075e-002
1.614195e+003;8.580196e-002
1.616123e+003;8.627772e-002
1.618052e+003;8.688454e-002
1.619980e+003;8.740550e-002
1.621909e+003;8.769941e-002
1.623837e+003;8.782728e-002
1.625766e+003;8.775362e-002
1.627694e+003;8.762363e-002
1.629623e+003;8.755764e-002
1.631552e+003;8.757174e-002
1.633480e+003;8.773310e-002
1.635409e+003;8.784934e-002
1.637337e+003;8.761553e-002
1.639266e+003;8.698849e-002
1.641194e+003;8.661083e-002
1.643123e+003;8.682606e-002
1.645051e+003;8.673640e-002
1.646980e+003;8.615233e-002
1.648909e+003;8.563611e-002
1.650837e+003;8.506878e-002
1.652766e+003;8.439966e-002
1.654694e+003;8.379710e-002
1.656623e+003;8.349384e-002
1.658551e+003;8.310071e-002
1.660480e+003;8.233255e-002
1.662408e+003;8.142560e-002
1.664337e+003;8.060342e-002
1.666266e+003;7.995515e-002
1.668194e+003;7.926840e-002
1.670123e+003;7.840452e-002
1.672051e+003;7.761712e-002
1.673980e+003;7.692384e-002
1.675908e+003;7.632239e-002
1.677837e+003;7.576060e-002
1.679765e+003;7.512719e-002
1.681694e+003;7.441507e-002
1.683622e+003;7.371738e-002
1.685551e+003;7.335623e-002
1.687479e+003;7.301015e-002
1.689408e+003;7.231874e-002
1.691337e+003;7.169811e-002
1.693265e+003;7.112353e-002
1.695194e+003;7.068119e-002
1.697122e+003;7.051567e-002
1.699051e+003;7.007520e-002
1.700979e+003;6.955319e-002
1.702908e+003;6.946830e-002
1.704836e+003;6.929041e-002
1.706765e+003;6.897008e-002
1.708693e+003;6.876170e-002
1.710622e+003;6.845852e-002
1.712551e+003;6.810307e-002
1.714479e+003;6.780038e-002
1.716408e+003;6.755667e-002
1.718336e+003;6.750480e-002
1.720265e+003;6.765532e-002
1.722193e+003;6.783915e-002
1.724122e+003;6.774608e-002
1.726050e+003;6.754328e-002
1.727979e+003;6.772877e-002
1.729908e+003;6.809954e-002
1.731836e+003;6.794500e-002
1.733765e+003;6.766728e-002
1.735693e+003;6.755826e-002
1.737622e+003;6.751746e-002
1.739550e+003;6.708377e-002
1.741479e+003;6.653567e-002
1.743407e+003;6.605054e-002
1.745336e+003;6.555322e-002
1.747265e+003;6.493629e-002
1.749193e+003;6.415716e-002
1.751122e+003;6.387252e-002
1.753050e+003;6.371883e-002
1.754979e+003;6.344391e-002
1.756907e+003;6.307036e-002
1.758836e+003;6.261510e-002
1.760764e+003;6.233591e-002
1.762693e+003;6.212514e-002
1.764621e+003;6.194679e-002
1.766550e+003;6.191275e-002
1.768479e+003;6.174958e-002
1.770407e+003;6.128898e-002
1.772336e+003;6.093725e-002
1.774264e+003;6.093553e-002
1.776193e+003;6.113775e-002
1.778121e+003;6.110045e-002
1.780050e+003;6.096115e-002
1.781978e+003;6.103532e-002
1.783907e+003;6.091578e-002
1.785835e+003;6.066180e-002
1.787764e+003;6.028660e-002
1.789693e+003;6.003656e-002
1.791621e+003;6.005033e-002
1.793550e+003;5.988775e-002
1.795478e+003;5.983173e-002
1.797407e+003;5.988261e-002
1.799335e+003;5.971314e-002
1.801264e+003;5.952540e-002
1.803192e+003;5.964440e-002
1.805121e+003;5.957029e-002
1.807049e+003;5.935360e-002
1.808978e+003;5.937776e-002
1.810907e+003;5.926658e-002
1.812835e+003;5.898574e-002
1.814764e+003;5.894301e-002
1.816692e+003;5.901444e-002
1.818621e+003;5.897796e-002
1.820549e+003;5.881946e-002
1.822478e+003;5.851021e-002
1.824406e+003;5.842404e-002
1.826335e+003;5.851188e-002
1.828264e+003;5.846513e-002
1.830192e+003;5.842332e-002
1.832121e+003;5.829602e-002
1.834049e+003;5.826479e-002
1.835978e+003;5.829700e-002
1.837906e+003;5.804602e-002
1.839835e+003;5.762903e-002
1.841763e+003;5.745437e-002
1.843692e+003;5.752056e-002
1.845620e+003;5.754330e-002
1.847549e+003;5.756463e-002
1.849478e+003;5.737265e-002
1.851406e+003;5.726807e-002
1.853335e+003;5.731124e-002
1.855263e+003;5.722675e-002
1.857192e+003;5.725733e-002
1.859120e+003;5.725673e-002
1.861049e+003;5.707890e-002
1.862977e+003;5.712746e-002
1.864906e+003;5.718498e-002
1.866834e+003;5.720298e-002
1.868763e+003;5.733661e-002
1.870692e+003;5.726909e-002
1.872620e+003;5.714745e-002
1.874549e+003;5.713177e-002
1.876477e+003;5.700299e-002
1.878406e+003;5.698569e-002
1.880334e+003;5.713668e-002
1.882263e+003;5.691448e-002
1.884191e+003;5.669590e-002
1.886120e+003;5.688615e-002
1.888048e+003;5.724444e-002
1.889977e+003;5.731268e-002
1.891906e+003;5.712508e-002
1.893834e+003;5.683554e-002
1.895763e+003;5.679660e-002
1.897691e+003;5.687044e-002
1.899620e+003;5.686609e-002
1.901548e+003;5.697348e-002
1.903477e+003;5.701149e-002
1.905405e+003;5.696854e-002
1.907334e+003;5.698085e-002
1.909262e+003;5.719560e-002
1.911191e+003;5.723102e-002
1.913120e+003;5.713139e-002
1.915048e+003;5.726678e-002
1.916977e+003;5.716930e-002
1.918905e+003;5.721125e-002
1.920834e+003;5.749692e-002
1.922762e+003;5.753240e-002
1.924691e+003;5.750449e-002
1.926619e+003;5.763270e-002
1.928548e+003;5.752824e-002
1.930477e+003;5.769596e-002
1.932405e+003;5.776306e-002
1.934334e+003;5.763069e-002
1.936262e+003;5.763303e-002
1.938191e+003;5.765979e-002
1.940119e+003;5.776465e-002
1.942048e+003;5.789006e-002
1.943976e+003;5.817591e-002
1.945905e+003;5.820917e-002
1.947833e+003;5.819432e-002
1.949762e+003;5.827631e-002
1.951691e+003;5.834248e-002
1.953619e+003;5.854259e-002
1.955548e+003;5.884438e-002
1.957476e+003;5.894813e-002
1.959405e+003;5.878903e-002
1.961333e+003;5.865760e-002
1.963262e+003;5.866116e-002
1.965190e+003;5.861402e-002
1.967119e+003;5.873547e-002
1.969047e+003;5.922165e-002
1.970976e+003;5.923042e-002
1.972905e+003;5.903178e-002
1.974833e+003;5.914726e-002
1.976762e+003;5.943296e-002
1.978690e+003;5.951165e-002
1.980619e+003;5.926441e-002
1.982547e+003;5.926115e-002
1.984476e+003;5.953445e-002
1.986404e+003;5.964820e-002
1.988333e+003;5.988813e-002
1.990261e+003;6.007377e-002
1.992190e+003;6.010452e-002
1.994119e+003;6.007849e-002
1.996047e+003;6.005828e-002
1.997976e+003;6.005809e-002
1.999904e+003;6.026059e-002
2.001833e+003;6.051784e-002
2.003761e+003;6.040843e-002
2.005690e+003;6.051625e-002
2.007618e+003;6.071054e-002
2.009547e+003;6.067815e-002
2.011476e+003;6.079796e-002
2.013404e+003;6.088689e-002
2.015333e+003;6.098357e-002
2.017261e+003;6.131088e-002
2.019190e+003;6.154562e-002
2.021118e+003;6.138198e-002
2.023047e+003;6.138613e-002
2.024975e+003;6.166422e-002
2.026904e+003;6.173842e-002
2.028833e+003;6.144793e-002
2.030761e+003;6.156871e-002
2.032690e+003;6.180252e-002
2.034618e+003;6.182143e-002
2.036547e+003;6.207857e-002
2.038475e+003;6.205850e-002
2.040404e+003;6.187950e-002
2.042332e+003;6.225349e-002
2.044261e+003;6.270646e-002
2.046189e+003;6.276293e-002
2.048118e+003;6.250010e-002
2.050047e+003;6.217935e-002
2.051975e+003;6.212617e-002
2.053904e+003;6.220214e-002
2.055832e+003;6.219858e-002
2.057761e+003;6.205633e-002
2.059689e+003;6.188680e-002
2.061618e+003;6.200970e-002
2.063546e+003;6.219973e-002
2.065475e+003;6.216612e-002
2.067404e+003;6.202690e-002
2.069332e+003;6.211806e-002
2.071260e+003;6.225074e-002
2.073189e+003;6.214865e-002
2.075118e+003;6.198524e-002
2.077046e+003;6.170535e-002
2.078975e+003;6.171646e-002
2.080903e+003;6.180898e-002
2.082832e+003;6.173017e-002
2.084760e+003;6.178594e-002
2.086689e+003;6.208893e-002
2.088617e+003;6.226550e-002
2.090546e+003;6.214639e-002
2.092475e+003;6.212120e-002
2.094403e+003;6.220221e-002
2.096332e+003;6.210273e-002
2.098260e+003;6.193089e-002
2.100189e+003;6.198053e-002
2.102117e+003;6.197507e-002
2.104046e+003;6.211619e-002
2.105974e+003;6.235721e-002
2.107903e+003;6.222343e-002
2.109832e+003;6.211172e-002
2.111760e+003;6.215335e-002
2.113688e+003;6.228489e-002
2.115617e+003;6.268226e-002
2.117546e+003;6.301906e-002
2.119474e+003;6.302565e-002
2.121403e+003;6.292295e-002
2.123331e+003;6.291192e-002
2.125260e+003;6.305733e-002
2.127188e+003;6.334841e-002
2.129117e+003;6.338049e-002
2.131045e+003;6.332380e-002
2.132974e+003;6.335308e-002
2.134903e+003;6.331417e-002
2.136831e+003;6.304591e-002
2.138760e+003;6.277028e-002
2.140688e+003;6.287294e-002
2.142617e+003;6.262263e-002
2.144545e+003;6.238429e-002
2.146474e+003;6.271037e-002
2.148402e+003;6.311886e-002
2.150331e+003;6.311435e-002
2.152260e+003;6.297976e-002
2.154188e+003;6.304181e-002
2.156117e+003;6.288818e-002
2.158045e+003;6.250989e-002
2.159974e+003;6.221563e-002
2.161902e+003;6.216015e-002
2.163831e+003;6.215434e-002
2.165759e+003;6.207624e-002
2.167688e+003;6.209715e-002
2.169616e+003;6.203477e-002
2.171545e+003;6.151836e-002
2.173474e+003;6.117056e-002
2.175402e+003;6.126670e-002
2.177331e+003;6.135446e-002
2.179259e+003;6.139049e-002
2.181188e+003;6.108787e-002
2.183116e+003;6.096843e-002
2.185045e+003;6.084564e-002
2.186973e+003;6.078740e-002
2.188902e+003;6.068573e-002
2.190831e+003;6.041989e-002
2.192759e+003;6.028766e-002
2.194688e+003;6.044712e-002
2.196616e+003;6.040580e-002
2.198545e+003;6.034469e-002
2.200473e+003;6.036616e-002
2.202402e+003;6.028968e-002
2.204330e+003;6.018047e-002
2.206259e+003;6.003470e-002
2.208188e+003;5.979716e-002
2.210116e+003;5.988045e-002
2.212044e+003;6.018322e-002
2.213973e+003;6.015730e-002
2.215902e+003;6.010395e-002
2.217830e+003;6.025199e-002
2.219759e+003;6.044598e-002
2.221687e+003;6.022946e-002
2.223616e+003;5.987927e-002
2.225544e+003;5.991384e-002
2.227473e+003;6.027818e-002
2.229401e+003;6.010619e-002
2.231330e+003;5.982960e-002
2.233259e+003;5.990547e-002
2.235187e+003;5.989334e-002
2.237116e+003;5.994549e-002
2.239044e+003;6.004680e-002
2.240973e+003;6.007171e-002
2.242901e+003;5.992308e-002
2.244830e+003;5.974792e-002
2.246758e+003;5.981401e-002
2.248687e+003;5.973659e-002
2.250615e+003;5.956356e-002
2.252544e+003;5.960507e-002
2.254473e+003;5.998950e-002
2.256401e+003;5.992772e-002
2.258330e+003;5.950124e-002
2.260258e+003;5.926096e-002
2.262187e+003;5.925450e-002
2.264115e+003;5.932997e-002
2.266044e+003;5.909184e-002
2.267972e+003;5.881897e-002
2.269901e+003;5.880140e-002
2.271830e+003;5.864262e-002
2.273758e+003;5.852101e-002
2.275687e+003;5.859093e-002
2.277615e+003;5.860253e-002
2.279544e+003;5.844068e-002
2.281472e+003;5.822982e-002
2.283401e+003;5.827699e-002
2.285329e+003;5.825820e-002
2.287258e+003;5.841256e-002
2.289187e+003;5.860951e-002
2.291115e+003;5.838155e-002
2.293043e+003;5.830576e-002
2.294972e+003;5.812333e-002
2.296901e+003;5.795847e-002
2.298829e+003;5.807614e-002
2.300758e+003;5.804504e-002
2.302686e+003;5.788196e-002
2.304615e+003;5.785720e-002
2.306543e+003;5.782192e-002
2.308472e+003;5.784936e-002
2.310400e+003;5.804909e-002
2.312329e+003;5.806155e-002
2.314258e+003;5.796184e-002
2.316186e+003;5.798740e-002
2.318115e+003;5.802940e-002
2.320043e+003;5.800096e-002
2.321972e+003;5.816060e-002
2.323900e+003;5.819553e-002
2.325829e+003;5.798184e-002
2.327757e+003;5.822217e-002
2.329686e+003;5.867781e-002
2.331615e+003;5.887277e-002
2.333543e+003;5.865411e-002
2.335472e+003;5.855536e-002
2.337400e+003;5.879692e-002
2.339329e+003;5.919450e-002
2.341257e+003;5.951518e-002
2.343186e+003;5.958963e-002
2.345114e+003;5.956649e-002
2.347043e+003;5.951997e-002
2.348971e+003;5.946613e-002
2.350900e+003;5.948345e-002
2.352829e+003;5.942323e-002
2.354757e+003;5.946654e-002
2.356686e+003;5.969561e-002
2.358614e+003;5.988988e-002
2.360543e+003;5.981922e-002
2.362471e+003;5.978283e-002
2.364400e+003;6.008804e-002
2.366328e+003;6.031024e-002
2.368257e+003;6.027510e-002
2.370186e+003;6.022668e-002
2.372114e+003;6.033612e-002
2.374042e+003;6.021119e-002
2.375971e+003;6.014409e-002
2.377900e+003;6.021800e-002
2.379828e+003;6.003059e-002
2.381757e+003;5.985801e-002
2.383685e+003;6.006593e-002
2.385614e+003;6.022470e-002
2.387542e+003;6.053384e-002
2.389471e+003;6.106727e-002
2.391399e+003;6.121615e-002
2.393328e+003;6.103802e-002
2.395257e+003;6.099528e-002
2.397185e+003;6.103024e-002
2.399114e+003;6.122328e-002
2.401042e+003;6.140942e-002
2.402971e+003;6.175030e-002
2.404899e+003;6.178224e-002
2.406828e+003;6.169797e-002
2.408756e+003;6.189138e-002
2.410685e+003;6.170405e-002
2.412614e+003;6.136377e-002
2.414542e+003;6.173227e-002
2.416471e+003;6.201294e-002
2.418399e+003;6.208694e-002
2.420328e+003;6.242316e-002
2.422256e+003;6.273329e-002
2.424185e+003;6.277759e-002
2.426113e+003;6.274609e-002
2.428042e+003;6.286225e-002
2.429970e+003;6.304894e-002
2.431899e+003;6.329811e-002
2.433828e+003;6.334403e-002
2.435756e+003;6.328845e-002
2.437685e+003;6.331981e-002
2.439613e+003;6.350995e-002
2.441542e+003;6.353603e-002
2.443470e+003;6.360657e-002
2.445399e+003;6.371188e-002
2.447327e+003;6.378955e-002
2.449256e+003;6.392109e-002
2.451185e+003;6.406303e-002
2.453113e+003;6.434786e-002
2.455042e+003;6.455560e-002
2.456970e+003;6.439570e-002
2.458899e+003;6.431347e-002
2.460827e+003;6.440078e-002
2.462756e+003;6.441419e-002
2.464684e+003;6.451966e-002
2.466613e+003;6.466430e-002
2.468542e+003;6.475382e-002
2.470470e+003;6.500736e-002
2.472398e+003;6.504311e-002
2.474327e+003;6.516422e-002
2.476256e+003;6.533660e-002
2.478184e+003;6.538787e-002
2.480113e+003;6.549855e-002
2.482041e+003;6.591677e-002
2.483970e+003;6.611438e-002
2.485898e+003;6.600374e-002
2.487827e+003;6.574924e-002
2.489755e+003;6.557148e-002
2.491684e+003;6.600992e-002
2.493613e+003;6.642539e-002
2.495541e+003;6.629719e-002
2.497470e+003;6.632069e-002
2.499398e+003;6.656510e-002
2.501327e+003;6.653046e-002
2.503255e+003;6.654236e-002
2.505184e+003;6.671870e-002
2.507112e+003;6.669965e-002
2.509041e+003;6.661906e-002
2.510969e+003;6.677990e-002
2.512898e+003;6.719100e-002
2.514827e+003;6.778679e-002
2.516755e+003;6.764513e-002
2.518684e+003;6.738669e-002
2.520612e+003;6.747620e-002
2.522541e+003;6.762105e-002
2.524469e+003;6.773210e-002
2.526398e+003;6.792376e-002
2.528326e+003;6.789761e-002
2.530255e+003;6.770058e-002
2.532184e+003;6.783222e-002
2.534112e+003;6.800400e-002
2.536041e+003;6.797595e-002
2.537969e+003;6.829213e-002
2.539898e+003;6.826666e-002
2.541826e+003;6.793182e-002
2.543755e+003;6.799986e-002
2.545683e+003;6.819408e-002
2.547612e+003;6.806880e-002
2.549541e+003;6.781545e-002
2.551469e+003;6.802877e-002
2.553397e+003;6.831086e-002
2.555326e+003;6.833499e-002
2.557255e+003;6.854115e-002
2.559183e+003;6.868023e-002
2.561112e+003;6.863493e-002
2.563040e+003;6.882199e-002
2.564969e+003;6.876317e-002
2.566897e+003;6.860789e-002
2.568826e+003;6.842756e-002
2.570754e+003;6.829412e-002
2.572683e+003;6.861430e-002
2.574612e+003;6.899809e-002
2.576540e+003;6.901199e-002
2.578469e+003;6.874629e-002
2.580397e+003;6.862000e-002
2.582326e+003;6.866777e-002
2.584254e+003;6.878666e-002
2.586183e+003;6.925089e-002
2.588111e+003;6.951524e-002
2.590040e+003;6.936656e-002
2.591969e+003;6.945096e-002
2.593897e+003;6.943160e-002
2.595826e+003;6.924238e-002
2.597754e+003;6.954222e-002
2.599683e+003;6.976911e-002
2.601611e+003;6.999912e-002
2.603540e+003;7.031865e-002
2.605468e+003;7.041170e-002
2.607397e+003;7.013470e-002
2.609325e+003;6.999184e-002
2.611254e+003;7.010405e-002
2.613183e+003;7.025590e-002
2.615111e+003;7.031694e-002
2.617040e+003;7.032578e-002
2.618968e+003;7.058267e-002
2.620897e+003;7.089537e-002
2.622825e+003;7.117095e-002
2.624754e+003;7.120787e-002
2.626682e+003;7.110288e-002
2.628611e+003;7.114706e-002
2.630540e+003;7.136124e-002
2.632468e+003;7.170280e-002
2.634396e+003;7.182565e-002
2.636325e+003;7.168979e-002
2.638254e+003;7.156026e-002
2.640182e+003;7.162551e-002
2.642111e+003;7.180236e-002
2.644039e+003;7.199383e-002
2.645968e+003;7.219767e-002
2.647896e+003;7.196184e-002
2.649825e+003;7.183769e-002
2.651753e+003;7.199477e-002
2.653682e+003;7.198612e-002
2.655611e+003;7.208707e-002
2.657539e+003;7.236360e-002
2.659468e+003;7.274724e-002
2.661396e+003;7.288144e-002
2.663325e+003;7.243672e-002
2.665253e+003;7.227589e-002
2.667182e+003;7.265835e-002
2.669110e+003;7.285349e-002
2.671039e+003;7.307993e-002
2.672968e+003;7.304963e-002
2.674896e+003;7.325945e-002
2.676825e+003;7.344756e-002
2.678753e+003;7.332668e-002
2.680682e+003;7.339805e-002
2.682610e+003;7.369833e-002
2.684539e+003;7.386425e-002
2.686467e+003;7.388903e-002
2.688396e+003;7.392611e-002
2.690324e+003;7.410088e-002
2.692253e+003;7.425217e-002
2.694182e+003;7.435494e-002
2.696110e+003;7.477663e-002
2.698039e+003;7.504629e-002
2.699967e+003;7.486154e-002
2.701896e+003;7.487249e-002
2.703824e+003;7.499242e-002
2.705753e+003;7.510541e-002
2.707681e+003;7.534642e-002
2.709610e+003;7.550544e-002
2.711539e+003;7.562822e-002
2.713467e+003;7.571267e-002
2.715396e+003;7.553611e-002
2.717324e+003;7.561406e-002
2.719253e+003;7.591064e-002
2.721181e+003;7.590777e-002
2.723110e+003;7.575396e-002
2.725038e+003;7.609229e-002
2.726967e+003;7.649279e-002
2.728896e+003;7.632591e-002
2.730824e+003;7.615704e-002
2.732752e+003;7.614480e-002
2.734681e+003;7.609268e-002
2.736610e+003;7.632062e-002
2.738538e+003;7.646616e-002
2.740467e+003;7.646296e-002
2.742395e+003;7.665685e-002
2.744324e+003;7.674386e-002
2.746252e+003;7.652041e-002
2.748181e+003;7.674114e-002
2.750109e+003;7.703192e-002
2.752038e+003;7.704154e-002
2.753967e+003;7.706931e-002
2.755895e+003;7.710983e-002
2.757824e+003;7.716480e-002
2.759752e+003;7.717014e-002
2.761681e+003;7.738399e-002
2.763609e+003;7.753757e-002
2.765538e+003;7.742992e-002
2.767466e+003;7.769494e-002
2.769395e+003;7.795368e-002
2.771323e+003;7.797489e-002
2.773252e+003;7.810933e-002
2.775181e+003;7.833039e-002
2.777109e+003;7.852539e-002
2.779038e+003;7.873642e-002
2.780966e+003;7.891965e-002
2.782895e+003;7.875147e-002
2.784823e+003;7.891198e-002
2.786752e+003;7.936365e-002
2.788680e+003;7.983954e-002
2.790609e+003;8.049628e-002
2.792538e+003;8.076309e-002
2.794466e+003;8.076074e-002
2.796395e+003;8.085588e-002
2.798323e+003;8.098998e-002
2.800252e+003;8.103026e-002
2.802180e+003;8.105990e-002
2.804109e+003;8.124946e-002
2.806037e+003;8.172701e-002
2.807966e+003;8.234405e-002
2.809895e+003;8.262137e-002
2.811823e+003;8.318205e-002
2.813751e+003;8.377544e-002
2.815680e+003;8.415731e-002
2.817609e+003;8.447025e-002
2.819537e+003;8.458819e-002
2.821466e+003;8.480722e-002
2.823394e+003;8.523596e-002
2.825323e+003;8.594131e-002
2.827251e+003;8.676589e-002
2.829180e+003;8.771607e-002
2.831108e+003;8.870789e-002
2.833037e+003;8.942700e-002
2.834966e+003;8.996112e-002
2.836894e+003;9.057695e-002
2.838823e+003;9.153576e-002
2.840751e+003;9.261519e-002
2.842680e+003;9.364720e-002
2.844608e+003;9.523868e-002
2.846537e+003;9.712606e-002
2.848465e+003;9.892867e-002
2.850394e+003;1.010657e-001
2.852323e+003;1.027215e-001
2.854251e+003;1.037122e-001
2.856180e+003;1.046700e-001
2.858108e+003;1.057493e-001
2.860037e+003;1.068196e-001
2.861965e+003;1.078855e-001
2.863894e+003;1.090929e-001
2.865822e+003;1.102895e-001
2.867751e+003;1.110207e-001
2.869679e+003;1.116084e-001
2.871608e+003;1.120329e-001
2.873536e+003;1.126523e-001
2.875465e+003;1.133413e-001
2.877394e+003;1.137313e-001
2.879322e+003;1.136618e-001
2.881251e+003;1.144032e-001
2.883179e+003;1.154364e-001
2.885108e+003;1.160942e-001
2.887036e+003;1.167276e-001
2.888965e+003;1.172142e-001
2.890893e+003;1.178726e-001
2.892822e+003;1.189914e-001
2.894750e+003;1.197146e-001
2.896679e+003;1.197296e-001
2.898608e+003;1.197117e-001
2.900536e+003;1.193200e-001
2.902465e+003;1.188620e-001
2.904393e+003;1.184020e-001
2.906322e+003;1.173424e-001
2.908250e+003;1.163255e-001
2.910179e+003;1.154277e-001
2.912107e+003;1.142417e-001
2.914036e+003;1.131869e-001
2.915965e+003;1.124597e-001
2.917893e+003;1.114061e-001
2.919822e+003;1.099567e-001
2.921750e+003;1.086617e-001
2.923679e+003;1.068677e-001
2.925607e+003;1.051335e-001
2.927536e+003;1.037626e-001
2.929464e+003;1.025006e-001
2.931393e+003;1.014177e-001
2.933322e+003;1.001731e-001
2.935250e+003;9.918968e-002
2.937178e+003;9.836255e-002
2.939107e+003;9.735565e-002
2.941036e+003;9.635177e-002
2.942964e+003;9.577855e-002
2.944893e+003;9.505347e-002
2.946821e+003;9.411547e-002
2.948750e+003;9.310961e-002
2.950678e+003;9.188546e-002
2.952607e+003;9.041171e-002
2.954535e+003;8.889955e-002
2.956464e+003;8.732864e-002
2.958393e+003;8.644880e-002
2.960321e+003;8.569887e-002
2.962250e+003;8.427155e-002
2.964178e+003;8.319658e-002
2.966107e+003;8.283187e-002
2.968035e+003;8.243702e-002
2.969964e+003;8.175345e-002
2.971892e+003;8.104105e-002
2.973821e+003;7.985877e-002
2.975750e+003;7.878186e-002
2.977678e+003;7.790512e-002
2.979607e+003;7.716844e-002
2.981535e+003;7.667436e-002
2.983464e+003;7.642747e-002
2.985392e+003;7.643680e-002
2.987321e+003;7.604646e-002
2.989249e+003;7.562649e-002
2.991178e+003;7.543680e-002
2.993106e+003;7.543778e-002
2.995035e+003;7.548837e-002
2.996964e+003;7.521182e-002
2.998892e+003;7.499104e-002
3.000821e+003;7.495406e-002
3.002749e+003;7.481658e-002
3.004678e+003;7.455773e-002
3.006606e+003;7.441778e-002
3.008535e+003;7.453645e-002
3.010463e+003;7.457638e-002
3.012392e+003;7.479793e-002
3.014321e+003;7.485512e-002
3.016249e+003;7.488216e-002
3.018177e+003;7.531013e-002
3.020106e+003;7.564727e-002
3.022035e+003;7.575338e-002
3.023963e+003;7.603312e-002
3.025892e+003;7.604472e-002
3.027820e+003;7.604306e-002
3.029749e+003;7.649141e-002
3.031677e+003;7.678297e-002
3.033606e+003;7.736799e-002
3.035534e+003;7.780495e-002
3.037463e+003;7.778196e-002
3.039392e+003;7.792240e-002
3.041320e+003;7.793576e-002
3.043249e+003;7.786349e-002
3.045177e+003;7.795146e-002
3.047106e+003;7.833210e-002
3.049034e+003;7.903649e-002
3.050963e+003;7.929444e-002
3.052891e+003;7.957847e-002
3.054820e+003;7.993197e-002
3.056749e+003;8.008494e-002
3.058677e+003;8.034133e-002
3.060606e+003;8.043591e-002
3.062534e+003;8.066813e-002
3.064463e+003;8.103174e-002
3.066391e+003;8.125773e-002
3.068320e+003;8.152137e-002
3.070248e+003;8.192403e-002
3.072177e+003;8.232430e-002
3.074105e+003;8.267163e-002
3.076034e+003;8.303545e-002
3.077963e+003;8.360325e-002
3.079891e+003;8.385409e-002
3.081820e+003;8.377512e-002
3.083748e+003;8.418848e-002
3.085677e+003;8.434481e-002
3.087605e+003;8.459681e-002
3.089534e+003;8.529011e-002
3.091462e+003;8.584782e-002
3.093391e+003;8.616922e-002
3.095320e+003;8.652833e-002
3.097248e+003;8.722197e-002
3.099177e+003;8.752870e-002
3.101105e+003;8.759773e-002
3.103034e+003;8.835025e-002
3.104962e+003;8.930285e-002
3.106891e+003;8.960930e-002
3.108819e+003;8.953995e-002
3.110748e+003;8.994282e-002
3.112677e+003;9.084035e-002
3.114605e+003;9.142798e-002
3.116533e+003;9.186352e-002
3.118462e+003;9.207658e-002
3.120391e+003;9.227020e-002
3.122319e+003;9.265929e-002
3.124248e+003;9.304167e-002
3.126176e+003;9.369493e-002
3.128105e+003;9.426294e-002
3.130033e+003;9.484142e-002
3.131962e+003;9.565233e-002
3.133890e+003;9.595515e-002
3.135819e+003;9.603897e-002
3.137748e+003;9.682102e-002
3.139676e+003;9.778634e-002
3.141605e+003;9.832395e-002
3.143533e+003;9.815337e-002
3.145462e+003;9.810577e-002
3.147390e+003;9.913273e-002
3.149319e+003;1.003160e-001
3.151247e+003;1.005189e-001
3.153176e+003;1.009008e-001
3.155104e+003;1.015209e-001
3.157033e+003;1.023526e-001
3.158962e+003;1.031890e-001
3.160890e+003;1.037983e-001
3.162819e+003;1.046089e-001
3.164747e+003;1.052890e-001
3.166676e+003;1.058414e-001
3.168604e+003;1.061253e-001
3.170533e+003;1.066364e-001
3.172461e+003;1.076044e-001
3.174390e+003;1.086895e-001
3.176319e+003;1.097300e-001
3.178247e+003;1.103278e-001
3.180176e+003;1.105437e-001
3.182104e+003;1.108676e-001
3.184033e+003;1.114177e-001
3.185961e+003;1.125491e-001
3.187890e+003;1.140218e-001
3.189818e+003;1.149464e-001
3.191747e+003;1.158047e-001
3.193676e+003;1.166668e-001
3.195604e+003;1.167106e-001
3.197532e+003;1.171762e-001
3.199461e+003;1.183485e-001
3.201390e+003;1.194947e-001
3.203318e+003;1.203823e-001
3.205247e+003;1.212753e-001
3.207175e+003;1.222323e-001
3.209104e+003;1.233413e-001
3.211032e+003;1.243609e-001
3.212961e+003;1.249464e-001
3.214889e+003;1.262974e-001
3.216818e+003;1.277921e-001
3.218747e+003;1.287257e-001
3.220675e+003;1.297747e-001
3.222604e+003;1.307848e-001
3.224532e+003;1.316515e-001
3.226461e+003;1.327500e-001
3.228389e+003;1.342247e-001
3.230318e+003;1.350247e-001
3.232246e+003;1.358936e-001
3.234175e+003;1.372956e-001
3.236104e+003;1.387895e-001
3.238032e+003;1.400397e-001
3.239961e+003;1.408230e-001
3.241889e+003;1.417642e-001
3.243818e+003;1.436169e-001
3.245746e+003;1.448182e-001
3.247675e+003;1.451231e-001
3.249603e+003;1.462111e-001
3.251532e+003;1.480172e-001
3.253460e+003;1.492806e-001
3.255389e+003;1.502995e-001
3.257318e+003;1.516094e-001
3.259246e+003;1.531929e-001
3.261175e+003;1.546377e-001
3.263103e+003;1.562274e-001
3.265032e+003;1.569328e-001
3.266960e+003;1.575733e-001
3.268889e+003;1.592536e-001
3.270817e+003;1.606142e-001
3.272746e+003;1.610603e-001
3.274675e+003;1.617211e-001
3.276603e+003;1.627608e-001
3.278531e+003;1.634599e-001
3.280460e+003;1.642553e-001
3.282389e+003;1.648808e-001
3.284317e+003;1.654061e-001
3.286246e+003;1.660725e-001
3.288174e+003;1.665436e-001
3.290103e+003;1.675922e-001
3.292031e+003;1.688414e-001
3.293960e+003;1.689821e-001
3.295888e+003;1.688887e-001
3.297817e+003;1.685959e-001
3.299746e+003;1.681582e-001
3.301674e+003;1.688677e-001
3.303603e+003;1.694729e-001
3.305531e+003;1.693267e-001
3.307460e+003;1.693942e-001
3.309388e+003;1.695860e-001
3.311317e+003;1.700552e-001
3.313245e+003;1.708025e-001
3.315174e+003;1.711822e-001
3.317103e+003;1.713011e-001
3.319031e+003;1.718149e-001
3.320960e+003;1.727150e-001
3.322888e+003;1.730460e-001
3.324817e+003;1.736256e-001
3.326745e+003;1.742160e-001
3.328674e+003;1.746222e-001
3.330602e+003;1.750118e-001
3.332531e+003;1.757784e-001
3.334459e+003;1.759965e-001
3.336388e+003;1.764073e-001
3.338317e+003;1.763815e-001
3.340245e+003;1.756536e-001
3.342174e+003;1.752548e-001
3.344102e+003;1.743543e-001
3.346031e+003;1.733059e-001
3.347959e+003;1.727803e-001
3.349888e+003;1.717122e-001
3.351816e+003;1.705757e-001
3.353745e+003;1.694864e-001
3.355674e+003;1.683213e-001
3.357602e+003;1.674122e-001
3.359531e+003;1.667276e-001
3.361459e+003;1.660519e-001
3.363388e+003;1.650189e-001
3.365316e+003;1.640777e-001
3.367245e+003;1.629823e-001
3.369173e+003;1.621648e-001
3.371102e+003;1.610587e-001
3.373031e+003;1.596732e-001
3.374959e+003;1.588865e-001
3.376887e+003;1.580108e-001
3.378816e+003;1.568315e-001
3.380745e+003;1.558138e-001
3.382673e+003;1.552226e-001
3.384602e+003;1.547295e-001
3.386530e+003;1.537326e-001
3.388459e+003;1.526785e-001
3.390387e+003;1.522475e-001
3.392316e+003;1.516679e-001
3.394244e+003;1.506734e-001
3.396173e+003;1.499157e-001
3.398102e+003;1.495516e-001
3.400030e+003;1.489681e-001
3.401959e+003;1.480407e-001
3.403887e+003;1.465492e-001
3.405816e+003;1.452827e-001
3.407744e+003;1.452197e-001
3.409673e+003;1.439928e-001
3.411601e+003;1.425871e-001
3.413530e+003;1.418090e-001
3.415458e+003;1.404132e-001
3.417387e+003;1.391402e-001
3.419316e+003;1.383850e-001
3.421244e+003;1.375635e-001
3.423173e+003;1.366858e-001
3.425101e+003;1.356267e-001
3.427030e+003;1.342516e-001
3.428958e+003;1.334628e-001
3.430887e+003;1.323156e-001
3.432815e+003;1.309114e-001
3.434744e+003;1.298458e-001
3.436673e+003;1.287547e-001
3.438601e+003;1.275342e-001
3.440530e+003;1.264875e-001
3.442458e+003;1.253295e-001
3.444387e+003;1.242651e-001
3.446315e+003;1.234610e-001
3.448244e+003;1.224498e-001
3.450172e+003;1.210966e-001
3.452101e+003;1.198907e-001
3.454030e+003;1.186879e-001
3.455958e+003;1.173735e-001
3.457886e+003;1.166702e-001
3.459815e+003;1.158270e-001
3.461744e+003;1.145169e-001
3.463672e+003;1.136739e-001
3.465601e+003;1.129869e-001
3.467529e+003;1.116103e-001
3.469458e+003;1.101694e-001
3.471386e+003;1.092352e-001
3.473315e+003;1.081566e-001
3.475243e+003;1.064594e-001
3.477172e+003;1.049677e-001
3.479101e+003;1.040191e-001
3.481029e+003;1.034408e-001
3.482958e+003;1.022607e-001
3.484886e+003;1.009154e-001
3.486815e+003;9.998469e-002
3.488743e+003;9.899970e-002
3.490672e+003;9.808965e-002
3.492600e+003;9.704365e-002
3.494529e+003;9.622770e-002
3.496458e+003;9.497949e-002
3.498386e+003;9.322701e-002
3.500315e+003;9.250375e-002
3.502243e+003;9.199360e-002
3.504172e+003;9.082471e-002
3.506100e+003;8.981922e-002
3.508029e+003;8.901732e-002
3.509957e+003;8.820250e-002
3.511886e+003;8.762254e-002
3.513814e+003;8.640804e-002
3.515743e+003;8.523426e-002
3.517672e+003;8.435475e-002
3.519600e+003;8.339121e-002
3.521529e+003;8.254054e-002
3.523457e+003;8.158658e-002
3.525386e+003;8.016719e-002
3.527314e+003;7.932507e-002
3.529243e+003;7.882957e-002
3.531171e+003;7.827107e-002
3.533100e+003;7.744866e-002
3.535029e+003;7.644624e-002
3.536957e+003;7.515685e-002
3.538885e+003;7.394509e-002
3.540814e+003;7.359643e-002
3.542743e+003;7.321121e-002
3.544671e+003;7.222952e-002
3.546600e+003;7.078698e-002
3.548528e+003;6.976958e-002
3.550457e+003;6.862434e-002
3.552385e+003;6.755070e-002
3.554314e+003;6.703605e-002
3.556242e+003;6.673457e-002
3.558171e+003;6.637601e-002
3.560100e+003;6.556848e-002
3.562028e+003;6.490978e-002
3.563957e+003;6.432227e-002
3.565885e+003;6.352357e-002
3.567814e+003;6.202900e-002
3.569742e+003;6.104687e-002
3.571671e+003;6.107974e-002
3.573599e+003;6.122286e-002
3.575528e+003;6.064649e-002
3.577457e+003;5.966736e-002
3.579385e+003;5.880641e-002
3.581314e+003;5.816011e-002
3.583242e+003;5.782309e-002
3.585171e+003;5.712179e-002
3.587099e+003;5.603633e-002
3.589028e+003;5.586945e-002
3.590956e+003;5.552877e-002
3.592885e+003;5.450123e-002
3.594813e+003;5.359507e-002
3.596742e+003;5.270584e-002
3.598671e+003;5.218922e-002
3.600599e+003;5.223597e-002
3.602528e+003;5.192506e-002
3.604456e+003;5.148726e-002
3.606385e+003;5.147830e-002
3.608313e+003;5.090569e-002
3.610242e+003;4.956362e-002
3.612170e+003;4.874546e-002
3.614099e+003;4.906883e-002
3.616028e+003;4.918990e-002
3.617956e+003;4.870195e-002
3.619885e+003;4.817160e-002
3.621813e+003;4.782722e-002
3.623742e+003;4.775124e-002
3.625670e+003;4.784805e-002
3.627599e+003;4.751279e-002
3.629527e+003;4.677413e-002
3.631456e+003;4.562685e-002
3.633385e+003;4.508781e-002
3.635313e+003;4.502026e-002
3.637241e+003;4.459938e-002
3.639170e+003;4.438394e-002
3.641099e+003;4.433465e-002
3.643027e+003;4.422018e-002
3.644956e+003;4.405953e-002
3.646884e+003;4.328973e-002
3.648813e+003;4.260247e-002
3.650741e+003;4.239167e-002
3.652670e+003;4.207575e-002
3.654598e+003;4.178976e-002
3.656527e+003;4.192705e-002
3.658456e+003;4.191443e-002
3.660384e+003;4.153479e-002
3.662313e+003;4.108810e-002
3.664241e+003;4.020348e-002
3.666170e+003;3.928104e-002
3.668098e+003;3.858021e-002
3.670027e+003;3.862606e-002
3.671955e+003;3.920224e-002
3.673884e+003;3.845892e-002
3.675813e+003;3.759697e-002
3.677741e+003;3.803491e-002
3.679669e+003;3.818560e-002
3.681598e+003;3.785501e-002
3.683527e+003;3.754086e-002
3.685455e+003;3.714265e-002
3.687384e+003;3.656703e-002
3.689312e+003;3.640050e-002
3.691241e+003;3.630330e-002
3.693169e+003;3.559682e-002
3.695098e+003;3.570563e-002
3.697026e+003;3.637168e-002
3.698955e+003;3.655615e-002
3.700884e+003;3.642886e-002
3.702812e+003;3.634527e-002
3.704741e+003;3.597763e-002
3.706669e+003;3.553892e-002
3.708598e+003;3.532114e-002
3.710526e+003;3.485246e-002
3.712455e+003;3.496708e-002
3.714383e+003;3.519884e-002
3.716312e+003;3.486136e-002
3.718240e+003;3.421716e-002
3.720169e+003;3.376980e-002
3.722098e+003;3.356152e-002
3.724026e+003;3.338280e-002
3.725955e+003;3.339346e-002
3.727883e+003;3.368883e-002
3.729812e+003;3.372378e-002
3.731740e+003;3.348732e-002
3.733669e+003;3.383158e-002
3.735597e+003;3.382438e-002
3.737526e+003;3.331016e-002
3.739455e+003;3.327950e-002
3.741383e+003;3.315936e-002
3.743312e+003;3.293647e-002
3.745240e+003;3.291899e-002
3.747169e+003;3.343489e-002
3.749097e+003;3.380064e-002
3.751026e+003;3.390444e-002
3.752954e+003;3.358175e-002
3.754883e+003;3.326184e-002
3.756812e+003;3.273413e-002
3.758740e+003;3.242663e-002
3.760668e+003;3.272284e-002
3.762597e+003;3.365665e-002
3.764526e+003;3.422806e-002
3.766454e+003;3.417869e-002
3.768383e+003;3.399942e-002
3.770311e+003;3.326334e-002
3.772240e+003;3.275550e-002
3.774168e+003;3.335159e-002
3.776097e+003;3.414227e-002
3.778025e+003;3.386994e-002
3.779954e+003;3.298666e-002
3.781883e+003;3.298283e-002
3.783811e+003;3.347465e-002
3.785740e+003;3.378599e-002
3.787668e+003;3.344821e-002
3.789597e+003;3.287810e-002
3.791525e+003;3.323569e-002
3.793454e+003;3.362743e-002
3.795382e+003;3.364139e-002
3.797311e+003;3.400623e-002
3.799240e+003;3.395198e-002
3.801168e+003;3.340015e-002
3.803097e+003;3.314080e-002
3.805025e+003;3.317313e-002
3.806954e+003;3.324670e-002
3.808882e+003;3.346717e-002
3.810811e+003;3.343325e-002
3.812739e+003;3.388750e-002
3.814668e+003;3.441416e-002
3.816596e+003;3.451066e-002
3.818525e+003;3.431863e-002
3.820454e+003;3.376067e-002
3.822382e+003;3.346574e-002
3.824311e+003;3.334111e-002
3.826239e+003;3.338319e-002
3.828168e+003;3.410880e-002
3.830096e+003;3.462292e-002
3.832025e+003;3.452508e-002
3.833953e+003;3.446237e-002
3.835882e+003;3.455450e-002
3.837811e+003;3.370323e-002
3.839739e+003;3.297265e-002
3.841667e+003;3.402963e-002
3.843596e+003;3.504792e-002
3.845525e+003;3.452910e-002
3.847453e+003;3.368833e-002
3.849382e+003;3.379763e-002
3.851310e+003;3.383517e-002
3.853239e+003;3.381747e-002
3.855167e+003;3.390398e-002
3.857096e+003;3.353106e-002
3.859024e+003;3.336408e-002
3.860953e+003;3.421422e-002
3.862882e+003;3.454736e-002
3.864810e+003;3.407095e-002
3.866739e+003;3.415116e-002
3.868667e+003;3.456594e-002
3.870596e+003;3.482704e-002
3.872524e+003;3.495569e-002
3.874453e+003;3.477366e-002
3.876381e+003;3.442388e-002
3.878310e+003;3.435370e-002
3.880239e+003;3.421174e-002
3.882167e+003;3.435047e-002
3.884096e+003;3.482743e-002
3.886024e+003;3.528703e-002
3.887953e+003;3.490596e-002
3.889881e+003;3.473389e-002
3.891810e+003;3.495709e-002
3.893738e+003;3.527359e-002
3.895667e+003;3.596997e-002
3.897595e+003;3.653124e-002
3.899524e+003;3.599322e-002
3.901453e+003;3.585285e-002
3.903381e+003;3.664180e-002
3.905310e+003;3.623339e-002
3.907238e+003;3.540647e-002
3.909167e+003;3.587686e-002
3.911095e+003;3.642432e-002
3.913024e+003;3.617461e-002
3.914952e+003;3.603296e-002
3.916881e+003;3.646825e-002
3.918810e+003;3.659846e-002
3.920738e+003;3.624657e-002
3.922667e+003;3.556301e-002
3.924595e+003;3.499376e-002
3.926524e+003;3.584170e-002
3.928452e+003;3.709328e-002
3.930381e+003;3.700751e-002
3.932309e+003;3.640699e-002
3.934238e+003;3.656469e-002
3.936167e+003;3.712226e-002
3.938095e+003;3.728780e-002
3.940023e+003;3.715081e-002
3.941952e+003;3.661757e-002
3.943881e+003;3.639243e-002
3.945809e+003;3.699170e-002
3.947738e+003;3.753595e-002
3.949666e+003;3.743304e-002
3.951595e+003;3.702136e-002
3.953523e+003;3.724834e-002
3.955452e+003;3.745854e-002
3.957380e+003;3.689455e-002
3.959309e+003;3.674664e-002
3.961238e+003;3.733178e-002
3.963166e+003;3.718914e-002
3.965095e+003;3.721816e-002
3.967023e+003;3.702681e-002
3.968952e+003;3.670868e-002
3.970880e+003;3.705611e-002
3.972809e+003;3.779230e-002
3.974737e+003;3.732651e-002
3.976666e+003;3.677459e-002
3.978594e+003;3.735937e-002
3.980523e+003;3.833976e-002
3.982452e+003;3.852343e-002
3.984380e+003;3.749311e-002
3.986309e+003;3.695851e-002
3.988237e+003;3.719943e-002
3.990166e+003;3.784091e-002
3.992094e+003;3.821393e-002
3.994023e+003;3.803570e-002
3.995951e+003;3.795213e-002
3.997880e+003;3.783698e-002
3.999809e+003;3.750001e-002
4.001737e+003;0.000000e+000
