3.992094e+002;0.000000e+000
4.011380e+002;0.000000e+000
4.030665e+002;0.000000e+000
4.049951e+002;0.000000e+000
4.069236e+002;0.000000e+000
4.088522e+002;0.000000e+000
4.107807e+002;0.000000e+000
4.127093e+002;0.000000e+000
4.146378e+002;0.000000e+000
4.165664e+002;0.000000e+000
4.184949e+002;0.000000e+000
4.204235e+002;0.000000e+000
4.223520e+002;0.000000e+000
4.242806e+002;0.000000e+000
4.262091e+002;0.000000e+000
4.281377e+002;0.000000e+000
4.300662e+002;0.000000e+000
4.319948e+002;0.000000e+000
4.339233e+002;0.000000e+000
4.358519e+002;0.000000e+000
4.377804e+002;0.000000e+000
4.397090e+002;0.000000e+000
4.416375e+002;0.000000e+000
4.435660e+002;0.000000e+000
4.454946e+002;0.000000e+000
4.474232e+002;0.000000e+000
4.493517e+002;0.000000e+000
4.512802e+002;0.000000e+000
4.532088e+002;0.000000e+000
4.551373e+002;0.000000e+000
4.570659e+002;0.000000e+000
4.589944e+002;0.000000e+000
4.609230e+002;0.000000e+000
4.628515e+002;0.000000e+000
4.647801e+002;0.000000e+000
4.667086e+002;0.000000e+000
4.686372e+002;0.000000e+000
4.705657e+002;0.000000e+000
4.724943e+002;0.000000e+000
4.744228e+002;0.000000e+000
4.763513e+002;0.000000e+000
4.782799e+002;0.000000e+000
4.802085e+002;0.000000e+000
4.821370e+002;0.000000e+000
4.840656e+002;0.000000e+000
4.859941e+002;0.000000e+000
4.879226e+002;0.000000e+000
4.898512e+002;0.000000e+000
4.917798e+002;0.000000e+000
4.937083e+002;0.000000e+000
4.956368e+002;0.000000e+000
4.975654e+002;0.000000e+000
4.994939e+002;0.000000e+000
5.014225e+002;0.000000e+000
5.033510e+002;0.000000e+000
5.052796e+002;0.000000e+000
5.072081e+002;0.000000e+000
5.091367e+002;0.000000e+000
5.110652e+002;0.000000e+000
5.129938e+002;0.000000e+000
5.149223e+002;0.000000e+000
5.168509e+002;0.000000e+000
5.187794e+002;0.000000e+000
5.207079e+002;0.000000e+000
5.226365e+002;0.000000e+000
5.245651e+002;0.000000e+000
5.264936e+002;0.000000e+000
5.284222e+002;0.000000e+000
5.303507e+002;0.000000e+000
5.322792e+002;0.000000e+000
5.342078e+002;0.000000e+000
5.361364e+002;0.000000e+000
5.380649e+002;0.000000e+000
5.399935e+002;0.000000e+000
5.419220e+002;0.000000e+000
5.438505e+002;0.000000e+000
5.457791e+002;0.000000e+000
5.477076e+002;0.000000e+000
5.496362e+002;0.000000e+000
5.515648e+002;0.000000e+000
5.534933e+002;0.000000e+000
5.554218e+002;0.000000e+000
5.573504e+002;0.000000e+000
5.592789e+002;0.000000e+000
5.612075e+002;0.000000e+000
5.631360e+002;0.000000e+000
5.650646e+002;0.000000e+000
5.669931e+002;0.000000e+000
5.689217e+002;0.000000e+000
5.708502e+002;0.000000e+000
5.727787e+002;0.000000e+000
5.747073e+002;0.000000e+000
5.766359e+002;0.000000e+000
5.785644e+002;0.000000e+000
5.804930e+002;0.000000e+000
5.824215e+002;0.000000e+000
5.843500e+002;0.000000e+000
5.862786e+002;0.000000e+000
5.882072e+002;0.000000e+000
5.901357e+002;0.000000e+000
5.920643e+002;0.000000e+000
5.939928e+002;0.000000e+000
5.959213e+002;0.000000e+000
5.978499e+002;0.000000e+000
5.997784e+002;2.133521e-001
6.017070e+002;2.181465e-001
6.036355e+002;2.245708e-001
6.055641e+002;2.280006e-001
6.074926e+002;2.263555e-001
6.094211e+002;2.275418e-001
6.113497e+002;2.297307e-001
6.132783e+002;2.263079e-001
6.152068e+002;2.251478e-001
6.171354e+002;2.236623e-001
6.190639e+002;2.198062e-001
6.209924e+002;2.193260e-001
6.229210e+002;2.180835e-001
6.248495e+002;2.171345e-001
6.267781e+002;2.126054e-001
6.287067e+002;2.094485e-001
6.306352e+002;2.121744e-001
6.325637e+002;2.097046e-001
6.344923e+002;2.031194e-001
6.364208e+002;1.977440e-001
6.383494e+002;1.950627e-001
6.402780e+002;1.947502e-001
6.422065e+002;1.957976e-001
6.441350e+002;1.983340e-001
6.460636e+002;1.960065e-001
6.479921e+002;1.930054e-001
6.499207e+002;1.937317e-001
6.518492e+002;1.960747e-001
6.537778e+002;2.007755e-001
6.557063e+002;2.056324e-001
6.576349e+002;2.076747e-001
6.595634e+002;2.098330e-001
6.614919e+002;2.124918e-001
6.634205e+002;2.141593e-001
6.653491e+002;2.148704e-001
6.672776e+002;2.138989e-001
6.692062e+002;2.102540e-001
6.711347e+002;2.063232e-001
6.730632e+002;2.026720e-001
6.749918e+002;1.982827e-001
6.769203e+002;1.926622e-001
6.788489e+002;1.870547e-001
6.807775e+002;1.834858e-001
6.827060e+002;1.823790e-001
6.846345e+002;1.810305e-001
6.865631e+002;1.799653e-001
6.884916e+002;1.795884e-001
6.904202e+002;1.778754e-001
6.923488e+002;1.776156e-001
6.942773e+002;1.777037e-001
6.962058e+002;1.770462e-001
6.981344e+002;1.769167e-001
7.000629e+002;1.762973e-001
7.019915e+002;1.749838e-001
7.039200e+002;1.733620e-001
7.058486e+002;1.729100e-001
7.077771e+002;1.725150e-001
7.097057e+002;1.706433e-001
7.116342e+002;1.687484e-001
7.135627e+002;1.665806e-001
7.154913e+002;1.640943e-001
7.174199e+002;1.615798e-001
7.193484e+002;1.591985e-001
7.212770e+002;1.569894e-001
7.232055e+002;1.548110e-001
7.251340e+002;1.525278e-001
7.270626e+002;1.501447e-001
7.289911e+002;1.474552e-001
7.309197e+002;1.456086e-001
7.328483e+002;1.441789e-001
7.347768e+002;1.425199e-001
7.367053e+002;1.407811e-001
7.386339e+002;1.385120e-001
7.405624e+002;1.371833e-001
7.424910e+002;1.367287e-001
7.444196e+002;1.355525e-001
7.463481e+002;1.344192e-001
7.482766e+002;1.333107e-001
7.502052e+002;1.321479e-001
7.521337e+002;1.306431e-001
7.540623e+002;1.291915e-001
7.559908e+002;1.282789e-001
7.579194e+002;1.274448e-001
7.598479e+002;1.264384e-001
7.617765e+002;1.255370e-001
7.637050e+002;1.249512e-001
7.656335e+002;1.239056e-001
7.675621e+002;1.229024e-001
7.694907e+002;1.216689e-001
7.714192e+002;1.207654e-001
7.733478e+002;1.197952e-001
7.752763e+002;1.190931e-001
7.772048e+002;1.186276e-001
7.791334e+002;1.190479e-001
7.810620e+002;1.186832e-001
7.829905e+002;1.177319e-001
7.849191e+002;1.173332e-001
7.868476e+002;1.161198e-001
7.887761e+002;1.138314e-001
7.907047e+002;1.118526e-001
7.926332e+002;1.113134e-001
7.945618e+002;1.110539e-001
7.964903e+002;1.090106e-001
7.984189e+002;1.073012e-001
8.003474e+002;1.073610e-001
8.022759e+002;1.071503e-001
8.042045e+002;1.063596e-001
8.061331e+002;1.057825e-001
8.080616e+002;1.053676e-001
8.099902e+002;1.055165e-001
8.119187e+002;1.058339e-001
8.138472e+002;1.058722e-001
8.157758e+002;1.056712e-001
8.177043e+002;1.050881e-001
8.196329e+002;1.043963e-001
8.215615e+002;1.041574e-001
8.234900e+002;1.041965e-001
8.254185e+002;1.045386e-001
8.273471e+002;1.050158e-001
8.292756e+002;1.051790e-001
8.312042e+002;1.055643e-001
8.331328e+002;1.054699e-001
8.350613e+002;1.045145e-001
8.369898e+002;1.041960e-001
8.389184e+002;1.043948e-001
8.408469e+002;1.047432e-001
8.427755e+002;1.051052e-001
8.447040e+002;1.055016e-001
8.466326e+002;1.059438e-001
8.485611e+002;1.055413e-001
8.504897e+002;1.049496e-001
8.524182e+002;1.054726e-001
8.543467e+002;1.061707e-001
8.562753e+002;1.060736e-001
8.582039e+002;1.068792e-001
8.601324e+002;1.087339e-001
8.620610e+002;1.099902e-001
8.639895e+002;1.107716e-001
8.659180e+002;1.124360e-001
8.678466e+002;1.150067e-001
8.697751e+002;1.174614e-001
8.717037e+002;1.197094e-001
8.736323e+002;1.222017e-001
8.755608e+002;1.249947e-001
8.774893e+002;1.276691e-001
8.794179e+002;1.297749e-001
8.813464e+002;1.319586e-001
8.832750e+002;1.351170e-001
8.852036e+002;1.382232e-001
8.871321e+002;1.412469e-001
8.890606e+002;1.442709e-001
8.909892e+002;1.473104e-001
8.929177e+002;1.502133e-001
8.948463e+002;1.516725e-001
8.967748e+002;1.521844e-001
8.987034e+002;1.524100e-001
9.006319e+002;1.520572e-001
9.025605e+002;1.507598e-001
9.044890e+002;1.491263e-001
9.064175e+002;1.471450e-001
9.083461e+002;1.451536e-001
9.102747e+002;1.432666e-001
9.122032e+002;1.412123e-001
9.141318e+002;1.390439e-001
9.160603e+002;1.376759e-001
9.179888e+002;1.373381e-001
9.199174e+002;1.373591e-001
9.218459e+002;1.377243e-001
9.237745e+002;1.384655e-001
9.257031e+002;1.391321e-001
9.276316e+002;1.404604e-001
9.295601e+002;1.421644e-001
9.314887e+002;1.436220e-001
9.334172e+002;1.452782e-001
9.353458e+002;1.466634e-001
9.372744e+002;1.482807e-001
9.392029e+002;1.502173e-001
9.411314e+002;1.524865e-001
9.430600e+002;1.551014e-001
9.449885e+002;1.579754e-001
9.469171e+002;1.613310e-001
9.488456e+002;1.644845e-001
9.507742e+002;1.675496e-001
9.527027e+002;1.717323e-001
9.546313e+002;1.766842e-001
9.565598e+002;1.815514e-001
9.584883e+002;1.867094e-001
9.604169e+002;1.925634e-001
9.623455e+002;1.983634e-001
9.642740e+002;2.042414e-001
9.662026e+002;2.107044e-001
9.681311e+002;2.179008e-001
9.700596e+002;2.257888e-001
9.719882e+002;2.350274e-001
9.739167e+002;2.454669e-001
9.758453e+002;2.570537e-001
9.777739e+002;2.701134e-001
9.797024e+002;2.837306e-001
9.816309e+002;2.962759e-001
9.835595e+002;3.060701e-001
9.854880e+002;3.123073e-001
9.874166e+002;3.167107e-001
9.893452e+002;3.200901e-001
9.912737e+002;3.232988e-001
9.932022e+002;3.277112e-001
9.951307e+002;3.325979e-001
9.970593e+002;3.373404e-001
9.989879e+002;3.419986e-001
1.000916e+003;3.451830e-001
1.002845e+003;3.468859e-001
1.004773e+003;3.482955e-001
1.006702e+003;3.499421e-001
1.008631e+003;3.516951e-001
1.010559e+003;3.541392e-001
1.012488e+003;3.569741e-001
1.014416e+003;3.598979e-001
1.016345e+003;3.627552e-001
1.018273e+003;3.661810e-001
1.020202e+003;3.702764e-001
1.022130e+003;3.738544e-001
1.024059e+003;3.765643e-001
1.025988e+003;3.794810e-001
1.027916e+003;3.822851e-001
1.029845e+003;3.832552e-001
1.031773e+003;3.821146e-001
1.033702e+003;3.791775e-001
1.035630e+003;3.750119e-001
1.037559e+003;3.700949e-001
1.039487e+003;3.643001e-001
1.041416e+003;3.606002e-001
1.043344e+003;3.588721e-001
1.045273e+003;3.581763e-001
1.047202e+003;3.586468e-001
1.049130e+003;3.607092e-001
1.051059e+003;3.632239e-001
1.052987e+003;3.632232e-001
1.054916e+003;3.607370e-001
1.056844e+003;3.570046e-001
1.058773e+003;3.504752e-001
1.060701e+003;3.406388e-001
1.062630e+003;3.287291e-001
1.064558e+003;3.158131e-001
1.066487e+003;3.027936e-001
1.068416e+003;2.912815e-001
1.070344e+003;2.824326e-001
1.072273e+003;2.747427e-001
1.074201e+003;2.684589e-001
1.076130e+003;2.630816e-001
1.078058e+003;2.571927e-001
1.079987e+003;2.522138e-001
1.081915e+003;2.486200e-001
1.083844e+003;2.458380e-001
1.085773e+003;2.437051e-001
1.087701e+003;2.430442e-001
1.089630e+003;2.426477e-001
1.091558e+003;2.421890e-001
1.093487e+003;2.424949e-001
1.095415e+003;2.429538e-001
1.097344e+003;2.433724e-001
1.099272e+003;2.437699e-001
1.101201e+003;2.443400e-001
1.103129e+003;2.446824e-001
1.105058e+003;2.437396e-001
1.106987e+003;2.411974e-001
1.108915e+003;2.377245e-001
1.110844e+003;2.338044e-001
1.112772e+003;2.286950e-001
1.114701e+003;2.216743e-001
1.116629e+003;2.136465e-001
1.118558e+003;2.061813e-001
1.120486e+003;1.985697e-001
1.122415e+003;1.913569e-001
1.124344e+003;1.857787e-001
1.126272e+003;1.806817e-001
1.128201e+003;1.748655e-001
1.130129e+003;1.690496e-001
1.132058e+003;1.646258e-001
1.133986e+003;1.611888e-001
1.135915e+003;1.580222e-001
1.137843e+003;1.558068e-001
1.139772e+003;1.548469e-001
1.141700e+003;1.551887e-001
1.143629e+003;1.565772e-001
1.145557e+003;1.581507e-001
1.147486e+003;1.596798e-001
1.149415e+003;1.613022e-001
1.151343e+003;1.628423e-001
1.153272e+003;1.640507e-001
1.155200e+003;1.647563e-001
1.157129e+003;1.652247e-001
1.159057e+003;1.649698e-001
1.160986e+003;1.639329e-001
1.162914e+003;1.618064e-001
1.164843e+003;1.577705e-001
1.166771e+003;1.526484e-001
1.168700e+003;1.464551e-001
1.170629e+003;1.395529e-001
1.172557e+003;1.331564e-001
1.174486e+003;1.272298e-001
1.176414e+003;1.220821e-001
1.178343e+003;1.185441e-001
1.180271e+003;1.156111e-001
1.182200e+003;1.127815e-001
1.184128e+003;1.110738e-001
1.186057e+003;1.105606e-001
1.187986e+003;1.108188e-001
1.189914e+003;1.119286e-001
1.191843e+003;1.140353e-001
1.193771e+003;1.169343e-001
1.195700e+003;1.196122e-001
1.197628e+003;1.215857e-001
1.199557e+003;1.224687e-001
1.201485e+003;1.228777e-001
1.203414e+003;1.233153e-001
1.205343e+003;1.230779e-001
1.207271e+003;1.216829e-001
1.209200e+003;1.188410e-001
1.211128e+003;1.154433e-001
1.213057e+003;1.125879e-001
1.214985e+003;1.109234e-001
1.216914e+003;1.109369e-001
1.218842e+003;1.119952e-001
1.220771e+003;1.132636e-001
1.222699e+003;1.147449e-001
1.224628e+003;1.163667e-001
1.226557e+003;1.181639e-001
1.228485e+003;1.202287e-001
1.230414e+003;1.220704e-001
1.232342e+003;1.232260e-001
1.234271e+003;1.238528e-001
1.236199e+003;1.242936e-001
1.238128e+003;1.247358e-001
1.240056e+003;1.249772e-001
1.241985e+003;1.251889e-001
1.243913e+003;1.257554e-001
1.245842e+003;1.266947e-001
1.247771e+003;1.274678e-001
1.249699e+003;1.272698e-001
1.251628e+003;1.268871e-001
1.253556e+003;1.265929e-001
1.255485e+003;1.260088e-001
1.257413e+003;1.252206e-001
1.259342e+003;1.243558e-001
1.261270e+003;1.238183e-001
1.263199e+003;1.232504e-001
1.265127e+003;1.235487e-001
1.267056e+003;1.249031e-001
1.268985e+003;1.265720e-001
1.270913e+003;1.280857e-001
1.272842e+003;1.293097e-001
1.274770e+003;1.299915e-001
1.276699e+003;1.302082e-001
1.278627e+003;1.306396e-001
1.280556e+003;1.306550e-001
1.282484e+003;1.296405e-001
1.284413e+003;1.284589e-001
1.286342e+003;1.278951e-001
1.288270e+003;1.277684e-001
1.290199e+003;1.280010e-001
1.292127e+003;1.289608e-001
1.294056e+003;1.302297e-001
1.295984e+003;1.314951e-001
1.297913e+003;1.329557e-001
1.299841e+003;1.348872e-001
1.301770e+003;1.374135e-001
1.303698e+003;1.407048e-001
1.305627e+003;1.441932e-001
1.307556e+003;1.479165e-001
1.309484e+003;1.521598e-001
1.311413e+003;1.562805e-001
1.313341e+003;1.591511e-001
1.315270e+003;1.603739e-001
1.317198e+003;1.602261e-001
1.319127e+003;1.590331e-001
1.321055e+003;1.569161e-001
1.322984e+003;1.541156e-001
1.324912e+003;1.516500e-001
1.326841e+003;1.500023e-001
1.328770e+003;1.488998e-001
1.330698e+003;1.483325e-001
1.332627e+003;1.483842e-001
1.334555e+003;1.483487e-001
1.336484e+003;1.478257e-001
1.338412e+003;1.466777e-001
1.340341e+003;1.448259e-001
1.342269e+003;1.425536e-001
1.344198e+003;1.402462e-001
1.346126e+003;1.381962e-001
1.348055e+003;1.367784e-001
1.349984e+003;1.362310e-001
1.351912e+003;1.363734e-001
1.353841e+003;1.369888e-001
1.355769e+003;1.381113e-001
1.357698e+003;1.391001e-001
1.359626e+003;1.397479e-001
1.361555e+003;1.398366e-001
1.363483e+003;1.393486e-001
1.365412e+003;1.385910e-001
1.367341e+003;1.377333e-001
1.369269e+003;1.368182e-001
1.371198e+003;1.357103e-001
1.373126e+003;1.340558e-001
1.375055e+003;1.317033e-001
1.376983e+003;1.287487e-001
1.378912e+003;1.258887e-001
1.380840e+003;1.235463e-001
1.382769e+003;1.210780e-001
1.384698e+003;1.186221e-001
1.386626e+003;1.167719e-001
1.388555e+003;1.151415e-001
1.390483e+003;1.139653e-001
1.392412e+003;1.129373e-001
1.394340e+003;1.123303e-001
1.396269e+003;1.121573e-001
1.398197e+003;1.123083e-001
1.400126e+003;1.126714e-001
1.402054e+003;1.131045e-001
1.403983e+003;1.135386e-001
1.405911e+003;1.139841e-001
1.407840e+003;1.144744e-001
1.409769e+003;1.149799e-001
1.411697e+003;1.155556e-001
1.413626e+003;1.162124e-001
1.415554e+003;1.169924e-001
1.417483e+003;1.183926e-001
1.419411e+003;1.202212e-001
1.421340e+003;1.217894e-001
1.423268e+003;1.228653e-001
1.425197e+003;1.237349e-001
1.427125e+003;1.245451e-001
1.429054e+003;1.246016e-001
1.430983e+003;1.237975e-001
1.432911e+003;1.225224e-001
1.434840e+003;1.208259e-001
1.436768e+003;1.191373e-001
1.438697e+003;1.175752e-001
1.440625e+003;1.164080e-001
1.442554e+003;1.154647e-001
1.444482e+003;1.146826e-001
1.446411e+003;1.142925e-001
1.448340e+003;1.139000e-001
1.450268e+003;1.132855e-001
1.452197e+003;1.127220e-001
1.454125e+003;1.122183e-001
1.456054e+003;1.110626e-001
1.457982e+003;1.095344e-001
1.459911e+003;1.079152e-001
1.461839e+003;1.066383e-001
1.463768e+003;1.052235e-001
1.465697e+003;1.031500e-001
1.467625e+003;1.010092e-001
1.469554e+003;9.890816e-002
1.471482e+003;9.663484e-002
1.473411e+003;9.447154e-002
1.475339e+003;9.220046e-002
1.477268e+003;9.007885e-002
1.479196e+003;8.867598e-002
1.481125e+003;8.723461e-002
1.483053e+003;8.525144e-002
1.484982e+003;8.272867e-002
1.486911e+003;8.021960e-002
1.488839e+003;7.788228e-002
1.490768e+003;7.569184e-002
1.492696e+003;7.412827e-002
1.494625e+003;7.305535e-002
1.496553e+003;7.203137e-002
1.498482e+003;7.123333e-002
1.500410e+003;7.049400e-002
1.502339e+003;6.964078e-002
1.504267e+003;6.927895e-002
1.506196e+003;6.920344e-002
1.508125e+003;6.879466e-002
1.510053e+003;6.825685e-002
1.511982e+003;6.783501e-002
1.513910e+003;6.729387e-002
1.515839e+003;6.663483e-002
1.517767e+003;6.601635e-002
1.519696e+003;6.527060e-002
1.521624e+003;6.471417e-002
1.523553e+003;6.453465e-002
1.525481e+003;6.415904e-002
1.527410e+003;6.403419e-002
1.529339e+003;6.395905e-002
1.531267e+003;6.391080e-002
1.533196e+003;6.410446e-002
1.535124e+003;6.408284e-002
1.537053e+003;6.384508e-002
1.538981e+003;6.346761e-002
1.540910e+003;6.303675e-002
1.542838e+003;6.286876e-002
1.544767e+003;6.306618e-002
1.546695e+003;6.334932e-002
1.548624e+003;6.351191e-002
1.550553e+003;6.345841e-002
1.552481e+003;6.333257e-002
1.554410e+003;6.332505e-002
1.556338e+003;6.340358e-002
1.558267e+003;6.344859e-002
1.560195e+003;6.345967e-002
1.562124e+003;6.352863e-002
1.564052e+003;6.363457e-002
1.565981e+003;6.395248e-002
1.567910e+003;6.423955e-002
1.569838e+003;6.447314e-002
1.571767e+003;6.489947e-002
1.573695e+003;6.543694e-002
1.575624e+003;6.578910e-002
1.577552e+003;6.593197e-002
1.579481e+003;6.625905e-002
1.581409e+003;6.688467e-002
1.583338e+003;6.761873e-002
1.585266e+003;6.798990e-002
1.587195e+003;6.833021e-002
1.589124e+003;6.907380e-002
1.591052e+003;6.976215e-002
1.592981e+003;7.032578e-002
1.594909e+003;7.087903e-002
1.596838e+003;7.169096e-002
1.598766e+003;7.281125e-002
1.600695e+003;7.383161e-002
1.602623e+003;7.501218e-002
1.604552e+003;7.641388e-002
1.606480e+003;7.777090e-002
1.608409e+003;7.885627e-002
1.610338e+003;7.972685e-002
1.612266e+003;8.062129e-002
1.614195e+003;8.173733e-002
1.616123e+003;8.277357e-002
1.618052e+003;8.362831e-002
1.619980e+003;8.438405e-002
1.621909e+003;8.476464e-002
1.623837e+003;8.504884e-002
1.625766e+003;8.532286e-002
1.627694e+003;8.556771e-002
1.629623e+003;8.560802e-002
1.631552e+003;8.528523e-002
1.633480e+003;8.511623e-002
1.635409e+003;8.506254e-002
1.637337e+003;8.493758e-002
1.639266e+003;8.462846e-002
1.641194e+003;8.433266e-002
1.643123e+003;8.437189e-002
1.645051e+003;8.407652e-002
1.646980e+003;8.344963e-002
1.648909e+003;8.281038e-002
1.650837e+003;8.216421e-002
1.652766e+003;8.151481e-002
1.654694e+003;8.071186e-002
1.656623e+003;7.994030e-002
1.658551e+003;7.920199e-002
1.660480e+003;7.838627e-002
1.662408e+003;7.758142e-002
1.664337e+003;7.666665e-002
1.666266e+003;7.554431e-002
1.668194e+003;7.432474e-002
1.670123e+003;7.326094e-002
1.672051e+003;7.219289e-002
1.673980e+003;7.104375e-002
1.675908e+003;7.003509e-002
1.677837e+003;6.929481e-002
1.679765e+003;6.832979e-002
1.681694e+003;6.694713e-002
1.683622e+003;6.556062e-002
1.685551e+003;6.470906e-002
1.687479e+003;6.428619e-002
1.689408e+003;6.348503e-002
1.691337e+003;6.241046e-002
1.693265e+003;6.150828e-002
1.695194e+003;6.089504e-002
1.697122e+003;6.035840e-002
1.699051e+003;5.962772e-002
1.700979e+003;5.900722e-002
1.702908e+003;5.862036e-002
1.704836e+003;5.803610e-002
1.706765e+003;5.741413e-002
1.708693e+003;5.691130e-002
1.710622e+003;5.646437e-002
1.712551e+003;5.609941e-002
1.714479e+003;5.579326e-002
1.716408e+003;5.550434e-002
1.718336e+003;5.529482e-002
1.720265e+003;5.521689e-002
1.722193e+003;5.508104e-002
1.724122e+003;5.498213e-002
1.726050e+003;5.484726e-002
1.727979e+003;5.495005e-002
1.729908e+003;5.533167e-002
1.731836e+003;5.525621e-002
1.733765e+003;5.514165e-002
1.735693e+003;5.530634e-002
1.737622e+003;5.517295e-002
1.739550e+003;5.474193e-002
1.741479e+003;5.435712e-002
1.743407e+003;5.377605e-002
1.745336e+003;5.308402e-002
1.747265e+003;5.243444e-002
1.749193e+003;5.167684e-002
1.751122e+003;5.108865e-002
1.753050e+003;5.045582e-002
1.754979e+003;4.974431e-002
1.756907e+003;4.929463e-002
1.758836e+003;4.890371e-002
1.760764e+003;4.836867e-002
1.762693e+003;4.793332e-002
1.764621e+003;4.764559e-002
1.766550e+003;4.765509e-002
1.768479e+003;4.766508e-002
1.770407e+003;4.736961e-002
1.772336e+003;4.696248e-002
1.774264e+003;4.684384e-002
1.776193e+003;4.689072e-002
1.778121e+003;4.685000e-002
1.780050e+003;4.671420e-002
1.781978e+003;4.655583e-002
1.783907e+003;4.627351e-002
1.785835e+003;4.619408e-002
1.787764e+003;4.618907e-002
1.789693e+003;4.585676e-002
1.791621e+003;4.555369e-002
1.793550e+003;4.555553e-002
1.795478e+003;4.562321e-002
1.797407e+003;4.555329e-002
1.799335e+003;4.519686e-002
1.801264e+003;4.491262e-002
1.803192e+003;4.504047e-002
1.805121e+003;4.510101e-002
1.807049e+003;4.486493e-002
1.808978e+003;4.475880e-002
1.810907e+003;4.464550e-002
1.812835e+003;4.450635e-002
1.814764e+003;4.443007e-002
1.816692e+003;4.430031e-002
1.818621e+003;4.424905e-002
1.820549e+003;4.421699e-002
1.822478e+003;4.399144e-002
1.824406e+003;4.396228e-002
1.826335e+003;4.401186e-002
1.828264e+003;4.377633e-002
1.830192e+003;4.370542e-002
1.832121e+003;4.374474e-002
1.834049e+003;4.362302e-002
1.835978e+003;4.353130e-002
1.837906e+003;4.339382e-002
1.839835e+003;4.311285e-002
1.841763e+003;4.287463e-002
1.843692e+003;4.276251e-002
1.845620e+003;4.285718e-002
1.847549e+003;4.295096e-002
1.849478e+003;4.274547e-002
1.851406e+003;4.256055e-002
1.853335e+003;4.254228e-002
1.855263e+003;4.244358e-002
1.857192e+003;4.230572e-002
1.859120e+003;4.211160e-002
1.861049e+003;4.191216e-002
1.862977e+003;4.201180e-002
1.864906e+003;4.212021e-002
1.866834e+003;4.217805e-002
1.868763e+003;4.253570e-002
1.870692e+003;4.250446e-002
1.872620e+003;4.215165e-002
1.874549e+003;4.201695e-002
1.876477e+003;4.184751e-002
1.878406e+003;4.174536e-002
1.880334e+003;4.199731e-002
1.882263e+003;4.194439e-002
1.884191e+003;4.185294e-002
1.886120e+003;4.204553e-002
1.888048e+003;4.217159e-002
1.889977e+003;4.218009e-002
1.891906e+003;4.199285e-002
1.893834e+003;4.189706e-002
1.895763e+003;4.190841e-002
1.897691e+003;4.176043e-002
1.899620e+003;4.157089e-002
1.901548e+003;4.154748e-002
1.903477e+003;4.147799e-002
1.905405e+003;4.160185e-002
1.907334e+003;4.172209e-002
1.909262e+003;4.167602e-002
1.911191e+003;4.164284e-002
1.913120e+003;4.171531e-002
1.915048e+003;4.186254e-002
1.916977e+003;4.197026e-002
1.918905e+003;4.224674e-002
1.920834e+003;4.225481e-002
1.922762e+003;4.219178e-002
1.924691e+003;4.241669e-002
1.926619e+003;4.246474e-002
1.928548e+003;4.213851e-002
1.930477e+003;4.213551e-002
1.932405e+003;4.234104e-002
1.934334e+003;4.237092e-002
1.936262e+003;4.230568e-002
1.938191e+003;4.239375e-002
1.940119e+003;4.248743e-002
1.942048e+003;4.271692e-002
1.943976e+003;4.291910e-002
1.945905e+003;4.264958e-002
1.947833e+003;4.243672e-002
1.949762e+003;4.255963e-002
1.951691e+003;4.291789e-002
1.953619e+003;4.333879e-002
1.955548e+003;4.359005e-002
1.957476e+003;4.352470e-002
1.959405e+003;4.342857e-002
1.961333e+003;4.338383e-002
1.963262e+003;4.324105e-002
1.965190e+003;4.311120e-002
1.967119e+003;4.308581e-002
1.969047e+003;4.332685e-002
1.970976e+003;4.350189e-002
1.972905e+003;4.348548e-002
1.974833e+003;4.358324e-002
1.976762e+003;4.370088e-002
1.978690e+003;4.367497e-002
1.980619e+003;4.366380e-002
1.982547e+003;4.371015e-002
1.984476e+003;4.377222e-002
1.986404e+003;4.371616e-002
1.988333e+003;4.388548e-002
1.990261e+003;4.416597e-002
1.992190e+003;4.422422e-002
1.994119e+003;4.403309e-002
1.996047e+003;4.384809e-002
1.997976e+003;4.405293e-002
1.999904e+003;4.426259e-002
2.001833e+003;4.433825e-002
2.003761e+003;4.419857e-002
2.005690e+003;4.410295e-002
2.007618e+003;4.424245e-002
2.009547e+003;4.423717e-002
2.011476e+003;4.452658e-002
2.013404e+003;4.462149e-002
2.015333e+003;4.453109e-002
2.017261e+003;4.486835e-002
2.019190e+003;4.530493e-002
2.021118e+003;4.547197e-002
2.023047e+003;4.557827e-002
2.024975e+003;4.567131e-002
2.026904e+003;4.565147e-002
2.028833e+003;4.561349e-002
2.030761e+003;4.588857e-002
2.032690e+003;4.597634e-002
2.034618e+003;4.593763e-002
2.036547e+003;4.599063e-002
2.038475e+003;4.583503e-002
2.040404e+003;4.564717e-002
2.042332e+003;4.601509e-002
2.044261e+003;4.636865e-002
2.046189e+003;4.632515e-002
2.048118e+003;4.632917e-002
2.050047e+003;4.627097e-002
2.051975e+003;4.614946e-002
2.053904e+003;4.620687e-002
2.055832e+003;4.624764e-002
2.057761e+003;4.610657e-002
2.059689e+003;4.604633e-002
2.061618e+003;4.611140e-002
2.063546e+003;4.615031e-002
2.065475e+003;4.617289e-002
2.067404e+003;4.614275e-002
2.069332e+003;4.622442e-002
2.071260e+003;4.634377e-002
2.073189e+003;4.638698e-002
2.075118e+003;4.625818e-002
2.077046e+003;4.594102e-002
2.078975e+003;4.596238e-002
2.080903e+003;4.614684e-002
2.082832e+003;4.604427e-002
2.084760e+003;4.601756e-002
2.086689e+003;4.626042e-002
2.088617e+003;4.625062e-002
2.090546e+003;4.604405e-002
2.092475e+003;4.602578e-002
2.094403e+003;4.615989e-002
2.096332e+003;4.578613e-002
2.098260e+003;4.553717e-002
2.100189e+003;4.590386e-002
2.102117e+003;4.625014e-002
2.104046e+003;4.627377e-002
2.105974e+003;4.616391e-002
2.107903e+003;4.616294e-002
2.109832e+003;4.625984e-002
2.111760e+003;4.657701e-002
2.113688e+003;4.686625e-002
2.115617e+003;4.683583e-002
2.117546e+003;4.700062e-002
2.119474e+003;4.715357e-002
2.121403e+003;4.708577e-002
2.123331e+003;4.719128e-002
2.125260e+003;4.741998e-002
2.127188e+003;4.752599e-002
2.129117e+003;4.742468e-002
2.131045e+003;4.752987e-002
2.132974e+003;4.766670e-002
2.134903e+003;4.748995e-002
2.136831e+003;4.719357e-002
2.138760e+003;4.714434e-002
2.140688e+003;4.718589e-002
2.142617e+003;4.697787e-002
2.144545e+003;4.669590e-002
2.146474e+003;4.678309e-002
2.148402e+003;4.706874e-002
2.150331e+003;4.701996e-002
2.152260e+003;4.691489e-002
2.154188e+003;4.700135e-002
2.156117e+003;4.708765e-002
2.158045e+003;4.682849e-002
2.159974e+003;4.640622e-002
2.161902e+003;4.636552e-002
2.163831e+003;4.624870e-002
2.165759e+003;4.606232e-002
2.167688e+003;4.584530e-002
2.169616e+003;4.569863e-002
2.171545e+003;4.549360e-002
2.173474e+003;4.516671e-002
2.175402e+003;4.487830e-002
2.177331e+003;4.478569e-002
2.179259e+003;4.491736e-002
2.181188e+003;4.475241e-002
2.183116e+003;4.478418e-002
2.185045e+003;4.490237e-002
2.186973e+003;4.455191e-002
2.188902e+003;4.419234e-002
2.190831e+003;4.392621e-002
2.192759e+003;4.375321e-002
2.194688e+003;4.394887e-002
2.196616e+003;4.401512e-002
2.198545e+003;4.387936e-002
2.200473e+003;4.378381e-002
2.202402e+003;4.380884e-002
2.204330e+003;4.378022e-002
2.206259e+003;4.352470e-002
2.208188e+003;4.337881e-002
2.210116e+003;4.347423e-002
2.212044e+003;4.368139e-002
2.213973e+003;4.380275e-002
2.215902e+003;4.372682e-002
2.217830e+003;4.353467e-002
2.219759e+003;4.366508e-002
2.221687e+003;4.363603e-002
2.223616e+003;4.343263e-002
2.225544e+003;4.338397e-002
2.227473e+003;4.333718e-002
2.229401e+003;4.327374e-002
2.231330e+003;4.329943e-002
2.233259e+003;4.327418e-002
2.235187e+003;4.327630e-002
2.237116e+003;4.354723e-002
2.239044e+003;4.360159e-002
2.240973e+003;4.330163e-002
2.242901e+003;4.310557e-002
2.244830e+003;4.301084e-002
2.246758e+003;4.301040e-002
2.248687e+003;4.296325e-002
2.250615e+003;4.283414e-002
2.252544e+003;4.274288e-002
2.254473e+003;4.282752e-002
2.256401e+003;4.276668e-002
2.258330e+003;4.261819e-002
2.260258e+003;4.245787e-002
2.262187e+003;4.221340e-002
2.264115e+003;4.215990e-002
2.266044e+003;4.195300e-002
2.267972e+003;4.173715e-002
2.269901e+003;4.202271e-002
2.271830e+003;4.215012e-002
2.273758e+003;4.212945e-002
2.275687e+003;4.190206e-002
2.277615e+003;4.167387e-002
2.279544e+003;4.169918e-002
2.281472e+003;4.163383e-002
2.283401e+003;4.134273e-002
2.285329e+003;4.135775e-002
2.287258e+003;4.161490e-002
2.289187e+003;4.176177e-002
2.291115e+003;4.169422e-002
2.293043e+003;4.165217e-002
2.294972e+003;4.154303e-002
2.296901e+003;4.119742e-002
2.298829e+003;4.121553e-002
2.300758e+003;4.140323e-002
2.302686e+003;4.127936e-002
2.304615e+003;4.115811e-002
2.306543e+003;4.117727e-002
2.308472e+003;4.121618e-002
2.310400e+003;4.116620e-002
2.312329e+003;4.097448e-002
2.314258e+003;4.094754e-002
2.316186e+003;4.125338e-002
2.318115e+003;4.118853e-002
2.320043e+003;4.106356e-002
2.321972e+003;4.143968e-002
2.323900e+003;4.159065e-002
2.325829e+003;4.143804e-002
2.327757e+003;4.153993e-002
2.329686e+003;4.177064e-002
2.331615e+003;4.191779e-002
2.333543e+003;4.203406e-002
2.335472e+003;4.213157e-002
2.337400e+003;4.221215e-002
2.339329e+003;4.227387e-002
2.341257e+003;4.232566e-002
2.343186e+003;4.262608e-002
2.345114e+003;4.283520e-002
2.347043e+003;4.277213e-002
2.348971e+003;4.287536e-002
2.350900e+003;4.311234e-002
2.352829e+003;4.329310e-002
2.354757e+003;4.321242e-002
2.356686e+003;4.319102e-002
2.358614e+003;4.322498e-002
2.360543e+003;4.335713e-002
2.362471e+003;4.352302e-002
2.364400e+003;4.350017e-002
2.366328e+003;4.365039e-002
2.368257e+003;4.381210e-002
2.370186e+003;4.370531e-002
2.372114e+003;4.381408e-002
2.374042e+003;4.387111e-002
2.375971e+003;4.383394e-002
2.377900e+003;4.391012e-002
2.379828e+003;4.392331e-002
2.381757e+003;4.393724e-002
2.383685e+003;4.394652e-002
2.385614e+003;4.398891e-002
2.387542e+003;4.430071e-002
2.389471e+003;4.470705e-002
2.391399e+003;4.499696e-002
2.393328e+003;4.493085e-002
2.395257e+003;4.489172e-002
2.397185e+003;4.502434e-002
2.399114e+003;4.522716e-002
2.401042e+003;4.529000e-002
2.402971e+003;4.542922e-002
2.404899e+003;4.570396e-002
2.406828e+003;4.585513e-002
2.408756e+003;4.585241e-002
2.410685e+003;4.579269e-002
2.412614e+003;4.564846e-002
2.414542e+003;4.606630e-002
2.416471e+003;4.640269e-002
2.418399e+003;4.629172e-002
2.420328e+003;4.648019e-002
2.422256e+003;4.669992e-002
2.424185e+003;4.675520e-002
2.426113e+003;4.688799e-002
2.428042e+003;4.705711e-002
2.429970e+003;4.710781e-002
2.431899e+003;4.736086e-002
2.433828e+003;4.785219e-002
2.435756e+003;4.816571e-002
2.437685e+003;4.814591e-002
2.439613e+003;4.791930e-002
2.441542e+003;4.770901e-002
2.443470e+003;4.813676e-002
2.445399e+003;4.849657e-002
2.447327e+003;4.855241e-002
2.449256e+003;4.878980e-002
2.451185e+003;4.896238e-002
2.453113e+003;4.907458e-002
2.455042e+003;4.919910e-002
2.456970e+003;4.920415e-002
2.458899e+003;4.937255e-002
2.460827e+003;4.941550e-002
2.462756e+003;4.926497e-002
2.464684e+003;4.918422e-002
2.466613e+003;4.924724e-002
2.468542e+003;4.951393e-002
2.470470e+003;4.991998e-002
2.472398e+003;5.004511e-002
2.474327e+003;5.027346e-002
2.476256e+003;5.051243e-002
2.478184e+003;5.046322e-002
2.480113e+003;5.045742e-002
2.482041e+003;5.072292e-002
2.483970e+003;5.093352e-002
2.485898e+003;5.117815e-002
2.487827e+003;5.144835e-002
2.489755e+003;5.154157e-002
2.491684e+003;5.176870e-002
2.493613e+003;5.214357e-002
2.495541e+003;5.200434e-002
2.497470e+003;5.200684e-002
2.499398e+003;5.225914e-002
2.501327e+003;5.238087e-002
2.503255e+003;5.252485e-002
2.505184e+003;5.245594e-002
2.507112e+003;5.234103e-002
2.509041e+003;5.243220e-002
2.510969e+003;5.273255e-002
2.512898e+003;5.318828e-002
2.514827e+003;5.368819e-002
2.516755e+003;5.374286e-002
2.518684e+003;5.362735e-002
2.520612e+003;5.337669e-002
2.522541e+003;5.360797e-002
2.524469e+003;5.413307e-002
2.526398e+003;5.429662e-002
2.528326e+003;5.420536e-002
2.530255e+003;5.413179e-002
2.532184e+003;5.422383e-002
2.534112e+003;5.425161e-002
2.536041e+003;5.433642e-002
2.537969e+003;5.446359e-002
2.539898e+003;5.436688e-002
2.541826e+003;5.421899e-002
2.543755e+003;5.452456e-002
2.545683e+003;5.487557e-002
2.547612e+003;5.481899e-002
2.549541e+003;5.446483e-002
2.551469e+003;5.435257e-002
2.553397e+003;5.455608e-002
2.555326e+003;5.475546e-002
2.557255e+003;5.504287e-002
2.559183e+003;5.509616e-002
2.561112e+003;5.502470e-002
2.563040e+003;5.518198e-002
2.564969e+003;5.535598e-002
2.566897e+003;5.549048e-002
2.568826e+003;5.532964e-002
2.570754e+003;5.487241e-002
2.572683e+003;5.482744e-002
2.574612e+003;5.526261e-002
2.576540e+003;5.553615e-002
2.578469e+003;5.545370e-002
2.580397e+003;5.549011e-002
2.582326e+003;5.576926e-002
2.584254e+003;5.567979e-002
2.586183e+003;5.577295e-002
2.588111e+003;5.582762e-002
2.590040e+003;5.611505e-002
2.591969e+003;5.662987e-002
2.593897e+003;5.653045e-002
2.595826e+003;5.634806e-002
2.597754e+003;5.685098e-002
2.599683e+003;5.718944e-002
2.601611e+003;5.725408e-002
2.603540e+003;5.743058e-002
2.605468e+003;5.757920e-002
2.607397e+003;5.761889e-002
2.609325e+003;5.770527e-002
2.611254e+003;5.789578e-002
2.613183e+003;5.789990e-002
2.615111e+003;5.800005e-002
2.617040e+003;5.803667e-002
2.618968e+003;5.812803e-002
2.620897e+003;5.817405e-002
2.622825e+003;5.832205e-002
2.624754e+003;5.869867e-002
2.626682e+003;5.902362e-002
2.628611e+003;5.895288e-002
2.630540e+003;5.915475e-002
2.632468e+003;5.988041e-002
2.634396e+003;6.008237e-002
2.636325e+003;5.984717e-002
2.638254e+003;6.003808e-002
2.640182e+003;6.036643e-002
2.642111e+003;6.052786e-002
2.644039e+003;6.064283e-002
2.645968e+003;6.086196e-002
2.647896e+003;6.083512e-002
2.649825e+003;6.090759e-002
2.651753e+003;6.122099e-002
2.653682e+003;6.111807e-002
2.655611e+003;6.120123e-002
2.657539e+003;6.157047e-002
2.659468e+003;6.181520e-002
2.661396e+003;6.195829e-002
2.663325e+003;6.172574e-002
2.665253e+003;6.176860e-002
2.667182e+003;6.210461e-002
2.669110e+003;6.226370e-002
2.671039e+003;6.234463e-002
2.672968e+003;6.260353e-002
2.674896e+003;6.324146e-002
2.676825e+003;6.358214e-002
2.678753e+003;6.352986e-002
2.680682e+003;6.380498e-002
2.682610e+003;6.399061e-002
2.684539e+003;6.392857e-002
2.686467e+003;6.405792e-002
2.688396e+003;6.405105e-002
2.690324e+003;6.411763e-002
2.692253e+003;6.467903e-002
2.694182e+003;6.525134e-002
2.696110e+003;6.545085e-002
2.698039e+003;6.544076e-002
2.699967e+003;6.536857e-002
2.701896e+003;6.560011e-002
2.703824e+003;6.582025e-002
2.705753e+003;6.584258e-002
2.707681e+003;6.588989e-002
2.709610e+003;6.598951e-002
2.711539e+003;6.643570e-002
2.713467e+003;6.697965e-002
2.715396e+003;6.698757e-002
2.717324e+003;6.696391e-002
2.719253e+003;6.733886e-002
2.721181e+003;6.750623e-002
2.723110e+003;6.758992e-002
2.725038e+003;6.781003e-002
2.726967e+003;6.805470e-002
2.728896e+003;6.794965e-002
2.730824e+003;6.790148e-002
2.732752e+003;6.805938e-002
2.734681e+003;6.821594e-002
2.736610e+003;6.819048e-002
2.738538e+003;6.800420e-002
2.740467e+003;6.837276e-002
2.742395e+003;6.882610e-002
2.744324e+003;6.865038e-002
2.746252e+003;6.829540e-002
2.748181e+003;6.848121e-002
2.750109e+003;6.895362e-002
2.752038e+003;6.913576e-002
2.753967e+003;6.897028e-002
2.755895e+003;6.880926e-002
2.757824e+003;6.891902e-002
2.759752e+003;6.939350e-002
2.761681e+003;6.971184e-002
2.763609e+003;6.962872e-002
2.765538e+003;6.951504e-002
2.767466e+003;6.977083e-002
2.769395e+003;6.992855e-002
2.771323e+003;7.008883e-002
2.773252e+003;7.058973e-002
2.775181e+003;7.091703e-002
2.777109e+003;7.100770e-002
2.779038e+003;7.113165e-002
2.780966e+003;7.095015e-002
2.782895e+003;7.059608e-002
2.784823e+003;7.089455e-002
2.786752e+003;7.124613e-002
2.788680e+003;7.182527e-002
2.790609e+003;7.249321e-002
2.792538e+003;7.295304e-002
2.794466e+003;7.331888e-002
2.796395e+003;7.357813e-002
2.798323e+003;7.392741e-002
2.800252e+003;7.429290e-002
2.802180e+003;7.429443e-002
2.804109e+003;7.416078e-002
2.806037e+003;7.458361e-002
2.807966e+003;7.534989e-002
2.809895e+003;7.569847e-002
2.811823e+003;7.607961e-002
2.813751e+003;7.689493e-002
2.815680e+003;7.758808e-002
2.817609e+003;7.789552e-002
2.819537e+003;7.827781e-002
2.821466e+003;7.863971e-002
2.823394e+003;7.893677e-002
2.825323e+003;7.981409e-002
2.827251e+003;8.065488e-002
2.829180e+003;8.133532e-002
2.831108e+003;8.202744e-002
2.833037e+003;8.273641e-002
2.834966e+003;8.362124e-002
2.836894e+003;8.449782e-002
2.838823e+003;8.527806e-002
2.840751e+003;8.604717e-002
2.842680e+003;8.713251e-002
2.844608e+003;8.907028e-002
2.846537e+003;9.113770e-002
2.848465e+003;9.306046e-002
2.850394e+003;9.507236e-002
2.852323e+003;9.649301e-002
2.854251e+003;9.739789e-002
2.856180e+003;9.857150e-002
2.858108e+003;9.954628e-002
2.860037e+003;9.994753e-002
2.861965e+003;1.006231e-001
2.863894e+003;1.015171e-001
2.865822e+003;1.022600e-001
2.867751e+003;1.029654e-001
2.869679e+003;1.037845e-001
2.871608e+003;1.040535e-001
2.873536e+003;1.043389e-001
2.875465e+003;1.051345e-001
2.877394e+003;1.054893e-001
2.879322e+003;1.055250e-001
2.881251e+003;1.061045e-001
2.883179e+003;1.067431e-001
2.885108e+003;1.069811e-001
2.887036e+003;1.073204e-001
2.888965e+003;1.078667e-001
2.890893e+003;1.085606e-001
2.892822e+003;1.094768e-001
2.894750e+003;1.098648e-001
2.896679e+003;1.097813e-001
2.898608e+003;1.095398e-001
2.900536e+003;1.093348e-001
2.902465e+003;1.092051e-001
2.904393e+003;1.090944e-001
2.906322e+003;1.087781e-001
2.908250e+003;1.085017e-001
2.910179e+003;1.082035e-001
2.912107e+003;1.075597e-001
2.914036e+003;1.071016e-001
2.915965e+003;1.067797e-001
2.917893e+003;1.060464e-001
2.919822e+003;1.053709e-001
2.921750e+003;1.049016e-001
2.923679e+003;1.040916e-001
2.925607e+003;1.025647e-001
2.927536e+003;1.012787e-001
2.929464e+003;1.006184e-001
2.931393e+003;9.978486e-002
2.933322e+003;9.838475e-002
2.935250e+003;9.698685e-002
2.937178e+003;9.599614e-002
2.939107e+003;9.519222e-002
2.941036e+003;9.453522e-002
2.942964e+003;9.378070e-002
2.944893e+003;9.261647e-002
2.946821e+003;9.139187e-002
2.948750e+003;9.027435e-002
2.950678e+003;8.896726e-002
2.952607e+003;8.778757e-002
2.954535e+003;8.651972e-002
2.956464e+003;8.488943e-002
2.958393e+003;8.383560e-002
2.960321e+003;8.290541e-002
2.962250e+003;8.171538e-002
2.964178e+003;8.112235e-002
2.966107e+003;8.050478e-002
2.968035e+003;7.984643e-002
2.969964e+003;7.908208e-002
2.971892e+003;7.791126e-002
2.973821e+003;7.687064e-002
2.975750e+003;7.618085e-002
2.977678e+003;7.511522e-002
2.979607e+003;7.361888e-002
2.981535e+003;7.272925e-002
2.983464e+003;7.217979e-002
2.985392e+003;7.175694e-002
2.987321e+003;7.086834e-002
2.989249e+003;7.009159e-002
2.991178e+003;7.023670e-002
2.993106e+003;7.013918e-002
2.995035e+003;6.978865e-002
2.996964e+003;6.969955e-002
2.998892e+003;6.959499e-002
3.000821e+003;6.913343e-002
3.002749e+003;6.815586e-002
3.004678e+003;6.759530e-002
3.006606e+003;6.791811e-002
3.008535e+003;6.843971e-002
3.010463e+003;6.843742e-002
3.012392e+003;6.838063e-002
3.014321e+003;6.865554e-002
3.016249e+003;6.888442e-002
3.018177e+003;6.887623e-002
3.020106e+003;6.847609e-002
3.022035e+003;6.871624e-002
3.023963e+003;6.961849e-002
3.025892e+003;7.011203e-002
3.027820e+003;7.034059e-002
3.029749e+003;7.076222e-002
3.031677e+003;7.091313e-002
3.033606e+003;7.081986e-002
3.035534e+003;7.087108e-002
3.037463e+003;7.119527e-002
3.039392e+003;7.162914e-002
3.041320e+003;7.176291e-002
3.043249e+003;7.182659e-002
3.045177e+003;7.184559e-002
3.047106e+003;7.225143e-002
3.049034e+003;7.272530e-002
3.050963e+003;7.317078e-002
3.052891e+003;7.369653e-002
3.054820e+003;7.424092e-002
3.056749e+003;7.463036e-002
3.058677e+003;7.495048e-002
3.060606e+003;7.509174e-002
3.062534e+003;7.544456e-002
3.064463e+003;7.574880e-002
3.066391e+003;7.595248e-002
3.068320e+003;7.643791e-002
3.070248e+003;7.680144e-002
3.072177e+003;7.703508e-002
3.074105e+003;7.723185e-002
3.076034e+003;7.742778e-002
3.077963e+003;7.780305e-002
3.079891e+003;7.836270e-002
3.081820e+003;7.862553e-002
3.083748e+003;7.904221e-002
3.085677e+003;7.955141e-002
3.087605e+003;8.003929e-002
3.089534e+003;8.055431e-002
3.091462e+003;8.088546e-002
3.093391e+003;8.110227e-002
3.095320e+003;8.178617e-002
3.097248e+003;8.270470e-002
3.099177e+003;8.279534e-002
3.101105e+003;8.282365e-002
3.103034e+003;8.344059e-002
3.104962e+003;8.401717e-002
3.106891e+003;8.450337e-002
3.108819e+003;8.519592e-002
3.110748e+003;8.570609e-002
3.112677e+003;8.616744e-002
3.114605e+003;8.685233e-002
3.116533e+003;8.751508e-002
3.118462e+003;8.794520e-002
3.120391e+003;8.799182e-002
3.122319e+003;8.804214e-002
3.124248e+003;8.896673e-002
3.126176e+003;9.016721e-002
3.128105e+003;9.038466e-002
3.130033e+003;9.038495e-002
3.131962e+003;9.069938e-002
3.133890e+003;9.112193e-002
3.135819e+003;9.164680e-002
3.137748e+003;9.222844e-002
3.139676e+003;9.296946e-002
3.141605e+003;9.363586e-002
3.143533e+003;9.413115e-002
3.145462e+003;9.447385e-002
3.147390e+003;9.482893e-002
3.149319e+003;9.576864e-002
3.151247e+003;9.582627e-002
3.153176e+003;9.619908e-002
3.155104e+003;9.683617e-002
3.157033e+003;9.769102e-002
3.158962e+003;9.857820e-002
3.160890e+003;9.906646e-002
3.162819e+003;9.949644e-002
3.164747e+003;9.985837e-002
3.166676e+003;1.005875e-001
3.168604e+003;1.011960e-001
3.170533e+003;1.014800e-001
3.172461e+003;1.021384e-001
3.174390e+003;1.028489e-001
3.176319e+003;1.033235e-001
3.178247e+003;1.038519e-001
3.180176e+003;1.044125e-001
3.182104e+003;1.049531e-001
3.184033e+003;1.054834e-001
3.185961e+003;1.066350e-001
3.187890e+003;1.079526e-001
3.189818e+003;1.083816e-001
3.191747e+003;1.088145e-001
3.193676e+003;1.095677e-001
3.195604e+003;1.097101e-001
3.197532e+003;1.103312e-001
3.199461e+003;1.115554e-001
3.201390e+003;1.123792e-001
3.203318e+003;1.134621e-001
3.205247e+003;1.143287e-001
3.207175e+003;1.146381e-001
3.209104e+003;1.151513e-001
3.211032e+003;1.158994e-001
3.212961e+003;1.169683e-001
3.214889e+003;1.180363e-001
3.216818e+003;1.188647e-001
3.218747e+003;1.196693e-001
3.220675e+003;1.201627e-001
3.222604e+003;1.208820e-001
3.224532e+003;1.220920e-001
3.226461e+003;1.232526e-001
3.228389e+003;1.241351e-001
3.230318e+003;1.245822e-001
3.232246e+003;1.252346e-001
3.234175e+003;1.267296e-001
3.236104e+003;1.277217e-001
3.238032e+003;1.280093e-001
3.239961e+003;1.283069e-001
3.241889e+003;1.290621e-001
3.243818e+003;1.302491e-001
3.245746e+003;1.316299e-001
3.247675e+003;1.325222e-001
3.249603e+003;1.332811e-001
3.251532e+003;1.346494e-001
3.253460e+003;1.358689e-001
3.255389e+003;1.365184e-001
3.257318e+003;1.370909e-001
3.259246e+003;1.375926e-001
3.261175e+003;1.385970e-001
3.263103e+003;1.399358e-001
3.265032e+003;1.403831e-001
3.266960e+003;1.406054e-001
3.268889e+003;1.419659e-001
3.270817e+003;1.433643e-001
3.272746e+003;1.435272e-001
3.274675e+003;1.438052e-001
3.276603e+003;1.448117e-001
3.278531e+003;1.454263e-001
3.280460e+003;1.459577e-001
3.282389e+003;1.456736e-001
3.284317e+003;1.461430e-001
3.286246e+003;1.470265e-001
3.288174e+003;1.468286e-001
3.290103e+003;1.472264e-001
3.292031e+003;1.476621e-001
3.293960e+003;1.473483e-001
3.295888e+003;1.473551e-001
3.297817e+003;1.475687e-001
3.299746e+003;1.479811e-001
3.301674e+003;1.484451e-001
3.303603e+003;1.486913e-001
3.305531e+003;1.490493e-001
3.307460e+003;1.492950e-001
3.309388e+003;1.491093e-001
3.311317e+003;1.486909e-001
3.313245e+003;1.487411e-001
3.315174e+003;1.496095e-001
3.317103e+003;1.504174e-001
3.319031e+003;1.507636e-001
3.320960e+003;1.510650e-001
3.322888e+003;1.506066e-001
3.324817e+003;1.504525e-001
3.326745e+003;1.509322e-001
3.328674e+003;1.513976e-001
3.330602e+003;1.513120e-001
3.332531e+003;1.513482e-001
3.334459e+003;1.509948e-001
3.336388e+003;1.509124e-001
3.338317e+003;1.505853e-001
3.340245e+003;1.495000e-001
3.342174e+003;1.490380e-001
3.344102e+003;1.486876e-001
3.346031e+003;1.484566e-001
3.347959e+003;1.480413e-001
3.349888e+003;1.468651e-001
3.351816e+003;1.460743e-001
3.353745e+003;1.453341e-001
3.355674e+003;1.448173e-001
3.357602e+003;1.448805e-001
3.359531e+003;1.445117e-001
3.361459e+003;1.436197e-001
3.363388e+003;1.420762e-001
3.365316e+003;1.407653e-001
3.367245e+003;1.402969e-001
3.369173e+003;1.403097e-001
3.371102e+003;1.401233e-001
3.373031e+003;1.391701e-001
3.374959e+003;1.385256e-001
3.376887e+003;1.375951e-001
3.378816e+003;1.364839e-001
3.380745e+003;1.356084e-001
3.382673e+003;1.357622e-001
3.384602e+003;1.359572e-001
3.386530e+003;1.353563e-001
3.388459e+003;1.343307e-001
3.390387e+003;1.339288e-001
3.392316e+003;1.334990e-001
3.394244e+003;1.327709e-001
3.396173e+003;1.324064e-001
3.398102e+003;1.319565e-001
3.400030e+003;1.307076e-001
3.401959e+003;1.298807e-001
3.403887e+003;1.289912e-001
3.405816e+003;1.278575e-001
3.407744e+003;1.276991e-001
3.409673e+003;1.271572e-001
3.411601e+003;1.255600e-001
3.413530e+003;1.250303e-001
3.415458e+003;1.252380e-001
3.417387e+003;1.245899e-001
3.419316e+003;1.235151e-001
3.421244e+003;1.220426e-001
3.423173e+003;1.211103e-001
3.425101e+003;1.203296e-001
3.427030e+003;1.195921e-001
3.428958e+003;1.191652e-001
3.430887e+003;1.184091e-001
3.432815e+003;1.175324e-001
3.434744e+003;1.167509e-001
3.436673e+003;1.162012e-001
3.438601e+003;1.154021e-001
3.440530e+003;1.145696e-001
3.442458e+003;1.138918e-001
3.444387e+003;1.128992e-001
3.446315e+003;1.115198e-001
3.448244e+003;1.108537e-001
3.450172e+003;1.110500e-001
3.452101e+003;1.105708e-001
3.454030e+003;1.090959e-001
3.455958e+003;1.074245e-001
3.457886e+003;1.064635e-001
3.459815e+003;1.058922e-001
3.461744e+003;1.049690e-001
3.463672e+003;1.043722e-001
3.465601e+003;1.037127e-001
3.467529e+003;1.028659e-001
3.469458e+003;1.022440e-001
3.471386e+003;1.013235e-001
3.473315e+003;1.002167e-001
3.475243e+003;9.930766e-002
3.477172e+003;9.787557e-002
3.479101e+003;9.649549e-002
3.481029e+003;9.564725e-002
3.482958e+003;9.531432e-002
3.484886e+003;9.477918e-002
3.486815e+003;9.409671e-002
3.488743e+003;9.319230e-002
3.490672e+003;9.162594e-002
3.492600e+003;9.107652e-002
3.494529e+003;9.116027e-002
3.496458e+003;9.014947e-002
3.498386e+003;8.890086e-002
3.500315e+003;8.856229e-002
3.502243e+003;8.790926e-002
3.504172e+003;8.652918e-002
3.506100e+003;8.536471e-002
3.508029e+003;8.470596e-002
3.509957e+003;8.428028e-002
3.511886e+003;8.359075e-002
3.513814e+003;8.246858e-002
3.515743e+003;8.174489e-002
3.517672e+003;8.088291e-002
3.519600e+003;7.985076e-002
3.521529e+003;7.854795e-002
3.523457e+003;7.749198e-002
3.525386e+003;7.696451e-002
3.527314e+003;7.641219e-002
3.529243e+003;7.566656e-002
3.531171e+003;7.489516e-002
3.533100e+003;7.446258e-002
3.535029e+003;7.370124e-002
3.536957e+003;7.278159e-002
3.538885e+003;7.229909e-002
3.540814e+003;7.164868e-002
3.542743e+003;7.083660e-002
3.544671e+003;6.990683e-002
3.546600e+003;6.899580e-002
3.548528e+003;6.875188e-002
3.550457e+003;6.791485e-002
3.552385e+003;6.687848e-002
3.554314e+003;6.648018e-002
3.556242e+003;6.549477e-002
3.558171e+003;6.415121e-002
3.560100e+003;6.366005e-002
3.562028e+003;6.361631e-002
3.563957e+003;6.272514e-002
3.565885e+003;6.203775e-002
3.567814e+003;6.137484e-002
3.569742e+003;6.007994e-002
3.571671e+003;5.926396e-002
3.573599e+003;5.907327e-002
3.575528e+003;5.809223e-002
3.577457e+003;5.738698e-002
3.579385e+003;5.718483e-002
3.581314e+003;5.667147e-002
3.583242e+003;5.598484e-002
3.585171e+003;5.506054e-002
3.587099e+003;5.399906e-002
3.589028e+003;5.356216e-002
3.590956e+003;5.317783e-002
3.592885e+003;5.219688e-002
3.594813e+003;5.132635e-002
3.596742e+003;5.047342e-002
3.598671e+003;4.932228e-002
3.600599e+003;4.849302e-002
3.602528e+003;4.831645e-002
3.604456e+003;4.819933e-002
3.606385e+003;4.751697e-002
3.608313e+003;4.675527e-002
3.610242e+003;4.586998e-002
3.612170e+003;4.493647e-002
3.614099e+003;4.480262e-002
3.616028e+003;4.483334e-002
3.617956e+003;4.392687e-002
3.619885e+003;4.256954e-002
3.621813e+003;4.185127e-002
3.623742e+003;4.137695e-002
3.625670e+003;4.080112e-002
3.627599e+003;4.014504e-002
3.629527e+003;3.939640e-002
3.631456e+003;3.839274e-002
3.633385e+003;3.741574e-002
3.635313e+003;3.682209e-002
3.637241e+003;3.615095e-002
3.639170e+003;3.565009e-002
3.641099e+003;3.515522e-002
3.643027e+003;3.490509e-002
3.644956e+003;3.447590e-002
3.646884e+003;3.369055e-002
3.648813e+003;3.348825e-002
3.650741e+003;3.293690e-002
3.652670e+003;3.213892e-002
3.654598e+003;3.177037e-002
3.656527e+003;3.147245e-002
3.658456e+003;3.100474e-002
3.660384e+003;3.021207e-002
3.662313e+003;2.933498e-002
3.664241e+003;2.916660e-002
3.666170e+003;2.902718e-002
3.668098e+003;2.821887e-002
3.670027e+003;2.755440e-002
3.671955e+003;2.762279e-002
3.673884e+003;2.768381e-002
3.675813e+003;2.707946e-002
3.677741e+003;2.634141e-002
3.679669e+003;2.605912e-002
3.681598e+003;2.610774e-002
3.683527e+003;2.616672e-002
3.685455e+003;2.624939e-002
3.687384e+003;2.578530e-002
3.689312e+003;2.496928e-002
3.691241e+003;2.475413e-002
3.693169e+003;2.465631e-002
3.695098e+003;2.488106e-002
3.697026e+003;2.513479e-002
3.698955e+003;2.474982e-002
3.700884e+003;2.430387e-002
3.702812e+003;2.475876e-002
3.704741e+003;2.446081e-002
3.706669e+003;2.361568e-002
3.708598e+003;2.314943e-002
3.710526e+003;2.317456e-002
3.712455e+003;2.333826e-002
3.714383e+003;2.329033e-002
3.716312e+003;2.326876e-002
3.718240e+003;2.327512e-002
3.720169e+003;2.273469e-002
3.722098e+003;2.227709e-002
3.724026e+003;2.246055e-002
3.725955e+003;2.286679e-002
3.727883e+003;2.310194e-002
3.729812e+003;2.268393e-002
3.731740e+003;2.211048e-002
3.733669e+003;2.225951e-002
3.735597e+003;2.212317e-002
3.737526e+003;2.212951e-002
3.739455e+003;2.221330e-002
3.741383e+003;2.183513e-002
3.743312e+003;2.149043e-002
3.745240e+003;2.121848e-002
3.747169e+003;2.134834e-002
3.749097e+003;2.204323e-002
3.751026e+003;2.256165e-002
3.752954e+003;2.236845e-002
3.754883e+003;2.202632e-002
3.756812e+003;2.170725e-002
3.758740e+003;2.173414e-002
3.760668e+003;2.215566e-002
3.762597e+003;2.272502e-002
3.764526e+003;2.277467e-002
3.766454e+003;2.226405e-002
3.768383e+003;2.188514e-002
3.770311e+003;2.187332e-002
3.772240e+003;2.180566e-002
3.774168e+003;2.217571e-002
3.776097e+003;2.262535e-002
3.778025e+003;2.244771e-002
3.779954e+003;2.190089e-002
3.781883e+003;2.149378e-002
3.783811e+003;2.130474e-002
3.785740e+003;2.143299e-002
3.787668e+003;2.180440e-002
3.789597e+003;2.194142e-002
3.791525e+003;2.204393e-002
3.793454e+003;2.193232e-002
3.795382e+003;2.187378e-002
3.797311e+003;2.206160e-002
3.799240e+003;2.193720e-002
3.801168e+003;2.151494e-002
3.803097e+003;2.167329e-002
3.805025e+003;2.174351e-002
3.806954e+003;2.175974e-002
3.808882e+003;2.244224e-002
3.810811e+003;2.285956e-002
3.812739e+003;2.273884e-002
3.814668e+003;2.257167e-002
3.816596e+003;2.228107e-002
3.818525e+003;2.189580e-002
3.820454e+003;2.176124e-002
3.822382e+003;2.210727e-002
3.824311e+003;2.251454e-002
3.826239e+003;2.278371e-002
3.828168e+003;2.328550e-002
3.830096e+003;2.315904e-002
3.832025e+003;2.274960e-002
3.833953e+003;2.286131e-002
3.835882e+003;2.268173e-002
3.837811e+003;2.230008e-002
3.839739e+003;2.180921e-002
3.841667e+003;2.200847e-002
3.843596e+003;2.264958e-002
3.845525e+003;2.256001e-002
3.847453e+003;2.200980e-002
3.849382e+003;2.257722e-002
3.851310e+003;2.286281e-002
3.853239e+003;2.260744e-002
3.855167e+003;2.242354e-002
3.857096e+003;2.226377e-002
3.859024e+003;2.234019e-002
3.860953e+003;2.296557e-002
3.862882e+003;2.332707e-002
3.864810e+003;2.312140e-002
3.866739e+003;2.317190e-002
3.868667e+003;2.303600e-002
3.870596e+003;2.272858e-002
3.872524e+003;2.311973e-002
3.874453e+003;2.339865e-002
3.876381e+003;2.307318e-002
3.878310e+003;2.307454e-002
3.880239e+003;2.304889e-002
3.882167e+003;2.310400e-002
3.884096e+003;2.348090e-002
3.886024e+003;2.395500e-002
3.887953e+003;2.383509e-002
3.889881e+003;2.352980e-002
3.891810e+003;2.371970e-002
3.893738e+003;2.398651e-002
3.895667e+003;2.424728e-002
3.897595e+003;2.459705e-002
3.899524e+003;2.445082e-002
3.901453e+003;2.439936e-002
3.903381e+003;2.532406e-002
3.905310e+003;2.518682e-002
3.907238e+003;2.454298e-002
3.909167e+003;2.434995e-002
3.911095e+003;2.431280e-002
3.913024e+003;2.465253e-002
3.914952e+003;2.474733e-002
3.916881e+003;2.473796e-002
3.918810e+003;2.474147e-002
3.920738e+003;2.483531e-002
3.922667e+003;2.460084e-002
3.924595e+003;2.472169e-002
3.926524e+003;2.520093e-002
3.928452e+003;2.590982e-002
3.930381e+003;2.604458e-002
3.932309e+003;2.532171e-002
3.934238e+003;2.524089e-002
3.936167e+003;2.547080e-002
3.938095e+003;2.518022e-002
3.940023e+003;2.496117e-002
3.941952e+003;2.499097e-002
3.943881e+003;2.604079e-002
3.945809e+003;2.627713e-002
3.947738e+003;2.553394e-002
3.949666e+003;2.532188e-002
3.951595e+003;2.512148e-002
3.953523e+003;2.497325e-002
3.955452e+003;2.524665e-002
3.957380e+003;2.616679e-002
3.959309e+003;2.693052e-002
3.961238e+003;2.707420e-002
3.963166e+003;2.669611e-002
3.965095e+003;2.596480e-002
3.967023e+003;2.520350e-002
3.968952e+003;2.527197e-002
3.970880e+003;2.573246e-002
3.972809e+003;2.602334e-002
3.974737e+003;2.650969e-002
3.976666e+003;2.681920e-002
3.978594e+003;2.686661e-002
3.980523e+003;2.701503e-002
3.982452e+003;2.622729e-002
3.984380e+003;2.512211e-002
3.986309e+003;2.552343e-002
3.988237e+003;2.627026e-002
3.990166e+003;2.656217e-002
3.992094e+003;2.699807e-002
3.994023e+003;2.663798e-002
3.995951e+003;2.596881e-002
3.997880e+003;2.594521e-002
3.999809e+003;2.642144e-002
4.001737e+003;0.000000e+000
