3.992094e+002;0.000000e+000
4.011380e+002;0.000000e+000
4.030665e+002;0.000000e+000
4.049951e+002;0.000000e+000
4.069236e+002;0.000000e+000
4.088522e+002;0.000000e+000
4.107807e+002;0.000000e+000
4.127093e+002;0.000000e+000
4.146378e+002;0.000000e+000
4.165664e+002;0.000000e+000
4.184949e+002;0.000000e+000
4.204235e+002;0.000000e+000
4.223520e+002;0.000000e+000
4.242806e+002;0.000000e+000
4.262091e+002;0.000000e+000
4.281377e+002;0.000000e+000
4.300662e+002;0.000000e+000
4.319948e+002;0.000000e+000
4.339233e+002;0.000000e+000
4.358519e+002;0.000000e+000
4.377804e+002;0.000000e+000
4.397090e+002;0.000000e+000
4.416375e+002;0.000000e+000
4.435660e+002;0.000000e+000
4.454946e+002;0.000000e+000
4.474232e+002;0.000000e+000
4.493517e+002;0.000000e+000
4.512802e+002;0.000000e+000
4.532088e+002;0.000000e+000
4.551373e+002;0.000000e+000
4.570659e+002;0.000000e+000
4.589944e+002;0.000000e+000
4.609230e+002;0.000000e+000
4.628515e+002;0.000000e+000
4.647801e+002;0.000000e+000
4.667086e+002;0.000000e+000
4.686372e+002;0.000000e+000
4.705657e+002;0.000000e+000
4.724943e+002;0.000000e+000
4.744228e+002;0.000000e+000
4.763513e+002;0.000000e+000
4.782799e+002;0.000000e+000
4.802085e+002;0.000000e+000
4.821370e+002;0.000000e+000
4.840656e+002;0.000000e+000
4.859941e+002;0.000000e+000
4.879226e+002;0.000000e+000
4.898512e+002;0.000000e+000
4.917798e+002;0.000000e+000
4.937083e+002;0.000000e+000
4.956368e+002;0.000000e+000
4.975654e+002;0.000000e+000
4.994939e+002;0.000000e+000
5.014225e+002;0.000000e+000
5.033510e+002;0.000000e+000
5.052796e+002;0.000000e+000
5.072081e+002;0.000000e+000
5.091367e+002;0.000000e+000
5.110652e+002;0.000000e+000
5.129938e+002;0.000000e+000
5.149223e+002;0.000000e+000
5.168509e+002;0.000000e+000
5.187794e+002;0.000000e+000
5.207079e+002;0.000000e+000
5.226365e+002;0.000000e+000
5.245651e+002;0.000000e+000
5.264936e+002;0.000000e+000
5.284222e+002;0.000000e+000
5.303507e+002;0.000000e+000
5.322792e+002;0.000000e+000
5.342078e+002;0.000000e+000
5.361364e+002;0.000000e+000
5.380649e+002;0.000000e+000
5.399935e+002;0.000000e+000
5.419220e+002;0.000000e+000
5.438505e+002;0.000000e+000
5.457791e+002;0.000000e+000
5.477076e+002;0.000000e+000
5.496362e+002;0.000000e+000
5.515648e+002;0.000000e+000
5.534933e+002;0.000000e+000
5.554218e+002;0.000000e+000
5.573504e+002;0.000000e+000
5.592789e+002;0.000000e+000
5.612075e+002;0.000000e+000
5.631360e+002;0.000000e+000
5.650646e+002;0.000000e+000
5.669931e+002;0.000000e+000
5.689217e+002;0.000000e+000
5.708502e+002;0.000000e+000
5.727787e+002;0.000000e+000
5.747073e+002;0.000000e+000
5.766359e+002;0.000000e+000
5.785644e+002;0.000000e+000
5.804930e+002;0.000000e+000
5.824215e+002;0.000000e+000
5.843500e+002;0.000000e+000
5.862786e+002;0.000000e+000
5.882072e+002;0.000000e+000
5.901357e+002;0.000000e+000
5.920643e+002;0.000000e+000
5.939928e+002;0.000000e+000
5.959213e+002;0.000000e+000
5.978499e+002;0.000000e+000
5.997784e+002;2.190005e-001
6.017070e+002;2.144764e-001
6.036355e+002;2.157410e-001
6.055641e+002;2.174518e-001
6.074926e+002;2.215621e-001
6.094211e+002;2.216817e-001
6.113497e+002;2.178264e-001
6.132783e+002;2.166941e-001
6.152068e+002;2.212757e-001
6.171354e+002;2.198863e-001
6.190639e+002;2.102800e-001
6.209924e+002;2.048527e-001
6.229210e+002;2.042190e-001
6.248495e+002;2.043147e-001
6.267781e+002;1.999923e-001
6.287067e+002;1.943286e-001
6.306352e+002;1.885883e-001
6.325637e+002;1.897479e-001
6.344923e+002;1.930932e-001
6.364208e+002;1.898851e-001
6.383494e+002;1.847756e-001
6.402780e+002;1.826258e-001
6.422065e+002;1.803953e-001
6.441350e+002;1.805821e-001
6.460636e+002;1.814247e-001
6.479921e+002;1.779051e-001
6.499207e+002;1.788322e-001
6.518492e+002;1.815860e-001
6.537778e+002;1.839713e-001
6.557063e+002;1.887944e-001
6.576349e+002;1.912356e-001
6.595634e+002;1.929120e-001
6.614919e+002;1.951509e-001
6.634205e+002;1.959631e-001
6.653491e+002;1.936557e-001
6.672776e+002;1.918590e-001
6.692062e+002;1.907633e-001
6.711347e+002;1.876610e-001
6.730632e+002;1.836768e-001
6.749918e+002;1.797976e-001
6.769203e+002;1.740991e-001
6.788489e+002;1.694201e-001
6.807775e+002;1.666460e-001
6.827060e+002;1.642134e-001
6.846345e+002;1.625909e-001
6.865631e+002;1.624828e-001
6.884916e+002;1.621761e-001
6.904202e+002;1.615115e-001
6.923488e+002;1.618023e-001
6.942773e+002;1.621516e-001
6.962058e+002;1.622940e-001
6.981344e+002;1.615246e-001
7.000629e+002;1.609896e-001
7.019915e+002;1.607103e-001
7.039200e+002;1.598980e-001
7.058486e+002;1.591352e-001
7.077771e+002;1.586142e-001
7.097057e+002;1.570750e-001
7.116342e+002;1.546673e-001
7.135627e+002;1.520344e-001
7.154913e+002;1.482700e-001
7.174199e+002;1.450288e-001
7.193484e+002;1.422297e-001
7.212770e+002;1.389081e-001
7.232055e+002;1.365250e-001
7.251340e+002;1.339085e-001
7.270626e+002;1.309755e-001
7.289911e+002;1.279600e-001
7.309197e+002;1.253219e-001
7.328483e+002;1.237330e-001
7.347768e+002;1.215448e-001
7.367053e+002;1.194936e-001
7.386339e+002;1.176557e-001
7.405624e+002;1.173003e-001
7.424910e+002;1.164447e-001
7.444196e+002;1.149386e-001
7.463481e+002;1.137334e-001
7.482766e+002;1.134325e-001
7.502052e+002;1.129195e-001
7.521337e+002;1.115846e-001
7.540623e+002;1.109016e-001
7.559908e+002;1.104645e-001
7.579194e+002;1.092781e-001
7.598479e+002;1.085540e-001
7.617765e+002;1.084683e-001
7.637050e+002;1.080490e-001
7.656335e+002;1.064457e-001
7.675621e+002;1.055785e-001
7.694907e+002;1.051305e-001
7.714192e+002;1.046395e-001
7.733478e+002;1.046214e-001
7.752763e+002;1.039925e-001
7.772048e+002;1.032529e-001
7.791334e+002;1.025726e-001
7.810620e+002;1.020596e-001
7.829905e+002;1.018196e-001
7.849191e+002;1.010800e-001
7.868476e+002;1.005654e-001
7.887761e+002;1.005687e-001
7.907047e+002;1.004489e-001
7.926332e+002;1.003687e-001
7.945618e+002;9.955215e-002
7.964903e+002;9.881209e-002
7.984189e+002;9.902301e-002
8.003474e+002;9.908078e-002
8.022759e+002;9.884242e-002
8.042045e+002;9.869268e-002
8.061331e+002;9.831655e-002
8.080616e+002;9.810851e-002
8.099902e+002;9.791576e-002
8.119187e+002;9.821413e-002
8.138472e+002;9.851184e-002
8.157758e+002;9.850989e-002
8.177043e+002;9.835731e-002
8.196329e+002;9.789986e-002
8.215615e+002;9.807337e-002
8.234900e+002;9.834672e-002
8.254185e+002;9.870370e-002
8.273471e+002;9.912390e-002
8.292756e+002;9.942949e-002
8.312042e+002;9.959386e-002
8.331328e+002;9.951161e-002
8.350613e+002;9.932302e-002
8.369898e+002;9.899733e-002
8.389184e+002;9.892072e-002
8.408469e+002;9.915446e-002
8.427755e+002;9.940420e-002
8.447040e+002;1.001203e-001
8.466326e+002;1.003113e-001
8.485611e+002;9.934422e-002
8.504897e+002;9.935921e-002
8.524182e+002;9.996150e-002
8.543467e+002;1.001284e-001
8.562753e+002;1.007334e-001
8.582039e+002;1.017464e-001
8.601324e+002;1.023774e-001
8.620610e+002;1.027097e-001
8.639895e+002;1.032322e-001
8.659180e+002;1.045055e-001
8.678466e+002;1.059707e-001
8.697751e+002;1.069154e-001
8.717037e+002;1.080083e-001
8.736323e+002;1.096143e-001
8.755608e+002;1.117523e-001
8.774893e+002;1.136495e-001
8.794179e+002;1.157119e-001
8.813464e+002;1.177843e-001
8.832750e+002;1.198759e-001
8.852036e+002;1.221332e-001
8.871321e+002;1.245814e-001
8.890606e+002;1.273295e-001
8.909892e+002;1.298679e-001
8.929177e+002;1.320817e-001
8.948463e+002;1.331702e-001
8.967748e+002;1.334146e-001
8.987034e+002;1.332469e-001
9.006319e+002;1.326531e-001
9.025605e+002;1.319136e-001
9.044890e+002;1.305779e-001
9.064175e+002;1.292211e-001
9.083461e+002;1.282849e-001
9.102747e+002;1.272106e-001
9.122032e+002;1.259903e-001
9.141318e+002;1.249412e-001
9.160603e+002;1.244015e-001
9.179888e+002;1.245548e-001
9.199174e+002;1.250979e-001
9.218459e+002;1.254212e-001
9.237745e+002;1.262781e-001
9.257031e+002;1.278684e-001
9.276316e+002;1.288434e-001
9.295601e+002;1.294061e-001
9.314887e+002;1.303747e-001
9.334172e+002;1.314883e-001
9.353458e+002;1.328098e-001
9.372744e+002;1.341460e-001
9.392029e+002;1.353332e-001
9.411314e+002;1.367768e-001
9.430600e+002;1.388354e-001
9.449885e+002;1.411941e-001
9.469171e+002;1.434591e-001
9.488456e+002;1.465945e-001
9.507742e+002;1.503431e-001
9.527027e+002;1.536821e-001
9.546313e+002;1.568120e-001
9.565598e+002;1.604119e-001
9.584883e+002;1.644819e-001
9.604169e+002;1.688514e-001
9.623455e+002;1.735493e-001
9.642740e+002;1.781826e-001
9.662026e+002;1.828726e-001
9.681311e+002;1.879386e-001
9.700596e+002;1.938284e-001
9.719882e+002;2.008282e-001
9.739167e+002;2.089139e-001
9.758453e+002;2.192039e-001
9.777739e+002;2.317102e-001
9.797024e+002;2.453415e-001
9.816309e+002;2.573682e-001
9.835595e+002;2.654522e-001
9.854880e+002;2.694773e-001
9.874166e+002;2.709671e-001
9.893452e+002;2.723069e-001
9.912737e+002;2.756082e-001
9.932022e+002;2.802888e-001
9.951307e+002;2.852803e-001
9.970593e+002;2.900845e-001
9.989879e+002;2.947893e-001
1.000916e+003;2.977783e-001
1.002845e+003;2.987249e-001
1.004773e+003;2.995089e-001
1.006702e+003;3.011193e-001
1.008631e+003;3.033288e-001
1.010559e+003;3.062342e-001
1.012488e+003;3.097435e-001
1.014416e+003;3.141906e-001
1.016345e+003;3.184957e-001
1.018273e+003;3.221671e-001
1.020202e+003;3.258775e-001
1.022130e+003;3.299100e-001
1.024059e+003;3.345578e-001
1.025988e+003;3.390671e-001
1.027916e+003;3.425175e-001
1.029845e+003;3.450329e-001
1.031773e+003;3.454899e-001
1.033702e+003;3.419484e-001
1.035630e+003;3.350872e-001
1.037559e+003;3.264617e-001
1.039487e+003;3.184557e-001
1.041416e+003;3.126298e-001
1.043344e+003;3.109742e-001
1.045273e+003;3.131174e-001
1.047202e+003;3.173732e-001
1.049130e+003;3.235611e-001
1.051059e+003;3.297904e-001
1.052987e+003;3.337009e-001
1.054916e+003;3.340753e-001
1.056844e+003;3.310570e-001
1.058773e+003;3.242978e-001
1.060701e+003;3.124913e-001
1.062630e+003;2.973990e-001
1.064558e+003;2.815189e-001
1.066487e+003;2.677258e-001
1.068416e+003;2.561146e-001
1.070344e+003;2.465417e-001
1.072273e+003;2.402140e-001
1.074201e+003;2.341800e-001
1.076130e+003;2.275194e-001
1.078058e+003;2.209439e-001
1.079987e+003;2.155652e-001
1.081915e+003;2.120992e-001
1.083844e+003;2.100832e-001
1.085773e+003;2.088804e-001
1.087701e+003;2.083804e-001
1.089630e+003;2.085222e-001
1.091558e+003;2.092581e-001
1.093487e+003;2.109420e-001
1.095415e+003;2.134719e-001
1.097344e+003;2.166297e-001
1.099272e+003;2.197514e-001
1.101201e+003;2.220185e-001
1.103129e+003;2.222662e-001
1.105058e+003;2.208562e-001
1.106987e+003;2.193698e-001
1.108915e+003;2.173968e-001
1.110844e+003;2.141783e-001
1.112772e+003;2.087032e-001
1.114701e+003;1.993351e-001
1.116629e+003;1.881829e-001
1.118558e+003;1.789437e-001
1.120486e+003;1.717834e-001
1.122415e+003;1.657600e-001
1.124344e+003;1.600108e-001
1.126272e+003;1.533299e-001
1.128201e+003;1.470657e-001
1.130129e+003;1.421570e-001
1.132058e+003;1.379038e-001
1.133986e+003;1.337698e-001
1.135915e+003;1.305974e-001
1.137843e+003;1.288791e-001
1.139772e+003;1.290487e-001
1.141700e+003;1.308891e-001
1.143629e+003;1.332554e-001
1.145557e+003;1.356974e-001
1.147486e+003;1.379407e-001
1.149415e+003;1.397944e-001
1.151343e+003;1.423223e-001
1.153272e+003;1.450989e-001
1.155200e+003;1.477412e-001
1.157129e+003;1.504456e-001
1.159057e+003;1.518455e-001
1.160986e+003;1.513128e-001
1.162914e+003;1.482101e-001
1.164843e+003;1.417466e-001
1.166771e+003;1.334219e-001
1.168700e+003;1.244722e-001
1.170629e+003;1.160262e-001
1.172557e+003;1.090154e-001
1.174486e+003;1.034141e-001
1.176414e+003;9.944311e-002
1.178343e+003;9.657574e-002
1.180271e+003;9.396628e-002
1.182200e+003;9.146802e-002
1.184128e+003;9.008285e-002
1.186057e+003;8.958449e-002
1.187986e+003;8.984635e-002
1.189914e+003;9.092800e-002
1.191843e+003;9.277254e-002
1.193771e+003;9.469149e-002
1.195700e+003;9.663451e-002
1.197628e+003;9.858418e-002
1.199557e+003;1.000625e-001
1.201485e+003;1.008376e-001
1.203414e+003;1.008617e-001
1.205343e+003;1.000953e-001
1.207271e+003;9.807229e-002
1.209200e+003;9.474930e-002
1.211128e+003;9.110443e-002
1.213057e+003;8.894518e-002
1.214985e+003;8.851540e-002
1.216914e+003;8.897185e-002
1.218842e+003;9.014813e-002
1.220771e+003;9.153343e-002
1.222699e+003;9.282666e-002
1.224628e+003;9.438263e-002
1.226557e+003;9.612887e-002
1.228485e+003;9.772812e-002
1.230414e+003;9.902888e-002
1.232342e+003;1.002030e-001
1.234271e+003;1.010161e-001
1.236199e+003;1.014547e-001
1.238128e+003;1.016840e-001
1.240056e+003;1.020393e-001
1.241985e+003;1.026488e-001
1.243913e+003;1.034246e-001
1.245842e+003;1.041558e-001
1.247771e+003;1.043059e-001
1.249699e+003;1.041617e-001
1.251628e+003;1.041543e-001
1.253556e+003;1.041704e-001
1.255485e+003;1.041003e-001
1.257413e+003;1.041199e-001
1.259342e+003;1.043287e-001
1.261270e+003;1.048530e-001
1.263199e+003;1.049213e-001
1.265127e+003;1.044327e-001
1.267056e+003;1.040319e-001
1.268985e+003;1.040381e-001
1.270913e+003;1.045998e-001
1.272842e+003;1.054363e-001
1.274770e+003;1.060556e-001
1.276699e+003;1.060900e-001
1.278627e+003;1.062113e-001
1.280556e+003;1.060584e-001
1.282484e+003;1.051094e-001
1.284413e+003;1.043352e-001
1.286342e+003;1.041342e-001
1.288270e+003;1.035840e-001
1.290199e+003;1.035015e-001
1.292127e+003;1.043774e-001
1.294056e+003;1.049107e-001
1.295984e+003;1.054325e-001
1.297913e+003;1.064565e-001
1.299841e+003;1.083616e-001
1.301770e+003;1.108448e-001
1.303698e+003;1.135524e-001
1.305627e+003;1.166986e-001
1.307556e+003;1.200906e-001
1.309484e+003;1.234408e-001
1.311413e+003;1.262162e-001
1.313341e+003;1.278278e-001
1.315270e+003;1.281176e-001
1.317198e+003;1.270338e-001
1.319127e+003;1.243763e-001
1.321055e+003;1.213506e-001
1.322984e+003;1.192080e-001
1.324912e+003;1.177894e-001
1.326841e+003;1.170722e-001
1.328770e+003;1.176143e-001
1.330698e+003;1.188087e-001
1.332627e+003;1.195936e-001
1.334555e+003;1.196205e-001
1.336484e+003;1.189729e-001
1.338412e+003;1.176214e-001
1.340341e+003;1.160011e-001
1.342269e+003;1.140338e-001
1.344198e+003;1.118400e-001
1.346126e+003;1.099419e-001
1.348055e+003;1.088397e-001
1.349984e+003;1.084224e-001
1.351912e+003;1.086636e-001
1.353841e+003;1.096420e-001
1.355769e+003;1.105839e-001
1.357698e+003;1.113056e-001
1.359626e+003;1.116315e-001
1.361555e+003;1.115132e-001
1.363483e+003;1.108020e-001
1.365412e+003;1.100715e-001
1.367341e+003;1.096860e-001
1.369269e+003;1.094619e-001
1.371198e+003;1.085776e-001
1.373126e+003;1.062553e-001
1.375055e+003;1.036904e-001
1.376983e+003;1.013267e-001
1.378912e+003;9.869737e-002
1.380840e+003;9.623402e-002
1.382769e+003;9.436797e-002
1.384698e+003;9.267835e-002
1.386626e+003;9.094974e-002
1.388555e+003;8.989697e-002
1.390483e+003;8.967540e-002
1.392412e+003;8.947337e-002
1.394340e+003;8.911715e-002
1.396269e+003;8.903360e-002
1.398197e+003;8.914737e-002
1.400126e+003;8.939692e-002
1.402054e+003;8.978014e-002
1.403983e+003;8.982749e-002
1.405911e+003;8.971777e-002
1.407840e+003;9.006001e-002
1.409769e+003;9.053206e-002
1.411697e+003;9.091211e-002
1.413626e+003;9.167144e-002
1.415554e+003;9.265867e-002
1.417483e+003;9.364873e-002
1.419411e+003;9.502777e-002
1.421340e+003;9.690384e-002
1.423268e+003;9.840219e-002
1.425197e+003;9.909497e-002
1.427125e+003;9.935696e-002
1.429054e+003;9.915738e-002
1.430983e+003;9.834111e-002
1.432911e+003;9.701999e-002
1.434840e+003;9.548589e-002
1.436768e+003;9.421375e-002
1.438697e+003;9.307726e-002
1.440625e+003;9.203456e-002
1.442554e+003;9.145174e-002
1.444482e+003;9.091081e-002
1.446411e+003;9.019873e-002
1.448340e+003;8.953054e-002
1.450268e+003;8.923062e-002
1.452197e+003;8.861588e-002
1.454125e+003;8.763587e-002
1.456054e+003;8.645138e-002
1.457982e+003;8.529152e-002
1.459911e+003;8.393516e-002
1.461839e+003;8.264935e-002
1.463768e+003;8.141233e-002
1.465697e+003;8.001415e-002
1.467625e+003;7.885150e-002
1.469554e+003;7.749698e-002
1.471482e+003;7.598828e-002
1.473411e+003;7.462284e-002
1.475339e+003;7.333280e-002
1.477268e+003;7.224556e-002
1.479196e+003;7.155256e-002
1.481125e+003;7.065986e-002
1.483053e+003;6.917442e-002
1.484982e+003;6.750468e-002
1.486911e+003;6.609895e-002
1.488839e+003;6.487980e-002
1.490768e+003;6.394308e-002
1.492696e+003;6.346194e-002
1.494625e+003;6.304262e-002
1.496553e+003;6.260556e-002
1.498482e+003;6.234379e-002
1.500410e+003;6.222714e-002
1.502339e+003;6.222473e-002
1.504267e+003;6.196449e-002
1.506196e+003;6.158868e-002
1.508125e+003;6.197133e-002
1.510053e+003;6.210606e-002
1.511982e+003;6.168484e-002
1.513910e+003;6.147919e-002
1.515839e+003;6.121565e-002
1.517767e+003;6.098777e-002
1.519696e+003;6.094297e-002
1.521624e+003;6.104043e-002
1.523553e+003;6.122641e-002
1.525481e+003;6.110018e-002
1.527410e+003;6.100786e-002
1.529339e+003;6.114603e-002
1.531267e+003;6.132630e-002
1.533196e+003;6.134961e-002
1.535124e+003;6.127837e-002
1.537053e+003;6.088163e-002
1.538981e+003;6.035786e-002
1.540910e+003;6.056325e-002
1.542838e+003;6.096218e-002
1.544767e+003;6.095917e-002
1.546695e+003;6.090198e-002
1.548624e+003;6.076312e-002
1.550553e+003;6.074148e-002
1.552481e+003;6.080364e-002
1.554410e+003;6.059643e-002
1.556338e+003;6.070292e-002
1.558267e+003;6.065578e-002
1.560195e+003;6.079708e-002
1.562124e+003;6.109980e-002
1.564052e+003;6.126922e-002
1.565981e+003;6.141552e-002
1.567910e+003;6.161622e-002
1.569838e+003;6.182292e-002
1.571767e+003;6.195382e-002
1.573695e+003;6.218630e-002
1.575624e+003;6.220680e-002
1.577552e+003;6.245587e-002
1.579481e+003;6.296831e-002
1.581409e+003;6.311837e-002
1.583338e+003;6.319754e-002
1.585266e+003;6.372400e-002
1.587195e+003;6.423133e-002
1.589124e+003;6.420624e-002
1.591052e+003;6.437964e-002
1.592981e+003;6.492671e-002
1.594909e+003;6.512348e-002
1.596838e+003;6.500067e-002
1.598766e+003;6.514038e-002
1.600695e+003;6.543174e-002
1.602623e+003;6.614340e-002
1.604552e+003;6.683396e-002
1.606480e+003;6.689940e-002
1.608409e+003;6.717113e-002
1.610338e+003;6.777351e-002
1.612266e+003;6.784853e-002
1.614195e+003;6.796565e-002
1.616123e+003;6.802102e-002
1.618052e+003;6.804667e-002
1.619980e+003;6.856707e-002
1.621909e+003;6.903666e-002
1.623837e+003;6.920453e-002
1.625766e+003;6.938996e-002
1.627694e+003;6.941445e-002
1.629623e+003;6.964027e-002
1.631552e+003;6.991901e-002
1.633480e+003;6.987504e-002
1.635409e+003;6.961884e-002
1.637337e+003;6.956696e-002
1.639266e+003;6.972947e-002
1.641194e+003;6.971636e-002
1.643123e+003;6.971558e-002
1.645051e+003;6.961168e-002
1.646980e+003;6.911971e-002
1.648909e+003;6.873721e-002
1.650837e+003;6.830028e-002
1.652766e+003;6.776916e-002
1.654694e+003;6.792253e-002
1.656623e+003;6.784891e-002
1.658551e+003;6.739020e-002
1.660480e+003;6.698266e-002
1.662408e+003;6.677765e-002
1.664337e+003;6.658461e-002
1.666266e+003;6.606500e-002
1.668194e+003;6.535733e-002
1.670123e+003;6.495264e-002
1.672051e+003;6.466179e-002
1.673980e+003;6.409524e-002
1.675908e+003;6.368563e-002
1.677837e+003;6.353956e-002
1.679765e+003;6.314550e-002
1.681694e+003;6.265000e-002
1.683622e+003;6.209493e-002
1.685551e+003;6.162893e-002
1.687479e+003;6.150202e-002
1.689408e+003;6.134068e-002
1.691337e+003;6.107574e-002
1.693265e+003;6.076374e-002
1.695194e+003;5.999753e-002
1.697122e+003;5.944436e-002
1.699051e+003;5.922256e-002
1.700979e+003;5.910918e-002
1.702908e+003;5.915129e-002
1.704836e+003;5.898904e-002
1.706765e+003;5.879893e-002
1.708693e+003;5.851339e-002
1.710622e+003;5.823634e-002
1.712551e+003;5.806913e-002
1.714479e+003;5.791255e-002
1.716408e+003;5.780151e-002
1.718336e+003;5.801266e-002
1.720265e+003;5.842756e-002
1.722193e+003;5.852158e-002
1.724122e+003;5.874988e-002
1.726050e+003;5.892510e-002
1.727979e+003;5.873869e-002
1.729908e+003;5.862032e-002
1.731836e+003;5.849519e-002
1.733765e+003;5.838864e-002
1.735693e+003;5.850050e-002
1.737622e+003;5.821603e-002
1.739550e+003;5.771575e-002
1.741479e+003;5.744257e-002
1.743407e+003;5.723843e-002
1.745336e+003;5.688807e-002
1.747265e+003;5.630550e-002
1.749193e+003;5.584966e-002
1.751122e+003;5.564198e-002
1.753050e+003;5.561531e-002
1.754979e+003;5.528338e-002
1.756907e+003;5.504230e-002
1.758836e+003;5.495675e-002
1.760764e+003;5.492505e-002
1.762693e+003;5.477993e-002
1.764621e+003;5.459199e-002
1.766550e+003;5.447321e-002
1.768479e+003;5.441390e-002
1.770407e+003;5.443595e-002
1.772336e+003;5.437984e-002
1.774264e+003;5.460969e-002
1.776193e+003;5.467308e-002
1.778121e+003;5.428495e-002
1.780050e+003;5.394128e-002
1.781978e+003;5.401508e-002
1.783907e+003;5.426392e-002
1.785835e+003;5.420596e-002
1.787764e+003;5.409246e-002
1.789693e+003;5.388992e-002
1.791621e+003;5.367432e-002
1.793550e+003;5.374826e-002
1.795478e+003;5.400821e-002
1.797407e+003;5.385309e-002
1.799335e+003;5.360572e-002
1.801264e+003;5.367342e-002
1.803192e+003;5.365558e-002
1.805121e+003;5.341038e-002
1.807049e+003;5.331270e-002
1.808978e+003;5.345085e-002
1.810907e+003;5.354087e-002
1.812835e+003;5.347862e-002
1.814764e+003;5.330401e-002
1.816692e+003;5.309293e-002
1.818621e+003;5.314663e-002
1.820549e+003;5.327667e-002
1.822478e+003;5.326637e-002
1.824406e+003;5.328925e-002
1.826335e+003;5.329049e-002
1.828264e+003;5.324228e-002
1.830192e+003;5.318756e-002
1.832121e+003;5.333533e-002
1.834049e+003;5.353079e-002
1.835978e+003;5.333327e-002
1.837906e+003;5.298201e-002
1.839835e+003;5.275245e-002
1.841763e+003;5.267228e-002
1.843692e+003;5.274213e-002
1.845620e+003;5.276757e-002
1.847549e+003;5.252807e-002
1.849478e+003;5.231972e-002
1.851406e+003;5.237063e-002
1.853335e+003;5.219061e-002
1.855263e+003;5.193574e-002
1.857192e+003;5.194743e-002
1.859120e+003;5.219442e-002
1.861049e+003;5.202608e-002
1.862977e+003;5.200393e-002
1.864906e+003;5.217921e-002
1.866834e+003;5.217357e-002
1.868763e+003;5.214846e-002
1.870692e+003;5.223205e-002
1.872620e+003;5.217032e-002
1.874549e+003;5.203527e-002
1.876477e+003;5.193014e-002
1.878406e+003;5.206922e-002
1.880334e+003;5.214461e-002
1.882263e+003;5.200009e-002
1.884191e+003;5.195026e-002
1.886120e+003;5.193518e-002
1.888048e+003;5.189956e-002
1.889977e+003;5.178296e-002
1.891906e+003;5.170009e-002
1.893834e+003;5.177053e-002
1.895763e+003;5.172980e-002
1.897691e+003;5.162277e-002
1.899620e+003;5.146107e-002
1.901548e+003;5.127378e-002
1.903477e+003;5.145917e-002
1.905405e+003;5.185131e-002
1.907334e+003;5.205368e-002
1.909262e+003;5.179449e-002
1.911191e+003;5.148968e-002
1.913120e+003;5.151251e-002
1.915048e+003;5.167281e-002
1.916977e+003;5.167628e-002
1.918905e+003;5.163740e-002
1.920834e+003;5.182940e-002
1.922762e+003;5.192648e-002
1.924691e+003;5.209866e-002
1.926619e+003;5.229991e-002
1.928548e+003;5.209066e-002
1.930477e+003;5.192663e-002
1.932405e+003;5.197570e-002
1.934334e+003;5.204879e-002
1.936262e+003;5.202537e-002
1.938191e+003;5.207203e-002
1.940119e+003;5.224176e-002
1.942048e+003;5.225536e-002
1.943976e+003;5.225387e-002
1.945905e+003;5.239280e-002
1.947833e+003;5.271193e-002
1.949762e+003;5.275152e-002
1.951691e+003;5.261083e-002
1.953619e+003;5.263196e-002
1.955548e+003;5.264224e-002
1.957476e+003;5.253465e-002
1.959405e+003;5.264169e-002
1.961333e+003;5.283638e-002
1.963262e+003;5.294113e-002
1.965190e+003;5.297044e-002
1.967119e+003;5.293031e-002
1.969047e+003;5.289663e-002
1.970976e+003;5.268070e-002
1.972905e+003;5.297433e-002
1.974833e+003;5.355305e-002
1.976762e+003;5.350335e-002
1.978690e+003;5.338909e-002
1.980619e+003;5.338643e-002
1.982547e+003;5.341499e-002
1.984476e+003;5.331301e-002
1.986404e+003;5.308691e-002
1.988333e+003;5.309892e-002
1.990261e+003;5.316775e-002
1.992190e+003;5.323565e-002
1.994119e+003;5.327783e-002
1.996047e+003;5.325408e-002
1.997976e+003;5.341225e-002
1.999904e+003;5.359102e-002
2.001833e+003;5.356276e-002
2.003761e+003;5.348356e-002
2.005690e+003;5.351452e-002
2.007618e+003;5.345801e-002
2.009547e+003;5.321273e-002
2.011476e+003;5.323625e-002
2.013404e+003;5.341960e-002
2.015333e+003;5.363068e-002
2.017261e+003;5.358244e-002
2.019190e+003;5.361824e-002
2.021118e+003;5.380039e-002
2.023047e+003;5.405080e-002
2.024975e+003;5.436834e-002
2.026904e+003;5.461777e-002
2.028833e+003;5.466865e-002
2.030761e+003;5.452215e-002
2.032690e+003;5.440567e-002
2.034618e+003;5.425641e-002
2.036547e+003;5.427661e-002
2.038475e+003;5.454909e-002
2.040404e+003;5.463347e-002
2.042332e+003;5.449319e-002
2.044261e+003;5.454766e-002
2.046189e+003;5.470596e-002
2.048118e+003;5.473115e-002
2.050047e+003;5.451220e-002
2.051975e+003;5.412661e-002
2.053904e+003;5.415330e-002
2.055832e+003;5.448549e-002
2.057761e+003;5.460526e-002
2.059689e+003;5.441071e-002
2.061618e+003;5.439640e-002
2.063546e+003;5.453342e-002
2.065475e+003;5.434623e-002
2.067404e+003;5.416549e-002
2.069332e+003;5.398671e-002
2.071260e+003;5.384723e-002
2.073189e+003;5.399193e-002
2.075118e+003;5.409658e-002
2.077046e+003;5.383201e-002
2.078975e+003;5.363305e-002
2.080903e+003;5.376926e-002
2.082832e+003;5.387293e-002
2.084760e+003;5.391922e-002
2.086689e+003;5.384052e-002
2.088617e+003;5.385556e-002
2.090546e+003;5.386231e-002
2.092475e+003;5.412578e-002
2.094403e+003;5.430939e-002
2.096332e+003;5.422173e-002
2.098260e+003;5.398030e-002
2.100189e+003;5.389604e-002
2.102117e+003;5.414620e-002
2.104046e+003;5.409321e-002
2.105974e+003;5.384277e-002
2.107903e+003;5.382530e-002
2.109832e+003;5.410867e-002
2.111760e+003;5.421159e-002
2.113688e+003;5.404855e-002
2.115617e+003;5.416189e-002
2.117546e+003;5.439557e-002
2.119474e+003;5.420438e-002
2.121403e+003;5.415292e-002
2.123331e+003;5.425675e-002
2.125260e+003;5.422848e-002
2.127188e+003;5.415967e-002
2.129117e+003;5.432047e-002
2.131045e+003;5.443057e-002
2.132974e+003;5.441859e-002
2.134903e+003;5.456663e-002
2.136831e+003;5.444650e-002
2.138760e+003;5.428784e-002
2.140688e+003;5.421583e-002
2.142617e+003;5.407392e-002
2.144545e+003;5.417758e-002
2.146474e+003;5.422225e-002
2.148402e+003;5.403515e-002
2.150331e+003;5.387859e-002
2.152260e+003;5.401511e-002
2.154188e+003;5.417477e-002
2.156117e+003;5.409478e-002
2.158045e+003;5.391851e-002
2.159974e+003;5.371399e-002
2.161902e+003;5.341060e-002
2.163831e+003;5.340453e-002
2.165759e+003;5.352453e-002
2.167688e+003;5.326888e-002
2.169616e+003;5.335875e-002
2.171545e+003;5.363679e-002
2.173474e+003;5.331136e-002
2.175402e+003;5.318037e-002
2.177331e+003;5.313218e-002
2.179259e+003;5.284899e-002
2.181188e+003;5.270195e-002
2.183116e+003;5.278575e-002
2.185045e+003;5.268545e-002
2.186973e+003;5.267670e-002
2.188902e+003;5.290104e-002
2.190831e+003;5.265186e-002
2.192759e+003;5.237642e-002
2.194688e+003;5.223997e-002
2.196616e+003;5.212896e-002
2.198545e+003;5.242842e-002
2.200473e+003;5.225656e-002
2.202402e+003;5.191752e-002
2.204330e+003;5.186632e-002
2.206259e+003;5.189007e-002
2.208188e+003;5.183545e-002
2.210116e+003;5.172316e-002
2.212044e+003;5.178975e-002
2.213973e+003;5.187793e-002
2.215902e+003;5.189253e-002
2.217830e+003;5.192849e-002
2.219759e+003;5.217525e-002
2.221687e+003;5.238596e-002
2.223616e+003;5.236368e-002
2.225544e+003;5.245489e-002
2.227473e+003;5.250578e-002
2.229401e+003;5.230518e-002
2.231330e+003;5.222924e-002
2.233259e+003;5.221280e-002
2.235187e+003;5.223754e-002
2.237116e+003;5.251431e-002
2.239044e+003;5.260414e-002
2.240973e+003;5.227984e-002
2.242901e+003;5.220507e-002
2.244830e+003;5.232753e-002
2.246758e+003;5.240334e-002
2.248687e+003;5.230242e-002
2.250615e+003;5.192174e-002
2.252544e+003;5.192319e-002
2.254473e+003;5.201555e-002
2.256401e+003;5.182253e-002
2.258330e+003;5.165337e-002
2.260258e+003;5.168763e-002
2.262187e+003;5.160210e-002
2.264115e+003;5.155202e-002
2.266044e+003;5.162691e-002
2.267972e+003;5.151717e-002
2.269901e+003;5.127803e-002
2.271830e+003;5.118858e-002
2.273758e+003;5.144119e-002
2.275687e+003;5.141075e-002
2.277615e+003;5.112831e-002
2.279544e+003;5.106782e-002
2.281472e+003;5.107908e-002
2.283401e+003;5.109473e-002
2.285329e+003;5.077458e-002
2.287258e+003;5.052698e-002
2.289187e+003;5.073730e-002
2.291115e+003;5.097298e-002
2.293043e+003;5.108176e-002
2.294972e+003;5.116264e-002
2.296901e+003;5.111418e-002
2.298829e+003;5.093490e-002
2.300758e+003;5.066562e-002
2.302686e+003;5.063192e-002
2.304615e+003;5.083194e-002
2.306543e+003;5.077190e-002
2.308472e+003;5.076772e-002
2.310400e+003;5.081559e-002
2.312329e+003;5.075726e-002
2.314258e+003;5.065586e-002
2.316186e+003;5.045749e-002
2.318115e+003;5.042400e-002
2.320043e+003;5.072210e-002
2.321972e+003;5.072523e-002
2.323900e+003;5.053658e-002
2.325829e+003;5.050018e-002
2.327757e+003;5.038411e-002
2.329686e+003;5.020327e-002
2.331615e+003;5.043408e-002
2.333543e+003;5.058520e-002
2.335472e+003;5.049527e-002
2.337400e+003;5.081704e-002
2.339329e+003;5.127352e-002
2.341257e+003;5.122713e-002
2.343186e+003;5.115373e-002
2.345114e+003;5.122695e-002
2.347043e+003;5.147845e-002
2.348971e+003;5.160926e-002
2.350900e+003;5.160023e-002
2.352829e+003;5.157210e-002
2.354757e+003;5.162068e-002
2.356686e+003;5.161348e-002
2.358614e+003;5.157400e-002
2.360543e+003;5.149998e-002
2.362471e+003;5.172402e-002
2.364400e+003;5.175347e-002
2.366328e+003;5.136902e-002
2.368257e+003;5.132203e-002
2.370186e+003;5.177038e-002
2.372114e+003;5.218945e-002
2.374042e+003;5.211005e-002
2.375971e+003;5.201480e-002
2.377900e+003;5.217727e-002
2.379828e+003;5.210150e-002
2.381757e+003;5.202522e-002
2.383685e+003;5.221343e-002
2.385614e+003;5.230481e-002
2.387542e+003;5.224998e-002
2.389471e+003;5.224363e-002
2.391399e+003;5.230768e-002
2.393328e+003;5.235601e-002
2.395257e+003;5.240801e-002
2.397185e+003;5.240383e-002
2.399114e+003;5.229031e-002
2.401042e+003;5.224617e-002
2.402971e+003;5.238469e-002
2.404899e+003;5.249019e-002
2.406828e+003;5.227259e-002
2.408756e+003;5.241904e-002
2.410685e+003;5.269387e-002
2.412614e+003;5.275979e-002
2.414542e+003;5.297089e-002
2.416471e+003;5.323393e-002
2.418399e+003;5.322730e-002
2.420328e+003;5.314652e-002
2.422256e+003;5.315599e-002
2.424185e+003;5.321883e-002
2.426113e+003;5.320378e-002
2.428042e+003;5.323917e-002
2.429970e+003;5.326712e-002
2.431899e+003;5.351497e-002
2.433828e+003;5.383996e-002
2.435756e+003;5.397182e-002
2.437685e+003;5.374339e-002
2.439613e+003;5.354600e-002
2.441542e+003;5.333672e-002
2.443470e+003;5.326962e-002
2.445399e+003;5.377302e-002
2.447327e+003;5.408694e-002
2.449256e+003;5.419883e-002
2.451185e+003;5.421741e-002
2.453113e+003;5.416654e-002
2.455042e+003;5.430229e-002
2.456970e+003;5.426351e-002
2.458899e+003;5.408206e-002
2.460827e+003;5.406217e-002
2.462756e+003;5.438626e-002
2.464684e+003;5.464580e-002
2.466613e+003;5.441022e-002
2.468542e+003;5.433290e-002
2.470470e+003;5.461803e-002
2.472398e+003;5.468740e-002
2.474327e+003;5.473171e-002
2.476256e+003;5.491482e-002
2.478184e+003;5.491632e-002
2.480113e+003;5.478681e-002
2.482041e+003;5.487455e-002
2.483970e+003;5.509838e-002
2.485898e+003;5.508056e-002
2.487827e+003;5.466624e-002
2.489755e+003;5.482515e-002
2.491684e+003;5.508138e-002
2.493613e+003;5.511813e-002
2.495541e+003;5.507830e-002
2.497470e+003;5.485620e-002
2.499398e+003;5.490083e-002
2.501327e+003;5.499977e-002
2.503255e+003;5.488091e-002
2.505184e+003;5.496822e-002
2.507112e+003;5.518540e-002
2.509041e+003;5.513875e-002
2.510969e+003;5.530404e-002
2.512898e+003;5.557825e-002
2.514827e+003;5.570732e-002
2.516755e+003;5.591486e-002
2.518684e+003;5.610559e-002
2.520612e+003;5.579992e-002
2.522541e+003;5.534631e-002
2.524469e+003;5.532343e-002
2.526398e+003;5.550449e-002
2.528326e+003;5.558353e-002
2.530255e+003;5.572944e-002
2.532184e+003;5.606035e-002
2.534112e+003;5.608248e-002
2.536041e+003;5.599042e-002
2.537969e+003;5.590619e-002
2.539898e+003;5.590954e-002
2.541826e+003;5.602088e-002
2.543755e+003;5.600316e-002
2.545683e+003;5.580286e-002
2.547612e+003;5.563049e-002
2.549541e+003;5.553951e-002
2.551469e+003;5.564815e-002
2.553397e+003;5.581285e-002
2.555326e+003;5.590272e-002
2.557255e+003;5.588885e-002
2.559183e+003;5.581323e-002
2.561112e+003;5.589722e-002
2.563040e+003;5.583557e-002
2.564969e+003;5.565233e-002
2.566897e+003;5.552892e-002
2.568826e+003;5.552471e-002
2.570754e+003;5.573995e-002
2.572683e+003;5.593528e-002
2.574612e+003;5.590050e-002
2.576540e+003;5.597154e-002
2.578469e+003;5.616671e-002
2.580397e+003;5.622751e-002
2.582326e+003;5.625677e-002
2.584254e+003;5.631795e-002
2.586183e+003;5.614692e-002
2.588111e+003;5.596592e-002
2.590040e+003;5.616109e-002
2.591969e+003;5.619767e-002
2.593897e+003;5.600626e-002
2.595826e+003;5.617097e-002
2.597754e+003;5.626114e-002
2.599683e+003;5.607441e-002
2.601611e+003;5.625877e-002
2.603540e+003;5.653876e-002
2.605468e+003;5.679419e-002
2.607397e+003;5.671153e-002
2.609325e+003;5.651362e-002
2.611254e+003;5.655601e-002
2.613183e+003;5.671047e-002
2.615111e+003;5.684487e-002
2.617040e+003;5.668835e-002
2.618968e+003;5.659858e-002
2.620897e+003;5.671939e-002
2.622825e+003;5.697885e-002
2.624754e+003;5.733102e-002
2.626682e+003;5.746379e-002
2.628611e+003;5.737050e-002
2.630540e+003;5.724176e-002
2.632468e+003;5.736531e-002
2.634396e+003;5.755979e-002
2.636325e+003;5.772242e-002
2.638254e+003;5.779035e-002
2.640182e+003;5.763459e-002
2.642111e+003;5.745929e-002
2.644039e+003;5.763553e-002
2.645968e+003;5.805481e-002
2.647896e+003;5.820489e-002
2.649825e+003;5.804803e-002
2.651753e+003;5.796836e-002
2.653682e+003;5.837424e-002
2.655611e+003;5.837863e-002
2.657539e+003;5.800297e-002
2.659468e+003;5.813700e-002
2.661396e+003;5.832000e-002
2.663325e+003;5.850611e-002
2.665253e+003;5.871028e-002
2.667182e+003;5.862191e-002
2.669110e+003;5.844178e-002
2.671039e+003;5.863928e-002
2.672968e+003;5.903216e-002
2.674896e+003;5.911382e-002
2.676825e+003;5.907676e-002
2.678753e+003;5.917126e-002
2.680682e+003;5.924497e-002
2.682610e+003;5.900533e-002
2.684539e+003;5.893709e-002
2.686467e+003;5.913413e-002
2.688396e+003;5.929153e-002
2.690324e+003;5.959545e-002
2.692253e+003;5.976826e-002
2.694182e+003;5.972652e-002
2.696110e+003;5.963540e-002
2.698039e+003;5.950667e-002
2.699967e+003;5.981180e-002
2.701896e+003;6.011452e-002
2.703824e+003;6.004645e-002
2.705753e+003;6.005094e-002
2.707681e+003;5.993533e-002
2.709610e+003;5.974496e-002
2.711539e+003;6.017134e-002
2.713467e+003;6.065315e-002
2.715396e+003;6.047911e-002
2.717324e+003;6.023898e-002
2.719253e+003;6.059018e-002
2.721181e+003;6.085796e-002
2.723110e+003;6.080196e-002
2.725038e+003;6.083535e-002
2.726967e+003;6.114905e-002
2.728896e+003;6.124304e-002
2.730824e+003;6.115252e-002
2.732752e+003;6.120905e-002
2.734681e+003;6.138285e-002
2.736610e+003;6.163531e-002
2.738538e+003;6.196513e-002
2.740467e+003;6.212548e-002
2.742395e+003;6.193563e-002
2.744324e+003;6.161534e-002
2.746252e+003;6.156104e-002
2.748181e+003;6.161381e-002
2.750109e+003;6.190850e-002
2.752038e+003;6.229521e-002
2.753967e+003;6.237649e-002
2.755895e+003;6.232240e-002
2.757824e+003;6.222336e-002
2.759752e+003;6.222148e-002
2.761681e+003;6.217755e-002
2.763609e+003;6.246356e-002
2.765538e+003;6.281397e-002
2.767466e+003;6.252218e-002
2.769395e+003;6.221288e-002
2.771323e+003;6.256507e-002
2.773252e+003;6.306783e-002
2.775181e+003;6.306959e-002
2.777109e+003;6.323528e-002
2.779038e+003;6.326131e-002
2.780966e+003;6.328899e-002
2.782895e+003;6.377324e-002
2.784823e+003;6.411687e-002
2.786752e+003;6.414141e-002
2.788680e+003;6.424040e-002
2.790609e+003;6.454826e-002
2.792538e+003;6.492005e-002
2.794466e+003;6.468656e-002
2.796395e+003;6.455314e-002
2.798323e+003;6.469302e-002
2.800252e+003;6.454084e-002
2.802180e+003;6.475679e-002
2.804109e+003;6.530156e-002
2.806037e+003;6.568236e-002
2.807966e+003;6.596617e-002
2.809895e+003;6.617983e-002
2.811823e+003;6.638285e-002
2.813751e+003;6.678744e-002
2.815680e+003;6.725955e-002
2.817609e+003;6.792098e-002
2.819537e+003;6.856536e-002
2.821466e+003;6.860451e-002
2.823394e+003;6.847454e-002
2.825323e+003;6.877564e-002
2.827251e+003;6.954249e-002
2.829180e+003;6.987410e-002
2.831108e+003;7.005834e-002
2.833037e+003;7.082532e-002
2.834966e+003;7.198437e-002
2.836894e+003;7.240207e-002
2.838823e+003;7.281118e-002
2.840751e+003;7.391080e-002
2.842680e+003;7.488185e-002
2.844608e+003;7.635613e-002
2.846537e+003;7.784748e-002
2.848465e+003;7.889211e-002
2.850394e+003;7.978769e-002
2.852323e+003;8.041657e-002
2.854251e+003;8.033404e-002
2.856180e+003;8.032423e-002
2.858108e+003;8.107958e-002
2.860037e+003;8.206826e-002
2.861965e+003;8.255801e-002
2.863894e+003;8.280015e-002
2.865822e+003;8.355650e-002
2.867751e+003;8.445177e-002
2.869679e+003;8.463900e-002
2.871608e+003;8.499262e-002
2.873536e+003;8.526447e-002
2.875465e+003;8.528801e-002
2.877394e+003;8.569911e-002
2.879322e+003;8.641791e-002
2.881251e+003;8.714595e-002
2.883179e+003;8.721120e-002
2.885108e+003;8.717171e-002
2.887036e+003;8.774839e-002
2.888965e+003;8.823291e-002
2.890893e+003;8.837356e-002
2.892822e+003;8.870476e-002
2.894750e+003;8.916491e-002
2.896679e+003;8.932801e-002
2.898608e+003;8.949125e-002
2.900536e+003;8.931836e-002
2.902465e+003;8.916788e-002
2.904393e+003;8.912642e-002
2.906322e+003;8.881426e-002
2.908250e+003;8.843046e-002
2.910179e+003;8.799961e-002
2.912107e+003;8.781316e-002
2.914036e+003;8.795778e-002
2.915965e+003;8.759692e-002
2.917893e+003;8.691636e-002
2.919822e+003;8.578703e-002
2.921750e+003;8.390827e-002
2.923679e+003;8.230267e-002
2.925607e+003;8.065349e-002
2.927536e+003;7.959753e-002
2.929464e+003;7.901713e-002
2.931393e+003;7.819430e-002
2.933322e+003;7.763031e-002
2.935250e+003;7.677850e-002
2.937178e+003;7.558911e-002
2.939107e+003;7.514130e-002
2.941036e+003;7.479627e-002
2.942964e+003;7.430390e-002
2.944893e+003;7.371070e-002
2.946821e+003;7.299016e-002
2.948750e+003;7.228008e-002
2.950678e+003;7.161218e-002
2.952607e+003;7.089846e-002
2.954535e+003;7.000434e-002
2.956464e+003;6.941570e-002
2.958393e+003;6.912231e-002
2.960321e+003;6.819490e-002
2.962250e+003;6.721065e-002
2.964178e+003;6.668670e-002
2.966107e+003;6.661204e-002
2.968035e+003;6.643910e-002
2.969964e+003;6.571358e-002
2.971892e+003;6.498404e-002
2.973821e+003;6.436692e-002
2.975750e+003;6.371786e-002
2.977678e+003;6.321938e-002
2.979607e+003;6.281351e-002
2.981535e+003;6.246344e-002
2.983464e+003;6.208442e-002
2.985392e+003;6.167506e-002
2.987321e+003;6.143403e-002
2.989249e+003;6.153348e-002
2.991178e+003;6.147289e-002
2.993106e+003;6.117124e-002
2.995035e+003;6.154088e-002
2.996964e+003;6.176302e-002
2.998892e+003;6.129653e-002
3.000821e+003;6.090511e-002
3.002749e+003;6.095307e-002
3.004678e+003;6.117865e-002
3.006606e+003;6.137064e-002
3.008535e+003;6.126998e-002
3.010463e+003;6.147717e-002
3.012392e+003;6.133714e-002
3.014321e+003;6.107830e-002
3.016249e+003;6.122229e-002
3.018177e+003;6.148789e-002
3.020106e+003;6.158483e-002
3.022035e+003;6.147530e-002
3.023963e+003;6.195268e-002
3.025892e+003;6.228638e-002
3.027820e+003;6.229609e-002
3.029749e+003;6.243357e-002
3.031677e+003;6.271997e-002
3.033606e+003;6.318125e-002
3.035534e+003;6.332678e-002
3.037463e+003;6.350132e-002
3.039392e+003;6.370874e-002
3.041320e+003;6.355222e-002
3.043249e+003;6.361006e-002
3.045177e+003;6.380567e-002
3.047106e+003;6.410654e-002
3.049034e+003;6.475194e-002
3.050963e+003;6.500197e-002
3.052891e+003;6.487815e-002
3.054820e+003;6.484737e-002
3.056749e+003;6.518724e-002
3.058677e+003;6.533033e-002
3.060606e+003;6.554285e-002
3.062534e+003;6.590312e-002
3.064463e+003;6.588446e-002
3.066391e+003;6.573544e-002
3.068320e+003;6.621224e-002
3.070248e+003;6.657124e-002
3.072177e+003;6.686387e-002
3.074105e+003;6.738928e-002
3.076034e+003;6.730667e-002
3.077963e+003;6.709877e-002
3.079891e+003;6.736811e-002
3.081820e+003;6.811059e-002
3.083748e+003;6.878576e-002
3.085677e+003;6.904241e-002
3.087605e+003;6.881939e-002
3.089534e+003;6.886610e-002
3.091462e+003;6.927273e-002
3.093391e+003;6.966925e-002
3.095320e+003;6.996829e-002
3.097248e+003;7.002006e-002
3.099177e+003;7.012722e-002
3.101105e+003;7.045452e-002
3.103034e+003;7.078253e-002
3.104962e+003;7.104797e-002
3.106891e+003;7.126293e-002
3.108819e+003;7.151162e-002
3.110748e+003;7.181131e-002
3.112677e+003;7.241022e-002
3.114605e+003;7.291522e-002
3.116533e+003;7.268699e-002
3.118462e+003;7.246772e-002
3.120391e+003;7.329142e-002
3.122319e+003;7.395845e-002
3.124248e+003;7.384434e-002
3.126176e+003;7.370792e-002
3.128105e+003;7.415657e-002
3.130033e+003;7.459955e-002
3.131962e+003;7.517671e-002
3.133890e+003;7.594841e-002
3.135819e+003;7.659487e-002
3.137748e+003;7.697887e-002
3.139676e+003;7.739991e-002
3.141605e+003;7.767595e-002
3.143533e+003;7.773278e-002
3.145462e+003;7.780083e-002
3.147390e+003;7.800269e-002
3.149319e+003;7.867585e-002
3.151247e+003;7.930928e-002
3.153176e+003;7.945810e-002
3.155104e+003;7.953529e-002
3.157033e+003;7.962682e-002
3.158962e+003;8.036633e-002
3.160890e+003;8.143723e-002
3.162819e+003;8.205637e-002
3.164747e+003;8.228581e-002
3.166676e+003;8.249611e-002
3.168604e+003;8.287966e-002
3.170533e+003;8.315489e-002
3.172461e+003;8.385610e-002
3.174390e+003;8.500906e-002
3.176319e+003;8.540158e-002
3.178247e+003;8.537549e-002
3.180176e+003;8.571433e-002
3.182104e+003;8.672313e-002
3.184033e+003;8.735739e-002
3.185961e+003;8.767743e-002
3.187890e+003;8.800615e-002
3.189818e+003;8.823328e-002
3.191747e+003;8.846702e-002
3.193676e+003;8.900899e-002
3.195604e+003;8.973781e-002
3.197532e+003;8.984285e-002
3.199461e+003;8.976661e-002
3.201390e+003;9.020587e-002
3.203318e+003;9.097278e-002
3.205247e+003;9.187093e-002
3.207175e+003;9.259584e-002
3.209104e+003;9.310907e-002
3.211032e+003;9.373803e-002
3.212961e+003;9.459099e-002
3.214889e+003;9.535686e-002
3.216818e+003;9.604649e-002
3.218747e+003;9.640419e-002
3.220675e+003;9.667702e-002
3.222604e+003;9.762788e-002
3.224532e+003;9.830234e-002
3.226461e+003;9.859953e-002
3.228389e+003;9.977122e-002
3.230318e+003;1.009228e-001
3.232246e+003;1.013868e-001
3.234175e+003;1.015406e-001
3.236104e+003;1.021132e-001
3.238032e+003;1.028113e-001
3.239961e+003;1.034457e-001
3.241889e+003;1.046947e-001
3.243818e+003;1.060112e-001
3.245746e+003;1.067821e-001
3.247675e+003;1.074437e-001
3.249603e+003;1.080281e-001
3.251532e+003;1.087613e-001
3.253460e+003;1.094915e-001
3.255389e+003;1.108133e-001
3.257318e+003;1.119223e-001
3.259246e+003;1.128889e-001
3.261175e+003;1.141912e-001
3.263103e+003;1.151857e-001
3.265032e+003;1.157446e-001
3.266960e+003;1.164336e-001
3.268889e+003;1.173657e-001
3.270817e+003;1.178869e-001
3.272746e+003;1.183343e-001
3.274675e+003;1.186912e-001
3.276603e+003;1.194120e-001
3.278531e+003;1.200354e-001
3.280460e+003;1.205862e-001
3.282389e+003;1.212258e-001
3.284317e+003;1.221061e-001
3.286246e+003;1.222155e-001
3.288174e+003;1.222835e-001
3.290103e+003;1.226722e-001
3.292031e+003;1.218530e-001
3.293960e+003;1.217860e-001
3.295888e+003;1.226570e-001
3.297817e+003;1.226281e-001
3.299746e+003;1.217709e-001
3.301674e+003;1.218610e-001
3.303603e+003;1.225477e-001
3.305531e+003;1.224854e-001
3.307460e+003;1.226813e-001
3.309388e+003;1.232370e-001
3.311317e+003;1.229386e-001
3.313245e+003;1.220858e-001
3.315174e+003;1.224145e-001
3.317103e+003;1.235055e-001
3.319031e+003;1.242963e-001
3.320960e+003;1.245989e-001
3.322888e+003;1.251862e-001
3.324817e+003;1.261266e-001
3.326745e+003;1.267562e-001
3.328674e+003;1.272006e-001
3.330602e+003;1.275440e-001
3.332531e+003;1.279161e-001
3.334459e+003;1.283878e-001
3.336388e+003;1.284522e-001
3.338317e+003;1.286009e-001
3.340245e+003;1.285831e-001
3.342174e+003;1.278946e-001
3.344102e+003;1.268431e-001
3.346031e+003;1.262715e-001
3.347959e+003;1.254784e-001
3.349888e+003;1.244271e-001
3.351816e+003;1.237120e-001
3.353745e+003;1.228921e-001
3.355674e+003;1.219511e-001
3.357602e+003;1.209769e-001
3.359531e+003;1.202563e-001
3.361459e+003;1.196165e-001
3.363388e+003;1.187159e-001
3.365316e+003;1.177046e-001
3.367245e+003;1.171894e-001
3.369173e+003;1.172182e-001
3.371102e+003;1.170143e-001
3.373031e+003;1.161139e-001
3.374959e+003;1.152627e-001
3.376887e+003;1.155058e-001
3.378816e+003;1.155313e-001
3.380745e+003;1.149618e-001
3.382673e+003;1.140913e-001
3.384602e+003;1.132031e-001
3.386530e+003;1.125724e-001
3.388459e+003;1.118560e-001
3.390387e+003;1.114545e-001
3.392316e+003;1.113775e-001
3.394244e+003;1.114403e-001
3.396173e+003;1.108764e-001
3.398102e+003;1.100426e-001
3.400030e+003;1.097310e-001
3.401959e+003;1.091333e-001
3.403887e+003;1.080021e-001
3.405816e+003;1.076762e-001
3.407744e+003;1.083656e-001
3.409673e+003;1.079773e-001
3.411601e+003;1.066227e-001
3.413530e+003;1.064469e-001
3.415458e+003;1.062564e-001
3.417387e+003;1.050183e-001
3.419316e+003;1.037806e-001
3.421244e+003;1.029171e-001
3.423173e+003;1.020186e-001
3.425101e+003;1.011823e-001
3.427030e+003;1.005076e-001
3.428958e+003;1.001170e-001
3.430887e+003;9.967013e-002
3.432815e+003;9.855092e-002
3.434744e+003;9.738131e-002
3.436673e+003;9.697707e-002
3.438601e+003;9.677865e-002
3.440530e+003;9.637879e-002
3.442458e+003;9.568954e-002
3.444387e+003;9.491764e-002
3.446315e+003;9.421610e-002
3.448244e+003;9.350964e-002
3.450172e+003;9.275695e-002
3.452101e+003;9.184563e-002
3.454030e+003;9.108167e-002
3.455958e+003;9.070963e-002
3.457886e+003;9.036259e-002
3.459815e+003;8.978348e-002
3.461744e+003;8.884219e-002
3.463672e+003;8.770099e-002
3.465601e+003;8.670015e-002
3.467529e+003;8.565782e-002
3.469458e+003;8.515492e-002
3.471386e+003;8.465043e-002
3.473315e+003;8.428032e-002
3.475243e+003;8.388596e-002
3.477172e+003;8.263536e-002
3.479101e+003;8.166946e-002
3.481029e+003;8.076138e-002
3.482958e+003;7.956458e-002
3.484886e+003;7.870389e-002
3.486815e+003;7.811449e-002
3.488743e+003;7.732923e-002
3.490672e+003;7.649232e-002
3.492600e+003;7.623377e-002
3.494529e+003;7.561028e-002
3.496458e+003;7.439639e-002
3.498386e+003;7.342861e-002
3.500315e+003;7.236438e-002
3.502243e+003;7.153174e-002
3.504172e+003;7.149466e-002
3.506100e+003;7.123645e-002
3.508029e+003;7.069694e-002
3.509957e+003;6.985589e-002
3.511886e+003;6.890302e-002
3.513814e+003;6.793829e-002
3.515743e+003;6.762008e-002
3.517672e+003;6.703497e-002
3.519600e+003;6.668280e-002
3.521529e+003;6.665495e-002
3.523457e+003;6.581806e-002
3.525386e+003;6.464119e-002
3.527314e+003;6.372661e-002
3.529243e+003;6.362617e-002
3.531171e+003;6.355950e-002
3.533100e+003;6.238575e-002
3.535029e+003;6.110907e-002
3.536957e+003;6.085391e-002
3.538885e+003;6.082208e-002
3.540814e+003;6.016864e-002
3.542743e+003;5.947950e-002
3.544671e+003;5.940336e-002
3.546600e+003;5.905133e-002
3.548528e+003;5.809950e-002
3.550457e+003;5.729185e-002
3.552385e+003;5.717656e-002
3.554314e+003;5.683441e-002
3.556242e+003;5.609839e-002
3.558171e+003;5.569489e-002
3.560100e+003;5.487805e-002
3.562028e+003;5.420754e-002
3.563957e+003;5.348053e-002
3.565885e+003;5.249789e-002
3.567814e+003;5.234974e-002
3.569742e+003;5.263320e-002
3.571671e+003;5.227831e-002
3.573599e+003;5.154892e-002
3.575528e+003;5.109819e-002
3.577457e+003;5.076642e-002
3.579385e+003;5.045385e-002
3.581314e+003;5.012639e-002
3.583242e+003;4.970147e-002
3.585171e+003;4.927681e-002
3.587099e+003;4.838252e-002
3.589028e+003;4.809830e-002
3.590956e+003;4.790413e-002
3.592885e+003;4.762891e-002
3.594813e+003;4.782289e-002
3.596742e+003;4.766973e-002
3.598671e+003;4.714733e-002
3.600599e+003;4.673907e-002
3.602528e+003;4.633559e-002
3.604456e+003;4.569090e-002
3.606385e+003;4.564099e-002
3.608313e+003;4.589568e-002
3.610242e+003;4.607798e-002
3.612170e+003;4.536793e-002
3.614099e+003;4.456322e-002
3.616028e+003;4.453737e-002
3.617956e+003;4.452393e-002
3.619885e+003;4.416222e-002
3.621813e+003;4.392379e-002
3.623742e+003;4.390007e-002
3.625670e+003;4.379169e-002
3.627599e+003;4.332543e-002
3.629527e+003;4.286003e-002
3.631456e+003;4.270456e-002
3.633385e+003;4.230123e-002
3.635313e+003;4.192059e-002
3.637241e+003;4.175477e-002
3.639170e+003;4.090705e-002
3.641099e+003;4.060276e-002
3.643027e+003;4.144704e-002
3.644956e+003;4.163361e-002
3.646884e+003;4.089125e-002
3.648813e+003;4.006589e-002
3.650741e+003;3.981600e-002
3.652670e+003;4.011633e-002
3.654598e+003;4.005746e-002
3.656527e+003;3.908755e-002
3.658456e+003;3.858379e-002
3.660384e+003;3.851793e-002
3.662313e+003;3.838641e-002
3.664241e+003;3.798417e-002
3.666170e+003;3.727957e-002
3.668098e+003;3.728957e-002
3.670027e+003;3.713341e-002
3.671955e+003;3.694650e-002
3.673884e+003;3.679648e-002
3.675813e+003;3.630896e-002
3.677741e+003;3.654458e-002
3.679669e+003;3.707415e-002
3.681598e+003;3.723921e-002
3.683527e+003;3.679738e-002
3.685455e+003;3.663531e-002
3.687384e+003;3.588643e-002
3.689312e+003;3.528322e-002
3.691241e+003;3.578772e-002
3.693169e+003;3.642590e-002
3.695098e+003;3.632247e-002
3.697026e+003;3.627510e-002
3.698955e+003;3.580712e-002
3.700884e+003;3.512519e-002
3.702812e+003;3.553644e-002
3.704741e+003;3.554870e-002
3.706669e+003;3.509727e-002
3.708598e+003;3.520650e-002
3.710526e+003;3.526115e-002
3.712455e+003;3.457491e-002
3.714383e+003;3.397097e-002
3.716312e+003;3.392404e-002
3.718240e+003;3.449311e-002
3.720169e+003;3.518853e-002
3.722098e+003;3.514452e-002
3.724026e+003;3.443339e-002
3.725955e+003;3.405407e-002
3.727883e+003;3.408414e-002
3.729812e+003;3.448637e-002
3.731740e+003;3.462227e-002
3.733669e+003;3.463372e-002
3.735597e+003;3.430798e-002
3.737526e+003;3.420024e-002
3.739455e+003;3.411453e-002
3.741383e+003;3.356829e-002
3.743312e+003;3.309675e-002
3.745240e+003;3.334626e-002
3.747169e+003;3.359994e-002
3.749097e+003;3.329789e-002
3.751026e+003;3.329271e-002
3.752954e+003;3.405561e-002
3.754883e+003;3.478407e-002
3.756812e+003;3.412765e-002
3.758740e+003;3.400508e-002
3.760668e+003;3.435933e-002
3.762597e+003;3.393891e-002
3.764526e+003;3.413521e-002
3.766454e+003;3.458744e-002
3.768383e+003;3.422580e-002
3.770311e+003;3.405844e-002
3.772240e+003;3.445925e-002
3.774168e+003;3.413830e-002
3.776097e+003;3.323279e-002
3.778025e+003;3.309925e-002
3.779954e+003;3.411403e-002
3.781883e+003;3.501635e-002
3.783811e+003;3.505058e-002
3.785740e+003;3.526349e-002
3.787668e+003;3.505126e-002
3.789597e+003;3.493221e-002
3.791525e+003;3.482783e-002
3.793454e+003;3.457538e-002
3.795382e+003;3.476174e-002
3.797311e+003;3.500766e-002
3.799240e+003;3.417188e-002
3.801168e+003;3.348389e-002
3.803097e+003;3.372629e-002
3.805025e+003;3.404486e-002
3.806954e+003;3.400226e-002
3.808882e+003;3.396635e-002
3.810811e+003;3.401186e-002
3.812739e+003;3.424337e-002
3.814668e+003;3.430063e-002
3.816596e+003;3.387038e-002
3.818525e+003;3.380261e-002
3.820454e+003;3.383387e-002
3.822382e+003;3.385819e-002
3.824311e+003;3.395428e-002
3.826239e+003;3.425201e-002
3.828168e+003;3.454732e-002
3.830096e+003;3.475460e-002
3.832025e+003;3.510586e-002
3.833953e+003;3.541261e-002
3.835882e+003;3.557208e-002
3.837811e+003;3.538077e-002
3.839739e+003;3.544953e-002
3.841667e+003;3.493116e-002
3.843596e+003;3.420572e-002
3.845525e+003;3.432235e-002
3.847453e+003;3.463724e-002
3.849382e+003;3.469348e-002
3.851310e+003;3.444386e-002
3.853239e+003;3.427363e-002
3.855167e+003;3.537217e-002
3.857096e+003;3.605672e-002
3.859024e+003;3.567879e-002
3.860953e+003;3.560369e-002
3.862882e+003;3.621884e-002
3.864810e+003;3.660560e-002
3.866739e+003;3.629736e-002
3.868667e+003;3.607912e-002
3.870596e+003;3.598310e-002
3.872524e+003;3.575937e-002
3.874453e+003;3.545338e-002
3.876381e+003;3.561192e-002
3.878310e+003;3.565484e-002
3.880239e+003;3.566768e-002
3.882167e+003;3.595492e-002
3.884096e+003;3.557233e-002
3.886024e+003;3.540575e-002
3.887953e+003;3.586095e-002
3.889881e+003;3.530636e-002
3.891810e+003;3.508219e-002
3.893738e+003;3.570807e-002
3.895667e+003;3.604614e-002
3.897595e+003;3.649538e-002
3.899524e+003;3.648262e-002
3.901453e+003;3.604959e-002
3.903381e+003;3.652846e-002
3.905310e+003;3.686303e-002
3.907238e+003;3.697417e-002
3.909167e+003;3.726278e-002
3.911095e+003;3.695981e-002
3.913024e+003;3.655611e-002
3.914952e+003;3.646403e-002
3.916881e+003;3.659334e-002
3.918810e+003;3.708516e-002
3.920738e+003;3.770100e-002
3.922667e+003;3.741188e-002
3.924595e+003;3.730037e-002
3.926524e+003;3.747707e-002
3.928452e+003;3.692470e-002
3.930381e+003;3.659706e-002
3.932309e+003;3.742249e-002
3.934238e+003;3.779360e-002
3.936167e+003;3.739353e-002
3.938095e+003;3.721156e-002
3.940023e+003;3.712875e-002
3.941952e+003;3.769684e-002
3.943881e+003;3.843557e-002
3.945809e+003;3.862511e-002
3.947738e+003;3.857829e-002
3.949666e+003;3.835217e-002
3.951595e+003;3.812794e-002
3.953523e+003;3.823959e-002
3.955452e+003;3.810276e-002
3.957380e+003;3.799292e-002
3.959309e+003;3.813944e-002
3.961238e+003;3.818683e-002
3.963166e+003;3.766663e-002
3.965095e+003;3.783632e-002
3.967023e+003;3.838525e-002
3.968952e+003;3.826665e-002
3.970880e+003;3.780090e-002
3.972809e+003;3.782935e-002
3.974737e+003;3.755014e-002
3.976666e+003;3.787374e-002
3.978594e+003;3.847314e-002
3.980523e+003;3.863011e-002
3.982452e+003;3.833635e-002
3.984380e+003;3.754411e-002
3.986309e+003;3.722069e-002
3.988237e+003;3.730845e-002
3.990166e+003;3.781915e-002
3.992094e+003;3.848650e-002
3.994023e+003;3.877025e-002
3.995951e+003;3.871085e-002
3.997880e+003;3.801480e-002
3.999809e+003;3.800109e-002
4.001737e+003;0.000000e+000
