3.992094e+002;0.000000e+000
4.011380e+002;0.000000e+000
4.030665e+002;0.000000e+000
4.049951e+002;0.000000e+000
4.069236e+002;0.000000e+000
4.088522e+002;0.000000e+000
4.107807e+002;0.000000e+000
4.127093e+002;0.000000e+000
4.146378e+002;0.000000e+000
4.165664e+002;0.000000e+000
4.184949e+002;0.000000e+000
4.204235e+002;0.000000e+000
4.223520e+002;0.000000e+000
4.242806e+002;0.000000e+000
4.262091e+002;0.000000e+000
4.281377e+002;0.000000e+000
4.300662e+002;0.000000e+000
4.319948e+002;0.000000e+000
4.339233e+002;0.000000e+000
4.358519e+002;0.000000e+000
4.377804e+002;0.000000e+000
4.397090e+002;0.000000e+000
4.416375e+002;0.000000e+000
4.435660e+002;0.000000e+000
4.454946e+002;0.000000e+000
4.474232e+002;0.000000e+000
4.493517e+002;0.000000e+000
4.512802e+002;0.000000e+000
4.532088e+002;0.000000e+000
4.551373e+002;0.000000e+000
4.570659e+002;0.000000e+000
4.589944e+002;0.000000e+000
4.609230e+002;0.000000e+000
4.628515e+002;0.000000e+000
4.647801e+002;0.000000e+000
4.667086e+002;0.000000e+000
4.686372e+002;0.000000e+000
4.705657e+002;0.000000e+000
4.724943e+002;0.000000e+000
4.744228e+002;0.000000e+000
4.763513e+002;0.000000e+000
4.782799e+002;0.000000e+000
4.802085e+002;0.000000e+000
4.821370e+002;0.000000e+000
4.840656e+002;0.000000e+000
4.859941e+002;0.000000e+000
4.879226e+002;0.000000e+000
4.898512e+002;0.000000e+000
4.917798e+002;0.000000e+000
4.937083e+002;0.000000e+000
4.956368e+002;0.000000e+000
4.975654e+002;0.000000e+000
4.994939e+002;0.000000e+000
5.014225e+002;0.000000e+000
5.033510e+002;0.000000e+000
5.052796e+002;0.000000e+000
5.072081e+002;0.000000e+000
5.091367e+002;0.000000e+000
5.110652e+002;0.000000e+000
5.129938e+002;0.000000e+000
5.149223e+002;0.000000e+000
5.168509e+002;0.000000e+000
5.187794e+002;0.000000e+000
5.207079e+002;0.000000e+000
5.226365e+002;0.000000e+000
5.245651e+002;0.000000e+000
5.264936e+002;0.000000e+000
5.284222e+002;0.000000e+000
5.303507e+002;0.000000e+000
5.322792e+002;0.000000e+000
5.342078e+002;0.000000e+000
5.361364e+002;0.000000e+000
5.380649e+002;0.000000e+000
5.399935e+002;0.000000e+000
5.419220e+002;0.000000e+000
5.438505e+002;0.000000e+000
5.457791e+002;0.000000e+000
5.477076e+002;0.000000e+000
5.496362e+002;0.000000e+000
5.515648e+002;0.000000e+000
5.534933e+002;0.000000e+000
5.554218e+002;0.000000e+000
5.573504e+002;0.000000e+000
5.592789e+002;0.000000e+000
5.612075e+002;0.000000e+000
5.631360e+002;0.000000e+000
5.650646e+002;0.000000e+000
5.669931e+002;0.000000e+000
5.689217e+002;0.000000e+000
5.708502e+002;0.000000e+000
5.727787e+002;0.000000e+000
5.747073e+002;0.000000e+000
5.766359e+002;0.000000e+000
5.785644e+002;0.000000e+000
5.804930e+002;0.000000e+000
5.824215e+002;0.000000e+000
5.843500e+002;0.000000e+000
5.862786e+002;0.000000e+000
5.882072e+002;0.000000e+000
5.901357e+002;0.000000e+000
5.920643e+002;0.000000e+000
5.939928e+002;0.000000e+000
5.959213e+002;0.000000e+000
5.978499e+002;0.000000e+000
5.997784e+002;1.957417e-001
6.017070e+002;1.936917e-001
6.036355e+002;1.929250e-001
6.055641e+002;2.004542e-001
6.074926e+002;2.049337e-001
6.094211e+002;2.038983e-001
6.113497e+002;2.025245e-001
6.132783e+002;1.981243e-001
6.152068e+002;1.936557e-001
6.171354e+002;1.936153e-001
6.190639e+002;1.935766e-001
6.209924e+002;1.912478e-001
6.229210e+002;1.884302e-001
6.248495e+002;1.866792e-001
6.267781e+002;1.863594e-001
6.287067e+002;1.844593e-001
6.306352e+002;1.799666e-001
6.325637e+002;1.783981e-001
6.344923e+002;1.769205e-001
6.364208e+002;1.743904e-001
6.383494e+002;1.735074e-001
6.402780e+002;1.703577e-001
6.422065e+002;1.678427e-001
6.441350e+002;1.671075e-001
6.460636e+002;1.677615e-001
6.479921e+002;1.714420e-001
6.499207e+002;1.724345e-001
6.518492e+002;1.707004e-001
6.537778e+002;1.716873e-001
6.557063e+002;1.727731e-001
6.576349e+002;1.758028e-001
6.595634e+002;1.810638e-001
6.614919e+002;1.845108e-001
6.634205e+002;1.856555e-001
6.653491e+002;1.848028e-001
6.672776e+002;1.830924e-001
6.692062e+002;1.823701e-001
6.711347e+002;1.791731e-001
6.730632e+002;1.751173e-001
6.749918e+002;1.718570e-001
6.769203e+002;1.678501e-001
6.788489e+002;1.625883e-001
6.807775e+002;1.593743e-001
6.827060e+002;1.568176e-001
6.846345e+002;1.544690e-001
6.865631e+002;1.546630e-001
6.884916e+002;1.542211e-001
6.904202e+002;1.533177e-001
6.923488e+002;1.538449e-001
6.942773e+002;1.532324e-001
6.962058e+002;1.531384e-001
6.981344e+002;1.527798e-001
7.000629e+002;1.519592e-001
7.019915e+002;1.515788e-001
7.039200e+002;1.503743e-001
7.058486e+002;1.490366e-001
7.077771e+002;1.485372e-001
7.097057e+002;1.481139e-001
7.116342e+002;1.466756e-001
7.135627e+002;1.444379e-001
7.154913e+002;1.416420e-001
7.174199e+002;1.388043e-001
7.193484e+002;1.360926e-001
7.212770e+002;1.332581e-001
7.232055e+002;1.309602e-001
7.251340e+002;1.283672e-001
7.270626e+002;1.254306e-001
7.289911e+002;1.233721e-001
7.309197e+002;1.219415e-001
7.328483e+002;1.199834e-001
7.347768e+002;1.177204e-001
7.367053e+002;1.159863e-001
7.386339e+002;1.138292e-001
7.405624e+002;1.130224e-001
7.424910e+002;1.131352e-001
7.444196e+002;1.120554e-001
7.463481e+002;1.113313e-001
7.482766e+002;1.117545e-001
7.502052e+002;1.107942e-001
7.521337e+002;1.088328e-001
7.540623e+002;1.084646e-001
7.559908e+002;1.082013e-001
7.579194e+002;1.077192e-001
7.598479e+002;1.073854e-001
7.617765e+002;1.067220e-001
7.637050e+002;1.054712e-001
7.656335e+002;1.037331e-001
7.675621e+002;1.033653e-001
7.694907e+002;1.034379e-001
7.714192e+002;1.028912e-001
7.733478e+002;1.021938e-001
7.752763e+002;1.020150e-001
7.772048e+002;1.018808e-001
7.791334e+002;1.009540e-001
7.810620e+002;1.009173e-001
7.829905e+002;1.013547e-001
7.849191e+002;1.009282e-001
7.868476e+002;1.002032e-001
7.887761e+002;9.967597e-002
7.907047e+002;9.895750e-002
7.926332e+002;9.831484e-002
7.945618e+002;9.841242e-002
7.964903e+002;9.850877e-002
7.984189e+002;9.866831e-002
8.003474e+002;9.885690e-002
8.022759e+002;9.884562e-002
8.042045e+002;9.916629e-002
8.061331e+002;9.906763e-002
8.080616e+002;9.842663e-002
8.099902e+002;9.843470e-002
8.119187e+002;9.875656e-002
8.138472e+002;9.862294e-002
8.157758e+002;9.885735e-002
8.177043e+002;9.907241e-002
8.196329e+002;9.881292e-002
8.215615e+002;9.817123e-002
8.234900e+002;9.736705e-002
8.254185e+002;9.775604e-002
8.273471e+002;9.830641e-002
8.292756e+002;9.812558e-002
8.312042e+002;9.830246e-002
8.331328e+002;9.872512e-002
8.350613e+002;9.890699e-002
8.369898e+002;9.858901e-002
8.389184e+002;9.802865e-002
8.408469e+002;9.800369e-002
8.427755e+002;9.811993e-002
8.447040e+002;9.892201e-002
8.466326e+002;9.937629e-002
8.485611e+002;9.864531e-002
8.504897e+002;9.851234e-002
8.524182e+002;9.923998e-002
8.543467e+002;9.957157e-002
8.562753e+002;1.002271e-001
8.582039e+002;1.010959e-001
8.601324e+002;1.017553e-001
8.620610e+002;1.022349e-001
8.639895e+002;1.023051e-001
8.659180e+002;1.025170e-001
8.678466e+002;1.034215e-001
8.697751e+002;1.047312e-001
8.717037e+002;1.061034e-001
8.736323e+002;1.071817e-001
8.755608e+002;1.083709e-001
8.774893e+002;1.093469e-001
8.794179e+002;1.105478e-001
8.813464e+002;1.118418e-001
8.832750e+002;1.133791e-001
8.852036e+002;1.150369e-001
8.871321e+002;1.167080e-001
8.890606e+002;1.183429e-001
8.909892e+002;1.198045e-001
8.929177e+002;1.212891e-001
8.948463e+002;1.221109e-001
8.967748e+002;1.226926e-001
8.987034e+002;1.228486e-001
9.006319e+002;1.227000e-001
9.025605e+002;1.221222e-001
9.044890e+002;1.208855e-001
9.064175e+002;1.196178e-001
9.083461e+002;1.186729e-001
9.102747e+002;1.181149e-001
9.122032e+002;1.174306e-001
9.141318e+002;1.164090e-001
9.160603e+002;1.156688e-001
9.179888e+002;1.156914e-001
9.199174e+002;1.158296e-001
9.218459e+002;1.160862e-001
9.237745e+002;1.168976e-001
9.257031e+002;1.182051e-001
9.276316e+002;1.188685e-001
9.295601e+002;1.194086e-001
9.314887e+002;1.205194e-001
9.334172e+002;1.218464e-001
9.353458e+002;1.228426e-001
9.372744e+002;1.236625e-001
9.392029e+002;1.248811e-001
9.411314e+002;1.267509e-001
9.430600e+002;1.284555e-001
9.449885e+002;1.299889e-001
9.469171e+002;1.320502e-001
9.488456e+002;1.346159e-001
9.507742e+002;1.370618e-001
9.527027e+002;1.395887e-001
9.546313e+002;1.422913e-001
9.565598e+002;1.449794e-001
9.584883e+002;1.480545e-001
9.604169e+002;1.513953e-001
9.623455e+002;1.550490e-001
9.642740e+002;1.589774e-001
9.662026e+002;1.627459e-001
9.681311e+002;1.670417e-001
9.700596e+002;1.721488e-001
9.719882e+002;1.781955e-001
9.739167e+002;1.853621e-001
9.758453e+002;1.938670e-001
9.777739e+002;2.032228e-001
9.797024e+002;2.131387e-001
9.816309e+002;2.221971e-001
9.835595e+002;2.284509e-001
9.854880e+002;2.318698e-001
9.874166e+002;2.328507e-001
9.893452e+002;2.335650e-001
9.912737e+002;2.355158e-001
9.932022e+002;2.389014e-001
9.951307e+002;2.433047e-001
9.970593e+002;2.475508e-001
9.989879e+002;2.514324e-001
1.000916e+003;2.539645e-001
1.002845e+003;2.551275e-001
1.004773e+003;2.558733e-001
1.006702e+003;2.567062e-001
1.008631e+003;2.579157e-001
1.010559e+003;2.595329e-001
1.012488e+003;2.621553e-001
1.014416e+003;2.655253e-001
1.016345e+003;2.680817e-001
1.018273e+003;2.700947e-001
1.020202e+003;2.734197e-001
1.022130e+003;2.776116e-001
1.024059e+003;2.814172e-001
1.025988e+003;2.849268e-001
1.027916e+003;2.881632e-001
1.029845e+003;2.905798e-001
1.031773e+003;2.908520e-001
1.033702e+003;2.885532e-001
1.035630e+003;2.840881e-001
1.037559e+003;2.782108e-001
1.039487e+003;2.719291e-001
1.041416e+003;2.680539e-001
1.043344e+003;2.673804e-001
1.045273e+003;2.686359e-001
1.047202e+003;2.717522e-001
1.049130e+003;2.759201e-001
1.051059e+003;2.800665e-001
1.052987e+003;2.834800e-001
1.054916e+003;2.841177e-001
1.056844e+003;2.811112e-001
1.058773e+003;2.757783e-001
1.060701e+003;2.671048e-001
1.062630e+003;2.547888e-001
1.064558e+003;2.414163e-001
1.066487e+003;2.296809e-001
1.068416e+003;2.206368e-001
1.070344e+003;2.133781e-001
1.072273e+003;2.077710e-001
1.074201e+003;2.027131e-001
1.076130e+003;1.981783e-001
1.078058e+003;1.939146e-001
1.079987e+003;1.901147e-001
1.081915e+003;1.872238e-001
1.083844e+003;1.851813e-001
1.085773e+003;1.844619e-001
1.087701e+003;1.851953e-001
1.089630e+003;1.860802e-001
1.091558e+003;1.871819e-001
1.093487e+003;1.889240e-001
1.095415e+003;1.913373e-001
1.097344e+003;1.945288e-001
1.099272e+003;1.973496e-001
1.101201e+003;1.994344e-001
1.103129e+003;2.002933e-001
1.105058e+003;1.996350e-001
1.106987e+003;1.985670e-001
1.108915e+003;1.970557e-001
1.110844e+003;1.937854e-001
1.112772e+003;1.882577e-001
1.114701e+003;1.805025e-001
1.116629e+003;1.717545e-001
1.118558e+003;1.642216e-001
1.120486e+003;1.586746e-001
1.122415e+003;1.538588e-001
1.124344e+003;1.492612e-001
1.126272e+003;1.441397e-001
1.128201e+003;1.389984e-001
1.130129e+003;1.349686e-001
1.132058e+003;1.315935e-001
1.133986e+003;1.287216e-001
1.135915e+003;1.265795e-001
1.137843e+003;1.254375e-001
1.139772e+003;1.253202e-001
1.141700e+003;1.266930e-001
1.143629e+003;1.287902e-001
1.145557e+003;1.304555e-001
1.147486e+003;1.316365e-001
1.149415e+003;1.326248e-001
1.151343e+003;1.340066e-001
1.153272e+003;1.356424e-001
1.155200e+003;1.373002e-001
1.157129e+003;1.384964e-001
1.159057e+003;1.389719e-001
1.160986e+003;1.383755e-001
1.162914e+003;1.364249e-001
1.164843e+003;1.322538e-001
1.166771e+003;1.263383e-001
1.168700e+003;1.199716e-001
1.170629e+003;1.139868e-001
1.172557e+003;1.088383e-001
1.174486e+003;1.045993e-001
1.176414e+003;1.013516e-001
1.178343e+003;9.875223e-002
1.180271e+003;9.651440e-002
1.182200e+003;9.473006e-002
1.184128e+003;9.383816e-002
1.186057e+003;9.347915e-002
1.187986e+003;9.339172e-002
1.189914e+003;9.386332e-002
1.191843e+003;9.496927e-002
1.193771e+003;9.670463e-002
1.195700e+003;9.851281e-002
1.197628e+003;9.997493e-002
1.199557e+003;1.012360e-001
1.201485e+003;1.021049e-001
1.203414e+003;1.024621e-001
1.205343e+003;1.023267e-001
1.207271e+003;1.010284e-001
1.209200e+003;9.850474e-002
1.211128e+003;9.609481e-002
1.213057e+003;9.474757e-002
1.214985e+003;9.426430e-002
1.216914e+003;9.404490e-002
1.218842e+003;9.464723e-002
1.220771e+003;9.569383e-002
1.222699e+003;9.677191e-002
1.224628e+003;9.806196e-002
1.226557e+003;9.942749e-002
1.228485e+003;1.006932e-001
1.230414e+003;1.017727e-001
1.232342e+003;1.027486e-001
1.234271e+003;1.035805e-001
1.236199e+003;1.040369e-001
1.238128e+003;1.041870e-001
1.240056e+003;1.043085e-001
1.241985e+003;1.046709e-001
1.243913e+003;1.055379e-001
1.245842e+003;1.066840e-001
1.247771e+003;1.069610e-001
1.249699e+003;1.062703e-001
1.251628e+003;1.060730e-001
1.253556e+003;1.062425e-001
1.255485e+003;1.060077e-001
1.257413e+003;1.059724e-001
1.259342e+003;1.065366e-001
1.261270e+003;1.072848e-001
1.263199e+003;1.077391e-001
1.265127e+003;1.072714e-001
1.267056e+003;1.069627e-001
1.268985e+003;1.072088e-001
1.270913e+003;1.075463e-001
1.272842e+003;1.079518e-001
1.274770e+003;1.083242e-001
1.276699e+003;1.084505e-001
1.278627e+003;1.084401e-001
1.280556e+003;1.079794e-001
1.282484e+003;1.070158e-001
1.284413e+003;1.060937e-001
1.286342e+003;1.055510e-001
1.288270e+003;1.048815e-001
1.290199e+003;1.044516e-001
1.292127e+003;1.045913e-001
1.294056e+003;1.050382e-001
1.295984e+003;1.055037e-001
1.297913e+003;1.061192e-001
1.299841e+003;1.073267e-001
1.301770e+003;1.092282e-001
1.303698e+003;1.115381e-001
1.305627e+003;1.142844e-001
1.307556e+003;1.169991e-001
1.309484e+003;1.194919e-001
1.311413e+003;1.216238e-001
1.313341e+003;1.229829e-001
1.315270e+003;1.231863e-001
1.317198e+003;1.221956e-001
1.319127e+003;1.201467e-001
1.321055e+003;1.174149e-001
1.322984e+003;1.151356e-001
1.324912e+003;1.137915e-001
1.326841e+003;1.130371e-001
1.328770e+003;1.131402e-001
1.330698e+003;1.138831e-001
1.332627e+003;1.145346e-001
1.334555e+003;1.147768e-001
1.336484e+003;1.143328e-001
1.338412e+003;1.134238e-001
1.340341e+003;1.122007e-001
1.342269e+003;1.102626e-001
1.344198e+003;1.079629e-001
1.346126e+003;1.061836e-001
1.348055e+003;1.052059e-001
1.349984e+003;1.048130e-001
1.351912e+003;1.050443e-001
1.353841e+003;1.059357e-001
1.355769e+003;1.070174e-001
1.357698e+003;1.076821e-001
1.359626e+003;1.078887e-001
1.361555e+003;1.078130e-001
1.363483e+003;1.073318e-001
1.365412e+003;1.068360e-001
1.367341e+003;1.066220e-001
1.369269e+003;1.065194e-001
1.371198e+003;1.057676e-001
1.373126e+003;1.039071e-001
1.375055e+003;1.018221e-001
1.376983e+003;9.970240e-002
1.378912e+003;9.735540e-002
1.380840e+003;9.564518e-002
1.382769e+003;9.407782e-002
1.384698e+003;9.246065e-002
1.386626e+003;9.102348e-002
1.388555e+003;9.009312e-002
1.390483e+003;8.973504e-002
1.392412e+003;8.964974e-002
1.394340e+003;8.946812e-002
1.396269e+003;8.940587e-002
1.398197e+003;8.957268e-002
1.400126e+003;8.982846e-002
1.402054e+003;9.033322e-002
1.403983e+003;9.068485e-002
1.405911e+003;9.110203e-002
1.407840e+003;9.166816e-002
1.409769e+003;9.219718e-002
1.411697e+003;9.275223e-002
1.413626e+003;9.375965e-002
1.415554e+003;9.505042e-002
1.417483e+003;9.626206e-002
1.419411e+003;9.751023e-002
1.421340e+003;9.899338e-002
1.423268e+003;1.002282e-001
1.425197e+003;1.008625e-001
1.427125e+003;1.012512e-001
1.429054e+003;1.009545e-001
1.430983e+003;9.988322e-002
1.432911e+003;9.838691e-002
1.434840e+003;9.684226e-002
1.436768e+003;9.547404e-002
1.438697e+003;9.446759e-002
1.440625e+003;9.362949e-002
1.442554e+003;9.302943e-002
1.444482e+003;9.267614e-002
1.446411e+003;9.265260e-002
1.448340e+003;9.271979e-002
1.450268e+003;9.259441e-002
1.452197e+003;9.202424e-002
1.454125e+003;9.115213e-002
1.456054e+003;9.028267e-002
1.457982e+003;8.940241e-002
1.459911e+003;8.830429e-002
1.461839e+003;8.724818e-002
1.463768e+003;8.607367e-002
1.465697e+003;8.464750e-002
1.467625e+003;8.354484e-002
1.469554e+003;8.261216e-002
1.471482e+003;8.142856e-002
1.473411e+003;7.973752e-002
1.475339e+003;7.805000e-002
1.477268e+003;7.702840e-002
1.479196e+003;7.641867e-002
1.481125e+003;7.551872e-002
1.483053e+003;7.440410e-002
1.484982e+003;7.330444e-002
1.486911e+003;7.210988e-002
1.488839e+003;7.088270e-002
1.490768e+003;6.999321e-002
1.492696e+003;6.954832e-002
1.494625e+003;6.950932e-002
1.496553e+003;6.952593e-002
1.498482e+003;6.929015e-002
1.500410e+003;6.929123e-002
1.502339e+003;6.951601e-002
1.504267e+003;6.974854e-002
1.506196e+003;6.969076e-002
1.508125e+003;6.973184e-002
1.510053e+003;6.973336e-002
1.511982e+003;6.932645e-002
1.513910e+003;6.893618e-002
1.515839e+003;6.842671e-002
1.517767e+003;6.778710e-002
1.519696e+003;6.741142e-002
1.521624e+003;6.724307e-002
1.523553e+003;6.724868e-002
1.525481e+003;6.703705e-002
1.527410e+003;6.667396e-002
1.529339e+003;6.647307e-002
1.531267e+003;6.668628e-002
1.533196e+003;6.688505e-002
1.535124e+003;6.665460e-002
1.537053e+003;6.660392e-002
1.538981e+003;6.665278e-002
1.540910e+003;6.661439e-002
1.542838e+003;6.680711e-002
1.544767e+003;6.681243e-002
1.546695e+003;6.673179e-002
1.548624e+003;6.692216e-002
1.550553e+003;6.706230e-002
1.552481e+003;6.721108e-002
1.554410e+003;6.715724e-002
1.556338e+003;6.735499e-002
1.558267e+003;6.751827e-002
1.560195e+003;6.744906e-002
1.562124e+003;6.737129e-002
1.564052e+003;6.740468e-002
1.565981e+003;6.762829e-002
1.567910e+003;6.814396e-002
1.569838e+003;6.869342e-002
1.571767e+003;6.908596e-002
1.573695e+003;6.946740e-002
1.575624e+003;6.972165e-002
1.577552e+003;6.996487e-002
1.579481e+003;7.060466e-002
1.581409e+003;7.129580e-002
1.583338e+003;7.187977e-002
1.585266e+003;7.246056e-002
1.587195e+003;7.296174e-002
1.589124e+003;7.332551e-002
1.591052e+003;7.368110e-002
1.592981e+003;7.406728e-002
1.594909e+003;7.434055e-002
1.596838e+003;7.451753e-002
1.598766e+003;7.470477e-002
1.600695e+003;7.490598e-002
1.602623e+003;7.539900e-002
1.604552e+003;7.598571e-002
1.606480e+003;7.634609e-002
1.608409e+003;7.647742e-002
1.610338e+003;7.657290e-002
1.612266e+003;7.671627e-002
1.614195e+003;7.667456e-002
1.616123e+003;7.634424e-002
1.618052e+003;7.649022e-002
1.619980e+003;7.690794e-002
1.621909e+003;7.700569e-002
1.623837e+003;7.694647e-002
1.625766e+003;7.698571e-002
1.627694e+003;7.700343e-002
1.629623e+003;7.701194e-002
1.631552e+003;7.694662e-002
1.633480e+003;7.693310e-002
1.635409e+003;7.693329e-002
1.637337e+003;7.703188e-002
1.639266e+003;7.714624e-002
1.641194e+003;7.698163e-002
1.643123e+003;7.695980e-002
1.645051e+003;7.668164e-002
1.646980e+003;7.614212e-002
1.648909e+003;7.594514e-002
1.650837e+003;7.566151e-002
1.652766e+003;7.502089e-002
1.654694e+003;7.473972e-002
1.656623e+003;7.456158e-002
1.658551e+003;7.440622e-002
1.660480e+003;7.405565e-002
1.662408e+003;7.354081e-002
1.664337e+003;7.326487e-002
1.666266e+003;7.274688e-002
1.668194e+003;7.189372e-002
1.670123e+003;7.125488e-002
1.672051e+003;7.064692e-002
1.673980e+003;7.013178e-002
1.675908e+003;6.979359e-002
1.677837e+003;6.943502e-002
1.679765e+003;6.916140e-002
1.681694e+003;6.880048e-002
1.683622e+003;6.824491e-002
1.685551e+003;6.737902e-002
1.687479e+003;6.688312e-002
1.689408e+003;6.652977e-002
1.691337e+003;6.608591e-002
1.693265e+003;6.581710e-002
1.695194e+003;6.531037e-002
1.697122e+003;6.495118e-002
1.699051e+003;6.491351e-002
1.700979e+003;6.491035e-002
1.702908e+003;6.466003e-002
1.704836e+003;6.436596e-002
1.706765e+003;6.430091e-002
1.708693e+003;6.413326e-002
1.710622e+003;6.407305e-002
1.712551e+003;6.415758e-002
1.714479e+003;6.416734e-002
1.716408e+003;6.423110e-002
1.718336e+003;6.424125e-002
1.720265e+003;6.441361e-002
1.722193e+003;6.463627e-002
1.724122e+003;6.485557e-002
1.726050e+003;6.510685e-002
1.727979e+003;6.525350e-002
1.729908e+003;6.519005e-002
1.731836e+003;6.509592e-002
1.733765e+003;6.534778e-002
1.735693e+003;6.574342e-002
1.737622e+003;6.542931e-002
1.739550e+003;6.452627e-002
1.741479e+003;6.367271e-002
1.743407e+003;6.301404e-002
1.745336e+003;6.249298e-002
1.747265e+003;6.199055e-002
1.749193e+003;6.154608e-002
1.751122e+003;6.114317e-002
1.753050e+003;6.058607e-002
1.754979e+003;5.989357e-002
1.756907e+003;5.960548e-002
1.758836e+003;5.954228e-002
1.760764e+003;5.945818e-002
1.762693e+003;5.909343e-002
1.764621e+003;5.887114e-002
1.766550e+003;5.887451e-002
1.768479e+003;5.864072e-002
1.770407e+003;5.827347e-002
1.772336e+003;5.794988e-002
1.774264e+003;5.781866e-002
1.776193e+003;5.781987e-002
1.778121e+003;5.767031e-002
1.780050e+003;5.755918e-002
1.781978e+003;5.773187e-002
1.783907e+003;5.785557e-002
1.785835e+003;5.761972e-002
1.787764e+003;5.740846e-002
1.789693e+003;5.728754e-002
1.791621e+003;5.710373e-002
1.793550e+003;5.719776e-002
1.795478e+003;5.739640e-002
1.797407e+003;5.727053e-002
1.799335e+003;5.704417e-002
1.801264e+003;5.699963e-002
1.803192e+003;5.707917e-002
1.805121e+003;5.690651e-002
1.807049e+003;5.659012e-002
1.808978e+003;5.651049e-002
1.810907e+003;5.666494e-002
1.812835e+003;5.688060e-002
1.814764e+003;5.692479e-002
1.816692e+003;5.661164e-002
1.818621e+003;5.652634e-002
1.820549e+003;5.681477e-002
1.822478e+003;5.683777e-002
1.824406e+003;5.666003e-002
1.826335e+003;5.654634e-002
1.828264e+003;5.664361e-002
1.830192e+003;5.661568e-002
1.832121e+003;5.652219e-002
1.834049e+003;5.646826e-002
1.835978e+003;5.621739e-002
1.837906e+003;5.602993e-002
1.839835e+003;5.595929e-002
1.841763e+003;5.596818e-002
1.843692e+003;5.618018e-002
1.845620e+003;5.632655e-002
1.847549e+003;5.603656e-002
1.849478e+003;5.561290e-002
1.851406e+003;5.551917e-002
1.853335e+003;5.553721e-002
1.855263e+003;5.544003e-002
1.857192e+003;5.541982e-002
1.859120e+003;5.551398e-002
1.861049e+003;5.537036e-002
1.862977e+003;5.525813e-002
1.864906e+003;5.555803e-002
1.866834e+003;5.566412e-002
1.868763e+003;5.561490e-002
1.870692e+003;5.555438e-002
1.872620e+003;5.547249e-002
1.874549e+003;5.553152e-002
1.876477e+003;5.546228e-002
1.878406e+003;5.522826e-002
1.880334e+003;5.539927e-002
1.882263e+003;5.551823e-002
1.884191e+003;5.542705e-002
1.886120e+003;5.535568e-002
1.888048e+003;5.529704e-002
1.889977e+003;5.516064e-002
1.891906e+003;5.507104e-002
1.893834e+003;5.517080e-002
1.895763e+003;5.504734e-002
1.897691e+003;5.473930e-002
1.899620e+003;5.470044e-002
1.901548e+003;5.472577e-002
1.903477e+003;5.487245e-002
1.905405e+003;5.507078e-002
1.907334e+003;5.508357e-002
1.909262e+003;5.498085e-002
1.911191e+003;5.470382e-002
1.913120e+003;5.459218e-002
1.915048e+003;5.483808e-002
1.916977e+003;5.477925e-002
1.918905e+003;5.466530e-002
1.920834e+003;5.482831e-002
1.922762e+003;5.472570e-002
1.924691e+003;5.455874e-002
1.926619e+003;5.454570e-002
1.928548e+003;5.459188e-002
1.930477e+003;5.475813e-002
1.932405e+003;5.495847e-002
1.934334e+003;5.500635e-002
1.936262e+003;5.491704e-002
1.938191e+003;5.475603e-002
1.940119e+003;5.456873e-002
1.942048e+003;5.468691e-002
1.943976e+003;5.500962e-002
1.945905e+003;5.513337e-002
1.947833e+003;5.526592e-002
1.949762e+003;5.549447e-002
1.951691e+003;5.532312e-002
1.953619e+003;5.504858e-002
1.955548e+003;5.498085e-002
1.957476e+003;5.487575e-002
1.959405e+003;5.483335e-002
1.961333e+003;5.492764e-002
1.963262e+003;5.520974e-002
1.965190e+003;5.549730e-002
1.967119e+003;5.562386e-002
1.969047e+003;5.547015e-002
1.970976e+003;5.508436e-002
1.972905e+003;5.507333e-002
1.974833e+003;5.535094e-002
1.976762e+003;5.542630e-002
1.978690e+003;5.544591e-002
1.980619e+003;5.544877e-002
1.982547e+003;5.537160e-002
1.984476e+003;5.530984e-002
1.986404e+003;5.525907e-002
1.988333e+003;5.537111e-002
1.990261e+003;5.553668e-002
1.992190e+003;5.554568e-002
1.994119e+003;5.526660e-002
1.996047e+003;5.519089e-002
1.997976e+003;5.544237e-002
1.999904e+003;5.559863e-002
2.001833e+003;5.559938e-002
2.003761e+003;5.571362e-002
2.005690e+003;5.576478e-002
2.007618e+003;5.560507e-002
2.009547e+003;5.556184e-002
2.011476e+003;5.573381e-002
2.013404e+003;5.581119e-002
2.015333e+003;5.585166e-002
2.017261e+003;5.581696e-002
2.019190e+003;5.592232e-002
2.021118e+003;5.604614e-002
2.023047e+003;5.600806e-002
2.024975e+003;5.595104e-002
2.026904e+003;5.609391e-002
2.028833e+003;5.627212e-002
2.030761e+003;5.621642e-002
2.032690e+003;5.613776e-002
2.034618e+003;5.617158e-002
2.036547e+003;5.626412e-002
2.038475e+003;5.641672e-002
2.040404e+003;5.664320e-002
2.042332e+003;5.649377e-002
2.044261e+003;5.620540e-002
2.046189e+003;5.606853e-002
2.048118e+003;5.618922e-002
2.050047e+003;5.623094e-002
2.051975e+003;5.596065e-002
2.053904e+003;5.587525e-002
2.055832e+003;5.609009e-002
2.057761e+003;5.633659e-002
2.059689e+003;5.632470e-002
2.061618e+003;5.634455e-002
2.063546e+003;5.630811e-002
2.065475e+003;5.597407e-002
2.067404e+003;5.591112e-002
2.069332e+003;5.591632e-002
2.071260e+003;5.582769e-002
2.073189e+003;5.594591e-002
2.075118e+003;5.624085e-002
2.077046e+003;5.626394e-002
2.078975e+003;5.599826e-002
2.080903e+003;5.588501e-002
2.082832e+003;5.587344e-002
2.084760e+003;5.581017e-002
2.086689e+003;5.577246e-002
2.088617e+003;5.579307e-002
2.090546e+003;5.582762e-002
2.092475e+003;5.595205e-002
2.094403e+003;5.594470e-002
2.096332e+003;5.588832e-002
2.098260e+003;5.576798e-002
2.100189e+003;5.566698e-002
2.102117e+003;5.605839e-002
2.104046e+003;5.612803e-002
2.105974e+003;5.578304e-002
2.107903e+003;5.545377e-002
2.109832e+003;5.562141e-002
2.111760e+003;5.595707e-002
2.113688e+003;5.590408e-002
2.115617e+003;5.582645e-002
2.117546e+003;5.584118e-002
2.119474e+003;5.574647e-002
2.121403e+003;5.562619e-002
2.123331e+003;5.566401e-002
2.125260e+003;5.576982e-002
2.127188e+003;5.577871e-002
2.129117e+003;5.584955e-002
2.131045e+003;5.587427e-002
2.132974e+003;5.581548e-002
2.134903e+003;5.607072e-002
2.136831e+003;5.599291e-002
2.138760e+003;5.557400e-002
2.140688e+003;5.546985e-002
2.142617e+003;5.535809e-002
2.144545e+003;5.541944e-002
2.146474e+003;5.553702e-002
2.148402e+003;5.552678e-002
2.150331e+003;5.534330e-002
2.152260e+003;5.514262e-002
2.154188e+003;5.523251e-002
2.156117e+003;5.546853e-002
2.158045e+003;5.532376e-002
2.159974e+003;5.511565e-002
2.161902e+003;5.511215e-002
2.163831e+003;5.493648e-002
2.165759e+003;5.481485e-002
2.167688e+003;5.496036e-002
2.169616e+003;5.517656e-002
2.171545e+003;5.502779e-002
2.173474e+003;5.458155e-002
2.175402e+003;5.472821e-002
2.177331e+003;5.484816e-002
2.179259e+003;5.447178e-002
2.181188e+003;5.425506e-002
2.183116e+003;5.442464e-002
2.185045e+003;5.453432e-002
2.186973e+003;5.442242e-002
2.188902e+003;5.436072e-002
2.190831e+003;5.424958e-002
2.192759e+003;5.421504e-002
2.194688e+003;5.412635e-002
2.196616e+003;5.384705e-002
2.198545e+003;5.392428e-002
2.200473e+003;5.387631e-002
2.202402e+003;5.384056e-002
2.204330e+003;5.382901e-002
2.206259e+003;5.376360e-002
2.208188e+003;5.372817e-002
2.210116e+003;5.363136e-002
2.212044e+003;5.365632e-002
2.213973e+003;5.371418e-002
2.215902e+003;5.363376e-002
2.217830e+003;5.364242e-002
2.219759e+003;5.364088e-002
2.221687e+003;5.362772e-002
2.223616e+003;5.350159e-002
2.225544e+003;5.359155e-002
2.227473e+003;5.387398e-002
2.229401e+003;5.387552e-002
2.231330e+003;5.376229e-002
2.233259e+003;5.358353e-002
2.235187e+003;5.353420e-002
2.237116e+003;5.382488e-002
2.239044e+003;5.388782e-002
2.240973e+003;5.354079e-002
2.242901e+003;5.337486e-002
2.244830e+003;5.333668e-002
2.246758e+003;5.318494e-002
2.248687e+003;5.304295e-002
2.250615e+003;5.305081e-002
2.252544e+003;5.315569e-002
2.254473e+003;5.318569e-002
2.256401e+003;5.311480e-002
2.258330e+003;5.294596e-002
2.260258e+003;5.285546e-002
2.262187e+003;5.297523e-002
2.264115e+003;5.286403e-002
2.266044e+003;5.259340e-002
2.267972e+003;5.252022e-002
2.269901e+003;5.249501e-002
2.271830e+003;5.262766e-002
2.273758e+003;5.270083e-002
2.275687e+003;5.253801e-002
2.277615e+003;5.236166e-002
2.279544e+003;5.234054e-002
2.281472e+003;5.241407e-002
2.283401e+003;5.215504e-002
2.285329e+003;5.179621e-002
2.287258e+003;5.175395e-002
2.289187e+003;5.210456e-002
2.291115e+003;5.244569e-002
2.293043e+003;5.235205e-002
2.294972e+003;5.210064e-002
2.296901e+003;5.215332e-002
2.298829e+003;5.236955e-002
2.300758e+003;5.239994e-002
2.302686e+003;5.203766e-002
2.304615e+003;5.200124e-002
2.306543e+003;5.224860e-002
2.308472e+003;5.246809e-002
2.310400e+003;5.231393e-002
2.312329e+003;5.206414e-002
2.314258e+003;5.214285e-002
2.316186e+003;5.211114e-002
2.318115e+003;5.199534e-002
2.320043e+003;5.197678e-002
2.321972e+003;5.173178e-002
2.323900e+003;5.140661e-002
2.325829e+003;5.130897e-002
2.327757e+003;5.152952e-002
2.329686e+003;5.181047e-002
2.331615e+003;5.201058e-002
2.333543e+003;5.195960e-002
2.335472e+003;5.198261e-002
2.337400e+003;5.236110e-002
2.339329e+003;5.261337e-002
2.341257e+003;5.246745e-002
2.343186e+003;5.225996e-002
2.345114e+003;5.215840e-002
2.347043e+003;5.231834e-002
2.348971e+003;5.245048e-002
2.350900e+003;5.254265e-002
2.352829e+003;5.251371e-002
2.354757e+003;5.227764e-002
2.356686e+003;5.201954e-002
2.358614e+003;5.199381e-002
2.360543e+003;5.226665e-002
2.362471e+003;5.260858e-002
2.364400e+003;5.267875e-002
2.366328e+003;5.261124e-002
2.368257e+003;5.238274e-002
2.370186e+003;5.239556e-002
2.372114e+003;5.270606e-002
2.374042e+003;5.267629e-002
2.375971e+003;5.241773e-002
2.377900e+003;5.238128e-002
2.379828e+003;5.254613e-002
2.381757e+003;5.275960e-002
2.383685e+003;5.276944e-002
2.385614e+003;5.286351e-002
2.387542e+003;5.286579e-002
2.389471e+003;5.293383e-002
2.391399e+003;5.296591e-002
2.393328e+003;5.271717e-002
2.395257e+003;5.275574e-002
2.397185e+003;5.279166e-002
2.399114e+003;5.257291e-002
2.401042e+003;5.231744e-002
2.402971e+003;5.249744e-002
2.404899e+003;5.286089e-002
2.406828e+003;5.281524e-002
2.408756e+003;5.271197e-002
2.410685e+003;5.288491e-002
2.412614e+003;5.293582e-002
2.414542e+003;5.294779e-002
2.416471e+003;5.329866e-002
2.418399e+003;5.345092e-002
2.420328e+003;5.340071e-002
2.422256e+003;5.346359e-002
2.424185e+003;5.350946e-002
2.426113e+003;5.359945e-002
2.428042e+003;5.363638e-002
2.429970e+003;5.360763e-002
2.431899e+003;5.381967e-002
2.433828e+003;5.373030e-002
2.435756e+003;5.338617e-002
2.437685e+003;5.325157e-002
2.439613e+003;5.334590e-002
2.441542e+003;5.344088e-002
2.443470e+003;5.358390e-002
2.445399e+003;5.391483e-002
2.447327e+003;5.393802e-002
2.449256e+003;5.398386e-002
2.451185e+003;5.417972e-002
2.453113e+003;5.417724e-002
2.455042e+003;5.419748e-002
2.456970e+003;5.410469e-002
2.458899e+003;5.387094e-002
2.460827e+003;5.406007e-002
2.462756e+003;5.437026e-002
2.464684e+003;5.417582e-002
2.466613e+003;5.402059e-002
2.468542e+003;5.411062e-002
2.470470e+003;5.434458e-002
2.472398e+003;5.437079e-002
2.474327e+003;5.440635e-002
2.476256e+003;5.451310e-002
2.478184e+003;5.455502e-002
2.480113e+003;5.444192e-002
2.482041e+003;5.448030e-002
2.483970e+003;5.483387e-002
2.485898e+003;5.502681e-002
2.487827e+003;5.474994e-002
2.489755e+003;5.467365e-002
2.491684e+003;5.478515e-002
2.493613e+003;5.484635e-002
2.495541e+003;5.499871e-002
2.497470e+003;5.495712e-002
2.499398e+003;5.505547e-002
2.501327e+003;5.509387e-002
2.503255e+003;5.480162e-002
2.505184e+003;5.468259e-002
2.507112e+003;5.481944e-002
2.509041e+003;5.477238e-002
2.510969e+003;5.476926e-002
2.512898e+003;5.494381e-002
2.514827e+003;5.532098e-002
2.516755e+003;5.564555e-002
2.518684e+003;5.570894e-002
2.520612e+003;5.543172e-002
2.522541e+003;5.523499e-002
2.524469e+003;5.515463e-002
2.526398e+003;5.533814e-002
2.528326e+003;5.549244e-002
2.530255e+003;5.544451e-002
2.532184e+003;5.546274e-002
2.534112e+003;5.531055e-002
2.536041e+003;5.535244e-002
2.537969e+003;5.543947e-002
2.539898e+003;5.532365e-002
2.541826e+003;5.520613e-002
2.543755e+003;5.509903e-002
2.545683e+003;5.511772e-002
2.547612e+003;5.530686e-002
2.549541e+003;5.529772e-002
2.551469e+003;5.540796e-002
2.553397e+003;5.559513e-002
2.555326e+003;5.575144e-002
2.557255e+003;5.574756e-002
2.559183e+003;5.567621e-002
2.561112e+003;5.571015e-002
2.563040e+003;5.566744e-002
2.564969e+003;5.552994e-002
2.566897e+003;5.521923e-002
2.568826e+003;5.495314e-002
2.570754e+003;5.516079e-002
2.572683e+003;5.561877e-002
2.574612e+003;5.563015e-002
2.576540e+003;5.557426e-002
2.578469e+003;5.578723e-002
2.580397e+003;5.572077e-002
2.582326e+003;5.594214e-002
2.584254e+003;5.612889e-002
2.586183e+003;5.572492e-002
2.588111e+003;5.534540e-002
2.590040e+003;5.559637e-002
2.591969e+003;5.595522e-002
2.593897e+003;5.564646e-002
2.595826e+003;5.561908e-002
2.597754e+003;5.572718e-002
2.599683e+003;5.548841e-002
2.601611e+003;5.564676e-002
2.603540e+003;5.590215e-002
2.605468e+003;5.584450e-002
2.607397e+003;5.569267e-002
2.609325e+003;5.568469e-002
2.611254e+003;5.597425e-002
2.613183e+003;5.601010e-002
2.615111e+003;5.596027e-002
2.617040e+003;5.593151e-002
2.618968e+003;5.599027e-002
2.620897e+003;5.620654e-002
2.622825e+003;5.620940e-002
2.624754e+003;5.622309e-002
2.626682e+003;5.644724e-002
2.628611e+003;5.637725e-002
2.630540e+003;5.620039e-002
2.632468e+003;5.632931e-002
2.634396e+003;5.656197e-002
2.636325e+003;5.665313e-002
2.638254e+003;5.659303e-002
2.640182e+003;5.674536e-002
2.642111e+003;5.716231e-002
2.644039e+003;5.712610e-002
2.645968e+003;5.713861e-002
2.647896e+003;5.715709e-002
2.649825e+003;5.707913e-002
2.651753e+003;5.715611e-002
2.653682e+003;5.763568e-002
2.655611e+003;5.766872e-002
2.657539e+003;5.734384e-002
2.659468e+003;5.727907e-002
2.661396e+003;5.722751e-002
2.663325e+003;5.735488e-002
2.665253e+003;5.755816e-002
2.667182e+003;5.778895e-002
2.669110e+003;5.793557e-002
2.671039e+003;5.777256e-002
2.672968e+003;5.766081e-002
2.674896e+003;5.776109e-002
2.676825e+003;5.801899e-002
2.678753e+003;5.851369e-002
2.680682e+003;5.844462e-002
2.682610e+003;5.815337e-002
2.684539e+003;5.833016e-002
2.686467e+003;5.847036e-002
2.688396e+003;5.855862e-002
2.690324e+003;5.863162e-002
2.692253e+003;5.860940e-002
2.694182e+003;5.848860e-002
2.696110e+003;5.833592e-002
2.698039e+003;5.857125e-002
2.699967e+003;5.907901e-002
2.701896e+003;5.939728e-002
2.703824e+003;5.946787e-002
2.705753e+003;5.953855e-002
2.707681e+003;5.930038e-002
2.709610e+003;5.898540e-002
2.711539e+003;5.920586e-002
2.713467e+003;5.946198e-002
2.715396e+003;5.929628e-002
2.717324e+003;5.913781e-002
2.719253e+003;5.951195e-002
2.721181e+003;5.968253e-002
2.723110e+003;5.965212e-002
2.725038e+003;5.991156e-002
2.726967e+003;6.027674e-002
2.728896e+003;6.033723e-002
2.730824e+003;6.012229e-002
2.732752e+003;5.998094e-002
2.734681e+003;6.005018e-002
2.736610e+003;6.025629e-002
2.738538e+003;6.067575e-002
2.740467e+003;6.070570e-002
2.742395e+003;6.033289e-002
2.744324e+003;6.038619e-002
2.746252e+003;6.037005e-002
2.748181e+003;6.019680e-002
2.750109e+003;6.038433e-002
2.752038e+003;6.061955e-002
2.753967e+003;6.059109e-002
2.755895e+003;6.071804e-002
2.757824e+003;6.108497e-002
2.759752e+003;6.133923e-002
2.761681e+003;6.128730e-002
2.763609e+003;6.136530e-002
2.765538e+003;6.149877e-002
2.767466e+003;6.105492e-002
2.769395e+003;6.067099e-002
2.771323e+003;6.089097e-002
2.773252e+003;6.153202e-002
2.775181e+003;6.174576e-002
2.777109e+003;6.179614e-002
2.779038e+003;6.189436e-002
2.780966e+003;6.169568e-002
2.782895e+003;6.180558e-002
2.784823e+003;6.233419e-002
2.786752e+003;6.253702e-002
2.788680e+003;6.222546e-002
2.790609e+003;6.217713e-002
2.792538e+003;6.272423e-002
2.794466e+003;6.286168e-002
2.796395e+003;6.301044e-002
2.798323e+003;6.336182e-002
2.800252e+003;6.341887e-002
2.802180e+003;6.336109e-002
2.804109e+003;6.338805e-002
2.806037e+003;6.355064e-002
2.807966e+003;6.409183e-002
2.809895e+003;6.471013e-002
2.811823e+003;6.517068e-002
2.813751e+003;6.551353e-002
2.815680e+003;6.602550e-002
2.817609e+003;6.660663e-002
2.819537e+003;6.689820e-002
2.821466e+003;6.667979e-002
2.823394e+003;6.650559e-002
2.825323e+003;6.669115e-002
2.827251e+003;6.729367e-002
2.829180e+003;6.788463e-002
2.831108e+003;6.828256e-002
2.833037e+003;6.883616e-002
2.834966e+003;6.980993e-002
2.836894e+003;7.046597e-002
2.838823e+003;7.106858e-002
2.840751e+003;7.216112e-002
2.842680e+003;7.338310e-002
2.844608e+003;7.488457e-002
2.846537e+003;7.648952e-002
2.848465e+003;7.811841e-002
2.850394e+003;7.933040e-002
2.852323e+003;7.955530e-002
2.854251e+003;7.882500e-002
2.856180e+003;7.801415e-002
2.858108e+003;7.804929e-002
2.860037e+003;7.867335e-002
2.861965e+003;7.888285e-002
2.863894e+003;7.881817e-002
2.865822e+003;7.944036e-002
2.867751e+003;8.020449e-002
2.869679e+003;8.033571e-002
2.871608e+003;8.053689e-002
2.873536e+003;8.055324e-002
2.875465e+003;8.042526e-002
2.877394e+003;8.055216e-002
2.879322e+003;8.114416e-002
2.881251e+003;8.166842e-002
2.883179e+003;8.171017e-002
2.885108e+003;8.206022e-002
2.887036e+003;8.267299e-002
2.888965e+003;8.281583e-002
2.890893e+003;8.298073e-002
2.892822e+003;8.338623e-002
2.894750e+003;8.389199e-002
2.896679e+003;8.436365e-002
2.898608e+003;8.432417e-002
2.900536e+003;8.389098e-002
2.902465e+003;8.402155e-002
2.904393e+003;8.407632e-002
2.906322e+003;8.397588e-002
2.908250e+003;8.416942e-002
2.910179e+003;8.497521e-002
2.912107e+003;8.581020e-002
2.914036e+003;8.632820e-002
2.915965e+003;8.666293e-002
2.917893e+003;8.637173e-002
2.919822e+003;8.507370e-002
2.921750e+003;8.354545e-002
2.923679e+003;8.264326e-002
2.925607e+003;8.103797e-002
2.927536e+003;7.919901e-002
2.929464e+003;7.783717e-002
2.931393e+003;7.707469e-002
2.933322e+003;7.681999e-002
2.935250e+003;7.586866e-002
2.937178e+003;7.449333e-002
2.939107e+003;7.413032e-002
2.941036e+003;7.405471e-002
2.942964e+003;7.336348e-002
2.944893e+003;7.244878e-002
2.946821e+003;7.162391e-002
2.948750e+003;7.085220e-002
2.950678e+003;7.037998e-002
2.952607e+003;7.001971e-002
2.954535e+003;6.930884e-002
2.956464e+003;6.883981e-002
2.958393e+003;6.853448e-002
2.960321e+003;6.783637e-002
2.962250e+003;6.687523e-002
2.964178e+003;6.629958e-002
2.966107e+003;6.604108e-002
2.968035e+003;6.573293e-002
2.969964e+003;6.512075e-002
2.971892e+003;6.446127e-002
2.973821e+003;6.379572e-002
2.975750e+003;6.323341e-002
2.977678e+003;6.294934e-002
2.979607e+003;6.264342e-002
2.981535e+003;6.209161e-002
2.983464e+003;6.154428e-002
2.985392e+003;6.096024e-002
2.987321e+003;6.062473e-002
2.989249e+003;6.072121e-002
2.991178e+003;6.089939e-002
2.993106e+003;6.084579e-002
2.995035e+003;6.110270e-002
2.996964e+003;6.093504e-002
2.998892e+003;6.036620e-002
3.000821e+003;6.022029e-002
3.002749e+003;6.046936e-002
3.004678e+003;6.075322e-002
3.006606e+003;6.077330e-002
3.008535e+003;6.062957e-002
3.010463e+003;6.051198e-002
3.012392e+003;6.023372e-002
3.014321e+003;6.029505e-002
3.016249e+003;6.066398e-002
3.018177e+003;6.080097e-002
3.020106e+003;6.064279e-002
3.022035e+003;6.060831e-002
3.023963e+003;6.115625e-002
3.025892e+003;6.130054e-002
3.027820e+003;6.138057e-002
3.029749e+003;6.163901e-002
3.031677e+003;6.195921e-002
3.033606e+003;6.243624e-002
3.035534e+003;6.254242e-002
3.037463e+003;6.229101e-002
3.039392e+003;6.203932e-002
3.041320e+003;6.207922e-002
3.043249e+003;6.234880e-002
3.045177e+003;6.261249e-002
3.047106e+003;6.272763e-002
3.049034e+003;6.273735e-002
3.050963e+003;6.287588e-002
3.052891e+003;6.312208e-002
3.054820e+003;6.288883e-002
3.056749e+003;6.297271e-002
3.058677e+003;6.370283e-002
3.060606e+003;6.434117e-002
3.062534e+003;6.444363e-002
3.064463e+003;6.417809e-002
3.066391e+003;6.396485e-002
3.068320e+003;6.405470e-002
3.070248e+003;6.429268e-002
3.072177e+003;6.445400e-002
3.074105e+003;6.474060e-002
3.076034e+003;6.496322e-002
3.077963e+003;6.533202e-002
3.079891e+003;6.574276e-002
3.081820e+003;6.640798e-002
3.083748e+003;6.665251e-002
3.085677e+003;6.680791e-002
3.087605e+003;6.689283e-002
3.089534e+003;6.672472e-002
3.091462e+003;6.689240e-002
3.093391e+003;6.721731e-002
3.095320e+003;6.736157e-002
3.097248e+003;6.732713e-002
3.099177e+003;6.730369e-002
3.101105e+003;6.750101e-002
3.103034e+003;6.764862e-002
3.104962e+003;6.781103e-002
3.106891e+003;6.825274e-002
3.108819e+003;6.874245e-002
3.110748e+003;6.887487e-002
3.112677e+003;6.891840e-002
3.114605e+003;6.931233e-002
3.116533e+003;6.958916e-002
3.118462e+003;6.952826e-002
3.120391e+003;6.998460e-002
3.122319e+003;7.051964e-002
3.124248e+003;7.058583e-002
3.126176e+003;7.068411e-002
3.128105e+003;7.097668e-002
3.130033e+003;7.095116e-002
3.131962e+003;7.106502e-002
3.133890e+003;7.153404e-002
3.135819e+003;7.193185e-002
3.137748e+003;7.236857e-002
3.139676e+003;7.293399e-002
3.141605e+003;7.328832e-002
3.143533e+003;7.329911e-002
3.145462e+003;7.327479e-002
3.147390e+003;7.360600e-002
3.149319e+003;7.423652e-002
3.151247e+003;7.478289e-002
3.153176e+003;7.510509e-002
3.155104e+003;7.522383e-002
3.157033e+003;7.503010e-002
3.158962e+003;7.549594e-002
3.160890e+003;7.639512e-002
3.162819e+003;7.668456e-002
3.164747e+003;7.667752e-002
3.166676e+003;7.711426e-002
3.168604e+003;7.802252e-002
3.170533e+003;7.823710e-002
3.172461e+003;7.824278e-002
3.174390e+003;7.896122e-002
3.176319e+003;7.945547e-002
3.178247e+003;7.990417e-002
3.180176e+003;8.017926e-002
3.182104e+003;8.024140e-002
3.184033e+003;8.027349e-002
3.185961e+003;8.101737e-002
3.187890e+003;8.192187e-002
3.189818e+003;8.208211e-002
3.191747e+003;8.182045e-002
3.193676e+003;8.214392e-002
3.195604e+003;8.292037e-002
3.197532e+003;8.329924e-002
3.199461e+003;8.365402e-002
3.201390e+003;8.419110e-002
3.203318e+003;8.447689e-002
3.205247e+003;8.499561e-002
3.207175e+003;8.558457e-002
3.209104e+003;8.567384e-002
3.211032e+003;8.628241e-002
3.212961e+003;8.758792e-002
3.214889e+003;8.813991e-002
3.216818e+003;8.865867e-002
3.218747e+003;8.921313e-002
3.220675e+003;8.953400e-002
3.222604e+003;9.007441e-002
3.224532e+003;9.072752e-002
3.226461e+003;9.100412e-002
3.228389e+003;9.144945e-002
3.230318e+003;9.188820e-002
3.232246e+003;9.219500e-002
3.234175e+003;9.257923e-002
3.236104e+003;9.325337e-002
3.238032e+003;9.408226e-002
3.239961e+003;9.488945e-002
3.241889e+003;9.585527e-002
3.243818e+003;9.672839e-002
3.245746e+003;9.726776e-002
3.247675e+003;9.792551e-002
3.249603e+003;9.819673e-002
3.251532e+003;9.841233e-002
3.253460e+003;9.940641e-002
3.255389e+003;1.003832e-001
3.257318e+003;1.009891e-001
3.259246e+003;1.013944e-001
3.261175e+003;1.022905e-001
3.263103e+003;1.031920e-001
3.265032e+003;1.037561e-001
3.266960e+003;1.042475e-001
3.268889e+003;1.051563e-001
3.270817e+003;1.058810e-001
3.272746e+003;1.065657e-001
3.274675e+003;1.066984e-001
3.276603e+003;1.068827e-001
3.278531e+003;1.072157e-001
3.280460e+003;1.075622e-001
3.282389e+003;1.080259e-001
3.284317e+003;1.086416e-001
3.286246e+003;1.086805e-001
3.288174e+003;1.086092e-001
3.290103e+003;1.086605e-001
3.292031e+003;1.083563e-001
3.293960e+003;1.085352e-001
3.295888e+003;1.091956e-001
3.297817e+003;1.088891e-001
3.299746e+003;1.077821e-001
3.301674e+003;1.073519e-001
3.303603e+003;1.079885e-001
3.305531e+003;1.090288e-001
3.307460e+003;1.097567e-001
3.309388e+003;1.094521e-001
3.311317e+003;1.087654e-001
3.313245e+003;1.087632e-001
3.315174e+003;1.089814e-001
3.317103e+003;1.090936e-001
3.319031e+003;1.094218e-001
3.320960e+003;1.099436e-001
3.322888e+003;1.104927e-001
3.324817e+003;1.109424e-001
3.326745e+003;1.111033e-001
3.328674e+003;1.118690e-001
3.330602e+003;1.123902e-001
3.332531e+003;1.117134e-001
3.334459e+003;1.114181e-001
3.336388e+003;1.119235e-001
3.338317e+003;1.120896e-001
3.340245e+003;1.117728e-001
3.342174e+003;1.110918e-001
3.344102e+003;1.104415e-001
3.346031e+003;1.102798e-001
3.347959e+003;1.099773e-001
3.349888e+003;1.093055e-001
3.351816e+003;1.086053e-001
3.353745e+003;1.081569e-001
3.355674e+003;1.076788e-001
3.357602e+003;1.070572e-001
3.359531e+003;1.058387e-001
3.361459e+003;1.047123e-001
3.363388e+003;1.044656e-001
3.365316e+003;1.040919e-001
3.367245e+003;1.035940e-001
3.369173e+003;1.032647e-001
3.371102e+003;1.028269e-001
3.373031e+003;1.023914e-001
3.374959e+003;1.015887e-001
3.376887e+003;1.011429e-001
3.378816e+003;1.008024e-001
3.380745e+003;9.996588e-002
3.382673e+003;9.959549e-002
3.384602e+003;9.942457e-002
3.386530e+003;9.861283e-002
3.388459e+003;9.815142e-002
3.390387e+003;9.808704e-002
3.392316e+003;9.761974e-002
3.394244e+003;9.721280e-002
3.396173e+003;9.668795e-002
3.398102e+003;9.596002e-002
3.400030e+003;9.490874e-002
3.401959e+003;9.410736e-002
3.403887e+003;9.371594e-002
3.405816e+003;9.367590e-002
3.407744e+003;9.394723e-002
3.409673e+003;9.379140e-002
3.411601e+003;9.274243e-002
3.413530e+003;9.208944e-002
3.415458e+003;9.155875e-002
3.417387e+003;9.088728e-002
3.419316e+003;9.024151e-002
3.421244e+003;8.932829e-002
3.423173e+003;8.841231e-002
3.425101e+003;8.761407e-002
3.427030e+003;8.678532e-002
3.428958e+003;8.644269e-002
3.430887e+003;8.592092e-002
3.432815e+003;8.498702e-002
3.434744e+003;8.397226e-002
3.436673e+003;8.345509e-002
3.438601e+003;8.361638e-002
3.440530e+003;8.358943e-002
3.442458e+003;8.323129e-002
3.444387e+003;8.295133e-002
3.446315e+003;8.254568e-002
3.448244e+003;8.195084e-002
3.450172e+003;8.104939e-002
3.452101e+003;7.991656e-002
3.454030e+003;7.921416e-002
3.455958e+003;7.931577e-002
3.457886e+003;7.910419e-002
3.459815e+003;7.804084e-002
3.461744e+003;7.728434e-002
3.463672e+003;7.669425e-002
3.465601e+003;7.576880e-002
3.467529e+003;7.509033e-002
3.469458e+003;7.524156e-002
3.471386e+003;7.508087e-002
3.473315e+003;7.469583e-002
3.475243e+003;7.430634e-002
3.477172e+003;7.329130e-002
3.479101e+003;7.249411e-002
3.481029e+003;7.164548e-002
3.482958e+003;7.056104e-002
3.484886e+003;7.019128e-002
3.486815e+003;7.005943e-002
3.488743e+003;6.966116e-002
3.490672e+003;6.878398e-002
3.492600e+003;6.841759e-002
3.494529e+003;6.819773e-002
3.496458e+003;6.730176e-002
3.498386e+003;6.620248e-002
3.500315e+003;6.581941e-002
3.502243e+003;6.570834e-002
3.504172e+003;6.532994e-002
3.506100e+003;6.475540e-002
3.508029e+003;6.408215e-002
3.509957e+003;6.325242e-002
3.511886e+003;6.291445e-002
3.513814e+003;6.252930e-002
3.515743e+003;6.208744e-002
3.517672e+003;6.164096e-002
3.519600e+003;6.120863e-002
3.521529e+003;6.032592e-002
3.523457e+003;5.994161e-002
3.525386e+003;6.042503e-002
3.527314e+003;5.994659e-002
3.529243e+003;5.902882e-002
3.531171e+003;5.862294e-002
3.533100e+003;5.850653e-002
3.535029e+003;5.802326e-002
3.536957e+003;5.712814e-002
3.538885e+003;5.657491e-002
3.540814e+003;5.616871e-002
3.542743e+003;5.603110e-002
3.544671e+003;5.618044e-002
3.546600e+003;5.571030e-002
3.548528e+003;5.490358e-002
3.550457e+003;5.440259e-002
3.552385e+003;5.445503e-002
3.554314e+003;5.388917e-002
3.556242e+003;5.304235e-002
3.558171e+003;5.300057e-002
3.560100e+003;5.273764e-002
3.562028e+003;5.220880e-002
3.563957e+003;5.188712e-002
3.565885e+003;5.113245e-002
3.567814e+003;5.054801e-002
3.569742e+003;5.080556e-002
3.571671e+003;5.015819e-002
3.573599e+003;4.879703e-002
3.575528e+003;4.832319e-002
3.577457e+003;4.859028e-002
3.579385e+003;4.844464e-002
3.581314e+003;4.782389e-002
3.583242e+003;4.774041e-002
3.585171e+003;4.797366e-002
3.587099e+003;4.745753e-002
3.589028e+003;4.694978e-002
3.590956e+003;4.694243e-002
3.592885e+003;4.650166e-002
3.594813e+003;4.565869e-002
3.596742e+003;4.543533e-002
3.598671e+003;4.535889e-002
3.600599e+003;4.511109e-002
3.602528e+003;4.458668e-002
3.604456e+003;4.389926e-002
3.606385e+003;4.449119e-002
3.608313e+003;4.500089e-002
3.610242e+003;4.427360e-002
3.612170e+003;4.313371e-002
3.614099e+003;4.314501e-002
3.616028e+003;4.355481e-002
3.617956e+003;4.346417e-002
3.619885e+003;4.337928e-002
3.621813e+003;4.328197e-002
3.623742e+003;4.279513e-002
3.625670e+003;4.239645e-002
3.627599e+003;4.189644e-002
3.629527e+003;4.176065e-002
3.631456e+003;4.180267e-002
3.633385e+003;4.101556e-002
3.635313e+003;4.019298e-002
3.637241e+003;4.022893e-002
3.639170e+003;3.996925e-002
3.641099e+003;4.005928e-002
3.643027e+003;4.059967e-002
3.644956e+003;4.065363e-002
3.646884e+003;3.994113e-002
3.648813e+003;3.861610e-002
3.650741e+003;3.856268e-002
3.652670e+003;3.914846e-002
3.654598e+003;3.925682e-002
3.656527e+003;3.871835e-002
3.658456e+003;3.846934e-002
3.660384e+003;3.863511e-002
3.662313e+003;3.879851e-002
3.664241e+003;3.801979e-002
3.666170e+003;3.709772e-002
3.668098e+003;3.699102e-002
3.670027e+003;3.713049e-002
3.671955e+003;3.732431e-002
3.673884e+003;3.715940e-002
3.675813e+003;3.676742e-002
3.677741e+003;3.727993e-002
3.679669e+003;3.731972e-002
3.681598e+003;3.734677e-002
3.683527e+003;3.726852e-002
3.685455e+003;3.706304e-002
3.687384e+003;3.675984e-002
3.689312e+003;3.664742e-002
3.691241e+003;3.644753e-002
3.693169e+003;3.583558e-002
3.695098e+003;3.559474e-002
3.697026e+003;3.604693e-002
3.698955e+003;3.609708e-002
3.700884e+003;3.544446e-002
3.702812e+003;3.561631e-002
3.704741e+003;3.587153e-002
3.706669e+003;3.578063e-002
3.708598e+003;3.635478e-002
3.710526e+003;3.688524e-002
3.712455e+003;3.630150e-002
3.714383e+003;3.542954e-002
3.716312e+003;3.484337e-002
3.718240e+003;3.471364e-002
3.720169e+003;3.526704e-002
3.722098e+003;3.516992e-002
3.724026e+003;3.471566e-002
3.725955e+003;3.508901e-002
3.727883e+003;3.516299e-002
3.729812e+003;3.524609e-002
3.731740e+003;3.513611e-002
3.733669e+003;3.523136e-002
3.735597e+003;3.500051e-002
3.737526e+003;3.451353e-002
3.739455e+003;3.420199e-002
3.741383e+003;3.391401e-002
3.743312e+003;3.444426e-002
3.745240e+003;3.502148e-002
3.747169e+003;3.468644e-002
3.749097e+003;3.369646e-002
3.751026e+003;3.388621e-002
3.752954e+003;3.499304e-002
3.754883e+003;3.533882e-002
3.756812e+003;3.469172e-002
3.758740e+003;3.431066e-002
3.760668e+003;3.487271e-002
3.762597e+003;3.533612e-002
3.764526e+003;3.542430e-002
3.766454e+003;3.492413e-002
3.768383e+003;3.420515e-002
3.770311e+003;3.433968e-002
3.772240e+003;3.471329e-002
3.774168e+003;3.476845e-002
3.776097e+003;3.472954e-002
3.778025e+003;3.441456e-002
3.779954e+003;3.431640e-002
3.781883e+003;3.466279e-002
3.783811e+003;3.524369e-002
3.785740e+003;3.547794e-002
3.787668e+003;3.565929e-002
3.789597e+003;3.573919e-002
3.791525e+003;3.542286e-002
3.793454e+003;3.537109e-002
3.795382e+003;3.597958e-002
3.797311e+003;3.563340e-002
3.799240e+003;3.462866e-002
3.801168e+003;3.466925e-002
3.803097e+003;3.453225e-002
3.805025e+003;3.448877e-002
3.806954e+003;3.431845e-002
3.808882e+003;3.418855e-002
3.810811e+003;3.471594e-002
3.812739e+003;3.529364e-002
3.814668e+003;3.558718e-002
3.816596e+003;3.552540e-002
3.818525e+003;3.545694e-002
3.820454e+003;3.573678e-002
3.822382e+003;3.532322e-002
3.824311e+003;3.472578e-002
3.826239e+003;3.473949e-002
3.828168e+003;3.551656e-002
3.830096e+003;3.624805e-002
3.832025e+003;3.613586e-002
3.833953e+003;3.603793e-002
3.835882e+003;3.589190e-002
3.837811e+003;3.633017e-002
3.839739e+003;3.706939e-002
3.841667e+003;3.651099e-002
3.843596e+003;3.537617e-002
3.845525e+003;3.510126e-002
3.847453e+003;3.556301e-002
3.849382e+003;3.598742e-002
3.851310e+003;3.599628e-002
3.853239e+003;3.565983e-002
3.855167e+003;3.561984e-002
3.857096e+003;3.558812e-002
3.859024e+003;3.589161e-002
3.860953e+003;3.655445e-002
3.862882e+003;3.725856e-002
3.864810e+003;3.708065e-002
3.866739e+003;3.624405e-002
3.868667e+003;3.610868e-002
3.870596e+003;3.626382e-002
3.872524e+003;3.616139e-002
3.874453e+003;3.574552e-002
3.876381e+003;3.544400e-002
3.878310e+003;3.598228e-002
3.880239e+003;3.644046e-002
3.882167e+003;3.607447e-002
3.884096e+003;3.571455e-002
3.886024e+003;3.595838e-002
3.887953e+003;3.658523e-002
3.889881e+003;3.613028e-002
3.891810e+003;3.576542e-002
3.893738e+003;3.602014e-002
3.895667e+003;3.593919e-002
3.897595e+003;3.623645e-002
3.899524e+003;3.646071e-002
3.901453e+003;3.595344e-002
3.903381e+003;3.609337e-002
3.905310e+003;3.629995e-002
3.907238e+003;3.637611e-002
3.909167e+003;3.649826e-002
3.911095e+003;3.589456e-002
3.913024e+003;3.617605e-002
3.914952e+003;3.695847e-002
3.916881e+003;3.616269e-002
3.918810e+003;3.562473e-002
3.920738e+003;3.637888e-002
3.922667e+003;3.656804e-002
3.924595e+003;3.652216e-002
3.926524e+003;3.668066e-002
3.928452e+003;3.669843e-002
3.930381e+003;3.647322e-002
3.932309e+003;3.700379e-002
3.934238e+003;3.738663e-002
3.936167e+003;3.650169e-002
3.938095e+003;3.654876e-002
3.940023e+003;3.684394e-002
3.941952e+003;3.690642e-002
3.943881e+003;3.747909e-002
3.945809e+003;3.796576e-002
3.947738e+003;3.755004e-002
3.949666e+003;3.669223e-002
3.951595e+003;3.617076e-002
3.953523e+003;3.658267e-002
3.955452e+003;3.684365e-002
3.957380e+003;3.676723e-002
3.959309e+003;3.698301e-002
3.961238e+003;3.680727e-002
3.963166e+003;3.665575e-002
3.965095e+003;3.718463e-002
3.967023e+003;3.793387e-002
3.968952e+003;3.813753e-002
3.970880e+003;3.732402e-002
3.972809e+003;3.657867e-002
3.974737e+003;3.653427e-002
3.976666e+003;3.698849e-002
3.978594e+003;3.744644e-002
3.980523e+003;3.768691e-002
3.982452e+003;3.744037e-002
3.984380e+003;3.745991e-002
3.986309e+003;3.785509e-002
3.988237e+003;3.802992e-002
3.990166e+003;3.757273e-002
3.992094e+003;3.767043e-002
3.994023e+003;3.796193e-002
3.995951e+003;3.785516e-002
3.997880e+003;3.727166e-002
3.999809e+003;3.697359e-002
4.001737e+003;0.000000e+000
