3.992094e+002;0.000000e+000
4.011380e+002;0.000000e+000
4.030665e+002;0.000000e+000
4.049951e+002;0.000000e+000
4.069236e+002;0.000000e+000
4.088522e+002;0.000000e+000
4.107807e+002;0.000000e+000
4.127093e+002;0.000000e+000
4.146378e+002;0.000000e+000
4.165664e+002;0.000000e+000
4.184949e+002;0.000000e+000
4.204235e+002;0.000000e+000
4.223520e+002;0.000000e+000
4.242806e+002;0.000000e+000
4.262091e+002;0.000000e+000
4.281377e+002;0.000000e+000
4.300662e+002;0.000000e+000
4.319948e+002;0.000000e+000
4.339233e+002;0.000000e+000
4.358519e+002;0.000000e+000
4.377804e+002;0.000000e+000
4.397090e+002;0.000000e+000
4.416375e+002;0.000000e+000
4.435660e+002;0.000000e+000
4.454946e+002;0.000000e+000
4.474232e+002;0.000000e+000
4.493517e+002;0.000000e+000
4.512802e+002;0.000000e+000
4.532088e+002;0.000000e+000
4.551373e+002;0.000000e+000
4.570659e+002;0.000000e+000
4.589944e+002;0.000000e+000
4.609230e+002;0.000000e+000
4.628515e+002;0.000000e+000
4.647801e+002;0.000000e+000
4.667086e+002;0.000000e+000
4.686372e+002;0.000000e+000
4.705657e+002;0.000000e+000
4.724943e+002;0.000000e+000
4.744228e+002;0.000000e+000
4.763513e+002;0.000000e+000
4.782799e+002;0.000000e+000
4.802085e+002;0.000000e+000
4.821370e+002;0.000000e+000
4.840656e+002;0.000000e+000
4.859941e+002;0.000000e+000
4.879226e+002;0.000000e+000
4.898512e+002;0.000000e+000
4.917798e+002;0.000000e+000
4.937083e+002;0.000000e+000
4.956368e+002;0.000000e+000
4.975654e+002;0.000000e+000
4.994939e+002;0.000000e+000
5.014225e+002;0.000000e+000
5.033510e+002;0.000000e+000
5.052796e+002;0.000000e+000
5.072081e+002;0.000000e+000
5.091367e+002;0.000000e+000
5.110652e+002;0.000000e+000
5.129938e+002;0.000000e+000
5.149223e+002;0.000000e+000
5.168509e+002;0.000000e+000
5.187794e+002;0.000000e+000
5.207079e+002;0.000000e+000
5.226365e+002;0.000000e+000
5.245651e+002;0.000000e+000
5.264936e+002;0.000000e+000
5.284222e+002;0.000000e+000
5.303507e+002;0.000000e+000
5.322792e+002;0.000000e+000
5.342078e+002;0.000000e+000
5.361364e+002;0.000000e+000
5.380649e+002;0.000000e+000
5.399935e+002;0.000000e+000
5.419220e+002;0.000000e+000
5.438505e+002;0.000000e+000
5.457791e+002;0.000000e+000
5.477076e+002;0.000000e+000
5.496362e+002;0.000000e+000
5.515648e+002;0.000000e+000
5.534933e+002;0.000000e+000
5.554218e+002;0.000000e+000
5.573504e+002;0.000000e+000
5.592789e+002;0.000000e+000
5.612075e+002;0.000000e+000
5.631360e+002;0.000000e+000
5.650646e+002;0.000000e+000
5.669931e+002;0.000000e+000
5.689217e+002;0.000000e+000
5.708502e+002;0.000000e+000
5.727787e+002;0.000000e+000
5.747073e+002;0.000000e+000
5.766359e+002;0.000000e+000
5.785644e+002;0.000000e+000
5.804930e+002;0.000000e+000
5.824215e+002;0.000000e+000
5.843500e+002;0.000000e+000
5.862786e+002;0.000000e+000
5.882072e+002;0.000000e+000
5.901357e+002;0.000000e+000
5.920643e+002;0.000000e+000
5.939928e+002;0.000000e+000
5.959213e+002;0.000000e+000
5.978499e+002;0.000000e+000
5.997784e+002;2.601048e-001
6.017070e+002;2.514655e-001
6.036355e+002;2.496470e-001
6.055641e+002;2.573453e-001
6.074926e+002;2.623631e-001
6.094211e+002;2.655563e-001
6.113497e+002;2.619678e-001
6.132783e+002;2.598893e-001
6.152068e+002;2.629449e-001
6.171354e+002;2.574746e-001
6.190639e+002;2.462450e-001
6.209924e+002;2.410768e-001
6.229210e+002;2.395138e-001
6.248495e+002;2.385329e-001
6.267781e+002;2.343732e-001
6.287067e+002;2.341810e-001
6.306352e+002;2.381585e-001
6.325637e+002;2.378707e-001
6.344923e+002;2.322972e-001
6.364208e+002;2.225539e-001
6.383494e+002;2.142692e-001
6.402780e+002;2.140210e-001
6.422065e+002;2.160330e-001
6.441350e+002;2.186720e-001
6.460636e+002;2.182996e-001
6.479921e+002;2.144478e-001
6.499207e+002;2.138461e-001
6.518492e+002;2.188861e-001
6.537778e+002;2.263666e-001
6.557063e+002;2.350453e-001
6.576349e+002;2.407056e-001
6.595634e+002;2.409763e-001
6.614919e+002;2.396099e-001
6.634205e+002;2.407560e-001
6.653491e+002;2.420220e-001
6.672776e+002;2.418169e-001
6.692062e+002;2.371793e-001
6.711347e+002;2.304452e-001
6.730632e+002;2.232471e-001
6.749918e+002;2.148025e-001
6.769203e+002;2.077953e-001
6.788489e+002;2.026359e-001
6.807775e+002;1.988434e-001
6.827060e+002;1.964587e-001
6.846345e+002;1.946508e-001
6.865631e+002;1.922509e-001
6.884916e+002;1.914404e-001
6.904202e+002;1.911921e-001
6.923488e+002;1.910748e-001
6.942773e+002;1.894071e-001
6.962058e+002;1.886180e-001
6.981344e+002;1.888228e-001
7.000629e+002;1.885526e-001
7.019915e+002;1.877439e-001
7.039200e+002;1.862259e-001
7.058486e+002;1.839437e-001
7.077771e+002;1.819412e-001
7.097057e+002;1.799780e-001
7.116342e+002;1.784022e-001
7.135627e+002;1.757166e-001
7.154913e+002;1.723221e-001
7.174199e+002;1.690764e-001
7.193484e+002;1.653384e-001
7.212770e+002;1.627116e-001
7.232055e+002;1.596533e-001
7.251340e+002;1.561177e-001
7.270626e+002;1.532243e-001
7.289911e+002;1.496395e-001
7.309197e+002;1.463114e-001
7.328483e+002;1.435568e-001
7.347768e+002;1.425234e-001
7.367053e+002;1.421531e-001
7.386339e+002;1.407444e-001
7.405624e+002;1.387914e-001
7.424910e+002;1.373568e-001
7.444196e+002;1.362143e-001
7.463481e+002;1.350045e-001
7.482766e+002;1.337857e-001
7.502052e+002;1.321395e-001
7.521337e+002;1.300547e-001
7.540623e+002;1.282936e-001
7.559908e+002;1.278641e-001
7.579194e+002;1.275010e-001
7.598479e+002;1.259160e-001
7.617765e+002;1.253476e-001
7.637050e+002;1.249259e-001
7.656335e+002;1.230736e-001
7.675621e+002;1.212837e-001
7.694907e+002;1.208195e-001
7.714192e+002;1.205865e-001
7.733478e+002;1.191475e-001
7.752763e+002;1.179813e-001
7.772048e+002;1.177426e-001
7.791334e+002;1.182958e-001
7.810620e+002;1.180717e-001
7.829905e+002;1.170668e-001
7.849191e+002;1.164055e-001
7.868476e+002;1.153399e-001
7.887761e+002;1.137383e-001
7.907047e+002;1.118244e-001
7.926332e+002;1.101132e-001
7.945618e+002;1.088997e-001
7.964903e+002;1.077429e-001
7.984189e+002;1.073460e-001
8.003474e+002;1.070298e-001
8.022759e+002;1.064240e-001
8.042045e+002;1.067068e-001
8.061331e+002;1.066624e-001
8.080616e+002;1.065627e-001
8.099902e+002;1.067519e-001
8.119187e+002;1.062715e-001
8.138472e+002;1.053368e-001
8.157758e+002;1.047731e-001
8.177043e+002;1.049286e-001
8.196329e+002;1.046353e-001
8.215615e+002;1.042780e-001
8.234900e+002;1.042007e-001
8.254185e+002;1.045192e-001
8.273471e+002;1.045856e-001
8.292756e+002;1.043062e-001
8.312042e+002;1.051918e-001
8.331328e+002;1.058015e-001
8.350613e+002;1.052178e-001
8.369898e+002;1.046714e-001
8.389184e+002;1.051316e-001
8.408469e+002;1.056651e-001
8.427755e+002;1.062936e-001
8.447040e+002;1.067985e-001
8.466326e+002;1.071033e-001
8.485611e+002;1.064232e-001
8.504897e+002;1.060486e-001
8.524182e+002;1.074360e-001
8.543467e+002;1.083342e-001
8.562753e+002;1.083800e-001
8.582039e+002;1.093293e-001
8.601324e+002;1.111840e-001
8.620610e+002;1.123660e-001
8.639895e+002;1.131622e-001
8.659180e+002;1.142971e-001
8.678466e+002;1.158829e-001
8.697751e+002;1.178815e-001
8.717037e+002;1.197211e-001
8.736323e+002;1.211976e-001
8.755608e+002;1.228401e-001
8.774893e+002;1.254412e-001
8.794179e+002;1.279497e-001
8.813464e+002;1.301660e-001
8.832750e+002;1.326339e-001
8.852036e+002;1.353161e-001
8.871321e+002;1.380272e-001
8.890606e+002;1.408489e-001
8.909892e+002;1.438961e-001
8.929177e+002;1.462981e-001
8.948463e+002;1.472301e-001
8.967748e+002;1.473125e-001
8.987034e+002;1.474295e-001
9.006319e+002;1.468186e-001
9.025605e+002;1.450731e-001
9.044890e+002;1.432042e-001
9.064175e+002;1.410252e-001
9.083461e+002;1.388310e-001
9.102747e+002;1.374487e-001
9.122032e+002;1.361994e-001
9.141318e+002;1.344620e-001
9.160603e+002;1.332813e-001
9.179888e+002;1.333123e-001
9.199174e+002;1.335391e-001
9.218459e+002;1.336498e-001
9.237745e+002;1.344370e-001
9.257031e+002;1.354986e-001
9.276316e+002;1.366198e-001
9.295601e+002;1.380379e-001
9.314887e+002;1.392614e-001
9.334172e+002;1.408174e-001
9.353458e+002;1.426618e-001
9.372744e+002;1.444288e-001
9.392029e+002;1.460645e-001
9.411314e+002;1.480223e-001
9.430600e+002;1.503529e-001
9.449885e+002;1.529509e-001
9.469171e+002;1.558354e-001
9.488456e+002;1.585996e-001
9.507742e+002;1.616420e-001
9.527027e+002;1.657817e-001
9.546313e+002;1.700090e-001
9.565598e+002;1.745567e-001
9.584883e+002;1.795594e-001
9.604169e+002;1.848124e-001
9.623455e+002;1.904276e-001
9.642740e+002;1.965620e-001
9.662026e+002;2.033443e-001
9.681311e+002;2.109727e-001
9.700596e+002;2.190393e-001
9.719882e+002;2.282135e-001
9.739167e+002;2.393498e-001
9.758453e+002;2.525047e-001
9.777739e+002;2.675432e-001
9.797024e+002;2.839643e-001
9.816309e+002;2.993259e-001
9.835595e+002;3.095053e-001
9.854880e+002;3.140930e-001
9.874166e+002;3.155564e-001
9.893452e+002;3.171379e-001
9.912737e+002;3.214350e-001
9.932022e+002;3.278622e-001
9.951307e+002;3.352562e-001
9.970593e+002;3.436894e-001
9.989879e+002;3.512824e-001
1.000916e+003;3.560419e-001
1.002845e+003;3.583743e-001
1.004773e+003;3.595876e-001
1.006702e+003;3.600993e-001
1.008631e+003;3.607761e-001
1.010559e+003;3.633295e-001
1.012488e+003;3.677107e-001
1.014416e+003;3.734823e-001
1.016345e+003;3.794119e-001
1.018273e+003;3.853362e-001
1.020202e+003;3.916265e-001
1.022130e+003;3.971394e-001
1.024059e+003;4.030003e-001
1.025988e+003;4.093671e-001
1.027916e+003;4.146507e-001
1.029845e+003;4.181584e-001
1.031773e+003;4.182953e-001
1.033702e+003;4.139422e-001
1.035630e+003;4.063896e-001
1.037559e+003;3.975496e-001
1.039487e+003;3.891597e-001
1.041416e+003;3.837118e-001
1.043344e+003;3.821531e-001
1.045273e+003;3.836318e-001
1.047202e+003;3.879986e-001
1.049130e+003;3.946489e-001
1.051059e+003;4.005082e-001
1.052987e+003;4.031892e-001
1.054916e+003;4.030088e-001
1.056844e+003;3.995147e-001
1.058773e+003;3.905063e-001
1.060701e+003;3.759116e-001
1.062630e+003;3.577790e-001
1.064558e+003;3.393416e-001
1.066487e+003;3.227940e-001
1.068416e+003;3.088505e-001
1.070344e+003;2.978157e-001
1.072273e+003;2.889017e-001
1.074201e+003;2.816123e-001
1.076130e+003;2.750524e-001
1.078058e+003;2.680125e-001
1.079987e+003;2.620815e-001
1.081915e+003;2.582752e-001
1.083844e+003;2.556127e-001
1.085773e+003;2.537073e-001
1.087701e+003;2.526112e-001
1.089630e+003;2.519116e-001
1.091558e+003;2.524662e-001
1.093487e+003;2.546618e-001
1.095415e+003;2.574492e-001
1.097344e+003;2.603579e-001
1.099272e+003;2.628851e-001
1.101201e+003;2.649724e-001
1.103129e+003;2.652795e-001
1.105058e+003;2.635955e-001
1.106987e+003;2.607051e-001
1.108915e+003;2.567714e-001
1.110844e+003;2.516096e-001
1.112772e+003;2.434193e-001
1.114701e+003;2.316113e-001
1.116629e+003;2.191882e-001
1.118558e+003;2.093688e-001
1.120486e+003;2.013082e-001
1.122415e+003;1.949939e-001
1.124344e+003;1.886379e-001
1.126272e+003;1.814908e-001
1.128201e+003;1.741518e-001
1.130129e+003;1.679289e-001
1.132058e+003;1.629359e-001
1.133986e+003;1.586370e-001
1.135915e+003;1.552253e-001
1.137843e+003;1.531657e-001
1.139772e+003;1.532025e-001
1.141700e+003;1.548968e-001
1.143629e+003;1.576193e-001
1.145557e+003;1.604606e-001
1.147486e+003;1.627818e-001
1.149415e+003;1.650469e-001
1.151343e+003;1.673820e-001
1.153272e+003;1.696975e-001
1.155200e+003;1.718854e-001
1.157129e+003;1.739807e-001
1.159057e+003;1.757891e-001
1.160986e+003;1.760282e-001
1.162914e+003;1.739356e-001
1.164843e+003;1.690385e-001
1.166771e+003;1.620273e-001
1.168700e+003;1.534579e-001
1.170629e+003;1.443596e-001
1.172557e+003;1.365922e-001
1.174486e+003;1.297783e-001
1.176414e+003;1.238990e-001
1.178343e+003;1.195690e-001
1.180271e+003;1.162003e-001
1.182200e+003;1.135445e-001
1.184128e+003;1.118678e-001
1.186057e+003;1.113624e-001
1.187986e+003;1.121260e-001
1.189914e+003;1.137983e-001
1.191843e+003;1.162377e-001
1.193771e+003;1.190184e-001
1.195700e+003;1.216037e-001
1.197628e+003;1.238082e-001
1.199557e+003;1.254466e-001
1.201485e+003;1.261441e-001
1.203414e+003;1.260257e-001
1.205343e+003;1.251823e-001
1.207271e+003;1.230468e-001
1.209200e+003;1.191586e-001
1.211128e+003;1.147469e-001
1.213057e+003;1.116590e-001
1.214985e+003;1.107803e-001
1.216914e+003;1.113925e-001
1.218842e+003;1.124802e-001
1.220771e+003;1.139131e-001
1.222699e+003;1.160921e-001
1.224628e+003;1.182279e-001
1.226557e+003;1.199730e-001
1.228485e+003;1.217445e-001
1.230414e+003;1.237427e-001
1.232342e+003;1.256354e-001
1.234271e+003;1.266971e-001
1.236199e+003;1.267972e-001
1.238128e+003;1.268165e-001
1.240056e+003;1.270160e-001
1.241985e+003;1.275739e-001
1.243913e+003;1.286615e-001
1.245842e+003;1.297752e-001
1.247771e+003;1.301480e-001
1.249699e+003;1.297636e-001
1.251628e+003;1.293791e-001
1.253556e+003;1.286524e-001
1.255485e+003;1.279946e-001
1.257413e+003;1.276892e-001
1.259342e+003;1.267737e-001
1.261270e+003;1.260294e-001
1.263199e+003;1.260517e-001
1.265127e+003;1.264931e-001
1.267056e+003;1.276450e-001
1.268985e+003;1.294605e-001
1.270913e+003;1.310438e-001
1.272842e+003;1.324071e-001
1.274770e+003;1.335629e-001
1.276699e+003;1.343682e-001
1.278627e+003;1.348802e-001
1.280556e+003;1.345817e-001
1.282484e+003;1.333698e-001
1.284413e+003;1.320720e-001
1.286342e+003;1.316729e-001
1.288270e+003;1.321860e-001
1.290199e+003;1.329074e-001
1.292127e+003;1.340102e-001
1.294056e+003;1.352531e-001
1.295984e+003;1.365226e-001
1.297913e+003;1.383382e-001
1.299841e+003;1.408807e-001
1.301770e+003;1.444639e-001
1.303698e+003;1.488913e-001
1.305627e+003;1.535423e-001
1.307556e+003;1.584249e-001
1.309484e+003;1.632399e-001
1.311413e+003;1.673730e-001
1.313341e+003;1.699475e-001
1.315270e+003;1.702629e-001
1.317198e+003;1.682363e-001
1.319127e+003;1.648873e-001
1.321055e+003;1.610584e-001
1.322984e+003;1.574137e-001
1.324912e+003;1.548147e-001
1.326841e+003;1.536384e-001
1.328770e+003;1.534084e-001
1.330698e+003;1.540741e-001
1.332627e+003;1.551826e-001
1.334555e+003;1.552753e-001
1.336484e+003;1.542569e-001
1.338412e+003;1.524322e-001
1.340341e+003;1.498861e-001
1.342269e+003;1.469057e-001
1.344198e+003;1.435807e-001
1.346126e+003;1.405096e-001
1.348055e+003;1.388368e-001
1.349984e+003;1.384626e-001
1.351912e+003;1.390729e-001
1.353841e+003;1.403512e-001
1.355769e+003;1.417727e-001
1.357698e+003;1.429658e-001
1.359626e+003;1.439232e-001
1.361555e+003;1.439340e-001
1.363483e+003;1.431161e-001
1.365412e+003;1.424246e-001
1.367341e+003;1.418553e-001
1.369269e+003;1.408791e-001
1.371198e+003;1.394345e-001
1.373126e+003;1.371357e-001
1.375055e+003;1.338807e-001
1.376983e+003;1.302816e-001
1.378912e+003;1.271491e-001
1.380840e+003;1.245376e-001
1.382769e+003;1.218664e-001
1.384698e+003;1.191566e-001
1.386626e+003;1.171232e-001
1.388555e+003;1.156761e-001
1.390483e+003;1.145175e-001
1.392412e+003;1.135127e-001
1.394340e+003;1.132809e-001
1.396269e+003;1.134958e-001
1.398197e+003;1.135740e-001
1.400126e+003;1.136855e-001
1.402054e+003;1.138921e-001
1.403983e+003;1.141572e-001
1.405911e+003;1.145667e-001
1.407840e+003;1.152401e-001
1.409769e+003;1.157368e-001
1.411697e+003;1.163814e-001
1.413626e+003;1.172422e-001
1.415554e+003;1.185141e-001
1.417483e+003;1.204924e-001
1.419411e+003;1.224819e-001
1.421340e+003;1.242897e-001
1.423268e+003;1.257838e-001
1.425197e+003;1.268882e-001
1.427125e+003;1.279946e-001
1.429054e+003;1.281624e-001
1.430983e+003;1.269516e-001
1.432911e+003;1.250815e-001
1.434840e+003;1.229180e-001
1.436768e+003;1.209464e-001
1.438697e+003;1.195066e-001
1.440625e+003;1.184053e-001
1.442554e+003;1.174658e-001
1.444482e+003;1.170197e-001
1.446411e+003;1.166996e-001
1.448340e+003;1.162014e-001
1.450268e+003;1.157737e-001
1.452197e+003;1.151839e-001
1.454125e+003;1.145687e-001
1.456054e+003;1.134647e-001
1.457982e+003;1.118974e-001
1.459911e+003;1.100360e-001
1.461839e+003;1.082225e-001
1.463768e+003;1.067223e-001
1.465697e+003;1.048067e-001
1.467625e+003;1.026358e-001
1.469554e+003;1.009405e-001
1.471482e+003;9.893195e-002
1.473411e+003;9.683625e-002
1.475339e+003;9.507240e-002
1.477268e+003;9.381595e-002
1.479196e+003;9.297287e-002
1.481125e+003;9.184588e-002
1.483053e+003;9.017643e-002
1.484982e+003;8.812173e-002
1.486911e+003;8.627311e-002
1.488839e+003;8.465797e-002
1.490768e+003;8.344445e-002
1.492696e+003;8.249462e-002
1.494625e+003;8.172438e-002
1.496553e+003;8.127487e-002
1.498482e+003;8.084571e-002
1.500410e+003;8.047841e-002
1.502339e+003;8.024810e-002
1.504267e+003;8.017803e-002
1.506196e+003;8.003275e-002
1.508125e+003;7.972948e-002
1.510053e+003;7.961154e-002
1.511982e+003;7.957170e-002
1.513910e+003;7.924633e-002
1.515839e+003;7.885540e-002
1.517767e+003;7.858189e-002
1.519696e+003;7.817256e-002
1.521624e+003;7.794690e-002
1.523553e+003;7.791863e-002
1.525481e+003;7.782564e-002
1.527410e+003;7.788216e-002
1.529339e+003;7.779904e-002
1.531267e+003;7.789275e-002
1.533196e+003;7.813345e-002
1.535124e+003;7.814376e-002
1.537053e+003;7.796998e-002
1.538981e+003;7.775620e-002
1.540910e+003;7.779650e-002
1.542838e+003;7.798509e-002
1.544767e+003;7.806571e-002
1.546695e+003;7.819100e-002
1.548624e+003;7.847673e-002
1.550553e+003;7.836206e-002
1.552481e+003;7.806725e-002
1.554410e+003;7.820299e-002
1.556338e+003;7.845164e-002
1.558267e+003;7.852548e-002
1.560195e+003;7.857308e-002
1.562124e+003;7.880657e-002
1.564052e+003;7.891507e-002
1.565981e+003;7.896034e-002
1.567910e+003;7.929548e-002
1.569838e+003;7.950174e-002
1.571767e+003;7.949618e-002
1.573695e+003;7.977710e-002
1.575624e+003;8.020218e-002
1.577552e+003;8.064722e-002
1.579481e+003;8.099034e-002
1.581409e+003;8.121482e-002
1.583338e+003;8.136953e-002
1.585266e+003;8.154004e-002
1.587195e+003;8.194648e-002
1.589124e+003;8.253121e-002
1.591052e+003;8.284157e-002
1.592981e+003;8.285818e-002
1.594909e+003;8.305305e-002
1.596838e+003;8.364916e-002
1.598766e+003;8.418305e-002
1.600695e+003;8.465519e-002
1.602623e+003;8.548561e-002
1.604552e+003;8.638771e-002
1.606480e+003;8.685423e-002
1.608409e+003;8.717989e-002
1.610338e+003;8.780120e-002
1.612266e+003;8.838396e-002
1.614195e+003;8.878865e-002
1.616123e+003;8.915538e-002
1.618052e+003;8.933683e-002
1.619980e+003;8.947427e-002
1.621909e+003;8.978809e-002
1.623837e+003;9.001321e-002
1.625766e+003;8.988115e-002
1.627694e+003;8.990532e-002
1.629623e+003;8.996674e-002
1.631552e+003;8.981261e-002
1.633480e+003;8.982712e-002
1.635409e+003;8.988100e-002
1.637337e+003;8.971316e-002
1.639266e+003;8.926431e-002
1.641194e+003;8.912890e-002
1.643123e+003;8.936130e-002
1.645051e+003;8.930045e-002
1.646980e+003;8.878251e-002
1.648909e+003;8.810256e-002
1.650837e+003;8.758710e-002
1.652766e+003;8.722136e-002
1.654694e+003;8.689199e-002
1.656623e+003;8.644366e-002
1.658551e+003;8.588316e-002
1.660480e+003;8.537097e-002
1.662408e+003;8.505416e-002
1.664337e+003;8.459830e-002
1.666266e+003;8.404608e-002
1.668194e+003;8.348726e-002
1.670123e+003;8.273709e-002
1.672051e+003;8.200622e-002
1.673980e+003;8.151013e-002
1.675908e+003;8.127347e-002
1.677837e+003;8.098786e-002
1.679765e+003;8.024929e-002
1.681694e+003;7.948925e-002
1.683622e+003;7.887280e-002
1.685551e+003;7.854997e-002
1.687479e+003;7.857352e-002
1.689408e+003;7.825345e-002
1.691337e+003;7.749515e-002
1.693265e+003;7.702448e-002
1.695194e+003;7.683640e-002
1.697122e+003;7.664495e-002
1.699051e+003;7.633160e-002
1.700979e+003;7.590418e-002
1.702908e+003;7.565150e-002
1.704836e+003;7.536361e-002
1.706765e+003;7.498273e-002
1.708693e+003;7.481572e-002
1.710622e+003;7.479403e-002
1.712551e+003;7.475802e-002
1.714479e+003;7.457788e-002
1.716408e+003;7.449912e-002
1.718336e+003;7.440367e-002
1.720265e+003;7.427953e-002
1.722193e+003;7.429302e-002
1.724122e+003;7.436143e-002
1.726050e+003;7.440004e-002
1.727979e+003;7.439642e-002
1.729908e+003;7.447682e-002
1.731836e+003;7.435486e-002
1.733765e+003;7.425334e-002
1.735693e+003;7.432455e-002
1.737622e+003;7.452984e-002
1.739550e+003;7.452846e-002
1.741479e+003;7.427964e-002
1.743407e+003;7.404646e-002
1.745336e+003;7.403125e-002
1.747265e+003;7.385742e-002
1.749193e+003;7.332523e-002
1.751122e+003;7.311291e-002
1.753050e+003;7.292897e-002
1.754979e+003;7.245065e-002
1.756907e+003;7.212909e-002
1.758836e+003;7.198886e-002
1.760764e+003;7.192312e-002
1.762693e+003;7.193325e-002
1.764621e+003;7.177491e-002
1.766550e+003;7.173172e-002
1.768479e+003;7.179802e-002
1.770407e+003;7.152900e-002
1.772336e+003;7.119124e-002
1.774264e+003;7.118929e-002
1.776193e+003;7.153267e-002
1.778121e+003;7.172250e-002
1.780050e+003;7.170147e-002
1.781978e+003;7.170257e-002
1.783907e+003;7.159100e-002
1.785835e+003;7.151834e-002
1.787764e+003;7.145697e-002
1.789693e+003;7.113496e-002
1.791621e+003;7.097875e-002
1.793550e+003;7.098667e-002
1.795478e+003;7.098854e-002
1.797407e+003;7.110745e-002
1.799335e+003;7.115635e-002
1.801264e+003;7.104661e-002
1.803192e+003;7.112692e-002
1.805121e+003;7.102206e-002
1.807049e+003;7.072591e-002
1.808978e+003;7.079206e-002
1.810907e+003;7.089706e-002
1.812835e+003;7.078187e-002
1.814764e+003;7.077154e-002
1.816692e+003;7.085103e-002
1.818621e+003;7.072362e-002
1.820549e+003;7.055305e-002
1.822478e+003;7.055129e-002
1.824406e+003;7.062614e-002
1.826335e+003;7.067577e-002
1.828264e+003;7.056899e-002
1.830192e+003;7.051555e-002
1.832121e+003;7.056981e-002
1.834049e+003;7.046621e-002
1.835978e+003;7.043398e-002
1.837906e+003;7.042615e-002
1.839835e+003;7.034273e-002
1.841763e+003;7.033794e-002
1.843692e+003;7.009187e-002
1.845620e+003;6.988932e-002
1.847549e+003;7.006060e-002
1.849478e+003;7.013306e-002
1.851406e+003;7.009498e-002
1.853335e+003;7.001314e-002
1.855263e+003;6.977732e-002
1.857192e+003;6.974491e-002
1.859120e+003;6.970045e-002
1.861049e+003;6.957341e-002
1.862977e+003;6.968641e-002
1.864906e+003;6.990127e-002
1.866834e+003;7.000239e-002
1.868763e+003;7.002781e-002
1.870692e+003;7.006329e-002
1.872620e+003;6.997884e-002
1.874549e+003;6.987324e-002
1.876477e+003;6.963673e-002
1.878406e+003;6.956295e-002
1.880334e+003;6.978896e-002
1.882263e+003;6.987511e-002
1.884191e+003;6.986041e-002
1.886120e+003;6.992419e-002
1.888048e+003;6.996327e-002
1.889977e+003;6.993100e-002
1.891906e+003;6.981631e-002
1.893834e+003;6.985721e-002
1.895763e+003;6.999286e-002
1.897691e+003;6.992972e-002
1.899620e+003;6.947690e-002
1.901548e+003;6.933037e-002
1.903477e+003;6.951033e-002
1.905405e+003;6.966100e-002
1.907334e+003;6.966003e-002
1.909262e+003;6.971336e-002
1.911191e+003;6.979184e-002
1.913120e+003;6.978760e-002
1.915048e+003;6.974129e-002
1.916977e+003;6.974243e-002
1.918905e+003;6.997398e-002
1.920834e+003;6.997857e-002
1.922762e+003;6.978822e-002
1.924691e+003;6.986663e-002
1.926619e+003;6.996436e-002
1.928548e+003;6.983581e-002
1.930477e+003;6.991006e-002
1.932405e+003;6.985254e-002
1.934334e+003;6.980355e-002
1.936262e+003;6.989598e-002
1.938191e+003;7.009549e-002
1.940119e+003;7.015459e-002
1.942048e+003;7.021274e-002
1.943976e+003;7.040842e-002
1.945905e+003;7.039295e-002
1.947833e+003;7.040083e-002
1.949762e+003;7.051232e-002
1.951691e+003;7.059296e-002
1.953619e+003;7.068314e-002
1.955548e+003;7.080512e-002
1.957476e+003;7.075235e-002
1.959405e+003;7.070614e-002
1.961333e+003;7.063413e-002
1.963262e+003;7.047783e-002
1.965190e+003;7.045109e-002
1.967119e+003;7.059238e-002
1.969047e+003;7.068088e-002
1.970976e+003;7.069152e-002
1.972905e+003;7.074678e-002
1.974833e+003;7.092198e-002
1.976762e+003;7.110007e-002
1.978690e+003;7.107931e-002
1.980619e+003;7.089588e-002
1.982547e+003;7.096384e-002
1.984476e+003;7.127928e-002
1.986404e+003;7.140424e-002
1.988333e+003;7.160053e-002
1.990261e+003;7.181725e-002
1.992190e+003;7.165638e-002
1.994119e+003;7.147771e-002
1.996047e+003;7.128030e-002
1.997976e+003;7.120878e-002
1.999904e+003;7.143006e-002
2.001833e+003;7.172985e-002
2.003761e+003;7.183003e-002
2.005690e+003;7.166442e-002
2.007618e+003;7.155869e-002
2.009547e+003;7.147705e-002
2.011476e+003;7.160445e-002
2.013404e+003;7.181752e-002
2.015333e+003;7.180192e-002
2.017261e+003;7.188751e-002
2.019190e+003;7.207999e-002
2.021118e+003;7.226137e-002
2.023047e+003;7.221692e-002
2.024975e+003;7.223105e-002
2.026904e+003;7.245395e-002
2.028833e+003;7.244392e-002
2.030761e+003;7.253550e-002
2.032690e+003;7.247008e-002
2.034618e+003;7.231440e-002
2.036547e+003;7.236286e-002
2.038475e+003;7.238916e-002
2.040404e+003;7.226513e-002
2.042332e+003;7.248037e-002
2.044261e+003;7.276310e-002
2.046189e+003;7.279327e-002
2.048118e+003;7.262710e-002
2.050047e+003;7.250355e-002
2.051975e+003;7.258496e-002
2.053904e+003;7.268495e-002
2.055832e+003;7.262713e-002
2.057761e+003;7.239890e-002
2.059689e+003;7.227436e-002
2.061618e+003;7.238830e-002
2.063546e+003;7.245567e-002
2.065475e+003;7.237776e-002
2.067404e+003;7.219654e-002
2.069332e+003;7.238712e-002
2.071260e+003;7.258535e-002
2.073189e+003;7.246275e-002
2.075118e+003;7.236657e-002
2.077046e+003;7.213432e-002
2.078975e+003;7.208840e-002
2.080903e+003;7.219505e-002
2.082832e+003;7.226208e-002
2.084760e+003;7.222850e-002
2.086689e+003;7.216774e-002
2.088617e+003;7.218311e-002
2.090546e+003;7.223421e-002
2.092475e+003;7.216625e-002
2.094403e+003;7.210878e-002
2.096332e+003;7.200681e-002
2.098260e+003;7.189732e-002
2.100189e+003;7.208057e-002
2.102117e+003;7.223022e-002
2.104046e+003;7.223234e-002
2.105974e+003;7.233264e-002
2.107903e+003;7.240599e-002
2.109832e+003;7.231898e-002
2.111760e+003;7.239256e-002
2.113688e+003;7.255492e-002
2.115617e+003;7.274861e-002
2.117546e+003;7.287128e-002
2.119474e+003;7.281937e-002
2.121403e+003;7.264809e-002
2.123331e+003;7.253706e-002
2.125260e+003;7.266090e-002
2.127188e+003;7.270618e-002
2.129117e+003;7.268503e-002
2.131045e+003;7.275354e-002
2.132974e+003;7.285142e-002
2.134903e+003;7.289578e-002
2.136831e+003;7.265820e-002
2.138760e+003;7.252630e-002
2.140688e+003;7.251365e-002
2.142617e+003;7.211977e-002
2.144545e+003;7.193560e-002
2.146474e+003;7.232497e-002
2.148402e+003;7.266732e-002
2.150331e+003;7.256867e-002
2.152260e+003;7.236857e-002
2.154188e+003;7.241957e-002
2.156117e+003;7.239456e-002
2.158045e+003;7.219129e-002
2.159974e+003;7.194315e-002
2.161902e+003;7.201819e-002
2.163831e+003;7.200646e-002
2.165759e+003;7.181979e-002
2.167688e+003;7.173590e-002
2.169616e+003;7.169932e-002
2.171545e+003;7.144767e-002
2.173474e+003;7.142307e-002
2.175402e+003;7.158987e-002
2.177331e+003;7.153048e-002
2.179259e+003;7.126354e-002
2.181188e+003;7.092296e-002
2.183116e+003;7.100653e-002
2.185045e+003;7.114058e-002
2.186973e+003;7.099955e-002
2.188902e+003;7.079533e-002
2.190831e+003;7.054311e-002
2.192759e+003;7.035793e-002
2.194688e+003;7.070942e-002
2.196616e+003;7.089097e-002
2.198545e+003;7.085294e-002
2.200473e+003;7.098375e-002
2.202402e+003;7.083897e-002
2.204330e+003;7.071952e-002
2.206259e+003;7.062902e-002
2.208188e+003;7.050386e-002
2.210116e+003;7.062957e-002
2.212044e+003;7.071149e-002
2.213973e+003;7.046633e-002
2.215902e+003;7.021698e-002
2.217830e+003;7.029781e-002
2.219759e+003;7.054724e-002
2.221687e+003;7.052795e-002
2.223616e+003;7.046679e-002
2.225544e+003;7.018851e-002
2.227473e+003;7.011940e-002
2.229401e+003;7.019553e-002
2.231330e+003;7.007695e-002
2.233259e+003;6.991652e-002
2.235187e+003;6.997386e-002
2.237116e+003;7.027303e-002
2.239044e+003;7.035562e-002
2.240973e+003;7.014509e-002
2.242901e+003;7.003541e-002
2.244830e+003;7.002836e-002
2.246758e+003;7.001621e-002
2.248687e+003;6.992221e-002
2.250615e+003;6.991715e-002
2.252544e+003;6.996265e-002
2.254473e+003;7.011067e-002
2.256401e+003;6.991100e-002
2.258330e+003;6.952219e-002
2.260258e+003;6.929185e-002
2.262187e+003;6.921347e-002
2.264115e+003;6.925777e-002
2.266044e+003;6.967559e-002
2.267972e+003;6.976293e-002
2.269901e+003;6.960639e-002
2.271830e+003;6.952064e-002
2.273758e+003;6.948673e-002
2.275687e+003;6.928381e-002
2.277615e+003;6.899898e-002
2.279544e+003;6.890877e-002
2.281472e+003;6.890275e-002
2.283401e+003;6.874043e-002
2.285329e+003;6.863424e-002
2.287258e+003;6.909601e-002
2.289187e+003;6.940975e-002
2.291115e+003;6.906004e-002
2.293043e+003;6.878255e-002
2.294972e+003;6.857809e-002
2.296901e+003;6.846073e-002
2.298829e+003;6.865593e-002
2.300758e+003;6.861573e-002
2.302686e+003;6.843393e-002
2.304615e+003;6.860987e-002
2.306543e+003;6.875033e-002
2.308472e+003;6.867413e-002
2.310400e+003;6.859369e-002
2.312329e+003;6.842671e-002
2.314258e+003;6.838559e-002
2.316186e+003;6.863602e-002
2.318115e+003;6.868434e-002
2.320043e+003;6.843908e-002
2.321972e+003;6.839111e-002
2.323900e+003;6.865326e-002
2.325829e+003;6.868446e-002
2.327757e+003;6.861290e-002
2.329686e+003;6.879377e-002
2.331615e+003;6.885751e-002
2.333543e+003;6.887180e-002
2.335472e+003;6.890757e-002
2.337400e+003;6.890807e-002
2.339329e+003;6.893739e-002
2.341257e+003;6.901883e-002
2.343186e+003;6.896286e-002
2.345114e+003;6.901603e-002
2.347043e+003;6.925443e-002
2.348971e+003;6.918569e-002
2.350900e+003;6.900990e-002
2.352829e+003;6.895956e-002
2.354757e+003;6.913133e-002
2.356686e+003;6.923939e-002
2.358614e+003;6.938852e-002
2.360543e+003;6.962724e-002
2.362471e+003;6.956302e-002
2.364400e+003;6.962607e-002
2.366328e+003;6.972343e-002
2.368257e+003;6.961985e-002
2.370186e+003;6.940664e-002
2.372114e+003;6.935397e-002
2.374042e+003;6.936621e-002
2.375971e+003;6.940605e-002
2.377900e+003;6.924673e-002
2.379828e+003;6.902594e-002
2.381757e+003;6.891712e-002
2.383685e+003;6.875176e-002
2.385614e+003;6.895448e-002
2.387542e+003;6.947336e-002
2.389471e+003;6.949120e-002
2.391399e+003;6.919046e-002
2.393328e+003;6.938864e-002
2.395257e+003;6.969021e-002
2.397185e+003;6.957474e-002
2.399114e+003;6.967166e-002
2.401042e+003;6.993446e-002
2.402971e+003;7.002895e-002
2.404899e+003;7.004109e-002
2.406828e+003;7.004257e-002
2.408756e+003;7.001754e-002
2.410685e+003;6.995413e-002
2.412614e+003;6.961557e-002
2.414542e+003;6.989263e-002
2.416471e+003;7.031301e-002
2.418399e+003;7.015900e-002
2.420328e+003;7.037620e-002
2.422256e+003;7.061109e-002
2.424185e+003;7.053138e-002
2.426113e+003;7.062022e-002
2.428042e+003;7.067156e-002
2.429970e+003;7.047432e-002
2.431899e+003;7.046574e-002
2.433828e+003;7.070934e-002
2.435756e+003;7.101554e-002
2.437685e+003;7.086409e-002
2.439613e+003;7.062220e-002
2.441542e+003;7.070447e-002
2.443470e+003;7.093107e-002
2.445399e+003;7.110311e-002
2.447327e+003;7.086047e-002
2.449256e+003;7.083581e-002
2.451185e+003;7.130443e-002
2.453113e+003;7.159604e-002
2.455042e+003;7.136734e-002
2.456970e+003;7.102877e-002
2.458899e+003;7.094145e-002
2.460827e+003;7.091360e-002
2.462756e+003;7.088180e-002
2.464684e+003;7.093864e-002
2.466613e+003;7.107037e-002
2.468542e+003;7.116108e-002
2.470470e+003;7.132965e-002
2.472398e+003;7.143162e-002
2.474327e+003;7.170124e-002
2.476256e+003;7.191085e-002
2.478184e+003;7.177011e-002
2.480113e+003;7.182699e-002
2.482041e+003;7.221387e-002
2.483970e+003;7.221238e-002
2.485898e+003;7.188922e-002
2.487827e+003;7.177554e-002
2.489755e+003;7.189701e-002
2.491684e+003;7.202754e-002
2.493613e+003;7.200165e-002
2.495541e+003;7.196184e-002
2.497470e+003;7.217885e-002
2.499398e+003;7.234054e-002
2.501327e+003;7.232340e-002
2.503255e+003;7.232735e-002
2.505184e+003;7.235021e-002
2.507112e+003;7.238211e-002
2.509041e+003;7.216316e-002
2.510969e+003;7.220440e-002
2.512898e+003;7.267610e-002
2.514827e+003;7.275260e-002
2.516755e+003;7.245751e-002
2.518684e+003;7.248899e-002
2.520612e+003;7.252720e-002
2.522541e+003;7.265965e-002
2.524469e+003;7.291153e-002
2.526398e+003;7.313666e-002
2.528326e+003;7.316133e-002
2.530255e+003;7.296758e-002
2.532184e+003;7.266282e-002
2.534112e+003;7.275456e-002
2.536041e+003;7.288923e-002
2.537969e+003;7.272600e-002
2.539898e+003;7.279821e-002
2.541826e+003;7.284585e-002
2.543755e+003;7.302164e-002
2.545683e+003;7.317349e-002
2.547612e+003;7.292901e-002
2.549541e+003;7.271315e-002
2.551469e+003;7.273008e-002
2.553397e+003;7.272561e-002
2.555326e+003;7.261562e-002
2.557255e+003;7.292031e-002
2.559183e+003;7.331908e-002
2.561112e+003;7.327965e-002
2.563040e+003;7.319690e-002
2.564969e+003;7.339460e-002
2.566897e+003;7.348888e-002
2.568826e+003;7.309879e-002
2.570754e+003;7.270673e-002
2.572683e+003;7.295068e-002
2.574612e+003;7.342551e-002
2.576540e+003;7.354458e-002
2.578469e+003;7.338282e-002
2.580397e+003;7.329722e-002
2.582326e+003;7.349536e-002
2.584254e+003;7.351879e-002
2.586183e+003;7.366555e-002
2.588111e+003;7.364392e-002
2.590040e+003;7.347562e-002
2.591969e+003;7.362422e-002
2.593897e+003;7.368939e-002
2.595826e+003;7.362041e-002
2.597754e+003;7.388896e-002
2.599683e+003;7.384359e-002
2.601611e+003;7.355772e-002
2.603540e+003;7.373230e-002
2.605468e+003;7.410045e-002
2.607397e+003;7.432124e-002
2.609325e+003;7.435604e-002
2.611254e+003;7.416525e-002
2.613183e+003;7.405812e-002
2.615111e+003;7.407317e-002
2.617040e+003;7.407106e-002
2.618968e+003;7.424942e-002
2.620897e+003;7.434063e-002
2.622825e+003;7.435848e-002
2.624754e+003;7.444468e-002
2.626682e+003;7.448661e-002
2.628611e+003;7.458539e-002
2.630540e+003;7.478840e-002
2.632468e+003;7.477726e-002
2.634396e+003;7.471697e-002
2.636325e+003;7.474010e-002
2.638254e+003;7.478856e-002
2.640182e+003;7.514311e-002
2.642111e+003;7.546258e-002
2.644039e+003;7.530528e-002
2.645968e+003;7.518116e-002
2.647896e+003;7.506724e-002
2.649825e+003;7.509182e-002
2.651753e+003;7.506961e-002
2.653682e+003;7.498033e-002
2.655611e+003;7.534185e-002
2.657539e+003;7.551415e-002
2.659468e+003;7.545765e-002
2.661396e+003;7.551493e-002
2.663325e+003;7.550366e-002
2.665253e+003;7.556210e-002
2.667182e+003;7.567717e-002
2.669110e+003;7.559932e-002
2.671039e+003;7.561265e-002
2.672968e+003;7.573321e-002
2.674896e+003;7.595765e-002
2.676825e+003;7.613868e-002
2.678753e+003;7.598069e-002
2.680682e+003;7.596621e-002
2.682610e+003;7.623657e-002
2.684539e+003;7.642744e-002
2.686467e+003;7.640187e-002
2.688396e+003;7.611448e-002
2.690324e+003;7.625481e-002
2.692253e+003;7.665725e-002
2.694182e+003;7.679468e-002
2.696110e+003;7.682251e-002
2.698039e+003;7.672165e-002
2.699967e+003;7.636656e-002
2.701896e+003;7.647461e-002
2.703824e+003;7.684699e-002
2.705753e+003;7.686732e-002
2.707681e+003;7.688599e-002
2.709610e+003;7.697052e-002
2.711539e+003;7.728398e-002
2.713467e+003;7.751678e-002
2.715396e+003;7.742680e-002
2.717324e+003;7.745384e-002
2.719253e+003;7.751702e-002
2.721181e+003;7.743551e-002
2.723110e+003;7.751919e-002
2.725038e+003;7.790302e-002
2.726967e+003;7.805821e-002
2.728896e+003;7.783214e-002
2.730824e+003;7.794104e-002
2.732752e+003;7.803949e-002
2.734681e+003;7.801943e-002
2.736610e+003;7.811564e-002
2.738538e+003;7.802712e-002
2.740467e+003;7.788946e-002
2.742395e+003;7.801225e-002
2.744324e+003;7.807983e-002
2.746252e+003;7.792676e-002
2.748181e+003;7.823087e-002
2.750109e+003;7.862037e-002
2.752038e+003;7.875679e-002
2.753967e+003;7.875469e-002
2.755895e+003;7.843016e-002
2.757824e+003;7.813206e-002
2.759752e+003;7.817097e-002
2.761681e+003;7.849511e-002
2.763609e+003;7.859924e-002
2.765538e+003;7.853211e-002
2.767466e+003;7.870818e-002
2.769395e+003;7.885221e-002
2.771323e+003;7.901856e-002
2.773252e+003;7.923122e-002
2.775181e+003;7.936326e-002
2.777109e+003;7.975675e-002
2.779038e+003;7.994121e-002
2.780966e+003;7.967423e-002
2.782895e+003;7.938836e-002
2.784823e+003;7.953613e-002
2.786752e+003;7.961671e-002
2.788680e+003;7.989744e-002
2.790609e+003;8.016013e-002
2.792538e+003;8.034966e-002
2.794466e+003;8.085656e-002
2.796395e+003;8.125354e-002
2.798323e+003;8.150082e-002
2.800252e+003;8.144946e-002
2.802180e+003;8.145186e-002
2.804109e+003;8.166894e-002
2.806037e+003;8.208803e-002
2.807966e+003;8.262041e-002
2.809895e+003;8.311749e-002
2.811823e+003;8.352047e-002
2.813751e+003;8.394304e-002
2.815680e+003;8.428245e-002
2.817609e+003;8.442143e-002
2.819537e+003;8.460768e-002
2.821466e+003;8.486699e-002
2.823394e+003;8.522560e-002
2.825323e+003;8.567009e-002
2.827251e+003;8.646679e-002
2.829180e+003;8.732628e-002
2.831108e+003;8.775732e-002
2.833037e+003;8.822077e-002
2.834966e+003;8.906443e-002
2.836894e+003;8.992436e-002
2.838823e+003;9.076067e-002
2.840751e+003;9.152701e-002
2.842680e+003;9.220722e-002
2.844608e+003;9.348720e-002
2.846537e+003;9.557804e-002
2.848465e+003;9.759489e-002
2.850394e+003;9.892184e-002
2.852323e+003;9.980012e-002
2.854251e+003;1.010214e-001
2.856180e+003;1.021029e-001
2.858108e+003;1.026205e-001
2.860037e+003;1.033499e-001
2.861965e+003;1.042888e-001
2.863894e+003;1.053371e-001
2.865822e+003;1.062113e-001
2.867751e+003;1.065964e-001
2.869679e+003;1.071684e-001
2.871608e+003;1.080002e-001
2.873536e+003;1.084522e-001
2.875465e+003;1.086520e-001
2.877394e+003;1.092456e-001
2.879322e+003;1.096101e-001
2.881251e+003;1.097662e-001
2.883179e+003;1.101248e-001
2.885108e+003;1.107336e-001
2.887036e+003;1.114137e-001
2.888965e+003;1.118637e-001
2.890893e+003;1.122794e-001
2.892822e+003;1.127394e-001
2.894750e+003;1.133822e-001
2.896679e+003;1.134957e-001
2.898608e+003;1.130776e-001
2.900536e+003;1.125681e-001
2.902465e+003;1.119753e-001
2.904393e+003;1.116432e-001
2.906322e+003;1.113066e-001
2.908250e+003;1.106482e-001
2.910179e+003;1.098140e-001
2.912107e+003;1.087722e-001
2.914036e+003;1.078198e-001
2.915965e+003;1.066647e-001
2.917893e+003;1.055397e-001
2.919822e+003;1.049351e-001
2.921750e+003;1.038423e-001
2.923679e+003;1.019599e-001
2.925607e+003;1.006836e-001
2.927536e+003;9.976368e-002
2.929464e+003;9.900799e-002
2.931393e+003;9.818194e-002
2.933322e+003;9.708529e-002
2.935250e+003;9.575385e-002
2.937178e+003;9.445840e-002
2.939107e+003;9.353804e-002
2.941036e+003;9.294898e-002
2.942964e+003;9.254782e-002
2.944893e+003;9.198976e-002
2.946821e+003;9.095252e-002
2.948750e+003;8.992048e-002
2.950678e+003;8.881080e-002
2.952607e+003;8.772723e-002
2.954535e+003;8.668801e-002
2.956464e+003;8.540311e-002
2.958393e+003;8.444989e-002
2.960321e+003;8.370066e-002
2.962250e+003;8.251927e-002
2.964178e+003;8.167590e-002
2.966107e+003;8.140901e-002
2.968035e+003;8.104225e-002
2.969964e+003;8.042757e-002
2.971892e+003;7.983380e-002
2.973821e+003;7.911838e-002
2.975750e+003;7.886004e-002
2.977678e+003;7.816546e-002
2.979607e+003;7.676439e-002
2.981535e+003;7.599060e-002
2.983464e+003;7.592533e-002
2.985392e+003;7.619937e-002
2.987321e+003;7.592363e-002
2.989249e+003;7.551849e-002
2.991178e+003;7.558804e-002
2.993106e+003;7.552527e-002
2.995035e+003;7.494418e-002
2.996964e+003;7.460470e-002
2.998892e+003;7.485315e-002
3.000821e+003;7.528935e-002
3.002749e+003;7.532392e-002
3.004678e+003;7.493276e-002
3.006606e+003;7.460828e-002
3.008535e+003;7.493776e-002
3.010463e+003;7.491929e-002
3.012392e+003;7.469469e-002
3.014321e+003;7.463764e-002
3.016249e+003;7.475195e-002
3.018177e+003;7.496201e-002
3.020106e+003;7.505164e-002
3.022035e+003;7.534402e-002
3.023963e+003;7.578880e-002
3.025892e+003;7.594553e-002
3.027820e+003;7.624380e-002
3.029749e+003;7.662665e-002
3.031677e+003;7.663214e-002
3.033606e+003;7.651710e-002
3.035534e+003;7.637963e-002
3.037463e+003;7.674924e-002
3.039392e+003;7.702563e-002
3.041320e+003;7.689252e-002
3.043249e+003;7.704683e-002
3.045177e+003;7.717042e-002
3.047106e+003;7.709930e-002
3.049034e+003;7.746406e-002
3.050963e+003;7.816146e-002
3.052891e+003;7.862736e-002
3.054820e+003;7.893050e-002
3.056749e+003;7.923420e-002
3.058677e+003;7.945675e-002
3.060606e+003;7.952888e-002
3.062534e+003;7.973832e-002
3.064463e+003;7.956533e-002
3.066391e+003;7.929743e-002
3.068320e+003;7.952606e-002
3.070248e+003;8.045317e-002
3.072177e+003;8.114328e-002
3.074105e+003;8.110642e-002
3.076034e+003;8.129472e-002
3.077963e+003;8.185961e-002
3.079891e+003;8.242368e-002
3.081820e+003;8.228473e-002
3.083748e+003;8.228414e-002
3.085677e+003;8.273352e-002
3.087605e+003;8.299658e-002
3.089534e+003;8.319169e-002
3.091462e+003;8.373920e-002
3.093391e+003;8.438594e-002
3.095320e+003;8.468176e-002
3.097248e+003;8.476811e-002
3.099177e+003;8.489394e-002
3.101105e+003;8.517943e-002
3.103034e+003;8.564426e-002
3.104962e+003;8.612882e-002
3.106891e+003;8.631935e-002
3.108819e+003;8.612057e-002
3.110748e+003;8.625682e-002
3.112677e+003;8.696643e-002
3.114605e+003;8.777378e-002
3.116533e+003;8.781446e-002
3.118462e+003;8.760814e-002
3.120391e+003;8.802380e-002
3.122319e+003;8.827773e-002
3.124248e+003;8.903050e-002
3.126176e+003;8.986762e-002
3.128105e+003;9.001717e-002
3.130033e+003;9.049292e-002
3.131962e+003;9.124974e-002
3.133890e+003;9.174972e-002
3.135819e+003;9.236892e-002
3.137748e+003;9.299737e-002
3.139676e+003;9.310284e-002
3.141605e+003;9.306900e-002
3.143533e+003;9.357211e-002
3.145462e+003;9.435561e-002
3.147390e+003;9.498736e-002
3.149319e+003;9.576806e-002
3.151247e+003;9.568500e-002
3.153176e+003;9.530619e-002
3.155104e+003;9.596986e-002
3.157033e+003;9.728712e-002
3.158962e+003;9.818219e-002
3.160890e+003;9.870449e-002
3.162819e+003;9.918852e-002
3.164747e+003;9.949602e-002
3.166676e+003;1.001739e-001
3.168604e+003;1.002111e-001
3.170533e+003;1.003647e-001
3.172461e+003;1.014359e-001
3.174390e+003;1.022001e-001
3.176319e+003;1.024667e-001
3.178247e+003;1.031842e-001
3.180176e+003;1.039295e-001
3.182104e+003;1.039644e-001
3.184033e+003;1.043597e-001
3.185961e+003;1.054614e-001
3.187890e+003;1.062178e-001
3.189818e+003;1.066356e-001
3.191747e+003;1.075956e-001
3.193676e+003;1.085452e-001
3.195604e+003;1.090345e-001
3.197532e+003;1.097438e-001
3.199461e+003;1.106497e-001
3.201390e+003;1.114572e-001
3.203318e+003;1.121809e-001
3.205247e+003;1.127294e-001
3.207175e+003;1.135473e-001
3.209104e+003;1.146603e-001
3.211032e+003;1.152117e-001
3.212961e+003;1.160244e-001
3.214889e+003;1.175610e-001
3.216818e+003;1.184785e-001
3.218747e+003;1.189495e-001
3.220675e+003;1.196161e-001
3.222604e+003;1.208801e-001
3.224532e+003;1.221713e-001
3.226461e+003;1.232465e-001
3.228389e+003;1.240613e-001
3.230318e+003;1.244285e-001
3.232246e+003;1.252550e-001
3.234175e+003;1.265616e-001
3.236104e+003;1.274508e-001
3.238032e+003;1.282552e-001
3.239961e+003;1.290208e-001
3.241889e+003;1.300994e-001
3.243818e+003;1.315347e-001
3.245746e+003;1.328305e-001
3.247675e+003;1.335281e-001
3.249603e+003;1.340378e-001
3.251532e+003;1.355019e-001
3.253460e+003;1.369418e-001
3.255389e+003;1.377872e-001
3.257318e+003;1.389626e-001
3.259246e+003;1.403808e-001
3.261175e+003;1.414633e-001
3.263103e+003;1.429931e-001
3.265032e+003;1.438186e-001
3.266960e+003;1.438955e-001
3.268889e+003;1.448338e-001
3.270817e+003;1.463195e-001
3.272746e+003;1.476163e-001
3.274675e+003;1.487386e-001
3.276603e+003;1.497401e-001
3.278531e+003;1.505896e-001
3.280460e+003;1.516243e-001
3.282389e+003;1.522209e-001
3.284317e+003;1.520048e-001
3.286246e+003;1.518954e-001
3.288174e+003;1.524788e-001
3.290103e+003;1.534617e-001
3.292031e+003;1.539362e-001
3.293960e+003;1.537441e-001
3.295888e+003;1.536356e-001
3.297817e+003;1.537567e-001
3.299746e+003;1.538383e-001
3.301674e+003;1.541478e-001
3.303603e+003;1.539931e-001
3.305531e+003;1.539198e-001
3.307460e+003;1.545283e-001
3.309388e+003;1.546120e-001
3.311317e+003;1.540246e-001
3.313245e+003;1.546869e-001
3.315174e+003;1.559109e-001
3.317103e+003;1.564357e-001
3.319031e+003;1.570185e-001
3.320960e+003;1.578740e-001
3.322888e+003;1.582596e-001
3.324817e+003;1.589270e-001
3.326745e+003;1.589511e-001
3.328674e+003;1.594575e-001
3.330602e+003;1.604816e-001
3.332531e+003;1.613928e-001
3.334459e+003;1.618654e-001
3.336388e+003;1.619444e-001
3.338317e+003;1.618877e-001
3.340245e+003;1.616641e-001
3.342174e+003;1.615947e-001
3.344102e+003;1.610745e-001
3.346031e+003;1.596989e-001
3.347959e+003;1.584736e-001
3.349888e+003;1.574803e-001
3.351816e+003;1.572299e-001
3.353745e+003;1.566136e-001
3.355674e+003;1.558865e-001
3.357602e+003;1.557965e-001
3.359531e+003;1.552038e-001
3.361459e+003;1.533605e-001
3.363388e+003;1.516036e-001
3.365316e+003;1.506412e-001
3.367245e+003;1.499487e-001
3.369173e+003;1.493789e-001
3.371102e+003;1.488611e-001
3.373031e+003;1.481212e-001
3.374959e+003;1.472811e-001
3.376887e+003;1.464216e-001
3.378816e+003;1.456535e-001
3.380745e+003;1.451534e-001
3.382673e+003;1.447456e-001
3.384602e+003;1.443490e-001
3.386530e+003;1.435268e-001
3.388459e+003;1.422634e-001
3.390387e+003;1.411472e-001
3.392316e+003;1.402859e-001
3.394244e+003;1.397503e-001
3.396173e+003;1.397522e-001
3.398102e+003;1.387987e-001
3.400030e+003;1.371998e-001
3.401959e+003;1.361732e-001
3.403887e+003;1.356151e-001
3.405816e+003;1.349406e-001
3.407744e+003;1.347717e-001
3.409673e+003;1.343986e-001
3.411601e+003;1.329964e-001
3.413530e+003;1.320738e-001
3.415458e+003;1.312574e-001
3.417387e+003;1.299015e-001
3.419316e+003;1.287925e-001
3.421244e+003;1.276168e-001
3.423173e+003;1.265393e-001
3.425101e+003;1.255347e-001
3.427030e+003;1.246696e-001
3.428958e+003;1.243754e-001
3.430887e+003;1.237687e-001
3.432815e+003;1.225242e-001
3.434744e+003;1.211752e-001
3.436673e+003;1.204719e-001
3.438601e+003;1.198976e-001
3.440530e+003;1.185698e-001
3.442458e+003;1.175782e-001
3.444387e+003;1.164915e-001
3.446315e+003;1.152607e-001
3.448244e+003;1.147607e-001
3.450172e+003;1.140731e-001
3.452101e+003;1.130211e-001
3.454030e+003;1.119662e-001
3.455958e+003;1.109276e-001
3.457886e+003;1.100111e-001
3.459815e+003;1.089847e-001
3.461744e+003;1.075075e-001
3.463672e+003;1.064326e-001
3.465601e+003;1.055946e-001
3.467529e+003;1.052217e-001
3.469458e+003;1.048359e-001
3.471386e+003;1.034682e-001
3.473315e+003;1.022070e-001
3.475243e+003;1.013412e-001
3.477172e+003;1.001475e-001
3.479101e+003;9.854215e-002
3.481029e+003;9.744940e-002
3.482958e+003;9.702218e-002
3.484886e+003;9.625338e-002
3.486815e+003;9.532067e-002
3.488743e+003;9.491909e-002
3.490672e+003;9.439412e-002
3.492600e+003;9.347212e-002
3.494529e+003;9.260044e-002
3.496458e+003;9.188170e-002
3.498386e+003;9.103779e-002
3.500315e+003;9.010927e-002
3.502243e+003;8.877194e-002
3.504172e+003;8.741254e-002
3.506100e+003;8.608393e-002
3.508029e+003;8.550791e-002
3.509957e+003;8.588272e-002
3.511886e+003;8.558280e-002
3.513814e+003;8.420300e-002
3.515743e+003;8.323992e-002
3.517672e+003;8.239420e-002
3.519600e+003;8.169921e-002
3.521529e+003;8.130603e-002
3.523457e+003;8.032917e-002
3.525386e+003;7.881130e-002
3.527314e+003;7.787198e-002
3.529243e+003;7.727990e-002
3.531171e+003;7.675454e-002
3.533100e+003;7.583757e-002
3.535029e+003;7.500640e-002
3.536957e+003;7.438786e-002
3.538885e+003;7.368366e-002
3.540814e+003;7.350411e-002
3.542743e+003;7.343364e-002
3.544671e+003;7.231256e-002
3.546600e+003;7.078960e-002
3.548528e+003;7.027826e-002
3.550457e+003;6.984869e-002
3.552385e+003;6.932473e-002
3.554314e+003;6.902093e-002
3.556242e+003;6.807651e-002
3.558171e+003;6.724875e-002
3.560100e+003;6.683814e-002
3.562028e+003;6.636328e-002
3.563957e+003;6.565900e-002
3.565885e+003;6.540535e-002
3.567814e+003;6.513942e-002
3.569742e+003;6.441284e-002
3.571671e+003;6.383929e-002
3.573599e+003;6.310668e-002
3.575528e+003;6.179756e-002
3.577457e+003;6.135370e-002
3.579385e+003;6.096923e-002
3.581314e+003;6.024963e-002
3.583242e+003;6.007853e-002
3.585171e+003;6.006422e-002
3.587099e+003;5.928181e-002
3.589028e+003;5.885744e-002
3.590956e+003;5.862328e-002
3.592885e+003;5.761866e-002
3.594813e+003;5.676764e-002
3.596742e+003;5.619141e-002
3.598671e+003;5.574982e-002
3.600599e+003;5.529463e-002
3.602528e+003;5.492467e-002
3.604456e+003;5.504926e-002
3.606385e+003;5.510937e-002
3.608313e+003;5.498536e-002
3.610242e+003;5.447369e-002
3.612170e+003;5.357625e-002
3.614099e+003;5.295996e-002
3.616028e+003;5.318468e-002
3.617956e+003;5.341570e-002
3.619885e+003;5.250802e-002
3.621813e+003;5.225753e-002
3.623742e+003;5.254755e-002
3.625670e+003;5.198791e-002
3.627599e+003;5.156377e-002
3.629527e+003;5.128422e-002
3.631456e+003;5.088088e-002
3.633385e+003;5.057050e-002
3.635313e+003;5.038619e-002
3.637241e+003;5.042061e-002
3.639170e+003;5.042054e-002
3.641099e+003;4.971206e-002
3.643027e+003;4.902547e-002
3.644956e+003;4.893946e-002
3.646884e+003;4.889240e-002
3.648813e+003;4.890304e-002
3.650741e+003;4.862097e-002
3.652670e+003;4.858810e-002
3.654598e+003;4.860581e-002
3.656527e+003;4.828793e-002
3.658456e+003;4.831485e-002
3.660384e+003;4.834226e-002
3.662313e+003;4.799863e-002
3.664241e+003;4.765439e-002
3.666170e+003;4.762363e-002
3.668098e+003;4.699733e-002
3.670027e+003;4.653382e-002
3.671955e+003;4.682177e-002
3.673884e+003;4.676490e-002
3.675813e+003;4.603583e-002
3.677741e+003;4.577273e-002
3.679669e+003;4.664208e-002
3.681598e+003;4.679679e-002
3.683527e+003;4.648757e-002
3.685455e+003;4.619353e-002
3.687384e+003;4.616494e-002
3.689312e+003;4.651773e-002
3.691241e+003;4.600960e-002
3.693169e+003;4.530843e-002
3.695098e+003;4.521362e-002
3.697026e+003;4.513943e-002
3.698955e+003;4.512123e-002
3.700884e+003;4.548021e-002
3.702812e+003;4.620124e-002
3.704741e+003;4.643727e-002
3.706669e+003;4.575539e-002
3.708598e+003;4.535252e-002
3.710526e+003;4.511278e-002
3.712455e+003;4.494437e-002
3.714383e+003;4.443367e-002
3.716312e+003;4.373617e-002
3.718240e+003;4.397992e-002
3.720169e+003;4.434985e-002
3.722098e+003;4.482055e-002
3.724026e+003;4.503603e-002
3.725955e+003;4.499398e-002
3.727883e+003;4.531302e-002
3.729812e+003;4.485707e-002
3.731740e+003;4.414942e-002
3.733669e+003;4.449692e-002
3.735597e+003;4.496903e-002
3.737526e+003;4.489693e-002
3.739455e+003;4.431205e-002
3.741383e+003;4.413380e-002
3.743312e+003;4.382566e-002
3.745240e+003;4.371686e-002
3.747169e+003;4.440295e-002
3.749097e+003;4.493610e-002
3.751026e+003;4.532773e-002
3.752954e+003;4.540979e-002
3.754883e+003;4.496980e-002
3.756812e+003;4.407196e-002
3.758740e+003;4.388006e-002
3.760668e+003;4.427059e-002
3.762597e+003;4.478642e-002
3.764526e+003;4.501052e-002
3.766454e+003;4.477599e-002
3.768383e+003;4.477496e-002
3.770311e+003;4.448289e-002
3.772240e+003;4.402634e-002
3.774168e+003;4.459204e-002
3.776097e+003;4.502247e-002
3.778025e+003;4.449299e-002
3.779954e+003;4.384794e-002
3.781883e+003;4.368849e-002
3.783811e+003;4.418937e-002
3.785740e+003;4.500328e-002
3.787668e+003;4.495337e-002
3.789597e+003;4.482503e-002
3.791525e+003;4.495503e-002
3.793454e+003;4.485057e-002
3.795382e+003;4.493798e-002
3.797311e+003;4.503757e-002
3.799240e+003;4.467789e-002
3.801168e+003;4.437476e-002
3.803097e+003;4.436236e-002
3.805025e+003;4.451314e-002
3.806954e+003;4.429503e-002
3.808882e+003;4.457596e-002
3.810811e+003;4.535311e-002
3.812739e+003;4.583025e-002
3.814668e+003;4.586589e-002
3.816596e+003;4.563955e-002
3.818525e+003;4.546284e-002
3.820454e+003;4.470165e-002
3.822382e+003;4.423012e-002
3.824311e+003;4.435260e-002
3.826239e+003;4.497921e-002
3.828168e+003;4.577940e-002
3.830096e+003;4.601476e-002
3.832025e+003;4.556878e-002
3.833953e+003;4.548750e-002
3.835882e+003;4.554545e-002
3.837811e+003;4.503191e-002
3.839739e+003;4.429737e-002
3.841667e+003;4.429440e-002
3.843596e+003;4.499148e-002
3.845525e+003;4.516925e-002
3.847453e+003;4.464051e-002
3.849382e+003;4.496910e-002
3.851310e+003;4.571202e-002
3.853239e+003;4.601800e-002
3.855167e+003;4.562417e-002
3.857096e+003;4.537187e-002
3.859024e+003;4.533612e-002
3.860953e+003;4.550037e-002
3.862882e+003;4.541668e-002
3.864810e+003;4.549320e-002
3.866739e+003;4.628114e-002
3.868667e+003;4.680826e-002
3.870596e+003;4.664418e-002
3.872524e+003;4.643108e-002
3.874453e+003;4.579055e-002
3.876381e+003;4.510406e-002
3.878310e+003;4.567643e-002
3.880239e+003;4.623975e-002
3.882167e+003;4.594595e-002
3.884096e+003;4.623662e-002
3.886024e+003;4.664691e-002
3.887953e+003;4.661094e-002
3.889881e+003;4.651958e-002
3.891810e+003;4.639420e-002
3.893738e+003;4.700442e-002
3.895667e+003;4.771508e-002
3.897595e+003;4.810926e-002
3.899524e+003;4.744423e-002
3.901453e+003;4.679878e-002
3.903381e+003;4.701011e-002
3.905310e+003;4.689171e-002
3.907238e+003;4.668771e-002
3.909167e+003;4.684270e-002
3.911095e+003;4.715464e-002
3.913024e+003;4.717935e-002
3.914952e+003;4.683007e-002
3.916881e+003;4.682672e-002
3.918810e+003;4.641607e-002
3.920738e+003;4.583061e-002
3.922667e+003;4.618097e-002
3.924595e+003;4.642551e-002
3.926524e+003;4.687687e-002
3.928452e+003;4.747871e-002
3.930381e+003;4.743994e-002
3.932309e+003;4.659117e-002
3.934238e+003;4.668325e-002
3.936167e+003;4.762547e-002
3.938095e+003;4.723129e-002
3.940023e+003;4.723975e-002
3.941952e+003;4.714438e-002
3.943881e+003;4.712676e-002
3.945809e+003;4.775021e-002
3.947738e+003;4.779944e-002
3.949666e+003;4.759664e-002
3.951595e+003;4.753209e-002
3.953523e+003;4.758906e-002
3.955452e+003;4.736991e-002
3.957380e+003;4.717817e-002
3.959309e+003;4.755922e-002
3.961238e+003;4.779921e-002
3.963166e+003;4.730817e-002
3.965095e+003;4.753653e-002
3.967023e+003;4.715645e-002
3.968952e+003;4.674804e-002
3.970880e+003;4.779008e-002
3.972809e+003;4.854441e-002
3.974737e+003;4.778431e-002
3.976666e+003;4.732187e-002
3.978594e+003;4.726335e-002
3.980523e+003;4.768819e-002
3.982452e+003;4.810175e-002
3.984380e+003;4.758507e-002
3.986309e+003;4.749827e-002
3.988237e+003;4.720620e-002
3.990166e+003;4.692405e-002
3.992094e+003;4.732886e-002
3.994023e+003;4.738528e-002
3.995951e+003;4.768693e-002
3.997880e+003;4.774692e-002
3.999809e+003;4.700796e-002
4.001737e+003;0.000000e+000
