3.992094e+002;0.000000e+000
4.011380e+002;0.000000e+000
4.030665e+002;0.000000e+000
4.049951e+002;0.000000e+000
4.069236e+002;0.000000e+000
4.088522e+002;0.000000e+000
4.107807e+002;0.000000e+000
4.127093e+002;0.000000e+000
4.146378e+002;0.000000e+000
4.165664e+002;0.000000e+000
4.184949e+002;0.000000e+000
4.204235e+002;0.000000e+000
4.223520e+002;0.000000e+000
4.242806e+002;0.000000e+000
4.262091e+002;0.000000e+000
4.281377e+002;0.000000e+000
4.300662e+002;0.000000e+000
4.319948e+002;0.000000e+000
4.339233e+002;0.000000e+000
4.358519e+002;0.000000e+000
4.377804e+002;0.000000e+000
4.397090e+002;0.000000e+000
4.416375e+002;0.000000e+000
4.435660e+002;0.000000e+000
4.454946e+002;0.000000e+000
4.474232e+002;0.000000e+000
4.493517e+002;0.000000e+000
4.512802e+002;0.000000e+000
4.532088e+002;0.000000e+000
4.551373e+002;0.000000e+000
4.570659e+002;0.000000e+000
4.589944e+002;0.000000e+000
4.609230e+002;0.000000e+000
4.628515e+002;0.000000e+000
4.647801e+002;0.000000e+000
4.667086e+002;0.000000e+000
4.686372e+002;0.000000e+000
4.705657e+002;0.000000e+000
4.724943e+002;0.000000e+000
4.744228e+002;0.000000e+000
4.763513e+002;0.000000e+000
4.782799e+002;0.000000e+000
4.802085e+002;0.000000e+000
4.821370e+002;0.000000e+000
4.840656e+002;0.000000e+000
4.859941e+002;0.000000e+000
4.879226e+002;0.000000e+000
4.898512e+002;0.000000e+000
4.917798e+002;0.000000e+000
4.937083e+002;0.000000e+000
4.956368e+002;0.000000e+000
4.975654e+002;0.000000e+000
4.994939e+002;0.000000e+000
5.014225e+002;0.000000e+000
5.033510e+002;0.000000e+000
5.052796e+002;0.000000e+000
5.072081e+002;0.000000e+000
5.091367e+002;0.000000e+000
5.110652e+002;0.000000e+000
5.129938e+002;0.000000e+000
5.149223e+002;0.000000e+000
5.168509e+002;0.000000e+000
5.187794e+002;0.000000e+000
5.207079e+002;0.000000e+000
5.226365e+002;0.000000e+000
5.245651e+002;0.000000e+000
5.264936e+002;0.000000e+000
5.284222e+002;0.000000e+000
5.303507e+002;0.000000e+000
5.322792e+002;0.000000e+000
5.342078e+002;0.000000e+000
5.361364e+002;0.000000e+000
5.380649e+002;0.000000e+000
5.399935e+002;0.000000e+000
5.419220e+002;0.000000e+000
5.438505e+002;0.000000e+000
5.457791e+002;0.000000e+000
5.477076e+002;0.000000e+000
5.496362e+002;0.000000e+000
5.515648e+002;0.000000e+000
5.534933e+002;0.000000e+000
5.554218e+002;0.000000e+000
5.573504e+002;0.000000e+000
5.592789e+002;0.000000e+000
5.612075e+002;0.000000e+000
5.631360e+002;0.000000e+000
5.650646e+002;0.000000e+000
5.669931e+002;0.000000e+000
5.689217e+002;0.000000e+000
5.708502e+002;0.000000e+000
5.727787e+002;0.000000e+000
5.747073e+002;0.000000e+000
5.766359e+002;0.000000e+000
5.785644e+002;0.000000e+000
5.804930e+002;0.000000e+000
5.824215e+002;0.000000e+000
5.843500e+002;0.000000e+000
5.862786e+002;0.000000e+000
5.882072e+002;0.000000e+000
5.901357e+002;0.000000e+000
5.920643e+002;0.000000e+000
5.939928e+002;0.000000e+000
5.959213e+002;0.000000e+000
5.978499e+002;0.000000e+000
5.997784e+002;3.008126e-001
6.017070e+002;3.014340e-001
6.036355e+002;3.061561e-001
6.055641e+002;3.110826e-001
6.074926e+002;3.093288e-001
6.094211e+002;3.066089e-001
6.113497e+002;3.031561e-001
6.132783e+002;3.023880e-001
6.152068e+002;3.033358e-001
6.171354e+002;3.037674e-001
6.190639e+002;2.999249e-001
6.209924e+002;2.910531e-001
6.229210e+002;2.823348e-001
6.248495e+002;2.724329e-001
6.267781e+002;2.682337e-001
6.287067e+002;2.691425e-001
6.306352e+002;2.670504e-001
6.325637e+002;2.665796e-001
6.344923e+002;2.659716e-001
6.364208e+002;2.665617e-001
6.383494e+002;2.672747e-001
6.402780e+002;2.648591e-001
6.422065e+002;2.632617e-001
6.441350e+002;2.580500e-001
6.460636e+002;2.518402e-001
6.479921e+002;2.503624e-001
6.499207e+002;2.525745e-001
6.518492e+002;2.577081e-001
6.537778e+002;2.629438e-001
6.557063e+002;2.680306e-001
6.576349e+002;2.718984e-001
6.595634e+002;2.720253e-001
6.614919e+002;2.711150e-001
6.634205e+002;2.717190e-001
6.653491e+002;2.710732e-001
6.672776e+002;2.688236e-001
6.692062e+002;2.665870e-001
6.711347e+002;2.629373e-001
6.730632e+002;2.570828e-001
6.749918e+002;2.490001e-001
6.769203e+002;2.414294e-001
6.788489e+002;2.357551e-001
6.807775e+002;2.312926e-001
6.827060e+002;2.272390e-001
6.846345e+002;2.246174e-001
6.865631e+002;2.230006e-001
6.884916e+002;2.216252e-001
6.904202e+002;2.197762e-001
6.923488e+002;2.185214e-001
6.942773e+002;2.181137e-001
6.962058e+002;2.172356e-001
6.981344e+002;2.164422e-001
7.000629e+002;2.152591e-001
7.019915e+002;2.132194e-001
7.039200e+002;2.115831e-001
7.058486e+002;2.099486e-001
7.077771e+002;2.081306e-001
7.097057e+002;2.074802e-001
7.116342e+002;2.054782e-001
7.135627e+002;2.023324e-001
7.154913e+002;1.990250e-001
7.174199e+002;1.954300e-001
7.193484e+002;1.924707e-001
7.212770e+002;1.901571e-001
7.232055e+002;1.867105e-001
7.251340e+002;1.820173e-001
7.270626e+002;1.776551e-001
7.289911e+002;1.751445e-001
7.309197e+002;1.727398e-001
7.328483e+002;1.710809e-001
7.347768e+002;1.697342e-001
7.367053e+002;1.662050e-001
7.386339e+002;1.632545e-001
7.405624e+002;1.624120e-001
7.424910e+002;1.601465e-001
7.444196e+002;1.570943e-001
7.463481e+002;1.555467e-001
7.482766e+002;1.561533e-001
7.502052e+002;1.555678e-001
7.521337e+002;1.534487e-001
7.540623e+002;1.510245e-001
7.559908e+002;1.489904e-001
7.579194e+002;1.474787e-001
7.598479e+002;1.460250e-001
7.617765e+002;1.445248e-001
7.637050e+002;1.433318e-001
7.656335e+002;1.420989e-001
7.675621e+002;1.404984e-001
7.694907e+002;1.396893e-001
7.714192e+002;1.386376e-001
7.733478e+002;1.378306e-001
7.752763e+002;1.377588e-001
7.772048e+002;1.369244e-001
7.791334e+002;1.359540e-001
7.810620e+002;1.359026e-001
7.829905e+002;1.356069e-001
7.849191e+002;1.337747e-001
7.868476e+002;1.326206e-001
7.887761e+002;1.326816e-001
7.907047e+002;1.327496e-001
7.926332e+002;1.328927e-001
7.945618e+002;1.331723e-001
7.964903e+002;1.327983e-001
7.984189e+002;1.321515e-001
8.003474e+002;1.315570e-001
8.022759e+002;1.315138e-001
8.042045e+002;1.320093e-001
8.061331e+002;1.317681e-001
8.080616e+002;1.315592e-001
8.099902e+002;1.316993e-001
8.119187e+002;1.309835e-001
8.138472e+002;1.296754e-001
8.157758e+002;1.286886e-001
8.177043e+002;1.282591e-001
8.196329e+002;1.281068e-001
8.215615e+002;1.272267e-001
8.234900e+002;1.254126e-001
8.254185e+002;1.245815e-001
8.273471e+002;1.248318e-001
8.292756e+002;1.242093e-001
8.312042e+002;1.234385e-001
8.331328e+002;1.231894e-001
8.350613e+002;1.229187e-001
8.369898e+002;1.231142e-001
8.389184e+002;1.236981e-001
8.408469e+002;1.243021e-001
8.427755e+002;1.241857e-001
8.447040e+002;1.238989e-001
8.466326e+002;1.239913e-001
8.485611e+002;1.241417e-001
8.504897e+002;1.245210e-001
8.524182e+002;1.249835e-001
8.543467e+002;1.262611e-001
8.562753e+002;1.276741e-001
8.582039e+002;1.285802e-001
8.601324e+002;1.302371e-001
8.620610e+002;1.321916e-001
8.639895e+002;1.342510e-001
8.659180e+002;1.364385e-001
8.678466e+002;1.389860e-001
8.697751e+002;1.415328e-001
8.717037e+002;1.438927e-001
8.736323e+002;1.460721e-001
8.755608e+002;1.477541e-001
8.774893e+002;1.486277e-001
8.794179e+002;1.503702e-001
8.813464e+002;1.530323e-001
8.832750e+002;1.556262e-001
8.852036e+002;1.585061e-001
8.871321e+002;1.620227e-001
8.890606e+002;1.653930e-001
8.909892e+002;1.678997e-001
8.929177e+002;1.698910e-001
8.948463e+002;1.710498e-001
8.967748e+002;1.713828e-001
8.987034e+002;1.713211e-001
9.006319e+002;1.705084e-001
9.025605e+002;1.687880e-001
9.044890e+002;1.662004e-001
9.064175e+002;1.640567e-001
9.083461e+002;1.621720e-001
9.102747e+002;1.597617e-001
9.122032e+002;1.576679e-001
9.141318e+002;1.561204e-001
9.160603e+002;1.552995e-001
9.179888e+002;1.552564e-001
9.199174e+002;1.554541e-001
9.218459e+002;1.560656e-001
9.237745e+002;1.572540e-001
9.257031e+002;1.582419e-001
9.276316e+002;1.593338e-001
9.295601e+002;1.607180e-001
9.314887e+002;1.626325e-001
9.334172e+002;1.646098e-001
9.353458e+002;1.667005e-001
9.372744e+002;1.689036e-001
9.392029e+002;1.711189e-001
9.411314e+002;1.734803e-001
9.430600e+002;1.759906e-001
9.449885e+002;1.786162e-001
9.469171e+002;1.813306e-001
9.488456e+002;1.843290e-001
9.507742e+002;1.880357e-001
9.527027e+002;1.921170e-001
9.546313e+002;1.965315e-001
9.565598e+002;2.015294e-001
9.584883e+002;2.070657e-001
9.604169e+002;2.124361e-001
9.623455e+002;2.182714e-001
9.642740e+002;2.248049e-001
9.662026e+002;2.316674e-001
9.681311e+002;2.395633e-001
9.700596e+002;2.487897e-001
9.719882e+002;2.593630e-001
9.739167e+002;2.715788e-001
9.758453e+002;2.859644e-001
9.777739e+002;3.029043e-001
9.797024e+002;3.203557e-001
9.816309e+002;3.358060e-001
9.835595e+002;3.475363e-001
9.854880e+002;3.543562e-001
9.874166e+002;3.580891e-001
9.893452e+002;3.623567e-001
9.912737e+002;3.688030e-001
9.932022e+002;3.769647e-001
9.951307e+002;3.852648e-001
9.970593e+002;3.943729e-001
9.989879e+002;4.031022e-001
1.000916e+003;4.088624e-001
1.002845e+003;4.124280e-001
1.004773e+003;4.146221e-001
1.006702e+003;4.160068e-001
1.008631e+003;4.186475e-001
1.010559e+003;4.237430e-001
1.012488e+003;4.301555e-001
1.014416e+003;4.365412e-001
1.016345e+003;4.431519e-001
1.018273e+003;4.501723e-001
1.020202e+003;4.572730e-001
1.022130e+003;4.640933e-001
1.024059e+003;4.698948e-001
1.025988e+003;4.753929e-001
1.027916e+003;4.792311e-001
1.029845e+003;4.807009e-001
1.031773e+003;4.800618e-001
1.033702e+003;4.765786e-001
1.035630e+003;4.697662e-001
1.037559e+003;4.611664e-001
1.039487e+003;4.531318e-001
1.041416e+003;4.484646e-001
1.043344e+003;4.467923e-001
1.045273e+003;4.467738e-001
1.047202e+003;4.489111e-001
1.049130e+003;4.520310e-001
1.051059e+003;4.541708e-001
1.052987e+003;4.547197e-001
1.054916e+003;4.518784e-001
1.056844e+003;4.458220e-001
1.058773e+003;4.364547e-001
1.060701e+003;4.231805e-001
1.062630e+003;4.066165e-001
1.064558e+003;3.890144e-001
1.066487e+003;3.723834e-001
1.068416e+003;3.580423e-001
1.070344e+003;3.459964e-001
1.072273e+003;3.364314e-001
1.074201e+003;3.289809e-001
1.076130e+003;3.226514e-001
1.078058e+003;3.162943e-001
1.079987e+003;3.104496e-001
1.081915e+003;3.057424e-001
1.083844e+003;3.027178e-001
1.085773e+003;3.013991e-001
1.087701e+003;3.004898e-001
1.089630e+003;2.993297e-001
1.091558e+003;2.988053e-001
1.093487e+003;2.991275e-001
1.095415e+003;3.002070e-001
1.097344e+003;3.013054e-001
1.099272e+003;3.020078e-001
1.101201e+003;3.020103e-001
1.103129e+003;3.001525e-001
1.105058e+003;2.975998e-001
1.106987e+003;2.943773e-001
1.108915e+003;2.889259e-001
1.110844e+003;2.813023e-001
1.112772e+003;2.716801e-001
1.114701e+003;2.607418e-001
1.116629e+003;2.485994e-001
1.118558e+003;2.372297e-001
1.120486e+003;2.286659e-001
1.122415e+003;2.217449e-001
1.124344e+003;2.141721e-001
1.126272e+003;2.061043e-001
1.128201e+003;1.987246e-001
1.130129e+003;1.922260e-001
1.132058e+003;1.864743e-001
1.133986e+003;1.815653e-001
1.135915e+003;1.782276e-001
1.137843e+003;1.761447e-001
1.139772e+003;1.755025e-001
1.141700e+003;1.762390e-001
1.143629e+003;1.774889e-001
1.145557e+003;1.792275e-001
1.147486e+003;1.809999e-001
1.149415e+003;1.822892e-001
1.151343e+003;1.836424e-001
1.153272e+003;1.849553e-001
1.155200e+003;1.859603e-001
1.157129e+003;1.865485e-001
1.159057e+003;1.865791e-001
1.160986e+003;1.853817e-001
1.162914e+003;1.817793e-001
1.164843e+003;1.759288e-001
1.166771e+003;1.686556e-001
1.168700e+003;1.602070e-001
1.170629e+003;1.515456e-001
1.172557e+003;1.441258e-001
1.174486e+003;1.372766e-001
1.176414e+003;1.311427e-001
1.178343e+003;1.264880e-001
1.180271e+003;1.229195e-001
1.182200e+003;1.204289e-001
1.184128e+003;1.188543e-001
1.186057e+003;1.182701e-001
1.187986e+003;1.188397e-001
1.189914e+003;1.205826e-001
1.191843e+003;1.227442e-001
1.193771e+003;1.254404e-001
1.195700e+003;1.284574e-001
1.197628e+003;1.308347e-001
1.199557e+003;1.322851e-001
1.201485e+003;1.330210e-001
1.203414e+003;1.328450e-001
1.205343e+003;1.313631e-001
1.207271e+003;1.285496e-001
1.209200e+003;1.246260e-001
1.211128e+003;1.207982e-001
1.213057e+003;1.179114e-001
1.214985e+003;1.166504e-001
1.216914e+003;1.172052e-001
1.218842e+003;1.183775e-001
1.220771e+003;1.198328e-001
1.222699e+003;1.216076e-001
1.224628e+003;1.234972e-001
1.226557e+003;1.254931e-001
1.228485e+003;1.274394e-001
1.230414e+003;1.293249e-001
1.232342e+003;1.307520e-001
1.234271e+003;1.316972e-001
1.236199e+003;1.321644e-001
1.238128e+003;1.324381e-001
1.240056e+003;1.329147e-001
1.241985e+003;1.336756e-001
1.243913e+003;1.347726e-001
1.245842e+003;1.359115e-001
1.247771e+003;1.364901e-001
1.249699e+003;1.364876e-001
1.251628e+003;1.362721e-001
1.253556e+003;1.362928e-001
1.255485e+003;1.363818e-001
1.257413e+003;1.365319e-001
1.259342e+003;1.368007e-001
1.261270e+003;1.367514e-001
1.263199e+003;1.361800e-001
1.265127e+003;1.360207e-001
1.267056e+003;1.365175e-001
1.268985e+003;1.370420e-001
1.270913e+003;1.374972e-001
1.272842e+003;1.377185e-001
1.274770e+003;1.377984e-001
1.276699e+003;1.378538e-001
1.278627e+003;1.376993e-001
1.280556e+003;1.371068e-001
1.282484e+003;1.358848e-001
1.284413e+003;1.347697e-001
1.286342e+003;1.344165e-001
1.288270e+003;1.344833e-001
1.290199e+003;1.350587e-001
1.292127e+003;1.360713e-001
1.294056e+003;1.371630e-001
1.295984e+003;1.385716e-001
1.297913e+003;1.403032e-001
1.299841e+003;1.427348e-001
1.301770e+003;1.460845e-001
1.303698e+003;1.499621e-001
1.305627e+003;1.540504e-001
1.307556e+003;1.587416e-001
1.309484e+003;1.633137e-001
1.311413e+003;1.669801e-001
1.313341e+003;1.692146e-001
1.315270e+003;1.695651e-001
1.317198e+003;1.679287e-001
1.319127e+003;1.647857e-001
1.321055e+003;1.612032e-001
1.322984e+003;1.581185e-001
1.324912e+003;1.558912e-001
1.326841e+003;1.548081e-001
1.328770e+003;1.549454e-001
1.330698e+003;1.558151e-001
1.332627e+003;1.568210e-001
1.334555e+003;1.571879e-001
1.336484e+003;1.566139e-001
1.338412e+003;1.550182e-001
1.340341e+003;1.528425e-001
1.342269e+003;1.503053e-001
1.344198e+003;1.476364e-001
1.346126e+003;1.452986e-001
1.348055e+003;1.437799e-001
1.349984e+003;1.435096e-001
1.351912e+003;1.440468e-001
1.353841e+003;1.448676e-001
1.355769e+003;1.459432e-001
1.357698e+003;1.469525e-001
1.359626e+003;1.479157e-001
1.361555e+003;1.481318e-001
1.363483e+003;1.471399e-001
1.365412e+003;1.463320e-001
1.367341e+003;1.458337e-001
1.369269e+003;1.449604e-001
1.371198e+003;1.435249e-001
1.373126e+003;1.412632e-001
1.375055e+003;1.384399e-001
1.376983e+003;1.352838e-001
1.378912e+003;1.319539e-001
1.380840e+003;1.287904e-001
1.382769e+003;1.259634e-001
1.384698e+003;1.234180e-001
1.386626e+003;1.215322e-001
1.388555e+003;1.200532e-001
1.390483e+003;1.187375e-001
1.392412e+003;1.178430e-001
1.394340e+003;1.175256e-001
1.396269e+003;1.176133e-001
1.398197e+003;1.179513e-001
1.400126e+003;1.184065e-001
1.402054e+003;1.188293e-001
1.403983e+003;1.193173e-001
1.405911e+003;1.196671e-001
1.407840e+003;1.200219e-001
1.409769e+003;1.208429e-001
1.411697e+003;1.219213e-001
1.413626e+003;1.230840e-001
1.415554e+003;1.240564e-001
1.417483e+003;1.251316e-001
1.419411e+003;1.267259e-001
1.421340e+003;1.284394e-001
1.423268e+003;1.295419e-001
1.425197e+003;1.301172e-001
1.427125e+003;1.303283e-001
1.429054e+003;1.299839e-001
1.430983e+003;1.290793e-001
1.432911e+003;1.275481e-001
1.434840e+003;1.255563e-001
1.436768e+003;1.234948e-001
1.438697e+003;1.219325e-001
1.440625e+003;1.208961e-001
1.442554e+003;1.199723e-001
1.444482e+003;1.192253e-001
1.446411e+003;1.185663e-001
1.448340e+003;1.180075e-001
1.450268e+003;1.174984e-001
1.452197e+003;1.168099e-001
1.454125e+003;1.156784e-001
1.456054e+003;1.143212e-001
1.457982e+003;1.129021e-001
1.459911e+003;1.117827e-001
1.461839e+003;1.104878e-001
1.463768e+003;1.083389e-001
1.465697e+003;1.059344e-001
1.467625e+003;1.037897e-001
1.469554e+003;1.014020e-001
1.471482e+003;9.908427e-002
1.473411e+003;9.700719e-002
1.475339e+003;9.476879e-002
1.477268e+003;9.271511e-002
1.479196e+003;9.113549e-002
1.481125e+003;8.949112e-002
1.483053e+003;8.743499e-002
1.484982e+003;8.519141e-002
1.486911e+003;8.313434e-002
1.488839e+003;8.135450e-002
1.490768e+003;8.009419e-002
1.492696e+003;7.922593e-002
1.494625e+003;7.834396e-002
1.496553e+003;7.775421e-002
1.498482e+003;7.730512e-002
1.500410e+003;7.713666e-002
1.502339e+003;7.711976e-002
1.504267e+003;7.675031e-002
1.506196e+003;7.627208e-002
1.508125e+003;7.596787e-002
1.510053e+003;7.579764e-002
1.511982e+003;7.526024e-002
1.513910e+003;7.500521e-002
1.515839e+003;7.490272e-002
1.517767e+003;7.434090e-002
1.519696e+003;7.367238e-002
1.521624e+003;7.356718e-002
1.523553e+003;7.385404e-002
1.525481e+003;7.378613e-002
1.527410e+003;7.352389e-002
1.529339e+003;7.315353e-002
1.531267e+003;7.314325e-002
1.533196e+003;7.334442e-002
1.535124e+003;7.331248e-002
1.537053e+003;7.326341e-002
1.538981e+003;7.309107e-002
1.540910e+003;7.290017e-002
1.542838e+003;7.302661e-002
1.544767e+003;7.335128e-002
1.546695e+003;7.358587e-002
1.548624e+003;7.365743e-002
1.550553e+003;7.379839e-002
1.552481e+003;7.393162e-002
1.554410e+003;7.404091e-002
1.556338e+003;7.392238e-002
1.558267e+003;7.366654e-002
1.560195e+003;7.395181e-002
1.562124e+003;7.442730e-002
1.564052e+003;7.468107e-002
1.565981e+003;7.492083e-002
1.567910e+003;7.496229e-002
1.569838e+003;7.534815e-002
1.571767e+003;7.610054e-002
1.573695e+003;7.631027e-002
1.575624e+003;7.638461e-002
1.577552e+003;7.689790e-002
1.579481e+003;7.737884e-002
1.581409e+003;7.764667e-002
1.583338e+003;7.799464e-002
1.585266e+003;7.836456e-002
1.587195e+003;7.903160e-002
1.589124e+003;7.968733e-002
1.591052e+003;7.988163e-002
1.592981e+003;7.989345e-002
1.594909e+003;8.033962e-002
1.596838e+003;8.094622e-002
1.598766e+003;8.149499e-002
1.600695e+003;8.190855e-002
1.602623e+003;8.256042e-002
1.604552e+003;8.309025e-002
1.606480e+003;8.293613e-002
1.608409e+003;8.295326e-002
1.610338e+003;8.344160e-002
1.612266e+003;8.359092e-002
1.614195e+003;8.344723e-002
1.616123e+003;8.345421e-002
1.618052e+003;8.359396e-002
1.619980e+003;8.363418e-002
1.621909e+003;8.386365e-002
1.623837e+003;8.438505e-002
1.625766e+003;8.467733e-002
1.627694e+003;8.469252e-002
1.629623e+003;8.470266e-002
1.631552e+003;8.440863e-002
1.633480e+003;8.434360e-002
1.635409e+003;8.443769e-002
1.637337e+003;8.445830e-002
1.639266e+003;8.448578e-002
1.641194e+003;8.436115e-002
1.643123e+003;8.417702e-002
1.645051e+003;8.378199e-002
1.646980e+003;8.319537e-002
1.648909e+003;8.289967e-002
1.650837e+003;8.256118e-002
1.652766e+003;8.225890e-002
1.654694e+003;8.230672e-002
1.656623e+003;8.213151e-002
1.658551e+003;8.148040e-002
1.660480e+003;8.079059e-002
1.662408e+003;8.010753e-002
1.664337e+003;7.945471e-002
1.666266e+003;7.887522e-002
1.668194e+003;7.829226e-002
1.670123e+003;7.783242e-002
1.672051e+003;7.752810e-002
1.673980e+003;7.711027e-002
1.675908e+003;7.643605e-002
1.677837e+003;7.592525e-002
1.679765e+003;7.518797e-002
1.681694e+003;7.449739e-002
1.683622e+003;7.405157e-002
1.685551e+003;7.373917e-002
1.687479e+003;7.356495e-002
1.689408e+003;7.329565e-002
1.691337e+003;7.305374e-002
1.693265e+003;7.288571e-002
1.695194e+003;7.243551e-002
1.697122e+003;7.216547e-002
1.699051e+003;7.197326e-002
1.700979e+003;7.169905e-002
1.702908e+003;7.179227e-002
1.704836e+003;7.196841e-002
1.706765e+003;7.206403e-002
1.708693e+003;7.204166e-002
1.710622e+003;7.205363e-002
1.712551e+003;7.206321e-002
1.714479e+003;7.208938e-002
1.716408e+003;7.207076e-002
1.718336e+003;7.226243e-002
1.720265e+003;7.271656e-002
1.722193e+003;7.302132e-002
1.724122e+003;7.300764e-002
1.726050e+003;7.310114e-002
1.727979e+003;7.338055e-002
1.729908e+003;7.350662e-002
1.731836e+003;7.339259e-002
1.733765e+003;7.290068e-002
1.735693e+003;7.233448e-002
1.737622e+003;7.187831e-002
1.739550e+003;7.086179e-002
1.741479e+003;6.943906e-002
1.743407e+003;6.802160e-002
1.745336e+003;6.717569e-002
1.747265e+003;6.646235e-002
1.749193e+003;6.563862e-002
1.751122e+003;6.514985e-002
1.753050e+003;6.488562e-002
1.754979e+003;6.488007e-002
1.756907e+003;6.492109e-002
1.758836e+003;6.496661e-002
1.760764e+003;6.489585e-002
1.762693e+003;6.480067e-002
1.764621e+003;6.474271e-002
1.766550e+003;6.464369e-002
1.768479e+003;6.462058e-002
1.770407e+003;6.437054e-002
1.772336e+003;6.396181e-002
1.774264e+003;6.416422e-002
1.776193e+003;6.438222e-002
1.778121e+003;6.402574e-002
1.780050e+003;6.363645e-002
1.781978e+003;6.375448e-002
1.783907e+003;6.370574e-002
1.785835e+003;6.341190e-002
1.787764e+003;6.354424e-002
1.789693e+003;6.361167e-002
1.791621e+003;6.342574e-002
1.793550e+003;6.327308e-002
1.795478e+003;6.327875e-002
1.797407e+003;6.320141e-002
1.799335e+003;6.302392e-002
1.801264e+003;6.287026e-002
1.803192e+003;6.272165e-002
1.805121e+003;6.260729e-002
1.807049e+003;6.267844e-002
1.808978e+003;6.265697e-002
1.810907e+003;6.268518e-002
1.812835e+003;6.281374e-002
1.814764e+003;6.282362e-002
1.816692e+003;6.283189e-002
1.818621e+003;6.264759e-002
1.820549e+003;6.256939e-002
1.822478e+003;6.254965e-002
1.824406e+003;6.249076e-002
1.826335e+003;6.258685e-002
1.828264e+003;6.240923e-002
1.830192e+003;6.223502e-002
1.832121e+003;6.210216e-002
1.834049e+003;6.180627e-002
1.835978e+003;6.165902e-002
1.837906e+003;6.186005e-002
1.839835e+003;6.202735e-002
1.841763e+003;6.202040e-002
1.843692e+003;6.176455e-002
1.845620e+003;6.165012e-002
1.847549e+003;6.170997e-002
1.849478e+003;6.163905e-002
1.851406e+003;6.151221e-002
1.853335e+003;6.155077e-002
1.855263e+003;6.137457e-002
1.857192e+003;6.107017e-002
1.859120e+003;6.115431e-002
1.861049e+003;6.120676e-002
1.862977e+003;6.117254e-002
1.864906e+003;6.127406e-002
1.866834e+003;6.136847e-002
1.868763e+003;6.151969e-002
1.870692e+003;6.144453e-002
1.872620e+003;6.112463e-002
1.874549e+003;6.101175e-002
1.876477e+003;6.115076e-002
1.878406e+003;6.132538e-002
1.880334e+003;6.133752e-002
1.882263e+003;6.131691e-002
1.884191e+003;6.112788e-002
1.886120e+003;6.100885e-002
1.888048e+003;6.091872e-002
1.889977e+003;6.077780e-002
1.891906e+003;6.084362e-002
1.893834e+003;6.095353e-002
1.895763e+003;6.080497e-002
1.897691e+003;6.074354e-002
1.899620e+003;6.084164e-002
1.901548e+003;6.076869e-002
1.903477e+003;6.071454e-002
1.905405e+003;6.087503e-002
1.907334e+003;6.096039e-002
1.909262e+003;6.105126e-002
1.911191e+003;6.111422e-002
1.913120e+003;6.137587e-002
1.915048e+003;6.144961e-002
1.916977e+003;6.116255e-002
1.918905e+003;6.112460e-002
1.920834e+003;6.142907e-002
1.922762e+003;6.167518e-002
1.924691e+003;6.156364e-002
1.926619e+003;6.132126e-002
1.928548e+003;6.122835e-002
1.930477e+003;6.134885e-002
1.932405e+003;6.154172e-002
1.934334e+003;6.158761e-002
1.936262e+003;6.158448e-002
1.938191e+003;6.149828e-002
1.940119e+003;6.175683e-002
1.942048e+003;6.204264e-002
1.943976e+003;6.204639e-002
1.945905e+003;6.198245e-002
1.947833e+003;6.193311e-002
1.949762e+003;6.195188e-002
1.951691e+003;6.202231e-002
1.953619e+003;6.199120e-002
1.955548e+003;6.189597e-002
1.957476e+003;6.199215e-002
1.959405e+003;6.198298e-002
1.961333e+003;6.176195e-002
1.963262e+003;6.172360e-002
1.965190e+003;6.186128e-002
1.967119e+003;6.183931e-002
1.969047e+003;6.196254e-002
1.970976e+003;6.200068e-002
1.972905e+003;6.202628e-002
1.974833e+003;6.207311e-002
1.976762e+003;6.233946e-002
1.978690e+003;6.254698e-002
1.980619e+003;6.259328e-002
1.982547e+003;6.264537e-002
1.984476e+003;6.263174e-002
1.986404e+003;6.260495e-002
1.988333e+003;6.261062e-002
1.990261e+003;6.279210e-002
1.992190e+003;6.276657e-002
1.994119e+003;6.265984e-002
1.996047e+003;6.286999e-002
1.997976e+003;6.274842e-002
1.999904e+003;6.245151e-002
2.001833e+003;6.244661e-002
2.003761e+003;6.246846e-002
2.005690e+003;6.252202e-002
2.007618e+003;6.268226e-002
2.009547e+003;6.285138e-002
2.011476e+003;6.303783e-002
2.013404e+003;6.332035e-002
2.015333e+003;6.361478e-002
2.017261e+003;6.361858e-002
2.019190e+003;6.343260e-002
2.021118e+003;6.353561e-002
2.023047e+003;6.370021e-002
2.024975e+003;6.366680e-002
2.026904e+003;6.360201e-002
2.028833e+003;6.361926e-002
2.030761e+003;6.366760e-002
2.032690e+003;6.374296e-002
2.034618e+003;6.348541e-002
2.036547e+003;6.326710e-002
2.038475e+003;6.351348e-002
2.040404e+003;6.356315e-002
2.042332e+003;6.343517e-002
2.044261e+003;6.347283e-002
2.046189e+003;6.357910e-002
2.048118e+003;6.355882e-002
2.050047e+003;6.352069e-002
2.051975e+003;6.371699e-002
2.053904e+003;6.369837e-002
2.055832e+003;6.348759e-002
2.057761e+003;6.328952e-002
2.059689e+003;6.320605e-002
2.061618e+003;6.328116e-002
2.063546e+003;6.341957e-002
2.065475e+003;6.332529e-002
2.067404e+003;6.304813e-002
2.069332e+003;6.300488e-002
2.071260e+003;6.304093e-002
2.073189e+003;6.314477e-002
2.075118e+003;6.323027e-002
2.077046e+003;6.304561e-002
2.078975e+003;6.299565e-002
2.080903e+003;6.312208e-002
2.082832e+003;6.322260e-002
2.084760e+003;6.313822e-002
2.086689e+003;6.320903e-002
2.088617e+003;6.320126e-002
2.090546e+003;6.307729e-002
2.092475e+003;6.332210e-002
2.094403e+003;6.337072e-002
2.096332e+003;6.314737e-002
2.098260e+003;6.306323e-002
2.100189e+003;6.309611e-002
2.102117e+003;6.319102e-002
2.104046e+003;6.330282e-002
2.105974e+003;6.337363e-002
2.107903e+003;6.316546e-002
2.109832e+003;6.286795e-002
2.111760e+003;6.287313e-002
2.113688e+003;6.300940e-002
2.115617e+003;6.287275e-002
2.117546e+003;6.294850e-002
2.119474e+003;6.328493e-002
2.121403e+003;6.326833e-002
2.123331e+003;6.313971e-002
2.125260e+003;6.317527e-002
2.127188e+003;6.330766e-002
2.129117e+003;6.359218e-002
2.131045e+003;6.369227e-002
2.132974e+003;6.357577e-002
2.134903e+003;6.354616e-002
2.136831e+003;6.355820e-002
2.138760e+003;6.346006e-002
2.140688e+003;6.351616e-002
2.142617e+003;6.356131e-002
2.144545e+003;6.328186e-002
2.146474e+003;6.301155e-002
2.148402e+003;6.318378e-002
2.150331e+003;6.348107e-002
2.152260e+003;6.352909e-002
2.154188e+003;6.323111e-002
2.156117e+003;6.302799e-002
2.158045e+003;6.313500e-002
2.159974e+003;6.329527e-002
2.161902e+003;6.307181e-002
2.163831e+003;6.289189e-002
2.165759e+003;6.287163e-002
2.167688e+003;6.284085e-002
2.169616e+003;6.283924e-002
2.171545e+003;6.274562e-002
2.173474e+003;6.264716e-002
2.175402e+003;6.241000e-002
2.177331e+003;6.217854e-002
2.179259e+003;6.223804e-002
2.181188e+003;6.237144e-002
2.183116e+003;6.208717e-002
2.185045e+003;6.183709e-002
2.186973e+003;6.185390e-002
2.188902e+003;6.179160e-002
2.190831e+003;6.170050e-002
2.192759e+003;6.178556e-002
2.194688e+003;6.189616e-002
2.196616e+003;6.204929e-002
2.198545e+003;6.198592e-002
2.200473e+003;6.160950e-002
2.202402e+003;6.132035e-002
2.204330e+003;6.128440e-002
2.206259e+003;6.116682e-002
2.208188e+003;6.096070e-002
2.210116e+003;6.123110e-002
2.212044e+003;6.156116e-002
2.213973e+003;6.154829e-002
2.215902e+003;6.143507e-002
2.217830e+003;6.129047e-002
2.219759e+003;6.123385e-002
2.221687e+003;6.149297e-002
2.223616e+003;6.171172e-002
2.225544e+003;6.163561e-002
2.227473e+003;6.149236e-002
2.229401e+003;6.158513e-002
2.231330e+003;6.165112e-002
2.233259e+003;6.146083e-002
2.235187e+003;6.119169e-002
2.237116e+003;6.119753e-002
2.239044e+003;6.140083e-002
2.240973e+003;6.141461e-002
2.242901e+003;6.125082e-002
2.244830e+003;6.128837e-002
2.246758e+003;6.139507e-002
2.248687e+003;6.132832e-002
2.250615e+003;6.134187e-002
2.252544e+003;6.135438e-002
2.254473e+003;6.113775e-002
2.256401e+003;6.098937e-002
2.258330e+003;6.113939e-002
2.260258e+003;6.106472e-002
2.262187e+003;6.081850e-002
2.264115e+003;6.076705e-002
2.266044e+003;6.077578e-002
2.267972e+003;6.075135e-002
2.269901e+003;6.061784e-002
2.271830e+003;6.041163e-002
2.273758e+003;6.046749e-002
2.275687e+003;6.051369e-002
2.277615e+003;6.023696e-002
2.279544e+003;6.030525e-002
2.281472e+003;6.059574e-002
2.283401e+003;6.060309e-002
2.285329e+003;6.065891e-002
2.287258e+003;6.069377e-002
2.289187e+003;6.044407e-002
2.291115e+003;6.038513e-002
2.293043e+003;6.046814e-002
2.294972e+003;6.035604e-002
2.296901e+003;6.041547e-002
2.298829e+003;6.055590e-002
2.300758e+003;6.069960e-002
2.302686e+003;6.057574e-002
2.304615e+003;6.029801e-002
2.306543e+003;6.017572e-002
2.308472e+003;6.014322e-002
2.310400e+003;6.016293e-002
2.312329e+003;6.044346e-002
2.314258e+003;6.076137e-002
2.316186e+003;6.047191e-002
2.318115e+003;6.021442e-002
2.320043e+003;6.030826e-002
2.321972e+003;6.051004e-002
2.323900e+003;6.103917e-002
2.325829e+003;6.139980e-002
2.327757e+003;6.132862e-002
2.329686e+003;6.133107e-002
2.331615e+003;6.117136e-002
2.333543e+003;6.084911e-002
2.335472e+003;6.074129e-002
2.337400e+003;6.097396e-002
2.339329e+003;6.105221e-002
2.341257e+003;6.101480e-002
2.343186e+003;6.123724e-002
2.345114e+003;6.143529e-002
2.347043e+003;6.157654e-002
2.348971e+003;6.158204e-002
2.350900e+003;6.119295e-002
2.352829e+003;6.126464e-002
2.354757e+003;6.174874e-002
2.356686e+003;6.186414e-002
2.358614e+003;6.163512e-002
2.360543e+003;6.154413e-002
2.362471e+003;6.184164e-002
2.364400e+003;6.214567e-002
2.366328e+003;6.204570e-002
2.368257e+003;6.188600e-002
2.370186e+003;6.203588e-002
2.372114e+003;6.232137e-002
2.374042e+003;6.224007e-002
2.375971e+003;6.203030e-002
2.377900e+003;6.202246e-002
2.379828e+003;6.220917e-002
2.381757e+003;6.239864e-002
2.383685e+003;6.228596e-002
2.385614e+003;6.207020e-002
2.387542e+003;6.218382e-002
2.389471e+003;6.229399e-002
2.391399e+003;6.220172e-002
2.393328e+003;6.226863e-002
2.395257e+003;6.282254e-002
2.397185e+003;6.308449e-002
2.399114e+003;6.270003e-002
2.401042e+003;6.254705e-002
2.402971e+003;6.283364e-002
2.404899e+003;6.307530e-002
2.406828e+003;6.303541e-002
2.408756e+003;6.297895e-002
2.410685e+003;6.304044e-002
2.412614e+003;6.320723e-002
2.414542e+003;6.350032e-002
2.416471e+003;6.382693e-002
2.418399e+003;6.384546e-002
2.420328e+003;6.389287e-002
2.422256e+003;6.390227e-002
2.424185e+003;6.370294e-002
2.426113e+003;6.364604e-002
2.428042e+003;6.381629e-002
2.429970e+003;6.410293e-002
2.431899e+003;6.423429e-002
2.433828e+003;6.413023e-002
2.435756e+003;6.424455e-002
2.437685e+003;6.473067e-002
2.439613e+003;6.504046e-002
2.441542e+003;6.486049e-002
2.443470e+003;6.461696e-002
2.445399e+003;6.455710e-002
2.447327e+003;6.472763e-002
2.449256e+003;6.489173e-002
2.451185e+003;6.449898e-002
2.453113e+003;6.440189e-002
2.455042e+003;6.464999e-002
2.456970e+003;6.480163e-002
2.458899e+003;6.490301e-002
2.460827e+003;6.478187e-002
2.462756e+003;6.480291e-002
2.464684e+003;6.496338e-002
2.466613e+003;6.527518e-002
2.468542e+003;6.566895e-002
2.470470e+003;6.562952e-002
2.472398e+003;6.539083e-002
2.474327e+003;6.545054e-002
2.476256e+003;6.553122e-002
2.478184e+003;6.563549e-002
2.480113e+003;6.572850e-002
2.482041e+003;6.556632e-002
2.483970e+003;6.554855e-002
2.485898e+003;6.573760e-002
2.487827e+003;6.577896e-002
2.489755e+003;6.583995e-002
2.491684e+003;6.596775e-002
2.493613e+003;6.596471e-002
2.495541e+003;6.579118e-002
2.497470e+003;6.592244e-002
2.499398e+003;6.613471e-002
2.501327e+003;6.619267e-002
2.503255e+003;6.619021e-002
2.505184e+003;6.633165e-002
2.507112e+003;6.661987e-002
2.509041e+003;6.659222e-002
2.510969e+003;6.655537e-002
2.512898e+003;6.648563e-002
2.514827e+003;6.671452e-002
2.516755e+003;6.691068e-002
2.518684e+003;6.672256e-002
2.520612e+003;6.680579e-002
2.522541e+003;6.702136e-002
2.524469e+003;6.704359e-002
2.526398e+003;6.712499e-002
2.528326e+003;6.732660e-002
2.530255e+003;6.733847e-002
2.532184e+003;6.710136e-002
2.534112e+003;6.679180e-002
2.536041e+003;6.660643e-002
2.537969e+003;6.669312e-002
2.539898e+003;6.661937e-002
2.541826e+003;6.661084e-002
2.543755e+003;6.689707e-002
2.545683e+003;6.711447e-002
2.547612e+003;6.712808e-002
2.549541e+003;6.714939e-002
2.551469e+003;6.698594e-002
2.553397e+003;6.687493e-002
2.555326e+003;6.679377e-002
2.557255e+003;6.706338e-002
2.559183e+003;6.740618e-002
2.561112e+003;6.741524e-002
2.563040e+003;6.741118e-002
2.564969e+003;6.747759e-002
2.566897e+003;6.730442e-002
2.568826e+003;6.704088e-002
2.570754e+003;6.667283e-002
2.572683e+003;6.669597e-002
2.574612e+003;6.725708e-002
2.576540e+003;6.747101e-002
2.578469e+003;6.758931e-002
2.580397e+003;6.788041e-002
2.582326e+003;6.781565e-002
2.584254e+003;6.750952e-002
2.586183e+003;6.759991e-002
2.588111e+003;6.771642e-002
2.590040e+003;6.780658e-002
2.591969e+003;6.801362e-002
2.593897e+003;6.825747e-002
2.595826e+003;6.867464e-002
2.597754e+003;6.870930e-002
2.599683e+003;6.836081e-002
2.601611e+003;6.817183e-002
2.603540e+003;6.832091e-002
2.605468e+003;6.878103e-002
2.607397e+003;6.883651e-002
2.609325e+003;6.861228e-002
2.611254e+003;6.829093e-002
2.613183e+003;6.834813e-002
2.615111e+003;6.850340e-002
2.617040e+003;6.863346e-002
2.618968e+003;6.875976e-002
2.620897e+003;6.884661e-002
2.622825e+003;6.894415e-002
2.624754e+003;6.905752e-002
2.626682e+003;6.915433e-002
2.628611e+003;6.938133e-002
2.630540e+003;6.963307e-002
2.632468e+003;7.004238e-002
2.634396e+003;6.994615e-002
2.636325e+003;6.935964e-002
2.638254e+003;6.919820e-002
2.640182e+003;6.937250e-002
2.642111e+003;6.972367e-002
2.644039e+003;6.996304e-002
2.645968e+003;7.032477e-002
2.647896e+003;7.031986e-002
2.649825e+003;7.024807e-002
2.651753e+003;7.027490e-002
2.653682e+003;7.040343e-002
2.655611e+003;7.068583e-002
2.657539e+003;7.076389e-002
2.659468e+003;7.068844e-002
2.661396e+003;7.085110e-002
2.663325e+003;7.111017e-002
2.665253e+003;7.111525e-002
2.667182e+003;7.109359e-002
2.669110e+003;7.106724e-002
2.671039e+003;7.089303e-002
2.672968e+003;7.087689e-002
2.674896e+003;7.132325e-002
2.676825e+003;7.152525e-002
2.678753e+003;7.124125e-002
2.680682e+003;7.146490e-002
2.682610e+003;7.206853e-002
2.684539e+003;7.218143e-002
2.686467e+003;7.199934e-002
2.688396e+003;7.200619e-002
2.690324e+003;7.209145e-002
2.692253e+003;7.220679e-002
2.694182e+003;7.237675e-002
2.696110e+003;7.260752e-002
2.698039e+003;7.273971e-002
2.699967e+003;7.306166e-002
2.701896e+003;7.303190e-002
2.703824e+003;7.286662e-002
2.705753e+003;7.294156e-002
2.707681e+003;7.288696e-002
2.709610e+003;7.299447e-002
2.711539e+003;7.346691e-002
2.713467e+003;7.355619e-002
2.715396e+003;7.363117e-002
2.717324e+003;7.381865e-002
2.719253e+003;7.379285e-002
2.721181e+003;7.365813e-002
2.723110e+003;7.382478e-002
2.725038e+003;7.428924e-002
2.726967e+003;7.435066e-002
2.728896e+003;7.406858e-002
2.730824e+003;7.416867e-002
2.732752e+003;7.435872e-002
2.734681e+003;7.438368e-002
2.736610e+003;7.451095e-002
2.738538e+003;7.451528e-002
2.740467e+003;7.446522e-002
2.742395e+003;7.490268e-002
2.744324e+003;7.536770e-002
2.746252e+003;7.546179e-002
2.748181e+003;7.543384e-002
2.750109e+003;7.513043e-002
2.752038e+003;7.511269e-002
2.753967e+003;7.528041e-002
2.755895e+003;7.507441e-002
2.757824e+003;7.509300e-002
2.759752e+003;7.544859e-002
2.761681e+003;7.574182e-002
2.763609e+003;7.580269e-002
2.765538e+003;7.600931e-002
2.767466e+003;7.626718e-002
2.769395e+003;7.613789e-002
2.771323e+003;7.614835e-002
2.773252e+003;7.675051e-002
2.775181e+003;7.728897e-002
2.777109e+003;7.720342e-002
2.779038e+003;7.718728e-002
2.780966e+003;7.764295e-002
2.782895e+003;7.786202e-002
2.784823e+003;7.784859e-002
2.786752e+003;7.839607e-002
2.788680e+003;7.873634e-002
2.790609e+003;7.879040e-002
2.792538e+003;7.886692e-002
2.794466e+003;7.911687e-002
2.796395e+003;7.959852e-002
2.798323e+003;7.961572e-002
2.800252e+003;7.949805e-002
2.802180e+003;7.989780e-002
2.804109e+003;8.052955e-002
2.806037e+003;8.108313e-002
2.807966e+003;8.152125e-002
2.809895e+003;8.210689e-002
2.811823e+003;8.278664e-002
2.813751e+003;8.296990e-002
2.815680e+003;8.309426e-002
2.817609e+003;8.349240e-002
2.819537e+003;8.409968e-002
2.821466e+003;8.468970e-002
2.823394e+003;8.516368e-002
2.825323e+003;8.593707e-002
2.827251e+003;8.660080e-002
2.829180e+003;8.707023e-002
2.831108e+003;8.764151e-002
2.833037e+003;8.839448e-002
2.834966e+003;8.961675e-002
2.836894e+003;9.104387e-002
2.838823e+003;9.225872e-002
2.840751e+003;9.375694e-002
2.842680e+003;9.581681e-002
2.844608e+003;9.799298e-002
2.846537e+003;1.002201e-001
2.848465e+003;1.027001e-001
2.850394e+003;1.045890e-001
2.852323e+003;1.052949e-001
2.854251e+003;1.055052e-001
2.856180e+003;1.056917e-001
2.858108e+003;1.059277e-001
2.860037e+003;1.069681e-001
2.861965e+003;1.083161e-001
2.863894e+003;1.090468e-001
2.865822e+003;1.095310e-001
2.867751e+003;1.102978e-001
2.869679e+003;1.108930e-001
2.871608e+003;1.114138e-001
2.873536e+003;1.122297e-001
2.875465e+003;1.130011e-001
2.877394e+003;1.135043e-001
2.879322e+003;1.139684e-001
2.881251e+003;1.145999e-001
2.883179e+003;1.152094e-001
2.885108e+003;1.159512e-001
2.887036e+003;1.166169e-001
2.888965e+003;1.168653e-001
2.890893e+003;1.175903e-001
2.892822e+003;1.182816e-001
2.894750e+003;1.184452e-001
2.896679e+003;1.186922e-001
2.898608e+003;1.190190e-001
2.900536e+003;1.186939e-001
2.902465e+003;1.181022e-001
2.904393e+003;1.176586e-001
2.906322e+003;1.174734e-001
2.908250e+003;1.170338e-001
2.910179e+003;1.165273e-001
2.912107e+003;1.160992e-001
2.914036e+003;1.155409e-001
2.915965e+003;1.149248e-001
2.917893e+003;1.146645e-001
2.919822e+003;1.137864e-001
2.921750e+003;1.118104e-001
2.923679e+003;1.099052e-001
2.925607e+003;1.081367e-001
2.927536e+003;1.061231e-001
2.929464e+003;1.045868e-001
2.931393e+003;1.032255e-001
2.933322e+003;1.014303e-001
2.935250e+003;9.970256e-002
2.937178e+003;9.833733e-002
2.939107e+003;9.724882e-002
2.941036e+003;9.593233e-002
2.942964e+003;9.475787e-002
2.944893e+003;9.370229e-002
2.946821e+003;9.274670e-002
2.948750e+003;9.201645e-002
2.950678e+003;9.063683e-002
2.952607e+003;8.914672e-002
2.954535e+003;8.779203e-002
2.956464e+003;8.607645e-002
2.958393e+003;8.463010e-002
2.960321e+003;8.379795e-002
2.962250e+003;8.286771e-002
2.964178e+003;8.174781e-002
2.966107e+003;8.082886e-002
2.968035e+003;7.996941e-002
2.969964e+003;7.950891e-002
2.971892e+003;7.875071e-002
2.973821e+003;7.769315e-002
2.975750e+003;7.700513e-002
2.977678e+003;7.635755e-002
2.979607e+003;7.567409e-002
2.981535e+003;7.527986e-002
2.983464e+003;7.502691e-002
2.985392e+003;7.462984e-002
2.987321e+003;7.418302e-002
2.989249e+003;7.391150e-002
2.991178e+003;7.366917e-002
2.993106e+003;7.347523e-002
2.995035e+003;7.343764e-002
2.996964e+003;7.296970e-002
2.998892e+003;7.266783e-002
3.000821e+003;7.316521e-002
3.002749e+003;7.347515e-002
3.004678e+003;7.373497e-002
3.006606e+003;7.403137e-002
3.008535e+003;7.396305e-002
3.010463e+003;7.387112e-002
3.012392e+003;7.399224e-002
3.014321e+003;7.417202e-002
3.016249e+003;7.403616e-002
3.018177e+003;7.401286e-002
3.020106e+003;7.422925e-002
3.022035e+003;7.426392e-002
3.023963e+003;7.414922e-002
3.025892e+003;7.434727e-002
3.027820e+003;7.469835e-002
3.029749e+003;7.548986e-002
3.031677e+003;7.610433e-002
3.033606e+003;7.595970e-002
3.035534e+003;7.608262e-002
3.037463e+003;7.623562e-002
3.039392e+003;7.640748e-002
3.041320e+003;7.672939e-002
3.043249e+003;7.689105e-002
3.045177e+003;7.720742e-002
3.047106e+003;7.783785e-002
3.049034e+003;7.801443e-002
3.050963e+003;7.842294e-002
3.052891e+003;7.897687e-002
3.054820e+003;7.891981e-002
3.056749e+003;7.896157e-002
3.058677e+003;7.935864e-002
3.060606e+003;7.950787e-002
3.062534e+003;7.998475e-002
3.064463e+003;8.022318e-002
3.066391e+003;8.035369e-002
3.068320e+003;8.083928e-002
3.070248e+003;8.136569e-002
3.072177e+003;8.209452e-002
3.074105e+003;8.262041e-002
3.076034e+003;8.302458e-002
3.077963e+003;8.316993e-002
3.079891e+003;8.326926e-002
3.081820e+003;8.375008e-002
3.083748e+003;8.408223e-002
3.085677e+003;8.396061e-002
3.087605e+003;8.437616e-002
3.089534e+003;8.533717e-002
3.091462e+003;8.586179e-002
3.093391e+003;8.593311e-002
3.095320e+003;8.602329e-002
3.097248e+003;8.639713e-002
3.099177e+003;8.710352e-002
3.101105e+003;8.781211e-002
3.103034e+003;8.845800e-002
3.104962e+003;8.871402e-002
3.106891e+003;8.873121e-002
3.108819e+003;8.937400e-002
3.110748e+003;8.982316e-002
3.112677e+003;9.019303e-002
3.114605e+003;9.055352e-002
3.116533e+003;9.115928e-002
3.118462e+003;9.142271e-002
3.120391e+003;9.171952e-002
3.122319e+003;9.201920e-002
3.124248e+003;9.222844e-002
3.126176e+003;9.361999e-002
3.128105e+003;9.425063e-002
3.130033e+003;9.413971e-002
3.131962e+003;9.442479e-002
3.133890e+003;9.542765e-002
3.135819e+003;9.627853e-002
3.137748e+003;9.679680e-002
3.139676e+003;9.743393e-002
3.141605e+003;9.787039e-002
3.143533e+003;9.835852e-002
3.145462e+003;9.885477e-002
3.147390e+003;9.900624e-002
3.149319e+003;9.978727e-002
3.151247e+003;1.005789e-001
3.153176e+003;1.010077e-001
3.155104e+003;1.016703e-001
3.157033e+003;1.021695e-001
3.158962e+003;1.028847e-001
3.160890e+003;1.037823e-001
3.162819e+003;1.044728e-001
3.164747e+003;1.051725e-001
3.166676e+003;1.057923e-001
3.168604e+003;1.063084e-001
3.170533e+003;1.070854e-001
3.172461e+003;1.075702e-001
3.174390e+003;1.077836e-001
3.176319e+003;1.083704e-001
3.178247e+003;1.094086e-001
3.180176e+003;1.108054e-001
3.182104e+003;1.115143e-001
3.184033e+003;1.117607e-001
3.185961e+003;1.126465e-001
3.187890e+003;1.136931e-001
3.189818e+003;1.140547e-001
3.191747e+003;1.146321e-001
3.193676e+003;1.155406e-001
3.195604e+003;1.162508e-001
3.197532e+003;1.170157e-001
3.199461e+003;1.185099e-001
3.201390e+003;1.196683e-001
3.203318e+003;1.200179e-001
3.205247e+003;1.205191e-001
3.207175e+003;1.214829e-001
3.209104e+003;1.225997e-001
3.211032e+003;1.236757e-001
3.212961e+003;1.243195e-001
3.214889e+003;1.249152e-001
3.216818e+003;1.259551e-001
3.218747e+003;1.273838e-001
3.220675e+003;1.278237e-001
3.222604e+003;1.282453e-001
3.224532e+003;1.292668e-001
3.226461e+003;1.302195e-001
3.228389e+003;1.313274e-001
3.230318e+003;1.329996e-001
3.232246e+003;1.340857e-001
3.234175e+003;1.348548e-001
3.236104e+003;1.352984e-001
3.238032e+003;1.359241e-001
3.239961e+003;1.367103e-001
3.241889e+003;1.375127e-001
3.243818e+003;1.390664e-001
3.245746e+003;1.407214e-001
3.247675e+003;1.414077e-001
3.249603e+003;1.422984e-001
3.251532e+003;1.435858e-001
3.253460e+003;1.447105e-001
3.255389e+003;1.459928e-001
3.257318e+003;1.470988e-001
3.259246e+003;1.480397e-001
3.261175e+003;1.493497e-001
3.263103e+003;1.509779e-001
3.265032e+003;1.529637e-001
3.266960e+003;1.541340e-001
3.268889e+003;1.541690e-001
3.270817e+003;1.545516e-001
3.272746e+003;1.553520e-001
3.274675e+003;1.562331e-001
3.276603e+003;1.570794e-001
3.278531e+003;1.579642e-001
3.280460e+003;1.586555e-001
3.282389e+003;1.593204e-001
3.284317e+003;1.598342e-001
3.286246e+003;1.601138e-001
3.288174e+003;1.603653e-001
3.290103e+003;1.608169e-001
3.292031e+003;1.611669e-001
3.293960e+003;1.613912e-001
3.295888e+003;1.617501e-001
3.297817e+003;1.622776e-001
3.299746e+003;1.625282e-001
3.301674e+003;1.623327e-001
3.303603e+003;1.628482e-001
3.305531e+003;1.633501e-001
3.307460e+003;1.634482e-001
3.309388e+003;1.635941e-001
3.311317e+003;1.637212e-001
3.313245e+003;1.633422e-001
3.315174e+003;1.633899e-001
3.317103e+003;1.643021e-001
3.319031e+003;1.650027e-001
3.320960e+003;1.656636e-001
3.322888e+003;1.658191e-001
3.324817e+003;1.658067e-001
3.326745e+003;1.665446e-001
3.328674e+003;1.674663e-001
3.330602e+003;1.681604e-001
3.332531e+003;1.686642e-001
3.334459e+003;1.685172e-001
3.336388e+003;1.684173e-001
3.338317e+003;1.683384e-001
3.340245e+003;1.675404e-001
3.342174e+003;1.673200e-001
3.344102e+003;1.675692e-001
3.346031e+003;1.670982e-001
3.347959e+003;1.656417e-001
3.349888e+003;1.644781e-001
3.351816e+003;1.640494e-001
3.353745e+003;1.630410e-001
3.355674e+003;1.623198e-001
3.357602e+003;1.621797e-001
3.359531e+003;1.620051e-001
3.361459e+003;1.614889e-001
3.363388e+003;1.605154e-001
3.365316e+003;1.594560e-001
3.367245e+003;1.584755e-001
3.369173e+003;1.574585e-001
3.371102e+003;1.565433e-001
3.373031e+003;1.561720e-001
3.374959e+003;1.555856e-001
3.376887e+003;1.544406e-001
3.378816e+003;1.540037e-001
3.380745e+003;1.536976e-001
3.382673e+003;1.531913e-001
3.384602e+003;1.522381e-001
3.386530e+003;1.509119e-001
3.388459e+003;1.502887e-001
3.390387e+003;1.500493e-001
3.392316e+003;1.497849e-001
3.394244e+003;1.493392e-001
3.396173e+003;1.486522e-001
3.398102e+003;1.478668e-001
3.400030e+003;1.470043e-001
3.401959e+003;1.464668e-001
3.403887e+003;1.459916e-001
3.405816e+003;1.444944e-001
3.407744e+003;1.426697e-001
3.409673e+003;1.417904e-001
3.411601e+003;1.413271e-001
3.413530e+003;1.405839e-001
3.415458e+003;1.393628e-001
3.417387e+003;1.381056e-001
3.419316e+003;1.374680e-001
3.421244e+003;1.366523e-001
3.423173e+003;1.354203e-001
3.425101e+003;1.346377e-001
3.427030e+003;1.338116e-001
3.428958e+003;1.326232e-001
3.430887e+003;1.315100e-001
3.432815e+003;1.306205e-001
3.434744e+003;1.296324e-001
3.436673e+003;1.285311e-001
3.438601e+003;1.276959e-001
3.440530e+003;1.272441e-001
3.442458e+003;1.263410e-001
3.444387e+003;1.248876e-001
3.446315e+003;1.237764e-001
3.448244e+003;1.229556e-001
3.450172e+003;1.219210e-001
3.452101e+003;1.205806e-001
3.454030e+003;1.196013e-001
3.455958e+003;1.184585e-001
3.457886e+003;1.172796e-001
3.459815e+003;1.166358e-001
3.461744e+003;1.153304e-001
3.463672e+003;1.141635e-001
3.465601e+003;1.133425e-001
3.467529e+003;1.126555e-001
3.469458e+003;1.114328e-001
3.471386e+003;1.100911e-001
3.473315e+003;1.084705e-001
3.475243e+003;1.077280e-001
3.477172e+003;1.072688e-001
3.479101e+003;1.057830e-001
3.481029e+003;1.043710e-001
3.482958e+003;1.035798e-001
3.484886e+003;1.026318e-001
3.486815e+003;1.015880e-001
3.488743e+003;1.004152e-001
3.490672e+003;9.918682e-002
3.492600e+003;9.838612e-002
3.494529e+003;9.752928e-002
3.496458e+003;9.655165e-002
3.498386e+003;9.545827e-002
3.500315e+003;9.434318e-002
3.502243e+003;9.314323e-002
3.504172e+003;9.217755e-002
3.506100e+003;9.123228e-002
3.508029e+003;9.027023e-002
3.509957e+003;8.895624e-002
3.511886e+003;8.767504e-002
3.513814e+003;8.668385e-002
3.515743e+003;8.562230e-002
3.517672e+003;8.470198e-002
3.519600e+003;8.401701e-002
3.521529e+003;8.292655e-002
3.523457e+003;8.179429e-002
3.525386e+003;8.094215e-002
3.527314e+003;7.998893e-002
3.529243e+003;7.932245e-002
3.531171e+003;7.888758e-002
3.533100e+003;7.815538e-002
3.535029e+003;7.686812e-002
3.536957e+003;7.529117e-002
3.538885e+003;7.435171e-002
3.540814e+003;7.357853e-002
3.542743e+003;7.259553e-002
3.544671e+003;7.226919e-002
3.546600e+003;7.197146e-002
3.548528e+003;7.101952e-002
3.550457e+003;6.980363e-002
3.552385e+003;6.861088e-002
3.554314e+003;6.834655e-002
3.556242e+003;6.773276e-002
3.558171e+003;6.647567e-002
3.560100e+003;6.614324e-002
3.562028e+003;6.575128e-002
3.563957e+003;6.459989e-002
3.565885e+003;6.323119e-002
3.567814e+003;6.238418e-002
3.569742e+003;6.180466e-002
3.571671e+003;6.057681e-002
3.573599e+003;5.975530e-002
3.575528e+003;5.897037e-002
3.577457e+003;5.820951e-002
3.579385e+003;5.820887e-002
3.581314e+003;5.772851e-002
3.583242e+003;5.710173e-002
3.585171e+003;5.670103e-002
3.587099e+003;5.580667e-002
3.589028e+003;5.504230e-002
3.590956e+003;5.492926e-002
3.592885e+003;5.455885e-002
3.594813e+003;5.409392e-002
3.596742e+003;5.381153e-002
3.598671e+003;5.301592e-002
3.600599e+003;5.208876e-002
3.602528e+003;5.149397e-002
3.604456e+003;5.129123e-002
3.606385e+003;5.098226e-002
3.608313e+003;5.057712e-002
3.610242e+003;5.015451e-002
3.612170e+003;4.987850e-002
3.614099e+003;4.969757e-002
3.616028e+003;4.971964e-002
3.617956e+003;4.922256e-002
3.619885e+003;4.800966e-002
3.621813e+003;4.739101e-002
3.623742e+003;4.726786e-002
3.625670e+003;4.679335e-002
3.627599e+003;4.618966e-002
3.629527e+003;4.580005e-002
3.631456e+003;4.574836e-002
3.633385e+003;4.603937e-002
3.635313e+003;4.618646e-002
3.637241e+003;4.533770e-002
3.639170e+003;4.454101e-002
3.641099e+003;4.419535e-002
3.643027e+003;4.404079e-002
3.644956e+003;4.393178e-002
3.646884e+003;4.352631e-002
3.648813e+003;4.279710e-002
3.650741e+003;4.273129e-002
3.652670e+003;4.331730e-002
3.654598e+003;4.393618e-002
3.656527e+003;4.374335e-002
3.658456e+003;4.261983e-002
3.660384e+003;4.205863e-002
3.662313e+003;4.201899e-002
3.664241e+003;4.218371e-002
3.666170e+003;4.168762e-002
3.668098e+003;4.062426e-002
3.670027e+003;4.031643e-002
3.671955e+003;4.091524e-002
3.673884e+003;4.116278e-002
3.675813e+003;4.106112e-002
3.677741e+003;4.055736e-002
3.679669e+003;4.038246e-002
3.681598e+003;4.035304e-002
3.683527e+003;3.957679e-002
3.685455e+003;3.955069e-002
3.687384e+003;3.991411e-002
3.689312e+003;3.957828e-002
3.691241e+003;3.941302e-002
3.693169e+003;3.890298e-002
3.695098e+003;3.876403e-002
3.697026e+003;3.980475e-002
3.698955e+003;3.988032e-002
3.700884e+003;3.901562e-002
3.702812e+003;3.830762e-002
3.704741e+003;3.781030e-002
3.706669e+003;3.757493e-002
3.708598e+003;3.767592e-002
3.710526e+003;3.754617e-002
3.712455e+003;3.712890e-002
3.714383e+003;3.740570e-002
3.716312e+003;3.768355e-002
3.718240e+003;3.721784e-002
3.720169e+003;3.677942e-002
3.722098e+003;3.720015e-002
3.724026e+003;3.755206e-002
3.725955e+003;3.729928e-002
3.727883e+003;3.704611e-002
3.729812e+003;3.709948e-002
3.731740e+003;3.675887e-002
3.733669e+003;3.627186e-002
3.735597e+003;3.658433e-002
3.737526e+003;3.723502e-002
3.739455e+003;3.718134e-002
3.741383e+003;3.684553e-002
3.743312e+003;3.664364e-002
3.745240e+003;3.652512e-002
3.747169e+003;3.616881e-002
3.749097e+003;3.608185e-002
3.751026e+003;3.691984e-002
3.752954e+003;3.784211e-002
3.754883e+003;3.783166e-002
3.756812e+003;3.719672e-002
3.758740e+003;3.709941e-002
3.760668e+003;3.669624e-002
3.762597e+003;3.633878e-002
3.764526e+003;3.655557e-002
3.766454e+003;3.630096e-002
3.768383e+003;3.626973e-002
3.770311e+003;3.671798e-002
3.772240e+003;3.656721e-002
3.774168e+003;3.611156e-002
3.776097e+003;3.622878e-002
3.778025e+003;3.621509e-002
3.779954e+003;3.600517e-002
3.781883e+003;3.597947e-002
3.783811e+003;3.647610e-002
3.785740e+003;3.732842e-002
3.787668e+003;3.784200e-002
3.789597e+003;3.735178e-002
3.791525e+003;3.690894e-002
3.793454e+003;3.670911e-002
3.795382e+003;3.707101e-002
3.797311e+003;3.729383e-002
3.799240e+003;3.679670e-002
3.801168e+003;3.610699e-002
3.803097e+003;3.598069e-002
3.805025e+003;3.600423e-002
3.806954e+003;3.643599e-002
3.808882e+003;3.709057e-002
3.810811e+003;3.686638e-002
3.812739e+003;3.643880e-002
3.814668e+003;3.646396e-002
3.816596e+003;3.715878e-002
3.818525e+003;3.666526e-002
3.820454e+003;3.581097e-002
3.822382e+003;3.616269e-002
3.824311e+003;3.674762e-002
3.826239e+003;3.686032e-002
3.828168e+003;3.698582e-002
3.830096e+003;3.703875e-002
3.832025e+003;3.644558e-002
3.833953e+003;3.595661e-002
3.835882e+003;3.591227e-002
3.837811e+003;3.600913e-002
3.839739e+003;3.658084e-002
3.841667e+003;3.667745e-002
3.843596e+003;3.656249e-002
3.845525e+003;3.672263e-002
3.847453e+003;3.677686e-002
3.849382e+003;3.677499e-002
3.851310e+003;3.656144e-002
3.853239e+003;3.630146e-002
3.855167e+003;3.650143e-002
3.857096e+003;3.732521e-002
3.859024e+003;3.760264e-002
3.860953e+003;3.711002e-002
3.862882e+003;3.703179e-002
3.864810e+003;3.709263e-002
3.866739e+003;3.722401e-002
3.868667e+003;3.720762e-002
3.870596e+003;3.695714e-002
3.872524e+003;3.701956e-002
3.874453e+003;3.733095e-002
3.876381e+003;3.767469e-002
3.878310e+003;3.792989e-002
3.880239e+003;3.740570e-002
3.882167e+003;3.732391e-002
3.884096e+003;3.797892e-002
3.886024e+003;3.812121e-002
3.887953e+003;3.746374e-002
3.889881e+003;3.729546e-002
3.891810e+003;3.807028e-002
3.893738e+003;3.784110e-002
3.895667e+003;3.731319e-002
3.897595e+003;3.799270e-002
3.899524e+003;3.834258e-002
3.901453e+003;3.784612e-002
3.903381e+003;3.772915e-002
3.905310e+003;3.827581e-002
3.907238e+003;3.808334e-002
3.909167e+003;3.770530e-002
3.911095e+003;3.784348e-002
3.913024e+003;3.791380e-002
3.914952e+003;3.826705e-002
3.916881e+003;3.891479e-002
3.918810e+003;3.912583e-002
3.920738e+003;3.912449e-002
3.922667e+003;3.932163e-002
3.924595e+003;3.978543e-002
3.926524e+003;3.988232e-002
3.928452e+003;3.937373e-002
3.930381e+003;3.931434e-002
3.932309e+003;3.943639e-002
3.934238e+003;3.877460e-002
3.936167e+003;3.824820e-002
3.938095e+003;3.835394e-002
3.940023e+003;3.825670e-002
3.941952e+003;3.858951e-002
3.943881e+003;3.917257e-002
3.945809e+003;3.899935e-002
3.947738e+003;3.853654e-002
3.949666e+003;3.867115e-002
3.951595e+003;3.882413e-002
3.953523e+003;3.836495e-002
3.955452e+003;3.783412e-002
3.957380e+003;3.739021e-002
3.959309e+003;3.775449e-002
3.961238e+003;3.845801e-002
3.963166e+003;3.856366e-002
3.965095e+003;3.825754e-002
3.967023e+003;3.861034e-002
3.968952e+003;3.916840e-002
3.970880e+003;3.885203e-002
3.972809e+003;3.788990e-002
3.974737e+003;3.761135e-002
3.976666e+003;3.846800e-002
3.978594e+003;3.878007e-002
3.980523e+003;3.873323e-002
3.982452e+003;3.844205e-002
3.984380e+003;3.805386e-002
3.986309e+003;3.799541e-002
3.988237e+003;3.787747e-002
3.990166e+003;3.828091e-002
3.992094e+003;3.867709e-002
3.994023e+003;3.881029e-002
3.995951e+003;3.862229e-002
3.997880e+003;3.801556e-002
3.999809e+003;3.842619e-002
4.001737e+003;0.000000e+000
