3.992094e+002;0.000000e+000
4.011380e+002;0.000000e+000
4.030665e+002;0.000000e+000
4.049951e+002;0.000000e+000
4.069236e+002;0.000000e+000
4.088522e+002;0.000000e+000
4.107807e+002;0.000000e+000
4.127093e+002;0.000000e+000
4.146378e+002;0.000000e+000
4.165664e+002;0.000000e+000
4.184949e+002;0.000000e+000
4.204235e+002;0.000000e+000
4.223520e+002;0.000000e+000
4.242806e+002;0.000000e+000
4.262091e+002;0.000000e+000
4.281377e+002;0.000000e+000
4.300662e+002;0.000000e+000
4.319948e+002;0.000000e+000
4.339233e+002;0.000000e+000
4.358519e+002;0.000000e+000
4.377804e+002;0.000000e+000
4.397090e+002;0.000000e+000
4.416375e+002;0.000000e+000
4.435660e+002;0.000000e+000
4.454946e+002;0.000000e+000
4.474232e+002;0.000000e+000
4.493517e+002;0.000000e+000
4.512802e+002;0.000000e+000
4.532088e+002;0.000000e+000
4.551373e+002;0.000000e+000
4.570659e+002;0.000000e+000
4.589944e+002;0.000000e+000
4.609230e+002;0.000000e+000
4.628515e+002;0.000000e+000
4.647801e+002;0.000000e+000
4.667086e+002;0.000000e+000
4.686372e+002;0.000000e+000
4.705657e+002;0.000000e+000
4.724943e+002;0.000000e+000
4.744228e+002;0.000000e+000
4.763513e+002;0.000000e+000
4.782799e+002;0.000000e+000
4.802085e+002;0.000000e+000
4.821370e+002;0.000000e+000
4.840656e+002;0.000000e+000
4.859941e+002;0.000000e+000
4.879226e+002;0.000000e+000
4.898512e+002;0.000000e+000
4.917798e+002;0.000000e+000
4.937083e+002;0.000000e+000
4.956368e+002;0.000000e+000
4.975654e+002;0.000000e+000
4.994939e+002;0.000000e+000
5.014225e+002;0.000000e+000
5.033510e+002;0.000000e+000
5.052796e+002;0.000000e+000
5.072081e+002;0.000000e+000
5.091367e+002;0.000000e+000
5.110652e+002;0.000000e+000
5.129938e+002;0.000000e+000
5.149223e+002;0.000000e+000
5.168509e+002;0.000000e+000
5.187794e+002;0.000000e+000
5.207079e+002;0.000000e+000
5.226365e+002;0.000000e+000
5.245651e+002;0.000000e+000
5.264936e+002;0.000000e+000
5.284222e+002;0.000000e+000
5.303507e+002;0.000000e+000
5.322792e+002;0.000000e+000
5.342078e+002;0.000000e+000
5.361364e+002;0.000000e+000
5.380649e+002;0.000000e+000
5.399935e+002;0.000000e+000
5.419220e+002;0.000000e+000
5.438505e+002;0.000000e+000
5.457791e+002;0.000000e+000
5.477076e+002;0.000000e+000
5.496362e+002;0.000000e+000
5.515648e+002;0.000000e+000
5.534933e+002;0.000000e+000
5.554218e+002;0.000000e+000
5.573504e+002;0.000000e+000
5.592789e+002;0.000000e+000
5.612075e+002;0.000000e+000
5.631360e+002;0.000000e+000
5.650646e+002;0.000000e+000
5.669931e+002;0.000000e+000
5.689217e+002;0.000000e+000
5.708502e+002;0.000000e+000
5.727787e+002;0.000000e+000
5.747073e+002;0.000000e+000
5.766359e+002;0.000000e+000
5.785644e+002;0.000000e+000
5.804930e+002;0.000000e+000
5.824215e+002;0.000000e+000
5.843500e+002;0.000000e+000
5.862786e+002;0.000000e+000
5.882072e+002;0.000000e+000
5.901357e+002;0.000000e+000
5.920643e+002;0.000000e+000
5.939928e+002;0.000000e+000
5.959213e+002;0.000000e+000
5.978499e+002;0.000000e+000
5.997784e+002;3.278092e-001
6.017070e+002;3.265752e-001
6.036355e+002;3.264164e-001
6.055641e+002;3.290520e-001
6.074926e+002;3.280130e-001
6.094211e+002;3.259425e-001
6.113497e+002;3.278551e-001
6.132783e+002;3.279499e-001
6.152068e+002;3.260008e-001
6.171354e+002;3.239667e-001
6.190639e+002;3.175653e-001
6.209924e+002;3.139866e-001
6.229210e+002;3.074709e-001
6.248495e+002;2.945945e-001
6.267781e+002;2.862956e-001
6.287067e+002;2.834615e-001
6.306352e+002;2.852717e-001
6.325637e+002;2.832004e-001
6.344923e+002;2.782783e-001
6.364208e+002;2.759657e-001
6.383494e+002;2.739612e-001
6.402780e+002;2.691490e-001
6.422065e+002;2.643638e-001
6.441350e+002;2.659660e-001
6.460636e+002;2.666922e-001
6.479921e+002;2.637775e-001
6.499207e+002;2.655603e-001
6.518492e+002;2.687214e-001
6.537778e+002;2.693574e-001
6.557063e+002;2.732751e-001
6.576349e+002;2.817583e-001
6.595634e+002;2.903202e-001
6.614919e+002;2.955832e-001
6.634205e+002;2.950849e-001
6.653491e+002;2.898981e-001
6.672776e+002;2.861324e-001
6.692062e+002;2.833448e-001
6.711347e+002;2.793669e-001
6.730632e+002;2.733514e-001
6.749918e+002;2.623672e-001
6.769203e+002;2.525405e-001
6.788489e+002;2.463355e-001
6.807775e+002;2.427674e-001
6.827060e+002;2.409584e-001
6.846345e+002;2.387872e-001
6.865631e+002;2.360024e-001
6.884916e+002;2.344383e-001
6.904202e+002;2.341166e-001
6.923488e+002;2.340379e-001
6.942773e+002;2.336791e-001
6.962058e+002;2.336504e-001
6.981344e+002;2.331234e-001
7.000629e+002;2.320636e-001
7.019915e+002;2.320975e-001
7.039200e+002;2.317472e-001
7.058486e+002;2.297669e-001
7.077771e+002;2.274514e-001
7.097057e+002;2.246122e-001
7.116342e+002;2.214734e-001
7.135627e+002;2.187677e-001
7.154913e+002;2.143922e-001
7.174199e+002;2.080850e-001
7.193484e+002;2.021844e-001
7.212770e+002;1.967931e-001
7.232055e+002;1.918061e-001
7.251340e+002;1.860823e-001
7.270626e+002;1.794861e-001
7.289911e+002;1.754613e-001
7.309197e+002;1.724870e-001
7.328483e+002;1.694393e-001
7.347768e+002;1.661738e-001
7.367053e+002;1.631149e-001
7.386339e+002;1.615917e-001
7.405624e+002;1.598555e-001
7.424910e+002;1.570957e-001
7.444196e+002;1.556919e-001
7.463481e+002;1.547310e-001
7.482766e+002;1.526221e-001
7.502052e+002;1.504707e-001
7.521337e+002;1.492288e-001
7.540623e+002;1.471271e-001
7.559908e+002;1.452040e-001
7.579194e+002;1.434288e-001
7.598479e+002;1.422945e-001
7.617765e+002;1.418238e-001
7.637050e+002;1.415312e-001
7.656335e+002;1.405983e-001
7.675621e+002;1.388771e-001
7.694907e+002;1.379442e-001
7.714192e+002;1.377039e-001
7.733478e+002;1.372434e-001
7.752763e+002;1.366373e-001
7.772048e+002;1.363558e-001
7.791334e+002;1.363409e-001
7.810620e+002;1.367401e-001
7.829905e+002;1.376133e-001
7.849191e+002;1.395732e-001
7.868476e+002;1.422852e-001
7.887761e+002;1.447316e-001
7.907047e+002;1.472841e-001
7.926332e+002;1.501241e-001
7.945618e+002;1.529677e-001
7.964903e+002;1.546032e-001
7.984189e+002;1.562641e-001
8.003474e+002;1.579951e-001
8.022759e+002;1.581464e-001
8.042045e+002;1.574062e-001
8.061331e+002;1.573125e-001
8.080616e+002;1.575380e-001
8.099902e+002;1.566993e-001
8.119187e+002;1.555482e-001
8.138472e+002;1.544094e-001
8.157758e+002;1.528765e-001
8.177043e+002;1.518073e-001
8.196329e+002;1.513680e-001
8.215615e+002;1.500963e-001
8.234900e+002;1.479060e-001
8.254185e+002;1.444137e-001
8.273471e+002;1.405924e-001
8.292756e+002;1.365574e-001
8.312042e+002;1.327566e-001
8.331328e+002;1.309106e-001
8.350613e+002;1.298114e-001
8.369898e+002;1.290302e-001
8.389184e+002;1.283475e-001
8.408469e+002;1.278497e-001
8.427755e+002;1.276589e-001
8.447040e+002;1.276504e-001
8.466326e+002;1.283095e-001
8.485611e+002;1.291392e-001
8.504897e+002;1.292453e-001
8.524182e+002;1.288382e-001
8.543467e+002;1.293056e-001
8.562753e+002;1.309920e-001
8.582039e+002;1.323230e-001
8.601324e+002;1.334510e-001
8.620610e+002;1.349608e-001
8.639895e+002;1.363970e-001
8.659180e+002;1.377903e-001
8.678466e+002;1.396427e-001
8.697751e+002;1.417968e-001
8.717037e+002;1.441647e-001
8.736323e+002;1.466490e-001
8.755608e+002;1.492555e-001
8.774893e+002;1.518654e-001
8.794179e+002;1.547107e-001
8.813464e+002;1.576955e-001
8.832750e+002;1.606847e-001
8.852036e+002;1.641143e-001
8.871321e+002;1.681087e-001
8.890606e+002;1.721956e-001
8.909892e+002;1.760412e-001
8.929177e+002;1.794807e-001
8.948463e+002;1.820293e-001
8.967748e+002;1.830146e-001
8.987034e+002;1.827718e-001
9.006319e+002;1.820735e-001
9.025605e+002;1.811078e-001
9.044890e+002;1.788080e-001
9.064175e+002;1.757788e-001
9.083461e+002;1.735722e-001
9.102747e+002;1.719434e-001
9.122032e+002;1.702863e-001
9.141318e+002;1.685992e-001
9.160603e+002;1.672225e-001
9.179888e+002;1.670141e-001
9.199174e+002;1.675838e-001
9.218459e+002;1.683321e-001
9.237745e+002;1.696222e-001
9.257031e+002;1.714451e-001
9.276316e+002;1.735210e-001
9.295601e+002;1.757803e-001
9.314887e+002;1.781734e-001
9.334172e+002;1.804595e-001
9.353458e+002;1.825811e-001
9.372744e+002;1.854533e-001
9.392029e+002;1.885186e-001
9.411314e+002;1.910998e-001
9.430600e+002;1.943706e-001
9.449885e+002;1.984048e-001
9.469171e+002;2.025880e-001
9.488456e+002;2.078456e-001
9.507742e+002;2.142248e-001
9.527027e+002;2.207411e-001
9.546313e+002;2.269840e-001
9.565598e+002;2.335422e-001
9.584883e+002;2.407991e-001
9.604169e+002;2.487552e-001
9.623455e+002;2.572635e-001
9.642740e+002;2.663213e-001
9.662026e+002;2.755607e-001
9.681311e+002;2.859319e-001
9.700596e+002;2.981558e-001
9.719882e+002;3.117173e-001
9.739167e+002;3.280014e-001
9.758453e+002;3.474894e-001
9.777739e+002;3.692144e-001
9.797024e+002;3.928614e-001
9.816309e+002;4.148530e-001
9.835595e+002;4.294245e-001
9.854880e+002;4.357796e-001
9.874166e+002;4.388341e-001
9.893452e+002;4.429082e-001
9.912737e+002;4.496264e-001
9.932022e+002;4.587052e-001
9.951307e+002;4.702431e-001
9.970593e+002;4.824163e-001
9.989879e+002;4.927923e-001
1.000916e+003;5.000484e-001
1.002845e+003;5.044626e-001
1.004773e+003;5.075386e-001
1.006702e+003;5.102969e-001
1.008631e+003;5.144589e-001
1.010559e+003;5.202110e-001
1.012488e+003;5.264682e-001
1.014416e+003;5.332298e-001
1.016345e+003;5.408888e-001
1.018273e+003;5.491564e-001
1.020202e+003;5.575028e-001
1.022130e+003;5.664504e-001
1.024059e+003;5.763461e-001
1.025988e+003;5.848326e-001
1.027916e+003;5.908628e-001
1.029845e+003;5.948519e-001
1.031773e+003;5.941796e-001
1.033702e+003;5.861540e-001
1.035630e+003;5.721858e-001
1.037559e+003;5.567859e-001
1.039487e+003;5.437098e-001
1.041416e+003;5.350024e-001
1.043344e+003;5.328063e-001
1.045273e+003;5.369139e-001
1.047202e+003;5.450926e-001
1.049130e+003;5.547870e-001
1.051059e+003;5.619828e-001
1.052987e+003;5.661430e-001
1.054916e+003;5.644566e-001
1.056844e+003;5.558046e-001
1.058773e+003;5.412065e-001
1.060701e+003;5.178447e-001
1.062630e+003;4.867463e-001
1.064558e+003;4.562771e-001
1.066487e+003;4.307691e-001
1.068416e+003;4.096263e-001
1.070344e+003;3.927078e-001
1.072273e+003;3.802070e-001
1.074201e+003;3.715636e-001
1.076130e+003;3.643362e-001
1.078058e+003;3.564819e-001
1.079987e+003;3.495098e-001
1.081915e+003;3.445610e-001
1.083844e+003;3.419482e-001
1.085773e+003;3.408650e-001
1.087701e+003;3.407925e-001
1.089630e+003;3.419836e-001
1.091558e+003;3.438143e-001
1.093487e+003;3.457894e-001
1.095415e+003;3.486303e-001
1.097344e+003;3.517180e-001
1.099272e+003;3.552085e-001
1.101201e+003;3.575973e-001
1.103129e+003;3.571358e-001
1.105058e+003;3.543142e-001
1.106987e+003;3.497758e-001
1.108915e+003;3.443458e-001
1.110844e+003;3.385426e-001
1.112772e+003;3.287029e-001
1.114701e+003;3.139063e-001
1.116629e+003;2.970125e-001
1.118558e+003;2.804950e-001
1.120486e+003;2.668759e-001
1.122415e+003;2.561963e-001
1.124344e+003;2.463625e-001
1.126272e+003;2.362746e-001
1.128201e+003;2.257913e-001
1.130129e+003;2.163731e-001
1.132058e+003;2.086603e-001
1.133986e+003;2.028699e-001
1.135915e+003;1.988033e-001
1.137843e+003;1.957500e-001
1.139772e+003;1.941603e-001
1.141700e+003;1.947306e-001
1.143629e+003;1.974265e-001
1.145557e+003;2.010564e-001
1.147486e+003;2.043582e-001
1.149415e+003;2.065188e-001
1.151343e+003;2.082187e-001
1.153272e+003;2.109306e-001
1.155200e+003;2.137338e-001
1.157129e+003;2.157691e-001
1.159057e+003;2.160197e-001
1.160986e+003;2.139867e-001
1.162914e+003;2.091210e-001
1.164843e+003;2.002290e-001
1.166771e+003;1.891361e-001
1.168700e+003;1.777414e-001
1.170629e+003;1.667654e-001
1.172557e+003;1.567182e-001
1.174486e+003;1.480689e-001
1.176414e+003;1.413459e-001
1.178343e+003;1.361397e-001
1.180271e+003;1.320121e-001
1.182200e+003;1.293342e-001
1.184128e+003;1.274626e-001
1.186057e+003;1.266068e-001
1.187986e+003;1.269279e-001
1.189914e+003;1.282494e-001
1.191843e+003;1.309564e-001
1.193771e+003;1.339357e-001
1.195700e+003;1.366115e-001
1.197628e+003;1.391793e-001
1.199557e+003;1.410659e-001
1.201485e+003;1.421972e-001
1.203414e+003;1.426453e-001
1.205343e+003;1.418516e-001
1.207271e+003;1.391775e-001
1.209200e+003;1.342146e-001
1.211128e+003;1.284959e-001
1.213057e+003;1.240353e-001
1.214985e+003;1.217332e-001
1.216914e+003;1.213171e-001
1.218842e+003;1.221232e-001
1.220771e+003;1.238113e-001
1.222699e+003;1.259787e-001
1.224628e+003;1.283363e-001
1.226557e+003;1.308552e-001
1.228485e+003;1.331229e-001
1.230414e+003;1.354736e-001
1.232342e+003;1.378740e-001
1.234271e+003;1.397964e-001
1.236199e+003;1.406482e-001
1.238128e+003;1.409404e-001
1.240056e+003;1.415543e-001
1.241985e+003;1.430853e-001
1.243913e+003;1.453465e-001
1.245842e+003;1.481184e-001
1.247771e+003;1.504373e-001
1.249699e+003;1.524098e-001
1.251628e+003;1.546747e-001
1.253556e+003;1.576421e-001
1.255485e+003;1.617597e-001
1.257413e+003;1.664248e-001
1.259342e+003;1.703998e-001
1.261270e+003;1.720624e-001
1.263199e+003;1.711567e-001
1.265127e+003;1.681177e-001
1.267056e+003;1.641023e-001
1.268985e+003;1.607043e-001
1.270913e+003;1.586039e-001
1.272842e+003;1.577425e-001
1.274770e+003;1.576924e-001
1.276699e+003;1.572797e-001
1.278627e+003;1.560223e-001
1.280556e+003;1.544819e-001
1.282484e+003;1.526792e-001
1.284413e+003;1.506128e-001
1.286342e+003;1.488843e-001
1.288270e+003;1.479715e-001
1.290199e+003;1.484530e-001
1.292127e+003;1.490463e-001
1.294056e+003;1.495031e-001
1.295984e+003;1.507044e-001
1.297913e+003;1.526591e-001
1.299841e+003;1.555947e-001
1.301770e+003;1.599046e-001
1.303698e+003;1.650000e-001
1.305627e+003;1.703048e-001
1.307556e+003;1.759800e-001
1.309484e+003;1.818363e-001
1.311413e+003;1.872795e-001
1.313341e+003;1.909286e-001
1.315270e+003;1.920085e-001
1.317198e+003;1.905933e-001
1.319127e+003;1.866778e-001
1.321055e+003;1.818150e-001
1.322984e+003;1.774844e-001
1.324912e+003;1.742172e-001
1.326841e+003;1.722837e-001
1.328770e+003;1.723312e-001
1.330698e+003;1.740164e-001
1.332627e+003;1.757897e-001
1.334555e+003;1.767554e-001
1.336484e+003;1.763577e-001
1.338412e+003;1.744209e-001
1.340341e+003;1.714036e-001
1.342269e+003;1.677018e-001
1.344198e+003;1.640664e-001
1.346126e+003;1.607598e-001
1.348055e+003;1.582990e-001
1.349984e+003;1.573575e-001
1.351912e+003;1.578240e-001
1.353841e+003;1.592120e-001
1.355769e+003;1.606542e-001
1.357698e+003;1.620583e-001
1.359626e+003;1.632516e-001
1.361555e+003;1.631797e-001
1.363483e+003;1.618827e-001
1.365412e+003;1.604446e-001
1.367341e+003;1.597754e-001
1.369269e+003;1.592928e-001
1.371198e+003;1.578478e-001
1.373126e+003;1.548426e-001
1.375055e+003;1.507775e-001
1.376983e+003;1.463317e-001
1.378912e+003;1.420062e-001
1.380840e+003;1.381369e-001
1.382769e+003;1.343427e-001
1.384698e+003;1.312228e-001
1.386626e+003;1.288098e-001
1.388555e+003;1.268985e-001
1.390483e+003;1.257283e-001
1.392412e+003;1.251088e-001
1.394340e+003;1.249238e-001
1.396269e+003;1.252076e-001
1.398197e+003;1.257508e-001
1.400126e+003;1.263696e-001
1.402054e+003;1.269412e-001
1.403983e+003;1.276094e-001
1.405911e+003;1.282752e-001
1.407840e+003;1.288585e-001
1.409769e+003;1.296789e-001
1.411697e+003;1.308747e-001
1.413626e+003;1.324158e-001
1.415554e+003;1.342731e-001
1.417483e+003;1.366058e-001
1.419411e+003;1.390240e-001
1.421340e+003;1.413417e-001
1.423268e+003;1.436376e-001
1.425197e+003;1.454562e-001
1.427125e+003;1.463609e-001
1.429054e+003;1.461643e-001
1.430983e+003;1.449299e-001
1.432911e+003;1.430389e-001
1.434840e+003;1.405969e-001
1.436768e+003;1.381342e-001
1.438697e+003;1.361331e-001
1.440625e+003;1.346646e-001
1.442554e+003;1.336329e-001
1.444482e+003;1.330922e-001
1.446411e+003;1.327371e-001
1.448340e+003;1.323243e-001
1.450268e+003;1.323215e-001
1.452197e+003;1.324281e-001
1.454125e+003;1.316680e-001
1.456054e+003;1.299803e-001
1.457982e+003;1.280243e-001
1.459911e+003;1.261220e-001
1.461839e+003;1.239477e-001
1.463768e+003;1.214193e-001
1.465697e+003;1.189070e-001
1.467625e+003;1.166122e-001
1.469554e+003;1.139884e-001
1.471482e+003;1.109634e-001
1.473411e+003;1.081346e-001
1.475339e+003;1.060822e-001
1.477268e+003;1.046937e-001
1.479196e+003;1.034068e-001
1.481125e+003;1.019495e-001
1.483053e+003;9.966884e-002
1.484982e+003;9.684718e-002
1.486911e+003;9.431786e-002
1.488839e+003;9.215478e-002
1.490768e+003;9.024633e-002
1.492696e+003;8.880398e-002
1.494625e+003;8.791417e-002
1.496553e+003;8.735789e-002
1.498482e+003;8.696096e-002
1.500410e+003;8.632263e-002
1.502339e+003;8.560685e-002
1.504267e+003;8.504678e-002
1.506196e+003;8.468176e-002
1.508125e+003;8.426793e-002
1.510053e+003;8.382093e-002
1.511982e+003;8.333381e-002
1.513910e+003;8.292049e-002
1.515839e+003;8.268739e-002
1.517767e+003;8.229446e-002
1.519696e+003;8.191567e-002
1.521624e+003;8.148943e-002
1.523553e+003;8.106812e-002
1.525481e+003;8.092478e-002
1.527410e+003;8.116470e-002
1.529339e+003;8.127698e-002
1.531267e+003;8.124387e-002
1.533196e+003;8.127172e-002
1.535124e+003;8.152457e-002
1.537053e+003;8.183597e-002
1.538981e+003;8.174989e-002
1.540910e+003;8.188678e-002
1.542838e+003;8.224621e-002
1.544767e+003;8.218423e-002
1.546695e+003;8.226600e-002
1.548624e+003;8.248485e-002
1.550553e+003;8.274034e-002
1.552481e+003;8.291760e-002
1.554410e+003;8.299493e-002
1.556338e+003;8.311055e-002
1.558267e+003;8.275605e-002
1.560195e+003;8.236387e-002
1.562124e+003;8.247111e-002
1.564052e+003;8.267624e-002
1.565981e+003;8.283483e-002
1.567910e+003;8.307593e-002
1.569838e+003;8.322868e-002
1.571767e+003;8.341923e-002
1.573695e+003;8.362695e-002
1.575624e+003;8.359939e-002
1.577552e+003;8.362333e-002
1.579481e+003;8.368829e-002
1.581409e+003;8.383122e-002
1.583338e+003;8.408166e-002
1.585266e+003;8.443749e-002
1.587195e+003;8.480588e-002
1.589124e+003;8.502333e-002
1.591052e+003;8.530398e-002
1.592981e+003;8.551401e-002
1.594909e+003;8.566218e-002
1.596838e+003;8.579119e-002
1.598766e+003;8.587347e-002
1.600695e+003;8.595549e-002
1.602623e+003;8.610195e-002
1.604552e+003;8.653460e-002
1.606480e+003;8.705873e-002
1.608409e+003;8.722497e-002
1.610338e+003;8.756343e-002
1.612266e+003;8.816256e-002
1.614195e+003;8.862425e-002
1.616123e+003;8.895051e-002
1.618052e+003;8.945253e-002
1.619980e+003;8.987699e-002
1.621909e+003;9.031000e-002
1.623837e+003;9.076798e-002
1.625766e+003;9.094839e-002
1.627694e+003;9.129128e-002
1.629623e+003;9.180736e-002
1.631552e+003;9.195654e-002
1.633480e+003;9.181333e-002
1.635409e+003;9.192956e-002
1.637337e+003;9.221512e-002
1.639266e+003;9.234974e-002
1.641194e+003;9.223250e-002
1.643123e+003;9.224458e-002
1.645051e+003;9.241245e-002
1.646980e+003;9.226056e-002
1.648909e+003;9.205811e-002
1.650837e+003;9.214621e-002
1.652766e+003;9.236798e-002
1.654694e+003;9.269665e-002
1.656623e+003;9.272811e-002
1.658551e+003;9.245151e-002
1.660480e+003;9.210787e-002
1.662408e+003;9.185717e-002
1.664337e+003;9.180625e-002
1.666266e+003;9.163911e-002
1.668194e+003;9.091232e-002
1.670123e+003;9.002573e-002
1.672051e+003;8.921511e-002
1.673980e+003;8.822166e-002
1.675908e+003;8.712672e-002
1.677837e+003;8.604858e-002
1.679765e+003;8.514816e-002
1.681694e+003;8.427742e-002
1.683622e+003;8.323282e-002
1.685551e+003;8.229887e-002
1.687479e+003;8.173401e-002
1.689408e+003;8.103106e-002
1.691337e+003;8.027922e-002
1.693265e+003;7.960768e-002
1.695194e+003;7.892175e-002
1.697122e+003;7.852230e-002
1.699051e+003;7.819319e-002
1.700979e+003;7.776737e-002
1.702908e+003;7.763614e-002
1.704836e+003;7.770072e-002
1.706765e+003;7.765804e-002
1.708693e+003;7.747705e-002
1.710622e+003;7.722207e-002
1.712551e+003;7.719753e-002
1.714479e+003;7.697531e-002
1.716408e+003;7.640006e-002
1.718336e+003;7.614049e-002
1.720265e+003;7.621734e-002
1.722193e+003;7.617165e-002
1.724122e+003;7.573665e-002
1.726050e+003;7.532202e-002
1.727979e+003;7.505795e-002
1.729908e+003;7.493095e-002
1.731836e+003;7.469501e-002
1.733765e+003;7.415496e-002
1.735693e+003;7.385345e-002
1.737622e+003;7.379061e-002
1.739550e+003;7.361978e-002
1.741479e+003;7.306471e-002
1.743407e+003;7.228094e-002
1.745336e+003;7.157569e-002
1.747265e+003;7.105663e-002
1.749193e+003;7.080106e-002
1.751122e+003;7.046723e-002
1.753050e+003;7.005896e-002
1.754979e+003;6.951399e-002
1.756907e+003;6.915449e-002
1.758836e+003;6.905713e-002
1.760764e+003;6.912702e-002
1.762693e+003;6.910017e-002
1.764621e+003;6.883107e-002
1.766550e+003;6.868593e-002
1.768479e+003;6.852148e-002
1.770407e+003;6.850266e-002
1.772336e+003;6.852408e-002
1.774264e+003;6.834092e-002
1.776193e+003;6.813966e-002
1.778121e+003;6.804927e-002
1.780050e+003;6.797696e-002
1.781978e+003;6.781889e-002
1.783907e+003;6.779694e-002
1.785835e+003;6.763320e-002
1.787764e+003;6.731979e-002
1.789693e+003;6.731004e-002
1.791621e+003;6.724005e-002
1.793550e+003;6.682824e-002
1.795478e+003;6.651057e-002
1.797407e+003;6.666144e-002
1.799335e+003;6.685928e-002
1.801264e+003;6.690009e-002
1.803192e+003;6.681406e-002
1.805121e+003;6.675757e-002
1.807049e+003;6.665564e-002
1.808978e+003;6.653012e-002
1.810907e+003;6.617808e-002
1.812835e+003;6.604000e-002
1.814764e+003;6.610651e-002
1.816692e+003;6.607114e-002
1.818621e+003;6.615251e-002
1.820549e+003;6.622606e-002
1.822478e+003;6.641640e-002
1.824406e+003;6.658670e-002
1.826335e+003;6.625751e-002
1.828264e+003;6.576604e-002
1.830192e+003;6.571662e-002
1.832121e+003;6.581065e-002
1.834049e+003;6.573714e-002
1.835978e+003;6.553784e-002
1.837906e+003;6.534970e-002
1.839835e+003;6.537585e-002
1.841763e+003;6.544834e-002
1.843692e+003;6.547242e-002
1.845620e+003;6.541487e-002
1.847549e+003;6.504831e-002
1.849478e+003;6.500286e-002
1.851406e+003;6.516021e-002
1.853335e+003;6.475425e-002
1.855263e+003;6.431355e-002
1.857192e+003;6.427620e-002
1.859120e+003;6.425054e-002
1.861049e+003;6.431705e-002
1.862977e+003;6.451581e-002
1.864906e+003;6.457160e-002
1.866834e+003;6.448130e-002
1.868763e+003;6.443191e-002
1.870692e+003;6.428089e-002
1.872620e+003;6.405547e-002
1.874549e+003;6.406153e-002
1.876477e+003;6.403684e-002
1.878406e+003;6.397691e-002
1.880334e+003;6.414533e-002
1.882263e+003;6.429030e-002
1.884191e+003;6.433714e-002
1.886120e+003;6.422299e-002
1.888048e+003;6.422461e-002
1.889977e+003;6.420225e-002
1.891906e+003;6.415531e-002
1.893834e+003;6.399591e-002
1.895763e+003;6.384136e-002
1.897691e+003;6.386239e-002
1.899620e+003;6.391647e-002
1.901548e+003;6.393694e-002
1.903477e+003;6.396109e-002
1.905405e+003;6.392534e-002
1.907334e+003;6.386523e-002
1.909262e+003;6.398094e-002
1.911191e+003;6.421693e-002
1.913120e+003;6.413680e-002
1.915048e+003;6.394412e-002
1.916977e+003;6.411725e-002
1.918905e+003;6.437457e-002
1.920834e+003;6.423959e-002
1.922762e+003;6.412873e-002
1.924691e+003;6.418470e-002
1.926619e+003;6.414460e-002
1.928548e+003;6.426863e-002
1.930477e+003;6.478556e-002
1.932405e+003;6.501656e-002
1.934334e+003;6.485753e-002
1.936262e+003;6.471559e-002
1.938191e+003;6.470664e-002
1.940119e+003;6.484026e-002
1.942048e+003;6.501140e-002
1.943976e+003;6.516460e-002
1.945905e+003;6.522362e-002
1.947833e+003;6.531993e-002
1.949762e+003;6.560050e-002
1.951691e+003;6.574592e-002
1.953619e+003;6.562909e-002
1.955548e+003;6.556536e-002
1.957476e+003;6.561980e-002
1.959405e+003;6.563511e-002
1.961333e+003;6.585021e-002
1.963262e+003;6.609116e-002
1.965190e+003;6.606901e-002
1.967119e+003;6.597007e-002
1.969047e+003;6.570587e-002
1.970976e+003;6.565411e-002
1.972905e+003;6.585611e-002
1.974833e+003;6.585211e-002
1.976762e+003;6.585257e-002
1.978690e+003;6.607950e-002
1.980619e+003;6.623937e-002
1.982547e+003;6.638979e-002
1.984476e+003;6.657619e-002
1.986404e+003;6.650142e-002
1.988333e+003;6.641570e-002
1.990261e+003;6.641543e-002
1.992190e+003;6.651471e-002
1.994119e+003;6.668462e-002
1.996047e+003;6.677908e-002
1.997976e+003;6.665962e-002
1.999904e+003;6.660721e-002
2.001833e+003;6.670000e-002
2.003761e+003;6.673944e-002
2.005690e+003;6.693789e-002
2.007618e+003;6.730388e-002
2.009547e+003;6.742375e-002
2.011476e+003;6.721545e-002
2.013404e+003;6.728566e-002
2.015333e+003;6.756452e-002
2.017261e+003;6.760398e-002
2.019190e+003;6.764668e-002
2.021118e+003;6.773164e-002
2.023047e+003;6.788068e-002
2.024975e+003;6.820118e-002
2.026904e+003;6.842978e-002
2.028833e+003;6.841954e-002
2.030761e+003;6.835054e-002
2.032690e+003;6.851943e-002
2.034618e+003;6.857817e-002
2.036547e+003;6.859427e-002
2.038475e+003;6.873927e-002
2.040404e+003;6.890842e-002
2.042332e+003;6.910414e-002
2.044261e+003;6.903122e-002
2.046189e+003;6.881574e-002
2.048118e+003;6.871101e-002
2.050047e+003;6.898923e-002
2.051975e+003;6.913180e-002
2.053904e+003;6.901996e-002
2.055832e+003;6.891949e-002
2.057761e+003;6.919392e-002
2.059689e+003;6.922229e-002
2.061618e+003;6.876927e-002
2.063546e+003;6.866672e-002
2.065475e+003;6.878996e-002
2.067404e+003;6.864937e-002
2.069332e+003;6.847364e-002
2.071260e+003;6.856940e-002
2.073189e+003;6.846969e-002
2.075118e+003;6.843637e-002
2.077046e+003;6.858748e-002
2.078975e+003;6.861235e-002
2.080903e+003;6.860370e-002
2.082832e+003;6.859031e-002
2.084760e+003;6.822494e-002
2.086689e+003;6.778327e-002
2.088617e+003;6.795898e-002
2.090546e+003;6.829353e-002
2.092475e+003;6.836586e-002
2.094403e+003;6.846030e-002
2.096332e+003;6.878056e-002
2.098260e+003;6.872583e-002
2.100189e+003;6.847000e-002
2.102117e+003;6.866199e-002
2.104046e+003;6.873228e-002
2.105974e+003;6.864475e-002
2.107903e+003;6.866125e-002
2.109832e+003;6.860490e-002
2.111760e+003;6.878655e-002
2.113688e+003;6.899634e-002
2.115617e+003;6.909357e-002
2.117546e+003;6.915149e-002
2.119474e+003;6.898978e-002
2.121403e+003;6.914093e-002
2.123331e+003;6.945395e-002
2.125260e+003;6.949766e-002
2.127188e+003;6.949486e-002
2.129117e+003;6.932536e-002
2.131045e+003;6.922400e-002
2.132974e+003;6.945022e-002
2.134903e+003;6.971445e-002
2.136831e+003;6.960071e-002
2.138760e+003;6.922182e-002
2.140688e+003;6.909761e-002
2.142617e+003;6.918615e-002
2.144545e+003;6.905340e-002
2.146474e+003;6.904443e-002
2.148402e+003;6.921642e-002
2.150331e+003;6.896915e-002
2.152260e+003;6.878325e-002
2.154188e+003;6.901821e-002
2.156117e+003;6.910308e-002
2.158045e+003;6.875188e-002
2.159974e+003;6.846884e-002
2.161902e+003;6.843013e-002
2.163831e+003;6.831466e-002
2.165759e+003;6.828617e-002
2.167688e+003;6.803408e-002
2.169616e+003;6.786716e-002
2.171545e+003;6.784954e-002
2.173474e+003;6.755593e-002
2.175402e+003;6.715067e-002
2.177331e+003;6.702117e-002
2.179259e+003;6.709664e-002
2.181188e+003;6.702913e-002
2.183116e+003;6.668562e-002
2.185045e+003;6.636439e-002
2.186973e+003;6.639732e-002
2.188902e+003;6.636188e-002
2.190831e+003;6.616586e-002
2.192759e+003;6.615401e-002
2.194688e+003;6.600413e-002
2.196616e+003;6.595873e-002
2.198545e+003;6.600714e-002
2.200473e+003;6.603371e-002
2.202402e+003;6.592853e-002
2.204330e+003;6.594978e-002
2.206259e+003;6.599703e-002
2.208188e+003;6.569912e-002
2.210116e+003;6.539538e-002
2.212044e+003;6.573721e-002
2.213973e+003;6.609440e-002
2.215902e+003;6.598361e-002
2.217830e+003;6.601550e-002
2.219759e+003;6.623311e-002
2.221687e+003;6.619460e-002
2.223616e+003;6.615910e-002
2.225544e+003;6.619256e-002
2.227473e+003;6.602353e-002
2.229401e+003;6.585287e-002
2.231330e+003;6.621100e-002
2.233259e+003;6.639041e-002
2.235187e+003;6.616265e-002
2.237116e+003;6.605242e-002
2.239044e+003;6.603368e-002
2.240973e+003;6.596236e-002
2.242901e+003;6.588954e-002
2.244830e+003;6.596683e-002
2.246758e+003;6.604617e-002
2.248687e+003;6.603217e-002
2.250615e+003;6.580499e-002
2.252544e+003;6.554775e-002
2.254473e+003;6.555877e-002
2.256401e+003;6.561923e-002
2.258330e+003;6.549754e-002
2.260258e+003;6.515732e-002
2.262187e+003;6.512087e-002
2.264115e+003;6.529243e-002
2.266044e+003;6.529386e-002
2.267972e+003;6.500871e-002
2.269901e+003;6.471529e-002
2.271830e+003;6.469990e-002
2.273758e+003;6.453765e-002
2.275687e+003;6.444175e-002
2.277615e+003;6.433556e-002
2.279544e+003;6.419941e-002
2.281472e+003;6.409021e-002
2.283401e+003;6.407524e-002
2.285329e+003;6.425123e-002
2.287258e+003;6.423959e-002
2.289187e+003;6.417175e-002
2.291115e+003;6.441253e-002
2.293043e+003;6.465007e-002
2.294972e+003;6.441288e-002
2.296901e+003;6.440185e-002
2.298829e+003;6.451777e-002
2.300758e+003;6.427163e-002
2.302686e+003;6.396738e-002
2.304615e+003;6.371261e-002
2.306543e+003;6.369807e-002
2.308472e+003;6.380018e-002
2.310400e+003;6.386654e-002
2.312329e+003;6.414859e-002
2.314258e+003;6.413968e-002
2.316186e+003;6.398474e-002
2.318115e+003;6.422914e-002
2.320043e+003;6.438267e-002
2.321972e+003;6.441549e-002
2.323900e+003;6.453507e-002
2.325829e+003;6.448252e-002
2.327757e+003;6.446435e-002
2.329686e+003;6.467322e-002
2.331615e+003;6.471894e-002
2.333543e+003;6.465161e-002
2.335472e+003;6.456698e-002
2.337400e+003;6.458228e-002
2.339329e+003;6.499305e-002
2.341257e+003;6.522717e-002
2.343186e+003;6.508707e-002
2.345114e+003;6.523582e-002
2.347043e+003;6.558266e-002
2.348971e+003;6.559931e-002
2.350900e+003;6.564644e-002
2.352829e+003;6.591083e-002
2.354757e+003;6.592093e-002
2.356686e+003;6.581628e-002
2.358614e+003;6.566698e-002
2.360543e+003;6.559406e-002
2.362471e+003;6.574037e-002
2.364400e+003;6.622590e-002
2.366328e+003;6.638721e-002
2.368257e+003;6.604636e-002
2.370186e+003;6.607414e-002
2.372114e+003;6.666264e-002
2.374042e+003;6.694625e-002
2.375971e+003;6.704046e-002
2.377900e+003;6.698363e-002
2.379828e+003;6.690612e-002
2.381757e+003;6.703775e-002
2.383685e+003;6.728856e-002
2.385614e+003;6.785101e-002
2.387542e+003;6.825410e-002
2.389471e+003;6.793891e-002
2.391399e+003;6.760727e-002
2.393328e+003;6.784698e-002
2.395257e+003;6.823464e-002
2.397185e+003;6.812074e-002
2.399114e+003;6.780569e-002
2.401042e+003;6.774949e-002
2.402971e+003;6.791904e-002
2.404899e+003;6.827667e-002
2.406828e+003;6.833871e-002
2.408756e+003;6.830955e-002
2.410685e+003;6.861332e-002
2.412614e+003;6.880153e-002
2.414542e+003;6.880883e-002
2.416471e+003;6.903014e-002
2.418399e+003;6.912756e-002
2.420328e+003;6.908669e-002
2.422256e+003;6.938685e-002
2.424185e+003;6.962319e-002
2.426113e+003;6.970352e-002
2.428042e+003;6.981744e-002
2.429970e+003;6.983133e-002
2.431899e+003;7.006278e-002
2.433828e+003;7.048141e-002
2.435756e+003;7.061312e-002
2.437685e+003;7.065558e-002
2.439613e+003;7.065838e-002
2.441542e+003;7.046539e-002
2.443470e+003;7.038481e-002
2.445399e+003;7.074393e-002
2.447327e+003;7.097395e-002
2.449256e+003;7.098518e-002
2.451185e+003;7.116806e-002
2.453113e+003;7.125769e-002
2.455042e+003;7.138272e-002
2.456970e+003;7.169698e-002
2.458899e+003;7.174935e-002
2.460827e+003;7.175944e-002
2.462756e+003;7.202715e-002
2.464684e+003;7.191378e-002
2.466613e+003;7.182288e-002
2.468542e+003;7.197134e-002
2.470470e+003;7.205386e-002
2.472398e+003;7.218331e-002
2.474327e+003;7.217439e-002
2.476256e+003;7.231436e-002
2.478184e+003;7.274551e-002
2.480113e+003;7.299376e-002
2.482041e+003;7.281215e-002
2.483970e+003;7.294151e-002
2.485898e+003;7.305409e-002
2.487827e+003;7.302245e-002
2.489755e+003;7.329208e-002
2.491684e+003;7.350588e-002
2.493613e+003;7.349520e-002
2.495541e+003;7.355254e-002
2.497470e+003;7.370941e-002
2.499398e+003;7.360482e-002
2.501327e+003;7.357036e-002
2.503255e+003;7.366069e-002
2.505184e+003;7.380102e-002
2.507112e+003;7.408233e-002
2.509041e+003;7.419410e-002
2.510969e+003;7.444610e-002
2.512898e+003;7.462107e-002
2.514827e+003;7.473160e-002
2.516755e+003;7.483693e-002
2.518684e+003;7.482831e-002
2.520612e+003;7.482438e-002
2.522541e+003;7.497371e-002
2.524469e+003;7.515287e-002
2.526398e+003;7.513656e-002
2.528326e+003;7.501451e-002
2.530255e+003;7.522935e-002
2.532184e+003;7.554502e-002
2.534112e+003;7.538359e-002
2.536041e+003;7.516879e-002
2.537969e+003;7.497564e-002
2.539898e+003;7.477588e-002
2.541826e+003;7.523569e-002
2.543755e+003;7.578722e-002
2.545683e+003;7.567792e-002
2.547612e+003;7.568845e-002
2.549541e+003;7.570111e-002
2.551469e+003;7.566774e-002
2.553397e+003;7.565859e-002
2.555326e+003;7.586826e-002
2.557255e+003;7.619669e-002
2.559183e+003;7.615017e-002
2.561112e+003;7.596858e-002
2.563040e+003;7.583275e-002
2.564969e+003;7.595761e-002
2.566897e+003;7.605976e-002
2.568826e+003;7.613382e-002
2.570754e+003;7.628025e-002
2.572683e+003;7.620817e-002
2.574612e+003;7.592892e-002
2.576540e+003;7.572142e-002
2.578469e+003;7.595086e-002
2.580397e+003;7.628981e-002
2.582326e+003;7.639832e-002
2.584254e+003;7.639358e-002
2.586183e+003;7.632674e-002
2.588111e+003;7.622464e-002
2.590040e+003;7.630960e-002
2.591969e+003;7.650283e-002
2.593897e+003;7.685083e-002
2.595826e+003;7.738597e-002
2.597754e+003;7.736205e-002
2.599683e+003;7.698409e-002
2.601611e+003;7.691316e-002
2.603540e+003;7.720893e-002
2.605468e+003;7.746042e-002
2.607397e+003;7.742628e-002
2.609325e+003;7.762262e-002
2.611254e+003;7.782223e-002
2.613183e+003;7.761320e-002
2.615111e+003;7.744636e-002
2.617040e+003;7.788184e-002
2.618968e+003;7.822520e-002
2.620897e+003;7.811341e-002
2.622825e+003;7.825008e-002
2.624754e+003;7.845338e-002
2.626682e+003;7.857209e-002
2.628611e+003;7.855120e-002
2.630540e+003;7.871874e-002
2.632468e+003;7.882472e-002
2.634396e+003;7.897743e-002
2.636325e+003;7.913853e-002
2.638254e+003;7.908630e-002
2.640182e+003;7.883231e-002
2.642111e+003;7.897234e-002
2.644039e+003;7.970663e-002
2.645968e+003;7.984555e-002
2.647896e+003;7.926577e-002
2.649825e+003;7.932758e-002
2.651753e+003;7.973804e-002
2.653682e+003;7.987510e-002
2.655611e+003;7.988155e-002
2.657539e+003;7.997216e-002
2.659468e+003;8.018640e-002
2.661396e+003;8.022562e-002
2.663325e+003;7.997686e-002
2.665253e+003;8.016081e-002
2.667182e+003;8.055152e-002
2.669110e+003;8.062939e-002
2.671039e+003;8.069011e-002
2.672968e+003;8.082767e-002
2.674896e+003;8.093620e-002
2.676825e+003;8.130915e-002
2.678753e+003;8.130000e-002
2.680682e+003;8.103945e-002
2.682610e+003;8.111381e-002
2.684539e+003;8.138635e-002
2.686467e+003;8.166379e-002
2.688396e+003;8.195604e-002
2.690324e+003;8.225498e-002
2.692253e+003;8.236656e-002
2.694182e+003;8.215825e-002
2.696110e+003;8.212386e-002
2.698039e+003;8.205309e-002
2.699967e+003;8.225919e-002
2.701896e+003;8.256575e-002
2.703824e+003;8.252868e-002
2.705753e+003;8.243922e-002
2.707681e+003;8.277169e-002
2.709610e+003;8.347156e-002
2.711539e+003;8.421338e-002
2.713467e+003;8.416994e-002
2.715396e+003;8.348400e-002
2.717324e+003;8.328828e-002
2.719253e+003;8.371168e-002
2.721181e+003;8.398014e-002
2.723110e+003;8.419206e-002
2.725038e+003;8.412908e-002
2.726967e+003;8.410909e-002
2.728896e+003;8.424596e-002
2.730824e+003;8.432047e-002
2.732752e+003;8.472960e-002
2.734681e+003;8.480508e-002
2.736610e+003;8.443370e-002
2.738538e+003;8.422541e-002
2.740467e+003;8.454866e-002
2.742395e+003;8.485483e-002
2.744324e+003;8.491018e-002
2.746252e+003;8.491332e-002
2.748181e+003;8.499774e-002
2.750109e+003;8.488210e-002
2.752038e+003;8.485740e-002
2.753967e+003;8.502651e-002
2.755895e+003;8.494076e-002
2.757824e+003;8.500173e-002
2.759752e+003;8.536423e-002
2.761681e+003;8.559870e-002
2.763609e+003;8.578940e-002
2.765538e+003;8.601518e-002
2.767466e+003;8.624236e-002
2.769395e+003;8.624700e-002
2.771323e+003;8.635844e-002
2.773252e+003;8.662099e-002
2.775181e+003;8.669004e-002
2.777109e+003;8.660432e-002
2.779038e+003;8.680098e-002
2.780966e+003;8.736753e-002
2.782895e+003;8.762468e-002
2.784823e+003;8.785583e-002
2.786752e+003;8.848973e-002
2.788680e+003;8.888195e-002
2.790609e+003;8.892310e-002
2.792538e+003;8.919538e-002
2.794466e+003;8.929793e-002
2.796395e+003;8.929707e-002
2.798323e+003;8.957224e-002
2.800252e+003;8.998468e-002
2.802180e+003;9.065370e-002
2.804109e+003;9.115700e-002
2.806037e+003;9.123172e-002
2.807966e+003;9.186462e-002
2.809895e+003;9.274600e-002
2.811823e+003;9.304314e-002
2.813751e+003;9.310353e-002
2.815680e+003;9.355050e-002
2.817609e+003;9.432762e-002
2.819537e+003;9.506852e-002
2.821466e+003;9.587912e-002
2.823394e+003;9.618792e-002
2.825323e+003;9.656286e-002
2.827251e+003;9.762990e-002
2.829180e+003;9.845606e-002
2.831108e+003;9.893936e-002
2.833037e+003;9.950285e-002
2.834966e+003;1.005375e-001
2.836894e+003;1.024405e-001
2.838823e+003;1.040796e-001
2.840751e+003;1.054650e-001
2.842680e+003;1.073885e-001
2.844608e+003;1.095604e-001
2.846537e+003;1.115421e-001
2.848465e+003;1.137929e-001
2.850394e+003;1.164597e-001
2.852323e+003;1.184457e-001
2.854251e+003;1.194307e-001
2.856180e+003;1.199603e-001
2.858108e+003;1.203108e-001
2.860037e+003;1.210996e-001
2.861965e+003;1.225075e-001
2.863894e+003;1.233045e-001
2.865822e+003;1.233153e-001
2.867751e+003;1.239457e-001
2.869679e+003;1.248367e-001
2.871608e+003;1.253968e-001
2.873536e+003;1.259558e-001
2.875465e+003;1.264251e-001
2.877394e+003;1.264346e-001
2.879322e+003;1.266296e-001
2.881251e+003;1.270703e-001
2.883179e+003;1.281914e-001
2.885108e+003;1.297137e-001
2.887036e+003;1.306697e-001
2.888965e+003;1.310787e-001
2.890893e+003;1.318744e-001
2.892822e+003;1.328222e-001
2.894750e+003;1.331983e-001
2.896679e+003;1.332860e-001
2.898608e+003;1.338050e-001
2.900536e+003;1.338428e-001
2.902465e+003;1.331371e-001
2.904393e+003;1.330267e-001
2.906322e+003;1.327148e-001
2.908250e+003;1.318317e-001
2.910179e+003;1.312203e-001
2.912107e+003;1.303104e-001
2.914036e+003;1.289824e-001
2.915965e+003;1.280369e-001
2.917893e+003;1.270417e-001
2.919822e+003;1.258421e-001
2.921750e+003;1.245890e-001
2.923679e+003;1.230765e-001
2.925607e+003;1.213916e-001
2.927536e+003;1.198171e-001
2.929464e+003;1.183465e-001
2.931393e+003;1.164762e-001
2.933322e+003;1.146464e-001
2.935250e+003;1.125171e-001
2.937178e+003;1.108518e-001
2.939107e+003;1.098411e-001
2.941036e+003;1.086752e-001
2.942964e+003;1.075227e-001
2.944893e+003;1.067221e-001
2.946821e+003;1.058165e-001
2.948750e+003;1.044177e-001
2.950678e+003;1.030228e-001
2.952607e+003;1.014843e-001
2.954535e+003;1.001560e-001
2.956464e+003;9.933648e-002
2.958393e+003;9.842697e-002
2.960321e+003;9.780514e-002
2.962250e+003;9.714152e-002
2.964178e+003;9.599846e-002
2.966107e+003;9.478400e-002
2.968035e+003;9.359661e-002
2.969964e+003;9.206823e-002
2.971892e+003;9.017479e-002
2.973821e+003;8.873385e-002
2.975750e+003;8.782358e-002
2.977678e+003;8.670844e-002
2.979607e+003;8.558462e-002
2.981535e+003;8.499859e-002
2.983464e+003;8.456935e-002
2.985392e+003;8.384734e-002
2.987321e+003;8.300395e-002
2.989249e+003;8.246626e-002
2.991178e+003;8.227652e-002
2.993106e+003;8.220553e-002
2.995035e+003;8.208971e-002
2.996964e+003;8.223989e-002
2.998892e+003;8.220621e-002
3.000821e+003;8.190978e-002
3.002749e+003;8.192691e-002
3.004678e+003;8.226547e-002
3.006606e+003;8.191523e-002
3.008535e+003;8.187030e-002
3.010463e+003;8.229743e-002
3.012392e+003;8.243757e-002
3.014321e+003;8.266775e-002
3.016249e+003;8.284173e-002
3.018177e+003;8.319858e-002
3.020106e+003;8.334725e-002
3.022035e+003;8.301403e-002
3.023963e+003;8.255994e-002
3.025892e+003;8.290745e-002
3.027820e+003;8.368278e-002
3.029749e+003;8.398975e-002
3.031677e+003;8.426640e-002
3.033606e+003;8.450329e-002
3.035534e+003;8.446103e-002
3.037463e+003;8.487324e-002
3.039392e+003;8.518802e-002
3.041320e+003;8.540057e-002
3.043249e+003;8.589757e-002
3.045177e+003;8.641314e-002
3.047106e+003;8.641649e-002
3.049034e+003;8.638588e-002
3.050963e+003;8.647916e-002
3.052891e+003;8.661848e-002
3.054820e+003;8.751345e-002
3.056749e+003;8.791498e-002
3.058677e+003;8.788203e-002
3.060606e+003;8.802441e-002
3.062534e+003;8.799636e-002
3.064463e+003;8.842831e-002
3.066391e+003;8.913395e-002
3.068320e+003;8.955175e-002
3.070248e+003;8.979134e-002
3.072177e+003;9.035116e-002
3.074105e+003;9.089198e-002
3.076034e+003;9.087519e-002
3.077963e+003;9.100191e-002
3.079891e+003;9.168060e-002
3.081820e+003;9.215322e-002
3.083748e+003;9.230847e-002
3.085677e+003;9.268820e-002
3.087605e+003;9.291734e-002
3.089534e+003;9.305915e-002
3.091462e+003;9.339397e-002
3.093391e+003;9.404893e-002
3.095320e+003;9.499001e-002
3.097248e+003;9.536058e-002
3.099177e+003;9.555124e-002
3.101105e+003;9.633642e-002
3.103034e+003;9.687245e-002
3.104962e+003;9.711197e-002
3.106891e+003;9.720111e-002
3.108819e+003;9.743563e-002
3.110748e+003;9.790193e-002
3.112677e+003;9.830172e-002
3.114605e+003;9.865687e-002
3.116533e+003;9.895717e-002
3.118462e+003;9.949210e-002
3.120391e+003;9.990574e-002
3.122319e+003;1.005800e-001
3.124248e+003;1.015593e-001
3.126176e+003;1.023581e-001
3.128105e+003;1.029517e-001
3.130033e+003;1.034577e-001
3.131962e+003;1.034514e-001
3.133890e+003;1.034001e-001
3.135819e+003;1.037903e-001
3.137748e+003;1.044665e-001
3.139676e+003;1.053791e-001
3.141605e+003;1.059416e-001
3.143533e+003;1.063278e-001
3.145462e+003;1.070122e-001
3.147390e+003;1.079980e-001
3.149319e+003;1.090672e-001
3.151247e+003;1.097042e-001
3.153176e+003;1.099011e-001
3.155104e+003;1.103255e-001
3.157033e+003;1.111117e-001
3.158962e+003;1.120850e-001
3.160890e+003;1.128419e-001
3.162819e+003;1.131204e-001
3.164747e+003;1.134266e-001
3.166676e+003;1.147341e-001
3.168604e+003;1.160257e-001
3.170533e+003;1.163783e-001
3.172461e+003;1.163889e-001
3.174390e+003;1.166531e-001
3.176319e+003;1.177097e-001
3.178247e+003;1.192914e-001
3.180176e+003;1.201785e-001
3.182104e+003;1.210769e-001
3.184033e+003;1.220300e-001
3.185961e+003;1.224387e-001
3.187890e+003;1.234299e-001
3.189818e+003;1.244993e-001
3.191747e+003;1.250881e-001
3.193676e+003;1.260176e-001
3.195604e+003;1.267930e-001
3.197532e+003;1.276204e-001
3.199461e+003;1.282213e-001
3.201390e+003;1.291634e-001
3.203318e+003;1.305682e-001
3.205247e+003;1.312168e-001
3.207175e+003;1.322457e-001
3.209104e+003;1.336727e-001
3.211032e+003;1.345913e-001
3.212961e+003;1.350562e-001
3.214889e+003;1.360230e-001
3.216818e+003;1.372728e-001
3.218747e+003;1.381803e-001
3.220675e+003;1.392858e-001
3.222604e+003;1.405837e-001
3.224532e+003;1.419882e-001
3.226461e+003;1.435099e-001
3.228389e+003;1.447990e-001
3.230318e+003;1.460349e-001
3.232246e+003;1.471700e-001
3.234175e+003;1.482605e-001
3.236104e+003;1.496190e-001
3.238032e+003;1.507768e-001
3.239961e+003;1.520848e-001
3.241889e+003;1.540932e-001
3.243818e+003;1.556702e-001
3.245746e+003;1.566666e-001
3.247675e+003;1.580581e-001
3.249603e+003;1.599617e-001
3.251532e+003;1.619335e-001
3.253460e+003;1.637239e-001
3.255389e+003;1.656070e-001
3.257318e+003;1.675971e-001
3.259246e+003;1.697801e-001
3.261175e+003;1.708453e-001
3.263103e+003;1.712661e-001
3.265032e+003;1.728104e-001
3.266960e+003;1.742348e-001
3.268889e+003;1.755516e-001
3.270817e+003;1.766627e-001
3.272746e+003;1.772865e-001
3.274675e+003;1.780654e-001
3.276603e+003;1.794095e-001
3.278531e+003;1.808024e-001
3.280460e+003;1.813668e-001
3.282389e+003;1.818058e-001
3.284317e+003;1.825171e-001
3.286246e+003;1.828552e-001
3.288174e+003;1.829354e-001
3.290103e+003;1.834430e-001
3.292031e+003;1.841956e-001
3.293960e+003;1.840656e-001
3.295888e+003;1.838884e-001
3.297817e+003;1.841598e-001
3.299746e+003;1.842074e-001
3.301674e+003;1.841425e-001
3.303603e+003;1.846032e-001
3.305531e+003;1.855233e-001
3.307460e+003;1.860686e-001
3.309388e+003;1.861997e-001
3.311317e+003;1.863470e-001
3.313245e+003;1.868986e-001
3.315174e+003;1.875811e-001
3.317103e+003;1.880513e-001
3.319031e+003;1.886501e-001
3.320960e+003;1.892828e-001
3.322888e+003;1.901306e-001
3.324817e+003;1.906830e-001
3.326745e+003;1.909642e-001
3.328674e+003;1.916208e-001
3.330602e+003;1.921767e-001
3.332531e+003;1.927481e-001
3.334459e+003;1.925180e-001
3.336388e+003;1.913045e-001
3.338317e+003;1.907352e-001
3.340245e+003;1.901996e-001
3.342174e+003;1.893607e-001
3.344102e+003;1.885955e-001
3.346031e+003;1.872139e-001
3.347959e+003;1.854179e-001
3.349888e+003;1.842020e-001
3.351816e+003;1.832495e-001
3.353745e+003;1.816776e-001
3.355674e+003;1.805506e-001
3.357602e+003;1.797062e-001
3.359531e+003;1.776216e-001
3.361459e+003;1.754596e-001
3.363388e+003;1.739721e-001
3.365316e+003;1.736089e-001
3.367245e+003;1.733232e-001
3.369173e+003;1.713942e-001
3.371102e+003;1.693352e-001
3.373031e+003;1.687774e-001
3.374959e+003;1.683459e-001
3.376887e+003;1.674479e-001
3.378816e+003;1.668151e-001
3.380745e+003;1.660361e-001
3.382673e+003;1.651931e-001
3.384602e+003;1.643454e-001
3.386530e+003;1.633661e-001
3.388459e+003;1.627221e-001
3.390387e+003;1.615633e-001
3.392316e+003;1.607855e-001
3.394244e+003;1.607970e-001
3.396173e+003;1.604263e-001
3.398102e+003;1.591946e-001
3.400030e+003;1.578330e-001
3.401959e+003;1.571547e-001
3.403887e+003;1.568507e-001
3.405816e+003;1.560495e-001
3.407744e+003;1.544680e-001
3.409673e+003;1.530422e-001
3.411601e+003;1.515441e-001
3.413530e+003;1.507385e-001
3.415458e+003;1.495461e-001
3.417387e+003;1.484179e-001
3.419316e+003;1.475140e-001
3.421244e+003;1.460625e-001
3.423173e+003;1.447627e-001
3.425101e+003;1.433595e-001
3.427030e+003;1.418432e-001
3.428958e+003;1.405175e-001
3.430887e+003;1.396246e-001
3.432815e+003;1.388033e-001
3.434744e+003;1.374162e-001
3.436673e+003;1.362884e-001
3.438601e+003;1.352333e-001
3.440530e+003;1.336932e-001
3.442458e+003;1.327144e-001
3.444387e+003;1.318174e-001
3.446315e+003;1.300286e-001
3.448244e+003;1.282514e-001
3.450172e+003;1.275477e-001
3.452101e+003;1.267680e-001
3.454030e+003;1.253470e-001
3.455958e+003;1.238934e-001
3.457886e+003;1.224994e-001
3.459815e+003;1.210804e-001
3.461744e+003;1.200994e-001
3.463672e+003;1.188434e-001
3.465601e+003;1.173600e-001
3.467529e+003;1.163476e-001
3.469458e+003;1.146935e-001
3.471386e+003;1.132808e-001
3.473315e+003;1.119130e-001
3.475243e+003;1.105538e-001
3.477172e+003;1.097075e-001
3.479101e+003;1.085994e-001
3.481029e+003;1.069665e-001
3.482958e+003;1.056902e-001
3.484886e+003;1.048897e-001
3.486815e+003;1.036423e-001
3.488743e+003;1.020722e-001
3.490672e+003;1.008343e-001
3.492600e+003;9.979490e-002
3.494529e+003;9.914076e-002
3.496458e+003;9.847593e-002
3.498386e+003;9.761328e-002
3.500315e+003;9.614707e-002
3.502243e+003;9.467722e-002
3.504172e+003;9.349875e-002
3.506100e+003;9.221119e-002
3.508029e+003;9.126279e-002
3.509957e+003;9.061181e-002
3.511886e+003;8.990149e-002
3.513814e+003;8.853868e-002
3.515743e+003;8.716628e-002
3.517672e+003;8.639821e-002
3.519600e+003;8.554306e-002
3.521529e+003;8.453392e-002
3.523457e+003;8.282445e-002
3.525386e+003;8.179057e-002
3.527314e+003;8.152796e-002
3.529243e+003;8.109943e-002
3.531171e+003;8.003578e-002
3.533100e+003;7.874738e-002
3.535029e+003;7.781921e-002
3.536957e+003;7.698449e-002
3.538885e+003;7.604203e-002
3.540814e+003;7.547212e-002
3.542743e+003;7.461785e-002
3.544671e+003;7.350839e-002
3.546600e+003;7.243280e-002
3.548528e+003;7.181225e-002
3.550457e+003;7.121397e-002
3.552385e+003;7.043924e-002
3.554314e+003;6.921735e-002
3.556242e+003;6.784814e-002
3.558171e+003;6.698938e-002
3.560100e+003;6.656240e-002
3.562028e+003;6.621714e-002
3.563957e+003;6.589182e-002
3.565885e+003;6.548864e-002
3.567814e+003;6.454407e-002
3.569742e+003;6.349519e-002
3.571671e+003;6.221219e-002
3.573599e+003;6.137453e-002
3.575528e+003;6.142831e-002
3.577457e+003;6.127879e-002
3.579385e+003;6.030293e-002
3.581314e+003;5.965269e-002
3.583242e+003;5.934220e-002
3.585171e+003;5.865809e-002
3.587099e+003;5.811818e-002
3.589028e+003;5.760803e-002
3.590956e+003;5.724497e-002
3.592885e+003;5.671719e-002
3.594813e+003;5.566468e-002
3.596742e+003;5.475821e-002
3.598671e+003;5.464099e-002
3.600599e+003;5.375764e-002
3.602528e+003;5.295154e-002
3.604456e+003;5.290288e-002
3.606385e+003;5.212742e-002
3.608313e+003;5.102701e-002
3.610242e+003;5.034716e-002
3.612170e+003;5.048578e-002
3.614099e+003;5.077353e-002
3.616028e+003;5.026435e-002
3.617956e+003;4.937455e-002
3.619885e+003;4.879325e-002
3.621813e+003;4.846105e-002
3.623742e+003;4.869420e-002
3.625670e+003;4.894702e-002
3.627599e+003;4.896701e-002
3.629527e+003;4.844927e-002
3.631456e+003;4.751227e-002
3.633385e+003;4.681701e-002
3.635313e+003;4.641854e-002
3.637241e+003;4.610465e-002
3.639170e+003;4.557791e-002
3.641099e+003;4.471186e-002
3.643027e+003;4.397900e-002
3.644956e+003;4.372301e-002
3.646884e+003;4.362511e-002
3.648813e+003;4.351185e-002
3.650741e+003;4.329109e-002
3.652670e+003;4.271783e-002
3.654598e+003;4.212872e-002
3.656527e+003;4.197753e-002
3.658456e+003;4.197559e-002
3.660384e+003;4.181318e-002
3.662313e+003;4.127222e-002
3.664241e+003;4.052870e-002
3.666170e+003;3.996965e-002
3.668098e+003;3.982102e-002
3.670027e+003;3.922450e-002
3.671955e+003;3.884044e-002
3.673884e+003;3.931921e-002
3.675813e+003;3.876656e-002
3.677741e+003;3.807878e-002
3.679669e+003;3.767108e-002
3.681598e+003;3.732799e-002
3.683527e+003;3.664691e-002
3.685455e+003;3.683583e-002
3.687384e+003;3.752089e-002
3.689312e+003;3.699441e-002
3.691241e+003;3.634783e-002
3.693169e+003;3.632650e-002
3.695098e+003;3.669847e-002
3.697026e+003;3.666995e-002
3.698955e+003;3.640454e-002
3.700884e+003;3.609068e-002
3.702812e+003;3.594099e-002
3.704741e+003;3.593361e-002
3.706669e+003;3.535183e-002
3.708598e+003;3.521914e-002
3.710526e+003;3.581727e-002
3.712455e+003;3.616676e-002
3.714383e+003;3.580356e-002
3.716312e+003;3.502903e-002
3.718240e+003;3.443959e-002
3.720169e+003;3.478640e-002
3.722098e+003;3.546956e-002
3.724026e+003;3.589089e-002
3.725955e+003;3.628277e-002
3.727883e+003;3.598977e-002
3.729812e+003;3.502220e-002
3.731740e+003;3.461058e-002
3.733669e+003;3.428747e-002
3.735597e+003;3.372593e-002
3.737526e+003;3.381278e-002
3.739455e+003;3.402734e-002
3.741383e+003;3.390946e-002
3.743312e+003;3.409185e-002
3.745240e+003;3.397814e-002
3.747169e+003;3.406278e-002
3.749097e+003;3.400111e-002
3.751026e+003;3.350909e-002
3.752954e+003;3.381930e-002
3.754883e+003;3.406568e-002
3.756812e+003;3.370802e-002
3.758740e+003;3.381399e-002
3.760668e+003;3.476784e-002
3.762597e+003;3.467603e-002
3.764526e+003;3.360265e-002
3.766454e+003;3.331088e-002
3.768383e+003;3.336884e-002
3.770311e+003;3.379265e-002
3.772240e+003;3.452651e-002
3.774168e+003;3.438038e-002
3.776097e+003;3.393432e-002
3.778025e+003;3.378821e-002
3.779954e+003;3.386730e-002
3.781883e+003;3.426699e-002
3.783811e+003;3.408073e-002
3.785740e+003;3.344742e-002
3.787668e+003;3.329489e-002
3.789597e+003;3.404622e-002
3.791525e+003;3.426316e-002
3.793454e+003;3.414937e-002
3.795382e+003;3.412313e-002
3.797311e+003;3.425398e-002
3.799240e+003;3.413227e-002
3.801168e+003;3.358640e-002
3.803097e+003;3.346650e-002
3.805025e+003;3.386404e-002
3.806954e+003;3.466871e-002
3.808882e+003;3.488104e-002
3.810811e+003;3.473385e-002
3.812739e+003;3.504419e-002
3.814668e+003;3.525957e-002
3.816596e+003;3.464424e-002
3.818525e+003;3.397793e-002
3.820454e+003;3.391996e-002
3.822382e+003;3.431357e-002
3.824311e+003;3.450502e-002
3.826239e+003;3.442112e-002
3.828168e+003;3.426223e-002
3.830096e+003;3.441079e-002
3.832025e+003;3.468604e-002
3.833953e+003;3.451062e-002
3.835882e+003;3.447679e-002
3.837811e+003;3.471655e-002
3.839739e+003;3.501994e-002
3.841667e+003;3.470536e-002
3.843596e+003;3.418604e-002
3.845525e+003;3.479896e-002
3.847453e+003;3.575538e-002
3.849382e+003;3.574250e-002
3.851310e+003;3.518979e-002
3.853239e+003;3.502598e-002
3.855167e+003;3.527603e-002
3.857096e+003;3.591029e-002
3.859024e+003;3.559840e-002
3.860953e+003;3.508334e-002
3.862882e+003;3.536674e-002
3.864810e+003;3.529522e-002
3.866739e+003;3.524584e-002
3.868667e+003;3.546701e-002
3.870596e+003;3.614260e-002
3.872524e+003;3.703053e-002
3.874453e+003;3.719196e-002
3.876381e+003;3.668322e-002
3.878310e+003;3.640284e-002
3.880239e+003;3.647142e-002
3.882167e+003;3.629123e-002
3.884096e+003;3.630867e-002
3.886024e+003;3.622871e-002
3.887953e+003;3.622096e-002
3.889881e+003;3.652519e-002
3.891810e+003;3.713388e-002
3.893738e+003;3.721249e-002
3.895667e+003;3.660315e-002
3.897595e+003;3.669663e-002
3.899524e+003;3.725495e-002
3.901453e+003;3.799426e-002
3.903381e+003;3.771780e-002
3.905310e+003;3.724383e-002
3.907238e+003;3.780252e-002
3.909167e+003;3.808337e-002
3.911095e+003;3.787013e-002
3.913024e+003;3.789388e-002
3.914952e+003;3.821788e-002
3.916881e+003;3.849088e-002
3.918810e+003;3.818361e-002
3.920738e+003;3.774159e-002
3.922667e+003;3.722795e-002
3.924595e+003;3.719701e-002
3.926524e+003;3.739071e-002
3.928452e+003;3.764763e-002
3.930381e+003;3.795115e-002
3.932309e+003;3.844277e-002
3.934238e+003;3.859520e-002
3.936167e+003;3.820376e-002
3.938095e+003;3.745716e-002
3.940023e+003;3.728636e-002
3.941952e+003;3.752890e-002
3.943881e+003;3.763765e-002
3.945809e+003;3.823912e-002
3.947738e+003;3.854331e-002
3.949666e+003;3.923807e-002
3.951595e+003;3.964470e-002
3.953523e+003;3.882555e-002
3.955452e+003;3.846482e-002
3.957380e+003;3.870856e-002
3.959309e+003;3.904361e-002
3.961238e+003;3.923701e-002
3.963166e+003;3.923818e-002
3.965095e+003;3.897108e-002
3.967023e+003;3.833371e-002
3.968952e+003;3.844957e-002
3.970880e+003;3.928591e-002
3.972809e+003;3.981452e-002
3.974737e+003;3.988018e-002
3.976666e+003;3.962180e-002
3.978594e+003;3.950576e-002
3.980523e+003;4.029112e-002
3.982452e+003;4.056497e-002
3.984380e+003;3.985211e-002
3.986309e+003;3.945874e-002
3.988237e+003;4.031941e-002
3.990166e+003;4.068768e-002
3.992094e+003;3.987778e-002
3.994023e+003;3.899812e-002
3.995951e+003;3.882192e-002
3.997880e+003;3.914589e-002
3.999809e+003;3.991904e-002
4.001737e+003;0.000000e+000
