3.992094e+002;0.000000e+000
4.011380e+002;0.000000e+000
4.030665e+002;0.000000e+000
4.049951e+002;0.000000e+000
4.069236e+002;0.000000e+000
4.088522e+002;0.000000e+000
4.107807e+002;0.000000e+000
4.127093e+002;0.000000e+000
4.146378e+002;0.000000e+000
4.165664e+002;0.000000e+000
4.184949e+002;0.000000e+000
4.204235e+002;0.000000e+000
4.223520e+002;0.000000e+000
4.242806e+002;0.000000e+000
4.262091e+002;0.000000e+000
4.281377e+002;0.000000e+000
4.300662e+002;0.000000e+000
4.319948e+002;0.000000e+000
4.339233e+002;0.000000e+000
4.358519e+002;0.000000e+000
4.377804e+002;0.000000e+000
4.397090e+002;0.000000e+000
4.416375e+002;0.000000e+000
4.435660e+002;0.000000e+000
4.454946e+002;0.000000e+000
4.474232e+002;0.000000e+000
4.493517e+002;0.000000e+000
4.512802e+002;0.000000e+000
4.532088e+002;0.000000e+000
4.551373e+002;0.000000e+000
4.570659e+002;0.000000e+000
4.589944e+002;0.000000e+000
4.609230e+002;0.000000e+000
4.628515e+002;0.000000e+000
4.647801e+002;0.000000e+000
4.667086e+002;0.000000e+000
4.686372e+002;0.000000e+000
4.705657e+002;0.000000e+000
4.724943e+002;0.000000e+000
4.744228e+002;0.000000e+000
4.763513e+002;0.000000e+000
4.782799e+002;0.000000e+000
4.802085e+002;0.000000e+000
4.821370e+002;0.000000e+000
4.840656e+002;0.000000e+000
4.859941e+002;0.000000e+000
4.879226e+002;0.000000e+000
4.898512e+002;0.000000e+000
4.917798e+002;0.000000e+000
4.937083e+002;0.000000e+000
4.956368e+002;0.000000e+000
4.975654e+002;0.000000e+000
4.994939e+002;0.000000e+000
5.014225e+002;0.000000e+000
5.033510e+002;0.000000e+000
5.052796e+002;0.000000e+000
5.072081e+002;0.000000e+000
5.091367e+002;0.000000e+000
5.110652e+002;0.000000e+000
5.129938e+002;0.000000e+000
5.149223e+002;0.000000e+000
5.168509e+002;0.000000e+000
5.187794e+002;0.000000e+000
5.207079e+002;0.000000e+000
5.226365e+002;0.000000e+000
5.245651e+002;0.000000e+000
5.264936e+002;0.000000e+000
5.284222e+002;0.000000e+000
5.303507e+002;0.000000e+000
5.322792e+002;0.000000e+000
5.342078e+002;0.000000e+000
5.361364e+002;0.000000e+000
5.380649e+002;0.000000e+000
5.399935e+002;0.000000e+000
5.419220e+002;0.000000e+000
5.438505e+002;0.000000e+000
5.457791e+002;0.000000e+000
5.477076e+002;0.000000e+000
5.496362e+002;0.000000e+000
5.515648e+002;0.000000e+000
5.534933e+002;0.000000e+000
5.554218e+002;0.000000e+000
5.573504e+002;0.000000e+000
5.592789e+002;0.000000e+000
5.612075e+002;0.000000e+000
5.631360e+002;0.000000e+000
5.650646e+002;0.000000e+000
5.669931e+002;0.000000e+000
5.689217e+002;0.000000e+000
5.708502e+002;0.000000e+000
5.727787e+002;0.000000e+000
5.747073e+002;0.000000e+000
5.766359e+002;0.000000e+000
5.785644e+002;0.000000e+000
5.804930e+002;0.000000e+000
5.824215e+002;0.000000e+000
5.843500e+002;0.000000e+000
5.862786e+002;0.000000e+000
5.882072e+002;0.000000e+000
5.901357e+002;0.000000e+000
5.920643e+002;0.000000e+000
5.939928e+002;0.000000e+000
5.959213e+002;0.000000e+000
5.978499e+002;0.000000e+000
5.997784e+002;2.553449e-001
6.017070e+002;2.540601e-001
6.036355e+002;2.601559e-001
6.055641e+002;2.622077e-001
6.074926e+002;2.623685e-001
6.094211e+002;2.579027e-001
6.113497e+002;2.548744e-001
6.132783e+002;2.549316e-001
6.152068e+002;2.581875e-001
6.171354e+002;2.583126e-001
6.190639e+002;2.483560e-001
6.209924e+002;2.416864e-001
6.229210e+002;2.415981e-001
6.248495e+002;2.405444e-001
6.267781e+002;2.387159e-001
6.287067e+002;2.363384e-001
6.306352e+002;2.344732e-001
6.325637e+002;2.322880e-001
6.344923e+002;2.312307e-001
6.364208e+002;2.296476e-001
6.383494e+002;2.244575e-001
6.402780e+002;2.184405e-001
6.422065e+002;2.157368e-001
6.441350e+002;2.147914e-001
6.460636e+002;2.135345e-001
6.479921e+002;2.134482e-001
6.499207e+002;2.165807e-001
6.518492e+002;2.200374e-001
6.537778e+002;2.220547e-001
6.557063e+002;2.244063e-001
6.576349e+002;2.288952e-001
6.595634e+002;2.341981e-001
6.614919e+002;2.363860e-001
6.634205e+002;2.376617e-001
6.653491e+002;2.376771e-001
6.672776e+002;2.336659e-001
6.692062e+002;2.294714e-001
6.711347e+002;2.250550e-001
6.730632e+002;2.181061e-001
6.749918e+002;2.114642e-001
6.769203e+002;2.059262e-001
6.788489e+002;2.016936e-001
6.807775e+002;1.985679e-001
6.827060e+002;1.959732e-001
6.846345e+002;1.934872e-001
6.865631e+002;1.926106e-001
6.884916e+002;1.919542e-001
6.904202e+002;1.911383e-001
6.923488e+002;1.914177e-001
6.942773e+002;1.914227e-001
6.962058e+002;1.900260e-001
6.981344e+002;1.878705e-001
7.000629e+002;1.867352e-001
7.019915e+002;1.870446e-001
7.039200e+002;1.863377e-001
7.058486e+002;1.844026e-001
7.077771e+002;1.821611e-001
7.097057e+002;1.805405e-001
7.116342e+002;1.790709e-001
7.135627e+002;1.771327e-001
7.154913e+002;1.741685e-001
7.174199e+002;1.700579e-001
7.193484e+002;1.657391e-001
7.212770e+002;1.624474e-001
7.232055e+002;1.601020e-001
7.251340e+002;1.582125e-001
7.270626e+002;1.554041e-001
7.289911e+002;1.519720e-001
7.309197e+002;1.485907e-001
7.328483e+002;1.458156e-001
7.347768e+002;1.438449e-001
7.367053e+002;1.425142e-001
7.386339e+002;1.407249e-001
7.405624e+002;1.387773e-001
7.424910e+002;1.372871e-001
7.444196e+002;1.361840e-001
7.463481e+002;1.354614e-001
7.482766e+002;1.345318e-001
7.502052e+002;1.336015e-001
7.521337e+002;1.334585e-001
7.540623e+002;1.332237e-001
7.559908e+002;1.318295e-001
7.579194e+002;1.301940e-001
7.598479e+002;1.287975e-001
7.617765e+002;1.277446e-001
7.637050e+002;1.269061e-001
7.656335e+002;1.260309e-001
7.675621e+002;1.261109e-001
7.694907e+002;1.256537e-001
7.714192e+002;1.242401e-001
7.733478e+002;1.227937e-001
7.752763e+002;1.219384e-001
7.772048e+002;1.213631e-001
7.791334e+002;1.203349e-001
7.810620e+002;1.200589e-001
7.829905e+002;1.203431e-001
7.849191e+002;1.197949e-001
7.868476e+002;1.190028e-001
7.887761e+002;1.184498e-001
7.907047e+002;1.177815e-001
7.926332e+002;1.171766e-001
7.945618e+002;1.164038e-001
7.964903e+002;1.160469e-001
7.984189e+002;1.165595e-001
8.003474e+002;1.171174e-001
8.022759e+002;1.168398e-001
8.042045e+002;1.156469e-001
8.061331e+002;1.149177e-001
8.080616e+002;1.155669e-001
8.099902e+002;1.158218e-001
8.119187e+002;1.158064e-001
8.138472e+002;1.159385e-001
8.157758e+002;1.158118e-001
8.177043e+002;1.152327e-001
8.196329e+002;1.147830e-001
8.215615e+002;1.150834e-001
8.234900e+002;1.155069e-001
8.254185e+002;1.156349e-001
8.273471e+002;1.158029e-001
8.292756e+002;1.157637e-001
8.312042e+002;1.157086e-001
8.331328e+002;1.160497e-001
8.350613e+002;1.165497e-001
8.369898e+002;1.165481e-001
8.389184e+002;1.164238e-001
8.408469e+002;1.161470e-001
8.427755e+002;1.154631e-001
8.447040e+002;1.159167e-001
8.466326e+002;1.163908e-001
8.485611e+002;1.158688e-001
8.504897e+002;1.157628e-001
8.524182e+002;1.160525e-001
8.543467e+002;1.163716e-001
8.562753e+002;1.170913e-001
8.582039e+002;1.181341e-001
8.601324e+002;1.182665e-001
8.620610e+002;1.187885e-001
8.639895e+002;1.198698e-001
8.659180e+002;1.206269e-001
8.678466e+002;1.215567e-001
8.697751e+002;1.223471e-001
8.717037e+002;1.234886e-001
8.736323e+002;1.253853e-001
8.755608e+002;1.282225e-001
8.774893e+002;1.306556e-001
8.794179e+002;1.324663e-001
8.813464e+002;1.345695e-001
8.832750e+002;1.371066e-001
8.852036e+002;1.395902e-001
8.871321e+002;1.424046e-001
8.890606e+002;1.452790e-001
8.909892e+002;1.479654e-001
8.929177e+002;1.503347e-001
8.948463e+002;1.516903e-001
8.967748e+002;1.521192e-001
8.987034e+002;1.520560e-001
9.006319e+002;1.517552e-001
9.025605e+002;1.509932e-001
9.044890e+002;1.494527e-001
9.064175e+002;1.476517e-001
9.083461e+002;1.457683e-001
9.102747e+002;1.441826e-001
9.122032e+002;1.429733e-001
9.141318e+002;1.414666e-001
9.160603e+002;1.400405e-001
9.179888e+002;1.397464e-001
9.199174e+002;1.400029e-001
9.218459e+002;1.403425e-001
9.237745e+002;1.411735e-001
9.257031e+002;1.422705e-001
9.276316e+002;1.430582e-001
9.295601e+002;1.436604e-001
9.314887e+002;1.447783e-001
9.334172e+002;1.460532e-001
9.353458e+002;1.474084e-001
9.372744e+002;1.483196e-001
9.392029e+002;1.495119e-001
9.411314e+002;1.515642e-001
9.430600e+002;1.534995e-001
9.449885e+002;1.552318e-001
9.469171e+002;1.575301e-001
9.488456e+002;1.603525e-001
9.507742e+002;1.635528e-001
9.527027e+002;1.669314e-001
9.546313e+002;1.701094e-001
9.565598e+002;1.736408e-001
9.584883e+002;1.777836e-001
9.604169e+002;1.822146e-001
9.623455e+002;1.869130e-001
9.642740e+002;1.919642e-001
9.662026e+002;1.969275e-001
9.681311e+002;2.026282e-001
9.700596e+002;2.095055e-001
9.719882e+002;2.171846e-001
9.739167e+002;2.262152e-001
9.758453e+002;2.373759e-001
9.777739e+002;2.505564e-001
9.797024e+002;2.644044e-001
9.816309e+002;2.767103e-001
9.835595e+002;2.855596e-001
9.854880e+002;2.896715e-001
9.874166e+002;2.912878e-001
9.893452e+002;2.933796e-001
9.912737e+002;2.972362e-001
9.932022e+002;3.029626e-001
9.951307e+002;3.099486e-001
9.970593e+002;3.175291e-001
9.989879e+002;3.241931e-001
1.000916e+003;3.276462e-001
1.002845e+003;3.285622e-001
1.004773e+003;3.286201e-001
1.006702e+003;3.288357e-001
1.008631e+003;3.310366e-001
1.010559e+003;3.350114e-001
1.012488e+003;3.409489e-001
1.014416e+003;3.482507e-001
1.016345e+003;3.548353e-001
1.018273e+003;3.597704e-001
1.020202e+003;3.641632e-001
1.022130e+003;3.685387e-001
1.024059e+003;3.727903e-001
1.025988e+003;3.769025e-001
1.027916e+003;3.802809e-001
1.029845e+003;3.823863e-001
1.031773e+003;3.827025e-001
1.033702e+003;3.803627e-001
1.035630e+003;3.753041e-001
1.037559e+003;3.680352e-001
1.039487e+003;3.606003e-001
1.041416e+003;3.544132e-001
1.043344e+003;3.513789e-001
1.045273e+003;3.516330e-001
1.047202e+003;3.535182e-001
1.049130e+003;3.568236e-001
1.051059e+003;3.610703e-001
1.052987e+003;3.647045e-001
1.054916e+003;3.660912e-001
1.056844e+003;3.641366e-001
1.058773e+003;3.593481e-001
1.060701e+003;3.501285e-001
1.062630e+003;3.367036e-001
1.064558e+003;3.219857e-001
1.066487e+003;3.079899e-001
1.068416e+003;2.967687e-001
1.070344e+003;2.880308e-001
1.072273e+003;2.811210e-001
1.074201e+003;2.745217e-001
1.076130e+003;2.678595e-001
1.078058e+003;2.616085e-001
1.079987e+003;2.561831e-001
1.081915e+003;2.513495e-001
1.083844e+003;2.476934e-001
1.085773e+003;2.457397e-001
1.087701e+003;2.450165e-001
1.089630e+003;2.448038e-001
1.091558e+003;2.445818e-001
1.093487e+003;2.448958e-001
1.095415e+003;2.466573e-001
1.097344e+003;2.486529e-001
1.099272e+003;2.497506e-001
1.101201e+003;2.503282e-001
1.103129e+003;2.495315e-001
1.105058e+003;2.474055e-001
1.106987e+003;2.449169e-001
1.108915e+003;2.425468e-001
1.110844e+003;2.384995e-001
1.112772e+003;2.313142e-001
1.114701e+003;2.211475e-001
1.116629e+003;2.107157e-001
1.118558e+003;2.021054e-001
1.120486e+003;1.944851e-001
1.122415e+003;1.881528e-001
1.124344e+003;1.823937e-001
1.126272e+003;1.757305e-001
1.128201e+003;1.692683e-001
1.130129e+003;1.638225e-001
1.132058e+003;1.590093e-001
1.133986e+003;1.545221e-001
1.135915e+003;1.510632e-001
1.137843e+003;1.489721e-001
1.139772e+003;1.486091e-001
1.141700e+003;1.497206e-001
1.143629e+003;1.513245e-001
1.145557e+003;1.531071e-001
1.147486e+003;1.549414e-001
1.149415e+003;1.566943e-001
1.151343e+003;1.590429e-001
1.153272e+003;1.612680e-001
1.155200e+003;1.634186e-001
1.157129e+003;1.662896e-001
1.159057e+003;1.689977e-001
1.160986e+003;1.704239e-001
1.162914e+003;1.701342e-001
1.164843e+003;1.664225e-001
1.166771e+003;1.594416e-001
1.168700e+003;1.508868e-001
1.170629e+003;1.418238e-001
1.172557e+003;1.334085e-001
1.174486e+003;1.259072e-001
1.176414e+003;1.202421e-001
1.178343e+003;1.164325e-001
1.180271e+003;1.134638e-001
1.182200e+003;1.109515e-001
1.184128e+003;1.093817e-001
1.186057e+003;1.087035e-001
1.187986e+003;1.089290e-001
1.189914e+003;1.099709e-001
1.191843e+003;1.120192e-001
1.193771e+003;1.144808e-001
1.195700e+003;1.167041e-001
1.197628e+003;1.185811e-001
1.199557e+003;1.196436e-001
1.201485e+003;1.200075e-001
1.203414e+003;1.201218e-001
1.205343e+003;1.195466e-001
1.207271e+003;1.171931e-001
1.209200e+003;1.138260e-001
1.211128e+003;1.107041e-001
1.213057e+003;1.085369e-001
1.214985e+003;1.077106e-001
1.216914e+003;1.080477e-001
1.218842e+003;1.091020e-001
1.220771e+003;1.106514e-001
1.222699e+003;1.126010e-001
1.224628e+003;1.143425e-001
1.226557e+003;1.159613e-001
1.228485e+003;1.176032e-001
1.230414e+003;1.191456e-001
1.232342e+003;1.201016e-001
1.234271e+003;1.207165e-001
1.236199e+003;1.213870e-001
1.238128e+003;1.219645e-001
1.240056e+003;1.223456e-001
1.241985e+003;1.226467e-001
1.243913e+003;1.233646e-001
1.245842e+003;1.243331e-001
1.247771e+003;1.244503e-001
1.249699e+003;1.242503e-001
1.251628e+003;1.242884e-001
1.253556e+003;1.243889e-001
1.255485e+003;1.244667e-001
1.257413e+003;1.244098e-001
1.259342e+003;1.246047e-001
1.261270e+003;1.250515e-001
1.263199e+003;1.248965e-001
1.265127e+003;1.241113e-001
1.267056e+003;1.236962e-001
1.268985e+003;1.238040e-001
1.270913e+003;1.242538e-001
1.272842e+003;1.252088e-001
1.274770e+003;1.260534e-001
1.276699e+003;1.260400e-001
1.278627e+003;1.256582e-001
1.280556e+003;1.251415e-001
1.282484e+003;1.243448e-001
1.284413e+003;1.236848e-001
1.286342e+003;1.234346e-001
1.288270e+003;1.234907e-001
1.290199e+003;1.240157e-001
1.292127e+003;1.247874e-001
1.294056e+003;1.256605e-001
1.295984e+003;1.269037e-001
1.297913e+003;1.284592e-001
1.299841e+003;1.302180e-001
1.301770e+003;1.328005e-001
1.303698e+003;1.361630e-001
1.305627e+003;1.398864e-001
1.307556e+003;1.436292e-001
1.309484e+003;1.473875e-001
1.311413e+003;1.505120e-001
1.313341e+003;1.522349e-001
1.315270e+003;1.519345e-001
1.317198e+003;1.500149e-001
1.319127e+003;1.471809e-001
1.321055e+003;1.440243e-001
1.322984e+003;1.411140e-001
1.324912e+003;1.391168e-001
1.326841e+003;1.383320e-001
1.328770e+003;1.387341e-001
1.330698e+003;1.397044e-001
1.332627e+003;1.404034e-001
1.334555e+003;1.406663e-001
1.336484e+003;1.401895e-001
1.338412e+003;1.386644e-001
1.340341e+003;1.365958e-001
1.342269e+003;1.340891e-001
1.344198e+003;1.312266e-001
1.346126e+003;1.287726e-001
1.348055e+003;1.272857e-001
1.349984e+003;1.265513e-001
1.351912e+003;1.267345e-001
1.353841e+003;1.278336e-001
1.355769e+003;1.290538e-001
1.357698e+003;1.301337e-001
1.359626e+003;1.306523e-001
1.361555e+003;1.305029e-001
1.363483e+003;1.297679e-001
1.365412e+003;1.290027e-001
1.367341e+003;1.287130e-001
1.369269e+003;1.286190e-001
1.371198e+003;1.275292e-001
1.373126e+003;1.250641e-001
1.375055e+003;1.223290e-001
1.376983e+003;1.196621e-001
1.378912e+003;1.171492e-001
1.380840e+003;1.150210e-001
1.382769e+003;1.131790e-001
1.384698e+003;1.113063e-001
1.386626e+003;1.091633e-001
1.388555e+003;1.077710e-001
1.390483e+003;1.073938e-001
1.392412e+003;1.073351e-001
1.394340e+003;1.071824e-001
1.396269e+003;1.074225e-001
1.398197e+003;1.076456e-001
1.400126e+003;1.077319e-001
1.402054e+003;1.081999e-001
1.403983e+003;1.086285e-001
1.405911e+003;1.088718e-001
1.407840e+003;1.092677e-001
1.409769e+003;1.097602e-001
1.411697e+003;1.102356e-001
1.413626e+003;1.108867e-001
1.415554e+003;1.115847e-001
1.417483e+003;1.126955e-001
1.419411e+003;1.143825e-001
1.421340e+003;1.160491e-001
1.423268e+003;1.171805e-001
1.425197e+003;1.180375e-001
1.427125e+003;1.189049e-001
1.429054e+003;1.189361e-001
1.430983e+003;1.180796e-001
1.432911e+003;1.166517e-001
1.434840e+003;1.151371e-001
1.436768e+003;1.138392e-001
1.438697e+003;1.124710e-001
1.440625e+003;1.111797e-001
1.442554e+003;1.103460e-001
1.444482e+003;1.095222e-001
1.446411e+003;1.089700e-001
1.448340e+003;1.086445e-001
1.450268e+003;1.081686e-001
1.452197e+003;1.074317e-001
1.454125e+003;1.065613e-001
1.456054e+003;1.054695e-001
1.457982e+003;1.040364e-001
1.459911e+003;1.024275e-001
1.461839e+003;1.010088e-001
1.463768e+003;9.935043e-002
1.465697e+003;9.752832e-002
1.467625e+003;9.594420e-002
1.469554e+003;9.436657e-002
1.471482e+003;9.288012e-002
1.473411e+003;9.115017e-002
1.475339e+003;8.937233e-002
1.477268e+003;8.806113e-002
1.479196e+003;8.718548e-002
1.481125e+003;8.612461e-002
1.483053e+003;8.463231e-002
1.484982e+003;8.283335e-002
1.486911e+003;8.118962e-002
1.488839e+003;7.968171e-002
1.490768e+003;7.846061e-002
1.492696e+003;7.783899e-002
1.494625e+003;7.733149e-002
1.496553e+003;7.683224e-002
1.498482e+003;7.636893e-002
1.500410e+003;7.626639e-002
1.502339e+003;7.654492e-002
1.504267e+003;7.637785e-002
1.506196e+003;7.595777e-002
1.508125e+003;7.601424e-002
1.510053e+003;7.605739e-002
1.511982e+003;7.599510e-002
1.513910e+003;7.602956e-002
1.515839e+003;7.578328e-002
1.517767e+003;7.527844e-002
1.519696e+003;7.507638e-002
1.521624e+003;7.519172e-002
1.523553e+003;7.535320e-002
1.525481e+003;7.519668e-002
1.527410e+003;7.497414e-002
1.529339e+003;7.477179e-002
1.531267e+003;7.485446e-002
1.533196e+003;7.506260e-002
1.535124e+003;7.504306e-002
1.537053e+003;7.497686e-002
1.538981e+003;7.484591e-002
1.540910e+003;7.473196e-002
1.542838e+003;7.509639e-002
1.544767e+003;7.529629e-002
1.546695e+003;7.533377e-002
1.548624e+003;7.543097e-002
1.550553e+003;7.541193e-002
1.552481e+003;7.547326e-002
1.554410e+003;7.527265e-002
1.556338e+003;7.531285e-002
1.558267e+003;7.553536e-002
1.560195e+003;7.560859e-002
1.562124e+003;7.559849e-002
1.564052e+003;7.567437e-002
1.565981e+003;7.593168e-002
1.567910e+003;7.622058e-002
1.569838e+003;7.661602e-002
1.571767e+003;7.723644e-002
1.573695e+003;7.750121e-002
1.575624e+003;7.751384e-002
1.577552e+003;7.772803e-002
1.579481e+003;7.822183e-002
1.581409e+003;7.863311e-002
1.583338e+003;7.903410e-002
1.585266e+003;7.965739e-002
1.587195e+003;8.046047e-002
1.589124e+003;8.104524e-002
1.591052e+003;8.145114e-002
1.592981e+003;8.205634e-002
1.594909e+003;8.246890e-002
1.596838e+003;8.276711e-002
1.598766e+003;8.318666e-002
1.600695e+003;8.354195e-002
1.602623e+003;8.445922e-002
1.604552e+003;8.524588e-002
1.606480e+003;8.539145e-002
1.608409e+003;8.535520e-002
1.610338e+003;8.563421e-002
1.612266e+003;8.616647e-002
1.614195e+003;8.663434e-002
1.616123e+003;8.672620e-002
1.618052e+003;8.699772e-002
1.619980e+003;8.725223e-002
1.621909e+003;8.725511e-002
1.623837e+003;8.760206e-002
1.625766e+003;8.793461e-002
1.627694e+003;8.807395e-002
1.629623e+003;8.830993e-002
1.631552e+003;8.839972e-002
1.633480e+003;8.821955e-002
1.635409e+003;8.789007e-002
1.637337e+003;8.763584e-002
1.639266e+003;8.751345e-002
1.641194e+003;8.728901e-002
1.643123e+003;8.720306e-002
1.645051e+003;8.690879e-002
1.646980e+003;8.643913e-002
1.648909e+003;8.614328e-002
1.650837e+003;8.563950e-002
1.652766e+003;8.474277e-002
1.654694e+003;8.429678e-002
1.656623e+003;8.405851e-002
1.658551e+003;8.360718e-002
1.660480e+003;8.296184e-002
1.662408e+003;8.246983e-002
1.664337e+003;8.219432e-002
1.666266e+003;8.166558e-002
1.668194e+003;8.090346e-002
1.670123e+003;8.022752e-002
1.672051e+003;7.969899e-002
1.673980e+003;7.910164e-002
1.675908e+003;7.856791e-002
1.677837e+003;7.820576e-002
1.679765e+003;7.760876e-002
1.681694e+003;7.691462e-002
1.683622e+003;7.625553e-002
1.685551e+003;7.546440e-002
1.687479e+003;7.508370e-002
1.689408e+003;7.470626e-002
1.691337e+003;7.438341e-002
1.693265e+003;7.411236e-002
1.695194e+003;7.349321e-002
1.697122e+003;7.308836e-002
1.699051e+003;7.284860e-002
1.700979e+003;7.250430e-002
1.702908e+003;7.228575e-002
1.704836e+003;7.184117e-002
1.706765e+003;7.146810e-002
1.708693e+003;7.125113e-002
1.710622e+003;7.113078e-002
1.712551e+003;7.120097e-002
1.714479e+003;7.122810e-002
1.716408e+003;7.114183e-002
1.718336e+003;7.110182e-002
1.720265e+003;7.131165e-002
1.722193e+003;7.135488e-002
1.724122e+003;7.126132e-002
1.726050e+003;7.126261e-002
1.727979e+003;7.125781e-002
1.729908e+003;7.136855e-002
1.731836e+003;7.147665e-002
1.733765e+003;7.141299e-002
1.735693e+003;7.129475e-002
1.737622e+003;7.106280e-002
1.739550e+003;7.073282e-002
1.741479e+003;7.050277e-002
1.743407e+003;7.010070e-002
1.745336e+003;6.948902e-002
1.747265e+003;6.864041e-002
1.749193e+003;6.807028e-002
1.751122e+003;6.787561e-002
1.753050e+003;6.761822e-002
1.754979e+003;6.718246e-002
1.756907e+003;6.687025e-002
1.758836e+003;6.678078e-002
1.760764e+003;6.683752e-002
1.762693e+003;6.664201e-002
1.764621e+003;6.624813e-002
1.766550e+003;6.620039e-002
1.768479e+003;6.622794e-002
1.770407e+003;6.608471e-002
1.772336e+003;6.592506e-002
1.774264e+003;6.598341e-002
1.776193e+003;6.593304e-002
1.778121e+003;6.560000e-002
1.780050e+003;6.548984e-002
1.781978e+003;6.552236e-002
1.783907e+003;6.541325e-002
1.785835e+003;6.526779e-002
1.787764e+003;6.521153e-002
1.789693e+003;6.501225e-002
1.791621e+003;6.488708e-002
1.793550e+003;6.504089e-002
1.795478e+003;6.538355e-002
1.797407e+003;6.539179e-002
1.799335e+003;6.510809e-002
1.801264e+003;6.505813e-002
1.803192e+003;6.502268e-002
1.805121e+003;6.474683e-002
1.807049e+003;6.443717e-002
1.808978e+003;6.445281e-002
1.810907e+003;6.481175e-002
1.812835e+003;6.494591e-002
1.814764e+003;6.481606e-002
1.816692e+003;6.454149e-002
1.818621e+003;6.456229e-002
1.820549e+003;6.471210e-002
1.822478e+003;6.465007e-002
1.824406e+003;6.465684e-002
1.826335e+003;6.455022e-002
1.828264e+003;6.446446e-002
1.830192e+003;6.454311e-002
1.832121e+003;6.450067e-002
1.834049e+003;6.449260e-002
1.835978e+003;6.442726e-002
1.837906e+003;6.434041e-002
1.839835e+003;6.442330e-002
1.841763e+003;6.436538e-002
1.843692e+003;6.421996e-002
1.845620e+003;6.418128e-002
1.847549e+003;6.400708e-002
1.849478e+003;6.376944e-002
1.851406e+003;6.374384e-002
1.853335e+003;6.369289e-002
1.855263e+003;6.356066e-002
1.857192e+003;6.344372e-002
1.859120e+003;6.354220e-002
1.861049e+003;6.349058e-002
1.862977e+003;6.346385e-002
1.864906e+003;6.364781e-002
1.866834e+003;6.371786e-002
1.868763e+003;6.368111e-002
1.870692e+003;6.354412e-002
1.872620e+003;6.346650e-002
1.874549e+003;6.349365e-002
1.876477e+003;6.335071e-002
1.878406e+003;6.331816e-002
1.880334e+003;6.339951e-002
1.882263e+003;6.339820e-002
1.884191e+003;6.342194e-002
1.886120e+003;6.336213e-002
1.888048e+003;6.331459e-002
1.889977e+003;6.309311e-002
1.891906e+003;6.292797e-002
1.893834e+003;6.305020e-002
1.895763e+003;6.310890e-002
1.897691e+003;6.311449e-002
1.899620e+003;6.319470e-002
1.901548e+003;6.299887e-002
1.903477e+003;6.289767e-002
1.905405e+003;6.304580e-002
1.907334e+003;6.303561e-002
1.909262e+003;6.279130e-002
1.911191e+003;6.265873e-002
1.913120e+003;6.269811e-002
1.915048e+003;6.285276e-002
1.916977e+003;6.299078e-002
1.918905e+003;6.296144e-002
1.920834e+003;6.304668e-002
1.922762e+003;6.302883e-002
1.924691e+003;6.296972e-002
1.926619e+003;6.299516e-002
1.928548e+003;6.297325e-002
1.930477e+003;6.305909e-002
1.932405e+003;6.319351e-002
1.934334e+003;6.318466e-002
1.936262e+003;6.298899e-002
1.938191e+003;6.287110e-002
1.940119e+003;6.295241e-002
1.942048e+003;6.320666e-002
1.943976e+003;6.331011e-002
1.945905e+003;6.339974e-002
1.947833e+003;6.341910e-002
1.949762e+003;6.329106e-002
1.951691e+003;6.333322e-002
1.953619e+003;6.340151e-002
1.955548e+003;6.348453e-002
1.957476e+003;6.347137e-002
1.959405e+003;6.330348e-002
1.961333e+003;6.315006e-002
1.963262e+003;6.325932e-002
1.965190e+003;6.336849e-002
1.967119e+003;6.345937e-002
1.969047e+003;6.360262e-002
1.970976e+003;6.321754e-002
1.972905e+003;6.325399e-002
1.974833e+003;6.381936e-002
1.976762e+003;6.399480e-002
1.978690e+003;6.368165e-002
1.980619e+003;6.366879e-002
1.982547e+003;6.382778e-002
1.984476e+003;6.380928e-002
1.986404e+003;6.370547e-002
1.988333e+003;6.363220e-002
1.990261e+003;6.368648e-002
1.992190e+003;6.380874e-002
1.994119e+003;6.379139e-002
1.996047e+003;6.373275e-002
1.997976e+003;6.382059e-002
1.999904e+003;6.379634e-002
2.001833e+003;6.382036e-002
2.003761e+003;6.415001e-002
2.005690e+003;6.419703e-002
2.007618e+003;6.399403e-002
2.009547e+003;6.383257e-002
2.011476e+003;6.376956e-002
2.013404e+003;6.401311e-002
2.015333e+003;6.421654e-002
2.017261e+003;6.417774e-002
2.019190e+003;6.407071e-002
2.021118e+003;6.395867e-002
2.023047e+003;6.397241e-002
2.024975e+003;6.411249e-002
2.026904e+003;6.445650e-002
2.028833e+003;6.474879e-002
2.030761e+003;6.475948e-002
2.032690e+003;6.456656e-002
2.034618e+003;6.439905e-002
2.036547e+003;6.433837e-002
2.038475e+003;6.448064e-002
2.040404e+003;6.456986e-002
2.042332e+003;6.443648e-002
2.044261e+003;6.439494e-002
2.046189e+003;6.452288e-002
2.048118e+003;6.461208e-002
2.050047e+003;6.445643e-002
2.051975e+003;6.417521e-002
2.053904e+003;6.435481e-002
2.055832e+003;6.468426e-002
2.057761e+003;6.472752e-002
2.059689e+003;6.469245e-002
2.061618e+003;6.482299e-002
2.063546e+003;6.490277e-002
2.065475e+003;6.481206e-002
2.067404e+003;6.462423e-002
2.069332e+003;6.418689e-002
2.071260e+003;6.404275e-002
2.073189e+003;6.429407e-002
2.075118e+003;6.454088e-002
2.077046e+003;6.457829e-002
2.078975e+003;6.441288e-002
2.080903e+003;6.415877e-002
2.082832e+003;6.406798e-002
2.084760e+003;6.409160e-002
2.086689e+003;6.409966e-002
2.088617e+003;6.407720e-002
2.090546e+003;6.404985e-002
2.092475e+003;6.422511e-002
2.094403e+003;6.432965e-002
2.096332e+003;6.423210e-002
2.098260e+003;6.414018e-002
2.100189e+003;6.419057e-002
2.102117e+003;6.447307e-002
2.104046e+003;6.443041e-002
2.105974e+003;6.403641e-002
2.107903e+003;6.402981e-002
2.109832e+003;6.455110e-002
2.111760e+003;6.471940e-002
2.113688e+003;6.440696e-002
2.115617e+003;6.423560e-002
2.117546e+003;6.433303e-002
2.119474e+003;6.423517e-002
2.121403e+003;6.427701e-002
2.123331e+003;6.434175e-002
2.125260e+003;6.418773e-002
2.127188e+003;6.421481e-002
2.129117e+003;6.427851e-002
2.131045e+003;6.413976e-002
2.132974e+003;6.393825e-002
2.134903e+003;6.423049e-002
2.136831e+003;6.448226e-002
2.138760e+003;6.446903e-002
2.140688e+003;6.462692e-002
2.142617e+003;6.469887e-002
2.144545e+003;6.450966e-002
2.146474e+003;6.416046e-002
2.148402e+003;6.397322e-002
2.150331e+003;6.413077e-002
2.152260e+003;6.426625e-002
2.154188e+003;6.433560e-002
2.156117e+003;6.418804e-002
2.158045e+003;6.395525e-002
2.159974e+003;6.377408e-002
2.161902e+003;6.361044e-002
2.163831e+003;6.365552e-002
2.165759e+003;6.364643e-002
2.167688e+003;6.350520e-002
2.169616e+003;6.338096e-002
2.171545e+003;6.344890e-002
2.173474e+003;6.325526e-002
2.175402e+003;6.332874e-002
2.177331e+003;6.330823e-002
2.179259e+003;6.289392e-002
2.181188e+003;6.265035e-002
2.183116e+003;6.274727e-002
2.185045e+003;6.295987e-002
2.186973e+003;6.294126e-002
2.188902e+003;6.289297e-002
2.190831e+003;6.283089e-002
2.192759e+003;6.280114e-002
2.194688e+003;6.277361e-002
2.196616e+003;6.263576e-002
2.198545e+003;6.260751e-002
2.200473e+003;6.250481e-002
2.202402e+003;6.253121e-002
2.204330e+003;6.249800e-002
2.206259e+003;6.233285e-002
2.208188e+003;6.233212e-002
2.210116e+003;6.218110e-002
2.212044e+003;6.212200e-002
2.213973e+003;6.219663e-002
2.215902e+003;6.230232e-002
2.217830e+003;6.246792e-002
2.219759e+003;6.237630e-002
2.221687e+003;6.234826e-002
2.223616e+003;6.236938e-002
2.225544e+003;6.241887e-002
2.227473e+003;6.231055e-002
2.229401e+003;6.219995e-002
2.231330e+003;6.207131e-002
2.233259e+003;6.190881e-002
2.235187e+003;6.203301e-002
2.237116e+003;6.249065e-002
2.239044e+003;6.266734e-002
2.240973e+003;6.212265e-002
2.242901e+003;6.163932e-002
2.244830e+003;6.194312e-002
2.246758e+003;6.228328e-002
2.248687e+003;6.218336e-002
2.250615e+003;6.188252e-002
2.252544e+003;6.187736e-002
2.254473e+003;6.190808e-002
2.256401e+003;6.178808e-002
2.258330e+003;6.163252e-002
2.260258e+003;6.143564e-002
2.262187e+003;6.139377e-002
2.264115e+003;6.163535e-002
2.266044e+003;6.173976e-002
2.267972e+003;6.153474e-002
2.269901e+003;6.113032e-002
2.271830e+003;6.091838e-002
2.273758e+003;6.133576e-002
2.275687e+003;6.162156e-002
2.277615e+003;6.136530e-002
2.279544e+003;6.118681e-002
2.281472e+003;6.116823e-002
2.283401e+003;6.103463e-002
2.285329e+003;6.102685e-002
2.287258e+003;6.096477e-002
2.289187e+003;6.086142e-002
2.291115e+003;6.107204e-002
2.293043e+003;6.112235e-002
2.294972e+003;6.096119e-002
2.296901e+003;6.086447e-002
2.298829e+003;6.086337e-002
2.300758e+003;6.092863e-002
2.302686e+003;6.106590e-002
2.304615e+003;6.120066e-002
2.306543e+003;6.102426e-002
2.308472e+003;6.081690e-002
2.310400e+003;6.088731e-002
2.312329e+003;6.110175e-002
2.314258e+003;6.112581e-002
2.316186e+003;6.080684e-002
2.318115e+003;6.057734e-002
2.320043e+003;6.065704e-002
2.321972e+003;6.051030e-002
2.323900e+003;6.032371e-002
2.325829e+003;6.025271e-002
2.327757e+003;6.043143e-002
2.329686e+003;6.063494e-002
2.331615e+003;6.080394e-002
2.333543e+003;6.093473e-002
2.335472e+003;6.098109e-002
2.337400e+003;6.119276e-002
2.339329e+003;6.135435e-002
2.341257e+003;6.136377e-002
2.343186e+003;6.125369e-002
2.345114e+003;6.107635e-002
2.347043e+003;6.104615e-002
2.348971e+003;6.119242e-002
2.350900e+003;6.148591e-002
2.352829e+003;6.155841e-002
2.354757e+003;6.140743e-002
2.356686e+003;6.151488e-002
2.358614e+003;6.157165e-002
2.360543e+003;6.154004e-002
2.362471e+003;6.179614e-002
2.364400e+003;6.182143e-002
2.366328e+003;6.162175e-002
2.368257e+003;6.148827e-002
2.370186e+003;6.150553e-002
2.372114e+003;6.157803e-002
2.374042e+003;6.156948e-002
2.375971e+003;6.167044e-002
2.377900e+003;6.192092e-002
2.379828e+003;6.227062e-002
2.381757e+003;6.237014e-002
2.383685e+003;6.227269e-002
2.385614e+003;6.229028e-002
2.387542e+003;6.229648e-002
2.389471e+003;6.216283e-002
2.391399e+003;6.215331e-002
2.393328e+003;6.205384e-002
2.395257e+003;6.186999e-002
2.397185e+003;6.182747e-002
2.399114e+003;6.201986e-002
2.401042e+003;6.227574e-002
2.402971e+003;6.233415e-002
2.404899e+003;6.225246e-002
2.406828e+003;6.245660e-002
2.408756e+003;6.270152e-002
2.410685e+003;6.274933e-002
2.412614e+003;6.277196e-002
2.414542e+003;6.268858e-002
2.416471e+003;6.268965e-002
2.418399e+003;6.248958e-002
2.420328e+003;6.245338e-002
2.422256e+003;6.262811e-002
2.424185e+003;6.277549e-002
2.426113e+003;6.293862e-002
2.428042e+003;6.310304e-002
2.429970e+003;6.307396e-002
2.431899e+003;6.301607e-002
2.433828e+003;6.312672e-002
2.435756e+003;6.330271e-002
2.437685e+003;6.324594e-002
2.439613e+003;6.329174e-002
2.441542e+003;6.338360e-002
2.443470e+003;6.346554e-002
2.445399e+003;6.357627e-002
2.447327e+003;6.372435e-002
2.449256e+003;6.387594e-002
2.451185e+003;6.403354e-002
2.453113e+003;6.397855e-002
2.455042e+003;6.393552e-002
2.456970e+003;6.390170e-002
2.458899e+003;6.378912e-002
2.460827e+003;6.384519e-002
2.462756e+003;6.403046e-002
2.464684e+003;6.409824e-002
2.466613e+003;6.398151e-002
2.468542e+003;6.389659e-002
2.470470e+003;6.408895e-002
2.472398e+003;6.415228e-002
2.474327e+003;6.412009e-002
2.476256e+003;6.417083e-002
2.478184e+003;6.416438e-002
2.480113e+003;6.433122e-002
2.482041e+003;6.455206e-002
2.483970e+003;6.475971e-002
2.485898e+003;6.501964e-002
2.487827e+003;6.490397e-002
2.489755e+003;6.490335e-002
2.491684e+003;6.504427e-002
2.493613e+003;6.517503e-002
2.495541e+003;6.496953e-002
2.497470e+003;6.469321e-002
2.499398e+003;6.494718e-002
2.501327e+003;6.501949e-002
2.503255e+003;6.476378e-002
2.505184e+003;6.480360e-002
2.507112e+003;6.518882e-002
2.509041e+003;6.544272e-002
2.510969e+003;6.534684e-002
2.512898e+003;6.529536e-002
2.514827e+003;6.542500e-002
2.516755e+003;6.546830e-002
2.518684e+003;6.560644e-002
2.520612e+003;6.575698e-002
2.522541e+003;6.570896e-002
2.524469e+003;6.548657e-002
2.526398e+003;6.547157e-002
2.528326e+003;6.556901e-002
2.530255e+003;6.561221e-002
2.532184e+003;6.584693e-002
2.534112e+003;6.561927e-002
2.536041e+003;6.515235e-002
2.537969e+003;6.538606e-002
2.539898e+003;6.569593e-002
2.541826e+003;6.575035e-002
2.543755e+003;6.590065e-002
2.545683e+003;6.608236e-002
2.547612e+003;6.607831e-002
2.549541e+003;6.601674e-002
2.551469e+003;6.600744e-002
2.553397e+003;6.587216e-002
2.555326e+003;6.574272e-002
2.557255e+003;6.575841e-002
2.559183e+003;6.573054e-002
2.561112e+003;6.587381e-002
2.563040e+003;6.589155e-002
2.564969e+003;6.563392e-002
2.566897e+003;6.543525e-002
2.568826e+003;6.561580e-002
2.570754e+003;6.572480e-002
2.572683e+003;6.589749e-002
2.574612e+003;6.585079e-002
2.576540e+003;6.573389e-002
2.578469e+003;6.572966e-002
2.580397e+003;6.580186e-002
2.582326e+003;6.591789e-002
2.584254e+003;6.605081e-002
2.586183e+003;6.615586e-002
2.588111e+003;6.606766e-002
2.590040e+003;6.612916e-002
2.591969e+003;6.645107e-002
2.593897e+003;6.647632e-002
2.595826e+003;6.657650e-002
2.597754e+003;6.663810e-002
2.599683e+003;6.620082e-002
2.601611e+003;6.625156e-002
2.603540e+003;6.670749e-002
2.605468e+003;6.675927e-002
2.607397e+003;6.652185e-002
2.609325e+003;6.661025e-002
2.611254e+003;6.674992e-002
2.613183e+003;6.672151e-002
2.615111e+003;6.686267e-002
2.617040e+003;6.671912e-002
2.618968e+003;6.665410e-002
2.620897e+003;6.697829e-002
2.622825e+003;6.718880e-002
2.624754e+003;6.743633e-002
2.626682e+003;6.751660e-002
2.628611e+003;6.730744e-002
2.630540e+003;6.717801e-002
2.632468e+003;6.734389e-002
2.634396e+003;6.745162e-002
2.636325e+003;6.751274e-002
2.638254e+003;6.767173e-002
2.640182e+003;6.766720e-002
2.642111e+003;6.776324e-002
2.644039e+003;6.791323e-002
2.645968e+003;6.798428e-002
2.647896e+003;6.784768e-002
2.649825e+003;6.792899e-002
2.651753e+003;6.826817e-002
2.653682e+003;6.867790e-002
2.655611e+003;6.862116e-002
2.657539e+003;6.817702e-002
2.659468e+003;6.805028e-002
2.661396e+003;6.825945e-002
2.663325e+003;6.849890e-002
2.665253e+003;6.865795e-002
2.667182e+003;6.865865e-002
2.669110e+003;6.871799e-002
2.671039e+003;6.872102e-002
2.672968e+003;6.874163e-002
2.674896e+003;6.892876e-002
2.676825e+003;6.900955e-002
2.678753e+003;6.904501e-002
2.680682e+003;6.918747e-002
2.682610e+003;6.924623e-002
2.684539e+003;6.940524e-002
2.686467e+003;6.938786e-002
2.688396e+003;6.918433e-002
2.690324e+003;6.951640e-002
2.692253e+003;6.962141e-002
2.694182e+003;6.949517e-002
2.696110e+003;6.961036e-002
2.698039e+003;6.957905e-002
2.699967e+003;6.993361e-002
2.701896e+003;7.032668e-002
2.703824e+003;7.028967e-002
2.705753e+003;7.037725e-002
2.707681e+003;7.029836e-002
2.709610e+003;7.014556e-002
2.711539e+003;7.035080e-002
2.713467e+003;7.071211e-002
2.715396e+003;7.082528e-002
2.717324e+003;7.059113e-002
2.719253e+003;7.069749e-002
2.721181e+003;7.104368e-002
2.723110e+003;7.127842e-002
2.725038e+003;7.114375e-002
2.726967e+003;7.135323e-002
2.728896e+003;7.165915e-002
2.730824e+003;7.151314e-002
2.732752e+003;7.133293e-002
2.734681e+003;7.121900e-002
2.736610e+003;7.141104e-002
2.738538e+003;7.168498e-002
2.740467e+003;7.170487e-002
2.742395e+003;7.148118e-002
2.744324e+003;7.152111e-002
2.746252e+003;7.161359e-002
2.748181e+003;7.132122e-002
2.750109e+003;7.152756e-002
2.752038e+003;7.198659e-002
2.753967e+003;7.190400e-002
2.755895e+003;7.209200e-002
2.757824e+003;7.252524e-002
2.759752e+003;7.268558e-002
2.761681e+003;7.252727e-002
2.763609e+003;7.233690e-002
2.765538e+003;7.248687e-002
2.767466e+003;7.232141e-002
2.769395e+003;7.228611e-002
2.771323e+003;7.292055e-002
2.773252e+003;7.328098e-002
2.775181e+003;7.327279e-002
2.777109e+003;7.357696e-002
2.779038e+003;7.385632e-002
2.780966e+003;7.403710e-002
2.782895e+003;7.422496e-002
2.784823e+003;7.418577e-002
2.786752e+003;7.404948e-002
2.788680e+003;7.415406e-002
2.790609e+003;7.435368e-002
2.792538e+003;7.468411e-002
2.794466e+003;7.508332e-002
2.796395e+003;7.554416e-002
2.798323e+003;7.558690e-002
2.800252e+003;7.538737e-002
2.802180e+003;7.546081e-002
2.804109e+003;7.586803e-002
2.806037e+003;7.623554e-002
2.807966e+003;7.652160e-002
2.809895e+003;7.699259e-002
2.811823e+003;7.758503e-002
2.813751e+003;7.809267e-002
2.815680e+003;7.847013e-002
2.817609e+003;7.903048e-002
2.819537e+003;7.942145e-002
2.821466e+003;7.950692e-002
2.823394e+003;7.978116e-002
2.825323e+003;8.005629e-002
2.827251e+003;8.064750e-002
2.829180e+003;8.088758e-002
2.831108e+003;8.106413e-002
2.833037e+003;8.166506e-002
2.834966e+003;8.291022e-002
2.836894e+003;8.373365e-002
2.838823e+003;8.445202e-002
2.840751e+003;8.594369e-002
2.842680e+003;8.707736e-002
2.844608e+003;8.845545e-002
2.846537e+003;9.043370e-002
2.848465e+003;9.239175e-002
2.850394e+003;9.360438e-002
2.852323e+003;9.405448e-002
2.854251e+003;9.383585e-002
2.856180e+003;9.383367e-002
2.858108e+003;9.419712e-002
2.860037e+003;9.481409e-002
2.861965e+003;9.547495e-002
2.863894e+003;9.608353e-002
2.865822e+003;9.700503e-002
2.867751e+003;9.769741e-002
2.869679e+003;9.759796e-002
2.871608e+003;9.793320e-002
2.873536e+003;9.847946e-002
2.875465e+003;9.870411e-002
2.877394e+003;9.905672e-002
2.879322e+003;9.965938e-002
2.881251e+003;1.001874e-001
2.883179e+003;1.005026e-001
2.885108e+003;1.011204e-001
2.887036e+003;1.017574e-001
2.888965e+003;1.021036e-001
2.890893e+003;1.026196e-001
2.892822e+003;1.029594e-001
2.894750e+003;1.029677e-001
2.896679e+003;1.030497e-001
2.898608e+003;1.030016e-001
2.900536e+003;1.027430e-001
2.902465e+003;1.025484e-001
2.904393e+003;1.022827e-001
2.906322e+003;1.018687e-001
2.908250e+003;1.016793e-001
2.910179e+003;1.018438e-001
2.912107e+003;1.017583e-001
2.914036e+003;1.019094e-001
2.915965e+003;1.018043e-001
2.917893e+003;1.009879e-001
2.919822e+003;9.972674e-002
2.921750e+003;9.830815e-002
2.923679e+003;9.678537e-002
2.925607e+003;9.466693e-002
2.927536e+003;9.276142e-002
2.929464e+003;9.170446e-002
2.931393e+003;9.094287e-002
2.933322e+003;9.023724e-002
2.935250e+003;8.930586e-002
2.937178e+003;8.823194e-002
2.939107e+003;8.760203e-002
2.941036e+003;8.686961e-002
2.942964e+003;8.586264e-002
2.944893e+003;8.514339e-002
2.946821e+003;8.464137e-002
2.948750e+003;8.381699e-002
2.950678e+003;8.297551e-002
2.952607e+003;8.201707e-002
2.954535e+003;8.071760e-002
2.956464e+003;7.992727e-002
2.958393e+003;7.997566e-002
2.960321e+003;7.927082e-002
2.962250e+003;7.818259e-002
2.964178e+003;7.754637e-002
2.966107e+003;7.691138e-002
2.968035e+003;7.635514e-002
2.969964e+003;7.557952e-002
2.971892e+003;7.506968e-002
2.973821e+003;7.446674e-002
2.975750e+003;7.372594e-002
2.977678e+003;7.319572e-002
2.979607e+003;7.273121e-002
2.981535e+003;7.238074e-002
2.983464e+003;7.201979e-002
2.985392e+003;7.139463e-002
2.987321e+003;7.099584e-002
2.989249e+003;7.091308e-002
2.991178e+003;7.083230e-002
2.993106e+003;7.086109e-002
2.995035e+003;7.120994e-002
2.996964e+003;7.109980e-002
2.998892e+003;7.072716e-002
3.000821e+003;7.040978e-002
3.002749e+003;7.035329e-002
3.004678e+003;7.052818e-002
3.006606e+003;7.047350e-002
3.008535e+003;7.045066e-002
3.010463e+003;7.084962e-002
3.012392e+003;7.086573e-002
3.014321e+003;7.056194e-002
3.016249e+003;7.061671e-002
3.018177e+003;7.070708e-002
3.020106e+003;7.078222e-002
3.022035e+003;7.099713e-002
3.023963e+003;7.145619e-002
3.025892e+003;7.151166e-002
3.027820e+003;7.148025e-002
3.029749e+003;7.187394e-002
3.031677e+003;7.208210e-002
3.033606e+003;7.246999e-002
3.035534e+003;7.296903e-002
3.037463e+003;7.298376e-002
3.039392e+003;7.267273e-002
3.041320e+003;7.261382e-002
3.043249e+003;7.297934e-002
3.045177e+003;7.326361e-002
3.047106e+003;7.324129e-002
3.049034e+003;7.356609e-002
3.050963e+003;7.392855e-002
3.052891e+003;7.408933e-002
3.054820e+003;7.401023e-002
3.056749e+003;7.416148e-002
3.058677e+003;7.471441e-002
3.060606e+003;7.515961e-002
3.062534e+003;7.521764e-002
3.064463e+003;7.547264e-002
3.066391e+003;7.579827e-002
3.068320e+003;7.580119e-002
3.070248e+003;7.601543e-002
3.072177e+003;7.612612e-002
3.074105e+003;7.636498e-002
3.076034e+003;7.651710e-002
3.077963e+003;7.657507e-002
3.079891e+003;7.710971e-002
3.081820e+003;7.752280e-002
3.083748e+003;7.790420e-002
3.085677e+003;7.844477e-002
3.087605e+003;7.832757e-002
3.089534e+003;7.805480e-002
3.091462e+003;7.824603e-002
3.093391e+003;7.881710e-002
3.095320e+003;7.941851e-002
3.097248e+003;7.955980e-002
3.099177e+003;7.982090e-002
3.101105e+003;8.012965e-002
3.103034e+003;8.008622e-002
3.104962e+003;8.008638e-002
3.106891e+003;8.030509e-002
3.108819e+003;8.088303e-002
3.110748e+003;8.157878e-002
3.112677e+003;8.209319e-002
3.114605e+003;8.259949e-002
3.116533e+003;8.271228e-002
3.118462e+003;8.234873e-002
3.120391e+003;8.247988e-002
3.122319e+003;8.331586e-002
3.124248e+003;8.369388e-002
3.126176e+003;8.346529e-002
3.128105e+003;8.351473e-002
3.130033e+003;8.383371e-002
3.131962e+003;8.446489e-002
3.133890e+003;8.539259e-002
3.135819e+003;8.611136e-002
3.137748e+003;8.655073e-002
3.139676e+003;8.674089e-002
3.141605e+003;8.686115e-002
3.143533e+003;8.718467e-002
3.145462e+003;8.786540e-002
3.147390e+003;8.810521e-002
3.149319e+003;8.826608e-002
3.151247e+003;8.886207e-002
3.153176e+003;8.955403e-002
3.155104e+003;8.991832e-002
3.157033e+003;8.964294e-002
3.158962e+003;9.000587e-002
3.160890e+003;9.101544e-002
3.162819e+003;9.166031e-002
3.164747e+003;9.177125e-002
3.166676e+003;9.198005e-002
3.168604e+003;9.246685e-002
3.170533e+003;9.252855e-002
3.172461e+003;9.306552e-002
3.174390e+003;9.394077e-002
3.176319e+003;9.454522e-002
3.178247e+003;9.533808e-002
3.180176e+003;9.594684e-002
3.182104e+003;9.653407e-002
3.184033e+003;9.692086e-002
3.185961e+003;9.744670e-002
3.187890e+003;9.797957e-002
3.189818e+003;9.815042e-002
3.191747e+003;9.840485e-002
3.193676e+003;9.963796e-002
3.195604e+003;1.002433e-001
3.197532e+003;1.001569e-001
3.199461e+003;1.005687e-001
3.201390e+003;1.012573e-001
3.203318e+003;1.018305e-001
3.205247e+003;1.025060e-001
3.207175e+003;1.029695e-001
3.209104e+003;1.032918e-001
3.211032e+003;1.039496e-001
3.212961e+003;1.050785e-001
3.214889e+003;1.061885e-001
3.216818e+003;1.071070e-001
3.218747e+003;1.075384e-001
3.220675e+003;1.076984e-001
3.222604e+003;1.079788e-001
3.224532e+003;1.084157e-001
3.226461e+003;1.091485e-001
3.228389e+003;1.102603e-001
3.230318e+003;1.111201e-001
3.232246e+003;1.112256e-001
3.234175e+003;1.112480e-001
3.236104e+003;1.125774e-001
3.238032e+003;1.137011e-001
3.239961e+003;1.140005e-001
3.241889e+003;1.150615e-001
3.243818e+003;1.163968e-001
3.245746e+003;1.170610e-001
3.247675e+003;1.176643e-001
3.249603e+003;1.182668e-001
3.251532e+003;1.190192e-001
3.253460e+003;1.200518e-001
3.255389e+003;1.211499e-001
3.257318e+003;1.224360e-001
3.259246e+003;1.238581e-001
3.261175e+003;1.248521e-001
3.263103e+003;1.259781e-001
3.265032e+003;1.268281e-001
3.266960e+003;1.267540e-001
3.268889e+003;1.268070e-001
3.270817e+003;1.279119e-001
3.272746e+003;1.291050e-001
3.274675e+003;1.296264e-001
3.276603e+003;1.303460e-001
3.278531e+003;1.310816e-001
3.280460e+003;1.312685e-001
3.282389e+003;1.314882e-001
3.284317e+003;1.327545e-001
3.286246e+003;1.336324e-001
3.288174e+003;1.335429e-001
3.290103e+003;1.331338e-001
3.292031e+003;1.328486e-001
3.293960e+003;1.333755e-001
3.295888e+003;1.343915e-001
3.297817e+003;1.342991e-001
3.299746e+003;1.335181e-001
3.301674e+003;1.333669e-001
3.303603e+003;1.338220e-001
3.305531e+003;1.342115e-001
3.307460e+003;1.340522e-001
3.309388e+003;1.337423e-001
3.311317e+003;1.332765e-001
3.313245e+003;1.328519e-001
3.315174e+003;1.330645e-001
3.317103e+003;1.340999e-001
3.319031e+003;1.352391e-001
3.320960e+003;1.355613e-001
3.322888e+003;1.357524e-001
3.324817e+003;1.364758e-001
3.326745e+003;1.370215e-001
3.328674e+003;1.371955e-001
3.330602e+003;1.376993e-001
3.332531e+003;1.382511e-001
3.334459e+003;1.387248e-001
3.336388e+003;1.388171e-001
3.338317e+003;1.392417e-001
3.340245e+003;1.394589e-001
3.342174e+003;1.387773e-001
3.344102e+003;1.381906e-001
3.346031e+003;1.383709e-001
3.347959e+003;1.379171e-001
3.349888e+003;1.371524e-001
3.351816e+003;1.363208e-001
3.353745e+003;1.353644e-001
3.355674e+003;1.341636e-001
3.357602e+003;1.332060e-001
3.359531e+003;1.329666e-001
3.361459e+003;1.327907e-001
3.363388e+003;1.316054e-001
3.365316e+003;1.307092e-001
3.367245e+003;1.300505e-001
3.369173e+003;1.292207e-001
3.371102e+003;1.288828e-001
3.373031e+003;1.283437e-001
3.374959e+003;1.276413e-001
3.376887e+003;1.275563e-001
3.378816e+003;1.274903e-001
3.380745e+003;1.267354e-001
3.382673e+003;1.258004e-001
3.384602e+003;1.252724e-001
3.386530e+003;1.247654e-001
3.388459e+003;1.240105e-001
3.390387e+003;1.240392e-001
3.392316e+003;1.239633e-001
3.394244e+003;1.234420e-001
3.396173e+003;1.222344e-001
3.398102e+003;1.212880e-001
3.400030e+003;1.206926e-001
3.401959e+003;1.202958e-001
3.403887e+003;1.197102e-001
3.405816e+003;1.192239e-001
3.407744e+003;1.190776e-001
3.409673e+003;1.185850e-001
3.411601e+003;1.177769e-001
3.413530e+003;1.169855e-001
3.415458e+003;1.162911e-001
3.417387e+003;1.153038e-001
3.419316e+003;1.143234e-001
3.421244e+003;1.135480e-001
3.423173e+003;1.125865e-001
3.425101e+003;1.115738e-001
3.427030e+003;1.104310e-001
3.428958e+003;1.101908e-001
3.430887e+003;1.094944e-001
3.432815e+003;1.080020e-001
3.434744e+003;1.068232e-001
3.436673e+003;1.065259e-001
3.438601e+003;1.068704e-001
3.440530e+003;1.066336e-001
3.442458e+003;1.054015e-001
3.444387e+003;1.041435e-001
3.446315e+003;1.031078e-001
3.448244e+003;1.026295e-001
3.450172e+003;1.026642e-001
3.452101e+003;1.019542e-001
3.454030e+003;1.002468e-001
3.455958e+003;9.920438e-002
3.457886e+003;9.915105e-002
3.459815e+003;9.887599e-002
3.461744e+003;9.804534e-002
3.463672e+003;9.695516e-002
3.465601e+003;9.590043e-002
3.467529e+003;9.501614e-002
3.469458e+003;9.449267e-002
3.471386e+003;9.383132e-002
3.473315e+003;9.278633e-002
3.475243e+003;9.185717e-002
3.477172e+003;9.164377e-002
3.479101e+003;9.118091e-002
3.481029e+003;8.999797e-002
3.482958e+003;8.872317e-002
3.484886e+003;8.739767e-002
3.486815e+003;8.673842e-002
3.488743e+003;8.678540e-002
3.490672e+003;8.589535e-002
3.492600e+003;8.497871e-002
3.494529e+003;8.422054e-002
3.496458e+003;8.348440e-002
3.498386e+003;8.277000e-002
3.500315e+003;8.132725e-002
3.502243e+003;7.997459e-002
3.504172e+003;7.952005e-002
3.506100e+003;7.943383e-002
3.508029e+003;7.902309e-002
3.509957e+003;7.845084e-002
3.511886e+003;7.783332e-002
3.513814e+003;7.706294e-002
3.515743e+003;7.668310e-002
3.517672e+003;7.631011e-002
3.519600e+003;7.526969e-002
3.521529e+003;7.422320e-002
3.523457e+003;7.345852e-002
3.525386e+003;7.289621e-002
3.527314e+003;7.228814e-002
3.529243e+003;7.197189e-002
3.531171e+003;7.194658e-002
3.533100e+003;7.121315e-002
3.535029e+003;7.004841e-002
3.536957e+003;6.936193e-002
3.538885e+003;6.896166e-002
3.540814e+003;6.848614e-002
3.542743e+003;6.778930e-002
3.544671e+003;6.719893e-002
3.546600e+003;6.669057e-002
3.548528e+003;6.610570e-002
3.550457e+003;6.545605e-002
3.552385e+003;6.512753e-002
3.554314e+003;6.452361e-002
3.556242e+003;6.365153e-002
3.558171e+003;6.349312e-002
3.560100e+003;6.310120e-002
3.562028e+003;6.229349e-002
3.563957e+003;6.141858e-002
3.565885e+003;6.047195e-002
3.567814e+003;5.985911e-002
3.569742e+003;5.980697e-002
3.571671e+003;5.953236e-002
3.573599e+003;5.874203e-002
3.575528e+003;5.803497e-002
3.577457e+003;5.764284e-002
3.579385e+003;5.717372e-002
3.581314e+003;5.673362e-002
3.583242e+003;5.636530e-002
3.585171e+003;5.622600e-002
3.587099e+003;5.582739e-002
3.589028e+003;5.519684e-002
3.590956e+003;5.479211e-002
3.592885e+003;5.473212e-002
3.594813e+003;5.459417e-002
3.596742e+003;5.431596e-002
3.598671e+003;5.375693e-002
3.600599e+003;5.287578e-002
3.602528e+003;5.183298e-002
3.604456e+003;5.131893e-002
3.606385e+003;5.122960e-002
3.608313e+003;5.107345e-002
3.610242e+003;5.078895e-002
3.612170e+003;5.005697e-002
3.614099e+003;4.966566e-002
3.616028e+003;4.982067e-002
3.617956e+003;5.034604e-002
3.619885e+003;4.985910e-002
3.621813e+003;4.859477e-002
3.623742e+003;4.862586e-002
3.625670e+003;4.913198e-002
3.627599e+003;4.841726e-002
3.629527e+003;4.799412e-002
3.631456e+003;4.799341e-002
3.633385e+003;4.729028e-002
3.635313e+003;4.663894e-002
3.637241e+003;4.653695e-002
3.639170e+003;4.584921e-002
3.641099e+003;4.579074e-002
3.643027e+003;4.635534e-002
3.644956e+003;4.628158e-002
3.646884e+003;4.557147e-002
3.648813e+003;4.509517e-002
3.650741e+003;4.534204e-002
3.652670e+003;4.556142e-002
3.654598e+003;4.514406e-002
3.656527e+003;4.440846e-002
3.658456e+003;4.406316e-002
3.660384e+003;4.351441e-002
3.662313e+003;4.321945e-002
3.664241e+003;4.291457e-002
3.666170e+003;4.233103e-002
3.668098e+003;4.233300e-002
3.670027e+003;4.260287e-002
3.671955e+003;4.249064e-002
3.673884e+003;4.209510e-002
3.675813e+003;4.155765e-002
3.677741e+003;4.146968e-002
3.679669e+003;4.129281e-002
3.681598e+003;4.139321e-002
3.683527e+003;4.173383e-002
3.685455e+003;4.165896e-002
3.687384e+003;4.085237e-002
3.689312e+003;4.056798e-002
3.691241e+003;4.118390e-002
3.693169e+003;4.143104e-002
3.695098e+003;4.067051e-002
3.697026e+003;4.041424e-002
3.698955e+003;4.062947e-002
3.700884e+003;4.055576e-002
3.702812e+003;4.065577e-002
3.704741e+003;4.040369e-002
3.706669e+003;4.023416e-002
3.708598e+003;4.036035e-002
3.710526e+003;4.054397e-002
3.712455e+003;4.039711e-002
3.714383e+003;3.980358e-002
3.716312e+003;3.985948e-002
3.718240e+003;4.008061e-002
3.720169e+003;4.014722e-002
3.722098e+003;3.966815e-002
3.724026e+003;3.905535e-002
3.725955e+003;3.942068e-002
3.727883e+003;3.966416e-002
3.729812e+003;3.923444e-002
3.731740e+003;3.949023e-002
3.733669e+003;3.999268e-002
3.735597e+003;3.967073e-002
3.737526e+003;3.909814e-002
3.739455e+003;3.861787e-002
3.741383e+003;3.845251e-002
3.743312e+003;3.865177e-002
3.745240e+003;3.879540e-002
3.747169e+003;3.871251e-002
3.749097e+003;3.823354e-002
3.751026e+003;3.855808e-002
3.752954e+003;3.933205e-002
3.754883e+003;3.983057e-002
3.756812e+003;3.962938e-002
3.758740e+003;3.918168e-002
3.760668e+003;3.884558e-002
3.762597e+003;3.875732e-002
3.764526e+003;3.938247e-002
3.766454e+003;3.910459e-002
3.768383e+003;3.819389e-002
3.770311e+003;3.817562e-002
3.772240e+003;3.861809e-002
3.774168e+003;3.882837e-002
3.776097e+003;3.854020e-002
3.778025e+003;3.820224e-002
3.779954e+003;3.824585e-002
3.781883e+003;3.885257e-002
3.783811e+003;3.918519e-002
3.785740e+003;3.922929e-002
3.787668e+003;3.964292e-002
3.789597e+003;3.976125e-002
3.791525e+003;3.973645e-002
3.793454e+003;3.959468e-002
3.795382e+003;3.938403e-002
3.797311e+003;3.929127e-002
3.799240e+003;3.872892e-002
3.801168e+003;3.841370e-002
3.803097e+003;3.847582e-002
3.805025e+003;3.871110e-002
3.806954e+003;3.848017e-002
3.808882e+003;3.837370e-002
3.810811e+003;3.899794e-002
3.812739e+003;3.963200e-002
3.814668e+003;3.942829e-002
3.816596e+003;3.889436e-002
3.818525e+003;3.892886e-002
3.820454e+003;3.871088e-002
3.822382e+003;3.869150e-002
3.824311e+003;3.878040e-002
3.826239e+003;3.919422e-002
3.828168e+003;3.945144e-002
3.830096e+003;3.941889e-002
3.832025e+003;3.943881e-002
3.833953e+003;3.960804e-002
3.835882e+003;3.952688e-002
3.837811e+003;3.961479e-002
3.839739e+003;4.021537e-002
3.841667e+003;3.973187e-002
3.843596e+003;3.879366e-002
3.845525e+003;3.862660e-002
3.847453e+003;3.874950e-002
3.849382e+003;3.921061e-002
3.851310e+003;3.946146e-002
3.853239e+003;3.930444e-002
3.855167e+003;3.963457e-002
3.857096e+003;3.968206e-002
3.859024e+003;3.983928e-002
3.860953e+003;4.016841e-002
3.862882e+003;3.976545e-002
3.864810e+003;3.960938e-002
3.866739e+003;3.990397e-002
3.868667e+003;3.969622e-002
3.870596e+003;3.942194e-002
3.872524e+003;3.942075e-002
3.874453e+003;3.918646e-002
3.876381e+003;3.957897e-002
3.878310e+003;4.012400e-002
3.880239e+003;3.950943e-002
3.882167e+003;3.871755e-002
3.884096e+003;3.913439e-002
3.886024e+003;3.999090e-002
3.887953e+003;4.052131e-002
3.889881e+003;3.989511e-002
3.891810e+003;3.973699e-002
3.893738e+003;4.027364e-002
3.895667e+003;4.017920e-002
3.897595e+003;4.009238e-002
3.899524e+003;3.958888e-002
3.901453e+003;3.904002e-002
3.903381e+003;3.918755e-002
3.905310e+003;3.934035e-002
3.907238e+003;4.038191e-002
3.909167e+003;4.096851e-002
3.911095e+003;4.047148e-002
3.913024e+003;4.039984e-002
3.914952e+003;4.043777e-002
3.916881e+003;3.995508e-002
3.918810e+003;4.024823e-002
3.920738e+003;4.113502e-002
3.922667e+003;4.093105e-002
3.924595e+003;4.030996e-002
3.926524e+003;4.047570e-002
3.928452e+003;4.058483e-002
3.930381e+003;4.034006e-002
3.932309e+003;4.050454e-002
3.934238e+003;4.051997e-002
3.936167e+003;4.053099e-002
3.938095e+003;4.042057e-002
3.940023e+003;4.025724e-002
3.941952e+003;4.067360e-002
3.943881e+003;4.093330e-002
3.945809e+003;4.077361e-002
3.947738e+003;4.020352e-002
3.949666e+003;4.032799e-002
3.951595e+003;4.064933e-002
3.953523e+003;4.084240e-002
3.955452e+003;4.079100e-002
3.957380e+003;4.074733e-002
3.959309e+003;4.092482e-002
3.961238e+003;4.087866e-002
3.963166e+003;4.033643e-002
3.965095e+003;4.049814e-002
3.967023e+003;4.101672e-002
3.968952e+003;4.156086e-002
3.970880e+003;4.138843e-002
3.972809e+003;4.079068e-002
3.974737e+003;4.040417e-002
3.976666e+003;4.032792e-002
3.978594e+003;4.066196e-002
3.980523e+003;4.065596e-002
3.982452e+003;3.992616e-002
3.984380e+003;3.982603e-002
3.986309e+003;4.084513e-002
3.988237e+003;4.069147e-002
3.990166e+003;3.986300e-002
3.992094e+003;4.037864e-002
3.994023e+003;4.181325e-002
3.995951e+003;4.199519e-002
3.997880e+003;4.117913e-002
3.999809e+003;4.119924e-002
4.001737e+003;0.000000e+000
