3.992094e+002;0.000000e+000
4.011380e+002;0.000000e+000
4.030665e+002;0.000000e+000
4.049951e+002;0.000000e+000
4.069236e+002;0.000000e+000
4.088522e+002;0.000000e+000
4.107807e+002;0.000000e+000
4.127093e+002;0.000000e+000
4.146378e+002;0.000000e+000
4.165664e+002;0.000000e+000
4.184949e+002;0.000000e+000
4.204235e+002;0.000000e+000
4.223520e+002;0.000000e+000
4.242806e+002;0.000000e+000
4.262091e+002;0.000000e+000
4.281377e+002;0.000000e+000
4.300662e+002;0.000000e+000
4.319948e+002;0.000000e+000
4.339233e+002;0.000000e+000
4.358519e+002;0.000000e+000
4.377804e+002;0.000000e+000
4.397090e+002;0.000000e+000
4.416375e+002;0.000000e+000
4.435660e+002;0.000000e+000
4.454946e+002;0.000000e+000
4.474232e+002;0.000000e+000
4.493517e+002;0.000000e+000
4.512802e+002;0.000000e+000
4.532088e+002;0.000000e+000
4.551373e+002;0.000000e+000
4.570659e+002;0.000000e+000
4.589944e+002;0.000000e+000
4.609230e+002;0.000000e+000
4.628515e+002;0.000000e+000
4.647801e+002;0.000000e+000
4.667086e+002;0.000000e+000
4.686372e+002;0.000000e+000
4.705657e+002;0.000000e+000
4.724943e+002;0.000000e+000
4.744228e+002;0.000000e+000
4.763513e+002;0.000000e+000
4.782799e+002;0.000000e+000
4.802085e+002;0.000000e+000
4.821370e+002;0.000000e+000
4.840656e+002;0.000000e+000
4.859941e+002;0.000000e+000
4.879226e+002;0.000000e+000
4.898512e+002;0.000000e+000
4.917798e+002;0.000000e+000
4.937083e+002;0.000000e+000
4.956368e+002;0.000000e+000
4.975654e+002;0.000000e+000
4.994939e+002;0.000000e+000
5.014225e+002;0.000000e+000
5.033510e+002;0.000000e+000
5.052796e+002;0.000000e+000
5.072081e+002;0.000000e+000
5.091367e+002;0.000000e+000
5.110652e+002;0.000000e+000
5.129938e+002;0.000000e+000
5.149223e+002;0.000000e+000
5.168509e+002;0.000000e+000
5.187794e+002;0.000000e+000
5.207079e+002;0.000000e+000
5.226365e+002;0.000000e+000
5.245651e+002;0.000000e+000
5.264936e+002;0.000000e+000
5.284222e+002;0.000000e+000
5.303507e+002;0.000000e+000
5.322792e+002;0.000000e+000
5.342078e+002;0.000000e+000
5.361364e+002;0.000000e+000
5.380649e+002;0.000000e+000
5.399935e+002;0.000000e+000
5.419220e+002;0.000000e+000
5.438505e+002;0.000000e+000
5.457791e+002;0.000000e+000
5.477076e+002;0.000000e+000
5.496362e+002;0.000000e+000
5.515648e+002;0.000000e+000
5.534933e+002;0.000000e+000
5.554218e+002;0.000000e+000
5.573504e+002;0.000000e+000
5.592789e+002;0.000000e+000
5.612075e+002;0.000000e+000
5.631360e+002;0.000000e+000
5.650646e+002;0.000000e+000
5.669931e+002;0.000000e+000
5.689217e+002;0.000000e+000
5.708502e+002;0.000000e+000
5.727787e+002;0.000000e+000
5.747073e+002;0.000000e+000
5.766359e+002;0.000000e+000
5.785644e+002;0.000000e+000
5.804930e+002;0.000000e+000
5.824215e+002;0.000000e+000
5.843500e+002;0.000000e+000
5.862786e+002;0.000000e+000
5.882072e+002;0.000000e+000
5.901357e+002;0.000000e+000
5.920643e+002;0.000000e+000
5.939928e+002;0.000000e+000
5.959213e+002;0.000000e+000
5.978499e+002;0.000000e+000
5.997784e+002;2.796401e-001
6.017070e+002;2.715759e-001
6.036355e+002;2.624818e-001
6.055641e+002;2.591183e-001
6.074926e+002;2.630059e-001
6.094211e+002;2.634510e-001
6.113497e+002;2.646418e-001
6.132783e+002;2.694854e-001
6.152068e+002;2.655039e-001
6.171354e+002;2.573396e-001
6.190639e+002;2.572890e-001
6.209924e+002;2.579943e-001
6.229210e+002;2.502449e-001
6.248495e+002;2.426865e-001
6.267781e+002;2.397918e-001
6.287067e+002;2.371968e-001
6.306352e+002;2.362235e-001
6.325637e+002;2.392533e-001
6.344923e+002;2.407735e-001
6.364208e+002;2.350819e-001
6.383494e+002;2.274549e-001
6.402780e+002;2.225437e-001
6.422065e+002;2.208701e-001
6.441350e+002;2.236596e-001
6.460636e+002;2.261294e-001
6.479921e+002;2.263051e-001
6.499207e+002;2.267363e-001
6.518492e+002;2.286610e-001
6.537778e+002;2.316718e-001
6.557063e+002;2.323811e-001
6.576349e+002;2.354638e-001
6.595634e+002;2.415395e-001
6.614919e+002;2.453611e-001
6.634205e+002;2.465887e-001
6.653491e+002;2.440023e-001
6.672776e+002;2.411252e-001
6.692062e+002;2.370887e-001
6.711347e+002;2.310836e-001
6.730632e+002;2.245525e-001
6.749918e+002;2.161342e-001
6.769203e+002;2.102785e-001
6.788489e+002;2.071299e-001
6.807775e+002;2.031691e-001
6.827060e+002;1.996231e-001
6.846345e+002;1.981692e-001
6.865631e+002;1.972538e-001
6.884916e+002;1.956632e-001
6.904202e+002;1.945806e-001
6.923488e+002;1.941226e-001
6.942773e+002;1.934365e-001
6.962058e+002;1.937951e-001
6.981344e+002;1.936076e-001
7.000629e+002;1.919473e-001
7.019915e+002;1.909360e-001
7.039200e+002;1.896691e-001
7.058486e+002;1.881137e-001
7.077771e+002;1.852584e-001
7.097057e+002;1.833099e-001
7.116342e+002;1.818345e-001
7.135627e+002;1.799133e-001
7.154913e+002;1.772800e-001
7.174199e+002;1.741097e-001
7.193484e+002;1.709804e-001
7.212770e+002;1.681573e-001
7.232055e+002;1.649982e-001
7.251340e+002;1.617358e-001
7.270626e+002;1.587044e-001
7.289911e+002;1.555026e-001
7.309197e+002;1.532435e-001
7.328483e+002;1.520132e-001
7.347768e+002;1.506961e-001
7.367053e+002;1.494472e-001
7.386339e+002;1.469918e-001
7.405624e+002;1.445176e-001
7.424910e+002;1.438550e-001
7.444196e+002;1.433835e-001
7.463481e+002;1.422638e-001
7.482766e+002;1.403771e-001
7.502052e+002;1.384179e-001
7.521337e+002;1.371209e-001
7.540623e+002;1.355936e-001
7.559908e+002;1.341113e-001
7.579194e+002;1.331832e-001
7.598479e+002;1.317315e-001
7.617765e+002;1.305136e-001
7.637050e+002;1.297073e-001
7.656335e+002;1.289132e-001
7.675621e+002;1.276245e-001
7.694907e+002;1.269158e-001
7.714192e+002;1.260672e-001
7.733478e+002;1.257085e-001
7.752763e+002;1.254980e-001
7.772048e+002;1.249472e-001
7.791334e+002;1.243949e-001
7.810620e+002;1.234339e-001
7.829905e+002;1.227067e-001
7.849191e+002;1.228810e-001
7.868476e+002;1.225330e-001
7.887761e+002;1.220471e-001
7.907047e+002;1.218478e-001
7.926332e+002;1.214684e-001
7.945618e+002;1.211229e-001
7.964903e+002;1.212260e-001
7.984189e+002;1.217851e-001
8.003474e+002;1.221836e-001
8.022759e+002;1.226079e-001
8.042045e+002;1.222427e-001
8.061331e+002;1.216241e-001
8.080616e+002;1.218625e-001
8.099902e+002;1.220958e-001
8.119187e+002;1.213516e-001
8.138472e+002;1.203429e-001
8.157758e+002;1.196750e-001
8.177043e+002;1.192400e-001
8.196329e+002;1.185077e-001
8.215615e+002;1.169099e-001
8.234900e+002;1.161385e-001
8.254185e+002;1.165005e-001
8.273471e+002;1.164747e-001
8.292756e+002;1.161825e-001
8.312042e+002;1.162846e-001
8.331328e+002;1.164974e-001
8.350613e+002;1.160676e-001
8.369898e+002;1.158997e-001
8.389184e+002;1.166093e-001
8.408469e+002;1.172619e-001
8.427755e+002;1.169970e-001
8.447040e+002;1.167832e-001
8.466326e+002;1.170895e-001
8.485611e+002;1.173151e-001
8.504897e+002;1.174847e-001
8.524182e+002;1.179858e-001
8.543467e+002;1.188463e-001
8.562753e+002;1.200188e-001
8.582039e+002;1.216289e-001
8.601324e+002;1.231368e-001
8.620610e+002;1.241166e-001
8.639895e+002;1.257046e-001
8.659180e+002;1.278105e-001
8.678466e+002;1.297280e-001
8.697751e+002;1.320239e-001
8.717037e+002;1.342677e-001
8.736323e+002;1.358387e-001
8.755608e+002;1.371430e-001
8.774893e+002;1.393998e-001
8.794179e+002;1.419053e-001
8.813464e+002;1.447366e-001
8.832750e+002;1.479746e-001
8.852036e+002;1.509938e-001
8.871321e+002;1.543121e-001
8.890606e+002;1.579235e-001
8.909892e+002;1.609040e-001
8.929177e+002;1.624441e-001
8.948463e+002;1.627081e-001
8.967748e+002;1.630204e-001
8.987034e+002;1.632732e-001
9.006319e+002;1.622624e-001
9.025605e+002;1.605136e-001
9.044890e+002;1.585346e-001
9.064175e+002;1.559530e-001
9.083461e+002;1.541130e-001
9.102747e+002;1.531348e-001
9.122032e+002;1.517321e-001
9.141318e+002;1.498837e-001
9.160603e+002;1.487327e-001
9.179888e+002;1.487821e-001
9.199174e+002;1.488937e-001
9.218459e+002;1.492299e-001
9.237745e+002;1.504024e-001
9.257031e+002;1.521272e-001
9.276316e+002;1.537836e-001
9.295601e+002;1.553786e-001
9.314887e+002;1.573870e-001
9.334172e+002;1.592391e-001
9.353458e+002;1.611746e-001
9.372744e+002;1.631933e-001
9.392029e+002;1.651296e-001
9.411314e+002;1.674581e-001
9.430600e+002;1.700345e-001
9.449885e+002;1.729585e-001
9.469171e+002;1.759901e-001
9.488456e+002;1.789603e-001
9.507742e+002;1.826944e-001
9.527027e+002;1.869996e-001
9.546313e+002;1.914040e-001
9.565598e+002;1.957047e-001
9.584883e+002;2.007503e-001
9.604169e+002;2.063599e-001
9.623455e+002;2.121799e-001
9.642740e+002;2.182851e-001
9.662026e+002;2.251258e-001
9.681311e+002;2.334735e-001
9.700596e+002;2.433584e-001
9.719882e+002;2.543423e-001
9.739167e+002;2.668532e-001
9.758453e+002;2.815787e-001
9.777739e+002;2.973746e-001
9.797024e+002;3.128653e-001
9.816309e+002;3.260117e-001
9.835595e+002;3.353394e-001
9.854880e+002;3.408922e-001
9.874166e+002;3.444047e-001
9.893452e+002;3.489281e-001
9.912737e+002;3.554874e-001
9.932022e+002;3.634599e-001
9.951307e+002;3.712603e-001
9.970593e+002;3.782470e-001
9.989879e+002;3.840683e-001
1.000916e+003;3.879607e-001
1.002845e+003;3.898818e-001
1.004773e+003;3.904486e-001
1.006702e+003;3.911164e-001
1.008631e+003;3.933192e-001
1.010559e+003;3.974611e-001
1.012488e+003;4.026250e-001
1.014416e+003;4.079070e-001
1.016345e+003;4.140211e-001
1.018273e+003;4.202068e-001
1.020202e+003;4.260401e-001
1.022130e+003;4.321699e-001
1.024059e+003;4.368502e-001
1.025988e+003;4.397469e-001
1.027916e+003;4.405386e-001
1.029845e+003;4.390285e-001
1.031773e+003;4.352399e-001
1.033702e+003;4.291743e-001
1.035630e+003;4.220243e-001
1.037559e+003;4.163763e-001
1.039487e+003;4.122354e-001
1.041416e+003;4.098898e-001
1.043344e+003;4.097252e-001
1.045273e+003;4.117604e-001
1.047202e+003;4.148941e-001
1.049130e+003;4.165635e-001
1.051059e+003;4.159221e-001
1.052987e+003;4.124942e-001
1.054916e+003;4.058678e-001
1.056844e+003;3.970776e-001
1.058773e+003;3.842970e-001
1.060701e+003;3.678667e-001
1.062630e+003;3.512110e-001
1.064558e+003;3.356322e-001
1.066487e+003;3.221984e-001
1.068416e+003;3.115816e-001
1.070344e+003;3.023424e-001
1.072273e+003;2.942881e-001
1.074201e+003;2.884066e-001
1.076130e+003;2.837605e-001
1.078058e+003;2.785219e-001
1.079987e+003;2.737464e-001
1.081915e+003;2.704144e-001
1.083844e+003;2.692517e-001
1.085773e+003;2.694722e-001
1.087701e+003;2.693207e-001
1.089630e+003;2.693171e-001
1.091558e+003;2.703385e-001
1.093487e+003;2.715686e-001
1.095415e+003;2.733040e-001
1.097344e+003;2.752588e-001
1.099272e+003;2.764296e-001
1.101201e+003;2.764191e-001
1.103129e+003;2.751700e-001
1.105058e+003;2.715623e-001
1.106987e+003;2.665864e-001
1.108915e+003;2.612319e-001
1.110844e+003;2.540465e-001
1.112772e+003;2.437620e-001
1.114701e+003;2.322009e-001
1.116629e+003;2.214071e-001
1.118558e+003;2.122054e-001
1.120486e+003;2.045357e-001
1.122415e+003;1.971110e-001
1.124344e+003;1.892145e-001
1.126272e+003;1.816683e-001
1.128201e+003;1.749993e-001
1.130129e+003;1.694289e-001
1.132058e+003;1.650426e-001
1.133986e+003;1.617613e-001
1.135915e+003;1.587425e-001
1.137843e+003;1.566847e-001
1.139772e+003;1.565167e-001
1.141700e+003;1.575320e-001
1.143629e+003;1.591752e-001
1.145557e+003;1.606018e-001
1.147486e+003;1.616520e-001
1.149415e+003;1.624692e-001
1.151343e+003;1.626361e-001
1.153272e+003;1.625954e-001
1.155200e+003;1.626940e-001
1.157129e+003;1.623623e-001
1.159057e+003;1.605229e-001
1.160986e+003;1.567271e-001
1.162914e+003;1.514622e-001
1.164843e+003;1.454364e-001
1.166771e+003;1.385472e-001
1.168700e+003;1.311971e-001
1.170629e+003;1.245643e-001
1.172557e+003;1.188106e-001
1.174486e+003;1.137901e-001
1.176414e+003;1.097057e-001
1.178343e+003;1.066858e-001
1.180271e+003;1.042769e-001
1.182200e+003;1.027877e-001
1.184128e+003;1.023680e-001
1.186057e+003;1.022072e-001
1.187986e+003;1.027653e-001
1.189914e+003;1.045458e-001
1.191843e+003;1.068195e-001
1.193771e+003;1.097026e-001
1.195700e+003;1.126891e-001
1.197628e+003;1.150300e-001
1.199557e+003;1.165027e-001
1.201485e+003;1.171478e-001
1.203414e+003;1.169759e-001
1.205343e+003;1.158938e-001
1.207271e+003;1.133708e-001
1.209200e+003;1.095394e-001
1.211128e+003;1.057062e-001
1.213057e+003;1.033704e-001
1.214985e+003;1.025288e-001
1.216914e+003;1.027128e-001
1.218842e+003;1.038554e-001
1.220771e+003;1.055353e-001
1.222699e+003;1.070676e-001
1.224628e+003;1.088582e-001
1.226557e+003;1.109543e-001
1.228485e+003;1.127780e-001
1.230414e+003;1.145879e-001
1.232342e+003;1.160704e-001
1.234271e+003;1.170031e-001
1.236199e+003;1.174469e-001
1.238128e+003;1.177406e-001
1.240056e+003;1.183939e-001
1.241985e+003;1.190417e-001
1.243913e+003;1.200640e-001
1.245842e+003;1.209827e-001
1.247771e+003;1.212945e-001
1.249699e+003;1.216828e-001
1.251628e+003;1.217942e-001
1.253556e+003;1.214436e-001
1.255485e+003;1.215369e-001
1.257413e+003;1.220175e-001
1.259342e+003;1.224790e-001
1.261270e+003;1.227484e-001
1.263199e+003;1.223691e-001
1.265127e+003;1.218252e-001
1.267056e+003;1.221713e-001
1.268985e+003;1.228796e-001
1.270913e+003;1.233438e-001
1.272842e+003;1.240459e-001
1.274770e+003;1.245782e-001
1.276699e+003;1.244705e-001
1.278627e+003;1.242340e-001
1.280556e+003;1.235517e-001
1.282484e+003;1.219677e-001
1.284413e+003;1.205915e-001
1.286342e+003;1.204007e-001
1.288270e+003;1.209025e-001
1.290199e+003;1.215044e-001
1.292127e+003;1.221252e-001
1.294056e+003;1.232025e-001
1.295984e+003;1.248840e-001
1.297913e+003;1.270377e-001
1.299841e+003;1.297724e-001
1.301770e+003;1.330124e-001
1.303698e+003;1.369395e-001
1.305627e+003;1.413927e-001
1.307556e+003;1.459302e-001
1.309484e+003;1.502242e-001
1.311413e+003;1.535088e-001
1.313341e+003;1.549604e-001
1.315270e+003;1.547444e-001
1.317198e+003;1.528557e-001
1.319127e+003;1.494793e-001
1.321055e+003;1.460111e-001
1.322984e+003;1.434346e-001
1.324912e+003;1.417863e-001
1.326841e+003;1.413110e-001
1.328770e+003;1.417576e-001
1.330698e+003;1.426903e-001
1.332627e+003;1.438109e-001
1.334555e+003;1.442229e-001
1.336484e+003;1.435124e-001
1.338412e+003;1.417638e-001
1.340341e+003;1.395669e-001
1.342269e+003;1.371433e-001
1.344198e+003;1.345078e-001
1.346126e+003;1.323010e-001
1.348055e+003;1.309155e-001
1.349984e+003;1.308229e-001
1.351912e+003;1.315027e-001
1.353841e+003;1.323492e-001
1.355769e+003;1.331279e-001
1.357698e+003;1.339674e-001
1.359626e+003;1.345343e-001
1.361555e+003;1.342661e-001
1.363483e+003;1.336290e-001
1.365412e+003;1.329679e-001
1.367341e+003;1.320885e-001
1.369269e+003;1.311060e-001
1.371198e+003;1.295228e-001
1.373126e+003;1.269500e-001
1.375055e+003;1.239485e-001
1.376983e+003;1.210032e-001
1.378912e+003;1.180238e-001
1.380840e+003;1.149045e-001
1.382769e+003;1.120647e-001
1.384698e+003;1.100069e-001
1.386626e+003;1.084173e-001
1.388555e+003;1.073199e-001
1.390483e+003;1.064939e-001
1.392412e+003;1.057563e-001
1.394340e+003;1.054203e-001
1.396269e+003;1.056458e-001
1.398197e+003;1.057412e-001
1.400126e+003;1.058323e-001
1.402054e+003;1.059269e-001
1.403983e+003;1.062107e-001
1.405911e+003;1.069835e-001
1.407840e+003;1.073835e-001
1.409769e+003;1.076157e-001
1.411697e+003;1.084763e-001
1.413626e+003;1.097084e-001
1.415554e+003;1.110798e-001
1.417483e+003;1.124514e-001
1.419411e+003;1.139835e-001
1.421340e+003;1.154713e-001
1.423268e+003;1.164543e-001
1.425197e+003;1.169985e-001
1.427125e+003;1.168593e-001
1.429054e+003;1.157412e-001
1.430983e+003;1.143698e-001
1.432911e+003;1.129116e-001
1.434840e+003;1.111511e-001
1.436768e+003;1.093732e-001
1.438697e+003;1.081253e-001
1.440625e+003;1.073378e-001
1.442554e+003;1.067094e-001
1.444482e+003;1.059257e-001
1.446411e+003;1.051002e-001
1.448340e+003;1.045984e-001
1.450268e+003;1.041454e-001
1.452197e+003;1.035306e-001
1.454125e+003;1.025147e-001
1.456054e+003;1.009222e-001
1.457982e+003;9.941562e-002
1.459911e+003;9.784507e-002
1.461839e+003;9.581416e-002
1.463768e+003;9.379880e-002
1.465697e+003;9.225966e-002
1.467625e+003;9.056336e-002
1.469554e+003;8.863539e-002
1.471482e+003;8.661411e-002
1.473411e+003;8.456875e-002
1.475339e+003;8.284887e-002
1.477268e+003;8.142488e-002
1.479196e+003;8.005729e-002
1.481125e+003;7.855882e-002
1.483053e+003;7.686709e-002
1.484982e+003;7.467919e-002
1.486911e+003;7.234821e-002
1.488839e+003;7.057425e-002
1.490768e+003;6.932427e-002
1.492696e+003;6.833410e-002
1.494625e+003;6.748994e-002
1.496553e+003;6.665584e-002
1.498482e+003;6.607114e-002
1.500410e+003;6.582862e-002
1.502339e+003;6.559738e-002
1.504267e+003;6.503107e-002
1.506196e+003;6.433795e-002
1.508125e+003;6.427647e-002
1.510053e+003;6.456199e-002
1.511982e+003;6.447875e-002
1.513910e+003;6.413730e-002
1.515839e+003;6.364796e-002
1.517767e+003;6.333618e-002
1.519696e+003;6.305480e-002
1.521624e+003;6.284506e-002
1.523553e+003;6.287324e-002
1.525481e+003;6.284092e-002
1.527410e+003;6.285157e-002
1.529339e+003;6.290977e-002
1.531267e+003;6.285670e-002
1.533196e+003;6.295432e-002
1.535124e+003;6.295992e-002
1.537053e+003;6.283445e-002
1.538981e+003;6.285100e-002
1.540910e+003;6.312449e-002
1.542838e+003;6.340706e-002
1.544767e+003;6.352890e-002
1.546695e+003;6.357784e-002
1.548624e+003;6.360799e-002
1.550553e+003;6.362176e-002
1.552481e+003;6.387436e-002
1.554410e+003;6.407440e-002
1.556338e+003;6.406114e-002
1.558267e+003;6.403308e-002
1.560195e+003;6.418888e-002
1.562124e+003;6.453434e-002
1.564052e+003;6.484449e-002
1.565981e+003;6.506012e-002
1.567910e+003;6.534828e-002
1.569838e+003;6.563915e-002
1.571767e+003;6.600825e-002
1.573695e+003;6.640987e-002
1.575624e+003;6.644157e-002
1.577552e+003;6.668891e-002
1.579481e+003;6.733178e-002
1.581409e+003;6.795174e-002
1.583338e+003;6.851764e-002
1.585266e+003;6.901208e-002
1.587195e+003;6.917461e-002
1.589124e+003;6.928901e-002
1.591052e+003;6.971189e-002
1.592981e+003;7.026903e-002
1.594909e+003;7.079915e-002
1.596838e+003;7.132192e-002
1.598766e+003;7.165446e-002
1.600695e+003;7.174591e-002
1.602623e+003;7.215819e-002
1.604552e+003;7.245594e-002
1.606480e+003;7.261049e-002
1.608409e+003;7.294293e-002
1.610338e+003;7.314384e-002
1.612266e+003;7.324623e-002
1.614195e+003;7.314200e-002
1.616123e+003;7.286611e-002
1.618052e+003;7.293971e-002
1.619980e+003;7.327048e-002
1.621909e+003;7.340201e-002
1.623837e+003;7.347083e-002
1.625766e+003;7.348959e-002
1.627694e+003;7.339903e-002
1.629623e+003;7.357182e-002
1.631552e+003;7.356875e-002
1.633480e+003;7.325067e-002
1.635409e+003;7.308044e-002
1.637337e+003;7.321384e-002
1.639266e+003;7.309604e-002
1.641194e+003;7.275049e-002
1.643123e+003;7.233956e-002
1.645051e+003;7.218730e-002
1.646980e+003;7.206446e-002
1.648909e+003;7.173000e-002
1.650837e+003;7.108126e-002
1.652766e+003;7.020885e-002
1.654694e+003;6.989080e-002
1.656623e+003;6.991754e-002
1.658551e+003;6.954716e-002
1.660480e+003;6.902602e-002
1.662408e+003;6.852191e-002
1.664337e+003;6.812954e-002
1.666266e+003;6.771711e-002
1.668194e+003;6.703772e-002
1.670123e+003;6.633857e-002
1.672051e+003;6.600031e-002
1.673980e+003;6.553530e-002
1.675908e+003;6.474432e-002
1.677837e+003;6.429165e-002
1.679765e+003;6.388627e-002
1.681694e+003;6.352702e-002
1.683622e+003;6.283449e-002
1.685551e+003;6.240235e-002
1.687479e+003;6.252746e-002
1.689408e+003;6.234865e-002
1.691337e+003;6.179408e-002
1.693265e+003;6.120634e-002
1.695194e+003;6.055822e-002
1.697122e+003;6.042172e-002
1.699051e+003;6.054774e-002
1.700979e+003;6.039994e-002
1.702908e+003;6.046319e-002
1.704836e+003;6.080867e-002
1.706765e+003;6.104210e-002
1.708693e+003;6.093256e-002
1.710622e+003;6.083920e-002
1.712551e+003;6.064778e-002
1.714479e+003;6.006601e-002
1.716408e+003;5.942821e-002
1.718336e+003;5.945948e-002
1.720265e+003;5.950576e-002
1.722193e+003;5.930160e-002
1.724122e+003;5.929237e-002
1.726050e+003;5.907016e-002
1.727979e+003;5.895033e-002
1.729908e+003;5.892684e-002
1.731836e+003;5.871153e-002
1.733765e+003;5.852257e-002
1.735693e+003;5.886203e-002
1.737622e+003;5.912126e-002
1.739550e+003;5.890612e-002
1.741479e+003;5.879108e-002
1.743407e+003;5.868085e-002
1.745336e+003;5.830901e-002
1.747265e+003;5.796097e-002
1.749193e+003;5.772037e-002
1.751122e+003;5.738562e-002
1.753050e+003;5.726705e-002
1.754979e+003;5.720127e-002
1.756907e+003;5.701191e-002
1.758836e+003;5.681330e-002
1.760764e+003;5.661119e-002
1.762693e+003;5.661919e-002
1.764621e+003;5.660326e-002
1.766550e+003;5.651090e-002
1.768479e+003;5.646294e-002
1.770407e+003;5.638959e-002
1.772336e+003;5.620593e-002
1.774264e+003;5.600904e-002
1.776193e+003;5.593769e-002
1.778121e+003;5.591866e-002
1.780050e+003;5.600501e-002
1.781978e+003;5.616257e-002
1.783907e+003;5.611094e-002
1.785835e+003;5.617516e-002
1.787764e+003;5.615408e-002
1.789693e+003;5.587871e-002
1.791621e+003;5.580026e-002
1.793550e+003;5.576191e-002
1.795478e+003;5.540137e-002
1.797407e+003;5.522570e-002
1.799335e+003;5.550543e-002
1.801264e+003;5.566529e-002
1.803192e+003;5.565527e-002
1.805121e+003;5.556455e-002
1.807049e+003;5.533043e-002
1.808978e+003;5.534130e-002
1.810907e+003;5.547441e-002
1.812835e+003;5.555705e-002
1.814764e+003;5.547896e-002
1.816692e+003;5.554967e-002
1.818621e+003;5.586074e-002
1.820549e+003;5.594730e-002
1.822478e+003;5.562473e-002
1.824406e+003;5.534755e-002
1.826335e+003;5.557027e-002
1.828264e+003;5.581873e-002
1.830192e+003;5.562017e-002
1.832121e+003;5.536547e-002
1.834049e+003;5.539697e-002
1.835978e+003;5.548397e-002
1.837906e+003;5.536915e-002
1.839835e+003;5.544963e-002
1.841763e+003;5.550072e-002
1.843692e+003;5.521012e-002
1.845620e+003;5.482865e-002
1.847549e+003;5.466384e-002
1.849478e+003;5.479534e-002
1.851406e+003;5.485718e-002
1.853335e+003;5.497750e-002
1.855263e+003;5.526065e-002
1.857192e+003;5.536347e-002
1.859120e+003;5.513412e-002
1.861049e+003;5.496799e-002
1.862977e+003;5.482323e-002
1.864906e+003;5.477749e-002
1.866834e+003;5.478756e-002
1.868763e+003;5.477358e-002
1.870692e+003;5.500699e-002
1.872620e+003;5.523905e-002
1.874549e+003;5.520542e-002
1.876477e+003;5.512573e-002
1.878406e+003;5.494137e-002
1.880334e+003;5.492606e-002
1.882263e+003;5.486260e-002
1.884191e+003;5.454770e-002
1.886120e+003;5.445690e-002
1.888048e+003;5.468097e-002
1.889977e+003;5.481538e-002
1.891906e+003;5.483034e-002
1.893834e+003;5.490538e-002
1.895763e+003;5.482489e-002
1.897691e+003;5.490155e-002
1.899620e+003;5.502304e-002
1.901548e+003;5.476738e-002
1.903477e+003;5.470683e-002
1.905405e+003;5.476959e-002
1.907334e+003;5.464505e-002
1.909262e+003;5.452606e-002
1.911191e+003;5.451077e-002
1.913120e+003;5.450085e-002
1.915048e+003;5.454556e-002
1.916977e+003;5.459568e-002
1.918905e+003;5.459154e-002
1.920834e+003;5.467443e-002
1.922762e+003;5.469818e-002
1.924691e+003;5.469800e-002
1.926619e+003;5.443174e-002
1.928548e+003;5.416381e-002
1.930477e+003;5.431724e-002
1.932405e+003;5.438862e-002
1.934334e+003;5.456622e-002
1.936262e+003;5.468811e-002
1.938191e+003;5.468852e-002
1.940119e+003;5.479470e-002
1.942048e+003;5.496242e-002
1.943976e+003;5.523465e-002
1.945905e+003;5.522874e-002
1.947833e+003;5.537461e-002
1.949762e+003;5.557949e-002
1.951691e+003;5.537247e-002
1.953619e+003;5.522216e-002
1.955548e+003;5.515086e-002
1.957476e+003;5.503802e-002
1.959405e+003;5.516523e-002
1.961333e+003;5.533524e-002
1.963262e+003;5.530679e-002
1.965190e+003;5.511354e-002
1.967119e+003;5.520233e-002
1.969047e+003;5.537111e-002
1.970976e+003;5.542709e-002
1.972905e+003;5.550611e-002
1.974833e+003;5.546556e-002
1.976762e+003;5.555588e-002
1.978690e+003;5.569305e-002
1.980619e+003;5.573204e-002
1.982547e+003;5.584020e-002
1.984476e+003;5.597715e-002
1.986404e+003;5.595985e-002
1.988333e+003;5.572887e-002
1.990261e+003;5.565105e-002
1.992190e+003;5.566314e-002
1.994119e+003;5.575683e-002
1.996047e+003;5.590189e-002
1.997976e+003;5.587118e-002
1.999904e+003;5.576394e-002
2.001833e+003;5.594214e-002
2.003761e+003;5.612712e-002
2.005690e+003;5.612429e-002
2.007618e+003;5.592518e-002
2.009547e+003;5.586496e-002
2.011476e+003;5.594599e-002
2.013404e+003;5.584314e-002
2.015333e+003;5.592925e-002
2.017261e+003;5.598767e-002
2.019190e+003;5.592047e-002
2.021118e+003;5.606955e-002
2.023047e+003;5.630852e-002
2.024975e+003;5.642321e-002
2.026904e+003;5.627446e-002
2.028833e+003;5.621400e-002
2.030761e+003;5.632647e-002
2.032690e+003;5.631565e-002
2.034618e+003;5.607535e-002
2.036547e+003;5.614413e-002
2.038475e+003;5.650200e-002
2.040404e+003;5.650569e-002
2.042332e+003;5.636635e-002
2.044261e+003;5.645758e-002
2.046189e+003;5.651970e-002
2.048118e+003;5.649253e-002
2.050047e+003;5.611913e-002
2.051975e+003;5.592529e-002
2.053904e+003;5.643977e-002
2.055832e+003;5.660556e-002
2.057761e+003;5.629724e-002
2.059689e+003;5.631746e-002
2.061618e+003;5.670224e-002
2.063546e+003;5.679339e-002
2.065475e+003;5.647064e-002
2.067404e+003;5.635715e-002
2.069332e+003;5.624655e-002
2.071260e+003;5.636707e-002
2.073189e+003;5.664712e-002
2.075118e+003;5.652022e-002
2.077046e+003;5.628562e-002
2.078975e+003;5.618327e-002
2.080903e+003;5.631538e-002
2.082832e+003;5.642660e-002
2.084760e+003;5.637956e-002
2.086689e+003;5.622815e-002
2.088617e+003;5.616388e-002
2.090546e+003;5.607935e-002
2.092475e+003;5.591591e-002
2.094403e+003;5.598752e-002
2.096332e+003;5.609104e-002
2.098260e+003;5.593129e-002
2.100189e+003;5.588229e-002
2.102117e+003;5.608580e-002
2.104046e+003;5.615887e-002
2.105974e+003;5.629423e-002
2.107903e+003;5.647094e-002
2.109832e+003;5.642373e-002
2.111760e+003;5.610544e-002
2.113688e+003;5.590336e-002
2.115617e+003;5.595036e-002
2.117546e+003;5.572556e-002
2.119474e+003;5.569135e-002
2.121403e+003;5.611325e-002
2.123331e+003;5.622739e-002
2.125260e+003;5.616758e-002
2.127188e+003;5.622369e-002
2.129117e+003;5.616901e-002
2.131045e+003;5.617984e-002
2.132974e+003;5.618349e-002
2.134903e+003;5.583738e-002
2.136831e+003;5.565700e-002
2.138760e+003;5.584284e-002
2.140688e+003;5.590389e-002
2.142617e+003;5.580935e-002
2.144545e+003;5.569426e-002
2.146474e+003;5.563361e-002
2.148402e+003;5.569278e-002
2.150331e+003;5.556571e-002
2.152260e+003;5.551048e-002
2.154188e+003;5.573547e-002
2.156117e+003;5.576018e-002
2.158045e+003;5.541429e-002
2.159974e+003;5.522705e-002
2.161902e+003;5.541877e-002
2.163831e+003;5.575833e-002
2.165759e+003;5.576251e-002
2.167688e+003;5.526615e-002
2.169616e+003;5.494829e-002
2.171545e+003;5.505310e-002
2.173474e+003;5.493117e-002
2.175402e+003;5.476366e-002
2.177331e+003;5.465760e-002
2.179259e+003;5.465482e-002
2.181188e+003;5.503933e-002
2.183116e+003;5.510440e-002
2.185045e+003;5.485767e-002
2.186973e+003;5.453564e-002
2.188902e+003;5.427646e-002
2.190831e+003;5.423561e-002
2.192759e+003;5.425844e-002
2.194688e+003;5.419196e-002
2.196616e+003;5.422202e-002
2.198545e+003;5.428164e-002
2.200473e+003;5.431420e-002
2.202402e+003;5.433707e-002
2.204330e+003;5.448601e-002
2.206259e+003;5.451205e-002
2.208188e+003;5.424286e-002
2.210116e+003;5.427740e-002
2.212044e+003;5.448688e-002
2.213973e+003;5.424804e-002
2.215902e+003;5.415041e-002
2.217830e+003;5.429651e-002
2.219759e+003;5.429584e-002
2.221687e+003;5.407745e-002
2.223616e+003;5.399227e-002
2.225544e+003;5.400247e-002
2.227473e+003;5.399155e-002
2.229401e+003;5.395242e-002
2.231330e+003;5.397744e-002
2.233259e+003;5.393674e-002
2.235187e+003;5.380321e-002
2.237116e+003;5.365141e-002
2.239044e+003;5.371710e-002
2.240973e+003;5.363222e-002
2.242901e+003;5.353731e-002
2.244830e+003;5.378037e-002
2.246758e+003;5.395066e-002
2.248687e+003;5.387304e-002
2.250615e+003;5.383452e-002
2.252544e+003;5.358319e-002
2.254473e+003;5.325513e-002
2.256401e+003;5.335481e-002
2.258330e+003;5.368602e-002
2.260258e+003;5.387338e-002
2.262187e+003;5.362686e-002
2.264115e+003;5.344380e-002
2.266044e+003;5.356444e-002
2.267972e+003;5.363586e-002
2.269901e+003;5.364594e-002
2.271830e+003;5.369794e-002
2.273758e+003;5.344927e-002
2.275687e+003;5.299406e-002
2.277615e+003;5.292736e-002
2.279544e+003;5.321408e-002
2.281472e+003;5.334309e-002
2.283401e+003;5.330667e-002
2.285329e+003;5.325288e-002
2.287258e+003;5.310978e-002
2.289187e+003;5.301566e-002
2.291115e+003;5.291643e-002
2.293043e+003;5.272017e-002
2.294972e+003;5.262889e-002
2.296901e+003;5.270277e-002
2.298829e+003;5.260671e-002
2.300758e+003;5.243220e-002
2.302686e+003;5.262141e-002
2.304615e+003;5.253203e-002
2.306543e+003;5.212985e-002
2.308472e+003;5.229423e-002
2.310400e+003;5.246200e-002
2.312329e+003;5.249479e-002
2.314258e+003;5.261793e-002
2.316186e+003;5.258498e-002
2.318115e+003;5.246233e-002
2.320043e+003;5.226127e-002
2.321972e+003;5.221915e-002
2.323900e+003;5.235534e-002
2.325829e+003;5.208267e-002
2.327757e+003;5.201581e-002
2.329686e+003;5.227865e-002
2.331615e+003;5.211876e-002
2.333543e+003;5.195120e-002
2.335472e+003;5.199631e-002
2.337400e+003;5.188294e-002
2.339329e+003;5.184075e-002
2.341257e+003;5.201977e-002
2.343186e+003;5.203665e-002
2.345114e+003;5.213411e-002
2.347043e+003;5.246663e-002
2.348971e+003;5.250051e-002
2.350900e+003;5.260477e-002
2.352829e+003;5.275249e-002
2.354757e+003;5.272578e-002
2.356686e+003;5.271639e-002
2.358614e+003;5.236099e-002
2.360543e+003;5.217103e-002
2.362471e+003;5.244786e-002
2.364400e+003;5.274792e-002
2.366328e+003;5.291927e-002
2.368257e+003;5.286033e-002
2.370186e+003;5.270524e-002
2.372114e+003;5.253319e-002
2.374042e+003;5.250103e-002
2.375971e+003;5.286860e-002
2.377900e+003;5.318385e-002
2.379828e+003;5.319116e-002
2.381757e+003;5.330297e-002
2.383685e+003;5.329543e-002
2.385614e+003;5.311989e-002
2.387542e+003;5.335575e-002
2.389471e+003;5.351276e-002
2.391399e+003;5.327899e-002
2.393328e+003;5.319063e-002
2.395257e+003;5.352775e-002
2.397185e+003;5.355837e-002
2.399114e+003;5.314989e-002
2.401042e+003;5.321475e-002
2.402971e+003;5.377733e-002
2.404899e+003;5.401196e-002
2.406828e+003;5.380549e-002
2.408756e+003;5.362907e-002
2.410685e+003;5.358536e-002
2.412614e+003;5.387120e-002
2.414542e+003;5.397501e-002
2.416471e+003;5.403932e-002
2.418399e+003;5.428923e-002
2.420328e+003;5.447396e-002
2.422256e+003;5.433552e-002
2.424185e+003;5.422894e-002
2.426113e+003;5.455630e-002
2.428042e+003;5.467966e-002
2.429970e+003;5.447839e-002
2.431899e+003;5.454766e-002
2.433828e+003;5.461326e-002
2.435756e+003;5.468695e-002
2.437685e+003;5.484327e-002
2.439613e+003;5.501075e-002
2.441542e+003;5.508917e-002
2.443470e+003;5.528308e-002
2.445399e+003;5.537250e-002
2.447327e+003;5.504783e-002
2.449256e+003;5.487087e-002
2.451185e+003;5.513247e-002
2.453113e+003;5.512265e-002
2.455042e+003;5.542554e-002
2.456970e+003;5.579827e-002
2.458899e+003;5.568947e-002
2.460827e+003;5.528428e-002
2.462756e+003;5.523220e-002
2.464684e+003;5.531146e-002
2.466613e+003;5.534507e-002
2.468542e+003;5.530540e-002
2.470470e+003;5.547956e-002
2.472398e+003;5.572699e-002
2.474327e+003;5.596491e-002
2.476256e+003;5.610555e-002
2.478184e+003;5.630373e-002
2.480113e+003;5.669269e-002
2.482041e+003;5.650951e-002
2.483970e+003;5.602009e-002
2.485898e+003;5.585400e-002
2.487827e+003;5.599849e-002
2.489755e+003;5.624168e-002
2.491684e+003;5.641917e-002
2.493613e+003;5.670711e-002
2.495541e+003;5.698932e-002
2.497470e+003;5.675457e-002
2.499398e+003;5.650611e-002
2.501327e+003;5.643970e-002
2.503255e+003;5.641174e-002
2.505184e+003;5.668106e-002
2.507112e+003;5.666611e-002
2.509041e+003;5.664807e-002
2.510969e+003;5.678316e-002
2.512898e+003;5.668091e-002
2.514827e+003;5.680948e-002
2.516755e+003;5.707886e-002
2.518684e+003;5.701183e-002
2.520612e+003;5.688109e-002
2.522541e+003;5.726709e-002
2.524469e+003;5.735227e-002
2.526398e+003;5.714575e-002
2.528326e+003;5.720967e-002
2.530255e+003;5.720445e-002
2.532184e+003;5.721617e-002
2.534112e+003;5.719965e-002
2.536041e+003;5.698093e-002
2.537969e+003;5.694152e-002
2.539898e+003;5.714481e-002
2.541826e+003;5.748410e-002
2.543755e+003;5.735476e-002
2.545683e+003;5.718359e-002
2.547612e+003;5.750237e-002
2.549541e+003;5.759959e-002
2.551469e+003;5.755499e-002
2.553397e+003;5.754462e-002
2.555326e+003;5.757591e-002
2.557255e+003;5.752408e-002
2.559183e+003;5.740033e-002
2.561112e+003;5.759486e-002
2.563040e+003;5.760163e-002
2.564969e+003;5.731763e-002
2.566897e+003;5.756876e-002
2.568826e+003;5.769199e-002
2.570754e+003;5.773146e-002
2.572683e+003;5.801164e-002
2.574612e+003;5.790380e-002
2.576540e+003;5.776015e-002
2.578469e+003;5.769479e-002
2.580397e+003;5.766717e-002
2.582326e+003;5.773906e-002
2.584254e+003;5.796915e-002
2.586183e+003;5.822145e-002
2.588111e+003;5.831439e-002
2.590040e+003;5.867091e-002
2.591969e+003;5.907475e-002
2.593897e+003;5.914438e-002
2.595826e+003;5.882014e-002
2.597754e+003;5.857330e-002
2.599683e+003;5.883262e-002
2.601611e+003;5.909776e-002
2.603540e+003;5.900889e-002
2.605468e+003;5.877021e-002
2.607397e+003;5.879297e-002
2.609325e+003;5.897439e-002
2.611254e+003;5.915999e-002
2.613183e+003;5.907027e-002
2.615111e+003;5.899109e-002
2.617040e+003;5.933472e-002
2.618968e+003;5.978956e-002
2.620897e+003;5.978785e-002
2.622825e+003;5.936268e-002
2.624754e+003;5.943410e-002
2.626682e+003;6.000392e-002
2.628611e+003;6.028309e-002
2.630540e+003;6.017967e-002
2.632468e+003;6.022310e-002
2.634396e+003;6.037527e-002
2.636325e+003;6.050699e-002
2.638254e+003;6.077582e-002
2.640182e+003;6.071568e-002
2.642111e+003;6.032036e-002
2.644039e+003;6.024282e-002
2.645968e+003;6.053982e-002
2.647896e+003;6.071122e-002
2.649825e+003;6.066371e-002
2.651753e+003;6.063818e-002
2.653682e+003;6.052405e-002
2.655611e+003;6.067887e-002
2.657539e+003;6.118567e-002
2.659468e+003;6.126517e-002
2.661396e+003;6.149393e-002
2.663325e+003;6.172571e-002
2.665253e+003;6.158601e-002
2.667182e+003;6.155967e-002
2.669110e+003;6.184817e-002
2.671039e+003;6.208645e-002
2.672968e+003;6.232524e-002
2.674896e+003;6.247098e-002
2.676825e+003;6.232340e-002
2.678753e+003;6.209700e-002
2.680682e+003;6.236238e-002
2.682610e+003;6.265382e-002
2.684539e+003;6.283323e-002
2.686467e+003;6.271546e-002
2.688396e+003;6.274831e-002
2.690324e+003;6.307810e-002
2.692253e+003;6.322164e-002
2.694182e+003;6.335396e-002
2.696110e+003;6.350496e-002
2.698039e+003;6.338755e-002
2.699967e+003;6.329178e-002
2.701896e+003;6.355724e-002
2.703824e+003;6.379964e-002
2.705753e+003;6.404766e-002
2.707681e+003;6.412524e-002
2.709610e+003;6.413634e-002
2.711539e+003;6.425338e-002
2.713467e+003;6.442664e-002
2.715396e+003;6.453519e-002
2.717324e+003;6.454380e-002
2.719253e+003;6.464795e-002
2.721181e+003;6.482434e-002
2.723110e+003;6.510674e-002
2.725038e+003;6.527995e-002
2.726967e+003;6.532632e-002
2.728896e+003;6.547412e-002
2.730824e+003;6.531342e-002
2.732752e+003;6.544229e-002
2.734681e+003;6.573393e-002
2.736610e+003;6.562748e-002
2.738538e+003;6.536025e-002
2.740467e+003;6.531134e-002
2.742395e+003;6.586968e-002
2.744324e+003;6.580672e-002
2.746252e+003;6.541984e-002
2.748181e+003;6.553908e-002
2.750109e+003;6.599830e-002
2.752038e+003;6.614386e-002
2.753967e+003;6.595726e-002
2.755895e+003;6.628372e-002
2.757824e+003;6.656291e-002
2.759752e+003;6.672256e-002
2.761681e+003;6.699394e-002
2.763609e+003;6.718195e-002
2.765538e+003;6.741803e-002
2.767466e+003;6.754781e-002
2.769395e+003;6.759910e-002
2.771323e+003;6.760549e-002
2.773252e+003;6.786275e-002
2.775181e+003;6.824960e-002
2.777109e+003;6.846814e-002
2.779038e+003;6.822494e-002
2.780966e+003;6.819063e-002
2.782895e+003;6.868780e-002
2.784823e+003;6.905336e-002
2.786752e+003;6.907057e-002
2.788680e+003;6.936777e-002
2.790609e+003;6.972449e-002
2.792538e+003;7.021216e-002
2.794466e+003;7.062618e-002
2.796395e+003;7.075165e-002
2.798323e+003;7.073695e-002
2.800252e+003;7.095003e-002
2.802180e+003;7.150951e-002
2.804109e+003;7.190721e-002
2.806037e+003;7.240282e-002
2.807966e+003;7.266278e-002
2.809895e+003;7.279817e-002
2.811823e+003;7.322031e-002
2.813751e+003;7.387694e-002
2.815680e+003;7.433984e-002
2.817609e+003;7.483217e-002
2.819537e+003;7.538233e-002
2.821466e+003;7.578253e-002
2.823394e+003;7.625936e-002
2.825323e+003;7.666547e-002
2.827251e+003;7.715946e-002
2.829180e+003;7.771292e-002
2.831108e+003;7.812230e-002
2.833037e+003;7.910911e-002
2.834966e+003;8.059867e-002
2.836894e+003;8.192719e-002
2.838823e+003;8.276523e-002
2.840751e+003;8.381635e-002
2.842680e+003;8.516960e-002
2.844608e+003;8.613055e-002
2.846537e+003;8.757571e-002
2.848465e+003;8.953184e-002
2.850394e+003;9.149678e-002
2.852323e+003;9.325189e-002
2.854251e+003;9.429341e-002
2.856180e+003;9.516471e-002
2.858108e+003;9.603475e-002
2.860037e+003;9.703992e-002
2.861965e+003;9.830317e-002
2.863894e+003;9.911978e-002
2.865822e+003;9.961207e-002
2.867751e+003;1.000740e-001
2.869679e+003;1.007595e-001
2.871608e+003;1.016985e-001
2.873536e+003;1.028751e-001
2.875465e+003;1.037601e-001
2.877394e+003;1.041391e-001
2.879322e+003;1.047054e-001
2.881251e+003;1.052716e-001
2.883179e+003;1.054872e-001
2.885108e+003;1.058908e-001
2.887036e+003;1.064518e-001
2.888965e+003;1.068979e-001
2.890893e+003;1.070547e-001
2.892822e+003;1.075396e-001
2.894750e+003;1.086139e-001
2.896679e+003;1.089104e-001
2.898608e+003;1.085750e-001
2.900536e+003;1.081960e-001
2.902465e+003;1.075566e-001
2.904393e+003;1.071284e-001
2.906322e+003;1.063927e-001
2.908250e+003;1.051634e-001
2.910179e+003;1.038654e-001
2.912107e+003;1.029165e-001
2.914036e+003;1.023870e-001
2.915965e+003;1.017640e-001
2.917893e+003;1.008515e-001
2.919822e+003;9.967038e-002
2.921750e+003;9.886052e-002
2.923679e+003;9.809854e-002
2.925607e+003;9.684590e-002
2.927536e+003;9.551796e-002
2.929464e+003;9.447652e-002
2.931393e+003;9.326713e-002
2.933322e+003;9.142258e-002
2.935250e+003;8.973993e-002
2.937178e+003;8.875841e-002
2.939107e+003;8.795336e-002
2.941036e+003;8.695667e-002
2.942964e+003;8.599014e-002
2.944893e+003;8.512525e-002
2.946821e+003;8.430691e-002
2.948750e+003;8.342891e-002
2.950678e+003;8.192403e-002
2.952607e+003;8.055930e-002
2.954535e+003;7.946800e-002
2.956464e+003;7.828928e-002
2.958393e+003;7.730872e-002
2.960321e+003;7.656938e-002
2.962250e+003;7.584234e-002
2.964178e+003;7.503653e-002
2.966107e+003;7.386150e-002
2.968035e+003;7.284476e-002
2.969964e+003;7.252963e-002
2.971892e+003;7.204690e-002
2.973821e+003;7.090946e-002
2.975750e+003;7.008828e-002
2.977678e+003;6.959044e-002
2.979607e+003;6.907873e-002
2.981535e+003;6.853176e-002
2.983464e+003;6.788061e-002
2.985392e+003;6.733844e-002
2.987321e+003;6.690732e-002
2.989249e+003;6.650046e-002
2.991178e+003;6.616531e-002
2.993106e+003;6.591376e-002
2.995035e+003;6.562559e-002
2.996964e+003;6.547504e-002
2.998892e+003;6.560832e-002
3.000821e+003;6.626967e-002
3.002749e+003;6.685305e-002
3.004678e+003;6.654599e-002
3.006606e+003;6.632710e-002
3.008535e+003;6.656731e-002
3.010463e+003;6.635933e-002
3.012392e+003;6.620954e-002
3.014321e+003;6.637574e-002
3.016249e+003;6.640875e-002
3.018177e+003;6.673878e-002
3.020106e+003;6.697956e-002
3.022035e+003;6.741973e-002
3.023963e+003;6.762616e-002
3.025892e+003;6.735511e-002
3.027820e+003;6.756468e-002
3.029749e+003;6.785907e-002
3.031677e+003;6.773911e-002
3.033606e+003;6.838932e-002
3.035534e+003;6.900384e-002
3.037463e+003;6.885348e-002
3.039392e+003;6.915549e-002
3.041320e+003;6.966544e-002
3.043249e+003;6.991255e-002
3.045177e+003;6.987060e-002
3.047106e+003;7.005168e-002
3.049034e+003;7.071850e-002
3.050963e+003;7.110900e-002
3.052891e+003;7.135051e-002
3.054820e+003;7.174771e-002
3.056749e+003;7.173602e-002
3.058677e+003;7.207561e-002
3.060606e+003;7.244980e-002
3.062534e+003;7.263035e-002
3.064463e+003;7.276487e-002
3.066391e+003;7.288645e-002
3.068320e+003;7.332759e-002
3.070248e+003;7.371490e-002
3.072177e+003;7.405577e-002
3.074105e+003;7.484910e-002
3.076034e+003;7.513373e-002
3.077963e+003;7.506303e-002
3.079891e+003;7.532806e-002
3.081820e+003;7.619222e-002
3.083748e+003;7.695252e-002
3.085677e+003;7.715107e-002
3.087605e+003;7.740585e-002
3.089534e+003;7.770896e-002
3.091462e+003;7.780673e-002
3.093391e+003;7.846529e-002
3.095320e+003;7.894865e-002
3.097248e+003;7.909981e-002
3.099177e+003;7.965755e-002
3.101105e+003;8.025527e-002
3.103034e+003;8.067926e-002
3.104962e+003;8.099744e-002
3.106891e+003;8.151909e-002
3.108819e+003;8.200754e-002
3.110748e+003;8.242488e-002
3.112677e+003;8.305715e-002
3.114605e+003;8.373900e-002
3.116533e+003;8.409421e-002
3.118462e+003;8.406916e-002
3.120391e+003;8.423985e-002
3.122319e+003;8.536847e-002
3.124248e+003;8.659506e-002
3.126176e+003;8.694526e-002
3.128105e+003;8.733163e-002
3.130033e+003;8.758253e-002
3.131962e+003;8.794309e-002
3.133890e+003;8.845199e-002
3.135819e+003;8.881202e-002
3.137748e+003;8.929341e-002
3.139676e+003;9.002589e-002
3.141605e+003;9.074932e-002
3.143533e+003;9.141354e-002
3.145462e+003;9.227446e-002
3.147390e+003;9.300537e-002
3.149319e+003;9.305312e-002
3.151247e+003;9.319222e-002
3.153176e+003;9.450309e-002
3.155104e+003;9.573729e-002
3.157033e+003;9.582862e-002
3.158962e+003;9.567422e-002
3.160890e+003;9.621132e-002
3.162819e+003;9.718101e-002
3.164747e+003;9.814037e-002
3.166676e+003;9.864115e-002
3.168604e+003;9.899866e-002
3.170533e+003;9.935151e-002
3.172461e+003;9.999470e-002
3.174390e+003;1.007303e-001
3.176319e+003;1.011092e-001
3.178247e+003;1.017231e-001
3.180176e+003;1.025522e-001
3.182104e+003;1.034988e-001
3.184033e+003;1.045741e-001
3.185961e+003;1.059237e-001
3.187890e+003;1.066548e-001
3.189818e+003;1.068277e-001
3.191747e+003;1.075013e-001
3.193676e+003;1.082618e-001
3.195604e+003;1.089045e-001
3.197532e+003;1.098017e-001
3.199461e+003;1.107272e-001
3.201390e+003;1.115360e-001
3.203318e+003;1.126490e-001
3.205247e+003;1.136881e-001
3.207175e+003;1.149197e-001
3.209104e+003;1.155464e-001
3.211032e+003;1.160494e-001
3.212961e+003;1.171460e-001
3.214889e+003;1.182014e-001
3.216818e+003;1.192111e-001
3.218747e+003;1.198663e-001
3.220675e+003;1.205257e-001
3.222604e+003;1.220465e-001
3.224532e+003;1.233511e-001
3.226461e+003;1.243619e-001
3.228389e+003;1.253021e-001
3.230318e+003;1.260644e-001
3.232246e+003;1.275325e-001
3.234175e+003;1.286505e-001
3.236104e+003;1.291586e-001
3.238032e+003;1.300748e-001
3.239961e+003;1.311414e-001
3.241889e+003;1.321267e-001
3.243818e+003;1.326749e-001
3.245746e+003;1.335320e-001
3.247675e+003;1.349268e-001
3.249603e+003;1.360406e-001
3.251532e+003;1.370040e-001
3.253460e+003;1.381801e-001
3.255389e+003;1.395240e-001
3.257318e+003;1.409218e-001
3.259246e+003;1.419792e-001
3.261175e+003;1.435090e-001
3.263103e+003;1.438968e-001
3.265032e+003;1.439398e-001
3.266960e+003;1.456338e-001
3.268889e+003;1.469350e-001
3.270817e+003;1.474356e-001
3.272746e+003;1.484949e-001
3.274675e+003;1.493137e-001
3.276603e+003;1.497025e-001
3.278531e+003;1.501901e-001
3.280460e+003;1.502774e-001
3.282389e+003;1.505558e-001
3.284317e+003;1.515763e-001
3.286246e+003;1.524354e-001
3.288174e+003;1.530789e-001
3.290103e+003;1.534700e-001
3.292031e+003;1.529966e-001
3.293960e+003;1.532569e-001
3.295888e+003;1.540013e-001
3.297817e+003;1.545340e-001
3.299746e+003;1.545957e-001
3.301674e+003;1.546907e-001
3.303603e+003;1.545387e-001
3.305531e+003;1.543739e-001
3.307460e+003;1.544291e-001
3.309388e+003;1.547885e-001
3.311317e+003;1.552213e-001
3.313245e+003;1.554100e-001
3.315174e+003;1.557419e-001
3.317103e+003;1.564556e-001
3.319031e+003;1.570298e-001
3.320960e+003;1.570562e-001
3.322888e+003;1.573153e-001
3.324817e+003;1.577166e-001
3.326745e+003;1.578470e-001
3.328674e+003;1.587095e-001
3.330602e+003;1.595404e-001
3.332531e+003;1.596561e-001
3.334459e+003;1.598937e-001
3.336388e+003;1.601522e-001
3.338317e+003;1.603256e-001
3.340245e+003;1.600340e-001
3.342174e+003;1.595659e-001
3.344102e+003;1.592281e-001
3.346031e+003;1.587496e-001
3.347959e+003;1.579470e-001
3.349888e+003;1.570489e-001
3.351816e+003;1.561794e-001
3.353745e+003;1.553551e-001
3.355674e+003;1.550321e-001
3.357602e+003;1.544679e-001
3.359531e+003;1.530530e-001
3.361459e+003;1.517545e-001
3.363388e+003;1.513349e-001
3.365316e+003;1.510901e-001
3.367245e+003;1.504450e-001
3.369173e+003;1.488515e-001
3.371102e+003;1.473223e-001
3.373031e+003;1.468538e-001
3.374959e+003;1.464378e-001
3.376887e+003;1.459893e-001
3.378816e+003;1.455631e-001
3.380745e+003;1.446995e-001
3.382673e+003;1.434322e-001
3.384602e+003;1.423995e-001
3.386530e+003;1.414679e-001
3.388459e+003;1.407254e-001
3.390387e+003;1.403061e-001
3.392316e+003;1.402628e-001
3.394244e+003;1.391671e-001
3.396173e+003;1.380825e-001
3.398102e+003;1.381986e-001
3.400030e+003;1.379179e-001
3.401959e+003;1.365588e-001
3.403887e+003;1.353084e-001
3.405816e+003;1.346035e-001
3.407744e+003;1.346390e-001
3.409673e+003;1.339293e-001
3.411601e+003;1.329858e-001
3.413530e+003;1.318422e-001
3.415458e+003;1.295933e-001
3.417387e+003;1.278879e-001
3.419316e+003;1.276881e-001
3.421244e+003;1.270378e-001
3.423173e+003;1.254917e-001
3.425101e+003;1.247751e-001
3.427030e+003;1.242598e-001
3.428958e+003;1.229745e-001
3.430887e+003;1.220147e-001
3.432815e+003;1.209880e-001
3.434744e+003;1.198552e-001
3.436673e+003;1.188816e-001
3.438601e+003;1.177719e-001
3.440530e+003;1.168727e-001
3.442458e+003;1.159506e-001
3.444387e+003;1.148398e-001
3.446315e+003;1.140059e-001
3.448244e+003;1.129095e-001
3.450172e+003;1.116775e-001
3.452101e+003;1.103817e-001
3.454030e+003;1.093495e-001
3.455958e+003;1.088519e-001
3.457886e+003;1.085305e-001
3.459815e+003;1.077715e-001
3.461744e+003;1.063254e-001
3.463672e+003;1.052787e-001
3.465601e+003;1.044886e-001
3.467529e+003;1.032480e-001
3.469458e+003;1.020039e-001
3.471386e+003;1.009031e-001
3.473315e+003;9.973116e-002
3.475243e+003;9.856307e-002
3.477172e+003;9.701013e-002
3.479101e+003;9.584023e-002
3.481029e+003;9.559146e-002
3.482958e+003;9.516137e-002
3.484886e+003;9.385740e-002
3.486815e+003;9.230576e-002
3.488743e+003;9.097670e-002
3.490672e+003;8.971475e-002
3.492600e+003;8.911490e-002
3.494529e+003;8.928768e-002
3.496458e+003;8.836276e-002
3.498386e+003;8.646473e-002
3.500315e+003;8.518584e-002
3.502243e+003;8.436630e-002
3.504172e+003;8.336712e-002
3.506100e+003;8.222242e-002
3.508029e+003;8.122569e-002
3.509957e+003;8.103566e-002
3.511886e+003;8.041477e-002
3.513814e+003;7.911575e-002
3.515743e+003;7.781010e-002
3.517672e+003;7.665092e-002
3.519600e+003;7.576079e-002
3.521529e+003;7.494024e-002
3.523457e+003;7.351223e-002
3.525386e+003;7.245610e-002
3.527314e+003;7.245645e-002
3.529243e+003;7.234555e-002
3.531171e+003;7.160530e-002
3.533100e+003;7.068439e-002
3.535029e+003;6.960122e-002
3.536957e+003;6.843773e-002
3.538885e+003;6.730404e-002
3.540814e+003;6.685537e-002
3.542743e+003;6.605185e-002
3.544671e+003;6.493890e-002
3.546600e+003;6.441350e-002
3.548528e+003;6.335641e-002
3.550457e+003;6.249895e-002
3.552385e+003;6.195558e-002
3.554314e+003;6.131268e-002
3.556242e+003;6.074076e-002
3.558171e+003;5.997143e-002
3.560100e+003;5.898938e-002
3.562028e+003;5.821697e-002
3.563957e+003;5.780803e-002
3.565885e+003;5.684596e-002
3.567814e+003;5.592752e-002
3.569742e+003;5.527352e-002
3.571671e+003;5.473610e-002
3.573599e+003;5.398645e-002
3.575528e+003;5.317917e-002
3.577457e+003;5.227510e-002
3.579385e+003;5.159739e-002
3.581314e+003;5.148151e-002
3.583242e+003;5.100424e-002
3.585171e+003;4.998548e-002
3.587099e+003;4.907147e-002
3.589028e+003;4.889492e-002
3.590956e+003;4.872875e-002
3.592885e+003;4.822802e-002
3.594813e+003;4.792174e-002
3.596742e+003;4.779430e-002
3.598671e+003;4.721662e-002
3.600599e+003;4.606063e-002
3.602528e+003;4.521517e-002
3.604456e+003;4.484105e-002
3.606385e+003;4.457860e-002
3.608313e+003;4.366698e-002
3.610242e+003;4.275209e-002
3.612170e+003;4.331217e-002
3.614099e+003;4.369479e-002
3.616028e+003;4.296391e-002
3.617956e+003;4.227285e-002
3.619885e+003;4.200903e-002
3.621813e+003;4.186258e-002
3.623742e+003;4.125138e-002
3.625670e+003;4.050051e-002
3.627599e+003;4.056478e-002
3.629527e+003;4.037111e-002
3.631456e+003;3.951070e-002
3.633385e+003;3.946331e-002
3.635313e+003;3.969574e-002
3.637241e+003;3.941995e-002
3.639170e+003;3.912884e-002
3.641099e+003;3.865518e-002
3.643027e+003;3.779743e-002
3.644956e+003;3.762616e-002
3.646884e+003;3.793148e-002
3.648813e+003;3.739891e-002
3.650741e+003;3.715109e-002
3.652670e+003;3.771943e-002
3.654598e+003;3.773212e-002
3.656527e+003;3.710757e-002
3.658456e+003;3.685595e-002
3.660384e+003;3.666487e-002
3.662313e+003;3.627495e-002
3.664241e+003;3.614983e-002
3.666170e+003;3.644803e-002
3.668098e+003;3.637034e-002
3.670027e+003;3.546115e-002
3.671955e+003;3.526762e-002
3.673884e+003;3.521494e-002
3.675813e+003;3.451238e-002
3.677741e+003;3.430461e-002
3.679669e+003;3.398179e-002
3.681598e+003;3.384358e-002
3.683527e+003;3.409607e-002
3.685455e+003;3.444010e-002
3.687384e+003;3.460800e-002
3.689312e+003;3.463932e-002
3.691241e+003;3.430335e-002
3.693169e+003;3.347372e-002
3.695098e+003;3.334229e-002
3.697026e+003;3.322549e-002
3.698955e+003;3.331528e-002
3.700884e+003;3.416303e-002
3.702812e+003;3.475579e-002
3.704741e+003;3.444340e-002
3.706669e+003;3.413389e-002
3.708598e+003;3.426470e-002
3.710526e+003;3.400659e-002
3.712455e+003;3.365783e-002
3.714383e+003;3.330605e-002
3.716312e+003;3.284565e-002
3.718240e+003;3.289286e-002
3.720169e+003;3.312010e-002
3.722098e+003;3.314656e-002
3.724026e+003;3.293354e-002
3.725955e+003;3.270337e-002
3.727883e+003;3.230893e-002
3.729812e+003;3.234127e-002
3.731740e+003;3.274725e-002
3.733669e+003;3.314806e-002
3.735597e+003;3.297368e-002
3.737526e+003;3.305473e-002
3.739455e+003;3.312453e-002
3.741383e+003;3.297393e-002
3.743312e+003;3.257206e-002
3.745240e+003;3.208441e-002
3.747169e+003;3.206564e-002
3.749097e+003;3.178160e-002
3.751026e+003;3.164519e-002
3.752954e+003;3.181433e-002
3.754883e+003;3.248861e-002
3.756812e+003;3.258274e-002
3.758740e+003;3.229804e-002
3.760668e+003;3.222795e-002
3.762597e+003;3.263839e-002
3.764526e+003;3.258521e-002
3.766454e+003;3.231589e-002
3.768383e+003;3.261432e-002
3.770311e+003;3.267422e-002
3.772240e+003;3.198050e-002
3.774168e+003;3.172307e-002
3.776097e+003;3.246226e-002
3.778025e+003;3.288100e-002
3.779954e+003;3.311992e-002
3.781883e+003;3.286134e-002
3.783811e+003;3.228780e-002
3.785740e+003;3.221771e-002
3.787668e+003;3.208191e-002
3.789597e+003;3.225803e-002
3.791525e+003;3.238857e-002
3.793454e+003;3.197672e-002
3.795382e+003;3.193699e-002
3.797311e+003;3.245205e-002
3.799240e+003;3.245379e-002
3.801168e+003;3.207798e-002
3.803097e+003;3.297511e-002
3.805025e+003;3.316791e-002
3.806954e+003;3.177907e-002
3.808882e+003;3.189277e-002
3.810811e+003;3.263825e-002
3.812739e+003;3.289358e-002
3.814668e+003;3.273856e-002
3.816596e+003;3.241948e-002
3.818525e+003;3.226870e-002
3.820454e+003;3.264204e-002
3.822382e+003;3.299985e-002
3.824311e+003;3.291874e-002
3.826239e+003;3.269801e-002
3.828168e+003;3.250086e-002
3.830096e+003;3.229822e-002
3.832025e+003;3.211473e-002
3.833953e+003;3.232149e-002
3.835882e+003;3.272963e-002
3.837811e+003;3.307994e-002
3.839739e+003;3.364021e-002
3.841667e+003;3.363613e-002
3.843596e+003;3.346109e-002
3.845525e+003;3.360710e-002
3.847453e+003;3.322960e-002
3.849382e+003;3.270434e-002
3.851310e+003;3.308083e-002
3.853239e+003;3.310329e-002
3.855167e+003;3.297558e-002
3.857096e+003;3.264954e-002
3.859024e+003;3.204035e-002
3.860953e+003;3.282496e-002
3.862882e+003;3.316465e-002
3.864810e+003;3.301715e-002
3.866739e+003;3.373105e-002
3.868667e+003;3.353858e-002
3.870596e+003;3.291048e-002
3.872524e+003;3.298834e-002
3.874453e+003;3.314431e-002
3.876381e+003;3.308123e-002
3.878310e+003;3.290749e-002
3.880239e+003;3.311874e-002
3.882167e+003;3.327876e-002
3.884096e+003;3.295577e-002
3.886024e+003;3.303521e-002
3.887953e+003;3.326663e-002
3.889881e+003;3.264643e-002
3.891810e+003;3.258428e-002
3.893738e+003;3.372375e-002
3.895667e+003;3.415557e-002
3.897595e+003;3.361017e-002
3.899524e+003;3.305205e-002
3.901453e+003;3.287614e-002
3.903381e+003;3.244323e-002
3.905310e+003;3.248729e-002
3.907238e+003;3.336952e-002
3.909167e+003;3.376199e-002
3.911095e+003;3.403974e-002
3.913024e+003;3.428155e-002
3.914952e+003;3.352995e-002
3.916881e+003;3.312482e-002
3.918810e+003;3.349556e-002
3.920738e+003;3.340612e-002
3.922667e+003;3.389950e-002
3.924595e+003;3.406138e-002
3.926524e+003;3.375905e-002
3.928452e+003;3.349255e-002
3.930381e+003;3.407411e-002
3.932309e+003;3.427381e-002
3.934238e+003;3.375569e-002
3.936167e+003;3.344467e-002
3.938095e+003;3.330887e-002
3.940023e+003;3.410951e-002
3.941952e+003;3.482614e-002
3.943881e+003;3.485048e-002
3.945809e+003;3.420949e-002
3.947738e+003;3.387009e-002
3.949666e+003;3.409364e-002
3.951595e+003;3.426255e-002
3.953523e+003;3.488570e-002
3.955452e+003;3.548621e-002
3.957380e+003;3.532289e-002
3.959309e+003;3.532308e-002
3.961238e+003;3.465141e-002
3.963166e+003;3.390835e-002
3.965095e+003;3.465604e-002
3.967023e+003;3.503003e-002
3.968952e+003;3.487705e-002
3.970880e+003;3.519712e-002
3.972809e+003;3.547373e-002
3.974737e+003;3.459242e-002
3.976666e+003;3.432153e-002
3.978594e+003;3.476224e-002
3.980523e+003;3.430425e-002
3.982452e+003;3.431554e-002
3.984380e+003;3.432680e-002
3.986309e+003;3.352319e-002
3.988237e+003;3.334347e-002
3.990166e+003;3.402866e-002
3.992094e+003;3.438945e-002
3.994023e+003;3.391626e-002
3.995951e+003;3.428675e-002
3.997880e+003;3.496345e-002
3.999809e+003;3.428553e-002
4.001737e+003;0.000000e+000
