3.992094e+002;0.000000e+000
4.011380e+002;0.000000e+000
4.030665e+002;0.000000e+000
4.049951e+002;0.000000e+000
4.069236e+002;0.000000e+000
4.088522e+002;0.000000e+000
4.107807e+002;0.000000e+000
4.127093e+002;0.000000e+000
4.146378e+002;0.000000e+000
4.165664e+002;0.000000e+000
4.184949e+002;0.000000e+000
4.204235e+002;0.000000e+000
4.223520e+002;0.000000e+000
4.242806e+002;0.000000e+000
4.262091e+002;0.000000e+000
4.281377e+002;0.000000e+000
4.300662e+002;0.000000e+000
4.319948e+002;0.000000e+000
4.339233e+002;0.000000e+000
4.358519e+002;0.000000e+000
4.377804e+002;0.000000e+000
4.397090e+002;0.000000e+000
4.416375e+002;0.000000e+000
4.435660e+002;0.000000e+000
4.454946e+002;0.000000e+000
4.474232e+002;0.000000e+000
4.493517e+002;0.000000e+000
4.512802e+002;0.000000e+000
4.532088e+002;0.000000e+000
4.551373e+002;0.000000e+000
4.570659e+002;0.000000e+000
4.589944e+002;0.000000e+000
4.609230e+002;0.000000e+000
4.628515e+002;0.000000e+000
4.647801e+002;0.000000e+000
4.667086e+002;0.000000e+000
4.686372e+002;0.000000e+000
4.705657e+002;0.000000e+000
4.724943e+002;0.000000e+000
4.744228e+002;0.000000e+000
4.763513e+002;0.000000e+000
4.782799e+002;0.000000e+000
4.802085e+002;0.000000e+000
4.821370e+002;0.000000e+000
4.840656e+002;0.000000e+000
4.859941e+002;0.000000e+000
4.879226e+002;0.000000e+000
4.898512e+002;0.000000e+000
4.917798e+002;0.000000e+000
4.937083e+002;0.000000e+000
4.956368e+002;0.000000e+000
4.975654e+002;0.000000e+000
4.994939e+002;0.000000e+000
5.014225e+002;0.000000e+000
5.033510e+002;0.000000e+000
5.052796e+002;0.000000e+000
5.072081e+002;0.000000e+000
5.091367e+002;0.000000e+000
5.110652e+002;0.000000e+000
5.129938e+002;0.000000e+000
5.149223e+002;0.000000e+000
5.168509e+002;0.000000e+000
5.187794e+002;0.000000e+000
5.207079e+002;0.000000e+000
5.226365e+002;0.000000e+000
5.245651e+002;0.000000e+000
5.264936e+002;0.000000e+000
5.284222e+002;0.000000e+000
5.303507e+002;0.000000e+000
5.322792e+002;0.000000e+000
5.342078e+002;0.000000e+000
5.361364e+002;0.000000e+000
5.380649e+002;0.000000e+000
5.399935e+002;0.000000e+000
5.419220e+002;0.000000e+000
5.438505e+002;0.000000e+000
5.457791e+002;0.000000e+000
5.477076e+002;0.000000e+000
5.496362e+002;0.000000e+000
5.515648e+002;0.000000e+000
5.534933e+002;0.000000e+000
5.554218e+002;0.000000e+000
5.573504e+002;0.000000e+000
5.592789e+002;0.000000e+000
5.612075e+002;0.000000e+000
5.631360e+002;0.000000e+000
5.650646e+002;0.000000e+000
5.669931e+002;0.000000e+000
5.689217e+002;0.000000e+000
5.708502e+002;0.000000e+000
5.727787e+002;0.000000e+000
5.747073e+002;0.000000e+000
5.766359e+002;0.000000e+000
5.785644e+002;0.000000e+000
5.804930e+002;0.000000e+000
5.824215e+002;0.000000e+000
5.843500e+002;0.000000e+000
5.862786e+002;0.000000e+000
5.882072e+002;0.000000e+000
5.901357e+002;0.000000e+000
5.920643e+002;0.000000e+000
5.939928e+002;0.000000e+000
5.959213e+002;0.000000e+000
5.978499e+002;0.000000e+000
5.997784e+002;2.684402e-001
6.017070e+002;2.718227e-001
6.036355e+002;2.829293e-001
6.055641e+002;2.841590e-001
6.074926e+002;2.798223e-001
6.094211e+002;2.800515e-001
6.113497e+002;2.767597e-001
6.132783e+002;2.714487e-001
6.152068e+002;2.713162e-001
6.171354e+002;2.716950e-001
6.190639e+002;2.689177e-001
6.209924e+002;2.679368e-001
6.229210e+002;2.618352e-001
6.248495e+002;2.527853e-001
6.267781e+002;2.488782e-001
6.287067e+002;2.431624e-001
6.306352e+002;2.417587e-001
6.325637e+002;2.405146e-001
6.344923e+002;2.355780e-001
6.364208e+002;2.357890e-001
6.383494e+002;2.361690e-001
6.402780e+002;2.320070e-001
6.422065e+002;2.254939e-001
6.441350e+002;2.242197e-001
6.460636e+002;2.260395e-001
6.479921e+002;2.266537e-001
6.499207e+002;2.276065e-001
6.518492e+002;2.285187e-001
6.537778e+002;2.300956e-001
6.557063e+002;2.355133e-001
6.576349e+002;2.426470e-001
6.595634e+002;2.468311e-001
6.614919e+002;2.501923e-001
6.634205e+002;2.523251e-001
6.653491e+002;2.512973e-001
6.672776e+002;2.477446e-001
6.692062e+002;2.430773e-001
6.711347e+002;2.391955e-001
6.730632e+002;2.330617e-001
6.749918e+002;2.265831e-001
6.769203e+002;2.199820e-001
6.788489e+002;2.142330e-001
6.807775e+002;2.106388e-001
6.827060e+002;2.078056e-001
6.846345e+002;2.059991e-001
6.865631e+002;2.054377e-001
6.884916e+002;2.044066e-001
6.904202e+002;2.043203e-001
6.923488e+002;2.049720e-001
6.942773e+002;2.039838e-001
6.962058e+002;2.039155e-001
6.981344e+002;2.039711e-001
7.000629e+002;2.032863e-001
7.019915e+002;2.028891e-001
7.039200e+002;2.016663e-001
7.058486e+002;1.997593e-001
7.077771e+002;1.972439e-001
7.097057e+002;1.945376e-001
7.116342e+002;1.911528e-001
7.135627e+002;1.877586e-001
7.154913e+002;1.835002e-001
7.174199e+002;1.790488e-001
7.193484e+002;1.745195e-001
7.212770e+002;1.702869e-001
7.232055e+002;1.666074e-001
7.251340e+002;1.617814e-001
7.270626e+002;1.559343e-001
7.289911e+002;1.520688e-001
7.309197e+002;1.495359e-001
7.328483e+002;1.464453e-001
7.347768e+002;1.425328e-001
7.367053e+002;1.391172e-001
7.386339e+002;1.377758e-001
7.405624e+002;1.373661e-001
7.424910e+002;1.356827e-001
7.444196e+002;1.339333e-001
7.463481e+002;1.321788e-001
7.482766e+002;1.310651e-001
7.502052e+002;1.296403e-001
7.521337e+002;1.278939e-001
7.540623e+002;1.265535e-001
7.559908e+002;1.255985e-001
7.579194e+002;1.236763e-001
7.598479e+002;1.218344e-001
7.617765e+002;1.214887e-001
7.637050e+002;1.217514e-001
7.656335e+002;1.207393e-001
7.675621e+002;1.194315e-001
7.694907e+002;1.191616e-001
7.714192e+002;1.186828e-001
7.733478e+002;1.178446e-001
7.752763e+002;1.173047e-001
7.772048e+002;1.170049e-001
7.791334e+002;1.172197e-001
7.810620e+002;1.176093e-001
7.829905e+002;1.181132e-001
7.849191e+002;1.198770e-001
7.868476e+002;1.223000e-001
7.887761e+002;1.242987e-001
7.907047e+002;1.261388e-001
7.926332e+002;1.283865e-001
7.945618e+002;1.305892e-001
7.964903e+002;1.321486e-001
7.984189e+002;1.338485e-001
8.003474e+002;1.351647e-001
8.022759e+002;1.351858e-001
8.042045e+002;1.345605e-001
8.061331e+002;1.341075e-001
8.080616e+002;1.341369e-001
8.099902e+002;1.333902e-001
8.119187e+002;1.323463e-001
8.138472e+002;1.315257e-001
8.157758e+002;1.302846e-001
8.177043e+002;1.295427e-001
8.196329e+002;1.288066e-001
8.215615e+002;1.274826e-001
8.234900e+002;1.251545e-001
8.254185e+002;1.217545e-001
8.273471e+002;1.183091e-001
8.292756e+002;1.151006e-001
8.312042e+002;1.123865e-001
8.331328e+002;1.107729e-001
8.350613e+002;1.092802e-001
8.369898e+002;1.080637e-001
8.389184e+002;1.074287e-001
8.408469e+002;1.069945e-001
8.427755e+002;1.070702e-001
8.447040e+002;1.073362e-001
8.466326e+002;1.076556e-001
8.485611e+002;1.072445e-001
8.504897e+002;1.069660e-001
8.524182e+002;1.075142e-001
8.543467e+002;1.081831e-001
8.562753e+002;1.089921e-001
8.582039e+002;1.097639e-001
8.601324e+002;1.106844e-001
8.620610e+002;1.118381e-001
8.639895e+002;1.128169e-001
8.659180e+002;1.133910e-001
8.678466e+002;1.140326e-001
8.697751e+002;1.149799e-001
8.717037e+002;1.169155e-001
8.736323e+002;1.190270e-001
8.755608e+002;1.207726e-001
8.774893e+002;1.224842e-001
8.794179e+002;1.244834e-001
8.813464e+002;1.266938e-001
8.832750e+002;1.290053e-001
8.852036e+002;1.316788e-001
8.871321e+002;1.346908e-001
8.890606e+002;1.378102e-001
8.909892e+002;1.405175e-001
8.929177e+002;1.422345e-001
8.948463e+002;1.440694e-001
8.967748e+002;1.453073e-001
8.987034e+002;1.453468e-001
9.006319e+002;1.449642e-001
9.025605e+002;1.441892e-001
9.044890e+002;1.424000e-001
9.064175e+002;1.403484e-001
9.083461e+002;1.385042e-001
9.102747e+002;1.366309e-001
9.122032e+002;1.349981e-001
9.141318e+002;1.334534e-001
9.160603e+002;1.321493e-001
9.179888e+002;1.316562e-001
9.199174e+002;1.314571e-001
9.218459e+002;1.319205e-001
9.237745e+002;1.329636e-001
9.257031e+002;1.338953e-001
9.276316e+002;1.350715e-001
9.295601e+002;1.368027e-001
9.314887e+002;1.383682e-001
9.334172e+002;1.396672e-001
9.353458e+002;1.409374e-001
9.372744e+002;1.424503e-001
9.392029e+002;1.442492e-001
9.411314e+002;1.462310e-001
9.430600e+002;1.485326e-001
9.449885e+002;1.514663e-001
9.469171e+002;1.545726e-001
9.488456e+002;1.578874e-001
9.507742e+002;1.619131e-001
9.527027e+002;1.665332e-001
9.546313e+002;1.715128e-001
9.565598e+002;1.765896e-001
9.584883e+002;1.817605e-001
9.604169e+002;1.875258e-001
9.623455e+002;1.939209e-001
9.642740e+002;2.009033e-001
9.662026e+002;2.081437e-001
9.681311e+002;2.160743e-001
9.700596e+002;2.252585e-001
9.719882e+002;2.360363e-001
9.739167e+002;2.485352e-001
9.758453e+002;2.631987e-001
9.777739e+002;2.804355e-001
9.797024e+002;2.994438e-001
9.816309e+002;3.157631e-001
9.835595e+002;3.257688e-001
9.854880e+002;3.287368e-001
9.874166e+002;3.285980e-001
9.893452e+002;3.298328e-001
9.912737e+002;3.347221e-001
9.932022e+002;3.425031e-001
9.951307e+002;3.522350e-001
9.970593e+002;3.629268e-001
9.989879e+002;3.717312e-001
1.000916e+003;3.770599e-001
1.002845e+003;3.794315e-001
1.004773e+003;3.807873e-001
1.006702e+003;3.823638e-001
1.008631e+003;3.845041e-001
1.010559e+003;3.884181e-001
1.012488e+003;3.951197e-001
1.014416e+003;4.029883e-001
1.016345e+003;4.100272e-001
1.018273e+003;4.165465e-001
1.020202e+003;4.233068e-001
1.022130e+003;4.301506e-001
1.024059e+003;4.370166e-001
1.025988e+003;4.436061e-001
1.027916e+003;4.497319e-001
1.029845e+003;4.541554e-001
1.031773e+003;4.544669e-001
1.033702e+003;4.514780e-001
1.035630e+003;4.438818e-001
1.037559e+003;4.332029e-001
1.039487e+003;4.238250e-001
1.041416e+003;4.173352e-001
1.043344e+003;4.153927e-001
1.045273e+003;4.185559e-001
1.047202e+003;4.247366e-001
1.049130e+003;4.321356e-001
1.051059e+003;4.391671e-001
1.052987e+003;4.444096e-001
1.054916e+003;4.458462e-001
1.056844e+003;4.432550e-001
1.058773e+003;4.352576e-001
1.060701e+003;4.189563e-001
1.062630e+003;3.973114e-001
1.064558e+003;3.756229e-001
1.066487e+003;3.561169e-001
1.068416e+003;3.405760e-001
1.070344e+003;3.289017e-001
1.072273e+003;3.197758e-001
1.074201e+003;3.133120e-001
1.076130e+003;3.075818e-001
1.078058e+003;3.003767e-001
1.079987e+003;2.932583e-001
1.081915e+003;2.885005e-001
1.083844e+003;2.868134e-001
1.085773e+003;2.862520e-001
1.087701e+003;2.864113e-001
1.089630e+003;2.873427e-001
1.091558e+003;2.878911e-001
1.093487e+003;2.897028e-001
1.095415e+003;2.930470e-001
1.097344e+003;2.966270e-001
1.099272e+003;2.999106e-001
1.101201e+003;3.016812e-001
1.103129e+003;3.012773e-001
1.105058e+003;2.984291e-001
1.106987e+003;2.940311e-001
1.108915e+003;2.898439e-001
1.110844e+003;2.851036e-001
1.112772e+003;2.760791e-001
1.114701e+003;2.627890e-001
1.116629e+003;2.477465e-001
1.118558e+003;2.342866e-001
1.120486e+003;2.247553e-001
1.122415e+003;2.167663e-001
1.124344e+003;2.083193e-001
1.126272e+003;1.996246e-001
1.128201e+003;1.909932e-001
1.130129e+003;1.832921e-001
1.132058e+003;1.766948e-001
1.133986e+003;1.714580e-001
1.135915e+003;1.671800e-001
1.137843e+003;1.638070e-001
1.139772e+003;1.625782e-001
1.141700e+003;1.636290e-001
1.143629e+003;1.661482e-001
1.145557e+003;1.690292e-001
1.147486e+003;1.715211e-001
1.149415e+003;1.734061e-001
1.151343e+003;1.755295e-001
1.153272e+003;1.784722e-001
1.155200e+003;1.815926e-001
1.157129e+003;1.847622e-001
1.159057e+003;1.874237e-001
1.160986e+003;1.887056e-001
1.162914e+003;1.868502e-001
1.164843e+003;1.811904e-001
1.166771e+003;1.725526e-001
1.168700e+003;1.618724e-001
1.170629e+003;1.513117e-001
1.172557e+003;1.422122e-001
1.174486e+003;1.341789e-001
1.176414e+003;1.277124e-001
1.178343e+003;1.230339e-001
1.180271e+003;1.191167e-001
1.182200e+003;1.161069e-001
1.184128e+003;1.140256e-001
1.186057e+003;1.130068e-001
1.187986e+003;1.130959e-001
1.189914e+003;1.140341e-001
1.191843e+003;1.162574e-001
1.193771e+003;1.189177e-001
1.195700e+003;1.209360e-001
1.197628e+003;1.231341e-001
1.199557e+003;1.253762e-001
1.201485e+003;1.268485e-001
1.203414e+003;1.270095e-001
1.205343e+003;1.261119e-001
1.207271e+003;1.234326e-001
1.209200e+003;1.186154e-001
1.211128e+003;1.134906e-001
1.213057e+003;1.096279e-001
1.214985e+003;1.078428e-001
1.216914e+003;1.075358e-001
1.218842e+003;1.085524e-001
1.220771e+003;1.104864e-001
1.222699e+003;1.122548e-001
1.224628e+003;1.139342e-001
1.226557e+003;1.160933e-001
1.228485e+003;1.182212e-001
1.230414e+003;1.202400e-001
1.232342e+003;1.223106e-001
1.234271e+003;1.240151e-001
1.236199e+003;1.248489e-001
1.238128e+003;1.252834e-001
1.240056e+003;1.260020e-001
1.241985e+003;1.274761e-001
1.243913e+003;1.296570e-001
1.245842e+003;1.317985e-001
1.247771e+003;1.332999e-001
1.249699e+003;1.347262e-001
1.251628e+003;1.366300e-001
1.253556e+003;1.390448e-001
1.255485e+003;1.427213e-001
1.257413e+003;1.471254e-001
1.259342e+003;1.506832e-001
1.261270e+003;1.524817e-001
1.263199e+003;1.516707e-001
1.265127e+003;1.486948e-001
1.267056e+003;1.450029e-001
1.268985e+003;1.417247e-001
1.270913e+003;1.399250e-001
1.272842e+003;1.394003e-001
1.274770e+003;1.393238e-001
1.276699e+003;1.391917e-001
1.278627e+003;1.385210e-001
1.280556e+003;1.372406e-001
1.282484e+003;1.356359e-001
1.284413e+003;1.342463e-001
1.286342e+003;1.330548e-001
1.288270e+003;1.323395e-001
1.290199e+003;1.324619e-001
1.292127e+003;1.329679e-001
1.294056e+003;1.332703e-001
1.295984e+003;1.342798e-001
1.297913e+003;1.362518e-001
1.299841e+003;1.389840e-001
1.301770e+003;1.428780e-001
1.303698e+003;1.478065e-001
1.305627e+003;1.528805e-001
1.307556e+003;1.580273e-001
1.309484e+003;1.632742e-001
1.311413e+003;1.678316e-001
1.313341e+003;1.706329e-001
1.315270e+003;1.710967e-001
1.317198e+003;1.690824e-001
1.319127e+003;1.649774e-001
1.321055e+003;1.599521e-001
1.322984e+003;1.558102e-001
1.324912e+003;1.531663e-001
1.326841e+003;1.517735e-001
1.328770e+003;1.520081e-001
1.330698e+003;1.537485e-001
1.332627e+003;1.556731e-001
1.334555e+003;1.564803e-001
1.336484e+003;1.556761e-001
1.338412e+003;1.536635e-001
1.340341e+003;1.508076e-001
1.342269e+003;1.470794e-001
1.344198e+003;1.431207e-001
1.346126e+003;1.396727e-001
1.348055e+003;1.374750e-001
1.349984e+003;1.365577e-001
1.351912e+003;1.368400e-001
1.353841e+003;1.380679e-001
1.355769e+003;1.394993e-001
1.357698e+003;1.410351e-001
1.359626e+003;1.423161e-001
1.361555e+003;1.422881e-001
1.363483e+003;1.409460e-001
1.365412e+003;1.396714e-001
1.367341e+003;1.392694e-001
1.369269e+003;1.391795e-001
1.371198e+003;1.382640e-001
1.373126e+003;1.356843e-001
1.375055e+003;1.319999e-001
1.376983e+003;1.281237e-001
1.378912e+003;1.245121e-001
1.380840e+003;1.212471e-001
1.382769e+003;1.182874e-001
1.384698e+003;1.157005e-001
1.386626e+003;1.136573e-001
1.388555e+003;1.119581e-001
1.390483e+003;1.109896e-001
1.392412e+003;1.106610e-001
1.394340e+003;1.106184e-001
1.396269e+003;1.109182e-001
1.398197e+003;1.114662e-001
1.400126e+003;1.119392e-001
1.402054e+003;1.122682e-001
1.403983e+003;1.126399e-001
1.405911e+003;1.131857e-001
1.407840e+003;1.136450e-001
1.409769e+003;1.141222e-001
1.411697e+003;1.149500e-001
1.413626e+003;1.162548e-001
1.415554e+003;1.178377e-001
1.417483e+003;1.197734e-001
1.419411e+003;1.220570e-001
1.421340e+003;1.242369e-001
1.423268e+003;1.259113e-001
1.425197e+003;1.275648e-001
1.427125e+003;1.288130e-001
1.429054e+003;1.293304e-001
1.430983e+003;1.288803e-001
1.432911e+003;1.273357e-001
1.434840e+003;1.252726e-001
1.436768e+003;1.232254e-001
1.438697e+003;1.218885e-001
1.440625e+003;1.209675e-001
1.442554e+003;1.203393e-001
1.444482e+003;1.199695e-001
1.446411e+003;1.195381e-001
1.448340e+003;1.192611e-001
1.450268e+003;1.192277e-001
1.452197e+003;1.190233e-001
1.454125e+003;1.183811e-001
1.456054e+003;1.170316e-001
1.457982e+003;1.150597e-001
1.459911e+003;1.129497e-001
1.461839e+003;1.107624e-001
1.463768e+003;1.085520e-001
1.465697e+003;1.064821e-001
1.467625e+003;1.044571e-001
1.469554e+003;1.021786e-001
1.471482e+003;9.984002e-002
1.473411e+003;9.780344e-002
1.475339e+003;9.616270e-002
1.477268e+003;9.495760e-002
1.479196e+003;9.422034e-002
1.481125e+003;9.323850e-002
1.483053e+003;9.129766e-002
1.484982e+003;8.879101e-002
1.486911e+003;8.650181e-002
1.488839e+003;8.449359e-002
1.490768e+003;8.294082e-002
1.492696e+003;8.185741e-002
1.494625e+003;8.121722e-002
1.496553e+003;8.097397e-002
1.498482e+003;8.056042e-002
1.500410e+003;7.996412e-002
1.502339e+003;7.932889e-002
1.504267e+003;7.864257e-002
1.506196e+003;7.822254e-002
1.508125e+003;7.788601e-002
1.510053e+003;7.741820e-002
1.511982e+003;7.711644e-002
1.513910e+003;7.700094e-002
1.515839e+003;7.675640e-002
1.517767e+003;7.622962e-002
1.519696e+003;7.590224e-002
1.521624e+003;7.547070e-002
1.523553e+003;7.521414e-002
1.525481e+003;7.521749e-002
1.527410e+003;7.530539e-002
1.529339e+003;7.524510e-002
1.531267e+003;7.521414e-002
1.533196e+003;7.535347e-002
1.535124e+003;7.536069e-002
1.537053e+003;7.526682e-002
1.538981e+003;7.518297e-002
1.540910e+003;7.545556e-002
1.542838e+003;7.597047e-002
1.544767e+003;7.599412e-002
1.546695e+003;7.599968e-002
1.548624e+003;7.605103e-002
1.550553e+003;7.595402e-002
1.552481e+003;7.585663e-002
1.554410e+003;7.596941e-002
1.556338e+003;7.608068e-002
1.558267e+003;7.568888e-002
1.560195e+003;7.531880e-002
1.562124e+003;7.537752e-002
1.564052e+003;7.552014e-002
1.565981e+003;7.561900e-002
1.567910e+003;7.566096e-002
1.569838e+003;7.575436e-002
1.571767e+003;7.607472e-002
1.573695e+003;7.641282e-002
1.575624e+003;7.639820e-002
1.577552e+003;7.604507e-002
1.579481e+003;7.603469e-002
1.581409e+003;7.639971e-002
1.583338e+003;7.665811e-002
1.585266e+003;7.703774e-002
1.587195e+003;7.725825e-002
1.589124e+003;7.726391e-002
1.591052e+003;7.726553e-002
1.592981e+003;7.732598e-002
1.594909e+003;7.724404e-002
1.596838e+003;7.723921e-002
1.598766e+003;7.753713e-002
1.600695e+003;7.762825e-002
1.602623e+003;7.762378e-002
1.604552e+003;7.779888e-002
1.606480e+003;7.817184e-002
1.608409e+003;7.848490e-002
1.610338e+003;7.892358e-002
1.612266e+003;7.930224e-002
1.614195e+003;7.963200e-002
1.616123e+003;7.980198e-002
1.618052e+003;8.001717e-002
1.619980e+003;8.040991e-002
1.621909e+003;8.075527e-002
1.623837e+003;8.120547e-002
1.625766e+003;8.172881e-002
1.627694e+003;8.214784e-002
1.629623e+003;8.229759e-002
1.631552e+003;8.228906e-002
1.633480e+003;8.217607e-002
1.635409e+003;8.208411e-002
1.637337e+003;8.225418e-002
1.639266e+003;8.241487e-002
1.641194e+003;8.216573e-002
1.643123e+003;8.197005e-002
1.645051e+003;8.210216e-002
1.646980e+003;8.209740e-002
1.648909e+003;8.199178e-002
1.650837e+003;8.216278e-002
1.652766e+003;8.221898e-002
1.654694e+003;8.212858e-002
1.656623e+003;8.208435e-002
1.658551e+003;8.187870e-002
1.660480e+003;8.152512e-002
1.662408e+003;8.120687e-002
1.664337e+003;8.118203e-002
1.666266e+003;8.091979e-002
1.668194e+003;8.022657e-002
1.670123e+003;7.960191e-002
1.672051e+003;7.908351e-002
1.673980e+003;7.825662e-002
1.675908e+003;7.723869e-002
1.677837e+003;7.647967e-002
1.679765e+003;7.571720e-002
1.681694e+003;7.492559e-002
1.683622e+003;7.390817e-002
1.685551e+003;7.311361e-002
1.687479e+003;7.277819e-002
1.689408e+003;7.222196e-002
1.691337e+003;7.160425e-002
1.693265e+003;7.115904e-002
1.695194e+003;7.068341e-002
1.697122e+003;7.031094e-002
1.699051e+003;7.005873e-002
1.700979e+003;6.967357e-002
1.702908e+003;6.930444e-002
1.704836e+003;6.919385e-002
1.706765e+003;6.920084e-002
1.708693e+003;6.926993e-002
1.710622e+003;6.918087e-002
1.712551e+003;6.894302e-002
1.714479e+003;6.871019e-002
1.716408e+003;6.832646e-002
1.718336e+003;6.794123e-002
1.720265e+003;6.797704e-002
1.722193e+003;6.798699e-002
1.724122e+003;6.762333e-002
1.726050e+003;6.730818e-002
1.727979e+003;6.689827e-002
1.729908e+003;6.651583e-002
1.731836e+003;6.644620e-002
1.733765e+003;6.618777e-002
1.735693e+003;6.600035e-002
1.737622e+003;6.593525e-002
1.739550e+003;6.566054e-002
1.741479e+003;6.524214e-002
1.743407e+003;6.463650e-002
1.745336e+003;6.399798e-002
1.747265e+003;6.365398e-002
1.749193e+003;6.370874e-002
1.751122e+003;6.342946e-002
1.753050e+003;6.311438e-002
1.754979e+003;6.269318e-002
1.756907e+003;6.212418e-002
1.758836e+003;6.186743e-002
1.760764e+003;6.181559e-002
1.762693e+003;6.182196e-002
1.764621e+003;6.186067e-002
1.766550e+003;6.184011e-002
1.768479e+003;6.165845e-002
1.770407e+003;6.166020e-002
1.772336e+003;6.164695e-002
1.774264e+003;6.138556e-002
1.776193e+003;6.124537e-002
1.778121e+003;6.110583e-002
1.780050e+003;6.090968e-002
1.781978e+003;6.064405e-002
1.783907e+003;6.041376e-002
1.785835e+003;6.052146e-002
1.787764e+003;6.046913e-002
1.789693e+003;6.028698e-002
1.791621e+003;6.018523e-002
1.793550e+003;6.003530e-002
1.795478e+003;6.000989e-002
1.797407e+003;5.991121e-002
1.799335e+003;5.974572e-002
1.801264e+003;5.977431e-002
1.803192e+003;5.969382e-002
1.805121e+003;5.956766e-002
1.807049e+003;5.959803e-002
1.808978e+003;5.937388e-002
1.810907e+003;5.894946e-002
1.812835e+003;5.886886e-002
1.814764e+003;5.907479e-002
1.816692e+003;5.916674e-002
1.818621e+003;5.911108e-002
1.820549e+003;5.906071e-002
1.822478e+003;5.896870e-002
1.824406e+003;5.895048e-002
1.826335e+003;5.880485e-002
1.828264e+003;5.862282e-002
1.830192e+003;5.863746e-002
1.832121e+003;5.848621e-002
1.834049e+003;5.844072e-002
1.835978e+003;5.850517e-002
1.837906e+003;5.832326e-002
1.839835e+003;5.820345e-002
1.841763e+003;5.817220e-002
1.843692e+003;5.804193e-002
1.845620e+003;5.793515e-002
1.847549e+003;5.785156e-002
1.849478e+003;5.768287e-002
1.851406e+003;5.740816e-002
1.853335e+003;5.712727e-002
1.855263e+003;5.690311e-002
1.857192e+003;5.712357e-002
1.859120e+003;5.727015e-002
1.861049e+003;5.719674e-002
1.862977e+003;5.714488e-002
1.864906e+003;5.712485e-002
1.866834e+003;5.713324e-002
1.868763e+003;5.709587e-002
1.870692e+003;5.676806e-002
1.872620e+003;5.656619e-002
1.874549e+003;5.662474e-002
1.876477e+003;5.658276e-002
1.878406e+003;5.657578e-002
1.880334e+003;5.670892e-002
1.882263e+003;5.670530e-002
1.884191e+003;5.672422e-002
1.886120e+003;5.650958e-002
1.888048e+003;5.625304e-002
1.889977e+003;5.627631e-002
1.891906e+003;5.641215e-002
1.893834e+003;5.654344e-002
1.895763e+003;5.660462e-002
1.897691e+003;5.644762e-002
1.899620e+003;5.627495e-002
1.901548e+003;5.627506e-002
1.903477e+003;5.624349e-002
1.905405e+003;5.606061e-002
1.907334e+003;5.625866e-002
1.909262e+003;5.655166e-002
1.911191e+003;5.667208e-002
1.913120e+003;5.649977e-002
1.915048e+003;5.629905e-002
1.916977e+003;5.657744e-002
1.918905e+003;5.688282e-002
1.920834e+003;5.672467e-002
1.922762e+003;5.654608e-002
1.924691e+003;5.658846e-002
1.926619e+003;5.660583e-002
1.928548e+003;5.661224e-002
1.930477e+003;5.681178e-002
1.932405e+003;5.697669e-002
1.934334e+003;5.690609e-002
1.936262e+003;5.682629e-002
1.938191e+003;5.684317e-002
1.940119e+003;5.700722e-002
1.942048e+003;5.740819e-002
1.943976e+003;5.773025e-002
1.945905e+003;5.760481e-002
1.947833e+003;5.755956e-002
1.949762e+003;5.776612e-002
1.951691e+003;5.783384e-002
1.953619e+003;5.782862e-002
1.955548e+003;5.786776e-002
1.957476e+003;5.790406e-002
1.959405e+003;5.791319e-002
1.961333e+003;5.781681e-002
1.963262e+003;5.782078e-002
1.965190e+003;5.799960e-002
1.967119e+003;5.811310e-002
1.969047e+003;5.811981e-002
1.970976e+003;5.831845e-002
1.972905e+003;5.841502e-002
1.974833e+003;5.828059e-002
1.976762e+003;5.832997e-002
1.978690e+003;5.848511e-002
1.980619e+003;5.855605e-002
1.982547e+003;5.873562e-002
1.984476e+003;5.896745e-002
1.986404e+003;5.899018e-002
1.988333e+003;5.884507e-002
1.990261e+003;5.884947e-002
1.992190e+003;5.899208e-002
1.994119e+003;5.900445e-002
1.996047e+003;5.899045e-002
1.997976e+003;5.904784e-002
1.999904e+003;5.916337e-002
2.001833e+003;5.916895e-002
2.003761e+003;5.918797e-002
2.005690e+003;5.938703e-002
2.007618e+003;5.962418e-002
2.009547e+003;5.990163e-002
2.011476e+003;6.015585e-002
2.013404e+003;6.022234e-002
2.015333e+003;6.017838e-002
2.017261e+003;6.016213e-002
2.019190e+003;6.023882e-002
2.021118e+003;6.027042e-002
2.023047e+003;6.039461e-002
2.024975e+003;6.068169e-002
2.026904e+003;6.088563e-002
2.028833e+003;6.096367e-002
2.030761e+003;6.120966e-002
2.032690e+003;6.134381e-002
2.034618e+003;6.121805e-002
2.036547e+003;6.120729e-002
2.038475e+003;6.133198e-002
2.040404e+003;6.151363e-002
2.042332e+003;6.178403e-002
2.044261e+003;6.159838e-002
2.046189e+003;6.138965e-002
2.048118e+003;6.148560e-002
2.050047e+003;6.148904e-002
2.051975e+003;6.130382e-002
2.053904e+003;6.131596e-002
2.055832e+003;6.143087e-002
2.057761e+003;6.151385e-002
2.059689e+003;6.154783e-002
2.061618e+003;6.159323e-002
2.063546e+003;6.168889e-002
2.065475e+003;6.169714e-002
2.067404e+003;6.130886e-002
2.069332e+003;6.100584e-002
2.071260e+003;6.104931e-002
2.073189e+003;6.083924e-002
2.075118e+003;6.079842e-002
2.077046e+003;6.096447e-002
2.078975e+003;6.106838e-002
2.080903e+003;6.109263e-002
2.082832e+003;6.105507e-002
2.084760e+003;6.096683e-002
2.086689e+003;6.087961e-002
2.088617e+003;6.089729e-002
2.090546e+003;6.097732e-002
2.092475e+003;6.118059e-002
2.094403e+003;6.126235e-002
2.096332e+003;6.152351e-002
2.098260e+003;6.151931e-002
2.100189e+003;6.136435e-002
2.102117e+003;6.128284e-002
2.104046e+003;6.132969e-002
2.105974e+003;6.157708e-002
2.107903e+003;6.168041e-002
2.109832e+003;6.152355e-002
2.111760e+003;6.150156e-002
2.113688e+003;6.161228e-002
2.115617e+003;6.165371e-002
2.117546e+003;6.175477e-002
2.119474e+003;6.176466e-002
2.121403e+003;6.169312e-002
2.123331e+003;6.204673e-002
2.125260e+003;6.240916e-002
2.127188e+003;6.226332e-002
2.129117e+003;6.209616e-002
2.131045e+003;6.211561e-002
2.132974e+003;6.213045e-002
2.134903e+003;6.230963e-002
2.136831e+003;6.238047e-002
2.138760e+003;6.205766e-002
2.140688e+003;6.194178e-002
2.142617e+003;6.215205e-002
2.144545e+003;6.193743e-002
2.146474e+003;6.167029e-002
2.148402e+003;6.204062e-002
2.150331e+003;6.215327e-002
2.152260e+003;6.170970e-002
2.154188e+003;6.147499e-002
2.156117e+003;6.169156e-002
2.158045e+003;6.147713e-002
2.159974e+003;6.129653e-002
2.161902e+003;6.129238e-002
2.163831e+003;6.104741e-002
2.165759e+003;6.103886e-002
2.167688e+003;6.091975e-002
2.169616e+003;6.069373e-002
2.171545e+003;6.044327e-002
2.173474e+003;6.025405e-002
2.175402e+003;6.023837e-002
2.177331e+003;6.009379e-002
2.179259e+003;5.974184e-002
2.181188e+003;5.965034e-002
2.183116e+003;5.948855e-002
2.185045e+003;5.930046e-002
2.186973e+003;5.939884e-002
2.188902e+003;5.943007e-002
2.190831e+003;5.913371e-002
2.192759e+003;5.906158e-002
2.194688e+003;5.905152e-002
2.196616e+003;5.925469e-002
2.198545e+003;5.955090e-002
2.200473e+003;5.954049e-002
2.202402e+003;5.932522e-002
2.204330e+003;5.933559e-002
2.206259e+003;5.924539e-002
2.208188e+003;5.875254e-002
2.210116e+003;5.857834e-002
2.212044e+003;5.900920e-002
2.213973e+003;5.931250e-002
2.215902e+003;5.926897e-002
2.217830e+003;5.924881e-002
2.219759e+003;5.948646e-002
2.221687e+003;5.954798e-002
2.223616e+003;5.947122e-002
2.225544e+003;5.935975e-002
2.227473e+003;5.934364e-002
2.229401e+003;5.925709e-002
2.231330e+003;5.911833e-002
2.233259e+003;5.906925e-002
2.235187e+003;5.907726e-002
2.237116e+003;5.919735e-002
2.239044e+003;5.934152e-002
2.240973e+003;5.941898e-002
2.242901e+003;5.948095e-002
2.244830e+003;5.928697e-002
2.246758e+003;5.900893e-002
2.248687e+003;5.911507e-002
2.250615e+003;5.917126e-002
2.252544e+003;5.904006e-002
2.254473e+003;5.896494e-002
2.256401e+003;5.910239e-002
2.258330e+003;5.909875e-002
2.260258e+003;5.876783e-002
2.262187e+003;5.855184e-002
2.264115e+003;5.862995e-002
2.266044e+003;5.851411e-002
2.267972e+003;5.806920e-002
2.269901e+003;5.783176e-002
2.271830e+003;5.790452e-002
2.273758e+003;5.814299e-002
2.275687e+003;5.831818e-002
2.277615e+003;5.806758e-002
2.279544e+003;5.771038e-002
2.281472e+003;5.746837e-002
2.283401e+003;5.732554e-002
2.285329e+003;5.760239e-002
2.287258e+003;5.795651e-002
2.289187e+003;5.791149e-002
2.291115e+003;5.782366e-002
2.293043e+003;5.788669e-002
2.294972e+003;5.809984e-002
2.296901e+003;5.823535e-002
2.298829e+003;5.797877e-002
2.300758e+003;5.753225e-002
2.302686e+003;5.729211e-002
2.304615e+003;5.718861e-002
2.306543e+003;5.736210e-002
2.308472e+003;5.750713e-002
2.310400e+003;5.747044e-002
2.312329e+003;5.737428e-002
2.314258e+003;5.729268e-002
2.316186e+003;5.757326e-002
2.318115e+003;5.794216e-002
2.320043e+003;5.783248e-002
2.321972e+003;5.761408e-002
2.323900e+003;5.781840e-002
2.325829e+003;5.795280e-002
2.327757e+003;5.785511e-002
2.329686e+003;5.788294e-002
2.331615e+003;5.811466e-002
2.333543e+003;5.834221e-002
2.335472e+003;5.836488e-002
2.337400e+003;5.830041e-002
2.339329e+003;5.832372e-002
2.341257e+003;5.832031e-002
2.343186e+003;5.843253e-002
2.345114e+003;5.858877e-002
2.347043e+003;5.902620e-002
2.348971e+003;5.925116e-002
2.350900e+003;5.919800e-002
2.352829e+003;5.921558e-002
2.354757e+003;5.919241e-002
2.356686e+003;5.897189e-002
2.358614e+003;5.895007e-002
2.360543e+003;5.928492e-002
2.362471e+003;5.933719e-002
2.364400e+003;5.953399e-002
2.366328e+003;5.988052e-002
2.368257e+003;5.977613e-002
2.370186e+003;5.959610e-002
2.372114e+003;5.978431e-002
2.374042e+003;6.006338e-002
2.375971e+003;6.031873e-002
2.377900e+003;6.029931e-002
2.379828e+003;6.016540e-002
2.381757e+003;6.033544e-002
2.383685e+003;6.036464e-002
2.385614e+003;6.038204e-002
2.387542e+003;6.067647e-002
2.389471e+003;6.082784e-002
2.391399e+003;6.105423e-002
2.393328e+003;6.141407e-002
2.395257e+003;6.153596e-002
2.397185e+003;6.117124e-002
2.399114e+003;6.077418e-002
2.401042e+003;6.102876e-002
2.402971e+003;6.149396e-002
2.404899e+003;6.152759e-002
2.406828e+003;6.136579e-002
2.408756e+003;6.135003e-002
2.410685e+003;6.174648e-002
2.412614e+003;6.219001e-002
2.414542e+003;6.237026e-002
2.416471e+003;6.243850e-002
2.418399e+003;6.244474e-002
2.420328e+003;6.239910e-002
2.422256e+003;6.257112e-002
2.424185e+003;6.286616e-002
2.426113e+003;6.312281e-002
2.428042e+003;6.320827e-002
2.429970e+003;6.319171e-002
2.431899e+003;6.333821e-002
2.433828e+003;6.365303e-002
2.435756e+003;6.371488e-002
2.437685e+003;6.399280e-002
2.439613e+003;6.411941e-002
2.441542e+003;6.401534e-002
2.443470e+003;6.395640e-002
2.445399e+003;6.415670e-002
2.447327e+003;6.442541e-002
2.449256e+003;6.454326e-002
2.451185e+003;6.471852e-002
2.453113e+003;6.468983e-002
2.455042e+003;6.468417e-002
2.456970e+003;6.476175e-002
2.458899e+003;6.477067e-002
2.460827e+003;6.480660e-002
2.462756e+003;6.469883e-002
2.464684e+003;6.463645e-002
2.466613e+003;6.515779e-002
2.468542e+003;6.568009e-002
2.470470e+003;6.551068e-002
2.472398e+003;6.534065e-002
2.474327e+003;6.524780e-002
2.476256e+003;6.546684e-002
2.478184e+003;6.594415e-002
2.480113e+003;6.609239e-002
2.482041e+003;6.595260e-002
2.483970e+003;6.612723e-002
2.485898e+003;6.626681e-002
2.487827e+003;6.624416e-002
2.489755e+003;6.637871e-002
2.491684e+003;6.647091e-002
2.493613e+003;6.649729e-002
2.495541e+003;6.677638e-002
2.497470e+003;6.696859e-002
2.499398e+003;6.687737e-002
2.501327e+003;6.677839e-002
2.503255e+003;6.685808e-002
2.505184e+003;6.691779e-002
2.507112e+003;6.712394e-002
2.509041e+003;6.725243e-002
2.510969e+003;6.741896e-002
2.512898e+003;6.761423e-002
2.514827e+003;6.781328e-002
2.516755e+003;6.788114e-002
2.518684e+003;6.783362e-002
2.520612e+003;6.775418e-002
2.522541e+003;6.779961e-002
2.524469e+003;6.793290e-002
2.526398e+003;6.801687e-002
2.528326e+003;6.805927e-002
2.530255e+003;6.813885e-002
2.532184e+003;6.824251e-002
2.534112e+003;6.827558e-002
2.536041e+003;6.850651e-002
2.537969e+003;6.851539e-002
2.539898e+003;6.849785e-002
2.541826e+003;6.886210e-002
2.543755e+003;6.909854e-002
2.545683e+003;6.865050e-002
2.547612e+003;6.838284e-002
2.549541e+003;6.848715e-002
2.551469e+003;6.875409e-002
2.553397e+003;6.894822e-002
2.555326e+003;6.874132e-002
2.557255e+003;6.872203e-002
2.559183e+003;6.879240e-002
2.561112e+003;6.881624e-002
2.563040e+003;6.885017e-002
2.564969e+003;6.908552e-002
2.566897e+003;6.929422e-002
2.568826e+003;6.916451e-002
2.570754e+003;6.900551e-002
2.572683e+003;6.909792e-002
2.574612e+003;6.908945e-002
2.576540e+003;6.875720e-002
2.578469e+003;6.873682e-002
2.580397e+003;6.926725e-002
2.582326e+003;6.964917e-002
2.584254e+003;6.965089e-002
2.586183e+003;6.949723e-002
2.588111e+003;6.969224e-002
2.590040e+003;6.998293e-002
2.591969e+003;6.989986e-002
2.593897e+003;6.992186e-002
2.595826e+003;7.021329e-002
2.597754e+003;7.015265e-002
2.599683e+003;7.008365e-002
2.601611e+003;7.031105e-002
2.603540e+003;7.058115e-002
2.605468e+003;7.077041e-002
2.607397e+003;7.056174e-002
2.609325e+003;7.056174e-002
2.611254e+003;7.084899e-002
2.613183e+003;7.094157e-002
2.615111e+003;7.079791e-002
2.617040e+003;7.089413e-002
2.618968e+003;7.118297e-002
2.620897e+003;7.131216e-002
2.622825e+003;7.142119e-002
2.624754e+003;7.150400e-002
2.626682e+003;7.134660e-002
2.628611e+003;7.138940e-002
2.630540e+003;7.157174e-002
2.632468e+003;7.164496e-002
2.634396e+003;7.202230e-002
2.636325e+003;7.224333e-002
2.638254e+003;7.203407e-002
2.640182e+003;7.210609e-002
2.642111e+003;7.227616e-002
2.644039e+003;7.264993e-002
2.645968e+003;7.287803e-002
2.647896e+003;7.252258e-002
2.649825e+003;7.242991e-002
2.651753e+003;7.275429e-002
2.653682e+003;7.306173e-002
2.655611e+003;7.307013e-002
2.657539e+003;7.327346e-002
2.659468e+003;7.344140e-002
2.661396e+003;7.316215e-002
2.663325e+003;7.294210e-002
2.665253e+003;7.300999e-002
2.667182e+003;7.329310e-002
2.669110e+003;7.352640e-002
2.671039e+003;7.360722e-002
2.672968e+003;7.353944e-002
2.674896e+003;7.345977e-002
2.676825e+003;7.370254e-002
2.678753e+003;7.406767e-002
2.680682e+003;7.420094e-002
2.682610e+003;7.387651e-002
2.684539e+003;7.356008e-002
2.686467e+003;7.385294e-002
2.688396e+003;7.450572e-002
2.690324e+003;7.486363e-002
2.692253e+003;7.479753e-002
2.694182e+003;7.469859e-002
2.696110e+003;7.485839e-002
2.698039e+003;7.468025e-002
2.699967e+003;7.469214e-002
2.701896e+003;7.516871e-002
2.703824e+003;7.534177e-002
2.705753e+003;7.519487e-002
2.707681e+003;7.527186e-002
2.709610e+003;7.585003e-002
2.711539e+003;7.640199e-002
2.713467e+003;7.653772e-002
2.715396e+003;7.631481e-002
2.717324e+003;7.623124e-002
2.719253e+003;7.632318e-002
2.721181e+003;7.654053e-002
2.723110e+003;7.678487e-002
2.725038e+003;7.673588e-002
2.726967e+003;7.658250e-002
2.728896e+003;7.655061e-002
2.730824e+003;7.659254e-002
2.732752e+003;7.690134e-002
2.734681e+003;7.710041e-002
2.736610e+003;7.703022e-002
2.738538e+003;7.694212e-002
2.740467e+003;7.690822e-002
2.742395e+003;7.693943e-002
2.744324e+003;7.731339e-002
2.746252e+003;7.727448e-002
2.748181e+003;7.716444e-002
2.750109e+003;7.726324e-002
2.752038e+003;7.762429e-002
2.753967e+003;7.762492e-002
2.755895e+003;7.716068e-002
2.757824e+003;7.726894e-002
2.759752e+003;7.764537e-002
2.761681e+003;7.780146e-002
2.763609e+003;7.790452e-002
2.765538e+003;7.825242e-002
2.767466e+003;7.871481e-002
2.769395e+003;7.876228e-002
2.771323e+003;7.865103e-002
2.773252e+003;7.879592e-002
2.775181e+003;7.889239e-002
2.777109e+003;7.870321e-002
2.779038e+003;7.895398e-002
2.780966e+003;7.952657e-002
2.782895e+003;7.963152e-002
2.784823e+003;7.973573e-002
2.786752e+003;8.031721e-002
2.788680e+003;8.077858e-002
2.790609e+003;8.064897e-002
2.792538e+003;8.099329e-002
2.794466e+003;8.146837e-002
2.796395e+003;8.131910e-002
2.798323e+003;8.114029e-002
2.800252e+003;8.139291e-002
2.802180e+003;8.201807e-002
2.804109e+003;8.233260e-002
2.806037e+003;8.234273e-002
2.807966e+003;8.294219e-002
2.809895e+003;8.384376e-002
2.811823e+003;8.412695e-002
2.813751e+003;8.422638e-002
2.815680e+003;8.444654e-002
2.817609e+003;8.499967e-002
2.819537e+003;8.581811e-002
2.821466e+003;8.643590e-002
2.823394e+003;8.649380e-002
2.825323e+003;8.704197e-002
2.827251e+003;8.806186e-002
2.829180e+003;8.890143e-002
2.831108e+003;8.963875e-002
2.833037e+003;9.027247e-002
2.834966e+003;9.093425e-002
2.836894e+003;9.198402e-002
2.838823e+003;9.321879e-002
2.840751e+003;9.448731e-002
2.842680e+003;9.597573e-002
2.844608e+003;9.801200e-002
2.846537e+003;1.002972e-001
2.848465e+003;1.022604e-001
2.850394e+003;1.038578e-001
2.852323e+003;1.051096e-001
2.854251e+003;1.058327e-001
2.856180e+003;1.059247e-001
2.858108e+003;1.063083e-001
2.860037e+003;1.070784e-001
2.861965e+003;1.077520e-001
2.863894e+003;1.083007e-001
2.865822e+003;1.085306e-001
2.867751e+003;1.092063e-001
2.869679e+003;1.100450e-001
2.871608e+003;1.104164e-001
2.873536e+003;1.105423e-001
2.875465e+003;1.107757e-001
2.877394e+003;1.113300e-001
2.879322e+003;1.118311e-001
2.881251e+003;1.123839e-001
2.883179e+003;1.134073e-001
2.885108e+003;1.141275e-001
2.887036e+003;1.142478e-001
2.888965e+003;1.146973e-001
2.890893e+003;1.157218e-001
2.892822e+003;1.166703e-001
2.894750e+003;1.170859e-001
2.896679e+003;1.176735e-001
2.898608e+003;1.182693e-001
2.900536e+003;1.179440e-001
2.902465e+003;1.173359e-001
2.904393e+003;1.170561e-001
2.906322e+003;1.165523e-001
2.908250e+003;1.157572e-001
2.910179e+003;1.149663e-001
2.912107e+003;1.141352e-001
2.914036e+003;1.126010e-001
2.915965e+003;1.113049e-001
2.917893e+003;1.105515e-001
2.919822e+003;1.094410e-001
2.921750e+003;1.084012e-001
2.923679e+003;1.072502e-001
2.925607e+003;1.060725e-001
2.927536e+003;1.048326e-001
2.929464e+003;1.034420e-001
2.931393e+003;1.018609e-001
2.933322e+003;1.004624e-001
2.935250e+003;9.936193e-002
2.937178e+003;9.807695e-002
2.939107e+003;9.715362e-002
2.941036e+003;9.644213e-002
2.942964e+003;9.571845e-002
2.944893e+003;9.503157e-002
2.946821e+003;9.409555e-002
2.948750e+003;9.284224e-002
2.950678e+003;9.196670e-002
2.952607e+003;9.163567e-002
2.954535e+003;9.095905e-002
2.956464e+003;8.997755e-002
2.958393e+003;8.939553e-002
2.960321e+003;8.889740e-002
2.962250e+003;8.818489e-002
2.964178e+003;8.745704e-002
2.966107e+003;8.677969e-002
2.968035e+003;8.608308e-002
2.969964e+003;8.506835e-002
2.971892e+003;8.365848e-002
2.973821e+003;8.218604e-002
2.975750e+003;8.077531e-002
2.977678e+003;7.972869e-002
2.979607e+003;7.882341e-002
2.981535e+003;7.809902e-002
2.983464e+003;7.745586e-002
2.985392e+003;7.677941e-002
2.987321e+003;7.644514e-002
2.989249e+003;7.613118e-002
2.991178e+003;7.591317e-002
2.993106e+003;7.618646e-002
2.995035e+003;7.610480e-002
2.996964e+003;7.603087e-002
2.998892e+003;7.582711e-002
3.000821e+003;7.533503e-002
3.002749e+003;7.539569e-002
3.004678e+003;7.589246e-002
3.006606e+003;7.590690e-002
3.008535e+003;7.566467e-002
3.010463e+003;7.569547e-002
3.012392e+003;7.576959e-002
3.014321e+003;7.579555e-002
3.016249e+003;7.597789e-002
3.018177e+003;7.642610e-002
3.020106e+003;7.673750e-002
3.022035e+003;7.655954e-002
3.023963e+003;7.642064e-002
3.025892e+003;7.669666e-002
3.027820e+003;7.736415e-002
3.029749e+003;7.772917e-002
3.031677e+003;7.775481e-002
3.033606e+003;7.802149e-002
3.035534e+003;7.829876e-002
3.037463e+003;7.828376e-002
3.039392e+003;7.840627e-002
3.041320e+003;7.865933e-002
3.043249e+003;7.872498e-002
3.045177e+003;7.878996e-002
3.047106e+003;7.936863e-002
3.049034e+003;7.979418e-002
3.050963e+003;7.973657e-002
3.052891e+003;7.998881e-002
3.054820e+003;8.028441e-002
3.056749e+003;8.069370e-002
3.058677e+003;8.089740e-002
3.060606e+003;8.124950e-002
3.062534e+003;8.120655e-002
3.064463e+003;8.104333e-002
3.066391e+003;8.128142e-002
3.068320e+003;8.157162e-002
3.070248e+003;8.182733e-002
3.072177e+003;8.218891e-002
3.074105e+003;8.262041e-002
3.076034e+003;8.282112e-002
3.077963e+003;8.320958e-002
3.079891e+003;8.365033e-002
3.081820e+003;8.375628e-002
3.083748e+003;8.383037e-002
3.085677e+003;8.395570e-002
3.087605e+003;8.400965e-002
3.089534e+003;8.432426e-002
3.091462e+003;8.471035e-002
3.093391e+003;8.519802e-002
3.095320e+003;8.611588e-002
3.097248e+003;8.652465e-002
3.099177e+003;8.624382e-002
3.101105e+003;8.651167e-002
3.103034e+003;8.696606e-002
3.104962e+003;8.733685e-002
3.106891e+003;8.753254e-002
3.108819e+003;8.764350e-002
3.110748e+003;8.777378e-002
3.112677e+003;8.806365e-002
3.114605e+003;8.893936e-002
3.116533e+003;8.951897e-002
3.118462e+003;8.990920e-002
3.120391e+003;8.996776e-002
3.122319e+003;9.021064e-002
3.124248e+003;9.088854e-002
3.126176e+003;9.167712e-002
3.128105e+003;9.199045e-002
3.130033e+003;9.190356e-002
3.131962e+003;9.218927e-002
3.133890e+003;9.254155e-002
3.135819e+003;9.275818e-002
3.137748e+003;9.313129e-002
3.139676e+003;9.397175e-002
3.141605e+003;9.455301e-002
3.143533e+003;9.503978e-002
3.145462e+003;9.553494e-002
3.147390e+003;9.598871e-002
3.149319e+003;9.684052e-002
3.151247e+003;9.758066e-002
3.153176e+003;9.750136e-002
3.155104e+003;9.802429e-002
3.157033e+003;9.891436e-002
3.158962e+003;9.936138e-002
3.160890e+003;9.949302e-002
3.162819e+003;9.970273e-002
3.164747e+003;1.000597e-001
3.166676e+003;1.007427e-001
3.168604e+003;1.013779e-001
3.170533e+003;1.019443e-001
3.172461e+003;1.022767e-001
3.174390e+003;1.025473e-001
3.176319e+003;1.031531e-001
3.178247e+003;1.038706e-001
3.180176e+003;1.049399e-001
3.182104e+003;1.059435e-001
3.184033e+003;1.065688e-001
3.185961e+003;1.069520e-001
3.187890e+003;1.074890e-001
3.189818e+003;1.086196e-001
3.191747e+003;1.094108e-001
3.193676e+003;1.095375e-001
3.195604e+003;1.095487e-001
3.197532e+003;1.098709e-001
3.199461e+003;1.110513e-001
3.201390e+003;1.124398e-001
3.203318e+003;1.134652e-001
3.205247e+003;1.140554e-001
3.207175e+003;1.146294e-001
3.209104e+003;1.153844e-001
3.211032e+003;1.163116e-001
3.212961e+003;1.171671e-001
3.214889e+003;1.179698e-001
3.216818e+003;1.187696e-001
3.218747e+003;1.194000e-001
3.220675e+003;1.201647e-001
3.222604e+003;1.211590e-001
3.224532e+003;1.225014e-001
3.226461e+003;1.238798e-001
3.228389e+003;1.249184e-001
3.230318e+003;1.255213e-001
3.232246e+003;1.261521e-001
3.234175e+003;1.271610e-001
3.236104e+003;1.281954e-001
3.238032e+003;1.286771e-001
3.239961e+003;1.294967e-001
3.241889e+003;1.311784e-001
3.243818e+003;1.327826e-001
3.245746e+003;1.338192e-001
3.247675e+003;1.349978e-001
3.249603e+003;1.367005e-001
3.251532e+003;1.383204e-001
3.253460e+003;1.390221e-001
3.255389e+003;1.402001e-001
3.257318e+003;1.424887e-001
3.259246e+003;1.447700e-001
3.261175e+003;1.457691e-001
3.263103e+003;1.466564e-001
3.265032e+003;1.488564e-001
3.266960e+003;1.503844e-001
3.268889e+003;1.512380e-001
3.270817e+003;1.520761e-001
3.272746e+003;1.530159e-001
3.274675e+003;1.540263e-001
3.276603e+003;1.547461e-001
3.278531e+003;1.558932e-001
3.280460e+003;1.566837e-001
3.282389e+003;1.566584e-001
3.284317e+003;1.567257e-001
3.286246e+003;1.568277e-001
3.288174e+003;1.571207e-001
3.290103e+003;1.576166e-001
3.292031e+003;1.582595e-001
3.293960e+003;1.583249e-001
3.295888e+003;1.582946e-001
3.297817e+003;1.585888e-001
3.299746e+003;1.583725e-001
3.301674e+003;1.582157e-001
3.303603e+003;1.584892e-001
3.305531e+003;1.586682e-001
3.307460e+003;1.585537e-001
3.309388e+003;1.581558e-001
3.311317e+003;1.580430e-001
3.313245e+003;1.589928e-001
3.315174e+003;1.603440e-001
3.317103e+003;1.609305e-001
3.319031e+003;1.611428e-001
3.320960e+003;1.610469e-001
3.322888e+003;1.615547e-001
3.324817e+003;1.632402e-001
3.326745e+003;1.640448e-001
3.328674e+003;1.641163e-001
3.330602e+003;1.652755e-001
3.332531e+003;1.662584e-001
3.334459e+003;1.661435e-001
3.336388e+003;1.661246e-001
3.338317e+003;1.662924e-001
3.340245e+003;1.662859e-001
3.342174e+003;1.659558e-001
3.344102e+003;1.651723e-001
3.346031e+003;1.636294e-001
3.347959e+003;1.624429e-001
3.349888e+003;1.617661e-001
3.351816e+003;1.607068e-001
3.353745e+003;1.595611e-001
3.355674e+003;1.583601e-001
3.357602e+003;1.572331e-001
3.359531e+003;1.563053e-001
3.361459e+003;1.550204e-001
3.363388e+003;1.534682e-001
3.365316e+003;1.524996e-001
3.367245e+003;1.521233e-001
3.369173e+003;1.513448e-001
3.371102e+003;1.506696e-001
3.373031e+003;1.502013e-001
3.374959e+003;1.488939e-001
3.376887e+003;1.480690e-001
3.378816e+003;1.473691e-001
3.380745e+003;1.460145e-001
3.382673e+003;1.456639e-001
3.384602e+003;1.451979e-001
3.386530e+003;1.441446e-001
3.388459e+003;1.433601e-001
3.390387e+003;1.424311e-001
3.392316e+003;1.416314e-001
3.394244e+003;1.412283e-001
3.396173e+003;1.410194e-001
3.398102e+003;1.407842e-001
3.400030e+003;1.403233e-001
3.401959e+003;1.395228e-001
3.403887e+003;1.385057e-001
3.405816e+003;1.374545e-001
3.407744e+003;1.365373e-001
3.409673e+003;1.358760e-001
3.411601e+003;1.349072e-001
3.413530e+003;1.336843e-001
3.415458e+003;1.322864e-001
3.417387e+003;1.305982e-001
3.419316e+003;1.297238e-001
3.421244e+003;1.293267e-001
3.423173e+003;1.285428e-001
3.425101e+003;1.275852e-001
3.427030e+003;1.266124e-001
3.428958e+003;1.252930e-001
3.430887e+003;1.241999e-001
3.432815e+003;1.227948e-001
3.434744e+003;1.214257e-001
3.436673e+003;1.210387e-001
3.438601e+003;1.200423e-001
3.440530e+003;1.181789e-001
3.442458e+003;1.169794e-001
3.444387e+003;1.162472e-001
3.446315e+003;1.151401e-001
3.448244e+003;1.140849e-001
3.450172e+003;1.133642e-001
3.452101e+003;1.124941e-001
3.454030e+003;1.114112e-001
3.455958e+003;1.100112e-001
3.457886e+003;1.090248e-001
3.459815e+003;1.079879e-001
3.461744e+003;1.068564e-001
3.463672e+003;1.060159e-001
3.465601e+003;1.053058e-001
3.467529e+003;1.048758e-001
3.469458e+003;1.038836e-001
3.471386e+003;1.022934e-001
3.473315e+003;1.007722e-001
3.475243e+003;9.950557e-002
3.477172e+003;9.883402e-002
3.479101e+003;9.861017e-002
3.481029e+003;9.780103e-002
3.482958e+003;9.646935e-002
3.484886e+003;9.508960e-002
3.486815e+003;9.376191e-002
3.488743e+003;9.327555e-002
3.490672e+003;9.302315e-002
3.492600e+003;9.226950e-002
3.494529e+003;9.111086e-002
3.496458e+003;8.992476e-002
3.498386e+003;8.913081e-002
3.500315e+003;8.812843e-002
3.502243e+003;8.694979e-002
3.504172e+003;8.608749e-002
3.506100e+003;8.550791e-002
3.508029e+003;8.492130e-002
3.509957e+003;8.435061e-002
3.511886e+003;8.340430e-002
3.513814e+003;8.229619e-002
3.515743e+003;8.174605e-002
3.517672e+003;8.119921e-002
3.519600e+003;8.049393e-002
3.521529e+003;7.966332e-002
3.523457e+003;7.794107e-002
3.525386e+003;7.733454e-002
3.527314e+003;7.730334e-002
3.529243e+003;7.610370e-002
3.531171e+003;7.481886e-002
3.533100e+003;7.400221e-002
3.535029e+003;7.357146e-002
3.536957e+003;7.316180e-002
3.538885e+003;7.292133e-002
3.540814e+003;7.242807e-002
3.542743e+003;7.163164e-002
3.544671e+003;7.081058e-002
3.546600e+003;6.996962e-002
3.548528e+003;6.943914e-002
3.550457e+003;6.884649e-002
3.552385e+003;6.813035e-002
3.554314e+003;6.736568e-002
3.556242e+003;6.712526e-002
3.558171e+003;6.688792e-002
3.560100e+003;6.579345e-002
3.562028e+003;6.488135e-002
3.563957e+003;6.475148e-002
3.565885e+003;6.443594e-002
3.567814e+003;6.402685e-002
3.569742e+003;6.358601e-002
3.571671e+003;6.257958e-002
3.573599e+003;6.173762e-002
3.575528e+003;6.210067e-002
3.577457e+003;6.207498e-002
3.579385e+003;6.091174e-002
3.581314e+003;6.002914e-002
3.583242e+003;6.003078e-002
3.585171e+003;6.029634e-002
3.587099e+003;5.970683e-002
3.589028e+003;5.849228e-002
3.590956e+003;5.792724e-002
3.592885e+003;5.758313e-002
3.594813e+003;5.742888e-002
3.596742e+003;5.709643e-002
3.598671e+003;5.663950e-002
3.600599e+003;5.581503e-002
3.602528e+003;5.547508e-002
3.604456e+003;5.552486e-002
3.606385e+003;5.476242e-002
3.608313e+003;5.379863e-002
3.610242e+003;5.343743e-002
3.612170e+003;5.336796e-002
3.614099e+003;5.349593e-002
3.616028e+003;5.331825e-002
3.617956e+003;5.227480e-002
3.619885e+003;5.108057e-002
3.621813e+003;5.040093e-002
3.623742e+003;5.050747e-002
3.625670e+003;5.104557e-002
3.627599e+003;5.122997e-002
3.629527e+003;5.114348e-002
3.631456e+003;5.061774e-002
3.633385e+003;4.955300e-002
3.635313e+003;4.913520e-002
3.637241e+003;4.906539e-002
3.639170e+003;4.842860e-002
3.641099e+003;4.782533e-002
3.643027e+003;4.725426e-002
3.644956e+003;4.705704e-002
3.646884e+003;4.688950e-002
3.648813e+003;4.690316e-002
3.650741e+003;4.651508e-002
3.652670e+003;4.579475e-002
3.654598e+003;4.533130e-002
3.656527e+003;4.487842e-002
3.658456e+003;4.485486e-002
3.660384e+003;4.515785e-002
3.662313e+003;4.455573e-002
3.664241e+003;4.350170e-002
3.666170e+003;4.303151e-002
3.668098e+003;4.284164e-002
3.670027e+003;4.221179e-002
3.671955e+003;4.200249e-002
3.673884e+003;4.194778e-002
3.675813e+003;4.150049e-002
3.677741e+003;4.143221e-002
3.679669e+003;4.110020e-002
3.681598e+003;4.080607e-002
3.683527e+003;4.039642e-002
3.685455e+003;4.040740e-002
3.687384e+003;4.079079e-002
3.689312e+003;4.065734e-002
3.691241e+003;4.007962e-002
3.693169e+003;4.011131e-002
3.695098e+003;4.029850e-002
3.697026e+003;4.004812e-002
3.698955e+003;3.991603e-002
3.700884e+003;3.983278e-002
3.702812e+003;4.002476e-002
3.704741e+003;3.979080e-002
3.706669e+003;3.898123e-002
3.708598e+003;3.876312e-002
3.710526e+003;3.931043e-002
3.712455e+003;3.993525e-002
3.714383e+003;3.963929e-002
3.716312e+003;3.889468e-002
3.718240e+003;3.872371e-002
3.720169e+003;3.890095e-002
3.722098e+003;3.926374e-002
3.724026e+003;3.931282e-002
3.725955e+003;3.949963e-002
3.727883e+003;3.983220e-002
3.729812e+003;3.905978e-002
3.731740e+003;3.827718e-002
3.733669e+003;3.841710e-002
3.735597e+003;3.799954e-002
3.737526e+003;3.745171e-002
3.739455e+003;3.731333e-002
3.741383e+003;3.713074e-002
3.743312e+003;3.772962e-002
3.745240e+003;3.811712e-002
3.747169e+003;3.755701e-002
3.749097e+003;3.686357e-002
3.751026e+003;3.679976e-002
3.752954e+003;3.776306e-002
3.754883e+003;3.832061e-002
3.756812e+003;3.810370e-002
3.758740e+003;3.788538e-002
3.760668e+003;3.781023e-002
3.762597e+003;3.771365e-002
3.764526e+003;3.767961e-002
3.766454e+003;3.789522e-002
3.768383e+003;3.785129e-002
3.770311e+003;3.819262e-002
3.772240e+003;3.823705e-002
3.774168e+003;3.773870e-002
3.776097e+003;3.758031e-002
3.778025e+003;3.815775e-002
3.779954e+003;3.817956e-002
3.781883e+003;3.793325e-002
3.783811e+003;3.753880e-002
3.785740e+003;3.702186e-002
3.787668e+003;3.711342e-002
3.789597e+003;3.755062e-002
3.791525e+003;3.742379e-002
3.793454e+003;3.740082e-002
3.795382e+003;3.769507e-002
3.797311e+003;3.809448e-002
3.799240e+003;3.793300e-002
3.801168e+003;3.736565e-002
3.803097e+003;3.739703e-002
3.805025e+003;3.782685e-002
3.806954e+003;3.786969e-002
3.808882e+003;3.802012e-002
3.810811e+003;3.823387e-002
3.812739e+003;3.866303e-002
3.814668e+003;3.897485e-002
3.816596e+003;3.802840e-002
3.818525e+003;3.753598e-002
3.820454e+003;3.806109e-002
3.822382e+003;3.814353e-002
3.824311e+003;3.794786e-002
3.826239e+003;3.812016e-002
3.828168e+003;3.817207e-002
3.830096e+003;3.803701e-002
3.832025e+003;3.827038e-002
3.833953e+003;3.812161e-002
3.835882e+003;3.796023e-002
3.837811e+003;3.878370e-002
3.839739e+003;3.951030e-002
3.841667e+003;3.957425e-002
3.843596e+003;3.913098e-002
3.845525e+003;3.918653e-002
3.847453e+003;3.977399e-002
3.849382e+003;3.990695e-002
3.851310e+003;3.951110e-002
3.853239e+003;3.935595e-002
3.855167e+003;3.964753e-002
3.857096e+003;3.994502e-002
3.859024e+003;3.996656e-002
3.860953e+003;4.003987e-002
3.862882e+003;3.969175e-002
3.864810e+003;3.908697e-002
3.866739e+003;3.886964e-002
3.868667e+003;3.875580e-002
3.870596e+003;3.904800e-002
3.872524e+003;3.988530e-002
3.874453e+003;4.030269e-002
3.876381e+003;4.055907e-002
3.878310e+003;4.037795e-002
3.880239e+003;3.988450e-002
3.882167e+003;4.016245e-002
3.884096e+003;4.110311e-002
3.886024e+003;4.050349e-002
3.887953e+003;3.970195e-002
3.889881e+003;3.993085e-002
3.891810e+003;4.061943e-002
3.893738e+003;4.102386e-002
3.895667e+003;4.054521e-002
3.897595e+003;4.037919e-002
3.899524e+003;4.099098e-002
3.901453e+003;4.126311e-002
3.903381e+003;4.055063e-002
3.905310e+003;4.028138e-002
3.907238e+003;4.124719e-002
3.909167e+003;4.102386e-002
3.911095e+003;4.015761e-002
3.913024e+003;4.095533e-002
3.914952e+003;4.239671e-002
3.916881e+003;4.282884e-002
3.918810e+003;4.255204e-002
3.920738e+003;4.259757e-002
3.922667e+003;4.180416e-002
3.924595e+003;4.098832e-002
3.926524e+003;4.118452e-002
3.928452e+003;4.172209e-002
3.930381e+003;4.204283e-002
3.932309e+003;4.220711e-002
3.934238e+003;4.214782e-002
3.936167e+003;4.209794e-002
3.938095e+003;4.178775e-002
3.940023e+003;4.104469e-002
3.941952e+003;4.126704e-002
3.943881e+003;4.205118e-002
3.945809e+003;4.246031e-002
3.947738e+003;4.257341e-002
3.949666e+003;4.280430e-002
3.951595e+003;4.330266e-002
3.953523e+003;4.355181e-002
3.955452e+003;4.338899e-002
3.957380e+003;4.303353e-002
3.959309e+003;4.360840e-002
3.961238e+003;4.379154e-002
3.963166e+003;4.288969e-002
3.965095e+003;4.221058e-002
3.967023e+003;4.247150e-002
3.968952e+003;4.251260e-002
3.970880e+003;4.277758e-002
3.972809e+003;4.329643e-002
3.974737e+003;4.359646e-002
3.976666e+003;4.331726e-002
3.978594e+003;4.340821e-002
3.980523e+003;4.427870e-002
3.982452e+003;4.439678e-002
3.984380e+003;4.376856e-002
3.986309e+003;4.383889e-002
3.988237e+003;4.459035e-002
3.990166e+003;4.423849e-002
3.992094e+003;4.320489e-002
3.994023e+003;4.302752e-002
3.995951e+003;4.331832e-002
3.997880e+003;4.298187e-002
3.999809e+003;4.326352e-002
4.001737e+003;0.000000e+000
