3.992094e+002;0.000000e+000
4.011380e+002;0.000000e+000
4.030665e+002;0.000000e+000
4.049951e+002;0.000000e+000
4.069236e+002;0.000000e+000
4.088522e+002;0.000000e+000
4.107807e+002;0.000000e+000
4.127093e+002;0.000000e+000
4.146378e+002;0.000000e+000
4.165664e+002;0.000000e+000
4.184949e+002;0.000000e+000
4.204235e+002;0.000000e+000
4.223520e+002;0.000000e+000
4.242806e+002;0.000000e+000
4.262091e+002;0.000000e+000
4.281377e+002;0.000000e+000
4.300662e+002;0.000000e+000
4.319948e+002;0.000000e+000
4.339233e+002;0.000000e+000
4.358519e+002;0.000000e+000
4.377804e+002;0.000000e+000
4.397090e+002;0.000000e+000
4.416375e+002;0.000000e+000
4.435660e+002;0.000000e+000
4.454946e+002;0.000000e+000
4.474232e+002;0.000000e+000
4.493517e+002;0.000000e+000
4.512802e+002;0.000000e+000
4.532088e+002;0.000000e+000
4.551373e+002;0.000000e+000
4.570659e+002;0.000000e+000
4.589944e+002;0.000000e+000
4.609230e+002;0.000000e+000
4.628515e+002;0.000000e+000
4.647801e+002;0.000000e+000
4.667086e+002;0.000000e+000
4.686372e+002;0.000000e+000
4.705657e+002;0.000000e+000
4.724943e+002;0.000000e+000
4.744228e+002;0.000000e+000
4.763513e+002;0.000000e+000
4.782799e+002;0.000000e+000
4.802085e+002;0.000000e+000
4.821370e+002;0.000000e+000
4.840656e+002;0.000000e+000
4.859941e+002;0.000000e+000
4.879226e+002;0.000000e+000
4.898512e+002;0.000000e+000
4.917798e+002;0.000000e+000
4.937083e+002;0.000000e+000
4.956368e+002;0.000000e+000
4.975654e+002;0.000000e+000
4.994939e+002;0.000000e+000
5.014225e+002;0.000000e+000
5.033510e+002;0.000000e+000
5.052796e+002;0.000000e+000
5.072081e+002;0.000000e+000
5.091367e+002;0.000000e+000
5.110652e+002;0.000000e+000
5.129938e+002;0.000000e+000
5.149223e+002;0.000000e+000
5.168509e+002;0.000000e+000
5.187794e+002;0.000000e+000
5.207079e+002;0.000000e+000
5.226365e+002;0.000000e+000
5.245651e+002;0.000000e+000
5.264936e+002;0.000000e+000
5.284222e+002;0.000000e+000
5.303507e+002;0.000000e+000
5.322792e+002;0.000000e+000
5.342078e+002;0.000000e+000
5.361364e+002;0.000000e+000
5.380649e+002;0.000000e+000
5.399935e+002;0.000000e+000
5.419220e+002;0.000000e+000
5.438505e+002;0.000000e+000
5.457791e+002;0.000000e+000
5.477076e+002;0.000000e+000
5.496362e+002;0.000000e+000
5.515648e+002;0.000000e+000
5.534933e+002;0.000000e+000
5.554218e+002;0.000000e+000
5.573504e+002;0.000000e+000
5.592789e+002;0.000000e+000
5.612075e+002;0.000000e+000
5.631360e+002;0.000000e+000
5.650646e+002;0.000000e+000
5.669931e+002;0.000000e+000
5.689217e+002;0.000000e+000
5.708502e+002;0.000000e+000
5.727787e+002;0.000000e+000
5.747073e+002;0.000000e+000
5.766359e+002;0.000000e+000
5.785644e+002;0.000000e+000
5.804930e+002;0.000000e+000
5.824215e+002;0.000000e+000
5.843500e+002;0.000000e+000
5.862786e+002;0.000000e+000
5.882072e+002;0.000000e+000
5.901357e+002;0.000000e+000
5.920643e+002;0.000000e+000
5.939928e+002;0.000000e+000
5.959213e+002;0.000000e+000
5.978499e+002;0.000000e+000
5.997784e+002;3.065864e-001
6.017070e+002;3.002689e-001
6.036355e+002;2.913020e-001
6.055641e+002;2.942794e-001
6.074926e+002;2.930846e-001
6.094211e+002;2.915994e-001
6.113497e+002;2.916071e-001
6.132783e+002;2.980827e-001
6.152068e+002;2.966643e-001
6.171354e+002;2.882810e-001
6.190639e+002;2.859348e-001
6.209924e+002;2.848313e-001
6.229210e+002;2.785734e-001
6.248495e+002;2.692254e-001
6.267781e+002;2.640226e-001
6.287067e+002;2.634840e-001
6.306352e+002;2.596523e-001
6.325637e+002;2.520111e-001
6.344923e+002;2.509324e-001
6.364208e+002;2.511676e-001
6.383494e+002;2.497074e-001
6.402780e+002;2.488812e-001
6.422065e+002;2.471138e-001
6.441350e+002;2.460765e-001
6.460636e+002;2.454014e-001
6.479921e+002;2.423179e-001
6.499207e+002;2.409471e-001
6.518492e+002;2.478317e-001
6.537778e+002;2.534033e-001
6.557063e+002;2.531074e-001
6.576349e+002;2.541942e-001
6.595634e+002;2.583037e-001
6.614919e+002;2.637327e-001
6.634205e+002;2.667404e-001
6.653491e+002;2.639365e-001
6.672776e+002;2.595300e-001
6.692062e+002;2.565169e-001
6.711347e+002;2.539905e-001
6.730632e+002;2.480764e-001
6.749918e+002;2.404557e-001
6.769203e+002;2.326311e-001
6.788489e+002;2.250666e-001
6.807775e+002;2.193386e-001
6.827060e+002;2.146019e-001
6.846345e+002;2.125202e-001
6.865631e+002;2.118373e-001
6.884916e+002;2.106782e-001
6.904202e+002;2.096564e-001
6.923488e+002;2.084116e-001
6.942773e+002;2.068110e-001
6.962058e+002;2.063826e-001
6.981344e+002;2.069431e-001
7.000629e+002;2.067086e-001
7.019915e+002;2.049199e-001
7.039200e+002;2.019352e-001
7.058486e+002;2.000721e-001
7.077771e+002;1.982748e-001
7.097057e+002;1.962312e-001
7.116342e+002;1.946740e-001
7.135627e+002;1.925110e-001
7.154913e+002;1.891491e-001
7.174199e+002;1.850255e-001
7.193484e+002;1.813903e-001
7.212770e+002;1.780995e-001
7.232055e+002;1.736850e-001
7.251340e+002;1.693590e-001
7.270626e+002;1.656781e-001
7.289911e+002;1.629595e-001
7.309197e+002;1.595952e-001
7.328483e+002;1.563631e-001
7.347768e+002;1.549246e-001
7.367053e+002;1.530151e-001
7.386339e+002;1.503118e-001
7.405624e+002;1.483233e-001
7.424910e+002;1.466230e-001
7.444196e+002;1.448363e-001
7.463481e+002;1.437504e-001
7.482766e+002;1.431509e-001
7.502052e+002;1.414838e-001
7.521337e+002;1.389927e-001
7.540623e+002;1.371608e-001
7.559908e+002;1.364917e-001
7.579194e+002;1.349884e-001
7.598479e+002;1.333813e-001
7.617765e+002;1.317550e-001
7.637050e+002;1.303292e-001
7.656335e+002;1.291301e-001
7.675621e+002;1.279296e-001
7.694907e+002;1.272466e-001
7.714192e+002;1.268116e-001
7.733478e+002;1.258804e-001
7.752763e+002;1.246004e-001
7.772048e+002;1.240666e-001
7.791334e+002;1.235225e-001
7.810620e+002;1.238886e-001
7.829905e+002;1.243389e-001
7.849191e+002;1.235053e-001
7.868476e+002;1.223392e-001
7.887761e+002;1.225376e-001
7.907047e+002;1.223725e-001
7.926332e+002;1.218797e-001
7.945618e+002;1.220307e-001
7.964903e+002;1.218427e-001
7.984189e+002;1.213223e-001
8.003474e+002;1.210242e-001
8.022759e+002;1.211810e-001
8.042045e+002;1.219125e-001
8.061331e+002;1.220671e-001
8.080616e+002;1.220448e-001
8.099902e+002;1.221438e-001
8.119187e+002;1.214914e-001
8.138472e+002;1.204949e-001
8.157758e+002;1.195842e-001
8.177043e+002;1.184695e-001
8.196329e+002;1.173438e-001
8.215615e+002;1.164335e-001
8.234900e+002;1.154906e-001
8.254185e+002;1.146601e-001
8.273471e+002;1.144496e-001
8.292756e+002;1.143675e-001
8.312042e+002;1.142241e-001
8.331328e+002;1.141412e-001
8.350613e+002;1.138539e-001
8.369898e+002;1.132283e-001
8.389184e+002;1.128449e-001
8.408469e+002;1.137801e-001
8.427755e+002;1.149807e-001
8.447040e+002;1.151000e-001
8.466326e+002;1.146292e-001
8.485611e+002;1.146215e-001
8.504897e+002;1.152770e-001
8.524182e+002;1.163347e-001
8.543467e+002;1.173231e-001
8.562753e+002;1.184315e-001
8.582039e+002;1.195076e-001
8.601324e+002;1.215060e-001
8.620610e+002;1.241078e-001
8.639895e+002;1.267267e-001
8.659180e+002;1.290984e-001
8.678466e+002;1.314075e-001
8.697751e+002;1.337142e-001
8.717037e+002;1.364373e-001
8.736323e+002;1.391920e-001
8.755608e+002;1.411108e-001
8.774893e+002;1.426904e-001
8.794179e+002;1.441933e-001
8.813464e+002;1.462003e-001
8.832750e+002;1.495444e-001
8.852036e+002;1.529347e-001
8.871321e+002;1.563678e-001
8.890606e+002;1.596743e-001
8.909892e+002;1.622851e-001
8.929177e+002;1.646261e-001
8.948463e+002;1.664602e-001
8.967748e+002;1.669204e-001
8.987034e+002;1.663984e-001
9.006319e+002;1.655053e-001
9.025605e+002;1.635673e-001
9.044890e+002;1.612449e-001
9.064175e+002;1.590825e-001
9.083461e+002;1.564187e-001
9.102747e+002;1.539774e-001
9.122032e+002;1.527636e-001
9.141318e+002;1.517917e-001
9.160603e+002;1.508985e-001
9.179888e+002;1.506070e-001
9.199174e+002;1.510104e-001
9.218459e+002;1.520728e-001
9.237745e+002;1.532352e-001
9.257031e+002;1.543492e-001
9.276316e+002;1.562260e-001
9.295601e+002;1.584114e-001
9.314887e+002;1.604680e-001
9.334172e+002;1.628814e-001
9.353458e+002;1.650945e-001
9.372744e+002;1.668022e-001
9.392029e+002;1.691395e-001
9.411314e+002;1.721468e-001
9.430600e+002;1.746731e-001
9.449885e+002;1.769248e-001
9.469171e+002;1.802000e-001
9.488456e+002;1.840724e-001
9.507742e+002;1.880421e-001
9.527027e+002;1.924860e-001
9.546313e+002;1.971556e-001
9.565598e+002;2.021782e-001
9.584883e+002;2.080807e-001
9.604169e+002;2.142302e-001
9.623455e+002;2.210504e-001
9.642740e+002;2.285300e-001
9.662026e+002;2.361790e-001
9.681311e+002;2.448081e-001
9.700596e+002;2.549333e-001
9.719882e+002;2.666562e-001
9.739167e+002;2.804789e-001
9.758453e+002;2.969367e-001
9.777739e+002;3.157007e-001
9.797024e+002;3.348563e-001
9.816309e+002;3.527351e-001
9.835595e+002;3.661285e-001
9.854880e+002;3.725069e-001
9.874166e+002;3.747206e-001
9.893452e+002;3.767401e-001
9.912737e+002;3.816340e-001
9.932022e+002;3.894181e-001
9.951307e+002;3.983458e-001
9.970593e+002;4.075239e-001
9.989879e+002;4.161189e-001
1.000916e+003;4.231366e-001
1.002845e+003;4.268504e-001
1.004773e+003;4.280578e-001
1.006702e+003;4.286937e-001
1.008631e+003;4.296261e-001
1.010559e+003;4.329912e-001
1.012488e+003;4.382387e-001
1.014416e+003;4.447325e-001
1.016345e+003;4.524162e-001
1.018273e+003;4.597576e-001
1.020202e+003;4.660371e-001
1.022130e+003;4.725695e-001
1.024059e+003;4.791504e-001
1.025988e+003;4.866630e-001
1.027916e+003;4.926287e-001
1.029845e+003;4.944643e-001
1.031773e+003;4.917821e-001
1.033702e+003;4.859364e-001
1.035630e+003;4.773494e-001
1.037559e+003;4.668003e-001
1.039487e+003;4.573171e-001
1.041416e+003;4.512284e-001
1.043344e+003;4.493601e-001
1.045273e+003;4.512042e-001
1.047202e+003;4.558233e-001
1.049130e+003;4.602192e-001
1.051059e+003;4.636608e-001
1.052987e+003;4.651625e-001
1.054916e+003;4.625422e-001
1.056844e+003;4.559059e-001
1.058773e+003;4.438446e-001
1.060701e+003;4.261211e-001
1.062630e+003;4.051731e-001
1.064558e+003;3.840610e-001
1.066487e+003;3.652190e-001
1.068416e+003;3.488396e-001
1.070344e+003;3.353069e-001
1.072273e+003;3.247591e-001
1.074201e+003;3.169341e-001
1.076130e+003;3.099150e-001
1.078058e+003;3.028977e-001
1.079987e+003;2.976878e-001
1.081915e+003;2.938620e-001
1.083844e+003;2.912406e-001
1.085773e+003;2.902750e-001
1.087701e+003;2.902468e-001
1.089630e+003;2.900005e-001
1.091558e+003;2.898311e-001
1.093487e+003;2.915132e-001
1.095415e+003;2.951557e-001
1.097344e+003;2.979333e-001
1.099272e+003;2.989349e-001
1.101201e+003;2.992936e-001
1.103129e+003;2.991448e-001
1.105058e+003;2.969759e-001
1.106987e+003;2.931882e-001
1.108915e+003;2.882502e-001
1.110844e+003;2.810021e-001
1.112772e+003;2.706374e-001
1.114701e+003;2.579038e-001
1.116629e+003;2.442303e-001
1.118558e+003;2.315922e-001
1.120486e+003;2.216891e-001
1.122415e+003;2.140278e-001
1.124344e+003;2.063385e-001
1.126272e+003;1.975196e-001
1.128201e+003;1.890198e-001
1.130129e+003;1.820848e-001
1.132058e+003;1.762659e-001
1.133986e+003;1.712700e-001
1.135915e+003;1.677989e-001
1.137843e+003;1.656412e-001
1.139772e+003;1.648924e-001
1.141700e+003;1.659021e-001
1.143629e+003;1.676667e-001
1.145557e+003;1.699739e-001
1.147486e+003;1.719591e-001
1.149415e+003;1.732570e-001
1.151343e+003;1.742555e-001
1.153272e+003;1.752872e-001
1.155200e+003;1.765914e-001
1.157129e+003;1.772185e-001
1.159057e+003;1.769369e-001
1.160986e+003;1.754635e-001
1.162914e+003;1.717616e-001
1.164843e+003;1.653585e-001
1.166771e+003;1.571737e-001
1.168700e+003;1.483030e-001
1.170629e+003;1.393474e-001
1.172557e+003;1.313042e-001
1.174486e+003;1.241327e-001
1.176414e+003;1.183575e-001
1.178343e+003;1.137768e-001
1.180271e+003;1.102323e-001
1.182200e+003;1.080354e-001
1.184128e+003;1.065987e-001
1.186057e+003;1.064381e-001
1.187986e+003;1.075393e-001
1.189914e+003;1.094492e-001
1.191843e+003;1.117144e-001
1.193771e+003;1.145094e-001
1.195700e+003;1.173042e-001
1.197628e+003;1.195018e-001
1.199557e+003;1.213994e-001
1.201485e+003;1.225840e-001
1.203414e+003;1.224199e-001
1.205343e+003;1.211990e-001
1.207271e+003;1.182463e-001
1.209200e+003;1.137942e-001
1.211128e+003;1.093529e-001
1.213057e+003;1.059221e-001
1.214985e+003;1.044350e-001
1.216914e+003;1.048551e-001
1.218842e+003;1.061622e-001
1.220771e+003;1.075524e-001
1.222699e+003;1.093581e-001
1.224628e+003;1.116188e-001
1.226557e+003;1.137365e-001
1.228485e+003;1.155454e-001
1.230414e+003;1.173637e-001
1.232342e+003;1.193116e-001
1.234271e+003;1.206985e-001
1.236199e+003;1.213372e-001
1.238128e+003;1.217460e-001
1.240056e+003;1.221095e-001
1.241985e+003;1.226820e-001
1.243913e+003;1.238531e-001
1.245842e+003;1.252381e-001
1.247771e+003;1.257027e-001
1.249699e+003;1.253860e-001
1.251628e+003;1.250614e-001
1.253556e+003;1.247214e-001
1.255485e+003;1.250366e-001
1.257413e+003;1.258616e-001
1.259342e+003;1.262026e-001
1.261270e+003;1.260819e-001
1.263199e+003;1.256995e-001
1.265127e+003;1.255175e-001
1.267056e+003;1.258830e-001
1.268985e+003;1.263336e-001
1.270913e+003;1.267549e-001
1.272842e+003;1.274580e-001
1.274770e+003;1.280829e-001
1.276699e+003;1.284619e-001
1.278627e+003;1.282201e-001
1.280556e+003;1.274700e-001
1.282484e+003;1.264494e-001
1.284413e+003;1.253603e-001
1.286342e+003;1.246525e-001
1.288270e+003;1.247287e-001
1.290199e+003;1.257079e-001
1.292127e+003;1.269332e-001
1.294056e+003;1.282116e-001
1.295984e+003;1.296357e-001
1.297913e+003;1.315330e-001
1.299841e+003;1.341399e-001
1.301770e+003;1.378165e-001
1.303698e+003;1.422980e-001
1.305627e+003;1.470789e-001
1.307556e+003;1.523619e-001
1.309484e+003;1.575912e-001
1.311413e+003;1.617286e-001
1.313341e+003;1.643108e-001
1.315270e+003;1.648575e-001
1.317198e+003;1.628863e-001
1.319127e+003;1.593829e-001
1.321055e+003;1.552878e-001
1.322984e+003;1.517617e-001
1.324912e+003;1.493327e-001
1.326841e+003;1.478899e-001
1.328770e+003;1.479309e-001
1.330698e+003;1.490714e-001
1.332627e+003;1.502719e-001
1.334555e+003;1.507613e-001
1.336484e+003;1.502052e-001
1.338412e+003;1.484140e-001
1.340341e+003;1.457506e-001
1.342269e+003;1.425559e-001
1.344198e+003;1.394144e-001
1.346126e+003;1.368426e-001
1.348055e+003;1.351439e-001
1.349984e+003;1.346833e-001
1.351912e+003;1.353731e-001
1.353841e+003;1.366604e-001
1.355769e+003;1.379799e-001
1.357698e+003;1.392653e-001
1.359626e+003;1.403313e-001
1.361555e+003;1.405550e-001
1.363483e+003;1.398994e-001
1.365412e+003;1.390737e-001
1.367341e+003;1.383479e-001
1.369269e+003;1.372831e-001
1.371198e+003;1.354485e-001
1.373126e+003;1.328689e-001
1.375055e+003;1.296846e-001
1.376983e+003;1.260727e-001
1.378912e+003;1.223867e-001
1.380840e+003;1.190116e-001
1.382769e+003;1.161209e-001
1.384698e+003;1.133751e-001
1.386626e+003;1.111312e-001
1.388555e+003;1.096384e-001
1.390483e+003;1.087049e-001
1.392412e+003;1.081145e-001
1.394340e+003;1.076659e-001
1.396269e+003;1.074810e-001
1.398197e+003;1.075231e-001
1.400126e+003;1.077370e-001
1.402054e+003;1.082574e-001
1.403983e+003;1.087939e-001
1.405911e+003;1.090117e-001
1.407840e+003;1.091394e-001
1.409769e+003;1.096577e-001
1.411697e+003;1.106431e-001
1.413626e+003;1.120617e-001
1.415554e+003;1.134386e-001
1.417483e+003;1.147490e-001
1.419411e+003;1.166758e-001
1.421340e+003;1.185939e-001
1.423268e+003;1.198539e-001
1.425197e+003;1.206616e-001
1.427125e+003;1.211841e-001
1.429054e+003;1.211852e-001
1.430983e+003;1.201486e-001
1.432911e+003;1.183274e-001
1.434840e+003;1.161089e-001
1.436768e+003;1.139384e-001
1.438697e+003;1.124092e-001
1.440625e+003;1.110750e-001
1.442554e+003;1.101117e-001
1.444482e+003;1.095120e-001
1.446411e+003;1.087866e-001
1.448340e+003;1.080997e-001
1.450268e+003;1.079034e-001
1.452197e+003;1.071440e-001
1.454125e+003;1.054768e-001
1.456054e+003;1.040060e-001
1.457982e+003;1.029189e-001
1.459911e+003;1.016918e-001
1.461839e+003;9.973237e-002
1.463768e+003;9.744459e-002
1.465697e+003;9.536755e-002
1.467625e+003;9.324947e-002
1.469554e+003;9.086306e-002
1.471482e+003;8.870804e-002
1.473411e+003;8.672284e-002
1.475339e+003;8.505008e-002
1.477268e+003;8.351240e-002
1.479196e+003;8.197889e-002
1.481125e+003;8.044508e-002
1.483053e+003;7.865460e-002
1.484982e+003;7.648094e-002
1.486911e+003;7.431027e-002
1.488839e+003;7.227992e-002
1.490768e+003;7.095830e-002
1.492696e+003;7.014521e-002
1.494625e+003;6.927926e-002
1.496553e+003;6.845394e-002
1.498482e+003;6.778586e-002
1.500410e+003;6.750952e-002
1.502339e+003;6.736192e-002
1.504267e+003;6.701649e-002
1.506196e+003;6.652772e-002
1.508125e+003;6.631459e-002
1.510053e+003;6.617813e-002
1.511982e+003;6.573625e-002
1.513910e+003;6.554236e-002
1.515839e+003;6.539692e-002
1.517767e+003;6.507976e-002
1.519696e+003;6.483495e-002
1.521624e+003;6.472075e-002
1.523553e+003;6.475102e-002
1.525481e+003;6.458128e-002
1.527410e+003;6.446312e-002
1.529339e+003;6.447437e-002
1.531267e+003;6.431401e-002
1.533196e+003;6.429860e-002
1.535124e+003;6.427217e-002
1.537053e+003;6.427632e-002
1.538981e+003;6.422322e-002
1.540910e+003;6.382175e-002
1.542838e+003;6.378168e-002
1.544767e+003;6.404371e-002
1.546695e+003;6.414744e-002
1.548624e+003;6.428619e-002
1.550553e+003;6.436869e-002
1.552481e+003;6.432227e-002
1.554410e+003;6.435958e-002
1.556338e+003;6.422768e-002
1.558267e+003;6.419387e-002
1.560195e+003;6.434221e-002
1.562124e+003;6.447768e-002
1.564052e+003;6.488331e-002
1.565981e+003;6.529652e-002
1.567910e+003;6.536984e-002
1.569838e+003;6.538849e-002
1.571767e+003;6.550582e-002
1.573695e+003;6.562297e-002
1.575624e+003;6.580853e-002
1.577552e+003;6.621783e-002
1.579481e+003;6.651922e-002
1.581409e+003;6.669675e-002
1.583338e+003;6.700388e-002
1.585266e+003;6.736746e-002
1.587195e+003;6.784423e-002
1.589124e+003;6.826026e-002
1.591052e+003;6.885344e-002
1.592981e+003;6.904295e-002
1.594909e+003;6.893366e-002
1.596838e+003;6.925839e-002
1.598766e+003;6.993427e-002
1.600695e+003;7.052573e-002
1.602623e+003;7.092948e-002
1.604552e+003;7.112790e-002
1.606480e+003;7.115862e-002
1.608409e+003;7.142568e-002
1.610338e+003;7.178852e-002
1.612266e+003;7.202832e-002
1.614195e+003;7.211301e-002
1.616123e+003;7.208242e-002
1.618052e+003;7.223621e-002
1.619980e+003;7.231585e-002
1.621909e+003;7.234872e-002
1.623837e+003;7.260011e-002
1.625766e+003;7.297993e-002
1.627694e+003;7.313294e-002
1.629623e+003;7.305311e-002
1.631552e+003;7.296582e-002
1.633480e+003;7.302124e-002
1.635409e+003;7.306993e-002
1.637337e+003;7.307938e-002
1.639266e+003;7.313333e-002
1.641194e+003;7.315031e-002
1.643123e+003;7.314733e-002
1.645051e+003;7.303689e-002
1.646980e+003;7.261057e-002
1.648909e+003;7.220252e-002
1.650837e+003;7.175967e-002
1.652766e+003;7.122204e-002
1.654694e+003;7.112103e-002
1.656623e+003;7.093825e-002
1.658551e+003;7.044006e-002
1.660480e+003;6.996612e-002
1.662408e+003;6.950714e-002
1.664337e+003;6.894531e-002
1.666266e+003;6.840693e-002
1.668194e+003;6.786828e-002
1.670123e+003;6.744651e-002
1.672051e+003;6.723576e-002
1.673980e+003;6.697025e-002
1.675908e+003;6.646242e-002
1.677837e+003;6.610867e-002
1.679765e+003;6.556848e-002
1.681694e+003;6.501756e-002
1.683622e+003;6.464753e-002
1.685551e+003;6.412240e-002
1.687479e+003;6.384689e-002
1.689408e+003;6.371488e-002
1.691337e+003;6.357197e-002
1.693265e+003;6.342317e-002
1.695194e+003;6.321919e-002
1.697122e+003;6.305867e-002
1.699051e+003;6.267511e-002
1.700979e+003;6.217342e-002
1.702908e+003;6.223150e-002
1.704836e+003;6.238537e-002
1.706765e+003;6.226787e-002
1.708693e+003;6.199406e-002
1.710622e+003;6.197213e-002
1.712551e+003;6.185463e-002
1.714479e+003;6.175462e-002
1.716408e+003;6.163290e-002
1.718336e+003;6.144335e-002
1.720265e+003;6.165387e-002
1.722193e+003;6.177418e-002
1.724122e+003;6.162507e-002
1.726050e+003;6.143755e-002
1.727979e+003;6.138850e-002
1.729908e+003;6.152618e-002
1.731836e+003;6.171891e-002
1.733765e+003;6.143079e-002
1.735693e+003;6.111960e-002
1.737622e+003;6.127452e-002
1.739550e+003;6.133305e-002
1.741479e+003;6.101690e-002
1.743407e+003;6.040843e-002
1.745336e+003;6.002176e-002
1.747265e+003;5.974081e-002
1.749193e+003;5.944595e-002
1.751122e+003;5.928781e-002
1.753050e+003;5.904651e-002
1.754979e+003;5.892972e-002
1.756907e+003;5.875944e-002
1.758836e+003;5.873615e-002
1.760764e+003;5.869317e-002
1.762693e+003;5.847920e-002
1.764621e+003;5.846752e-002
1.766550e+003;5.848784e-002
1.768479e+003;5.849459e-002
1.770407e+003;5.830481e-002
1.772336e+003;5.802353e-002
1.774264e+003;5.816814e-002
1.776193e+003;5.826188e-002
1.778121e+003;5.792360e-002
1.780050e+003;5.758744e-002
1.781978e+003;5.769940e-002
1.783907e+003;5.774879e-002
1.785835e+003;5.765786e-002
1.787764e+003;5.766512e-002
1.789693e+003;5.761261e-002
1.791621e+003;5.759282e-002
1.793550e+003;5.750158e-002
1.795478e+003;5.753880e-002
1.797407e+003;5.760371e-002
1.799335e+003;5.735091e-002
1.801264e+003;5.716038e-002
1.803192e+003;5.718619e-002
1.805121e+003;5.726259e-002
1.807049e+003;5.735299e-002
1.808978e+003;5.748387e-002
1.810907e+003;5.738044e-002
1.812835e+003;5.713721e-002
1.814764e+003;5.715868e-002
1.816692e+003;5.724467e-002
1.818621e+003;5.730141e-002
1.820549e+003;5.730746e-002
1.822478e+003;5.728429e-002
1.824406e+003;5.736766e-002
1.826335e+003;5.753679e-002
1.828264e+003;5.735193e-002
1.830192e+003;5.706250e-002
1.832121e+003;5.694878e-002
1.834049e+003;5.678471e-002
1.835978e+003;5.665128e-002
1.837906e+003;5.671002e-002
1.839835e+003;5.692203e-002
1.841763e+003;5.697428e-002
1.843692e+003;5.669182e-002
1.845620e+003;5.646136e-002
1.847549e+003;5.651543e-002
1.849478e+003;5.658178e-002
1.851406e+003;5.654374e-002
1.853335e+003;5.651951e-002
1.855263e+003;5.626518e-002
1.857192e+003;5.609760e-002
1.859120e+003;5.605507e-002
1.861049e+003;5.583207e-002
1.862977e+003;5.583165e-002
1.864906e+003;5.598575e-002
1.866834e+003;5.613112e-002
1.868763e+003;5.617916e-002
1.870692e+003;5.608003e-002
1.872620e+003;5.587513e-002
1.874549e+003;5.585479e-002
1.876477e+003;5.599227e-002
1.878406e+003;5.605680e-002
1.880334e+003;5.626379e-002
1.882263e+003;5.644837e-002
1.884191e+003;5.619066e-002
1.886120e+003;5.590517e-002
1.888048e+003;5.583756e-002
1.889977e+003;5.581447e-002
1.891906e+003;5.582615e-002
1.893834e+003;5.586926e-002
1.895763e+003;5.573599e-002
1.897691e+003;5.558921e-002
1.899620e+003;5.566363e-002
1.901548e+003;5.564921e-002
1.903477e+003;5.571019e-002
1.905405e+003;5.590427e-002
1.907334e+003;5.592356e-002
1.909262e+003;5.584578e-002
1.911191e+003;5.586443e-002
1.913120e+003;5.606487e-002
1.915048e+003;5.633783e-002
1.916977e+003;5.637752e-002
1.918905e+003;5.619051e-002
1.920834e+003;5.613595e-002
1.922762e+003;5.610619e-002
1.924691e+003;5.612916e-002
1.926619e+003;5.621593e-002
1.928548e+003;5.617373e-002
1.930477e+003;5.602619e-002
1.932405e+003;5.608048e-002
1.934334e+003;5.627450e-002
1.936262e+003;5.613583e-002
1.938191e+003;5.614865e-002
1.940119e+003;5.641230e-002
1.942048e+003;5.661470e-002
1.943976e+003;5.690443e-002
1.945905e+003;5.697326e-002
1.947833e+003;5.681586e-002
1.949762e+003;5.668499e-002
1.951691e+003;5.665652e-002
1.953619e+003;5.662896e-002
1.955548e+003;5.664055e-002
1.957476e+003;5.667634e-002
1.959405e+003;5.692279e-002
1.961333e+003;5.702555e-002
1.963262e+003;5.695195e-002
1.965190e+003;5.693960e-002
1.967119e+003;5.684721e-002
1.969047e+003;5.690428e-002
1.970976e+003;5.692683e-002
1.972905e+003;5.688282e-002
1.974833e+003;5.694160e-002
1.976762e+003;5.704863e-002
1.978690e+003;5.706620e-002
1.980619e+003;5.727994e-002
1.982547e+003;5.755748e-002
1.984476e+003;5.754152e-002
1.986404e+003;5.740222e-002
1.988333e+003;5.749628e-002
1.990261e+003;5.767587e-002
1.992190e+003;5.769248e-002
1.994119e+003;5.750608e-002
1.996047e+003;5.744450e-002
1.997976e+003;5.749983e-002
1.999904e+003;5.738226e-002
2.001833e+003;5.715236e-002
2.003761e+003;5.707807e-002
2.005690e+003;5.748425e-002
2.007618e+003;5.782491e-002
2.009547e+003;5.798555e-002
2.011476e+003;5.806261e-002
2.013404e+003;5.824577e-002
2.015333e+003;5.837006e-002
2.017261e+003;5.842586e-002
2.019190e+003;5.839266e-002
2.021118e+003;5.847620e-002
2.023047e+003;5.840755e-002
2.024975e+003;5.821114e-002
2.026904e+003;5.820777e-002
2.028833e+003;5.842635e-002
2.030761e+003;5.865938e-002
2.032690e+003;5.849193e-002
2.034618e+003;5.809670e-002
2.036547e+003;5.806068e-002
2.038475e+003;5.815420e-002
2.040404e+003;5.839281e-002
2.042332e+003;5.857186e-002
2.044261e+003;5.845088e-002
2.046189e+003;5.847218e-002
2.048118e+003;5.848378e-002
2.050047e+003;5.838709e-002
2.051975e+003;5.845410e-002
2.053904e+003;5.846676e-002
2.055832e+003;5.827260e-002
2.057761e+003;5.806269e-002
2.059689e+003;5.808072e-002
2.061618e+003;5.826544e-002
2.063546e+003;5.824134e-002
2.065475e+003;5.815393e-002
2.067404e+003;5.804754e-002
2.069332e+003;5.787832e-002
2.071260e+003;5.783800e-002
2.073189e+003;5.808655e-002
2.075118e+003;5.817451e-002
2.077046e+003;5.806072e-002
2.078975e+003;5.803493e-002
2.080903e+003;5.812325e-002
2.082832e+003;5.832576e-002
2.084760e+003;5.840695e-002
2.086689e+003;5.825138e-002
2.088617e+003;5.817655e-002
2.090546e+003;5.817125e-002
2.092475e+003;5.823952e-002
2.094403e+003;5.833706e-002
2.096332e+003;5.827222e-002
2.098260e+003;5.818121e-002
2.100189e+003;5.816871e-002
2.102117e+003;5.817522e-002
2.104046e+003;5.826055e-002
2.105974e+003;5.851074e-002
2.107903e+003;5.854687e-002
2.109832e+003;5.830428e-002
2.111760e+003;5.827995e-002
2.113688e+003;5.836923e-002
2.115617e+003;5.828059e-002
2.117546e+003;5.816394e-002
2.119474e+003;5.818708e-002
2.121403e+003;5.815750e-002
2.123331e+003;5.801175e-002
2.125260e+003;5.795908e-002
2.127188e+003;5.805868e-002
2.129117e+003;5.836124e-002
2.131045e+003;5.861000e-002
2.132974e+003;5.853273e-002
2.134903e+003;5.838746e-002
2.136831e+003;5.853902e-002
2.138760e+003;5.843446e-002
2.140688e+003;5.817977e-002
2.142617e+003;5.808454e-002
2.144545e+003;5.794045e-002
2.146474e+003;5.799282e-002
2.148402e+003;5.824918e-002
2.150331e+003;5.831978e-002
2.152260e+003;5.816257e-002
2.154188e+003;5.799498e-002
2.156117e+003;5.801490e-002
2.158045e+003;5.829647e-002
2.159974e+003;5.839387e-002
2.161902e+003;5.793049e-002
2.163831e+003;5.761465e-002
2.165759e+003;5.757148e-002
2.167688e+003;5.743259e-002
2.169616e+003;5.745600e-002
2.171545e+003;5.747809e-002
2.173474e+003;5.736097e-002
2.175402e+003;5.739439e-002
2.177331e+003;5.746424e-002
2.179259e+003;5.750366e-002
2.181188e+003;5.735749e-002
2.183116e+003;5.695342e-002
2.185045e+003;5.667309e-002
2.186973e+003;5.652464e-002
2.188902e+003;5.649007e-002
2.190831e+003;5.648909e-002
2.192759e+003;5.644245e-002
2.194688e+003;5.644366e-002
2.196616e+003;5.625353e-002
2.198545e+003;5.617735e-002
2.200473e+003;5.635586e-002
2.202402e+003;5.652392e-002
2.204330e+003;5.658148e-002
2.206259e+003;5.647347e-002
2.208188e+003;5.617953e-002
2.210116e+003;5.628445e-002
2.212044e+003;5.652600e-002
2.213973e+003;5.649898e-002
2.215902e+003;5.640140e-002
2.217830e+003;5.633240e-002
2.219759e+003;5.627846e-002
2.221687e+003;5.654110e-002
2.223616e+003;5.684653e-002
2.225544e+003;5.679422e-002
2.227473e+003;5.634100e-002
2.229401e+003;5.608742e-002
2.231330e+003;5.626529e-002
2.233259e+003;5.625345e-002
2.235187e+003;5.624881e-002
2.237116e+003;5.636628e-002
2.239044e+003;5.638008e-002
2.240973e+003;5.629158e-002
2.242901e+003;5.602744e-002
2.244830e+003;5.601862e-002
2.246758e+003;5.638933e-002
2.248687e+003;5.659967e-002
2.250615e+003;5.632716e-002
2.252544e+003;5.614673e-002
2.254473e+003;5.597169e-002
2.256401e+003;5.591685e-002
2.258330e+003;5.605398e-002
2.260258e+003;5.602793e-002
2.262187e+003;5.598601e-002
2.264115e+003;5.597840e-002
2.266044e+003;5.591644e-002
2.267972e+003;5.586047e-002
2.269901e+003;5.560699e-002
2.271830e+003;5.549688e-002
2.273758e+003;5.563964e-002
2.275687e+003;5.569493e-002
2.277615e+003;5.551533e-002
2.279544e+003;5.543141e-002
2.281472e+003;5.550167e-002
2.283401e+003;5.530544e-002
2.285329e+003;5.519732e-002
2.287258e+003;5.553909e-002
2.289187e+003;5.563056e-002
2.291115e+003;5.538899e-002
2.293043e+003;5.525685e-002
2.294972e+003;5.517739e-002
2.296901e+003;5.525715e-002
2.298829e+003;5.539294e-002
2.300758e+003;5.551394e-002
2.302686e+003;5.544418e-002
2.304615e+003;5.523901e-002
2.306543e+003;5.516121e-002
2.308472e+003;5.505735e-002
2.310400e+003;5.502256e-002
2.312329e+003;5.522649e-002
2.314258e+003;5.533001e-002
2.316186e+003;5.510109e-002
2.318115e+003;5.514330e-002
2.320043e+003;5.525538e-002
2.321972e+003;5.507236e-002
2.323900e+003;5.547060e-002
2.325829e+003;5.579118e-002
2.327757e+003;5.549553e-002
2.329686e+003;5.546119e-002
2.331615e+003;5.552316e-002
2.333543e+003;5.554229e-002
2.335472e+003;5.532907e-002
2.337400e+003;5.531360e-002
2.339329e+003;5.564122e-002
2.341257e+003;5.594934e-002
2.343186e+003;5.630120e-002
2.345114e+003;5.648800e-002
2.347043e+003;5.635722e-002
2.348971e+003;5.602311e-002
2.350900e+003;5.590438e-002
2.352829e+003;5.609764e-002
2.354757e+003;5.656676e-002
2.356686e+003;5.666928e-002
2.358614e+003;5.625903e-002
2.360543e+003;5.607535e-002
2.362471e+003;5.653226e-002
2.364400e+003;5.696816e-002
2.366328e+003;5.693601e-002
2.368257e+003;5.658786e-002
2.370186e+003;5.655913e-002
2.372114e+003;5.704134e-002
2.374042e+003;5.719489e-002
2.375971e+003;5.689400e-002
2.377900e+003;5.690069e-002
2.379828e+003;5.719579e-002
2.381757e+003;5.730357e-002
2.383685e+003;5.723601e-002
2.385614e+003;5.720770e-002
2.387542e+003;5.731975e-002
2.389471e+003;5.736766e-002
2.391399e+003;5.732077e-002
2.393328e+003;5.724407e-002
2.395257e+003;5.740865e-002
2.397185e+003;5.782672e-002
2.399114e+003;5.771833e-002
2.401042e+003;5.741153e-002
2.402971e+003;5.761752e-002
2.404899e+003;5.794939e-002
2.406828e+003;5.816989e-002
2.408756e+003;5.827764e-002
2.410685e+003;5.838716e-002
2.412614e+003;5.836408e-002
2.414542e+003;5.841187e-002
2.416471e+003;5.861414e-002
2.418399e+003;5.854915e-002
2.420328e+003;5.864030e-002
2.422256e+003;5.882579e-002
2.424185e+003;5.880694e-002
2.426113e+003;5.861592e-002
2.428042e+003;5.889504e-002
2.429970e+003;5.913724e-002
2.431899e+003;5.902324e-002
2.433828e+003;5.910956e-002
2.435756e+003;5.926742e-002
2.437685e+003;5.957667e-002
2.439613e+003;5.969139e-002
2.441542e+003;5.961305e-002
2.443470e+003;5.984363e-002
2.445399e+003;6.012179e-002
2.447327e+003;5.997428e-002
2.449256e+003;5.970800e-002
2.451185e+003;5.956177e-002
2.453113e+003;5.972515e-002
2.455042e+003;6.004892e-002
2.456970e+003;6.010166e-002
2.458899e+003;6.012088e-002
2.460827e+003;6.006319e-002
2.462756e+003;6.006399e-002
2.464684e+003;6.021678e-002
2.466613e+003;6.031614e-002
2.468542e+003;6.045268e-002
2.470470e+003;6.072140e-002
2.472398e+003;6.076545e-002
2.474327e+003;6.075227e-002
2.476256e+003;6.097068e-002
2.478184e+003;6.105564e-002
2.480113e+003;6.105328e-002
2.482041e+003;6.095677e-002
2.483970e+003;6.091075e-002
2.485898e+003;6.107341e-002
2.487827e+003;6.106048e-002
2.489755e+003;6.107696e-002
2.491684e+003;6.116511e-002
2.493613e+003;6.121332e-002
2.495541e+003;6.117289e-002
2.497470e+003;6.138274e-002
2.499398e+003;6.154344e-002
2.501327e+003;6.152450e-002
2.503255e+003;6.152901e-002
2.505184e+003;6.156223e-002
2.507112e+003;6.181574e-002
2.509041e+003;6.179152e-002
2.510969e+003;6.155921e-002
2.512898e+003;6.158693e-002
2.514827e+003;6.194909e-002
2.516755e+003;6.213913e-002
2.518684e+003;6.212823e-002
2.520612e+003;6.206129e-002
2.522541e+003;6.217797e-002
2.524469e+003;6.217323e-002
2.526398e+003;6.199965e-002
2.528326e+003;6.207647e-002
2.530255e+003;6.220707e-002
2.532184e+003;6.233721e-002
2.534112e+003;6.228825e-002
2.536041e+003;6.224091e-002
2.537969e+003;6.237159e-002
2.539898e+003;6.262130e-002
2.541826e+003;6.238804e-002
2.543755e+003;6.216944e-002
2.545683e+003;6.242147e-002
2.547612e+003;6.259841e-002
2.549541e+003;6.263944e-002
2.551469e+003;6.261130e-002
2.553397e+003;6.233900e-002
2.555326e+003;6.210491e-002
2.557255e+003;6.243131e-002
2.559183e+003;6.283867e-002
2.561112e+003;6.269256e-002
2.563040e+003;6.254667e-002
2.564969e+003;6.263147e-002
2.566897e+003;6.265035e-002
2.568826e+003;6.250622e-002
2.570754e+003;6.236876e-002
2.572683e+003;6.258723e-002
2.574612e+003;6.298661e-002
2.576540e+003;6.297872e-002
2.578469e+003;6.296014e-002
2.580397e+003;6.315500e-002
2.582326e+003;6.307238e-002
2.584254e+003;6.281025e-002
2.586183e+003;6.286156e-002
2.588111e+003;6.297160e-002
2.590040e+003;6.304829e-002
2.591969e+003;6.331835e-002
2.593897e+003;6.365521e-002
2.595826e+003;6.385560e-002
2.597754e+003;6.382769e-002
2.599683e+003;6.384681e-002
2.601611e+003;6.384289e-002
2.603540e+003;6.388999e-002
2.605468e+003;6.420717e-002
2.607397e+003;6.432926e-002
2.609325e+003;6.429968e-002
2.611254e+003;6.419188e-002
2.613183e+003;6.422123e-002
2.615111e+003;6.409528e-002
2.617040e+003;6.396516e-002
2.618968e+003;6.434974e-002
2.620897e+003;6.492852e-002
2.622825e+003;6.485537e-002
2.624754e+003;6.458721e-002
2.626682e+003;6.474368e-002
2.628611e+003;6.492694e-002
2.630540e+003;6.516791e-002
2.632468e+003;6.553033e-002
2.634396e+003;6.539195e-002
2.636325e+003;6.514038e-002
2.638254e+003;6.537173e-002
2.640182e+003;6.569539e-002
2.642111e+003;6.574342e-002
2.644039e+003;6.576485e-002
2.645968e+003;6.601883e-002
2.647896e+003;6.605162e-002
2.649825e+003;6.598724e-002
2.651753e+003;6.612276e-002
2.653682e+003;6.653691e-002
2.655611e+003;6.679586e-002
2.657539e+003;6.657565e-002
2.659468e+003;6.634656e-002
2.661396e+003;6.665649e-002
2.663325e+003;6.703671e-002
2.665253e+003;6.694678e-002
2.667182e+003;6.693345e-002
2.669110e+003;6.699271e-002
2.671039e+003;6.710994e-002
2.672968e+003;6.713759e-002
2.674896e+003;6.734633e-002
2.676825e+003;6.767282e-002
2.678753e+003;6.759465e-002
2.680682e+003;6.774554e-002
2.682610e+003;6.799339e-002
2.684539e+003;6.797727e-002
2.686467e+003;6.790025e-002
2.688396e+003;6.811845e-002
2.690324e+003;6.845049e-002
2.692253e+003;6.865104e-002
2.694182e+003;6.844626e-002
2.696110e+003;6.826259e-002
2.698039e+003;6.858329e-002
2.699967e+003;6.897926e-002
2.701896e+003;6.889324e-002
2.703824e+003;6.891296e-002
2.705753e+003;6.905235e-002
2.707681e+003;6.909582e-002
2.709610e+003;6.915635e-002
2.711539e+003;6.934903e-002
2.713467e+003;6.968702e-002
2.715396e+003;6.975663e-002
2.717324e+003;6.994502e-002
2.719253e+003;7.014143e-002
2.721181e+003;7.006612e-002
2.723110e+003;7.014513e-002
2.725038e+003;7.049018e-002
2.726967e+003;7.062352e-002
2.728896e+003;7.054794e-002
2.730824e+003;7.069413e-002
2.732752e+003;7.098862e-002
2.734681e+003;7.087759e-002
2.736610e+003;7.075590e-002
2.738538e+003;7.080184e-002
2.740467e+003;7.083257e-002
2.742395e+003;7.107642e-002
2.744324e+003;7.140885e-002
2.746252e+003;7.141147e-002
2.748181e+003;7.128682e-002
2.750109e+003;7.110698e-002
2.752038e+003;7.110050e-002
2.753967e+003;7.122470e-002
2.755895e+003;7.149377e-002
2.757824e+003;7.188704e-002
2.759752e+003;7.204530e-002
2.761681e+003;7.197756e-002
2.763609e+003;7.204784e-002
2.765538e+003;7.239871e-002
2.767466e+003;7.248946e-002
2.769395e+003;7.241323e-002
2.771323e+003;7.261057e-002
2.773252e+003;7.284566e-002
2.775181e+003;7.310071e-002
2.777109e+003;7.324682e-002
2.779038e+003;7.330315e-002
2.780966e+003;7.330103e-002
2.782895e+003;7.346416e-002
2.784823e+003;7.398465e-002
2.786752e+003;7.457697e-002
2.788680e+003;7.469072e-002
2.790609e+003;7.486264e-002
2.792538e+003;7.531915e-002
2.794466e+003;7.557309e-002
2.796395e+003;7.572506e-002
2.798323e+003;7.562140e-002
2.800252e+003;7.571590e-002
2.802180e+003;7.622480e-002
2.804109e+003;7.662100e-002
2.806037e+003;7.705194e-002
2.807966e+003;7.753274e-002
2.809895e+003;7.824536e-002
2.811823e+003;7.867545e-002
2.813751e+003;7.884049e-002
2.815680e+003;7.951901e-002
2.817609e+003;8.008442e-002
2.819537e+003;8.011610e-002
2.821466e+003;8.054582e-002
2.823394e+003;8.123432e-002
2.825323e+003;8.194780e-002
2.827251e+003;8.259360e-002
2.829180e+003;8.282742e-002
2.831108e+003;8.345851e-002
2.833037e+003;8.482607e-002
2.834966e+003;8.593076e-002
2.836894e+003;8.707990e-002
2.838823e+003;8.857512e-002
2.840751e+003;8.967622e-002
2.842680e+003;9.063341e-002
2.844608e+003;9.213388e-002
2.846537e+003;9.400569e-002
2.848465e+003;9.595134e-002
2.850394e+003;9.787150e-002
2.852323e+003;9.930336e-002
2.854251e+003;1.002868e-001
2.856180e+003;1.006571e-001
2.858108e+003;1.009650e-001
2.860037e+003;1.019337e-001
2.861965e+003;1.034203e-001
2.863894e+003;1.045607e-001
2.865822e+003;1.054390e-001
2.867751e+003;1.062970e-001
2.869679e+003;1.069660e-001
2.871608e+003;1.077713e-001
2.873536e+003;1.088711e-001
2.875465e+003;1.093218e-001
2.877394e+003;1.093100e-001
2.879322e+003;1.096749e-001
2.881251e+003;1.106647e-001
2.883179e+003;1.112808e-001
2.885108e+003;1.115383e-001
2.887036e+003;1.123750e-001
2.888965e+003;1.132525e-001
2.890893e+003;1.140484e-001
2.892822e+003;1.141823e-001
2.894750e+003;1.138661e-001
2.896679e+003;1.140874e-001
2.898608e+003;1.144582e-001
2.900536e+003;1.146116e-001
2.902465e+003;1.143011e-001
2.904393e+003;1.134147e-001
2.906322e+003;1.124406e-001
2.908250e+003;1.116334e-001
2.910179e+003;1.107183e-001
2.912107e+003;1.097331e-001
2.914036e+003;1.085955e-001
2.915965e+003;1.075904e-001
2.917893e+003;1.069538e-001
2.919822e+003;1.060598e-001
2.921750e+003;1.045471e-001
2.923679e+003;1.030036e-001
2.925607e+003;1.015721e-001
2.927536e+003;9.956978e-002
2.929464e+003;9.772119e-002
2.931393e+003;9.658314e-002
2.933322e+003;9.575290e-002
2.935250e+003;9.434532e-002
2.937178e+003;9.275834e-002
2.939107e+003;9.155163e-002
2.941036e+003;9.048831e-002
2.942964e+003;8.977008e-002
2.944893e+003;8.894904e-002
2.946821e+003;8.802562e-002
2.948750e+003;8.717511e-002
2.950678e+003;8.616804e-002
2.952607e+003;8.484878e-002
2.954535e+003;8.337768e-002
2.956464e+003;8.209280e-002
2.958393e+003;8.094171e-002
2.960321e+003;8.007032e-002
2.962250e+003;7.946000e-002
2.964178e+003;7.851007e-002
2.966107e+003;7.736530e-002
2.968035e+003;7.660306e-002
2.969964e+003;7.609237e-002
2.971892e+003;7.502605e-002
2.973821e+003;7.432305e-002
2.975750e+003;7.409200e-002
2.977678e+003;7.355976e-002
2.979607e+003;7.301767e-002
2.981535e+003;7.254576e-002
2.983464e+003;7.208104e-002
2.985392e+003;7.166360e-002
2.987321e+003;7.126718e-002
2.989249e+003;7.079810e-002
2.991178e+003;7.058833e-002
2.993106e+003;7.051422e-002
2.995035e+003;7.022322e-002
2.996964e+003;6.983192e-002
2.998892e+003;6.966598e-002
3.000821e+003;6.979180e-002
3.002749e+003;6.983145e-002
3.004678e+003;7.020156e-002
3.006606e+003;7.068123e-002
3.008535e+003;7.082349e-002
3.010463e+003;7.072552e-002
3.012392e+003;7.069539e-002
3.014321e+003;7.083667e-002
3.016249e+003;7.072147e-002
3.018177e+003;7.073516e-002
3.020106e+003;7.104617e-002
3.022035e+003;7.121096e-002
3.023963e+003;7.108536e-002
3.025892e+003;7.118918e-002
3.027820e+003;7.167736e-002
3.029749e+003;7.219301e-002
3.031677e+003;7.246084e-002
3.033606e+003;7.243175e-002
3.035534e+003;7.246945e-002
3.037463e+003;7.267030e-002
3.039392e+003;7.297534e-002
3.041320e+003;7.311871e-002
3.043249e+003;7.353967e-002
3.045177e+003;7.413299e-002
3.047106e+003;7.447831e-002
3.049034e+003;7.456147e-002
3.050963e+003;7.482127e-002
3.052891e+003;7.542032e-002
3.054820e+003;7.575306e-002
3.056749e+003;7.581484e-002
3.058677e+003;7.595177e-002
3.060606e+003;7.625142e-002
3.062534e+003;7.691657e-002
3.064463e+003;7.712063e-002
3.066391e+003;7.707707e-002
3.068320e+003;7.712752e-002
3.070248e+003;7.768127e-002
3.072177e+003;7.825575e-002
3.074105e+003;7.857304e-002
3.076034e+003;7.892847e-002
3.077963e+003;7.892191e-002
3.079891e+003;7.917038e-002
3.081820e+003;7.981095e-002
3.083748e+003;8.042008e-002
3.085677e+003;8.059991e-002
3.087605e+003;8.080224e-002
3.089534e+003;8.132042e-002
3.091462e+003;8.207330e-002
3.093391e+003;8.221938e-002
3.095320e+003;8.206466e-002
3.097248e+003;8.245116e-002
3.099177e+003;8.331843e-002
3.101105e+003;8.382535e-002
3.103034e+003;8.435547e-002
3.104962e+003;8.484165e-002
3.106891e+003;8.515835e-002
3.108819e+003;8.578937e-002
3.110748e+003;8.646820e-002
3.112677e+003;8.700658e-002
3.114605e+003;8.693016e-002
3.116533e+003;8.696805e-002
3.118462e+003;8.743070e-002
3.120391e+003;8.825772e-002
3.122319e+003;8.883259e-002
3.124248e+003;8.887703e-002
3.126176e+003;8.934339e-002
3.128105e+003;8.968302e-002
3.130033e+003;8.965166e-002
3.131962e+003;9.036361e-002
3.133890e+003;9.226003e-002
3.135819e+003;9.351014e-002
3.137748e+003;9.353139e-002
3.139676e+003;9.358744e-002
3.141605e+003;9.397952e-002
3.143533e+003;9.442463e-002
3.145462e+003;9.489278e-002
3.147390e+003;9.533313e-002
3.149319e+003;9.604426e-002
3.151247e+003;9.646848e-002
3.153176e+003;9.659200e-002
3.155104e+003;9.728662e-002
3.157033e+003;9.821231e-002
3.158962e+003;9.938437e-002
3.160890e+003;1.003192e-001
3.162819e+003;1.007543e-001
3.164747e+003;1.012970e-001
3.166676e+003;1.024032e-001
3.168604e+003;1.031745e-001
3.170533e+003;1.029268e-001
3.172461e+003;1.031541e-001
3.174390e+003;1.045496e-001
3.176319e+003;1.058097e-001
3.178247e+003;1.067354e-001
3.180176e+003;1.073495e-001
3.182104e+003;1.073669e-001
3.184033e+003;1.077677e-001
3.185961e+003;1.090344e-001
3.187890e+003;1.103205e-001
3.189818e+003;1.109189e-001
3.191747e+003;1.113145e-001
3.193676e+003;1.119691e-001
3.195604e+003;1.130725e-001
3.197532e+003;1.136790e-001
3.199461e+003;1.141105e-001
3.201390e+003;1.152711e-001
3.203318e+003;1.162075e-001
3.205247e+003;1.169757e-001
3.207175e+003;1.178246e-001
3.209104e+003;1.197091e-001
3.211032e+003;1.211232e-001
3.212961e+003;1.213858e-001
3.214889e+003;1.215994e-001
3.216818e+003;1.224222e-001
3.218747e+003;1.238178e-001
3.220675e+003;1.249125e-001
3.222604e+003;1.258405e-001
3.224532e+003;1.269111e-001
3.226461e+003;1.277338e-001
3.228389e+003;1.287845e-001
3.230318e+003;1.299424e-001
3.232246e+003;1.309980e-001
3.234175e+003;1.324728e-001
3.236104e+003;1.333638e-001
3.238032e+003;1.342225e-001
3.239961e+003;1.353370e-001
3.241889e+003;1.362566e-001
3.243818e+003;1.375494e-001
3.245746e+003;1.391050e-001
3.247675e+003;1.404126e-001
3.249603e+003;1.418462e-001
3.251532e+003;1.431727e-001
3.253460e+003;1.441401e-001
3.255389e+003;1.449787e-001
3.257318e+003;1.462683e-001
3.259246e+003;1.478513e-001
3.261175e+003;1.495393e-001
3.263103e+003;1.507183e-001
3.265032e+003;1.519551e-001
3.266960e+003;1.534888e-001
3.268889e+003;1.541846e-001
3.270817e+003;1.547720e-001
3.272746e+003;1.558748e-001
3.274675e+003;1.576363e-001
3.276603e+003;1.589683e-001
3.278531e+003;1.595081e-001
3.280460e+003;1.601571e-001
3.282389e+003;1.608497e-001
3.284317e+003;1.609301e-001
3.286246e+003;1.614907e-001
3.288174e+003;1.623098e-001
3.290103e+003;1.625649e-001
3.292031e+003;1.628838e-001
3.293960e+003;1.632597e-001
3.295888e+003;1.636574e-001
3.297817e+003;1.642244e-001
3.299746e+003;1.643428e-001
3.301674e+003;1.643756e-001
3.303603e+003;1.648943e-001
3.305531e+003;1.643914e-001
3.307460e+003;1.637005e-001
3.309388e+003;1.637893e-001
3.311317e+003;1.647841e-001
3.313245e+003;1.651715e-001
3.315174e+003;1.655072e-001
3.317103e+003;1.661621e-001
3.319031e+003;1.664288e-001
3.320960e+003;1.674279e-001
3.322888e+003;1.683243e-001
3.324817e+003;1.685066e-001
3.326745e+003;1.690039e-001
3.328674e+003;1.696261e-001
3.330602e+003;1.701517e-001
3.332531e+003;1.709511e-001
3.334459e+003;1.712619e-001
3.336388e+003;1.713684e-001
3.338317e+003;1.722320e-001
3.340245e+003;1.719768e-001
3.342174e+003;1.706430e-001
3.344102e+003;1.697909e-001
3.346031e+003;1.694878e-001
3.347959e+003;1.689215e-001
3.349888e+003;1.682750e-001
3.351816e+003;1.673371e-001
3.353745e+003;1.662287e-001
3.355674e+003;1.651649e-001
3.357602e+003;1.640810e-001
3.359531e+003;1.628703e-001
3.361459e+003;1.620731e-001
3.363388e+003;1.618529e-001
3.365316e+003;1.610583e-001
3.367245e+003;1.602377e-001
3.369173e+003;1.595255e-001
3.371102e+003;1.581396e-001
3.373031e+003;1.571426e-001
3.374959e+003;1.560520e-001
3.376887e+003;1.548253e-001
3.378816e+003;1.541694e-001
3.380745e+003;1.540175e-001
3.382673e+003;1.532894e-001
3.384602e+003;1.525043e-001
3.386530e+003;1.517514e-001
3.388459e+003;1.510196e-001
3.390387e+003;1.504885e-001
3.392316e+003;1.502308e-001
3.394244e+003;1.496755e-001
3.396173e+003;1.484458e-001
3.398102e+003;1.470813e-001
3.400030e+003;1.463771e-001
3.401959e+003;1.460944e-001
3.403887e+003;1.456210e-001
3.405816e+003;1.449166e-001
3.407744e+003;1.437968e-001
3.409673e+003;1.421085e-001
3.411601e+003;1.409533e-001
3.413530e+003;1.400679e-001
3.415458e+003;1.392158e-001
3.417387e+003;1.380346e-001
3.419316e+003;1.366255e-001
3.421244e+003;1.360241e-001
3.423173e+003;1.354689e-001
3.425101e+003;1.342569e-001
3.427030e+003;1.328046e-001
3.428958e+003;1.317634e-001
3.430887e+003;1.301067e-001
3.432815e+003;1.287493e-001
3.434744e+003;1.280089e-001
3.436673e+003;1.268523e-001
3.438601e+003;1.256034e-001
3.440530e+003;1.250822e-001
3.442458e+003;1.243142e-001
3.444387e+003;1.233270e-001
3.446315e+003;1.224335e-001
3.448244e+003;1.216288e-001
3.450172e+003;1.203721e-001
3.452101e+003;1.187031e-001
3.454030e+003;1.176217e-001
3.455958e+003;1.161891e-001
3.457886e+003;1.147316e-001
3.459815e+003;1.137270e-001
3.461744e+003;1.123402e-001
3.463672e+003;1.111890e-001
3.465601e+003;1.102455e-001
3.467529e+003;1.089124e-001
3.469458e+003;1.079291e-001
3.471386e+003;1.071946e-001
3.473315e+003;1.057370e-001
3.475243e+003;1.047728e-001
3.477172e+003;1.044082e-001
3.479101e+003;1.034756e-001
3.481029e+003;1.022140e-001
3.482958e+003;1.009732e-001
3.484886e+003;9.973891e-002
3.486815e+003;9.867205e-002
3.488743e+003;9.768222e-002
3.490672e+003;9.655596e-002
3.492600e+003;9.586903e-002
3.494529e+003;9.507132e-002
3.496458e+003;9.357799e-002
3.498386e+003;9.244160e-002
3.500315e+003;9.163085e-002
3.502243e+003;9.013679e-002
3.504172e+003;8.844569e-002
3.506100e+003;8.787072e-002
3.508029e+003;8.698890e-002
3.509957e+003;8.556924e-002
3.511886e+003;8.485700e-002
3.513814e+003;8.400994e-002
3.515743e+003;8.252504e-002
3.517672e+003;8.162720e-002
3.519600e+003;8.125278e-002
3.521529e+003;8.040748e-002
3.523457e+003;7.953589e-002
3.525386e+003;7.889465e-002
3.527314e+003;7.763395e-002
3.529243e+003;7.624932e-002
3.531171e+003;7.537452e-002
3.533100e+003;7.451477e-002
3.535029e+003;7.359611e-002
3.536957e+003;7.243828e-002
3.538885e+003;7.196911e-002
3.540814e+003;7.183836e-002
3.542743e+003;7.060224e-002
3.544671e+003;6.997304e-002
3.546600e+003;6.990442e-002
3.548528e+003;6.884668e-002
3.550457e+003;6.749222e-002
3.552385e+003;6.633907e-002
3.554314e+003;6.573494e-002
3.556242e+003;6.505200e-002
3.558171e+003;6.413023e-002
3.560100e+003;6.355743e-002
3.562028e+003;6.313381e-002
3.563957e+003;6.226446e-002
3.565885e+003;6.075962e-002
3.567814e+003;5.996736e-002
3.569742e+003;5.959180e-002
3.571671e+003;5.817799e-002
3.573599e+003;5.683550e-002
3.575528e+003;5.636929e-002
3.577457e+003;5.648305e-002
3.579385e+003;5.662243e-002
3.581314e+003;5.583361e-002
3.583242e+003;5.521738e-002
3.585171e+003;5.536893e-002
3.587099e+003;5.460484e-002
3.589028e+003;5.335178e-002
3.590956e+003;5.283619e-002
3.592885e+003;5.275530e-002
3.594813e+003;5.279656e-002
3.596742e+003;5.235239e-002
3.598671e+003;5.129537e-002
3.600599e+003;5.071916e-002
3.602528e+003;5.052061e-002
3.604456e+003;5.052128e-002
3.606385e+003;5.002128e-002
3.608313e+003;4.943536e-002
3.610242e+003;4.877701e-002
3.612170e+003;4.802572e-002
3.614099e+003;4.755172e-002
3.616028e+003;4.749461e-002
3.617956e+003;4.731493e-002
3.619885e+003;4.719032e-002
3.621813e+003;4.669391e-002
3.623742e+003;4.614677e-002
3.625670e+003;4.585462e-002
3.627599e+003;4.559476e-002
3.629527e+003;4.529162e-002
3.631456e+003;4.487327e-002
3.633385e+003;4.505025e-002
3.635313e+003;4.479127e-002
3.637241e+003;4.385957e-002
3.639170e+003;4.348698e-002
3.641099e+003;4.359148e-002
3.643027e+003;4.382577e-002
3.644956e+003;4.365211e-002
3.646884e+003;4.326543e-002
3.648813e+003;4.292393e-002
3.650741e+003;4.224268e-002
3.652670e+003;4.239773e-002
3.654598e+003;4.313714e-002
3.656527e+003;4.294525e-002
3.658456e+003;4.212124e-002
3.660384e+003;4.191844e-002
3.662313e+003;4.182175e-002
3.664241e+003;4.162398e-002
3.666170e+003;4.090334e-002
3.668098e+003;4.050782e-002
3.670027e+003;4.085434e-002
3.671955e+003;4.104990e-002
3.673884e+003;4.095012e-002
3.675813e+003;4.087330e-002
3.677741e+003;4.013671e-002
3.679669e+003;3.975663e-002
3.681598e+003;3.988969e-002
3.683527e+003;3.925301e-002
3.685455e+003;3.913160e-002
3.687384e+003;3.932468e-002
3.689312e+003;3.912529e-002
3.691241e+003;3.932951e-002
3.693169e+003;3.935272e-002
3.695098e+003;3.913987e-002
3.697026e+003;3.924989e-002
3.698955e+003;3.918186e-002
3.700884e+003;3.891581e-002
3.702812e+003;3.884109e-002
3.704741e+003;3.836480e-002
3.706669e+003;3.817204e-002
3.708598e+003;3.847477e-002
3.710526e+003;3.849211e-002
3.712455e+003;3.775835e-002
3.714383e+003;3.743622e-002
3.716312e+003;3.752110e-002
3.718240e+003;3.753819e-002
3.720169e+003;3.741054e-002
3.722098e+003;3.729156e-002
3.724026e+003;3.774538e-002
3.725955e+003;3.816567e-002
3.727883e+003;3.799487e-002
3.729812e+003;3.763541e-002
3.731740e+003;3.740129e-002
3.733669e+003;3.767411e-002
3.735597e+003;3.810178e-002
3.737526e+003;3.848828e-002
3.739455e+003;3.820775e-002
3.741383e+003;3.755329e-002
3.743312e+003;3.676381e-002
3.745240e+003;3.630334e-002
3.747169e+003;3.679064e-002
3.749097e+003;3.740375e-002
3.751026e+003;3.821216e-002
3.752954e+003;3.863678e-002
3.754883e+003;3.813141e-002
3.756812e+003;3.777578e-002
3.758740e+003;3.800004e-002
3.760668e+003;3.745839e-002
3.762597e+003;3.703511e-002
3.764526e+003;3.729022e-002
3.766454e+003;3.719629e-002
3.768383e+003;3.707516e-002
3.770311e+003;3.699289e-002
3.772240e+003;3.757431e-002
3.774168e+003;3.771704e-002
3.776097e+003;3.716301e-002
3.778025e+003;3.688016e-002
3.779954e+003;3.672357e-002
3.781883e+003;3.703547e-002
3.783811e+003;3.708144e-002
3.785740e+003;3.731528e-002
3.787668e+003;3.773757e-002
3.789597e+003;3.752926e-002
3.791525e+003;3.771766e-002
3.793454e+003;3.788994e-002
3.795382e+003;3.762190e-002
3.797311e+003;3.768571e-002
3.799240e+003;3.762287e-002
3.801168e+003;3.668852e-002
3.803097e+003;3.665899e-002
3.805025e+003;3.689343e-002
3.806954e+003;3.727466e-002
3.808882e+003;3.781044e-002
3.810811e+003;3.772341e-002
3.812739e+003;3.781789e-002
3.814668e+003;3.779280e-002
3.816596e+003;3.790187e-002
3.818525e+003;3.742491e-002
3.820454e+003;3.760575e-002
3.822382e+003;3.798945e-002
3.824311e+003;3.764672e-002
3.826239e+003;3.727823e-002
3.828168e+003;3.732048e-002
3.830096e+003;3.779877e-002
3.832025e+003;3.770928e-002
3.833953e+003;3.723585e-002
3.835882e+003;3.731066e-002
3.837811e+003;3.726564e-002
3.839739e+003;3.779768e-002
3.841667e+003;3.816256e-002
3.843596e+003;3.793170e-002
3.845525e+003;3.809473e-002
3.847453e+003;3.817059e-002
3.849382e+003;3.773237e-002
3.851310e+003;3.732196e-002
3.853239e+003;3.718315e-002
3.855167e+003;3.696619e-002
3.857096e+003;3.733518e-002
3.859024e+003;3.806927e-002
3.860953e+003;3.840965e-002
3.862882e+003;3.790686e-002
3.864810e+003;3.756926e-002
3.866739e+003;3.807715e-002
3.868667e+003;3.837584e-002
3.870596e+003;3.791550e-002
3.872524e+003;3.766204e-002
3.874453e+003;3.784482e-002
3.876381e+003;3.787208e-002
3.878310e+003;3.861019e-002
3.880239e+003;3.958626e-002
3.882167e+003;3.972871e-002
3.884096e+003;3.930404e-002
3.886024e+003;3.853234e-002
3.887953e+003;3.814646e-002
3.889881e+003;3.866923e-002
3.891810e+003;3.907374e-002
3.893738e+003;3.882156e-002
3.895667e+003;3.861994e-002
3.897595e+003;3.888783e-002
3.899524e+003;3.862754e-002
3.901453e+003;3.859353e-002
3.903381e+003;3.850479e-002
3.905310e+003;3.864167e-002
3.907238e+003;3.896945e-002
3.909167e+003;3.924692e-002
3.911095e+003;3.937725e-002
3.913024e+003;3.927531e-002
3.914952e+003;3.947982e-002
3.916881e+003;3.979774e-002
3.918810e+003;3.971165e-002
3.920738e+003;3.944836e-002
3.922667e+003;3.988308e-002
3.924595e+003;4.054394e-002
3.926524e+003;4.101818e-002
3.928452e+003;4.057191e-002
3.930381e+003;3.999013e-002
3.932309e+003;4.027407e-002
3.934238e+003;4.001034e-002
3.936167e+003;3.923488e-002
3.938095e+003;3.954648e-002
3.940023e+003;3.989413e-002
3.941952e+003;4.023362e-002
3.943881e+003;4.055067e-002
3.945809e+003;4.034573e-002
3.947738e+003;3.997092e-002
3.949666e+003;3.982653e-002
3.951595e+003;4.069740e-002
3.953523e+003;4.142167e-002
3.955452e+003;4.084247e-002
3.957380e+003;3.939107e-002
3.959309e+003;3.925765e-002
3.961238e+003;4.015950e-002
3.963166e+003;3.978880e-002
3.965095e+003;3.910419e-002
3.967023e+003;3.898391e-002
3.968952e+003;3.944691e-002
3.970880e+003;4.002610e-002
3.972809e+003;3.977279e-002
3.974737e+003;3.916880e-002
3.976666e+003;3.952377e-002
3.978594e+003;3.975460e-002
3.980523e+003;3.977312e-002
3.982452e+003;3.948414e-002
3.984380e+003;3.956539e-002
3.986309e+003;3.996325e-002
3.988237e+003;3.984230e-002
3.990166e+003;4.009209e-002
3.992094e+003;4.025226e-002
3.994023e+003;4.007316e-002
3.995951e+003;4.041940e-002
3.997880e+003;4.023034e-002
3.999809e+003;3.995802e-002
4.001737e+003;0.000000e+000
