3.992094e+002;0.000000e+000
4.011380e+002;0.000000e+000
4.030665e+002;0.000000e+000
4.049951e+002;0.000000e+000
4.069236e+002;0.000000e+000
4.088522e+002;0.000000e+000
4.107807e+002;0.000000e+000
4.127093e+002;0.000000e+000
4.146378e+002;0.000000e+000
4.165664e+002;0.000000e+000
4.184949e+002;0.000000e+000
4.204235e+002;0.000000e+000
4.223520e+002;0.000000e+000
4.242806e+002;0.000000e+000
4.262091e+002;0.000000e+000
4.281377e+002;0.000000e+000
4.300662e+002;0.000000e+000
4.319948e+002;0.000000e+000
4.339233e+002;0.000000e+000
4.358519e+002;0.000000e+000
4.377804e+002;0.000000e+000
4.397090e+002;0.000000e+000
4.416375e+002;0.000000e+000
4.435660e+002;0.000000e+000
4.454946e+002;0.000000e+000
4.474232e+002;0.000000e+000
4.493517e+002;0.000000e+000
4.512802e+002;0.000000e+000
4.532088e+002;0.000000e+000
4.551373e+002;0.000000e+000
4.570659e+002;0.000000e+000
4.589944e+002;0.000000e+000
4.609230e+002;0.000000e+000
4.628515e+002;0.000000e+000
4.647801e+002;0.000000e+000
4.667086e+002;0.000000e+000
4.686372e+002;0.000000e+000
4.705657e+002;0.000000e+000
4.724943e+002;0.000000e+000
4.744228e+002;0.000000e+000
4.763513e+002;0.000000e+000
4.782799e+002;0.000000e+000
4.802085e+002;0.000000e+000
4.821370e+002;0.000000e+000
4.840656e+002;0.000000e+000
4.859941e+002;0.000000e+000
4.879226e+002;0.000000e+000
4.898512e+002;0.000000e+000
4.917798e+002;0.000000e+000
4.937083e+002;0.000000e+000
4.956368e+002;0.000000e+000
4.975654e+002;0.000000e+000
4.994939e+002;0.000000e+000
5.014225e+002;0.000000e+000
5.033510e+002;0.000000e+000
5.052796e+002;0.000000e+000
5.072081e+002;0.000000e+000
5.091367e+002;0.000000e+000
5.110652e+002;0.000000e+000
5.129938e+002;0.000000e+000
5.149223e+002;0.000000e+000
5.168509e+002;0.000000e+000
5.187794e+002;0.000000e+000
5.207079e+002;0.000000e+000
5.226365e+002;0.000000e+000
5.245651e+002;0.000000e+000
5.264936e+002;0.000000e+000
5.284222e+002;0.000000e+000
5.303507e+002;0.000000e+000
5.322792e+002;0.000000e+000
5.342078e+002;0.000000e+000
5.361364e+002;0.000000e+000
5.380649e+002;0.000000e+000
5.399935e+002;0.000000e+000
5.419220e+002;0.000000e+000
5.438505e+002;0.000000e+000
5.457791e+002;0.000000e+000
5.477076e+002;0.000000e+000
5.496362e+002;0.000000e+000
5.515648e+002;0.000000e+000
5.534933e+002;0.000000e+000
5.554218e+002;0.000000e+000
5.573504e+002;0.000000e+000
5.592789e+002;0.000000e+000
5.612075e+002;0.000000e+000
5.631360e+002;0.000000e+000
5.650646e+002;0.000000e+000
5.669931e+002;0.000000e+000
5.689217e+002;0.000000e+000
5.708502e+002;0.000000e+000
5.727787e+002;0.000000e+000
5.747073e+002;0.000000e+000
5.766359e+002;0.000000e+000
5.785644e+002;0.000000e+000
5.804930e+002;0.000000e+000
5.824215e+002;0.000000e+000
5.843500e+002;0.000000e+000
5.862786e+002;0.000000e+000
5.882072e+002;0.000000e+000
5.901357e+002;0.000000e+000
5.920643e+002;0.000000e+000
5.939928e+002;0.000000e+000
5.959213e+002;0.000000e+000
5.978499e+002;0.000000e+000
5.997784e+002;2.210915e-001
6.017070e+002;2.217492e-001
6.036355e+002;2.232603e-001
6.055641e+002;2.236829e-001
6.074926e+002;2.202373e-001
6.094211e+002;2.155876e-001
6.113497e+002;2.151650e-001
6.132783e+002;2.144039e-001
6.152068e+002;2.156151e-001
6.171354e+002;2.234254e-001
6.190639e+002;2.227027e-001
6.209924e+002;2.136508e-001
6.229210e+002;2.041619e-001
6.248495e+002;1.998703e-001
6.267781e+002;2.008215e-001
6.287067e+002;1.990165e-001
6.306352e+002;1.936494e-001
6.325637e+002;1.923879e-001
6.344923e+002;1.932433e-001
6.364208e+002;1.918330e-001
6.383494e+002;1.937927e-001
6.402780e+002;1.926725e-001
6.422065e+002;1.880940e-001
6.441350e+002;1.848589e-001
6.460636e+002;1.835322e-001
6.479921e+002;1.873098e-001
6.499207e+002;1.888922e-001
6.518492e+002;1.885383e-001
6.537778e+002;1.903786e-001
6.557063e+002;1.937348e-001
6.576349e+002;1.954446e-001
6.595634e+002;1.967825e-001
6.614919e+002;1.988854e-001
6.634205e+002;1.971447e-001
6.653491e+002;1.951730e-001
6.672776e+002;1.932461e-001
6.692062e+002;1.901774e-001
6.711347e+002;1.875179e-001
6.730632e+002;1.858761e-001
6.749918e+002;1.819524e-001
6.769203e+002;1.760329e-001
6.788489e+002;1.707126e-001
6.807775e+002;1.677591e-001
6.827060e+002;1.663723e-001
6.846345e+002;1.641648e-001
6.865631e+002;1.618058e-001
6.884916e+002;1.615534e-001
6.904202e+002;1.619540e-001
6.923488e+002;1.614662e-001
6.942773e+002;1.605092e-001
6.962058e+002;1.600045e-001
6.981344e+002;1.593987e-001
7.000629e+002;1.591032e-001
7.019915e+002;1.589185e-001
7.039200e+002;1.576070e-001
7.058486e+002;1.557818e-001
7.077771e+002;1.550715e-001
7.097057e+002;1.544765e-001
7.116342e+002;1.520934e-001
7.135627e+002;1.499547e-001
7.154913e+002;1.477488e-001
7.174199e+002;1.447059e-001
7.193484e+002;1.423565e-001
7.212770e+002;1.403363e-001
7.232055e+002;1.369077e-001
7.251340e+002;1.337532e-001
7.270626e+002;1.317129e-001
7.289911e+002;1.303862e-001
7.309197e+002;1.283087e-001
7.328483e+002;1.265040e-001
7.347768e+002;1.259021e-001
7.367053e+002;1.252140e-001
7.386339e+002;1.235059e-001
7.405624e+002;1.221374e-001
7.424910e+002;1.213964e-001
7.444196e+002;1.200551e-001
7.463481e+002;1.186406e-001
7.482766e+002;1.185024e-001
7.502052e+002;1.169763e-001
7.521337e+002;1.155393e-001
7.540623e+002;1.149981e-001
7.559908e+002;1.139207e-001
7.579194e+002;1.128975e-001
7.598479e+002;1.118824e-001
7.617765e+002;1.105017e-001
7.637050e+002;1.099765e-001
7.656335e+002;1.092380e-001
7.675621e+002;1.078471e-001
7.694907e+002;1.075640e-001
7.714192e+002;1.074332e-001
7.733478e+002;1.068444e-001
7.752763e+002;1.063873e-001
7.772048e+002;1.058121e-001
7.791334e+002;1.049606e-001
7.810620e+002;1.045987e-001
7.829905e+002;1.046091e-001
7.849191e+002;1.036228e-001
7.868476e+002;1.032770e-001
7.887761e+002;1.037098e-001
7.907047e+002;1.038243e-001
7.926332e+002;1.034602e-001
7.945618e+002;1.030079e-001
7.964903e+002;1.024657e-001
7.984189e+002;1.027635e-001
8.003474e+002;1.027766e-001
8.022759e+002;1.025746e-001
8.042045e+002;1.025487e-001
8.061331e+002;1.019663e-001
8.080616e+002;1.018850e-001
8.099902e+002;1.021539e-001
8.119187e+002;1.017411e-001
8.138472e+002;1.010729e-001
8.157758e+002;1.006602e-001
8.177043e+002;1.002307e-001
8.196329e+002;9.969777e-002
8.215615e+002;9.928825e-002
8.234900e+002;9.884221e-002
8.254185e+002;9.840132e-002
8.273471e+002;9.778559e-002
8.292756e+002;9.748121e-002
8.312042e+002;9.763335e-002
8.331328e+002;9.738757e-002
8.350613e+002;9.762704e-002
8.369898e+002;9.821147e-002
8.389184e+002;9.844825e-002
8.408469e+002;9.888148e-002
8.427755e+002;9.875643e-002
8.447040e+002;9.824172e-002
8.466326e+002;9.814726e-002
8.485611e+002;9.844650e-002
8.504897e+002;9.875169e-002
8.524182e+002;9.955448e-002
8.543467e+002;1.003199e-001
8.562753e+002;1.003981e-001
8.582039e+002;1.003824e-001
8.601324e+002;1.015135e-001
8.620610e+002;1.027365e-001
8.639895e+002;1.038749e-001
8.659180e+002;1.054653e-001
8.678466e+002;1.066968e-001
8.697751e+002;1.076853e-001
8.717037e+002;1.087599e-001
8.736323e+002;1.099161e-001
8.755608e+002;1.114524e-001
8.774893e+002;1.127019e-001
8.794179e+002;1.135563e-001
8.813464e+002;1.147023e-001
8.832750e+002;1.163375e-001
8.852036e+002;1.182541e-001
8.871321e+002;1.207834e-001
8.890606e+002;1.233903e-001
8.909892e+002;1.251229e-001
8.929177e+002;1.258443e-001
8.948463e+002;1.265013e-001
8.967748e+002;1.268462e-001
8.987034e+002;1.264800e-001
9.006319e+002;1.255272e-001
9.025605e+002;1.242645e-001
9.044890e+002;1.227412e-001
9.064175e+002;1.213386e-001
9.083461e+002;1.196968e-001
9.102747e+002;1.181287e-001
9.122032e+002;1.173460e-001
9.141318e+002;1.167385e-001
9.160603e+002;1.160452e-001
9.179888e+002;1.158461e-001
9.199174e+002;1.162623e-001
9.218459e+002;1.166721e-001
9.237745e+002;1.173271e-001
9.257031e+002;1.180364e-001
9.276316e+002;1.186843e-001
9.295601e+002;1.195432e-001
9.314887e+002;1.207044e-001
9.334172e+002;1.220617e-001
9.353458e+002;1.231514e-001
9.372744e+002;1.245097e-001
9.392029e+002;1.257584e-001
9.411314e+002;1.271591e-001
9.430600e+002;1.287853e-001
9.449885e+002;1.303416e-001
9.469171e+002;1.322161e-001
9.488456e+002;1.341394e-001
9.507742e+002;1.363254e-001
9.527027e+002;1.394238e-001
9.546313e+002;1.430595e-001
9.565598e+002;1.465524e-001
9.584883e+002;1.499278e-001
9.604169e+002;1.533976e-001
9.623455e+002;1.573879e-001
9.642740e+002;1.621062e-001
9.662026e+002;1.670398e-001
9.681311e+002;1.718870e-001
9.700596e+002;1.775056e-001
9.719882e+002;1.840874e-001
9.739167e+002;1.914398e-001
9.758453e+002;2.003477e-001
9.777739e+002;2.107229e-001
9.797024e+002;2.211627e-001
9.816309e+002;2.301217e-001
9.835595e+002;2.362970e-001
9.854880e+002;2.387829e-001
9.874166e+002;2.392902e-001
9.893452e+002;2.401412e-001
9.912737e+002;2.421698e-001
9.932022e+002;2.459012e-001
9.951307e+002;2.504096e-001
9.970593e+002;2.548406e-001
9.989879e+002;2.587820e-001
1.000916e+003;2.611821e-001
1.002845e+003;2.619355e-001
1.004773e+003;2.620658e-001
1.006702e+003;2.623914e-001
1.008631e+003;2.627632e-001
1.010559e+003;2.637943e-001
1.012488e+003;2.662396e-001
1.014416e+003;2.696457e-001
1.016345e+003;2.728208e-001
1.018273e+003;2.756864e-001
1.020202e+003;2.788217e-001
1.022130e+003;2.817051e-001
1.024059e+003;2.845114e-001
1.025988e+003;2.876591e-001
1.027916e+003;2.898552e-001
1.029845e+003;2.901170e-001
1.031773e+003;2.887902e-001
1.033702e+003;2.862585e-001
1.035630e+003;2.822917e-001
1.037559e+003;2.773149e-001
1.039487e+003;2.731083e-001
1.041416e+003;2.705163e-001
1.043344e+003;2.695468e-001
1.045273e+003;2.700714e-001
1.047202e+003;2.722451e-001
1.049130e+003;2.748700e-001
1.051059e+003;2.774797e-001
1.052987e+003;2.789836e-001
1.054916e+003;2.782641e-001
1.056844e+003;2.760004e-001
1.058773e+003;2.713416e-001
1.060701e+003;2.634826e-001
1.062630e+003;2.531977e-001
1.064558e+003;2.421494e-001
1.066487e+003;2.323375e-001
1.068416e+003;2.242001e-001
1.070344e+003;2.172135e-001
1.072273e+003;2.118488e-001
1.074201e+003;2.074401e-001
1.076130e+003;2.032868e-001
1.078058e+003;1.994493e-001
1.079987e+003;1.964293e-001
1.081915e+003;1.940838e-001
1.083844e+003;1.926887e-001
1.085773e+003;1.918613e-001
1.087701e+003;1.913802e-001
1.089630e+003;1.913094e-001
1.091558e+003;1.913813e-001
1.093487e+003;1.917306e-001
1.095415e+003;1.930894e-001
1.097344e+003;1.951928e-001
1.099272e+003;1.970098e-001
1.101201e+003;1.982873e-001
1.103129e+003;1.989077e-001
1.105058e+003;1.983683e-001
1.106987e+003;1.967001e-001
1.108915e+003;1.941424e-001
1.110844e+003;1.902346e-001
1.112772e+003;1.842727e-001
1.114701e+003;1.765803e-001
1.116629e+003;1.683869e-001
1.118558e+003;1.615247e-001
1.120486e+003;1.567826e-001
1.122415e+003;1.528111e-001
1.124344e+003;1.483452e-001
1.126272e+003;1.435793e-001
1.128201e+003;1.384461e-001
1.130129e+003;1.338087e-001
1.132058e+003;1.305563e-001
1.133986e+003;1.277469e-001
1.135915e+003;1.255695e-001
1.137843e+003;1.243648e-001
1.139772e+003;1.245236e-001
1.141700e+003;1.259142e-001
1.143629e+003;1.274969e-001
1.145557e+003;1.288254e-001
1.147486e+003;1.304257e-001
1.149415e+003;1.319007e-001
1.151343e+003;1.330699e-001
1.153272e+003;1.344047e-001
1.155200e+003;1.360859e-001
1.157129e+003;1.372759e-001
1.159057e+003;1.377252e-001
1.160986e+003;1.374610e-001
1.162914e+003;1.356102e-001
1.164843e+003;1.318675e-001
1.166771e+003;1.273707e-001
1.168700e+003;1.219342e-001
1.170629e+003;1.156437e-001
1.172557e+003;1.098692e-001
1.174486e+003;1.047267e-001
1.176414e+003;1.009199e-001
1.178343e+003;9.791809e-002
1.180271e+003;9.550525e-002
1.182200e+003;9.405597e-002
1.184128e+003;9.310722e-002
1.186057e+003;9.273398e-002
1.187986e+003;9.327152e-002
1.189914e+003;9.447693e-002
1.191843e+003;9.592345e-002
1.193771e+003;9.760278e-002
1.195700e+003;9.936967e-002
1.197628e+003;1.012399e-001
1.199557e+003;1.027108e-001
1.201485e+003;1.031133e-001
1.203414e+003;1.030006e-001
1.205343e+003;1.025007e-001
1.207271e+003;1.005270e-001
1.209200e+003;9.767903e-002
1.211128e+003;9.520245e-002
1.213057e+003;9.319768e-002
1.214985e+003;9.237859e-002
1.216914e+003;9.315658e-002
1.218842e+003;9.419564e-002
1.220771e+003;9.480581e-002
1.222699e+003;9.584122e-002
1.224628e+003;9.732708e-002
1.226557e+003;9.864506e-002
1.228485e+003;9.990223e-002
1.230414e+003;1.011497e-001
1.232342e+003;1.025207e-001
1.234271e+003;1.033073e-001
1.236199e+003;1.033119e-001
1.238128e+003;1.031936e-001
1.240056e+003;1.033993e-001
1.241985e+003;1.040519e-001
1.243913e+003;1.048695e-001
1.245842e+003;1.055399e-001
1.247771e+003;1.057425e-001
1.249699e+003;1.055063e-001
1.251628e+003;1.054446e-001
1.253556e+003;1.054503e-001
1.255485e+003;1.056812e-001
1.257413e+003;1.060853e-001
1.259342e+003;1.063607e-001
1.261270e+003;1.064667e-001
1.263199e+003;1.060678e-001
1.265127e+003;1.057385e-001
1.267056e+003;1.063099e-001
1.268985e+003;1.069397e-001
1.270913e+003;1.072610e-001
1.272842e+003;1.076814e-001
1.274770e+003;1.079894e-001
1.276699e+003;1.078274e-001
1.278627e+003;1.075011e-001
1.280556e+003;1.074305e-001
1.282484e+003;1.069584e-001
1.284413e+003;1.060511e-001
1.286342e+003;1.054660e-001
1.288270e+003;1.054238e-001
1.290199e+003;1.059715e-001
1.292127e+003;1.065060e-001
1.294056e+003;1.070052e-001
1.295984e+003;1.077319e-001
1.297913e+003;1.087186e-001
1.299841e+003;1.102460e-001
1.301770e+003;1.124175e-001
1.303698e+003;1.151041e-001
1.305627e+003;1.179567e-001
1.307556e+003;1.211809e-001
1.309484e+003;1.242943e-001
1.311413e+003;1.266752e-001
1.313341e+003;1.279044e-001
1.315270e+003;1.277315e-001
1.317198e+003;1.261528e-001
1.319127e+003;1.236138e-001
1.321055e+003;1.207564e-001
1.322984e+003;1.184008e-001
1.324912e+003;1.170962e-001
1.326841e+003;1.165261e-001
1.328770e+003;1.166531e-001
1.330698e+003;1.172203e-001
1.332627e+003;1.178678e-001
1.334555e+003;1.182378e-001
1.336484e+003;1.176627e-001
1.338412e+003;1.163054e-001
1.340341e+003;1.145788e-001
1.342269e+003;1.124740e-001
1.344198e+003;1.101410e-001
1.346126e+003;1.083087e-001
1.348055e+003;1.071715e-001
1.349984e+003;1.070792e-001
1.351912e+003;1.076726e-001
1.353841e+003;1.081833e-001
1.355769e+003;1.087872e-001
1.357698e+003;1.096564e-001
1.359626e+003;1.105991e-001
1.361555e+003;1.106268e-001
1.363483e+003;1.097109e-001
1.365412e+003;1.090179e-001
1.367341e+003;1.087419e-001
1.369269e+003;1.083247e-001
1.371198e+003;1.072742e-001
1.373126e+003;1.054488e-001
1.375055e+003;1.032991e-001
1.376983e+003;1.010617e-001
1.378912e+003;9.881280e-002
1.380840e+003;9.683050e-002
1.382769e+003;9.482996e-002
1.384698e+003;9.300529e-002
1.386626e+003;9.157307e-002
1.388555e+003;9.058949e-002
1.390483e+003;8.991583e-002
1.392412e+003;8.919339e-002
1.394340e+003;8.889285e-002
1.396269e+003;8.880430e-002
1.398197e+003;8.893989e-002
1.400126e+003;8.915950e-002
1.402054e+003;8.940811e-002
1.403983e+003;8.967699e-002
1.405911e+003;9.004399e-002
1.407840e+003;9.011959e-002
1.409769e+003;9.027562e-002
1.411697e+003;9.086412e-002
1.413626e+003;9.156825e-002
1.415554e+003;9.236244e-002
1.417483e+003;9.342492e-002
1.419411e+003;9.467216e-002
1.421340e+003;9.590597e-002
1.423268e+003;9.690856e-002
1.425197e+003;9.759074e-002
1.427125e+003;9.804974e-002
1.429054e+003;9.790891e-002
1.430983e+003;9.711815e-002
1.432911e+003;9.574216e-002
1.434840e+003;9.412288e-002
1.436768e+003;9.250977e-002
1.438697e+003;9.129688e-002
1.440625e+003;9.055161e-002
1.442554e+003;9.010226e-002
1.444482e+003;8.986070e-002
1.446411e+003;8.950379e-002
1.448340e+003;8.922850e-002
1.450268e+003;8.907337e-002
1.452197e+003;8.854071e-002
1.454125e+003;8.746681e-002
1.456054e+003;8.626139e-002
1.457982e+003;8.547217e-002
1.459911e+003;8.457426e-002
1.461839e+003;8.315136e-002
1.463768e+003;8.160904e-002
1.465697e+003;8.026810e-002
1.467625e+003;7.901129e-002
1.469554e+003;7.741223e-002
1.471482e+003;7.583267e-002
1.473411e+003;7.470138e-002
1.475339e+003;7.394733e-002
1.477268e+003;7.316380e-002
1.479196e+003;7.250739e-002
1.481125e+003;7.180736e-002
1.483053e+003;7.058217e-002
1.484982e+003;6.886528e-002
1.486911e+003;6.729147e-002
1.488839e+003;6.609455e-002
1.490768e+003;6.533402e-002
1.492696e+003;6.469060e-002
1.494625e+003;6.392826e-002
1.496553e+003;6.350166e-002
1.498482e+003;6.328009e-002
1.500410e+003;6.307832e-002
1.502339e+003;6.275087e-002
1.504267e+003;6.222619e-002
1.506196e+003;6.180722e-002
1.508125e+003;6.172005e-002
1.510053e+003;6.157616e-002
1.511982e+003;6.118677e-002
1.513910e+003;6.090503e-002
1.515839e+003;6.058184e-002
1.517767e+003;6.015638e-002
1.519696e+003;5.976530e-002
1.521624e+003;5.955231e-002
1.523553e+003;5.953825e-002
1.525481e+003;5.928648e-002
1.527410e+003;5.901015e-002
1.529339e+003;5.879100e-002
1.531267e+003;5.863894e-002
1.533196e+003;5.847768e-002
1.535124e+003;5.832633e-002
1.537053e+003;5.811485e-002
1.538981e+003;5.763746e-002
1.540910e+003;5.743274e-002
1.542838e+003;5.767526e-002
1.544767e+003;5.795253e-002
1.546695e+003;5.807704e-002
1.548624e+003;5.823550e-002
1.550553e+003;5.822315e-002
1.552481e+003;5.807897e-002
1.554410e+003;5.805920e-002
1.556338e+003;5.802959e-002
1.558267e+003;5.784762e-002
1.560195e+003;5.808238e-002
1.562124e+003;5.846089e-002
1.564052e+003;5.866883e-002
1.565981e+003;5.879195e-002
1.567910e+003;5.869492e-002
1.569838e+003;5.890749e-002
1.571767e+003;5.939049e-002
1.573695e+003;5.945792e-002
1.575624e+003;5.937028e-002
1.577552e+003;5.977237e-002
1.579481e+003;6.020281e-002
1.581409e+003;6.048246e-002
1.583338e+003;6.085323e-002
1.585266e+003;6.110579e-002
1.587195e+003;6.138434e-002
1.589124e+003;6.167689e-002
1.591052e+003;6.206393e-002
1.592981e+003;6.232489e-002
1.594909e+003;6.237875e-002
1.596838e+003;6.262527e-002
1.598766e+003;6.312856e-002
1.600695e+003;6.360933e-002
1.602623e+003;6.396742e-002
1.604552e+003;6.409337e-002
1.606480e+003;6.406652e-002
1.608409e+003;6.426398e-002
1.610338e+003;6.447880e-002
1.612266e+003;6.442422e-002
1.614195e+003;6.422580e-002
1.616123e+003;6.404217e-002
1.618052e+003;6.425588e-002
1.619980e+003;6.457555e-002
1.621909e+003;6.477302e-002
1.623837e+003;6.503126e-002
1.625766e+003;6.535836e-002
1.627694e+003;6.541629e-002
1.629623e+003;6.541325e-002
1.631552e+003;6.533136e-002
1.633480e+003;6.534778e-002
1.635409e+003;6.534661e-002
1.637337e+003;6.527322e-002
1.639266e+003;6.545185e-002
1.641194e+003;6.555480e-002
1.643123e+003;6.543644e-002
1.645051e+003;6.523871e-002
1.646980e+003;6.493010e-002
1.648909e+003;6.457363e-002
1.650837e+003;6.424339e-002
1.652766e+003;6.413569e-002
1.654694e+003;6.427797e-002
1.656623e+003;6.419134e-002
1.658551e+003;6.369078e-002
1.660480e+003;6.295210e-002
1.662408e+003;6.226118e-002
1.664337e+003;6.185352e-002
1.666266e+003;6.178537e-002
1.668194e+003;6.134370e-002
1.670123e+003;6.069671e-002
1.672051e+003;6.042656e-002
1.673980e+003;6.010204e-002
1.675908e+003;5.955163e-002
1.677837e+003;5.901740e-002
1.679765e+003;5.831121e-002
1.681694e+003;5.752677e-002
1.683622e+003;5.677840e-002
1.685551e+003;5.631350e-002
1.687479e+003;5.607275e-002
1.689408e+003;5.565286e-002
1.691337e+003;5.508522e-002
1.693265e+003;5.441942e-002
1.695194e+003;5.389427e-002
1.697122e+003;5.368249e-002
1.699051e+003;5.318535e-002
1.700979e+003;5.270284e-002
1.702908e+003;5.257709e-002
1.704836e+003;5.245153e-002
1.706765e+003;5.231228e-002
1.708693e+003;5.199538e-002
1.710622e+003;5.180413e-002
1.712551e+003;5.154463e-002
1.714479e+003;5.124212e-002
1.716408e+003;5.103640e-002
1.718336e+003;5.085894e-002
1.720265e+003;5.078538e-002
1.722193e+003;5.069928e-002
1.724122e+003;5.042832e-002
1.726050e+003;5.020956e-002
1.727979e+003;5.010683e-002
1.729908e+003;4.996585e-002
1.731836e+003;4.953588e-002
1.733765e+003;4.914059e-002
1.735693e+003;4.917264e-002
1.737622e+003;4.923276e-002
1.739550e+003;4.897829e-002
1.741479e+003;4.858843e-002
1.743407e+003;4.806877e-002
1.745336e+003;4.758869e-002
1.747265e+003;4.707443e-002
1.749193e+003;4.662050e-002
1.751122e+003;4.642060e-002
1.753050e+003;4.628704e-002
1.754979e+003;4.614603e-002
1.756907e+003;4.607894e-002
1.758836e+003;4.612473e-002
1.760764e+003;4.605985e-002
1.762693e+003;4.601156e-002
1.764621e+003;4.580303e-002
1.766550e+003;4.562461e-002
1.768479e+003;4.565519e-002
1.770407e+003;4.538269e-002
1.772336e+003;4.494885e-002
1.774264e+003;4.498542e-002
1.776193e+003;4.519568e-002
1.778121e+003;4.513079e-002
1.780050e+003;4.468806e-002
1.781978e+003;4.442780e-002
1.783907e+003;4.432889e-002
1.785835e+003;4.407522e-002
1.787764e+003;4.403019e-002
1.789693e+003;4.412833e-002
1.791621e+003;4.408678e-002
1.793550e+003;4.397072e-002
1.795478e+003;4.388339e-002
1.797407e+003;4.371092e-002
1.799335e+003;4.348123e-002
1.801264e+003;4.350676e-002
1.803192e+003;4.361401e-002
1.805121e+003;4.351712e-002
1.807049e+003;4.335431e-002
1.808978e+003;4.321777e-002
1.810907e+003;4.314527e-002
1.812835e+003;4.314853e-002
1.814764e+003;4.319504e-002
1.816692e+003;4.320694e-002
1.818621e+003;4.315954e-002
1.820549e+003;4.301669e-002
1.822478e+003;4.281973e-002
1.824406e+003;4.268961e-002
1.826335e+003;4.274555e-002
1.828264e+003;4.262751e-002
1.830192e+003;4.230444e-002
1.832121e+003;4.209028e-002
1.834049e+003;4.206560e-002
1.835978e+003;4.195245e-002
1.837906e+003;4.189494e-002
1.839835e+003;4.195654e-002
1.841763e+003;4.187141e-002
1.843692e+003;4.166012e-002
1.845620e+003;4.147920e-002
1.847549e+003;4.126133e-002
1.849478e+003;4.129711e-002
1.851406e+003;4.130983e-002
1.853335e+003;4.116489e-002
1.855263e+003;4.098774e-002
1.857192e+003;4.086734e-002
1.859120e+003;4.075450e-002
1.861049e+003;4.069300e-002
1.862977e+003;4.074904e-002
1.864906e+003;4.078030e-002
1.866834e+003;4.081132e-002
1.868763e+003;4.067418e-002
1.870692e+003;4.032766e-002
1.872620e+003;4.010056e-002
1.874549e+003;4.004176e-002
1.876477e+003;4.013261e-002
1.878406e+003;4.034290e-002
1.880334e+003;4.047167e-002
1.882263e+003;4.042657e-002
1.884191e+003;4.021908e-002
1.886120e+003;4.006716e-002
1.888048e+003;4.013294e-002
1.889977e+003;4.022744e-002
1.891906e+003;4.031170e-002
1.893834e+003;4.023238e-002
1.895763e+003;3.995475e-002
1.897691e+003;3.983002e-002
1.899620e+003;3.996180e-002
1.901548e+003;4.012886e-002
1.903477e+003;4.014220e-002
1.905405e+003;4.011211e-002
1.907334e+003;4.014780e-002
1.909262e+003;4.007777e-002
1.911191e+003;3.997117e-002
1.913120e+003;4.016895e-002
1.915048e+003;4.028211e-002
1.916977e+003;4.019661e-002
1.918905e+003;4.009369e-002
1.920834e+003;4.030476e-002
1.922762e+003;4.070850e-002
1.924691e+003;4.072145e-002
1.926619e+003;4.067891e-002
1.928548e+003;4.068485e-002
1.930477e+003;4.063118e-002
1.932405e+003;4.074023e-002
1.934334e+003;4.085962e-002
1.936262e+003;4.075657e-002
1.938191e+003;4.069754e-002
1.940119e+003;4.091109e-002
1.942048e+003;4.118780e-002
1.943976e+003;4.133788e-002
1.945905e+003;4.134816e-002
1.947833e+003;4.132105e-002
1.949762e+003;4.131190e-002
1.951691e+003;4.159569e-002
1.953619e+003;4.178326e-002
1.955548e+003;4.170863e-002
1.957476e+003;4.163456e-002
1.959405e+003;4.165881e-002
1.961333e+003;4.158011e-002
1.963262e+003;4.162022e-002
1.965190e+003;4.173708e-002
1.967119e+003;4.178126e-002
1.969047e+003;4.200589e-002
1.970976e+003;4.200516e-002
1.972905e+003;4.199826e-002
1.974833e+003;4.216721e-002
1.976762e+003;4.224476e-002
1.978690e+003;4.238725e-002
1.980619e+003;4.251765e-002
1.982547e+003;4.230809e-002
1.984476e+003;4.225291e-002
1.986404e+003;4.244307e-002
1.988333e+003;4.272006e-002
1.990261e+003;4.296779e-002
1.992190e+003;4.296149e-002
1.994119e+003;4.287715e-002
1.996047e+003;4.297360e-002
1.997976e+003;4.296530e-002
1.999904e+003;4.290729e-002
2.001833e+003;4.298834e-002
2.003761e+003;4.300590e-002
2.005690e+003;4.311087e-002
2.007618e+003;4.331217e-002
2.009547e+003;4.370297e-002
2.011476e+003;4.415412e-002
2.013404e+003;4.427851e-002
2.015333e+003;4.431036e-002
2.017261e+003;4.432809e-002
2.019190e+003;4.425078e-002
2.021118e+003;4.430765e-002
2.023047e+003;4.431983e-002
2.024975e+003;4.445966e-002
2.026904e+003;4.475950e-002
2.028833e+003;4.496311e-002
2.030761e+003;4.519987e-002
2.032690e+003;4.524738e-002
2.034618e+003;4.514572e-002
2.036547e+003;4.493805e-002
2.038475e+003;4.468270e-002
2.040404e+003;4.495738e-002
2.042332e+003;4.522554e-002
2.044261e+003;4.538688e-002
2.046189e+003;4.569962e-002
2.048118e+003;4.565626e-002
2.050047e+003;4.534318e-002
2.051975e+003;4.529279e-002
2.053904e+003;4.520451e-002
2.055832e+003;4.494602e-002
2.057761e+003;4.492743e-002
2.059689e+003;4.508131e-002
2.061618e+003;4.513211e-002
2.063546e+003;4.511619e-002
2.065475e+003;4.520759e-002
2.067404e+003;4.529805e-002
2.069332e+003;4.508083e-002
2.071260e+003;4.486915e-002
2.073189e+003;4.506124e-002
2.075118e+003;4.517505e-002
2.077046e+003;4.527349e-002
2.078975e+003;4.520347e-002
2.080903e+003;4.503654e-002
2.082832e+003;4.505407e-002
2.084760e+003;4.510160e-002
2.086689e+003;4.516935e-002
2.088617e+003;4.511211e-002
2.090546e+003;4.509160e-002
2.092475e+003;4.524043e-002
2.094403e+003;4.524043e-002
2.096332e+003;4.519645e-002
2.098260e+003;4.524550e-002
2.100189e+003;4.536411e-002
2.102117e+003;4.546373e-002
2.104046e+003;4.547712e-002
2.105974e+003;4.564897e-002
2.107903e+003;4.594146e-002
2.109832e+003;4.610499e-002
2.111760e+003;4.606961e-002
2.113688e+003;4.582759e-002
2.115617e+003;4.560105e-002
2.117546e+003;4.572796e-002
2.119474e+003;4.585300e-002
2.121403e+003;4.583522e-002
2.123331e+003;4.577192e-002
2.125260e+003;4.581559e-002
2.127188e+003;4.602684e-002
2.129117e+003;4.635361e-002
2.131045e+003;4.651412e-002
2.132974e+003;4.639358e-002
2.134903e+003;4.630650e-002
2.136831e+003;4.648624e-002
2.138760e+003;4.654311e-002
2.140688e+003;4.639288e-002
2.142617e+003;4.628623e-002
2.144545e+003;4.592330e-002
2.146474e+003;4.587325e-002
2.148402e+003;4.615867e-002
2.150331e+003;4.611593e-002
2.152260e+003;4.598382e-002
2.154188e+003;4.595844e-002
2.156117e+003;4.584538e-002
2.158045e+003;4.590007e-002
2.159974e+003;4.593549e-002
2.161902e+003;4.552065e-002
2.163831e+003;4.532086e-002
2.165759e+003;4.529794e-002
2.167688e+003;4.505477e-002
2.169616e+003;4.504569e-002
2.171545e+003;4.511737e-002
2.173474e+003;4.487044e-002
2.175402e+003;4.465127e-002
2.177331e+003;4.460045e-002
2.179259e+003;4.466816e-002
2.181188e+003;4.457008e-002
2.183116e+003;4.413750e-002
2.185045e+003;4.384575e-002
2.186973e+003;4.380792e-002
2.188902e+003;4.376966e-002
2.190831e+003;4.383695e-002
2.192759e+003;4.378707e-002
2.194688e+003;4.368487e-002
2.196616e+003;4.364152e-002
2.198545e+003;4.372499e-002
2.200473e+003;4.363841e-002
2.202402e+003;4.345208e-002
2.204330e+003;4.353972e-002
2.206259e+003;4.359181e-002
2.208188e+003;4.327136e-002
2.210116e+003;4.337745e-002
2.212044e+003;4.381587e-002
2.213973e+003;4.375108e-002
2.215902e+003;4.365622e-002
2.217830e+003;4.358793e-002
2.219759e+003;4.345417e-002
2.221687e+003;4.365731e-002
2.223616e+003;4.387020e-002
2.225544e+003;4.385707e-002
2.227473e+003;4.389490e-002
2.229401e+003;4.398278e-002
2.231330e+003;4.423343e-002
2.233259e+003;4.408586e-002
2.235187e+003;4.385920e-002
2.237116e+003;4.393893e-002
2.239044e+003;4.380143e-002
2.240973e+003;4.350932e-002
2.242901e+003;4.347761e-002
2.244830e+003;4.362903e-002
2.246758e+003;4.376500e-002
2.248687e+003;4.392163e-002
2.250615e+003;4.375526e-002
2.252544e+003;4.346295e-002
2.254473e+003;4.336592e-002
2.256401e+003;4.328271e-002
2.258330e+003;4.332437e-002
2.260258e+003;4.337753e-002
2.262187e+003;4.319676e-002
2.264115e+003;4.306192e-002
2.266044e+003;4.286135e-002
2.267972e+003;4.266914e-002
2.269901e+003;4.252086e-002
2.271830e+003;4.238659e-002
2.273758e+003;4.251772e-002
2.275687e+003;4.272266e-002
2.277615e+003;4.274876e-002
2.279544e+003;4.268800e-002
2.281472e+003;4.247062e-002
2.283401e+003;4.233954e-002
2.285329e+003;4.248235e-002
2.287258e+003;4.271911e-002
2.289187e+003;4.258540e-002
2.291115e+003;4.234213e-002
2.293043e+003;4.237574e-002
2.294972e+003;4.241527e-002
2.296901e+003;4.244833e-002
2.298829e+003;4.239627e-002
2.300758e+003;4.233297e-002
2.302686e+003;4.217188e-002
2.304615e+003;4.205520e-002
2.306543e+003;4.237556e-002
2.308472e+003;4.240014e-002
2.310400e+003;4.209261e-002
2.312329e+003;4.216965e-002
2.314258e+003;4.252126e-002
2.316186e+003;4.257736e-002
2.318115e+003;4.261058e-002
2.320043e+003;4.266296e-002
2.321972e+003;4.267550e-002
2.323900e+003;4.314527e-002
2.325829e+003;4.343479e-002
2.327757e+003;4.330602e-002
2.329686e+003;4.337639e-002
2.331615e+003;4.352771e-002
2.333543e+003;4.345743e-002
2.335472e+003;4.337035e-002
2.337400e+003;4.354119e-002
2.339329e+003;4.367472e-002
2.341257e+003;4.360452e-002
2.343186e+003;4.366754e-002
2.345114e+003;4.373290e-002
2.347043e+003;4.397435e-002
2.348971e+003;4.392214e-002
2.350900e+003;4.383842e-002
2.352829e+003;4.396159e-002
2.354757e+003;4.412697e-002
2.356686e+003;4.419326e-002
2.358614e+003;4.412881e-002
2.360543e+003;4.427327e-002
2.362471e+003;4.474058e-002
2.364400e+003;4.488536e-002
2.366328e+003;4.477184e-002
2.368257e+003;4.479572e-002
2.370186e+003;4.494698e-002
2.372114e+003;4.529986e-002
2.374042e+003;4.530464e-002
2.375971e+003;4.470815e-002
2.377900e+003;4.433642e-002
2.379828e+003;4.484212e-002
2.381757e+003;4.544662e-002
2.383685e+003;4.557316e-002
2.385614e+003;4.537779e-002
2.387542e+003;4.526415e-002
2.389471e+003;4.535278e-002
2.391399e+003;4.566564e-002
2.393328e+003;4.578094e-002
2.395257e+003;4.573710e-002
2.397185e+003;4.579261e-002
2.399114e+003;4.573522e-002
2.401042e+003;4.571637e-002
2.402971e+003;4.594308e-002
2.404899e+003;4.605363e-002
2.406828e+003;4.623042e-002
2.408756e+003;4.654739e-002
2.410685e+003;4.676734e-002
2.412614e+003;4.681302e-002
2.414542e+003;4.699648e-002
2.416471e+003;4.739622e-002
2.418399e+003;4.760607e-002
2.420328e+003;4.756403e-002
2.422256e+003;4.737542e-002
2.424185e+003;4.709249e-002
2.426113e+003;4.713207e-002
2.428042e+003;4.749575e-002
2.429970e+003;4.781113e-002
2.431899e+003;4.794835e-002
2.433828e+003;4.813128e-002
2.435756e+003;4.838489e-002
2.437685e+003;4.872460e-002
2.439613e+003;4.880945e-002
2.441542e+003;4.879340e-002
2.443470e+003;4.880597e-002
2.445399e+003;4.885806e-002
2.447327e+003;4.906067e-002
2.449256e+003;4.900778e-002
2.451185e+003;4.881694e-002
2.453113e+003;4.919231e-002
2.455042e+003;4.948593e-002
2.456970e+003;4.921673e-002
2.458899e+003;4.925655e-002
2.460827e+003;4.950498e-002
2.462756e+003;4.954940e-002
2.464684e+003;4.962372e-002
2.466613e+003;4.988883e-002
2.468542e+003;5.000202e-002
2.470470e+003;4.997101e-002
2.472398e+003;4.994585e-002
2.474327e+003;5.014778e-002
2.476256e+003;5.047688e-002
2.478184e+003;5.067642e-002
2.480113e+003;5.059004e-002
2.482041e+003;5.035825e-002
2.483970e+003;5.047468e-002
2.485898e+003;5.083797e-002
2.487827e+003;5.100551e-002
2.489755e+003;5.085194e-002
2.491684e+003;5.077204e-002
2.493613e+003;5.097499e-002
2.495541e+003;5.110714e-002
2.497470e+003;5.106745e-002
2.499398e+003;5.107721e-002
2.501327e+003;5.131532e-002
2.503255e+003;5.167341e-002
2.505184e+003;5.177415e-002
2.507112e+003;5.185359e-002
2.509041e+003;5.189392e-002
2.510969e+003;5.175455e-002
2.512898e+003;5.183772e-002
2.514827e+003;5.221041e-002
2.516755e+003;5.228006e-002
2.518684e+003;5.237811e-002
2.520612e+003;5.236667e-002
2.522541e+003;5.252870e-002
2.524469e+003;5.257593e-002
2.526398e+003;5.246282e-002
2.528326e+003;5.251835e-002
2.530255e+003;5.248017e-002
2.532184e+003;5.238394e-002
2.534112e+003;5.254822e-002
2.536041e+003;5.248200e-002
2.537969e+003;5.237769e-002
2.539898e+003;5.230320e-002
2.541826e+003;5.210169e-002
2.543755e+003;5.231901e-002
2.545683e+003;5.275316e-002
2.547612e+003;5.275036e-002
2.549541e+003;5.275114e-002
2.551469e+003;5.266121e-002
2.553397e+003;5.242012e-002
2.555326e+003;5.234446e-002
2.557255e+003;5.273981e-002
2.559183e+003;5.300095e-002
2.561112e+003;5.283769e-002
2.563040e+003;5.295558e-002
2.564969e+003;5.299365e-002
2.566897e+003;5.288769e-002
2.568826e+003;5.289079e-002
2.570754e+003;5.249284e-002
2.572683e+003;5.238483e-002
2.574612e+003;5.303715e-002
2.576540e+003;5.333222e-002
2.578469e+003;5.332769e-002
2.580397e+003;5.333095e-002
2.582326e+003;5.312221e-002
2.584254e+003;5.311615e-002
2.586183e+003;5.345703e-002
2.588111e+003;5.350463e-002
2.590040e+003;5.359218e-002
2.591969e+003;5.353618e-002
2.593897e+003;5.331521e-002
2.595826e+003;5.371542e-002
2.597754e+003;5.408236e-002
2.599683e+003;5.412259e-002
2.601611e+003;5.410867e-002
2.603540e+003;5.415679e-002
2.605468e+003;5.449274e-002
2.607397e+003;5.480639e-002
2.609325e+003;5.470566e-002
2.611254e+003;5.442445e-002
2.613183e+003;5.439752e-002
2.615111e+003;5.461070e-002
2.617040e+003;5.478245e-002
2.618968e+003;5.497201e-002
2.620897e+003;5.528831e-002
2.622825e+003;5.542370e-002
2.624754e+003;5.536012e-002
2.626682e+003;5.525328e-002
2.628611e+003;5.531044e-002
2.630540e+003;5.576150e-002
2.632468e+003;5.625062e-002
2.634396e+003;5.608576e-002
2.636325e+003;5.578911e-002
2.638254e+003;5.588961e-002
2.640182e+003;5.608180e-002
2.642111e+003;5.622019e-002
2.644039e+003;5.635368e-002
2.645968e+003;5.654906e-002
2.647896e+003;5.677330e-002
2.649825e+003;5.673437e-002
2.651753e+003;5.664565e-002
2.653682e+003;5.660367e-002
2.655611e+003;5.674634e-002
2.657539e+003;5.717674e-002
2.659468e+003;5.738967e-002
2.661396e+003;5.744560e-002
2.663325e+003;5.728504e-002
2.665253e+003;5.697080e-002
2.667182e+003;5.725450e-002
2.669110e+003;5.764253e-002
2.671039e+003;5.782661e-002
2.672968e+003;5.780651e-002
2.674896e+003;5.757553e-002
2.676825e+003;5.764344e-002
2.678753e+003;5.791535e-002
2.680682e+003;5.850573e-002
2.682610e+003;5.878216e-002
2.684539e+003;5.871183e-002
2.686467e+003;5.887998e-002
2.688396e+003;5.891777e-002
2.690324e+003;5.877905e-002
2.692253e+003;5.900441e-002
2.694182e+003;5.927585e-002
2.696110e+003;5.916018e-002
2.698039e+003;5.914374e-002
2.699967e+003;5.946989e-002
2.701896e+003;5.942103e-002
2.703824e+003;5.921417e-002
2.705753e+003;5.931858e-002
2.707681e+003;5.972291e-002
2.709610e+003;6.017092e-002
2.711539e+003;6.030011e-002
2.713467e+003;6.023768e-002
2.715396e+003;6.031058e-002
2.717324e+003;6.036274e-002
2.719253e+003;6.049195e-002
2.721181e+003;6.072182e-002
2.723110e+003;6.102715e-002
2.725038e+003;6.143171e-002
2.726967e+003;6.123835e-002
2.728896e+003;6.079179e-002
2.730824e+003;6.087320e-002
2.732752e+003;6.102166e-002
2.734681e+003;6.119589e-002
2.736610e+003;6.137961e-002
2.738538e+003;6.101431e-002
2.740467e+003;6.068455e-002
2.742395e+003;6.119597e-002
2.744324e+003;6.184160e-002
2.746252e+003;6.162813e-002
2.748181e+003;6.127055e-002
2.750109e+003;6.119345e-002
2.752038e+003;6.128272e-002
2.753967e+003;6.148117e-002
2.755895e+003;6.149060e-002
2.757824e+003;6.169339e-002
2.759752e+003;6.208989e-002
2.761681e+003;6.240438e-002
2.763609e+003;6.254870e-002
2.765538e+003;6.264625e-002
2.767466e+003;6.266171e-002
2.769395e+003;6.249903e-002
2.771323e+003;6.265218e-002
2.773252e+003;6.295796e-002
2.775181e+003;6.303675e-002
2.777109e+003;6.301963e-002
2.779038e+003;6.306369e-002
2.780966e+003;6.317588e-002
2.782895e+003;6.342585e-002
2.784823e+003;6.388577e-002
2.786752e+003;6.436265e-002
2.788680e+003;6.440608e-002
2.790609e+003;6.406813e-002
2.792538e+003;6.398823e-002
2.794466e+003;6.432173e-002
2.796395e+003;6.468637e-002
2.798323e+003;6.469748e-002
2.800252e+003;6.463969e-002
2.802180e+003;6.516653e-002
2.804109e+003;6.574666e-002
2.806037e+003;6.583560e-002
2.807966e+003;6.589275e-002
2.809895e+003;6.664293e-002
2.811823e+003;6.738278e-002
2.813751e+003;6.732891e-002
2.815680e+003;6.747167e-002
2.817609e+003;6.796061e-002
2.819537e+003;6.841100e-002
2.821466e+003;6.888869e-002
2.823394e+003;6.912426e-002
2.825323e+003;6.929310e-002
2.827251e+003;6.959997e-002
2.829180e+003;6.986511e-002
2.831108e+003;7.036743e-002
2.833037e+003;7.134793e-002
2.834966e+003;7.233600e-002
2.836894e+003;7.308389e-002
2.838823e+003;7.374334e-002
2.840751e+003;7.440205e-002
2.842680e+003;7.473857e-002
2.844608e+003;7.478238e-002
2.846537e+003;7.526831e-002
2.848465e+003;7.641440e-002
2.850394e+003;7.743511e-002
2.852323e+003;7.810124e-002
2.854251e+003;7.895613e-002
2.856180e+003;7.958368e-002
2.858108e+003;7.991023e-002
2.860037e+003;8.074573e-002
2.861965e+003;8.198097e-002
2.863894e+003;8.287798e-002
2.865822e+003;8.323691e-002
2.867751e+003;8.376555e-002
2.869679e+003;8.429412e-002
2.871608e+003;8.443833e-002
2.873536e+003;8.479557e-002
2.875465e+003;8.488190e-002
2.877394e+003;8.512598e-002
2.879322e+003;8.580507e-002
2.881251e+003;8.645906e-002
2.883179e+003;8.673907e-002
2.885108e+003;8.680875e-002
2.887036e+003;8.723582e-002
2.888965e+003;8.791960e-002
2.890893e+003;8.856923e-002
2.892822e+003;8.863794e-002
2.894750e+003;8.847470e-002
2.896679e+003;8.865627e-002
2.898608e+003;8.900069e-002
2.900536e+003;8.870289e-002
2.902465e+003;8.791704e-002
2.904393e+003;8.710805e-002
2.906322e+003;8.678702e-002
2.908250e+003;8.629866e-002
2.910179e+003;8.514521e-002
2.912107e+003;8.399563e-002
2.914036e+003;8.295193e-002
2.915965e+003;8.185545e-002
2.917893e+003;8.109416e-002
2.919822e+003;8.068085e-002
2.921750e+003;8.042558e-002
2.923679e+003;7.968155e-002
2.925607e+003;7.875691e-002
2.927536e+003;7.786131e-002
2.929464e+003;7.719389e-002
2.931393e+003;7.663064e-002
2.933322e+003;7.599897e-002
2.935250e+003;7.518573e-002
2.937178e+003;7.472417e-002
2.939107e+003;7.455809e-002
2.941036e+003;7.401223e-002
2.942964e+003;7.348260e-002
2.944893e+003;7.305606e-002
2.946821e+003;7.247419e-002
2.948750e+003;7.187370e-002
2.950678e+003;7.115034e-002
2.952607e+003;7.055527e-002
2.954535e+003;7.014042e-002
2.956464e+003;6.947071e-002
2.958393e+003;6.885635e-002
2.960321e+003;6.853522e-002
2.962250e+003;6.814811e-002
2.964178e+003;6.722651e-002
2.966107e+003;6.649853e-002
2.968035e+003;6.620255e-002
2.969964e+003;6.619094e-002
2.971892e+003;6.589803e-002
2.973821e+003;6.547242e-002
2.975750e+003;6.522609e-002
2.977678e+003;6.469756e-002
2.979607e+003;6.410930e-002
2.981535e+003;6.369784e-002
2.983464e+003;6.325326e-002
2.985392e+003;6.273812e-002
2.987321e+003;6.237466e-002
2.989249e+003;6.238009e-002
2.991178e+003;6.236651e-002
2.993106e+003;6.212586e-002
2.995035e+003;6.203236e-002
2.996964e+003;6.194996e-002
2.998892e+003;6.191928e-002
3.000821e+003;6.209207e-002
3.002749e+003;6.214069e-002
3.004678e+003;6.236387e-002
3.006606e+003;6.270485e-002
3.008535e+003;6.262551e-002
3.010463e+003;6.257047e-002
3.012392e+003;6.236100e-002
3.014321e+003;6.231150e-002
3.016249e+003;6.255363e-002
3.018177e+003;6.263208e-002
3.020106e+003;6.269429e-002
3.022035e+003;6.277411e-002
3.023963e+003;6.295858e-002
3.025892e+003;6.315868e-002
3.027820e+003;6.325859e-002
3.029749e+003;6.339721e-002
3.031677e+003;6.348544e-002
3.033606e+003;6.358378e-002
3.035534e+003;6.369987e-002
3.037463e+003;6.391882e-002
3.039392e+003;6.416845e-002
3.041320e+003;6.432284e-002
3.043249e+003;6.461262e-002
3.045177e+003;6.497904e-002
3.047106e+003;6.531820e-002
3.049034e+003;6.532077e-002
3.050963e+003;6.552039e-002
3.052891e+003;6.585688e-002
3.054820e+003;6.600825e-002
3.056749e+003;6.648003e-002
3.058677e+003;6.669853e-002
3.060606e+003;6.684235e-002
3.062534e+003;6.734408e-002
3.064463e+003;6.750399e-002
3.066391e+003;6.754026e-002
3.068320e+003;6.766147e-002
3.070248e+003;6.798805e-002
3.072177e+003;6.849599e-002
3.074105e+003;6.858224e-002
3.076034e+003;6.879947e-002
3.077963e+003;6.873216e-002
3.079891e+003;6.858053e-002
3.081820e+003;6.873550e-002
3.083748e+003;6.893650e-002
3.085677e+003;6.903479e-002
3.087605e+003;6.936652e-002
3.089534e+003;6.982647e-002
3.091462e+003;7.052229e-002
3.093391e+003;7.083269e-002
3.095320e+003;7.063721e-002
3.097248e+003;7.095952e-002
3.099177e+003;7.129904e-002
3.101105e+003;7.135945e-002
3.103034e+003;7.173153e-002
3.104962e+003;7.220295e-002
3.106891e+003;7.249204e-002
3.108819e+003;7.283539e-002
3.110748e+003;7.343560e-002
3.112677e+003;7.355925e-002
3.114605e+003;7.330923e-002
3.116533e+003;7.359234e-002
3.118462e+003;7.394949e-002
3.120391e+003;7.451678e-002
3.122319e+003;7.518297e-002
3.124248e+003;7.527947e-002
3.126176e+003;7.547954e-002
3.128105e+003;7.535442e-002
3.130033e+003;7.517564e-002
3.131962e+003;7.554297e-002
3.133890e+003;7.656250e-002
3.135819e+003;7.732571e-002
3.137748e+003;7.762686e-002
3.139676e+003;7.787340e-002
3.141605e+003;7.817791e-002
3.143533e+003;7.833833e-002
3.145462e+003;7.857006e-002
3.147390e+003;7.861787e-002
3.149319e+003;7.910228e-002
3.151247e+003;7.962583e-002
3.153176e+003;7.958018e-002
3.155104e+003;7.986156e-002
3.157033e+003;8.068058e-002
3.158962e+003;8.128058e-002
3.160890e+003;8.177197e-002
3.162819e+003;8.259031e-002
3.164747e+003;8.300913e-002
3.166676e+003;8.316949e-002
3.168604e+003;8.340932e-002
3.170533e+003;8.367628e-002
3.172461e+003;8.375386e-002
3.174390e+003;8.417300e-002
3.176319e+003;8.469848e-002
3.178247e+003;8.516774e-002
3.180176e+003;8.582485e-002
3.182104e+003;8.606272e-002
3.184033e+003;8.630375e-002
3.185961e+003;8.722732e-002
3.187890e+003;8.804413e-002
3.189818e+003;8.805720e-002
3.191747e+003;8.798297e-002
3.193676e+003;8.848217e-002
3.195604e+003;8.929813e-002
3.197532e+003;8.986840e-002
3.199461e+003;9.060728e-002
3.201390e+003;9.154783e-002
3.203318e+003;9.207129e-002
3.205247e+003;9.247094e-002
3.207175e+003;9.275921e-002
3.209104e+003;9.334759e-002
3.211032e+003;9.425838e-002
3.212961e+003;9.467904e-002
3.214889e+003;9.500638e-002
3.216818e+003;9.509388e-002
3.218747e+003;9.533425e-002
3.220675e+003;9.627815e-002
3.222604e+003;9.756934e-002
3.224532e+003;9.845943e-002
3.226461e+003;9.890291e-002
3.228389e+003;9.976626e-002
3.230318e+003;1.005336e-001
3.232246e+003;1.008479e-001
3.234175e+003;1.012257e-001
3.236104e+003;1.018303e-001
3.238032e+003;1.028440e-001
3.239961e+003;1.035438e-001
3.241889e+003;1.035040e-001
3.243818e+003;1.040400e-001
3.245746e+003;1.052554e-001
3.247675e+003;1.061706e-001
3.249603e+003;1.067546e-001
3.251532e+003;1.076444e-001
3.253460e+003;1.085771e-001
3.255389e+003;1.091914e-001
3.257318e+003;1.098901e-001
3.259246e+003;1.105116e-001
3.261175e+003;1.112795e-001
3.263103e+003;1.122315e-001
3.265032e+003;1.134175e-001
3.266960e+003;1.145668e-001
3.268889e+003;1.147912e-001
3.270817e+003;1.146093e-001
3.272746e+003;1.151775e-001
3.274675e+003;1.166916e-001
3.276603e+003;1.173648e-001
3.278531e+003;1.177789e-001
3.280460e+003;1.182438e-001
3.282389e+003;1.184453e-001
3.284317e+003;1.186663e-001
3.286246e+003;1.189572e-001
3.288174e+003;1.191661e-001
3.290103e+003;1.192648e-001
3.292031e+003;1.194482e-001
3.293960e+003;1.194463e-001
3.295888e+003;1.196842e-001
3.297817e+003;1.201860e-001
3.299746e+003;1.203044e-001
3.301674e+003;1.199946e-001
3.303603e+003;1.202288e-001
3.305531e+003;1.204361e-001
3.307460e+003;1.202379e-001
3.309388e+003;1.200989e-001
3.311317e+003;1.204111e-001
3.313245e+003;1.203160e-001
3.315174e+003;1.199885e-001
3.317103e+003;1.205115e-001
3.319031e+003;1.215480e-001
3.320960e+003;1.221773e-001
3.322888e+003;1.224013e-001
3.324817e+003;1.225266e-001
3.326745e+003;1.230168e-001
3.328674e+003;1.236646e-001
3.330602e+003;1.245367e-001
3.332531e+003;1.247597e-001
3.334459e+003;1.245836e-001
3.336388e+003;1.246639e-001
3.338317e+003;1.250461e-001
3.340245e+003;1.251956e-001
3.342174e+003;1.251285e-001
3.344102e+003;1.244714e-001
3.346031e+003;1.235848e-001
3.347959e+003;1.227277e-001
3.349888e+003;1.220279e-001
3.351816e+003;1.220357e-001
3.353745e+003;1.214151e-001
3.355674e+003;1.205320e-001
3.357602e+003;1.200893e-001
3.359531e+003;1.196011e-001
3.361459e+003;1.190022e-001
3.363388e+003;1.185585e-001
3.365316e+003;1.183574e-001
3.367245e+003;1.179440e-001
3.369173e+003;1.173232e-001
3.371102e+003;1.164436e-001
3.373031e+003;1.158848e-001
3.374959e+003;1.150929e-001
3.376887e+003;1.141937e-001
3.378816e+003;1.142083e-001
3.380745e+003;1.143600e-001
3.382673e+003;1.140091e-001
3.384602e+003;1.130499e-001
3.386530e+003;1.119589e-001
3.388459e+003;1.110700e-001
3.390387e+003;1.107706e-001
3.392316e+003;1.107275e-001
3.394244e+003;1.110198e-001
3.396173e+003;1.113639e-001
3.398102e+003;1.108181e-001
3.400030e+003;1.095208e-001
3.401959e+003;1.086531e-001
3.403887e+003;1.081735e-001
3.405816e+003;1.076333e-001
3.407744e+003;1.069773e-001
3.409673e+003;1.060329e-001
3.411601e+003;1.056758e-001
3.413530e+003;1.052314e-001
3.415458e+003;1.041436e-001
3.417387e+003;1.032810e-001
3.419316e+003;1.026917e-001
3.421244e+003;1.021774e-001
3.423173e+003;1.020527e-001
3.425101e+003;1.019800e-001
3.427030e+003;1.011380e-001
3.428958e+003;9.998924e-002
3.430887e+003;9.903321e-002
3.432815e+003;9.857833e-002
3.434744e+003;9.815719e-002
3.436673e+003;9.752123e-002
3.438601e+003;9.654983e-002
3.440530e+003;9.582796e-002
3.442458e+003;9.570181e-002
3.444387e+003;9.556565e-002
3.446315e+003;9.499075e-002
3.448244e+003;9.420445e-002
3.450172e+003;9.289358e-002
3.452101e+003;9.208059e-002
3.454030e+003;9.198177e-002
3.455958e+003;9.141453e-002
3.457886e+003;9.062353e-002
3.459815e+003;9.006474e-002
3.461744e+003;8.893026e-002
3.463672e+003;8.799998e-002
3.465601e+003;8.770902e-002
3.467529e+003;8.759152e-002
3.469458e+003;8.706164e-002
3.471386e+003;8.629276e-002
3.473315e+003;8.556053e-002
3.475243e+003;8.495204e-002
3.477172e+003;8.431484e-002
3.479101e+003;8.354143e-002
3.481029e+003;8.291243e-002
3.482958e+003;8.235831e-002
3.484886e+003;8.181289e-002
3.486815e+003;8.087361e-002
3.488743e+003;7.977690e-002
3.490672e+003;7.925301e-002
3.492600e+003;7.904495e-002
3.494529e+003;7.857419e-002
3.496458e+003;7.829539e-002
3.498386e+003;7.807237e-002
3.500315e+003;7.735916e-002
3.502243e+003;7.594758e-002
3.504172e+003;7.528873e-002
3.506100e+003;7.532191e-002
3.508029e+003;7.442856e-002
3.509957e+003;7.327346e-002
3.511886e+003;7.283515e-002
3.513814e+003;7.224321e-002
3.515743e+003;7.195054e-002
3.517672e+003;7.164165e-002
3.519600e+003;7.138752e-002
3.521529e+003;7.162035e-002
3.523457e+003;7.128210e-002
3.525386e+003;7.052007e-002
3.527314e+003;6.942090e-002
3.529243e+003;6.870510e-002
3.531171e+003;6.828768e-002
3.533100e+003;6.755763e-002
3.535029e+003;6.669211e-002
3.536957e+003;6.563823e-002
3.538885e+003;6.557002e-002
3.540814e+003;6.572615e-002
3.542743e+003;6.481210e-002
3.544671e+003;6.433237e-002
3.546600e+003;6.458671e-002
3.548528e+003;6.418485e-002
3.550457e+003;6.342904e-002
3.552385e+003;6.278437e-002
3.554314e+003;6.271454e-002
3.556242e+003;6.214765e-002
3.558171e+003;6.168927e-002
3.560100e+003;6.188451e-002
3.562028e+003;6.161167e-002
3.563957e+003;6.076339e-002
3.565885e+003;5.959651e-002
3.567814e+003;5.906534e-002
3.569742e+003;5.915615e-002
3.571671e+003;5.822478e-002
3.573599e+003;5.707727e-002
3.575528e+003;5.683361e-002
3.577457e+003;5.684759e-002
3.579385e+003;5.701111e-002
3.581314e+003;5.637091e-002
3.583242e+003;5.564992e-002
3.585171e+003;5.585735e-002
3.587099e+003;5.570981e-002
3.589028e+003;5.503790e-002
3.590956e+003;5.495351e-002
3.592885e+003;5.516087e-002
3.594813e+003;5.478114e-002
3.596742e+003;5.401294e-002
3.598671e+003;5.352100e-002
3.600599e+003;5.281007e-002
3.602528e+003;5.228321e-002
3.604456e+003;5.229304e-002
3.606385e+003;5.216112e-002
3.608313e+003;5.195788e-002
3.610242e+003;5.163224e-002
3.612170e+003;5.115015e-002
3.614099e+003;5.097961e-002
3.616028e+003;5.047335e-002
3.617956e+003;4.990042e-002
3.619885e+003;4.930428e-002
3.621813e+003;4.886473e-002
3.623742e+003;4.887994e-002
3.625670e+003;4.878380e-002
3.627599e+003;4.791737e-002
3.629527e+003;4.723250e-002
3.631456e+003;4.742704e-002
3.633385e+003;4.733189e-002
3.635313e+003;4.686525e-002
3.637241e+003;4.605436e-002
3.639170e+003;4.552837e-002
3.641099e+003;4.533127e-002
3.643027e+003;4.528180e-002
3.644956e+003;4.484715e-002
3.646884e+003;4.424311e-002
3.648813e+003;4.375720e-002
3.650741e+003;4.339635e-002
3.652670e+003;4.343421e-002
3.654598e+003;4.374753e-002
3.656527e+003;4.358760e-002
3.658456e+003;4.249346e-002
3.660384e+003;4.156535e-002
3.662313e+003;4.112894e-002
3.664241e+003;4.097230e-002
3.666170e+003;4.066534e-002
3.668098e+003;3.956604e-002
3.670027e+003;3.890733e-002
3.671955e+003;3.948130e-002
3.673884e+003;3.943142e-002
3.675813e+003;3.888993e-002
3.677741e+003;3.855142e-002
3.679669e+003;3.861009e-002
3.681598e+003;3.834551e-002
3.683527e+003;3.764394e-002
3.685455e+003;3.749711e-002
3.687384e+003;3.739573e-002
3.689312e+003;3.687269e-002
3.691241e+003;3.679789e-002
3.693169e+003;3.653776e-002
3.695098e+003;3.633893e-002
3.697026e+003;3.683103e-002
3.698955e+003;3.690645e-002
3.700884e+003;3.638047e-002
3.702812e+003;3.597760e-002
3.704741e+003;3.588931e-002
3.706669e+003;3.583720e-002
3.708598e+003;3.548818e-002
3.710526e+003;3.504508e-002
3.712455e+003;3.479742e-002
3.714383e+003;3.526011e-002
3.716312e+003;3.517315e-002
3.718240e+003;3.497214e-002
3.720169e+003;3.458223e-002
3.722098e+003;3.425803e-002
3.724026e+003;3.470668e-002
3.725955e+003;3.465673e-002
3.727883e+003;3.447780e-002
3.729812e+003;3.460060e-002
3.731740e+003;3.448723e-002
3.733669e+003;3.435187e-002
3.735597e+003;3.461811e-002
3.737526e+003;3.511258e-002
3.739455e+003;3.477947e-002
3.741383e+003;3.411321e-002
3.743312e+003;3.376045e-002
3.745240e+003;3.329131e-002
3.747169e+003;3.343593e-002
3.749097e+003;3.419529e-002
3.751026e+003;3.504131e-002
3.752954e+003;3.553051e-002
3.754883e+003;3.522277e-002
3.756812e+003;3.444383e-002
3.758740e+003;3.452884e-002
3.760668e+003;3.475266e-002
3.762597e+003;3.458058e-002
3.764526e+003;3.453164e-002
3.766454e+003;3.416120e-002
3.768383e+003;3.346220e-002
3.770311e+003;3.343246e-002
3.772240e+003;3.475342e-002
3.774168e+003;3.498611e-002
3.776097e+003;3.379523e-002
3.778025e+003;3.313097e-002
3.779954e+003;3.310493e-002
3.781883e+003;3.371576e-002
3.783811e+003;3.412575e-002
3.785740e+003;3.423136e-002
3.787668e+003;3.464241e-002
3.789597e+003;3.436065e-002
3.791525e+003;3.362729e-002
3.793454e+003;3.381367e-002
3.795382e+003;3.466372e-002
3.797311e+003;3.502443e-002
3.799240e+003;3.498442e-002
3.801168e+003;3.389645e-002
3.803097e+003;3.343837e-002
3.805025e+003;3.405378e-002
3.806954e+003;3.448795e-002
3.808882e+003;3.497451e-002
3.810811e+003;3.513090e-002
3.812739e+003;3.508837e-002
3.814668e+003;3.489066e-002
3.816596e+003;3.488036e-002
3.818525e+003;3.435137e-002
3.820454e+003;3.418841e-002
3.822382e+003;3.453121e-002
3.824311e+003;3.416450e-002
3.826239e+003;3.387199e-002
3.828168e+003;3.458869e-002
3.830096e+003;3.519108e-002
3.832025e+003;3.510532e-002
3.833953e+003;3.464614e-002
3.835882e+003;3.456587e-002
3.837811e+003;3.433344e-002
3.839739e+003;3.431533e-002
3.841667e+003;3.487472e-002
3.843596e+003;3.515052e-002
3.845525e+003;3.491106e-002
3.847453e+003;3.487292e-002
3.849382e+003;3.476949e-002
3.851310e+003;3.430310e-002
3.853239e+003;3.407769e-002
3.855167e+003;3.487641e-002
3.857096e+003;3.514330e-002
3.859024e+003;3.501021e-002
3.860953e+003;3.511441e-002
3.862882e+003;3.477574e-002
3.864810e+003;3.478701e-002
3.866739e+003;3.541786e-002
3.868667e+003;3.591630e-002
3.870596e+003;3.593250e-002
3.872524e+003;3.565807e-002
3.874453e+003;3.598059e-002
3.876381e+003;3.626508e-002
3.878310e+003;3.614840e-002
3.880239e+003;3.612326e-002
3.882167e+003;3.673420e-002
3.884096e+003;3.681058e-002
3.886024e+003;3.599437e-002
3.887953e+003;3.542883e-002
3.889881e+003;3.570624e-002
3.891810e+003;3.602407e-002
3.893738e+003;3.587815e-002
3.895667e+003;3.597248e-002
3.897595e+003;3.641823e-002
3.899524e+003;3.652987e-002
3.901453e+003;3.574718e-002
3.903381e+003;3.572761e-002
3.905310e+003;3.682154e-002
3.907238e+003;3.722109e-002
3.909167e+003;3.710872e-002
3.911095e+003;3.718156e-002
3.913024e+003;3.699906e-002
3.914952e+003;3.675317e-002
3.916881e+003;3.655319e-002
3.918810e+003;3.675097e-002
3.920738e+003;3.704575e-002
3.922667e+003;3.733608e-002
3.924595e+003;3.847611e-002
3.926524e+003;3.904321e-002
3.928452e+003;3.893879e-002
3.930381e+003;3.879308e-002
3.932309e+003;3.873092e-002
3.934238e+003;3.877073e-002
3.936167e+003;3.848027e-002
3.938095e+003;3.778984e-002
3.940023e+003;3.748411e-002
3.941952e+003;3.828091e-002
3.943881e+003;3.852437e-002
3.945809e+003;3.814816e-002
3.947738e+003;3.841370e-002
3.949666e+003;3.884743e-002
3.951595e+003;3.894817e-002
3.953523e+003;3.896039e-002
3.955452e+003;3.851431e-002
3.957380e+003;3.748411e-002
3.959309e+003;3.761796e-002
3.961238e+003;3.821643e-002
3.963166e+003;3.802033e-002
3.965095e+003;3.869629e-002
3.967023e+003;3.905420e-002
3.968952e+003;3.902878e-002
3.970880e+003;3.889189e-002
3.972809e+003;3.852115e-002
3.974737e+003;3.819317e-002
3.976666e+003;3.798721e-002
3.978594e+003;3.844103e-002
3.980523e+003;3.885924e-002
3.982452e+003;3.810927e-002
3.984380e+003;3.793582e-002
3.986309e+003;3.797166e-002
3.988237e+003;3.783893e-002
3.990166e+003;3.863337e-002
3.992094e+003;3.923655e-002
3.994023e+003;3.924257e-002
3.995951e+003;3.960093e-002
3.997880e+003;3.934093e-002
3.999809e+003;3.906630e-002
4.001737e+003;0.000000e+000
