3.992094e+002;0.000000e+000
4.011380e+002;0.000000e+000
4.030665e+002;0.000000e+000
4.049951e+002;0.000000e+000
4.069236e+002;0.000000e+000
4.088522e+002;0.000000e+000
4.107807e+002;0.000000e+000
4.127093e+002;0.000000e+000
4.146378e+002;0.000000e+000
4.165664e+002;0.000000e+000
4.184949e+002;0.000000e+000
4.204235e+002;0.000000e+000
4.223520e+002;0.000000e+000
4.242806e+002;0.000000e+000
4.262091e+002;0.000000e+000
4.281377e+002;0.000000e+000
4.300662e+002;0.000000e+000
4.319948e+002;0.000000e+000
4.339233e+002;0.000000e+000
4.358519e+002;0.000000e+000
4.377804e+002;0.000000e+000
4.397090e+002;0.000000e+000
4.416375e+002;0.000000e+000
4.435660e+002;0.000000e+000
4.454946e+002;0.000000e+000
4.474232e+002;0.000000e+000
4.493517e+002;0.000000e+000
4.512802e+002;0.000000e+000
4.532088e+002;0.000000e+000
4.551373e+002;0.000000e+000
4.570659e+002;0.000000e+000
4.589944e+002;0.000000e+000
4.609230e+002;0.000000e+000
4.628515e+002;0.000000e+000
4.647801e+002;0.000000e+000
4.667086e+002;0.000000e+000
4.686372e+002;0.000000e+000
4.705657e+002;0.000000e+000
4.724943e+002;0.000000e+000
4.744228e+002;0.000000e+000
4.763513e+002;0.000000e+000
4.782799e+002;0.000000e+000
4.802085e+002;0.000000e+000
4.821370e+002;0.000000e+000
4.840656e+002;0.000000e+000
4.859941e+002;0.000000e+000
4.879226e+002;0.000000e+000
4.898512e+002;0.000000e+000
4.917798e+002;0.000000e+000
4.937083e+002;0.000000e+000
4.956368e+002;0.000000e+000
4.975654e+002;0.000000e+000
4.994939e+002;0.000000e+000
5.014225e+002;0.000000e+000
5.033510e+002;0.000000e+000
5.052796e+002;0.000000e+000
5.072081e+002;0.000000e+000
5.091367e+002;0.000000e+000
5.110652e+002;0.000000e+000
5.129938e+002;0.000000e+000
5.149223e+002;0.000000e+000
5.168509e+002;0.000000e+000
5.187794e+002;0.000000e+000
5.207079e+002;0.000000e+000
5.226365e+002;0.000000e+000
5.245651e+002;0.000000e+000
5.264936e+002;0.000000e+000
5.284222e+002;0.000000e+000
5.303507e+002;0.000000e+000
5.322792e+002;0.000000e+000
5.342078e+002;0.000000e+000
5.361364e+002;0.000000e+000
5.380649e+002;0.000000e+000
5.399935e+002;0.000000e+000
5.419220e+002;0.000000e+000
5.438505e+002;0.000000e+000
5.457791e+002;0.000000e+000
5.477076e+002;0.000000e+000
5.496362e+002;0.000000e+000
5.515648e+002;0.000000e+000
5.534933e+002;0.000000e+000
5.554218e+002;0.000000e+000
5.573504e+002;0.000000e+000
5.592789e+002;0.000000e+000
5.612075e+002;0.000000e+000
5.631360e+002;0.000000e+000
5.650646e+002;0.000000e+000
5.669931e+002;0.000000e+000
5.689217e+002;0.000000e+000
5.708502e+002;0.000000e+000
5.727787e+002;0.000000e+000
5.747073e+002;0.000000e+000
5.766359e+002;0.000000e+000
5.785644e+002;0.000000e+000
5.804930e+002;0.000000e+000
5.824215e+002;0.000000e+000
5.843500e+002;0.000000e+000
5.862786e+002;0.000000e+000
5.882072e+002;0.000000e+000
5.901357e+002;0.000000e+000
5.920643e+002;0.000000e+000
5.939928e+002;0.000000e+000
5.959213e+002;0.000000e+000
5.978499e+002;0.000000e+000
5.997784e+002;1.961127e-001
6.017070e+002;1.994095e-001
6.036355e+002;1.972539e-001
6.055641e+002;1.996545e-001
6.074926e+002;1.987385e-001
6.094211e+002;1.957421e-001
6.113497e+002;2.008680e-001
6.132783e+002;2.057326e-001
6.152068e+002;2.041834e-001
6.171354e+002;2.008763e-001
6.190639e+002;1.956677e-001
6.209924e+002;1.903570e-001
6.229210e+002;1.872315e-001
6.248495e+002;1.879484e-001
6.267781e+002;1.894735e-001
6.287067e+002;1.855692e-001
6.306352e+002;1.782646e-001
6.325637e+002;1.747673e-001
6.344923e+002;1.776305e-001
6.364208e+002;1.807504e-001
6.383494e+002;1.784295e-001
6.402780e+002;1.766681e-001
6.422065e+002;1.764405e-001
6.441350e+002;1.735694e-001
6.460636e+002;1.719730e-001
6.479921e+002;1.715994e-001
6.499207e+002;1.719277e-001
6.518492e+002;1.733885e-001
6.537778e+002;1.764533e-001
6.557063e+002;1.803217e-001
6.576349e+002;1.824091e-001
6.595634e+002;1.867254e-001
6.614919e+002;1.886999e-001
6.634205e+002;1.879465e-001
6.653491e+002;1.893081e-001
6.672776e+002;1.891663e-001
6.692062e+002;1.860955e-001
6.711347e+002;1.820688e-001
6.730632e+002;1.764809e-001
6.749918e+002;1.717357e-001
6.769203e+002;1.682556e-001
6.788489e+002;1.645630e-001
6.807775e+002;1.620030e-001
6.827060e+002;1.607260e-001
6.846345e+002;1.600512e-001
6.865631e+002;1.599484e-001
6.884916e+002;1.587755e-001
6.904202e+002;1.584134e-001
6.923488e+002;1.591206e-001
6.942773e+002;1.582374e-001
6.962058e+002;1.574318e-001
6.981344e+002;1.575250e-001
7.000629e+002;1.578608e-001
7.019915e+002;1.580275e-001
7.039200e+002;1.570235e-001
7.058486e+002;1.552260e-001
7.077771e+002;1.534033e-001
7.097057e+002;1.515713e-001
7.116342e+002;1.502081e-001
7.135627e+002;1.479008e-001
7.154913e+002;1.446524e-001
7.174199e+002;1.424473e-001
7.193484e+002;1.394015e-001
7.212770e+002;1.365367e-001
7.232055e+002;1.343601e-001
7.251340e+002;1.316251e-001
7.270626e+002;1.289666e-001
7.289911e+002;1.267029e-001
7.309197e+002;1.245746e-001
7.328483e+002;1.221657e-001
7.347768e+002;1.189156e-001
7.367053e+002;1.180794e-001
7.386339e+002;1.181061e-001
7.405624e+002;1.180312e-001
7.424910e+002;1.171823e-001
7.444196e+002;1.160559e-001
7.463481e+002;1.154179e-001
7.482766e+002;1.140707e-001
7.502052e+002;1.126792e-001
7.521337e+002;1.122874e-001
7.540623e+002;1.126899e-001
7.559908e+002;1.126388e-001
7.579194e+002;1.109214e-001
7.598479e+002;1.095111e-001
7.617765e+002;1.087946e-001
7.637050e+002;1.073127e-001
7.656335e+002;1.059372e-001
7.675621e+002;1.062394e-001
7.694907e+002;1.070202e-001
7.714192e+002;1.063050e-001
7.733478e+002;1.057471e-001
7.752763e+002;1.051090e-001
7.772048e+002;1.045445e-001
7.791334e+002;1.043285e-001
7.810620e+002;1.044503e-001
7.829905e+002;1.043605e-001
7.849191e+002;1.035855e-001
7.868476e+002;1.032504e-001
7.887761e+002;1.030084e-001
7.907047e+002;1.029774e-001
7.926332e+002;1.033744e-001
7.945618e+002;1.030294e-001
7.964903e+002;1.022623e-001
7.984189e+002;1.022386e-001
8.003474e+002;1.026080e-001
8.022759e+002;1.029400e-001
8.042045e+002;1.030565e-001
8.061331e+002;1.020259e-001
8.080616e+002;1.012531e-001
8.099902e+002;1.011880e-001
8.119187e+002;1.015703e-001
8.138472e+002;1.027848e-001
8.157758e+002;1.032807e-001
8.177043e+002;1.025265e-001
8.196329e+002;1.022491e-001
8.215615e+002;1.025932e-001
8.234900e+002;1.023581e-001
8.254185e+002;1.023552e-001
8.273471e+002;1.030214e-001
8.292756e+002;1.029431e-001
8.312042e+002;1.026679e-001
8.331328e+002;1.030130e-001
8.350613e+002;1.034040e-001
8.369898e+002;1.038854e-001
8.389184e+002;1.041829e-001
8.408469e+002;1.043543e-001
8.427755e+002;1.038958e-001
8.447040e+002;1.038617e-001
8.466326e+002;1.042606e-001
8.485611e+002;1.040336e-001
8.504897e+002;1.039962e-001
8.524182e+002;1.045824e-001
8.543467e+002;1.053485e-001
8.562753e+002;1.060881e-001
8.582039e+002;1.064682e-001
8.601324e+002;1.066852e-001
8.620610e+002;1.072212e-001
8.639895e+002;1.077007e-001
8.659180e+002;1.084513e-001
8.678466e+002;1.092374e-001
8.697751e+002;1.097931e-001
8.717037e+002;1.107175e-001
8.736323e+002;1.117756e-001
8.755608e+002;1.136962e-001
8.774893e+002;1.152551e-001
8.794179e+002;1.166736e-001
8.813464e+002;1.181586e-001
8.832750e+002;1.197477e-001
8.852036e+002;1.216415e-001
8.871321e+002;1.233327e-001
8.890606e+002;1.250313e-001
8.909892e+002;1.263812e-001
8.929177e+002;1.271689e-001
8.948463e+002;1.277755e-001
8.967748e+002;1.283240e-001
8.987034e+002;1.283314e-001
9.006319e+002;1.281474e-001
9.025605e+002;1.279374e-001
9.044890e+002;1.273412e-001
9.064175e+002;1.266484e-001
9.083461e+002;1.259618e-001
9.102747e+002;1.250524e-001
9.122032e+002;1.241779e-001
9.141318e+002;1.234197e-001
9.160603e+002;1.231808e-001
9.179888e+002;1.237802e-001
9.199174e+002;1.244010e-001
9.218459e+002;1.241955e-001
9.237745e+002;1.243558e-001
9.257031e+002;1.257169e-001
9.276316e+002;1.269906e-001
9.295601e+002;1.276623e-001
9.314887e+002;1.286168e-001
9.334172e+002;1.294003e-001
9.353458e+002;1.301278e-001
9.372744e+002;1.306731e-001
9.392029e+002;1.316636e-001
9.411314e+002;1.336044e-001
9.430600e+002;1.355426e-001
9.449885e+002;1.371579e-001
9.469171e+002;1.388468e-001
9.488456e+002;1.410181e-001
9.507742e+002;1.434917e-001
9.527027e+002;1.458929e-001
9.546313e+002;1.483527e-001
9.565598e+002;1.514864e-001
9.584883e+002;1.546827e-001
9.604169e+002;1.579765e-001
9.623455e+002;1.615674e-001
9.642740e+002;1.653851e-001
9.662026e+002;1.689945e-001
9.681311e+002;1.729858e-001
9.700596e+002;1.782750e-001
9.719882e+002;1.844324e-001
9.739167e+002;1.914746e-001
9.758453e+002;2.006231e-001
9.777739e+002;2.109946e-001
9.797024e+002;2.212707e-001
9.816309e+002;2.297905e-001
9.835595e+002;2.347757e-001
9.854880e+002;2.355331e-001
9.874166e+002;2.347465e-001
9.893452e+002;2.354395e-001
9.912737e+002;2.380173e-001
9.932022e+002;2.422800e-001
9.951307e+002;2.474829e-001
9.970593e+002;2.523587e-001
9.989879e+002;2.562997e-001
1.000916e+003;2.578840e-001
1.002845e+003;2.579803e-001
1.004773e+003;2.584184e-001
1.006702e+003;2.585167e-001
1.008631e+003;2.582202e-001
1.010559e+003;2.594528e-001
1.012488e+003;2.622685e-001
1.014416e+003;2.657292e-001
1.016345e+003;2.688403e-001
1.018273e+003;2.718985e-001
1.020202e+003;2.755160e-001
1.022130e+003;2.797816e-001
1.024059e+003;2.845061e-001
1.025988e+003;2.895211e-001
1.027916e+003;2.934843e-001
1.029845e+003;2.964019e-001
1.031773e+003;2.971663e-001
1.033702e+003;2.934922e-001
1.035630e+003;2.869387e-001
1.037559e+003;2.799280e-001
1.039487e+003;2.737957e-001
1.041416e+003;2.701952e-001
1.043344e+003;2.702577e-001
1.045273e+003;2.733703e-001
1.047202e+003;2.780084e-001
1.049130e+003;2.840892e-001
1.051059e+003;2.898408e-001
1.052987e+003;2.935217e-001
1.054916e+003;2.948261e-001
1.056844e+003;2.922863e-001
1.058773e+003;2.856141e-001
1.060701e+003;2.746035e-001
1.062630e+003;2.599522e-001
1.064558e+003;2.448986e-001
1.066487e+003;2.320987e-001
1.068416e+003;2.214248e-001
1.070344e+003;2.132057e-001
1.072273e+003;2.075966e-001
1.074201e+003;2.033236e-001
1.076130e+003;1.988488e-001
1.078058e+003;1.941232e-001
1.079987e+003;1.897093e-001
1.081915e+003;1.870604e-001
1.083844e+003;1.860383e-001
1.085773e+003;1.863311e-001
1.087701e+003;1.867501e-001
1.089630e+003;1.871349e-001
1.091558e+003;1.886049e-001
1.093487e+003;1.914178e-001
1.095415e+003;1.949910e-001
1.097344e+003;1.986537e-001
1.099272e+003;2.022723e-001
1.101201e+003;2.058104e-001
1.103129e+003;2.074753e-001
1.105058e+003;2.067993e-001
1.106987e+003;2.055237e-001
1.108915e+003;2.036692e-001
1.110844e+003;2.005249e-001
1.112772e+003;1.941610e-001
1.114701e+003;1.841052e-001
1.116629e+003;1.734990e-001
1.118558e+003;1.652998e-001
1.120486e+003;1.591714e-001
1.122415e+003;1.545443e-001
1.124344e+003;1.496203e-001
1.126272e+003;1.429497e-001
1.128201e+003;1.368782e-001
1.130129e+003;1.325953e-001
1.132058e+003;1.292792e-001
1.133986e+003;1.258916e-001
1.135915e+003;1.233505e-001
1.137843e+003;1.226218e-001
1.139772e+003;1.233361e-001
1.141700e+003;1.251687e-001
1.143629e+003;1.276051e-001
1.145557e+003;1.296796e-001
1.147486e+003;1.309467e-001
1.149415e+003;1.321211e-001
1.151343e+003;1.341910e-001
1.153272e+003;1.366453e-001
1.155200e+003;1.385765e-001
1.157129e+003;1.405638e-001
1.159057e+003;1.420207e-001
1.160986e+003;1.417825e-001
1.162914e+003;1.392232e-001
1.164843e+003;1.335649e-001
1.166771e+003;1.262127e-001
1.168700e+003;1.188989e-001
1.170629e+003;1.125054e-001
1.172557e+003;1.073649e-001
1.174486e+003;1.031395e-001
1.176414e+003;1.002043e-001
1.178343e+003;9.822336e-002
1.180271e+003;9.632927e-002
1.182200e+003;9.492803e-002
1.184128e+003;9.394509e-002
1.186057e+003;9.317239e-002
1.187986e+003;9.308054e-002
1.189914e+003;9.365670e-002
1.191843e+003;9.492003e-002
1.193771e+003;9.643149e-002
1.195700e+003;9.812230e-002
1.197628e+003;9.971844e-002
1.199557e+003;1.007383e-001
1.201485e+003;1.015431e-001
1.203414e+003;1.021000e-001
1.205343e+003;1.016748e-001
1.207271e+003;9.975784e-002
1.209200e+003;9.683489e-002
1.211128e+003;9.417053e-002
1.213057e+003;9.254442e-002
1.214985e+003;9.196203e-002
1.216914e+003;9.207695e-002
1.218842e+003;9.301129e-002
1.220771e+003;9.409234e-002
1.222699e+003;9.501182e-002
1.224628e+003;9.624424e-002
1.226557e+003;9.756751e-002
1.228485e+003;9.851421e-002
1.230414e+003;9.950406e-002
1.232342e+003;1.006994e-001
1.234271e+003;1.016645e-001
1.236199e+003;1.021893e-001
1.238128e+003;1.024476e-001
1.240056e+003;1.026843e-001
1.241985e+003;1.029347e-001
1.243913e+003;1.036719e-001
1.245842e+003;1.047666e-001
1.247771e+003;1.047994e-001
1.249699e+003;1.039492e-001
1.251628e+003;1.033903e-001
1.253556e+003;1.033489e-001
1.255485e+003;1.034589e-001
1.257413e+003;1.034361e-001
1.259342e+003;1.033089e-001
1.261270e+003;1.038085e-001
1.263199e+003;1.042771e-001
1.265127e+003;1.040938e-001
1.267056e+003;1.037154e-001
1.268985e+003;1.036652e-001
1.270913e+003;1.043700e-001
1.272842e+003;1.054084e-001
1.274770e+003;1.063055e-001
1.276699e+003;1.066628e-001
1.278627e+003;1.066226e-001
1.280556e+003;1.062520e-001
1.282484e+003;1.053422e-001
1.284413e+003;1.046431e-001
1.286342e+003;1.043214e-001
1.288270e+003;1.038055e-001
1.290199e+003;1.037221e-001
1.292127e+003;1.038322e-001
1.294056e+003;1.042415e-001
1.295984e+003;1.048796e-001
1.297913e+003;1.053318e-001
1.299841e+003;1.067885e-001
1.301770e+003;1.092998e-001
1.303698e+003;1.121215e-001
1.305627e+003;1.150908e-001
1.307556e+003;1.182900e-001
1.309484e+003;1.213360e-001
1.311413e+003;1.238152e-001
1.313341e+003;1.255111e-001
1.315270e+003;1.255729e-001
1.317198e+003;1.239123e-001
1.319127e+003;1.207603e-001
1.321055e+003;1.174553e-001
1.322984e+003;1.149757e-001
1.324912e+003;1.134131e-001
1.326841e+003;1.127977e-001
1.328770e+003;1.133800e-001
1.330698e+003;1.146496e-001
1.332627e+003;1.157092e-001
1.334555e+003;1.159580e-001
1.336484e+003;1.151072e-001
1.338412e+003;1.135196e-001
1.340341e+003;1.115189e-001
1.342269e+003;1.093403e-001
1.344198e+003;1.069245e-001
1.346126e+003;1.046339e-001
1.348055e+003;1.034231e-001
1.349984e+003;1.032135e-001
1.351912e+003;1.035432e-001
1.353841e+003;1.044014e-001
1.355769e+003;1.052612e-001
1.357698e+003;1.058442e-001
1.359626e+003;1.060700e-001
1.361555e+003;1.057259e-001
1.363483e+003;1.047891e-001
1.365412e+003;1.041317e-001
1.367341e+003;1.041549e-001
1.369269e+003;1.041209e-001
1.371198e+003;1.031015e-001
1.373126e+003;1.009867e-001
1.375055e+003;9.875381e-002
1.376983e+003;9.636310e-002
1.378912e+003;9.376611e-002
1.380840e+003;9.174174e-002
1.382769e+003;9.025302e-002
1.384698e+003;8.870683e-002
1.386626e+003;8.706897e-002
1.388555e+003;8.615059e-002
1.390483e+003;8.587407e-002
1.392412e+003;8.569334e-002
1.394340e+003;8.555875e-002
1.396269e+003;8.562949e-002
1.398197e+003;8.578525e-002
1.400126e+003;8.597358e-002
1.402054e+003;8.649671e-002
1.403983e+003;8.677168e-002
1.405911e+003;8.663373e-002
1.407840e+003;8.678706e-002
1.409769e+003;8.735465e-002
1.411697e+003;8.792346e-002
1.413626e+003;8.874686e-002
1.415554e+003;8.983975e-002
1.417483e+003;9.106100e-002
1.419411e+003;9.249702e-002
1.421340e+003;9.411556e-002
1.423268e+003;9.548131e-002
1.425197e+003;9.621099e-002
1.427125e+003;9.655831e-002
1.429054e+003;9.646802e-002
1.430983e+003;9.573774e-002
1.432911e+003;9.439857e-002
1.434840e+003;9.286530e-002
1.436768e+003;9.147780e-002
1.438697e+003;9.046770e-002
1.440625e+003;8.942489e-002
1.442554e+003;8.875552e-002
1.444482e+003;8.861876e-002
1.446411e+003;8.869850e-002
1.448340e+003;8.860897e-002
1.450268e+003;8.829572e-002
1.452197e+003;8.780039e-002
1.454125e+003;8.724623e-002
1.456054e+003;8.650746e-002
1.457982e+003;8.540493e-002
1.459911e+003;8.424335e-002
1.461839e+003;8.319574e-002
1.463768e+003;8.192671e-002
1.465697e+003;8.075834e-002
1.467625e+003;7.980672e-002
1.469554e+003;7.880625e-002
1.471482e+003;7.773012e-002
1.473411e+003;7.646715e-002
1.475339e+003;7.505932e-002
1.477268e+003;7.412768e-002
1.479196e+003;7.367446e-002
1.481125e+003;7.297707e-002
1.483053e+003;7.152127e-002
1.484982e+003;6.990356e-002
1.486911e+003;6.872882e-002
1.488839e+003;6.774992e-002
1.490768e+003;6.698227e-002
1.492696e+003;6.634810e-002
1.494625e+003;6.608552e-002
1.496553e+003;6.612793e-002
1.498482e+003;6.587771e-002
1.500410e+003;6.568864e-002
1.502339e+003;6.600606e-002
1.504267e+003;6.594743e-002
1.506196e+003;6.548244e-002
1.508125e+003;6.567527e-002
1.510053e+003;6.587882e-002
1.511982e+003;6.569485e-002
1.513910e+003;6.552671e-002
1.515839e+003;6.526867e-002
1.517767e+003;6.495703e-002
1.519696e+003;6.496676e-002
1.521624e+003;6.517588e-002
1.523553e+003;6.537528e-002
1.525481e+003;6.529590e-002
1.527410e+003;6.523433e-002
1.529339e+003;6.536387e-002
1.531267e+003;6.564659e-002
1.533196e+003;6.565075e-002
1.535124e+003;6.547119e-002
1.537053e+003;6.561831e-002
1.538981e+003;6.577533e-002
1.540910e+003;6.565515e-002
1.542838e+003;6.560011e-002
1.544767e+003;6.559480e-002
1.546695e+003;6.583984e-002
1.548624e+003;6.615949e-002
1.550553e+003;6.622146e-002
1.552481e+003;6.618754e-002
1.554410e+003;6.599738e-002
1.556338e+003;6.609945e-002
1.558267e+003;6.623311e-002
1.560195e+003;6.617103e-002
1.562124e+003;6.592225e-002
1.564052e+003;6.570137e-002
1.565981e+003;6.598033e-002
1.567910e+003;6.640299e-002
1.569838e+003;6.662910e-002
1.571767e+003;6.673311e-002
1.573695e+003;6.679474e-002
1.575624e+003;6.701324e-002
1.577552e+003;6.729688e-002
1.579481e+003;6.746516e-002
1.581409e+003;6.749098e-002
1.583338e+003;6.767936e-002
1.585266e+003;6.793609e-002
1.587195e+003;6.823026e-002
1.589124e+003;6.851581e-002
1.591052e+003;6.878515e-002
1.592981e+003;6.907970e-002
1.594909e+003;6.946585e-002
1.596838e+003;6.982729e-002
1.598766e+003;7.013026e-002
1.600695e+003;7.018661e-002
1.602623e+003;7.055546e-002
1.604552e+003;7.115510e-002
1.606480e+003;7.129619e-002
1.608409e+003;7.135215e-002
1.610338e+003;7.185122e-002
1.612266e+003;7.207385e-002
1.614195e+003;7.231502e-002
1.616123e+003;7.256456e-002
1.618052e+003;7.251760e-002
1.619980e+003;7.268421e-002
1.621909e+003;7.302755e-002
1.623837e+003;7.317803e-002
1.625766e+003;7.341523e-002
1.627694e+003;7.350521e-002
1.629623e+003;7.359795e-002
1.631552e+003;7.371157e-002
1.633480e+003;7.397679e-002
1.635409e+003;7.416235e-002
1.637337e+003;7.415555e-002
1.639266e+003;7.412697e-002
1.641194e+003;7.408048e-002
1.643123e+003;7.404476e-002
1.645051e+003;7.382120e-002
1.646980e+003;7.330774e-002
1.648909e+003;7.304382e-002
1.650837e+003;7.282344e-002
1.652766e+003;7.247552e-002
1.654694e+003;7.226877e-002
1.656623e+003;7.181100e-002
1.658551e+003;7.133145e-002
1.660480e+003;7.095413e-002
1.662408e+003;7.043702e-002
1.664337e+003;7.016678e-002
1.666266e+003;6.998499e-002
1.668194e+003;6.945049e-002
1.670123e+003;6.893964e-002
1.672051e+003;6.839176e-002
1.673980e+003;6.777769e-002
1.675908e+003;6.755318e-002
1.677837e+003;6.739477e-002
1.679765e+003;6.698923e-002
1.681694e+003;6.668771e-002
1.683622e+003;6.628758e-002
1.685551e+003;6.562424e-002
1.687479e+003;6.529343e-002
1.689408e+003;6.504127e-002
1.691337e+003;6.471191e-002
1.693265e+003;6.444601e-002
1.695194e+003;6.393667e-002
1.697122e+003;6.373478e-002
1.699051e+003;6.370118e-002
1.700979e+003;6.357623e-002
1.702908e+003;6.341293e-002
1.704836e+003;6.328270e-002
1.706765e+003;6.307741e-002
1.708693e+003;6.267637e-002
1.710622e+003;6.267760e-002
1.712551e+003;6.294303e-002
1.714479e+003;6.288803e-002
1.716408e+003;6.268238e-002
1.718336e+003;6.266068e-002
1.720265e+003;6.293126e-002
1.722193e+003;6.312476e-002
1.724122e+003;6.318335e-002
1.726050e+003;6.359475e-002
1.727979e+003;6.404133e-002
1.729908e+003;6.410976e-002
1.731836e+003;6.402209e-002
1.733765e+003;6.439517e-002
1.735693e+003;6.512075e-002
1.737622e+003;6.506128e-002
1.739550e+003;6.417867e-002
1.741479e+003;6.346581e-002
1.743407e+003;6.301779e-002
1.745336e+003;6.260844e-002
1.747265e+003;6.197618e-002
1.749193e+003;6.158727e-002
1.751122e+003;6.138247e-002
1.753050e+003;6.099021e-002
1.754979e+003;6.034146e-002
1.756907e+003;5.988124e-002
1.758836e+003;5.965011e-002
1.760764e+003;5.951861e-002
1.762693e+003;5.933062e-002
1.764621e+003;5.915137e-002
1.766550e+003;5.912646e-002
1.768479e+003;5.892969e-002
1.770407e+003;5.871885e-002
1.772336e+003;5.867857e-002
1.774264e+003;5.871863e-002
1.776193e+003;5.866090e-002
1.778121e+003;5.853019e-002
1.780050e+003;5.834039e-002
1.781978e+003;5.843101e-002
1.783907e+003;5.854630e-002
1.785835e+003;5.833315e-002
1.787764e+003;5.819739e-002
1.789693e+003;5.813121e-002
1.791621e+003;5.818534e-002
1.793550e+003;5.820917e-002
1.795478e+003;5.823179e-002
1.797407e+003;5.810632e-002
1.799335e+003;5.803160e-002
1.801264e+003;5.795298e-002
1.803192e+003;5.771208e-002
1.805121e+003;5.744201e-002
1.807049e+003;5.744692e-002
1.808978e+003;5.773816e-002
1.810907e+003;5.788654e-002
1.812835e+003;5.788521e-002
1.814764e+003;5.778687e-002
1.816692e+003;5.766255e-002
1.818621e+003;5.774622e-002
1.820549e+003;5.785879e-002
1.822478e+003;5.785614e-002
1.824406e+003;5.762944e-002
1.826335e+003;5.742098e-002
1.828264e+003;5.745717e-002
1.830192e+003;5.760387e-002
1.832121e+003;5.755389e-002
1.834049e+003;5.743384e-002
1.835978e+003;5.745558e-002
1.837906e+003;5.763656e-002
1.839835e+003;5.773869e-002
1.841763e+003;5.769581e-002
1.843692e+003;5.763270e-002
1.845620e+003;5.746534e-002
1.847549e+003;5.722702e-002
1.849478e+003;5.710282e-002
1.851406e+003;5.712602e-002
1.853335e+003;5.716257e-002
1.855263e+003;5.700276e-002
1.857192e+003;5.683010e-002
1.859120e+003;5.697556e-002
1.861049e+003;5.687512e-002
1.862977e+003;5.681616e-002
1.864906e+003;5.718688e-002
1.866834e+003;5.732255e-002
1.868763e+003;5.719515e-002
1.870692e+003;5.709889e-002
1.872620e+003;5.697953e-002
1.874549e+003;5.709118e-002
1.876477e+003;5.704236e-002
1.878406e+003;5.690560e-002
1.880334e+003;5.697738e-002
1.882263e+003;5.697537e-002
1.884191e+003;5.688060e-002
1.886120e+003;5.677768e-002
1.888048e+003;5.653023e-002
1.889977e+003;5.630633e-002
1.891906e+003;5.649271e-002
1.893834e+003;5.686001e-002
1.895763e+003;5.701689e-002
1.897691e+003;5.690129e-002
1.899620e+003;5.674997e-002
1.901548e+003;5.662443e-002
1.903477e+003;5.663765e-002
1.905405e+003;5.667472e-002
1.907334e+003;5.669145e-002
1.909262e+003;5.674389e-002
1.911191e+003;5.666502e-002
1.913120e+003;5.648698e-002
1.915048e+003;5.649721e-002
1.916977e+003;5.666894e-002
1.918905e+003;5.662761e-002
1.920834e+003;5.657389e-002
1.922762e+003;5.658167e-002
1.924691e+003;5.682304e-002
1.926619e+003;5.696835e-002
1.928548e+003;5.686300e-002
1.930477e+003;5.681609e-002
1.932405e+003;5.694134e-002
1.934334e+003;5.711994e-002
1.936262e+003;5.704134e-002
1.938191e+003;5.697364e-002
1.940119e+003;5.701950e-002
1.942048e+003;5.696147e-002
1.943976e+003;5.700786e-002
1.945905e+003;5.707629e-002
1.947833e+003;5.716299e-002
1.949762e+003;5.714843e-002
1.951691e+003;5.713464e-002
1.953619e+003;5.710142e-002
1.955548e+003;5.724384e-002
1.957476e+003;5.728009e-002
1.959405e+003;5.707754e-002
1.961333e+003;5.693537e-002
1.963262e+003;5.717209e-002
1.965190e+003;5.734282e-002
1.967119e+003;5.726629e-002
1.969047e+003;5.732474e-002
1.970976e+003;5.721258e-002
1.972905e+003;5.716484e-002
1.974833e+003;5.740128e-002
1.976762e+003;5.739228e-002
1.978690e+003;5.741357e-002
1.980619e+003;5.759376e-002
1.982547e+003;5.760803e-002
1.984476e+003;5.748936e-002
1.986404e+003;5.753551e-002
1.988333e+003;5.758540e-002
1.990261e+003;5.756615e-002
1.992190e+003;5.766807e-002
1.994119e+003;5.764825e-002
1.996047e+003;5.741720e-002
1.997976e+003;5.710252e-002
1.999904e+003;5.716960e-002
2.001833e+003;5.746640e-002
2.003761e+003;5.763084e-002
2.005690e+003;5.770569e-002
2.007618e+003;5.781219e-002
2.009547e+003;5.754719e-002
2.011476e+003;5.731453e-002
2.013404e+003;5.752056e-002
2.015333e+003;5.782975e-002
2.017261e+003;5.775352e-002
2.019190e+003;5.770251e-002
2.021118e+003;5.778164e-002
2.023047e+003;5.791463e-002
2.024975e+003;5.799433e-002
2.026904e+003;5.807969e-002
2.028833e+003;5.822012e-002
2.030761e+003;5.813560e-002
2.032690e+003;5.795923e-002
2.034618e+003;5.793954e-002
2.036547e+003;5.793413e-002
2.038475e+003;5.795779e-002
2.040404e+003;5.816792e-002
2.042332e+003;5.806648e-002
2.044261e+003;5.788487e-002
2.046189e+003;5.791845e-002
2.048118e+003;5.814458e-002
2.050047e+003;5.807257e-002
2.051975e+003;5.774796e-002
2.053904e+003;5.770973e-002
2.055832e+003;5.791092e-002
2.057761e+003;5.811272e-002
2.059689e+003;5.810716e-002
2.061618e+003;5.805072e-002
2.063546e+003;5.799782e-002
2.065475e+003;5.783108e-002
2.067404e+003;5.791497e-002
2.069332e+003;5.789180e-002
2.071260e+003;5.772654e-002
2.073189e+003;5.785178e-002
2.075118e+003;5.787859e-002
2.077046e+003;5.770811e-002
2.078975e+003;5.768389e-002
2.080903e+003;5.766974e-002
2.082832e+003;5.752571e-002
2.084760e+003;5.759562e-002
2.086689e+003;5.756675e-002
2.088617e+003;5.742060e-002
2.090546e+003;5.741844e-002
2.092475e+003;5.764125e-002
2.094403e+003;5.776987e-002
2.096332e+003;5.755506e-002
2.098260e+003;5.724168e-002
2.100189e+003;5.738668e-002
2.102117e+003;5.783982e-002
2.104046e+003;5.793098e-002
2.105974e+003;5.776843e-002
2.107903e+003;5.762796e-002
2.109832e+003;5.773365e-002
2.111760e+003;5.784096e-002
2.113688e+003;5.782707e-002
2.115617e+003;5.772438e-002
2.117546e+003;5.761703e-002
2.119474e+003;5.765483e-002
2.121403e+003;5.789706e-002
2.123331e+003;5.793818e-002
2.125260e+003;5.786064e-002
2.127188e+003;5.785167e-002
2.129117e+003;5.790494e-002
2.131045e+003;5.777275e-002
2.132974e+003;5.772128e-002
2.134903e+003;5.783895e-002
2.136831e+003;5.776083e-002
2.138760e+003;5.769649e-002
2.140688e+003;5.761919e-002
2.142617e+003;5.734716e-002
2.144545e+003;5.744821e-002
2.146474e+003;5.773017e-002
2.148402e+003;5.761756e-002
2.150331e+003;5.745044e-002
2.152260e+003;5.743815e-002
2.154188e+003;5.732554e-002
2.156117e+003;5.721103e-002
2.158045e+003;5.738271e-002
2.159974e+003;5.724233e-002
2.161902e+003;5.702509e-002
2.163831e+003;5.693321e-002
2.165759e+003;5.677598e-002
2.167688e+003;5.662055e-002
2.169616e+003;5.682987e-002
2.171545e+003;5.686152e-002
2.173474e+003;5.659118e-002
2.175402e+003;5.653687e-002
2.177331e+003;5.635436e-002
2.179259e+003;5.626277e-002
2.181188e+003;5.613051e-002
2.183116e+003;5.594048e-002
2.185045e+003;5.599333e-002
2.186973e+003;5.609375e-002
2.188902e+003;5.616765e-002
2.190831e+003;5.602239e-002
2.192759e+003;5.575344e-002
2.194688e+003;5.554109e-002
2.196616e+003;5.528210e-002
2.198545e+003;5.532395e-002
2.200473e+003;5.538771e-002
2.202402e+003;5.543917e-002
2.204330e+003;5.551673e-002
2.206259e+003;5.533215e-002
2.208188e+003;5.531906e-002
2.210116e+003;5.538169e-002
2.212044e+003;5.526739e-002
2.213973e+003;5.511053e-002
2.215902e+003;5.513724e-002
2.217830e+003;5.550919e-002
2.219759e+003;5.567034e-002
2.221687e+003;5.550268e-002
2.223616e+003;5.554738e-002
2.225544e+003;5.569508e-002
2.227473e+003;5.558413e-002
2.229401e+003;5.534962e-002
2.231330e+003;5.533076e-002
2.233259e+003;5.524947e-002
2.235187e+003;5.516279e-002
2.237116e+003;5.555852e-002
2.239044e+003;5.574462e-002
2.240973e+003;5.544681e-002
2.242901e+003;5.542852e-002
2.244830e+003;5.554512e-002
2.246758e+003;5.552320e-002
2.248687e+003;5.526908e-002
2.250615e+003;5.486087e-002
2.252544e+003;5.479305e-002
2.254473e+003;5.486932e-002
2.256401e+003;5.494088e-002
2.258330e+003;5.486222e-002
2.260258e+003;5.467334e-002
2.262187e+003;5.458128e-002
2.264115e+003;5.467139e-002
2.266044e+003;5.466312e-002
2.267972e+003;5.437496e-002
2.269901e+003;5.421332e-002
2.271830e+003;5.427417e-002
2.273758e+003;5.461901e-002
2.275687e+003;5.460612e-002
2.277615e+003;5.414234e-002
2.279544e+003;5.403684e-002
2.281472e+003;5.410154e-002
2.283401e+003;5.395655e-002
2.285329e+003;5.372741e-002
2.287258e+003;5.367368e-002
2.289187e+003;5.390767e-002
2.291115e+003;5.432775e-002
2.293043e+003;5.439478e-002
2.294972e+003;5.420712e-002
2.296901e+003;5.392023e-002
2.298829e+003;5.373881e-002
2.300758e+003;5.366836e-002
2.302686e+003;5.373780e-002
2.304615e+003;5.394931e-002
2.306543e+003;5.387859e-002
2.308472e+003;5.398142e-002
2.310400e+003;5.421655e-002
2.312329e+003;5.409354e-002
2.314258e+003;5.372359e-002
2.316186e+003;5.346430e-002
2.318115e+003;5.347341e-002
2.320043e+003;5.371639e-002
2.321972e+003;5.355522e-002
2.323900e+003;5.326513e-002
2.325829e+003;5.316753e-002
2.327757e+003;5.322105e-002
2.329686e+003;5.356430e-002
2.331615e+003;5.376694e-002
2.333543e+003;5.357768e-002
2.335472e+003;5.363080e-002
2.337400e+003;5.394188e-002
2.339329e+003;5.403973e-002
2.341257e+003;5.397050e-002
2.343186e+003;5.405988e-002
2.345114e+003;5.435926e-002
2.347043e+003;5.433725e-002
2.348971e+003;5.412019e-002
2.350900e+003;5.442513e-002
2.352829e+003;5.472194e-002
2.354757e+003;5.447568e-002
2.356686e+003;5.410323e-002
2.358614e+003;5.394323e-002
2.360543e+003;5.422368e-002
2.362471e+003;5.451727e-002
2.364400e+003;5.440226e-002
2.366328e+003;5.422784e-002
2.368257e+003;5.395719e-002
2.370186e+003;5.393197e-002
2.372114e+003;5.428300e-002
2.374042e+003;5.422157e-002
2.375971e+003;5.419890e-002
2.377900e+003;5.445961e-002
2.379828e+003;5.463167e-002
2.381757e+003;5.476584e-002
2.383685e+003;5.470957e-002
2.385614e+003;5.451103e-002
2.387542e+003;5.446111e-002
2.389471e+003;5.453128e-002
2.391399e+003;5.458064e-002
2.393328e+003;5.457794e-002
2.395257e+003;5.428018e-002
2.397185e+003;5.411696e-002
2.399114e+003;5.429313e-002
2.401042e+003;5.413126e-002
2.402971e+003;5.423839e-002
2.404899e+003;5.461536e-002
2.406828e+003;5.457768e-002
2.408756e+003;5.436587e-002
2.410685e+003;5.447636e-002
2.412614e+003;5.474742e-002
2.414542e+003;5.495054e-002
2.416471e+003;5.516794e-002
2.418399e+003;5.527616e-002
2.420328e+003;5.534201e-002
2.422256e+003;5.518988e-002
2.424185e+003;5.506874e-002
2.426113e+003;5.529907e-002
2.428042e+003;5.540672e-002
2.429970e+003;5.524361e-002
2.431899e+003;5.549357e-002
2.433828e+003;5.559298e-002
2.435756e+003;5.537314e-002
2.437685e+003;5.544304e-002
2.439613e+003;5.550577e-002
2.441542e+003;5.534883e-002
2.443470e+003;5.541293e-002
2.445399e+003;5.542535e-002
2.447327e+003;5.550825e-002
2.449256e+003;5.573158e-002
2.451185e+003;5.571558e-002
2.453113e+003;5.570352e-002
2.455042e+003;5.603611e-002
2.456970e+003;5.585264e-002
2.458899e+003;5.527552e-002
2.460827e+003;5.536780e-002
2.462756e+003;5.581933e-002
2.464684e+003;5.588131e-002
2.466613e+003;5.584186e-002
2.468542e+003;5.611834e-002
2.470470e+003;5.622419e-002
2.472398e+003;5.596886e-002
2.474327e+003;5.602295e-002
2.476256e+003;5.625198e-002
2.478184e+003;5.628819e-002
2.480113e+003;5.619473e-002
2.482041e+003;5.609345e-002
2.483970e+003;5.644415e-002
2.485898e+003;5.672082e-002
2.487827e+003;5.630475e-002
2.489755e+003;5.627393e-002
2.491684e+003;5.654442e-002
2.493613e+003;5.664754e-002
2.495541e+003;5.670685e-002
2.497470e+003;5.640344e-002
2.499398e+003;5.631105e-002
2.501327e+003;5.650396e-002
2.503255e+003;5.635662e-002
2.505184e+003;5.624745e-002
2.507112e+003;5.648750e-002
2.509041e+003;5.648581e-002
2.510969e+003;5.645743e-002
2.512898e+003;5.663466e-002
2.514827e+003;5.690658e-002
2.516755e+003;5.700662e-002
2.518684e+003;5.674328e-002
2.520612e+003;5.673449e-002
2.522541e+003;5.669552e-002
2.524469e+003;5.665214e-002
2.526398e+003;5.674513e-002
2.528326e+003;5.669684e-002
2.530255e+003;5.668106e-002
2.532184e+003;5.673974e-002
2.534112e+003;5.650596e-002
2.536041e+003;5.630403e-002
2.537969e+003;5.656170e-002
2.539898e+003;5.687961e-002
2.541826e+003;5.686545e-002
2.543755e+003;5.694560e-002
2.545683e+003;5.713763e-002
2.547612e+003;5.712172e-002
2.549541e+003;5.701489e-002
2.551469e+003;5.699759e-002
2.553397e+003;5.689189e-002
2.555326e+003;5.679683e-002
2.557255e+003;5.684464e-002
2.559183e+003;5.666955e-002
2.561112e+003;5.672671e-002
2.563040e+003;5.676843e-002
2.564969e+003;5.658001e-002
2.566897e+003;5.645920e-002
2.568826e+003;5.630169e-002
2.570754e+003;5.613960e-002
2.572683e+003;5.632655e-002
2.574612e+003;5.667993e-002
2.576540e+003;5.682542e-002
2.578469e+003;5.674566e-002
2.580397e+003;5.652977e-002
2.582326e+003;5.668812e-002
2.584254e+003;5.700737e-002
2.586183e+003;5.698822e-002
2.588111e+003;5.675189e-002
2.590040e+003;5.688162e-002
2.591969e+003;5.733487e-002
2.593897e+003;5.724081e-002
2.595826e+003;5.700779e-002
2.597754e+003;5.679018e-002
2.599683e+003;5.665192e-002
2.601611e+003;5.682111e-002
2.603540e+003;5.698179e-002
2.605468e+003;5.692400e-002
2.607397e+003;5.697624e-002
2.609325e+003;5.729847e-002
2.611254e+003;5.735348e-002
2.613183e+003;5.717833e-002
2.615111e+003;5.712145e-002
2.617040e+003;5.687263e-002
2.618968e+003;5.694421e-002
2.620897e+003;5.727268e-002
2.622825e+003;5.743720e-002
2.624754e+003;5.762256e-002
2.626682e+003;5.766709e-002
2.628611e+003;5.749840e-002
2.630540e+003;5.729450e-002
2.632468e+003;5.737072e-002
2.634396e+003;5.762426e-002
2.636325e+003;5.784376e-002
2.638254e+003;5.796662e-002
2.640182e+003;5.785989e-002
2.642111e+003;5.780231e-002
2.644039e+003;5.793375e-002
2.645968e+003;5.825039e-002
2.647896e+003;5.838276e-002
2.649825e+003;5.833694e-002
2.651753e+003;5.845425e-002
2.653682e+003;5.829336e-002
2.655611e+003;5.784444e-002
2.657539e+003;5.776249e-002
2.659468e+003;5.814723e-002
2.661396e+003;5.840509e-002
2.663325e+003;5.854027e-002
2.665253e+003;5.880045e-002
2.667182e+003;5.879749e-002
2.669110e+003;5.864903e-002
2.671039e+003;5.838966e-002
2.672968e+003;5.829283e-002
2.674896e+003;5.853603e-002
2.676825e+003;5.892384e-002
2.678753e+003;5.909301e-002
2.680682e+003;5.910038e-002
2.682610e+003;5.901971e-002
2.684539e+003;5.873960e-002
2.686467e+003;5.872196e-002
2.688396e+003;5.903645e-002
2.690324e+003;5.936192e-002
2.692253e+003;5.940777e-002
2.694182e+003;5.941692e-002
2.696110e+003;5.914252e-002
2.698039e+003;5.883133e-002
2.699967e+003;5.924550e-002
2.701896e+003;5.971568e-002
2.703824e+003;5.965231e-002
2.705753e+003;5.946092e-002
2.707681e+003;5.923077e-002
2.709610e+003;5.911245e-002
2.711539e+003;5.949523e-002
2.713467e+003;5.991380e-002
2.715396e+003;5.998733e-002
2.717324e+003;6.002751e-002
2.719253e+003;5.990391e-002
2.721181e+003;5.992259e-002
2.723110e+003;6.038513e-002
2.725038e+003;6.079266e-002
2.726967e+003;6.080090e-002
2.728896e+003;6.063075e-002
2.730824e+003;6.051072e-002
2.732752e+003;6.041506e-002
2.734681e+003;6.045618e-002
2.736610e+003;6.075901e-002
2.738538e+003;6.102796e-002
2.740467e+003;6.099795e-002
2.742395e+003;6.082026e-002
2.744324e+003;6.067438e-002
2.746252e+003;6.049031e-002
2.748181e+003;6.030019e-002
2.750109e+003;6.053678e-002
2.752038e+003;6.072745e-002
2.753967e+003;6.069587e-002
2.755895e+003;6.078169e-002
2.757824e+003;6.127425e-002
2.759752e+003;6.158750e-002
2.761681e+003;6.133034e-002
2.763609e+003;6.098170e-002
2.765538e+003;6.107688e-002
2.767466e+003;6.108917e-002
2.769395e+003;6.090644e-002
2.771323e+003;6.120306e-002
2.773252e+003;6.190437e-002
2.775181e+003;6.206997e-002
2.777109e+003;6.195080e-002
2.779038e+003;6.177421e-002
2.780966e+003;6.175951e-002
2.782895e+003;6.227819e-002
2.784823e+003;6.242607e-002
2.786752e+003;6.233017e-002
2.788680e+003;6.244581e-002
2.790609e+003;6.261513e-002
2.792538e+003;6.297857e-002
2.794466e+003;6.307422e-002
2.796395e+003;6.304358e-002
2.798323e+003;6.296264e-002
2.800252e+003;6.309955e-002
2.802180e+003;6.332617e-002
2.804109e+003;6.344357e-002
2.806037e+003;6.371737e-002
2.807966e+003;6.399184e-002
2.809895e+003;6.410412e-002
2.811823e+003;6.441823e-002
2.813751e+003;6.507868e-002
2.815680e+003;6.552351e-002
2.817609e+003;6.604154e-002
2.819537e+003;6.650965e-002
2.821466e+003;6.624975e-002
2.823394e+003;6.607275e-002
2.825323e+003;6.648273e-002
2.827251e+003;6.691219e-002
2.829180e+003;6.711849e-002
2.831108e+003;6.719530e-002
2.833037e+003;6.771011e-002
2.834966e+003;6.851683e-002
2.836894e+003;6.909470e-002
2.838823e+003;7.026509e-002
2.840751e+003;7.168748e-002
2.842680e+003;7.245868e-002
2.844608e+003;7.378343e-002
2.846537e+003;7.580739e-002
2.848465e+003;7.765262e-002
2.850394e+003;7.891071e-002
2.852323e+003;7.898013e-002
2.854251e+003;7.801074e-002
2.856180e+003;7.763182e-002
2.858108e+003;7.760349e-002
2.860037e+003;7.782734e-002
2.861965e+003;7.814757e-002
2.863894e+003;7.808997e-002
2.865822e+003;7.824916e-002
2.867751e+003;7.876728e-002
2.869679e+003;7.885178e-002
2.871608e+003;7.905207e-002
2.873536e+003;7.902563e-002
2.875465e+003;7.849864e-002
2.877394e+003;7.868057e-002
2.879322e+003;7.933649e-002
2.881251e+003;8.015376e-002
2.883179e+003;8.054406e-002
2.885108e+003;8.079861e-002
2.887036e+003;8.132841e-002
2.888965e+003;8.172537e-002
2.890893e+003;8.209115e-002
2.892822e+003;8.239940e-002
2.894750e+003;8.277986e-002
2.896679e+003;8.330932e-002
2.898608e+003;8.345024e-002
2.900536e+003;8.336978e-002
2.902465e+003;8.323812e-002
2.904393e+003;8.306437e-002
2.906322e+003;8.309112e-002
2.908250e+003;8.298787e-002
2.910179e+003;8.320649e-002
2.912107e+003;8.397934e-002
2.914036e+003;8.505779e-002
2.915965e+003;8.542949e-002
2.917893e+003;8.507846e-002
2.919822e+003;8.390790e-002
2.921750e+003;8.239435e-002
2.923679e+003;8.101725e-002
2.925607e+003;7.921185e-002
2.927536e+003;7.775418e-002
2.929464e+003;7.719630e-002
2.931393e+003;7.660969e-002
2.933322e+003;7.591258e-002
2.935250e+003;7.458476e-002
2.937178e+003;7.345220e-002
2.939107e+003;7.326224e-002
2.941036e+003;7.293446e-002
2.942964e+003;7.221371e-002
2.944893e+003;7.158733e-002
2.946821e+003;7.112801e-002
2.948750e+003;7.037608e-002
2.950678e+003;6.971309e-002
2.952607e+003;6.910806e-002
2.954535e+003;6.860355e-002
2.956464e+003;6.834111e-002
2.958393e+003;6.842408e-002
2.960321e+003;6.792992e-002
2.962250e+003;6.663027e-002
2.964178e+003;6.582411e-002
2.966107e+003;6.571489e-002
2.968035e+003;6.534207e-002
2.969964e+003;6.459209e-002
2.971892e+003;6.400946e-002
2.973821e+003;6.367574e-002
2.975750e+003;6.328116e-002
2.977678e+003;6.257808e-002
2.979607e+003;6.172166e-002
2.981535e+003;6.155451e-002
2.983464e+003;6.149312e-002
2.985392e+003;6.099326e-002
2.987321e+003;6.070555e-002
2.989249e+003;6.077658e-002
2.991178e+003;6.056869e-002
2.993106e+003;6.014432e-002
2.995035e+003;6.031480e-002
2.996964e+003;6.069362e-002
2.998892e+003;6.047042e-002
3.000821e+003;6.003766e-002
3.002749e+003;6.039404e-002
3.004678e+003;6.084659e-002
3.006606e+003;6.044381e-002
3.008535e+003;6.014432e-002
3.010463e+003;6.038063e-002
3.012392e+003;6.057060e-002
3.014321e+003;6.075672e-002
3.016249e+003;6.082312e-002
3.018177e+003;6.038715e-002
3.020106e+003;6.011780e-002
3.022035e+003;6.048840e-002
3.023963e+003;6.099200e-002
3.025892e+003;6.090690e-002
3.027820e+003;6.077319e-002
3.029749e+003;6.108962e-002
3.031677e+003;6.149286e-002
3.033606e+003;6.165677e-002
3.035534e+003;6.155944e-002
3.037463e+003;6.132111e-002
3.039392e+003;6.152111e-002
3.041320e+003;6.196758e-002
3.043249e+003;6.219231e-002
3.045177e+003;6.198638e-002
3.047106e+003;6.181845e-002
3.049034e+003;6.232642e-002
3.050963e+003;6.280769e-002
3.052891e+003;6.273980e-002
3.054820e+003;6.230561e-002
3.056749e+003;6.224488e-002
3.058677e+003;6.228206e-002
3.060606e+003;6.259328e-002
3.062534e+003;6.310419e-002
3.064463e+003;6.352502e-002
3.066391e+003;6.366385e-002
3.068320e+003;6.327415e-002
3.070248e+003;6.307603e-002
3.072177e+003;6.350546e-002
3.074105e+003;6.424166e-002
3.076034e+003;6.439613e-002
3.077963e+003;6.410196e-002
3.079891e+003;6.465907e-002
3.081820e+003;6.538814e-002
3.083748e+003;6.518289e-002
3.085677e+003;6.488681e-002
3.087605e+003;6.480460e-002
3.089534e+003;6.517600e-002
3.091462e+003;6.593192e-002
3.093391e+003;6.603839e-002
3.095320e+003;6.597134e-002
3.097248e+003;6.594920e-002
3.099177e+003;6.636659e-002
3.101105e+003;6.693012e-002
3.103034e+003;6.658859e-002
3.104962e+003;6.617840e-002
3.106891e+003;6.660604e-002
3.108819e+003;6.715538e-002
3.110748e+003;6.707379e-002
3.112677e+003;6.722651e-002
3.114605e+003;6.782428e-002
3.116533e+003;6.814039e-002
3.118462e+003;6.783315e-002
3.120391e+003;6.781045e-002
3.122319e+003;6.836202e-002
3.124248e+003;6.877214e-002
3.126176e+003;6.866800e-002
3.128105e+003;6.869598e-002
3.130033e+003;6.895991e-002
3.131962e+003;6.922381e-002
3.133890e+003;6.975701e-002
3.135819e+003;6.998842e-002
3.137748e+003;6.994583e-002
3.139676e+003;7.010973e-002
3.141605e+003;7.067776e-002
3.143533e+003;7.114051e-002
3.145462e+003;7.121268e-002
3.147390e+003;7.148802e-002
3.149319e+003;7.228602e-002
3.151247e+003;7.235013e-002
3.153176e+003;7.212243e-002
3.155104e+003;7.246240e-002
3.157033e+003;7.273623e-002
3.158962e+003;7.319615e-002
3.160890e+003;7.383189e-002
3.162819e+003;7.412006e-002
3.164747e+003;7.395916e-002
3.166676e+003;7.405411e-002
3.168604e+003;7.438361e-002
3.170533e+003;7.458094e-002
3.172461e+003;7.518849e-002
3.174390e+003;7.587521e-002
3.176319e+003;7.582825e-002
3.178247e+003;7.578588e-002
3.180176e+003;7.636897e-002
3.182104e+003;7.716694e-002
3.184033e+003;7.734060e-002
3.185961e+003;7.775160e-002
3.187890e+003;7.814297e-002
3.189818e+003;7.837785e-002
3.191747e+003;7.873574e-002
3.193676e+003;7.916553e-002
3.195604e+003;7.935912e-002
3.197532e+003;7.972829e-002
3.199461e+003;7.998240e-002
3.201390e+003;8.028421e-002
3.203318e+003;8.105406e-002
3.205247e+003;8.176165e-002
3.207175e+003;8.224853e-002
3.209104e+003;8.226623e-002
3.211032e+003;8.305069e-002
3.212961e+003;8.385674e-002
3.214889e+003;8.430490e-002
3.216818e+003;8.544406e-002
3.218747e+003;8.606619e-002
3.220675e+003;8.619726e-002
3.222604e+003;8.652109e-002
3.224532e+003;8.715154e-002
3.226461e+003;8.738730e-002
3.228389e+003;8.726483e-002
3.230318e+003;8.775663e-002
3.232246e+003;8.857077e-002
3.234175e+003;8.925646e-002
3.236104e+003;8.990316e-002
3.238032e+003;9.031776e-002
3.239961e+003;9.073596e-002
3.241889e+003;9.176163e-002
3.243818e+003;9.260277e-002
3.245746e+003;9.303124e-002
3.247675e+003;9.399335e-002
3.249603e+003;9.475944e-002
3.251532e+003;9.511831e-002
3.253460e+003;9.561120e-002
3.255389e+003;9.661816e-002
3.257318e+003;9.788135e-002
3.259246e+003;9.915101e-002
3.261175e+003;1.001207e-001
3.263103e+003;1.004569e-001
3.265032e+003;1.010095e-001
3.266960e+003;1.014808e-001
3.268889e+003;1.018098e-001
3.270817e+003;1.023330e-001
3.272746e+003;1.027707e-001
3.274675e+003;1.033882e-001
3.276603e+003;1.044980e-001
3.278531e+003;1.052252e-001
3.280460e+003;1.052407e-001
3.282389e+003;1.051946e-001
3.284317e+003;1.057499e-001
3.286246e+003;1.057909e-001
3.288174e+003;1.053790e-001
3.290103e+003;1.051833e-001
3.292031e+003;1.048351e-001
3.293960e+003;1.051298e-001
3.295888e+003;1.058973e-001
3.297817e+003;1.059455e-001
3.299746e+003;1.053404e-001
3.301674e+003;1.054393e-001
3.303603e+003;1.061192e-001
3.305531e+003;1.063477e-001
3.307460e+003;1.060033e-001
3.309388e+003;1.060069e-001
3.311317e+003;1.055590e-001
3.313245e+003;1.047743e-001
3.315174e+003;1.047807e-001
3.317103e+003;1.052584e-001
3.319031e+003;1.058593e-001
3.320960e+003;1.063480e-001
3.322888e+003;1.071696e-001
3.324817e+003;1.080979e-001
3.326745e+003;1.082282e-001
3.328674e+003;1.089467e-001
3.330602e+003;1.098451e-001
3.332531e+003;1.096029e-001
3.334459e+003;1.093102e-001
3.336388e+003;1.094253e-001
3.338317e+003;1.096696e-001
3.340245e+003;1.093874e-001
3.342174e+003;1.087686e-001
3.344102e+003;1.084415e-001
3.346031e+003;1.082149e-001
3.347959e+003;1.072152e-001
3.349888e+003;1.058953e-001
3.351816e+003;1.049344e-001
3.353745e+003;1.045820e-001
3.355674e+003;1.041274e-001
3.357602e+003;1.032572e-001
3.359531e+003;1.024710e-001
3.361459e+003;1.017925e-001
3.363388e+003;1.008135e-001
3.365316e+003;1.001804e-001
3.367245e+003;9.956965e-002
3.369173e+003;9.920035e-002
3.371102e+003;9.907803e-002
3.373031e+003;9.849481e-002
3.374959e+003;9.766874e-002
3.376887e+003;9.708524e-002
3.378816e+003;9.651515e-002
3.380745e+003;9.615050e-002
3.382673e+003;9.592874e-002
3.384602e+003;9.515353e-002
3.386530e+003;9.418935e-002
3.388459e+003;9.361753e-002
3.390387e+003;9.425355e-002
3.392316e+003;9.432676e-002
3.394244e+003;9.342783e-002
3.396173e+003;9.242856e-002
3.398102e+003;9.144250e-002
3.400030e+003;9.052214e-002
3.401959e+003;9.035569e-002
3.403887e+003;9.020909e-002
3.405816e+003;8.973142e-002
3.407744e+003;8.957252e-002
3.409673e+003;8.964840e-002
3.411601e+003;8.914497e-002
3.413530e+003;8.871605e-002
3.415458e+003;8.828732e-002
3.417387e+003;8.718054e-002
3.419316e+003;8.635925e-002
3.421244e+003;8.588013e-002
3.423173e+003;8.490559e-002
3.425101e+003;8.413274e-002
3.427030e+003;8.340266e-002
3.428958e+003;8.281086e-002
3.430887e+003;8.240897e-002
3.432815e+003;8.132841e-002
3.434744e+003;8.031072e-002
3.436673e+003;7.973777e-002
3.438601e+003;7.978483e-002
3.440530e+003;7.986669e-002
3.442458e+003;7.924629e-002
3.444387e+003;7.847379e-002
3.446315e+003;7.812107e-002
3.448244e+003;7.796613e-002
3.450172e+003;7.684312e-002
3.452101e+003;7.570052e-002
3.454030e+003;7.529023e-002
3.455958e+003;7.497848e-002
3.457886e+003;7.516631e-002
3.459815e+003;7.503770e-002
3.461744e+003;7.414313e-002
3.463672e+003;7.337117e-002
3.465601e+003;7.302457e-002
3.467529e+003;7.259455e-002
3.469458e+003;7.224161e-002
3.471386e+003;7.149556e-002
3.473315e+003;7.083835e-002
3.475243e+003;7.022641e-002
3.477172e+003;6.951348e-002
3.479101e+003;6.891817e-002
3.481029e+003;6.863870e-002
3.482958e+003;6.837311e-002
3.484886e+003;6.769183e-002
3.486815e+003;6.738696e-002
3.488743e+003;6.722946e-002
3.490672e+003;6.605358e-002
3.492600e+003;6.535170e-002
3.494529e+003;6.561368e-002
3.496458e+003;6.551026e-002
3.498386e+003;6.482960e-002
3.500315e+003;6.407032e-002
3.502243e+003;6.369971e-002
3.504172e+003;6.313005e-002
3.506100e+003;6.218355e-002
3.508029e+003;6.189211e-002
3.509957e+003;6.206546e-002
3.511886e+003;6.196674e-002
3.513814e+003;6.142526e-002
3.515743e+003;6.107398e-002
3.517672e+003;6.047873e-002
3.519600e+003;6.012175e-002
3.521529e+003;6.005284e-002
3.523457e+003;5.981766e-002
3.525386e+003;5.901223e-002
3.527314e+003;5.798559e-002
3.529243e+003;5.786072e-002
3.531171e+003;5.796203e-002
3.533100e+003;5.768730e-002
3.535029e+003;5.703979e-002
3.536957e+003;5.601666e-002
3.538885e+003;5.541252e-002
3.540814e+003;5.546375e-002
3.542743e+003;5.587996e-002
3.544671e+003;5.578892e-002
3.546600e+003;5.507615e-002
3.548528e+003;5.493809e-002
3.550457e+003;5.483977e-002
3.552385e+003;5.461852e-002
3.554314e+003;5.427320e-002
3.556242e+003;5.377770e-002
3.558171e+003;5.364759e-002
3.560100e+003;5.322269e-002
3.562028e+003;5.239758e-002
3.563957e+003;5.156579e-002
3.565885e+003;5.113886e-002
3.567814e+003;5.117054e-002
3.569742e+003;5.146510e-002
3.571671e+003;5.140531e-002
3.573599e+003;5.126140e-002
3.575528e+003;5.139195e-002
3.577457e+003;5.084293e-002
3.579385e+003;5.006608e-002
3.581314e+003;4.951048e-002
3.583242e+003;4.917012e-002
3.585171e+003;4.938576e-002
3.587099e+003;4.919606e-002
3.589028e+003;4.879889e-002
3.590956e+003;4.849491e-002
3.592885e+003;4.849876e-002
3.594813e+003;4.840782e-002
3.596742e+003;4.818000e-002
3.598671e+003;4.773027e-002
3.600599e+003;4.729690e-002
3.602528e+003;4.739075e-002
3.604456e+003;4.731822e-002
3.606385e+003;4.751608e-002
3.608313e+003;4.730761e-002
3.610242e+003;4.664377e-002
3.612170e+003;4.613652e-002
3.614099e+003;4.660441e-002
3.616028e+003;4.685776e-002
3.617956e+003;4.636279e-002
3.619885e+003;4.616461e-002
3.621813e+003;4.592364e-002
3.623742e+003;4.572428e-002
3.625670e+003;4.547260e-002
3.627599e+003;4.491119e-002
3.629527e+003;4.484693e-002
3.631456e+003;4.454692e-002
3.633385e+003;4.431235e-002
3.635313e+003;4.420470e-002
3.637241e+003;4.378131e-002
3.639170e+003;4.346643e-002
3.641099e+003;4.384556e-002
3.643027e+003;4.421490e-002
3.644956e+003;4.379165e-002
3.646884e+003;4.279194e-002
3.648813e+003;4.216885e-002
3.650741e+003;4.257049e-002
3.652670e+003;4.263924e-002
3.654598e+003;4.235408e-002
3.656527e+003;4.185488e-002
3.658456e+003;4.143520e-002
3.660384e+003;4.098766e-002
3.662313e+003;4.158077e-002
3.664241e+003;4.168660e-002
3.666170e+003;4.107685e-002
3.668098e+003;4.092551e-002
3.670027e+003;4.101814e-002
3.671955e+003;4.107510e-002
3.673884e+003;4.107186e-002
3.675813e+003;4.036130e-002
3.677741e+003;4.017462e-002
3.679669e+003;4.032763e-002
3.681598e+003;4.063049e-002
3.683527e+003;4.098253e-002
3.685455e+003;4.082992e-002
3.687384e+003;4.014580e-002
3.689312e+003;3.974095e-002
3.691241e+003;3.960855e-002
3.693169e+003;3.947909e-002
3.695098e+003;3.943544e-002
3.697026e+003;3.953727e-002
3.698955e+003;3.990785e-002
3.700884e+003;3.971205e-002
3.702812e+003;3.938247e-002
3.704741e+003;3.892164e-002
3.706669e+003;3.868422e-002
3.708598e+003;3.938113e-002
3.710526e+003;4.009954e-002
3.712455e+003;3.902096e-002
3.714383e+003;3.781355e-002
3.716312e+003;3.806648e-002
3.718240e+003;3.879910e-002
3.720169e+003;3.931104e-002
3.722098e+003;3.934394e-002
3.724026e+003;3.877602e-002
3.725955e+003;3.865710e-002
3.727883e+003;3.842916e-002
3.729812e+003;3.814382e-002
3.731740e+003;3.832622e-002
3.733669e+003;3.912127e-002
3.735597e+003;3.934423e-002
3.737526e+003;3.901588e-002
3.739455e+003;3.844179e-002
3.741383e+003;3.794797e-002
3.743312e+003;3.845298e-002
3.745240e+003;3.879996e-002
3.747169e+003;3.827697e-002
3.749097e+003;3.751576e-002
3.751026e+003;3.758161e-002
3.752954e+003;3.847224e-002
3.754883e+003;3.935131e-002
3.756812e+003;3.937126e-002
3.758740e+003;3.864652e-002
3.760668e+003;3.800612e-002
3.762597e+003;3.826868e-002
3.764526e+003;3.921526e-002
3.766454e+003;3.907660e-002
3.768383e+003;3.811119e-002
3.770311e+003;3.834891e-002
3.772240e+003;3.888783e-002
3.774168e+003;3.911757e-002
3.776097e+003;3.836668e-002
3.778025e+003;3.796348e-002
3.779954e+003;3.878392e-002
3.781883e+003;3.955679e-002
3.783811e+003;3.973503e-002
3.785740e+003;3.960801e-002
3.787668e+003;3.978743e-002
3.789597e+003;3.979672e-002
3.791525e+003;3.924786e-002
3.793454e+003;3.884602e-002
3.795382e+003;3.877931e-002
3.797311e+003;3.914266e-002
3.799240e+003;3.888674e-002
3.801168e+003;3.815550e-002
3.803097e+003;3.803013e-002
3.805025e+003;3.846938e-002
3.806954e+003;3.833986e-002
3.808882e+003;3.857739e-002
3.810811e+003;3.932773e-002
3.812739e+003;3.951839e-002
3.814668e+003;3.948250e-002
3.816596e+003;3.942652e-002
3.818525e+003;3.973096e-002
3.820454e+003;3.984854e-002
3.822382e+003;3.916775e-002
3.824311e+003;3.832600e-002
3.826239e+003;3.849570e-002
3.828168e+003;3.925442e-002
3.830096e+003;3.984172e-002
3.832025e+003;3.963301e-002
3.833953e+003;3.942467e-002
3.835882e+003;3.911757e-002
3.837811e+003;3.942499e-002
3.839739e+003;4.000754e-002
3.841667e+003;3.969404e-002
3.843596e+003;3.918599e-002
3.845525e+003;3.921816e-002
3.847453e+003;3.924441e-002
3.849382e+003;3.949074e-002
3.851310e+003;3.962056e-002
3.853239e+003;3.961312e-002
3.855167e+003;3.979011e-002
3.857096e+003;3.958503e-002
3.859024e+003;3.964307e-002
3.860953e+003;4.050425e-002
3.862882e+003;4.115105e-002
3.864810e+003;4.090571e-002
3.866739e+003;3.969680e-002
3.868667e+003;3.957468e-002
3.870596e+003;3.999842e-002
3.872524e+003;4.009972e-002
3.874453e+003;4.052851e-002
3.876381e+003;4.052048e-002
3.878310e+003;4.049007e-002
3.880239e+003;4.027407e-002
3.882167e+003;4.002120e-002
3.884096e+003;3.959508e-002
3.886024e+003;3.940845e-002
3.887953e+003;4.009463e-002
3.889881e+003;4.052822e-002
3.891810e+003;4.043537e-002
3.893738e+003;4.025619e-002
3.895667e+003;4.016604e-002
3.897595e+003;4.085328e-002
3.899524e+003;4.118740e-002
3.901453e+003;4.038598e-002
3.903381e+003;4.050302e-002
3.905310e+003;4.102481e-002
3.907238e+003;4.140086e-002
3.909167e+003;4.142733e-002
3.911095e+003;4.072618e-002
3.913024e+003;4.066782e-002
3.914952e+003;4.109105e-002
3.916881e+003;4.122176e-002
3.918810e+003;4.093560e-002
3.920738e+003;4.086872e-002
3.922667e+003;4.082886e-002
3.924595e+003;4.060898e-002
3.926524e+003;4.132721e-002
3.928452e+003;4.153385e-002
3.930381e+003;4.085900e-002
3.932309e+003;4.097226e-002
3.934238e+003;4.123342e-002
3.936167e+003;4.123429e-002
3.938095e+003;4.095114e-002
3.940023e+003;4.108614e-002
3.941952e+003;4.133410e-002
3.943881e+003;4.097059e-002
3.945809e+003;4.111826e-002
3.947738e+003;4.153494e-002
3.949666e+003;4.127306e-002
3.951595e+003;4.133676e-002
3.953523e+003;4.191753e-002
3.955452e+003;4.216556e-002
3.957380e+003;4.218280e-002
3.959309e+003;4.234615e-002
3.961238e+003;4.181650e-002
3.963166e+003;4.182660e-002
3.965095e+003;4.265156e-002
3.967023e+003;4.280558e-002
3.968952e+003;4.214033e-002
3.970880e+003;4.145448e-002
3.972809e+003;4.179567e-002
3.974737e+003;4.214369e-002
3.976666e+003;4.188684e-002
3.978594e+003;4.189888e-002
3.980523e+003;4.163212e-002
3.982452e+003;4.152871e-002
3.984380e+003;4.162128e-002
3.986309e+003;4.199534e-002
3.988237e+003;4.216103e-002
3.990166e+003;4.220083e-002
3.992094e+003;4.282266e-002
3.994023e+003;4.245564e-002
3.995951e+003;4.221230e-002
3.997880e+003;4.152367e-002
3.999809e+003;4.103785e-002
4.001737e+003;0.000000e+000
