3.992094e+002;0.000000e+000
4.011380e+002;0.000000e+000
4.030665e+002;0.000000e+000
4.049951e+002;0.000000e+000
4.069236e+002;0.000000e+000
4.088522e+002;0.000000e+000
4.107807e+002;0.000000e+000
4.127093e+002;0.000000e+000
4.146378e+002;0.000000e+000
4.165664e+002;0.000000e+000
4.184949e+002;0.000000e+000
4.204235e+002;0.000000e+000
4.223520e+002;0.000000e+000
4.242806e+002;0.000000e+000
4.262091e+002;0.000000e+000
4.281377e+002;0.000000e+000
4.300662e+002;0.000000e+000
4.319948e+002;0.000000e+000
4.339233e+002;0.000000e+000
4.358519e+002;0.000000e+000
4.377804e+002;0.000000e+000
4.397090e+002;0.000000e+000
4.416375e+002;0.000000e+000
4.435660e+002;0.000000e+000
4.454946e+002;0.000000e+000
4.474232e+002;0.000000e+000
4.493517e+002;0.000000e+000
4.512802e+002;0.000000e+000
4.532088e+002;0.000000e+000
4.551373e+002;0.000000e+000
4.570659e+002;0.000000e+000
4.589944e+002;0.000000e+000
4.609230e+002;0.000000e+000
4.628515e+002;0.000000e+000
4.647801e+002;0.000000e+000
4.667086e+002;0.000000e+000
4.686372e+002;0.000000e+000
4.705657e+002;0.000000e+000
4.724943e+002;0.000000e+000
4.744228e+002;0.000000e+000
4.763513e+002;0.000000e+000
4.782799e+002;0.000000e+000
4.802085e+002;0.000000e+000
4.821370e+002;0.000000e+000
4.840656e+002;0.000000e+000
4.859941e+002;0.000000e+000
4.879226e+002;0.000000e+000
4.898512e+002;0.000000e+000
4.917798e+002;0.000000e+000
4.937083e+002;0.000000e+000
4.956368e+002;0.000000e+000
4.975654e+002;0.000000e+000
4.994939e+002;0.000000e+000
5.014225e+002;0.000000e+000
5.033510e+002;0.000000e+000
5.052796e+002;0.000000e+000
5.072081e+002;0.000000e+000
5.091367e+002;0.000000e+000
5.110652e+002;0.000000e+000
5.129938e+002;0.000000e+000
5.149223e+002;0.000000e+000
5.168509e+002;0.000000e+000
5.187794e+002;0.000000e+000
5.207079e+002;0.000000e+000
5.226365e+002;0.000000e+000
5.245651e+002;0.000000e+000
5.264936e+002;0.000000e+000
5.284222e+002;0.000000e+000
5.303507e+002;0.000000e+000
5.322792e+002;0.000000e+000
5.342078e+002;0.000000e+000
5.361364e+002;0.000000e+000
5.380649e+002;0.000000e+000
5.399935e+002;0.000000e+000
5.419220e+002;0.000000e+000
5.438505e+002;0.000000e+000
5.457791e+002;0.000000e+000
5.477076e+002;0.000000e+000
5.496362e+002;0.000000e+000
5.515648e+002;0.000000e+000
5.534933e+002;0.000000e+000
5.554218e+002;0.000000e+000
5.573504e+002;0.000000e+000
5.592789e+002;0.000000e+000
5.612075e+002;0.000000e+000
5.631360e+002;0.000000e+000
5.650646e+002;0.000000e+000
5.669931e+002;0.000000e+000
5.689217e+002;0.000000e+000
5.708502e+002;0.000000e+000
5.727787e+002;0.000000e+000
5.747073e+002;0.000000e+000
5.766359e+002;0.000000e+000
5.785644e+002;0.000000e+000
5.804930e+002;0.000000e+000
5.824215e+002;0.000000e+000
5.843500e+002;0.000000e+000
5.862786e+002;0.000000e+000
5.882072e+002;0.000000e+000
5.901357e+002;0.000000e+000
5.920643e+002;0.000000e+000
5.939928e+002;0.000000e+000
5.959213e+002;0.000000e+000
5.978499e+002;0.000000e+000
5.997784e+002;3.173876e-001
6.017070e+002;3.223889e-001
6.036355e+002;3.292362e-001
6.055641e+002;3.298847e-001
6.074926e+002;3.240833e-001
6.094211e+002;3.225842e-001
6.113497e+002;3.248359e-001
6.132783e+002;3.231938e-001
6.152068e+002;3.188977e-001
6.171354e+002;3.201125e-001
6.190639e+002;3.177558e-001
6.209924e+002;3.078056e-001
6.229210e+002;2.991507e-001
6.248495e+002;2.978200e-001
6.267781e+002;2.951667e-001
6.287067e+002;2.898637e-001
6.306352e+002;2.815114e-001
6.325637e+002;2.770646e-001
6.344923e+002;2.756288e-001
6.364208e+002;2.755610e-001
6.383494e+002;2.767096e-001
6.402780e+002;2.738130e-001
6.422065e+002;2.721747e-001
6.441350e+002;2.693921e-001
6.460636e+002;2.645995e-001
6.479921e+002;2.649916e-001
6.499207e+002;2.658090e-001
6.518492e+002;2.677480e-001
6.537778e+002;2.738482e-001
6.557063e+002;2.806815e-001
6.576349e+002;2.863282e-001
6.595634e+002;2.909307e-001
6.614919e+002;2.940448e-001
6.634205e+002;2.925598e-001
6.653491e+002;2.901661e-001
6.672776e+002;2.882119e-001
6.692062e+002;2.846383e-001
6.711347e+002;2.794052e-001
6.730632e+002;2.732885e-001
6.749918e+002;2.637357e-001
6.769203e+002;2.533971e-001
6.788489e+002;2.457280e-001
6.807775e+002;2.389590e-001
6.827060e+002;2.329907e-001
6.846345e+002;2.299205e-001
6.865631e+002;2.292049e-001
6.884916e+002;2.286698e-001
6.904202e+002;2.274608e-001
6.923488e+002;2.263693e-001
6.942773e+002;2.255522e-001
6.962058e+002;2.251785e-001
6.981344e+002;2.245381e-001
7.000629e+002;2.239007e-001
7.019915e+002;2.227950e-001
7.039200e+002;2.208390e-001
7.058486e+002;2.188768e-001
7.077771e+002;2.161170e-001
7.097057e+002;2.134726e-001
7.116342e+002;2.111051e-001
7.135627e+002;2.089307e-001
7.154913e+002;2.056548e-001
7.174199e+002;2.010564e-001
7.193484e+002;1.965460e-001
7.212770e+002;1.928265e-001
7.232055e+002;1.883724e-001
7.251340e+002;1.838394e-001
7.270626e+002;1.801614e-001
7.289911e+002;1.768306e-001
7.309197e+002;1.729223e-001
7.328483e+002;1.702403e-001
7.347768e+002;1.683704e-001
7.367053e+002;1.654503e-001
7.386339e+002;1.627223e-001
7.405624e+002;1.612275e-001
7.424910e+002;1.595993e-001
7.444196e+002;1.568547e-001
7.463481e+002;1.549059e-001
7.482766e+002;1.548079e-001
7.502052e+002;1.536279e-001
7.521337e+002;1.514971e-001
7.540623e+002;1.493854e-001
7.559908e+002;1.475865e-001
7.579194e+002;1.456764e-001
7.598479e+002;1.438630e-001
7.617765e+002;1.422938e-001
7.637050e+002;1.412048e-001
7.656335e+002;1.404417e-001
7.675621e+002;1.384837e-001
7.694907e+002;1.368813e-001
7.714192e+002;1.362842e-001
7.733478e+002;1.353495e-001
7.752763e+002;1.344991e-001
7.772048e+002;1.340066e-001
7.791334e+002;1.332837e-001
7.810620e+002;1.322144e-001
7.829905e+002;1.313119e-001
7.849191e+002;1.301256e-001
7.868476e+002;1.292027e-001
7.887761e+002;1.295052e-001
7.907047e+002;1.299207e-001
7.926332e+002;1.300038e-001
7.945618e+002;1.297112e-001
7.964903e+002;1.288405e-001
7.984189e+002;1.284283e-001
8.003474e+002;1.289415e-001
8.022759e+002;1.288984e-001
8.042045e+002;1.285667e-001
8.061331e+002;1.285890e-001
8.080616e+002;1.282646e-001
8.099902e+002;1.279290e-001
8.119187e+002;1.275539e-001
8.138472e+002;1.273808e-001
8.157758e+002;1.266098e-001
8.177043e+002;1.254159e-001
8.196329e+002;1.250100e-001
8.215615e+002;1.241204e-001
8.234900e+002;1.224738e-001
8.254185e+002;1.214290e-001
8.273471e+002;1.213635e-001
8.292756e+002;1.210628e-001
8.312042e+002;1.202539e-001
8.331328e+002;1.198247e-001
8.350613e+002;1.202160e-001
8.369898e+002;1.206573e-001
8.389184e+002;1.207234e-001
8.408469e+002;1.211287e-001
8.427755e+002;1.211980e-001
8.447040e+002;1.208875e-001
8.466326e+002;1.207384e-001
8.485611e+002;1.210240e-001
8.504897e+002;1.222346e-001
8.524182e+002;1.234060e-001
8.543467e+002;1.244377e-001
8.562753e+002;1.254278e-001
8.582039e+002;1.262047e-001
8.601324e+002;1.281016e-001
8.620610e+002;1.302363e-001
8.639895e+002;1.322455e-001
8.659180e+002;1.346797e-001
8.678466e+002;1.373966e-001
8.697751e+002;1.401235e-001
8.717037e+002;1.429681e-001
8.736323e+002;1.452117e-001
8.755608e+002;1.469761e-001
8.774893e+002;1.490525e-001
8.794179e+002;1.523520e-001
8.813464e+002;1.557321e-001
8.832750e+002;1.589468e-001
8.852036e+002;1.625581e-001
8.871321e+002;1.671349e-001
8.890606e+002;1.716682e-001
8.909892e+002;1.747544e-001
8.929177e+002;1.772023e-001
8.948463e+002;1.794233e-001
8.967748e+002;1.804945e-001
8.987034e+002;1.802781e-001
9.006319e+002;1.790986e-001
9.025605e+002;1.769989e-001
9.044890e+002;1.742097e-001
9.064175e+002;1.716953e-001
9.083461e+002;1.689966e-001
9.102747e+002;1.664575e-001
9.122032e+002;1.647951e-001
9.141318e+002;1.631080e-001
9.160603e+002;1.615560e-001
9.179888e+002;1.608522e-001
9.199174e+002;1.611932e-001
9.218459e+002;1.621186e-001
9.237745e+002;1.633919e-001
9.257031e+002;1.650848e-001
9.276316e+002;1.670078e-001
9.295601e+002;1.692175e-001
9.314887e+002;1.717327e-001
9.334172e+002;1.740950e-001
9.353458e+002;1.759496e-001
9.372744e+002;1.781022e-001
9.392029e+002;1.805003e-001
9.411314e+002;1.830065e-001
9.430600e+002;1.858686e-001
9.449885e+002;1.887895e-001
9.469171e+002;1.921974e-001
9.488456e+002;1.966394e-001
9.507742e+002;2.015199e-001
9.527027e+002;2.064704e-001
9.546313e+002;2.119698e-001
9.565598e+002;2.180440e-001
9.584883e+002;2.246948e-001
9.604169e+002;2.315159e-001
9.623455e+002;2.386768e-001
9.642740e+002;2.465206e-001
9.662026e+002;2.546996e-001
9.681311e+002;2.644001e-001
9.700596e+002;2.756405e-001
9.719882e+002;2.887097e-001
9.739167e+002;3.043460e-001
9.758453e+002;3.232388e-001
9.777739e+002;3.452161e-001
9.797024e+002;3.689593e-001
9.816309e+002;3.915230e-001
9.835595e+002;4.077014e-001
9.854880e+002;4.154821e-001
9.874166e+002;4.181308e-001
9.893452e+002;4.195918e-001
9.912737e+002;4.231411e-001
9.932022e+002;4.311924e-001
9.951307e+002;4.422079e-001
9.970593e+002;4.544593e-001
9.989879e+002;4.666654e-001
1.000916e+003;4.759788e-001
1.002845e+003;4.805560e-001
1.004773e+003;4.828873e-001
1.006702e+003;4.838926e-001
1.008631e+003;4.840229e-001
1.010559e+003;4.871190e-001
1.012488e+003;4.938412e-001
1.014416e+003;5.023267e-001
1.016345e+003;5.106596e-001
1.018273e+003;5.191681e-001
1.020202e+003;5.284676e-001
1.022130e+003;5.376385e-001
1.024059e+003;5.452870e-001
1.025988e+003;5.522517e-001
1.027916e+003;5.588098e-001
1.029845e+003;5.627969e-001
1.031773e+003;5.621811e-001
1.033702e+003;5.561456e-001
1.035630e+003;5.448090e-001
1.037559e+003;5.322708e-001
1.039487e+003;5.220386e-001
1.041416e+003;5.145607e-001
1.043344e+003;5.105696e-001
1.045273e+003;5.121198e-001
1.047202e+003;5.169945e-001
1.049130e+003;5.223012e-001
1.051059e+003;5.258064e-001
1.052987e+003;5.272597e-001
1.054916e+003;5.249783e-001
1.056844e+003;5.170775e-001
1.058773e+003;5.025477e-001
1.060701e+003;4.821799e-001
1.062630e+003;4.583042e-001
1.064558e+003;4.335059e-001
1.066487e+003;4.113706e-001
1.068416e+003;3.927890e-001
1.070344e+003;3.765459e-001
1.072273e+003;3.642290e-001
1.074201e+003;3.550728e-001
1.076130e+003;3.473943e-001
1.078058e+003;3.402827e-001
1.079987e+003;3.334010e-001
1.081915e+003;3.278173e-001
1.083844e+003;3.247453e-001
1.085773e+003;3.242018e-001
1.087701e+003;3.245103e-001
1.089630e+003;3.238501e-001
1.091558e+003;3.237523e-001
1.093487e+003;3.253751e-001
1.095415e+003;3.280594e-001
1.097344e+003;3.299296e-001
1.099272e+003;3.316363e-001
1.101201e+003;3.325780e-001
1.103129e+003;3.322454e-001
1.105058e+003;3.299244e-001
1.106987e+003;3.258717e-001
1.108915e+003;3.200659e-001
1.110844e+003;3.121689e-001
1.112772e+003;3.007741e-001
1.114701e+003;2.866560e-001
1.116629e+003;2.713484e-001
1.118558e+003;2.569953e-001
1.120486e+003;2.459145e-001
1.122415e+003;2.371622e-001
1.124344e+003;2.284625e-001
1.126272e+003;2.190646e-001
1.128201e+003;2.096146e-001
1.130129e+003;2.015564e-001
1.132058e+003;1.953072e-001
1.133986e+003;1.898078e-001
1.135915e+003;1.850514e-001
1.137843e+003;1.815974e-001
1.139772e+003;1.805292e-001
1.141700e+003;1.817566e-001
1.143629e+003;1.836708e-001
1.145557e+003;1.859173e-001
1.147486e+003;1.878470e-001
1.149415e+003;1.891794e-001
1.151343e+003;1.901030e-001
1.153272e+003;1.910293e-001
1.155200e+003;1.917939e-001
1.157129e+003;1.920731e-001
1.159057e+003;1.919104e-001
1.160986e+003;1.901688e-001
1.162914e+003;1.861275e-001
1.164843e+003;1.794477e-001
1.166771e+003;1.709293e-001
1.168700e+003;1.612788e-001
1.170629e+003;1.513647e-001
1.172557e+003;1.424925e-001
1.174486e+003;1.347492e-001
1.176414e+003;1.285544e-001
1.178343e+003;1.236024e-001
1.180271e+003;1.200259e-001
1.182200e+003;1.177222e-001
1.184128e+003;1.161864e-001
1.186057e+003;1.156930e-001
1.187986e+003;1.162879e-001
1.189914e+003;1.184460e-001
1.191843e+003;1.216134e-001
1.193771e+003;1.248775e-001
1.195700e+003;1.283017e-001
1.197628e+003;1.314866e-001
1.199557e+003;1.337357e-001
1.201485e+003;1.348895e-001
1.203414e+003;1.345671e-001
1.205343e+003;1.331022e-001
1.207271e+003;1.302307e-001
1.209200e+003;1.252971e-001
1.211128e+003;1.199855e-001
1.213057e+003;1.160106e-001
1.214985e+003;1.142313e-001
1.216914e+003;1.147523e-001
1.218842e+003;1.159532e-001
1.220771e+003;1.172473e-001
1.222699e+003;1.193317e-001
1.224628e+003;1.217186e-001
1.226557e+003;1.239774e-001
1.228485e+003;1.263983e-001
1.230414e+003;1.287059e-001
1.232342e+003;1.305727e-001
1.234271e+003;1.319948e-001
1.236199e+003;1.327519e-001
1.238128e+003;1.329859e-001
1.240056e+003;1.332470e-001
1.241985e+003;1.340108e-001
1.243913e+003;1.354774e-001
1.245842e+003;1.370980e-001
1.247771e+003;1.377517e-001
1.249699e+003;1.375547e-001
1.251628e+003;1.375524e-001
1.253556e+003;1.373857e-001
1.255485e+003;1.372879e-001
1.257413e+003;1.377404e-001
1.259342e+003;1.382374e-001
1.261270e+003;1.381548e-001
1.263199e+003;1.379806e-001
1.265127e+003;1.382708e-001
1.267056e+003;1.384857e-001
1.268985e+003;1.386756e-001
1.270913e+003;1.393474e-001
1.272842e+003;1.401581e-001
1.274770e+003;1.406596e-001
1.276699e+003;1.408634e-001
1.278627e+003;1.406645e-001
1.280556e+003;1.399007e-001
1.282484e+003;1.386582e-001
1.284413e+003;1.374176e-001
1.286342e+003;1.369673e-001
1.288270e+003;1.372934e-001
1.290199e+003;1.382517e-001
1.292127e+003;1.396247e-001
1.294056e+003;1.410263e-001
1.295984e+003;1.426171e-001
1.297913e+003;1.448329e-001
1.299841e+003;1.478311e-001
1.301770e+003;1.518579e-001
1.303698e+003;1.566148e-001
1.305627e+003;1.619356e-001
1.307556e+003;1.679220e-001
1.309484e+003;1.740116e-001
1.311413e+003;1.790503e-001
1.313341e+003;1.824843e-001
1.315270e+003;1.835736e-001
1.317198e+003;1.817234e-001
1.319127e+003;1.778578e-001
1.321055e+003;1.732948e-001
1.322984e+003;1.691926e-001
1.324912e+003;1.663556e-001
1.326841e+003;1.647260e-001
1.328770e+003;1.647079e-001
1.330698e+003;1.658130e-001
1.332627e+003;1.672330e-001
1.334555e+003;1.682703e-001
1.336484e+003;1.675792e-001
1.338412e+003;1.653925e-001
1.340341e+003;1.625897e-001
1.342269e+003;1.592539e-001
1.344198e+003;1.557018e-001
1.346126e+003;1.527893e-001
1.348055e+003;1.509049e-001
1.349984e+003;1.501587e-001
1.351912e+003;1.505520e-001
1.353841e+003;1.518933e-001
1.355769e+003;1.534452e-001
1.357698e+003;1.547706e-001
1.359626e+003;1.562005e-001
1.361555e+003;1.566417e-001
1.363483e+003;1.555546e-001
1.365412e+003;1.540737e-001
1.367341e+003;1.529929e-001
1.369269e+003;1.522828e-001
1.371198e+003;1.507857e-001
1.373126e+003;1.476688e-001
1.375055e+003;1.436771e-001
1.376983e+003;1.396465e-001
1.378912e+003;1.354493e-001
1.380840e+003;1.317481e-001
1.382769e+003;1.288897e-001
1.384698e+003;1.259509e-001
1.386626e+003;1.230934e-001
1.388555e+003;1.210194e-001
1.390483e+003;1.200484e-001
1.392412e+003;1.192089e-001
1.394340e+003;1.186523e-001
1.396269e+003;1.189655e-001
1.398197e+003;1.191944e-001
1.400126e+003;1.192866e-001
1.402054e+003;1.196429e-001
1.403983e+003;1.201278e-001
1.405911e+003;1.203354e-001
1.407840e+003;1.205115e-001
1.409769e+003;1.210933e-001
1.411697e+003;1.220414e-001
1.413626e+003;1.230615e-001
1.415554e+003;1.241993e-001
1.417483e+003;1.259118e-001
1.419411e+003;1.278586e-001
1.421340e+003;1.299588e-001
1.423268e+003;1.319356e-001
1.425197e+003;1.331655e-001
1.427125e+003;1.335108e-001
1.429054e+003;1.332671e-001
1.430983e+003;1.324570e-001
1.432911e+003;1.305963e-001
1.434840e+003;1.281050e-001
1.436768e+003;1.255924e-001
1.438697e+003;1.237376e-001
1.440625e+003;1.222386e-001
1.442554e+003;1.209571e-001
1.444482e+003;1.201519e-001
1.446411e+003;1.199026e-001
1.448340e+003;1.194082e-001
1.450268e+003;1.184724e-001
1.452197e+003;1.173925e-001
1.454125e+003;1.161019e-001
1.456054e+003;1.147041e-001
1.457982e+003;1.130504e-001
1.459911e+003;1.113489e-001
1.461839e+003;1.093092e-001
1.463768e+003;1.068746e-001
1.465697e+003;1.043980e-001
1.467625e+003;1.020978e-001
1.469554e+003;9.965221e-002
1.471482e+003;9.712113e-002
1.473411e+003;9.515031e-002
1.475339e+003;9.339196e-002
1.477268e+003;9.163694e-002
1.479196e+003;9.020567e-002
1.481125e+003;8.849213e-002
1.483053e+003;8.631195e-002
1.484982e+003;8.395915e-002
1.486911e+003;8.171941e-002
1.488839e+003;7.955363e-002
1.490768e+003;7.785533e-002
1.492696e+003;7.665839e-002
1.494625e+003;7.562321e-002
1.496553e+003;7.482973e-002
1.498482e+003;7.427634e-002
1.500410e+003;7.402536e-002
1.502339e+003;7.381131e-002
1.504267e+003;7.324302e-002
1.506196e+003;7.264934e-002
1.508125e+003;7.243535e-002
1.510053e+003;7.221903e-002
1.511982e+003;7.190487e-002
1.513910e+003;7.170081e-002
1.515839e+003;7.136550e-002
1.517767e+003;7.110550e-002
1.519696e+003;7.096720e-002
1.521624e+003;7.078737e-002
1.523553e+003;7.059289e-002
1.525481e+003;7.033615e-002
1.527410e+003;7.021040e-002
1.529339e+003;7.041703e-002
1.531267e+003;7.082060e-002
1.533196e+003;7.088251e-002
1.535124e+003;7.070544e-002
1.537053e+003;7.060478e-002
1.538981e+003;7.023642e-002
1.540910e+003;6.983425e-002
1.542838e+003;6.996969e-002
1.544767e+003;7.042132e-002
1.546695e+003;7.053473e-002
1.548624e+003;7.064930e-002
1.550553e+003;7.076834e-002
1.552481e+003;7.073785e-002
1.554410e+003;7.086339e-002
1.556338e+003;7.086374e-002
1.558267e+003;7.070158e-002
1.560195e+003;7.108571e-002
1.562124e+003;7.152142e-002
1.564052e+003;7.177007e-002
1.565981e+003;7.201741e-002
1.567910e+003;7.196356e-002
1.569838e+003;7.214755e-002
1.571767e+003;7.246964e-002
1.573695e+003;7.238732e-002
1.575624e+003;7.254631e-002
1.577552e+003;7.298988e-002
1.579481e+003;7.336470e-002
1.581409e+003;7.365868e-002
1.583338e+003;7.405601e-002
1.585266e+003;7.446128e-002
1.587195e+003;7.494402e-002
1.589124e+003;7.529023e-002
1.591052e+003;7.563852e-002
1.592981e+003;7.583623e-002
1.594909e+003;7.610583e-002
1.596838e+003;7.647386e-002
1.598766e+003;7.698686e-002
1.600695e+003;7.739848e-002
1.602623e+003;7.773028e-002
1.604552e+003;7.826222e-002
1.606480e+003;7.870659e-002
1.608409e+003;7.895894e-002
1.610338e+003;7.915233e-002
1.612266e+003;7.927671e-002
1.614195e+003;7.929015e-002
1.616123e+003;7.928367e-002
1.618052e+003;7.949824e-002
1.619980e+003;7.967387e-002
1.621909e+003;7.985220e-002
1.623837e+003;8.018237e-002
1.625766e+003;8.039424e-002
1.627694e+003;8.047216e-002
1.629623e+003;8.045624e-002
1.631552e+003;8.037279e-002
1.633480e+003;8.071545e-002
1.635409e+003;8.077243e-002
1.637337e+003;8.054223e-002
1.639266e+003;8.055355e-002
1.641194e+003;8.054406e-002
1.643123e+003;8.047958e-002
1.645051e+003;8.009957e-002
1.646980e+003;7.966125e-002
1.648909e+003;7.938613e-002
1.650837e+003;7.882739e-002
1.652766e+003;7.850578e-002
1.654694e+003;7.863928e-002
1.656623e+003;7.828972e-002
1.658551e+003;7.746354e-002
1.660480e+003;7.682473e-002
1.662408e+003;7.632714e-002
1.664337e+003;7.580809e-002
1.666266e+003;7.541887e-002
1.668194e+003;7.496103e-002
1.670123e+003;7.435285e-002
1.672051e+003;7.393252e-002
1.673980e+003;7.357794e-002
1.675908e+003;7.304159e-002
1.677837e+003;7.263478e-002
1.679765e+003;7.222995e-002
1.681694e+003;7.166056e-002
1.683622e+003;7.108828e-002
1.685551e+003;7.063604e-002
1.687479e+003;7.040659e-002
1.689408e+003;7.026754e-002
1.691337e+003;7.003416e-002
1.693265e+003;6.966182e-002
1.695194e+003;6.924599e-002
1.697122e+003;6.912115e-002
1.699051e+003;6.873352e-002
1.700979e+003;6.808582e-002
1.702908e+003;6.798847e-002
1.704836e+003;6.820505e-002
1.706765e+003;6.823064e-002
1.708693e+003;6.810617e-002
1.710622e+003;6.812942e-002
1.712551e+003;6.804423e-002
1.714479e+003;6.784857e-002
1.716408e+003;6.761826e-002
1.718336e+003;6.758760e-002
1.720265e+003;6.770449e-002
1.722193e+003;6.768900e-002
1.724122e+003;6.754474e-002
1.726050e+003;6.718586e-002
1.727979e+003;6.696171e-002
1.729908e+003;6.696197e-002
1.731836e+003;6.668566e-002
1.733765e+003;6.637605e-002
1.735693e+003;6.643917e-002
1.737622e+003;6.645817e-002
1.739550e+003;6.606145e-002
1.741479e+003;6.577989e-002
1.743407e+003;6.555580e-002
1.745336e+003;6.531519e-002
1.747265e+003;6.505408e-002
1.749193e+003;6.474379e-002
1.751122e+003;6.459958e-002
1.753050e+003;6.450751e-002
1.754979e+003;6.463280e-002
1.756907e+003;6.457363e-002
1.758836e+003;6.472306e-002
1.760764e+003;6.488446e-002
1.762693e+003;6.469940e-002
1.764621e+003;6.467252e-002
1.766550e+003;6.480821e-002
1.768479e+003;6.494953e-002
1.770407e+003;6.479809e-002
1.772336e+003;6.447715e-002
1.774264e+003;6.443091e-002
1.776193e+003;6.437430e-002
1.778121e+003;6.413953e-002
1.780050e+003;6.383917e-002
1.781978e+003;6.386381e-002
1.783907e+003;6.400497e-002
1.785835e+003;6.387202e-002
1.787764e+003;6.396074e-002
1.789693e+003;6.414087e-002
1.791621e+003;6.405800e-002
1.793550e+003;6.410020e-002
1.795478e+003;6.412105e-002
1.797407e+003;6.399529e-002
1.799335e+003;6.396224e-002
1.801264e+003;6.385572e-002
1.803192e+003;6.388362e-002
1.805121e+003;6.389329e-002
1.807049e+003;6.391233e-002
1.808978e+003;6.393798e-002
1.810907e+003;6.390688e-002
1.812835e+003;6.381062e-002
1.814764e+003;6.381714e-002
1.816692e+003;6.387149e-002
1.818621e+003;6.393536e-002
1.820549e+003;6.385729e-002
1.822478e+003;6.359027e-002
1.824406e+003;6.354945e-002
1.826335e+003;6.387506e-002
1.828264e+003;6.384339e-002
1.830192e+003;6.344506e-002
1.832121e+003;6.317037e-002
1.834049e+003;6.311978e-002
1.835978e+003;6.307959e-002
1.837906e+003;6.323126e-002
1.839835e+003;6.343084e-002
1.841763e+003;6.344188e-002
1.843692e+003;6.313951e-002
1.845620e+003;6.296110e-002
1.847549e+003;6.303913e-002
1.849478e+003;6.298454e-002
1.851406e+003;6.284690e-002
1.853335e+003;6.275845e-002
1.855263e+003;6.266362e-002
1.857192e+003;6.255386e-002
1.859120e+003;6.241329e-002
1.861049e+003;6.231797e-002
1.862977e+003;6.234302e-002
1.864906e+003;6.260935e-002
1.866834e+003;6.278805e-002
1.868763e+003;6.270152e-002
1.870692e+003;6.248120e-002
1.872620e+003;6.208702e-002
1.874549e+003;6.208408e-002
1.876477e+003;6.242519e-002
1.878406e+003;6.244787e-002
1.880334e+003;6.258658e-002
1.882263e+003;6.265980e-002
1.884191e+003;6.239780e-002
1.886120e+003;6.223246e-002
1.888048e+003;6.223219e-002
1.889977e+003;6.227930e-002
1.891906e+003;6.239868e-002
1.893834e+003;6.241604e-002
1.895763e+003;6.216195e-002
1.897691e+003;6.191064e-002
1.899620e+003;6.200064e-002
1.901548e+003;6.214987e-002
1.903477e+003;6.219831e-002
1.905405e+003;6.233809e-002
1.907334e+003;6.232245e-002
1.909262e+003;6.224485e-002
1.911191e+003;6.237106e-002
1.913120e+003;6.258972e-002
1.915048e+003;6.263017e-002
1.916977e+003;6.250588e-002
1.918905e+003;6.247906e-002
1.920834e+003;6.289871e-002
1.922762e+003;6.319286e-002
1.924691e+003;6.303971e-002
1.926619e+003;6.281672e-002
1.928548e+003;6.250645e-002
1.930477e+003;6.243272e-002
1.932405e+003;6.267782e-002
1.934334e+003;6.280562e-002
1.936262e+003;6.250033e-002
1.938191e+003;6.223628e-002
1.940119e+003;6.266394e-002
1.942048e+003;6.308012e-002
1.943976e+003;6.321984e-002
1.945905e+003;6.312254e-002
1.947833e+003;6.296057e-002
1.949762e+003;6.296103e-002
1.951691e+003;6.315956e-002
1.953619e+003;6.314389e-002
1.955548e+003;6.307200e-002
1.957476e+003;6.312297e-002
1.959405e+003;6.333752e-002
1.961333e+003;6.347666e-002
1.963262e+003;6.322482e-002
1.965190e+003;6.286589e-002
1.967119e+003;6.301074e-002
1.969047e+003;6.332107e-002
1.970976e+003;6.327480e-002
1.972905e+003;6.323317e-002
1.974833e+003;6.328711e-002
1.976762e+003;6.339893e-002
1.978690e+003;6.354727e-002
1.980619e+003;6.364666e-002
1.982547e+003;6.354366e-002
1.984476e+003;6.359794e-002
1.986404e+003;6.362479e-002
1.988333e+003;6.345925e-002
1.990261e+003;6.331578e-002
1.992190e+003;6.349173e-002
1.994119e+003;6.379247e-002
1.996047e+003;6.384566e-002
1.997976e+003;6.380440e-002
1.999904e+003;6.365782e-002
2.001833e+003;6.342244e-002
2.003761e+003;6.344223e-002
2.005690e+003;6.361555e-002
2.007618e+003;6.380951e-002
2.009547e+003;6.403845e-002
2.011476e+003;6.408469e-002
2.013404e+003;6.419618e-002
2.015333e+003;6.437141e-002
2.017261e+003;6.442099e-002
2.019190e+003;6.426825e-002
2.021118e+003;6.433860e-002
2.023047e+003;6.438848e-002
2.024975e+003;6.431793e-002
2.026904e+003;6.445947e-002
2.028833e+003;6.453511e-002
2.030761e+003;6.457967e-002
2.032690e+003;6.468610e-002
2.034618e+003;6.468894e-002
2.036547e+003;6.453899e-002
2.038475e+003;6.449375e-002
2.040404e+003;6.461593e-002
2.042332e+003;6.466991e-002
2.044261e+003;6.463442e-002
2.046189e+003;6.451727e-002
2.048118e+003;6.428346e-002
2.050047e+003;6.425550e-002
2.051975e+003;6.457133e-002
2.053904e+003;6.464618e-002
2.055832e+003;6.436461e-002
2.057761e+003;6.413864e-002
2.059689e+003;6.417886e-002
2.061618e+003;6.446166e-002
2.063546e+003;6.453876e-002
2.065475e+003;6.438790e-002
2.067404e+003;6.424674e-002
2.069332e+003;6.406049e-002
2.071260e+003;6.413519e-002
2.073189e+003;6.421992e-002
2.075118e+003;6.415781e-002
2.077046e+003;6.426468e-002
2.078975e+003;6.422012e-002
2.080903e+003;6.411068e-002
2.082832e+003;6.423660e-002
2.084760e+003;6.423014e-002
2.086689e+003;6.414194e-002
2.088617e+003;6.411337e-002
2.090546e+003;6.401173e-002
2.092475e+003;6.406745e-002
2.094403e+003;6.409936e-002
2.096332e+003;6.407212e-002
2.098260e+003;6.417371e-002
2.100189e+003;6.410688e-002
2.102117e+003;6.414337e-002
2.104046e+003;6.424870e-002
2.105974e+003;6.426014e-002
2.107903e+003;6.408157e-002
2.109832e+003;6.402048e-002
2.111760e+003;6.414659e-002
2.113688e+003;6.410592e-002
2.115617e+003;6.394178e-002
2.117546e+003;6.400543e-002
2.119474e+003;6.404363e-002
2.121403e+003;6.385115e-002
2.123331e+003;6.380225e-002
2.125260e+003;6.382766e-002
2.127188e+003;6.402447e-002
2.129117e+003;6.437165e-002
2.131045e+003;6.466153e-002
2.132974e+003;6.467187e-002
2.134903e+003;6.443429e-002
2.136831e+003;6.444293e-002
2.138760e+003;6.439216e-002
2.140688e+003;6.425396e-002
2.142617e+003;6.396765e-002
2.144545e+003;6.357577e-002
2.146474e+003;6.370992e-002
2.148402e+003;6.409644e-002
2.150331e+003;6.413534e-002
2.152260e+003;6.405827e-002
2.154188e+003;6.397395e-002
2.156117e+003;6.392995e-002
2.158045e+003;6.416603e-002
2.159974e+003;6.429537e-002
2.161902e+003;6.409252e-002
2.163831e+003;6.406852e-002
2.165759e+003;6.400289e-002
2.167688e+003;6.371825e-002
2.169616e+003;6.339564e-002
2.171545e+003;6.320589e-002
2.173474e+003;6.324598e-002
2.175402e+003;6.314948e-002
2.177331e+003;6.305503e-002
2.179259e+003;6.316358e-002
2.181188e+003;6.314051e-002
2.183116e+003;6.278981e-002
2.185045e+003;6.258589e-002
2.186973e+003;6.265287e-002
2.188902e+003;6.281327e-002
2.190831e+003;6.294589e-002
2.192759e+003;6.291571e-002
2.194688e+003;6.267465e-002
2.196616e+003;6.259971e-002
2.198545e+003;6.264315e-002
2.200473e+003;6.258180e-002
2.202402e+003;6.243693e-002
2.204330e+003;6.248395e-002
2.206259e+003;6.254105e-002
2.208188e+003;6.231453e-002
2.210116e+003;6.219189e-002
2.212044e+003;6.220718e-002
2.213973e+003;6.222917e-002
2.215902e+003;6.219560e-002
2.217830e+003;6.213152e-002
2.219759e+003;6.211627e-002
2.221687e+003;6.235400e-002
2.223616e+003;6.248671e-002
2.225544e+003;6.244994e-002
2.227473e+003;6.253098e-002
2.229401e+003;6.272464e-002
2.231330e+003;6.271159e-002
2.233259e+003;6.241750e-002
2.235187e+003;6.221888e-002
2.237116e+003;6.217247e-002
2.239044e+003;6.216157e-002
2.240973e+003;6.230099e-002
2.242901e+003;6.231238e-002
2.244830e+003;6.227976e-002
2.246758e+003;6.216608e-002
2.248687e+003;6.191137e-002
2.250615e+003;6.182116e-002
2.252544e+003;6.200350e-002
2.254473e+003;6.193215e-002
2.256401e+003;6.163202e-002
2.258330e+003;6.168408e-002
2.260258e+003;6.193965e-002
2.262187e+003;6.190002e-002
2.264115e+003;6.180225e-002
2.266044e+003;6.176272e-002
2.267972e+003;6.171066e-002
2.269901e+003;6.156486e-002
2.271830e+003;6.125205e-002
2.273758e+003;6.122847e-002
2.275687e+003;6.141113e-002
2.277615e+003;6.143854e-002
2.279544e+003;6.172127e-002
2.281472e+003;6.167063e-002
2.283401e+003;6.124907e-002
2.285329e+003;6.128741e-002
2.287258e+003;6.172502e-002
2.289187e+003;6.163619e-002
2.291115e+003;6.137087e-002
2.293043e+003;6.147408e-002
2.294972e+003;6.133160e-002
2.296901e+003;6.135927e-002
2.298829e+003;6.151091e-002
2.300758e+003;6.130348e-002
2.302686e+003;6.091201e-002
2.304615e+003;6.086973e-002
2.306543e+003;6.098144e-002
2.308472e+003;6.079377e-002
2.310400e+003;6.063814e-002
2.312329e+003;6.062039e-002
2.314258e+003;6.085410e-002
2.316186e+003;6.093637e-002
2.318115e+003;6.101244e-002
2.320043e+003;6.122652e-002
2.321972e+003;6.131123e-002
2.323900e+003;6.156574e-002
2.325829e+003;6.161923e-002
2.327757e+003;6.143278e-002
2.329686e+003;6.131447e-002
2.331615e+003;6.134782e-002
2.333543e+003;6.136091e-002
2.335472e+003;6.126200e-002
2.337400e+003;6.127135e-002
2.339329e+003;6.117235e-002
2.341257e+003;6.117906e-002
2.343186e+003;6.163420e-002
2.345114e+003;6.179251e-002
2.347043e+003;6.169141e-002
2.348971e+003;6.169759e-002
2.350900e+003;6.143533e-002
2.352829e+003;6.135152e-002
2.354757e+003;6.156234e-002
2.356686e+003;6.171188e-002
2.358614e+003;6.160743e-002
2.360543e+003;6.164818e-002
2.362471e+003;6.204662e-002
2.364400e+003;6.243953e-002
2.366328e+003;6.243666e-002
2.368257e+003;6.239194e-002
2.370186e+003;6.245197e-002
2.372114e+003;6.250457e-002
2.374042e+003;6.263645e-002
2.375971e+003;6.273425e-002
2.377900e+003;6.268430e-002
2.379828e+003;6.252516e-002
2.381757e+003;6.234126e-002
2.383685e+003;6.238181e-002
2.385614e+003;6.260648e-002
2.387542e+003;6.276473e-002
2.389471e+003;6.279999e-002
2.391399e+003;6.276002e-002
2.393328e+003;6.278716e-002
2.395257e+003;6.309970e-002
2.397185e+003;6.317872e-002
2.399114e+003;6.281117e-002
2.401042e+003;6.263079e-002
2.402971e+003;6.287271e-002
2.404899e+003;6.339752e-002
2.406828e+003;6.354804e-002
2.408756e+003;6.346485e-002
2.410685e+003;6.330405e-002
2.412614e+003;6.322720e-002
2.414542e+003;6.353787e-002
2.416471e+003;6.389786e-002
2.418399e+003;6.386189e-002
2.420328e+003;6.410550e-002
2.422256e+003;6.428301e-002
2.424185e+003;6.406890e-002
2.426113e+003;6.414763e-002
2.428042e+003;6.418869e-002
2.429970e+003;6.408092e-002
2.431899e+003;6.432904e-002
2.433828e+003;6.454649e-002
2.435756e+003;6.448860e-002
2.437685e+003;6.474040e-002
2.439613e+003;6.489366e-002
2.441542e+003;6.503207e-002
2.443470e+003;6.492005e-002
2.445399e+003;6.489204e-002
2.447327e+003;6.501644e-002
2.449256e+003;6.481933e-002
2.451185e+003;6.449044e-002
2.453113e+003;6.465245e-002
2.455042e+003;6.501679e-002
2.456970e+003;6.508888e-002
2.458899e+003;6.504800e-002
2.460827e+003;6.486650e-002
2.462756e+003;6.488985e-002
2.464684e+003;6.502248e-002
2.466613e+003;6.522258e-002
2.468542e+003;6.543833e-002
2.470470e+003;6.558925e-002
2.472398e+003;6.548749e-002
2.474327e+003;6.546514e-002
2.476256e+003;6.554127e-002
2.478184e+003;6.561773e-002
2.480113e+003;6.571412e-002
2.482041e+003;6.564093e-002
2.483970e+003;6.575390e-002
2.485898e+003;6.595985e-002
2.487827e+003;6.608938e-002
2.489755e+003;6.623659e-002
2.491684e+003;6.622729e-002
2.493613e+003;6.628638e-002
2.495541e+003;6.635671e-002
2.497470e+003;6.632606e-002
2.499398e+003;6.641331e-002
2.501327e+003;6.640130e-002
2.503255e+003;6.640234e-002
2.505184e+003;6.640106e-002
2.507112e+003;6.650046e-002
2.509041e+003;6.654487e-002
2.510969e+003;6.644721e-002
2.512898e+003;6.674594e-002
2.514827e+003;6.714088e-002
2.516755e+003;6.689108e-002
2.518684e+003;6.683148e-002
2.520612e+003;6.705109e-002
2.522541e+003;6.725491e-002
2.524469e+003;6.751773e-002
2.526398e+003;6.739941e-002
2.528326e+003;6.711381e-002
2.530255e+003;6.704479e-002
2.532184e+003;6.701065e-002
2.534112e+003;6.701560e-002
2.536041e+003;6.703226e-002
2.537969e+003;6.721193e-002
2.539898e+003;6.726771e-002
2.541826e+003;6.704421e-002
2.543755e+003;6.720551e-002
2.545683e+003;6.739447e-002
2.547612e+003;6.704657e-002
2.549541e+003;6.698776e-002
2.551469e+003;6.714544e-002
2.553397e+003;6.727030e-002
2.555326e+003;6.719352e-002
2.557255e+003;6.732957e-002
2.559183e+003;6.764265e-002
2.561112e+003;6.745046e-002
2.563040e+003;6.728740e-002
2.564969e+003;6.740228e-002
2.566897e+003;6.742890e-002
2.568826e+003;6.736203e-002
2.570754e+003;6.722914e-002
2.572683e+003;6.729472e-002
2.574612e+003;6.765988e-002
2.576540e+003;6.783455e-002
2.578469e+003;6.795294e-002
2.580397e+003;6.788026e-002
2.582326e+003;6.764281e-002
2.584254e+003;6.760951e-002
2.586183e+003;6.782657e-002
2.588111e+003;6.790722e-002
2.590040e+003;6.811872e-002
2.591969e+003;6.837454e-002
2.593897e+003;6.828198e-002
2.595826e+003;6.845666e-002
2.597754e+003;6.869020e-002
2.599683e+003;6.839448e-002
2.601611e+003;6.793644e-002
2.603540e+003;6.818505e-002
2.605468e+003;6.875339e-002
2.607397e+003;6.881217e-002
2.609325e+003;6.874982e-002
2.611254e+003;6.863781e-002
2.613183e+003;6.876721e-002
2.615111e+003;6.870414e-002
2.617040e+003;6.870352e-002
2.618968e+003;6.928400e-002
2.620897e+003;6.953581e-002
2.622825e+003;6.943105e-002
2.624754e+003;6.949999e-002
2.626682e+003;6.959573e-002
2.628611e+003;6.968278e-002
2.630540e+003;6.997257e-002
2.632468e+003;7.017652e-002
2.634396e+003;6.995066e-002
2.636325e+003;6.975923e-002
2.638254e+003;6.982293e-002
2.640182e+003;7.017103e-002
2.642111e+003;7.040717e-002
2.644039e+003;7.044404e-002
2.645968e+003;7.064150e-002
2.647896e+003;7.064345e-002
2.649825e+003;7.062817e-002
2.651753e+003;7.076448e-002
2.653682e+003;7.104399e-002
2.655611e+003;7.123712e-002
2.657539e+003;7.129388e-002
2.659468e+003;7.137046e-002
2.661396e+003;7.144873e-002
2.663325e+003;7.167494e-002
2.665253e+003;7.178324e-002
2.667182e+003;7.159686e-002
2.669110e+003;7.151216e-002
2.671039e+003;7.170831e-002
2.672968e+003;7.200877e-002
2.674896e+003;7.219011e-002
2.676825e+003;7.200541e-002
2.678753e+003;7.190897e-002
2.680682e+003;7.230176e-002
2.682610e+003;7.252712e-002
2.684539e+003;7.264676e-002
2.686467e+003;7.287128e-002
2.688396e+003;7.291365e-002
2.690324e+003;7.286604e-002
2.692253e+003;7.299165e-002
2.694182e+003;7.303524e-002
2.696110e+003;7.312353e-002
2.698039e+003;7.339895e-002
2.699967e+003;7.366669e-002
2.701896e+003;7.345819e-002
2.703824e+003;7.329687e-002
2.705753e+003;7.339848e-002
2.707681e+003;7.360722e-002
2.709610e+003;7.395267e-002
2.711539e+003;7.417489e-002
2.713467e+003;7.422850e-002
2.715396e+003;7.435313e-002
2.717324e+003;7.452272e-002
2.719253e+003;7.466368e-002
2.721181e+003;7.457645e-002
2.723110e+003;7.472413e-002
2.725038e+003;7.521189e-002
2.726967e+003;7.525378e-002
2.728896e+003;7.508343e-002
2.730824e+003;7.502849e-002
2.732752e+003;7.506413e-002
2.734681e+003;7.518534e-002
2.736610e+003;7.549676e-002
2.738538e+003;7.561553e-002
2.740467e+003;7.530283e-002
2.742395e+003;7.518778e-002
2.744324e+003;7.574569e-002
2.746252e+003;7.620008e-002
2.748181e+003;7.600876e-002
2.750109e+003;7.574347e-002
2.752038e+003;7.576517e-002
2.753967e+003;7.583437e-002
2.755895e+003;7.578016e-002
2.757824e+003;7.596365e-002
2.759752e+003;7.633661e-002
2.761681e+003;7.644048e-002
2.763609e+003;7.652768e-002
2.765538e+003;7.682556e-002
2.767466e+003;7.720525e-002
2.769395e+003;7.733750e-002
2.771323e+003;7.754264e-002
2.773252e+003;7.797192e-002
2.775181e+003;7.796133e-002
2.777109e+003;7.803231e-002
2.779038e+003;7.830313e-002
2.780966e+003;7.829349e-002
2.782895e+003;7.821556e-002
2.784823e+003;7.849312e-002
2.786752e+003;7.913448e-002
2.788680e+003;7.940812e-002
2.790609e+003;7.961023e-002
2.792538e+003;7.972554e-002
2.794466e+003;7.985096e-002
2.796395e+003;8.025858e-002
2.798323e+003;8.021545e-002
2.800252e+003;8.020939e-002
2.802180e+003;8.110303e-002
2.804109e+003;8.197409e-002
2.806037e+003;8.232090e-002
2.807966e+003;8.248173e-002
2.809895e+003;8.290870e-002
2.811823e+003;8.355099e-002
2.813751e+003;8.399783e-002
2.815680e+003;8.446534e-002
2.817609e+003;8.490442e-002
2.819537e+003;8.536847e-002
2.821466e+003;8.606878e-002
2.823394e+003;8.671375e-002
2.825323e+003;8.751965e-002
2.827251e+003;8.826450e-002
2.829180e+003;8.847815e-002
2.831108e+003;8.876532e-002
2.833037e+003;8.964791e-002
2.834966e+003;9.104837e-002
2.836894e+003;9.222992e-002
2.838823e+003;9.321107e-002
2.840751e+003;9.457410e-002
2.842680e+003;9.601991e-002
2.844608e+003;9.719663e-002
2.846537e+003;9.875552e-002
2.848465e+003;1.006692e-001
2.850394e+003;1.021559e-001
2.852323e+003;1.034924e-001
2.854251e+003;1.050868e-001
2.856180e+003;1.063841e-001
2.858108e+003;1.074194e-001
2.860037e+003;1.089756e-001
2.861965e+003;1.105957e-001
2.863894e+003;1.118858e-001
2.865822e+003;1.131983e-001
2.867751e+003;1.143913e-001
2.869679e+003;1.153395e-001
2.871608e+003;1.161254e-001
2.873536e+003;1.170249e-001
2.875465e+003;1.175305e-001
2.877394e+003;1.179641e-001
2.879322e+003;1.187913e-001
2.881251e+003;1.200097e-001
2.883179e+003;1.208792e-001
2.885108e+003;1.211643e-001
2.887036e+003;1.215496e-001
2.888965e+003;1.220730e-001
2.890893e+003;1.229606e-001
2.892822e+003;1.233941e-001
2.894750e+003;1.235024e-001
2.896679e+003;1.234791e-001
2.898608e+003;1.233320e-001
2.900536e+003;1.228671e-001
2.902465e+003;1.222526e-001
2.904393e+003;1.213220e-001
2.906322e+003;1.202462e-001
2.908250e+003;1.189221e-001
2.910179e+003;1.172032e-001
2.912107e+003;1.158726e-001
2.914036e+003;1.142949e-001
2.915965e+003;1.123525e-001
2.917893e+003;1.111732e-001
2.919822e+003;1.098444e-001
2.921750e+003;1.079834e-001
2.923679e+003;1.062904e-001
2.925607e+003;1.050859e-001
2.927536e+003;1.036881e-001
2.929464e+003;1.023185e-001
2.931393e+003;1.012028e-001
2.933322e+003;1.003259e-001
2.935250e+003;9.934989e-002
2.937178e+003;9.826370e-002
2.939107e+003;9.709867e-002
2.941036e+003;9.590977e-002
2.942964e+003;9.504712e-002
2.944893e+003;9.395315e-002
2.946821e+003;9.258899e-002
2.948750e+003;9.166268e-002
2.950678e+003;9.079040e-002
2.952607e+003;8.963337e-002
2.954535e+003;8.777731e-002
2.956464e+003;8.576656e-002
2.958393e+003;8.478893e-002
2.960321e+003;8.435254e-002
2.962250e+003;8.308323e-002
2.964178e+003;8.135782e-002
2.966107e+003;8.037538e-002
2.968035e+003;8.011705e-002
2.969964e+003;7.978196e-002
2.971892e+003;7.930228e-002
2.973821e+003;7.851087e-002
2.975750e+003;7.761260e-002
2.977678e+003;7.668049e-002
2.979607e+003;7.600142e-002
2.981535e+003;7.573259e-002
2.983464e+003;7.526761e-002
2.985392e+003;7.454585e-002
2.987321e+003;7.392690e-002
2.989249e+003;7.407773e-002
2.991178e+003;7.412262e-002
2.993106e+003;7.361358e-002
2.995035e+003;7.312223e-002
2.996964e+003;7.324337e-002
2.998892e+003;7.355592e-002
3.000821e+003;7.351722e-002
3.002749e+003;7.330782e-002
3.004678e+003;7.348935e-002
3.006606e+003;7.383381e-002
3.008535e+003;7.402610e-002
3.010463e+003;7.413649e-002
3.012392e+003;7.403133e-002
3.014321e+003;7.404504e-002
3.016249e+003;7.433080e-002
3.018177e+003;7.453460e-002
3.020106e+003;7.472405e-002
3.022035e+003;7.468497e-002
3.023963e+003;7.472488e-002
3.025892e+003;7.479934e-002
3.027820e+003;7.503708e-002
3.029749e+003;7.578296e-002
3.031677e+003;7.618026e-002
3.033606e+003;7.595193e-002
3.035534e+003;7.597928e-002
3.037463e+003;7.641800e-002
3.039392e+003;7.683565e-002
3.041320e+003;7.703702e-002
3.043249e+003;7.757441e-002
3.045177e+003;7.797093e-002
3.047106e+003;7.819517e-002
3.049034e+003;7.869015e-002
3.050963e+003;7.910581e-002
3.052891e+003;7.934555e-002
3.054820e+003;7.954738e-002
3.056749e+003;7.985100e-002
3.058677e+003;7.998208e-002
3.060606e+003;8.019903e-002
3.062534e+003;8.084319e-002
3.064463e+003;8.097038e-002
3.066391e+003;8.112843e-002
3.068320e+003;8.175817e-002
3.070248e+003;8.260999e-002
3.072177e+003;8.315481e-002
3.074105e+003;8.325292e-002
3.076034e+003;8.338487e-002
3.077963e+003;8.377270e-002
3.079891e+003;8.410137e-002
3.081820e+003;8.450011e-002
3.083748e+003;8.502736e-002
3.085677e+003;8.521576e-002
3.087605e+003;8.562429e-002
3.089534e+003;8.632020e-002
3.091462e+003;8.671977e-002
3.093391e+003;8.695278e-002
3.095320e+003;8.705076e-002
3.097248e+003;8.773477e-002
3.099177e+003;8.839078e-002
3.101105e+003;8.886947e-002
3.103034e+003;8.964636e-002
3.104962e+003;8.979477e-002
3.106891e+003;9.002565e-002
3.108819e+003;9.103248e-002
3.110748e+003;9.188640e-002
3.112677e+003;9.222578e-002
3.114605e+003;9.227810e-002
3.116533e+003;9.261069e-002
3.118462e+003;9.344160e-002
3.120391e+003;9.420329e-002
3.122319e+003;9.474027e-002
3.124248e+003;9.526534e-002
3.126176e+003;9.620032e-002
3.128105e+003;9.620798e-002
3.130033e+003;9.642702e-002
3.131962e+003;9.745193e-002
3.133890e+003;9.873509e-002
3.135819e+003;9.970248e-002
3.137748e+003;1.001053e-001
3.139676e+003;1.004352e-001
3.141605e+003;1.012228e-001
3.143533e+003;1.022613e-001
3.145462e+003;1.027041e-001
3.147390e+003;1.027064e-001
3.149319e+003;1.030920e-001
3.151247e+003;1.040992e-001
3.153176e+003;1.048693e-001
3.155104e+003;1.055154e-001
3.157033e+003;1.064148e-001
3.158962e+003;1.073287e-001
3.160890e+003;1.078283e-001
3.162819e+003;1.086230e-001
3.164747e+003;1.098230e-001
3.166676e+003;1.103117e-001
3.168604e+003;1.105845e-001
3.170533e+003;1.110822e-001
3.172461e+003;1.118488e-001
3.174390e+003;1.134471e-001
3.176319e+003;1.148481e-001
3.178247e+003;1.155685e-001
3.180176e+003;1.161261e-001
3.182104e+003;1.165166e-001
3.184033e+003;1.173493e-001
3.185961e+003;1.185201e-001
3.187890e+003;1.194783e-001
3.189818e+003;1.203083e-001
3.191747e+003;1.210260e-001
3.193676e+003;1.217801e-001
3.195604e+003;1.230107e-001
3.197532e+003;1.244361e-001
3.199461e+003;1.258748e-001
3.201390e+003;1.272150e-001
3.203318e+003;1.278493e-001
3.205247e+003;1.283821e-001
3.207175e+003;1.295911e-001
3.209104e+003;1.306004e-001
3.211032e+003;1.315197e-001
3.212961e+003;1.324101e-001
3.214889e+003;1.335773e-001
3.216818e+003;1.347214e-001
3.218747e+003;1.359477e-001
3.220675e+003;1.373632e-001
3.222604e+003;1.387916e-001
3.224532e+003;1.399052e-001
3.226461e+003;1.411432e-001
3.228389e+003;1.428070e-001
3.230318e+003;1.441123e-001
3.232246e+003;1.448293e-001
3.234175e+003;1.458198e-001
3.236104e+003;1.471754e-001
3.238032e+003;1.486330e-001
3.239961e+003;1.501254e-001
3.241889e+003;1.514979e-001
3.243818e+003;1.529496e-001
3.245746e+003;1.541072e-001
3.247675e+003;1.550216e-001
3.249603e+003;1.567787e-001
3.251532e+003;1.585824e-001
3.253460e+003;1.600144e-001
3.255389e+003;1.615794e-001
3.257318e+003;1.629349e-001
3.259246e+003;1.638979e-001
3.261175e+003;1.653088e-001
3.263103e+003;1.671672e-001
3.265032e+003;1.689249e-001
3.266960e+003;1.707025e-001
3.268889e+003;1.718035e-001
3.270817e+003;1.717278e-001
3.272746e+003;1.721764e-001
3.274675e+003;1.742793e-001
3.276603e+003;1.755907e-001
3.278531e+003;1.760669e-001
3.280460e+003;1.769843e-001
3.282389e+003;1.777607e-001
3.284317e+003;1.784740e-001
3.286246e+003;1.796036e-001
3.288174e+003;1.800781e-001
3.290103e+003;1.801672e-001
3.292031e+003;1.807723e-001
3.293960e+003;1.810980e-001
3.295888e+003;1.813276e-001
3.297817e+003;1.823321e-001
3.299746e+003;1.826473e-001
3.301674e+003;1.826913e-001
3.303603e+003;1.829374e-001
3.305531e+003;1.825724e-001
3.307460e+003;1.828211e-001
3.309388e+003;1.835187e-001
3.311317e+003;1.839413e-001
3.313245e+003;1.838625e-001
3.315174e+003;1.843234e-001
3.317103e+003;1.851239e-001
3.319031e+003;1.856397e-001
3.320960e+003;1.865237e-001
3.322888e+003;1.874039e-001
3.324817e+003;1.876363e-001
3.326745e+003;1.881907e-001
3.328674e+003;1.894075e-001
3.330602e+003;1.900092e-001
3.332531e+003;1.898154e-001
3.334459e+003;1.894214e-001
3.336388e+003;1.893621e-001
3.338317e+003;1.895739e-001
3.340245e+003;1.890913e-001
3.342174e+003;1.890706e-001
3.344102e+003;1.891166e-001
3.346031e+003;1.882130e-001
3.347959e+003;1.870875e-001
3.349888e+003;1.863568e-001
3.351816e+003;1.856825e-001
3.353745e+003;1.842637e-001
3.355674e+003;1.823939e-001
3.357602e+003;1.808640e-001
3.359531e+003;1.799611e-001
3.361459e+003;1.793355e-001
3.363388e+003;1.780949e-001
3.365316e+003;1.775498e-001
3.367245e+003;1.772992e-001
3.369173e+003;1.761332e-001
3.371102e+003;1.748646e-001
3.373031e+003;1.739194e-001
3.374959e+003;1.726193e-001
3.376887e+003;1.716476e-001
3.378816e+003;1.712990e-001
3.380745e+003;1.705935e-001
3.382673e+003;1.697396e-001
3.384602e+003;1.690526e-001
3.386530e+003;1.681581e-001
3.388459e+003;1.668730e-001
3.390387e+003;1.660569e-001
3.392316e+003;1.660327e-001
3.394244e+003;1.656944e-001
3.396173e+003;1.646196e-001
3.398102e+003;1.636752e-001
3.400030e+003;1.626310e-001
3.401959e+003;1.614492e-001
3.403887e+003;1.602532e-001
3.405816e+003;1.590516e-001
3.407744e+003;1.573769e-001
3.409673e+003;1.562103e-001
3.411601e+003;1.558906e-001
3.413530e+003;1.551094e-001
3.415458e+003;1.536888e-001
3.417387e+003;1.520808e-001
3.419316e+003;1.505640e-001
3.421244e+003;1.496767e-001
3.423173e+003;1.491159e-001
3.425101e+003;1.477050e-001
3.427030e+003;1.458231e-001
3.428958e+003;1.442766e-001
3.430887e+003;1.431346e-001
3.432815e+003;1.424633e-001
3.434744e+003;1.420381e-001
3.436673e+003;1.405528e-001
3.438601e+003;1.383185e-001
3.440530e+003;1.370193e-001
3.442458e+003;1.363862e-001
3.444387e+003;1.354427e-001
3.446315e+003;1.340694e-001
3.448244e+003;1.325209e-001
3.450172e+003;1.308331e-001
3.452101e+003;1.295274e-001
3.454030e+003;1.289951e-001
3.455958e+003;1.277774e-001
3.457886e+003;1.263314e-001
3.459815e+003;1.253342e-001
3.461744e+003;1.237108e-001
3.463672e+003;1.217214e-001
3.465601e+003;1.203584e-001
3.467529e+003;1.192622e-001
3.469458e+003;1.178700e-001
3.471386e+003;1.170083e-001
3.473315e+003;1.158439e-001
3.475243e+003;1.151428e-001
3.477172e+003;1.144565e-001
3.479101e+003;1.129049e-001
3.481029e+003;1.109332e-001
3.482958e+003;1.096941e-001
3.484886e+003;1.086615e-001
3.486815e+003;1.069935e-001
3.488743e+003;1.053780e-001
3.490672e+003;1.041802e-001
3.492600e+003;1.037500e-001
3.494529e+003;1.030841e-001
3.496458e+003;1.015701e-001
3.498386e+003;1.004401e-001
3.500315e+003;9.942491e-002
3.502243e+003;9.765472e-002
3.504172e+003;9.599990e-002
3.506100e+003;9.505442e-002
3.508029e+003;9.387854e-002
3.509957e+003;9.233810e-002
3.511886e+003;9.144917e-002
3.513814e+003;9.055932e-002
3.515743e+003;8.949312e-002
3.517672e+003;8.859105e-002
3.519600e+003;8.770407e-002
3.521529e+003;8.632028e-002
3.523457e+003;8.495224e-002
3.525386e+003;8.410008e-002
3.527314e+003;8.277830e-002
3.529243e+003;8.210140e-002
3.531171e+003;8.135706e-002
3.533100e+003;8.015292e-002
3.535029e+003;7.887594e-002
3.536957e+003;7.762203e-002
3.538885e+003;7.695604e-002
3.540814e+003;7.655519e-002
3.542743e+003;7.534689e-002
3.544671e+003;7.430257e-002
3.546600e+003;7.406870e-002
3.548528e+003;7.331453e-002
3.550457e+003;7.189646e-002
3.552385e+003;7.052358e-002
3.554314e+003;7.003042e-002
3.556242e+003;6.901025e-002
3.558171e+003;6.761908e-002
3.560100e+003;6.708492e-002
3.562028e+003;6.685622e-002
3.563957e+003;6.620074e-002
3.565885e+003;6.511440e-002
3.567814e+003;6.355233e-002
3.569742e+003;6.271519e-002
3.571671e+003;6.208217e-002
3.573599e+003;6.088235e-002
3.575528e+003;5.978636e-002
3.577457e+003;5.869708e-002
3.579385e+003;5.849296e-002
3.581314e+003;5.814932e-002
3.583242e+003;5.783316e-002
3.585171e+003;5.755646e-002
3.587099e+003;5.656246e-002
3.589028e+003;5.578926e-002
3.590956e+003;5.545080e-002
3.592885e+003;5.511099e-002
3.594813e+003;5.452422e-002
3.596742e+003;5.380962e-002
3.598671e+003;5.324876e-002
3.600599e+003;5.262096e-002
3.602528e+003;5.155038e-002
3.604456e+003;5.087693e-002
3.606385e+003;5.069678e-002
3.608313e+003;5.057853e-002
3.610242e+003;5.004355e-002
3.612170e+003;4.956281e-002
3.614099e+003;4.901189e-002
3.616028e+003;4.842171e-002
3.617956e+003;4.811729e-002
3.619885e+003;4.778790e-002
3.621813e+003;4.694402e-002
3.623742e+003;4.652504e-002
3.625670e+003;4.652430e-002
3.627599e+003;4.636836e-002
3.629527e+003;4.569031e-002
3.631456e+003;4.530427e-002
3.633385e+003;4.579552e-002
3.635313e+003;4.576883e-002
3.637241e+003;4.491652e-002
3.639170e+003;4.461759e-002
3.641099e+003;4.438302e-002
3.643027e+003;4.416317e-002
3.644956e+003;4.425936e-002
3.646884e+003;4.451439e-002
3.648813e+003;4.396467e-002
3.650741e+003;4.311219e-002
3.652670e+003;4.301911e-002
3.654598e+003;4.351998e-002
3.656527e+003;4.366878e-002
3.658456e+003;4.314779e-002
3.660384e+003;4.270851e-002
3.662313e+003;4.212467e-002
3.664241e+003;4.169309e-002
3.666170e+003;4.141942e-002
3.668098e+003;4.096946e-002
3.670027e+003;4.075341e-002
3.671955e+003;4.078660e-002
3.673884e+003;4.051684e-002
3.675813e+003;4.071487e-002
3.677741e+003;4.061335e-002
3.679669e+003;4.064031e-002
3.681598e+003;4.100183e-002
3.683527e+003;4.054881e-002
3.685455e+003;4.044341e-002
3.687384e+003;4.045643e-002
3.689312e+003;4.005492e-002
3.691241e+003;3.999540e-002
3.693169e+003;3.979309e-002
3.695098e+003;3.952406e-002
3.697026e+003;3.974175e-002
3.698955e+003;3.984008e-002
3.700884e+003;3.987379e-002
3.702812e+003;3.968104e-002
3.704741e+003;3.908349e-002
3.706669e+003;3.862993e-002
3.708598e+003;3.846920e-002
3.710526e+003;3.833914e-002
3.712455e+003;3.804941e-002
3.714383e+003;3.820185e-002
3.716312e+003;3.860940e-002
3.718240e+003;3.827168e-002
3.720169e+003;3.791608e-002
3.722098e+003;3.817168e-002
3.724026e+003;3.826749e-002
3.725955e+003;3.793383e-002
3.727883e+003;3.797032e-002
3.729812e+003;3.793908e-002
3.731740e+003;3.798106e-002
3.733669e+003;3.800717e-002
3.735597e+003;3.811752e-002
3.737526e+003;3.782205e-002
3.739455e+003;3.715088e-002
3.741383e+003;3.718654e-002
3.743312e+003;3.739024e-002
3.745240e+003;3.712612e-002
3.747169e+003;3.707040e-002
3.749097e+003;3.741354e-002
3.751026e+003;3.845106e-002
3.752954e+003;3.905249e-002
3.754883e+003;3.865807e-002
3.756812e+003;3.795651e-002
3.758740e+003;3.798189e-002
3.760668e+003;3.768918e-002
3.762597e+003;3.757677e-002
3.764526e+003;3.808052e-002
3.766454e+003;3.820015e-002
3.768383e+003;3.795734e-002
3.770311e+003;3.769536e-002
3.772240e+003;3.769547e-002
3.774168e+003;3.758140e-002
3.776097e+003;3.757901e-002
3.778025e+003;3.767831e-002
3.779954e+003;3.779537e-002
3.781883e+003;3.828778e-002
3.783811e+003;3.854599e-002
3.785740e+003;3.845095e-002
3.787668e+003;3.847770e-002
3.789597e+003;3.832709e-002
3.791525e+003;3.801632e-002
3.793454e+003;3.753198e-002
3.795382e+003;3.711959e-002
3.797311e+003;3.690415e-002
3.799240e+003;3.740079e-002
3.801168e+003;3.761597e-002
3.803097e+003;3.754541e-002
3.805025e+003;3.720557e-002
3.806954e+003;3.721426e-002
3.808882e+003;3.786611e-002
3.810811e+003;3.822012e-002
3.812739e+003;3.820803e-002
3.814668e+003;3.816292e-002
3.816596e+003;3.846612e-002
3.818525e+003;3.780820e-002
3.820454e+003;3.734803e-002
3.822382e+003;3.762154e-002
3.824311e+003;3.769186e-002
3.826239e+003;3.780990e-002
3.828168e+003;3.809028e-002
3.830096e+003;3.836172e-002
3.832025e+003;3.833700e-002
3.833953e+003;3.805183e-002
3.835882e+003;3.783708e-002
3.837811e+003;3.729582e-002
3.839739e+003;3.746757e-002
3.841667e+003;3.760296e-002
3.843596e+003;3.743380e-002
3.845525e+003;3.771256e-002
3.847453e+003;3.780169e-002
3.849382e+003;3.762938e-002
3.851310e+003;3.795752e-002
3.853239e+003;3.821386e-002
3.855167e+003;3.846942e-002
3.857096e+003;3.880341e-002
3.859024e+003;3.844418e-002
3.860953e+003;3.814045e-002
3.862882e+003;3.783325e-002
3.864810e+003;3.789138e-002
3.866739e+003;3.861132e-002
3.868667e+003;3.854653e-002
3.870596e+003;3.830631e-002
3.872524e+003;3.865105e-002
3.874453e+003;3.853136e-002
3.876381e+003;3.799968e-002
3.878310e+003;3.809582e-002
3.880239e+003;3.877949e-002
3.882167e+003;3.960430e-002
3.884096e+003;3.945805e-002
3.886024e+003;3.856417e-002
3.887953e+003;3.780224e-002
3.889881e+003;3.763541e-002
3.891810e+003;3.814946e-002
3.893738e+003;3.884830e-002
3.895667e+003;3.906797e-002
3.897595e+003;3.894328e-002
3.899524e+003;3.898177e-002
3.901453e+003;3.889628e-002
3.903381e+003;3.875743e-002
3.905310e+003;3.969230e-002
3.907238e+003;3.975325e-002
3.909167e+003;3.938940e-002
3.911095e+003;3.944473e-002
3.913024e+003;3.952746e-002
3.914952e+003;3.964249e-002
3.916881e+003;3.955621e-002
3.918810e+003;3.943714e-002
3.920738e+003;3.954971e-002
3.922667e+003;4.026960e-002
3.924595e+003;4.065366e-002
3.926524e+003;4.066312e-002
3.928452e+003;4.036758e-002
3.930381e+003;4.030178e-002
3.932309e+003;4.032534e-002
3.934238e+003;3.988810e-002
3.936167e+003;3.965356e-002
3.938095e+003;3.928598e-002
3.940023e+003;3.895444e-002
3.941952e+003;3.979018e-002
3.943881e+003;4.019443e-002
3.945809e+003;3.975533e-002
3.947738e+003;3.928532e-002
3.949666e+003;3.868575e-002
3.951595e+003;3.938548e-002
3.953523e+003;4.041926e-002
3.955452e+003;4.039231e-002
3.957380e+003;3.929614e-002
3.959309e+003;3.925805e-002
3.961238e+003;3.973692e-002
3.963166e+003;3.984568e-002
3.965095e+003;4.033512e-002
3.967023e+003;3.997800e-002
3.968952e+003;3.957755e-002
3.970880e+003;3.938153e-002
3.972809e+003;3.927404e-002
3.974737e+003;3.939814e-002
3.976666e+003;3.990920e-002
3.978594e+003;4.010982e-002
3.980523e+003;4.021006e-002
3.982452e+003;4.007403e-002
3.984380e+003;3.976771e-002
3.986309e+003;3.940282e-002
3.988237e+003;3.921522e-002
3.990166e+003;3.996075e-002
3.992094e+003;4.106658e-002
3.994023e+003;4.148168e-002
3.995951e+003;4.133059e-002
3.997880e+003;4.073900e-002
3.999809e+003;4.057159e-002
4.001737e+003;0.000000e+000
