3.992094e+002;0.000000e+000
4.011380e+002;0.000000e+000
4.030665e+002;0.000000e+000
4.049951e+002;0.000000e+000
4.069236e+002;0.000000e+000
4.088522e+002;0.000000e+000
4.107807e+002;0.000000e+000
4.127093e+002;0.000000e+000
4.146378e+002;0.000000e+000
4.165664e+002;0.000000e+000
4.184949e+002;0.000000e+000
4.204235e+002;0.000000e+000
4.223520e+002;0.000000e+000
4.242806e+002;0.000000e+000
4.262091e+002;0.000000e+000
4.281377e+002;0.000000e+000
4.300662e+002;0.000000e+000
4.319948e+002;0.000000e+000
4.339233e+002;0.000000e+000
4.358519e+002;0.000000e+000
4.377804e+002;0.000000e+000
4.397090e+002;0.000000e+000
4.416375e+002;0.000000e+000
4.435660e+002;0.000000e+000
4.454946e+002;0.000000e+000
4.474232e+002;0.000000e+000
4.493517e+002;0.000000e+000
4.512802e+002;0.000000e+000
4.532088e+002;0.000000e+000
4.551373e+002;0.000000e+000
4.570659e+002;0.000000e+000
4.589944e+002;0.000000e+000
4.609230e+002;0.000000e+000
4.628515e+002;0.000000e+000
4.647801e+002;0.000000e+000
4.667086e+002;0.000000e+000
4.686372e+002;0.000000e+000
4.705657e+002;0.000000e+000
4.724943e+002;0.000000e+000
4.744228e+002;0.000000e+000
4.763513e+002;0.000000e+000
4.782799e+002;0.000000e+000
4.802085e+002;0.000000e+000
4.821370e+002;0.000000e+000
4.840656e+002;0.000000e+000
4.859941e+002;0.000000e+000
4.879226e+002;0.000000e+000
4.898512e+002;0.000000e+000
4.917798e+002;0.000000e+000
4.937083e+002;0.000000e+000
4.956368e+002;0.000000e+000
4.975654e+002;0.000000e+000
4.994939e+002;0.000000e+000
5.014225e+002;0.000000e+000
5.033510e+002;0.000000e+000
5.052796e+002;0.000000e+000
5.072081e+002;0.000000e+000
5.091367e+002;0.000000e+000
5.110652e+002;0.000000e+000
5.129938e+002;0.000000e+000
5.149223e+002;0.000000e+000
5.168509e+002;0.000000e+000
5.187794e+002;0.000000e+000
5.207079e+002;0.000000e+000
5.226365e+002;0.000000e+000
5.245651e+002;0.000000e+000
5.264936e+002;0.000000e+000
5.284222e+002;0.000000e+000
5.303507e+002;0.000000e+000
5.322792e+002;0.000000e+000
5.342078e+002;0.000000e+000
5.361364e+002;0.000000e+000
5.380649e+002;0.000000e+000
5.399935e+002;0.000000e+000
5.419220e+002;0.000000e+000
5.438505e+002;0.000000e+000
5.457791e+002;0.000000e+000
5.477076e+002;0.000000e+000
5.496362e+002;0.000000e+000
5.515648e+002;0.000000e+000
5.534933e+002;0.000000e+000
5.554218e+002;0.000000e+000
5.573504e+002;0.000000e+000
5.592789e+002;0.000000e+000
5.612075e+002;0.000000e+000
5.631360e+002;0.000000e+000
5.650646e+002;0.000000e+000
5.669931e+002;0.000000e+000
5.689217e+002;0.000000e+000
5.708502e+002;0.000000e+000
5.727787e+002;0.000000e+000
5.747073e+002;0.000000e+000
5.766359e+002;0.000000e+000
5.785644e+002;0.000000e+000
5.804930e+002;0.000000e+000
5.824215e+002;0.000000e+000
5.843500e+002;0.000000e+000
5.862786e+002;0.000000e+000
5.882072e+002;0.000000e+000
5.901357e+002;0.000000e+000
5.920643e+002;0.000000e+000
5.939928e+002;0.000000e+000
5.959213e+002;0.000000e+000
5.978499e+002;0.000000e+000
5.997784e+002;1.954150e-001
6.017070e+002;1.916473e-001
6.036355e+002;1.940581e-001
6.055641e+002;1.975612e-001
6.074926e+002;1.993023e-001
6.094211e+002;2.008959e-001
6.113497e+002;2.009854e-001
6.132783e+002;1.997866e-001
6.152068e+002;1.982038e-001
6.171354e+002;1.933222e-001
6.190639e+002;1.891931e-001
6.209924e+002;1.918684e-001
6.229210e+002;1.938573e-001
6.248495e+002;1.928130e-001
6.267781e+002;1.918915e-001
6.287067e+002;1.906825e-001
6.306352e+002;1.913962e-001
6.325637e+002;1.910417e-001
6.344923e+002;1.891206e-001
6.364208e+002;1.877762e-001
6.383494e+002;1.832978e-001
6.402780e+002;1.782244e-001
6.422065e+002;1.771187e-001
6.441350e+002;1.786685e-001
6.460636e+002;1.780886e-001
6.479921e+002;1.753277e-001
6.499207e+002;1.767318e-001
6.518492e+002;1.804769e-001
6.537778e+002;1.828375e-001
6.557063e+002;1.841230e-001
6.576349e+002;1.860347e-001
6.595634e+002;1.856191e-001
6.614919e+002;1.857861e-001
6.634205e+002;1.877744e-001
6.653491e+002;1.892448e-001
6.672776e+002;1.875947e-001
6.692062e+002;1.853351e-001
6.711347e+002;1.837381e-001
6.730632e+002;1.805167e-001
6.749918e+002;1.751103e-001
6.769203e+002;1.708946e-001
6.788489e+002;1.681879e-001
6.807775e+002;1.659262e-001
6.827060e+002;1.649033e-001
6.846345e+002;1.633080e-001
6.865631e+002;1.610241e-001
6.884916e+002;1.610375e-001
6.904202e+002;1.609069e-001
6.923488e+002;1.602735e-001
6.942773e+002;1.592669e-001
6.962058e+002;1.592299e-001
6.981344e+002;1.594742e-001
7.000629e+002;1.588926e-001
7.019915e+002;1.582489e-001
7.039200e+002;1.567912e-001
7.058486e+002;1.549809e-001
7.077771e+002;1.530394e-001
7.097057e+002;1.525811e-001
7.116342e+002;1.518406e-001
7.135627e+002;1.499504e-001
7.154913e+002;1.485837e-001
7.174199e+002;1.477185e-001
7.193484e+002;1.456633e-001
7.212770e+002;1.440122e-001
7.232055e+002;1.424762e-001
7.251340e+002;1.409395e-001
7.270626e+002;1.390423e-001
7.289911e+002;1.363427e-001
7.309197e+002;1.345669e-001
7.328483e+002;1.333958e-001
7.347768e+002;1.331236e-001
7.367053e+002;1.330048e-001
7.386339e+002;1.310300e-001
7.405624e+002;1.287248e-001
7.424910e+002;1.283537e-001
7.444196e+002;1.284476e-001
7.463481e+002;1.281777e-001
7.482766e+002;1.267359e-001
7.502052e+002;1.252246e-001
7.521337e+002;1.243580e-001
7.540623e+002;1.239014e-001
7.559908e+002;1.230409e-001
7.579194e+002;1.222817e-001
7.598479e+002;1.228295e-001
7.617765e+002;1.225388e-001
7.637050e+002;1.213417e-001
7.656335e+002;1.207101e-001
7.675621e+002;1.205692e-001
7.694907e+002;1.209611e-001
7.714192e+002;1.210046e-001
7.733478e+002;1.207900e-001
7.752763e+002;1.202767e-001
7.772048e+002;1.196086e-001
7.791334e+002;1.199053e-001
7.810620e+002;1.194672e-001
7.829905e+002;1.187597e-001
7.849191e+002;1.183749e-001
7.868476e+002;1.170424e-001
7.887761e+002;1.154401e-001
7.907047e+002;1.138498e-001
7.926332e+002;1.125861e-001
7.945618e+002;1.111587e-001
7.964903e+002;1.089729e-001
7.984189e+002;1.078724e-001
8.003474e+002;1.083069e-001
8.022759e+002;1.081202e-001
8.042045e+002;1.071552e-001
8.061331e+002;1.062553e-001
8.080616e+002;1.060405e-001
8.099902e+002;1.059332e-001
8.119187e+002;1.056980e-001
8.138472e+002;1.049021e-001
8.157758e+002;1.037351e-001
8.177043e+002;1.032135e-001
8.196329e+002;1.028515e-001
8.215615e+002;1.024764e-001
8.234900e+002;1.022684e-001
8.254185e+002;1.027470e-001
8.273471e+002;1.034094e-001
8.292756e+002;1.041259e-001
8.312042e+002;1.048249e-001
8.331328e+002;1.044483e-001
8.350613e+002;1.034203e-001
8.369898e+002;1.028025e-001
8.389184e+002;1.028978e-001
8.408469e+002;1.028746e-001
8.427755e+002;1.033772e-001
8.447040e+002;1.044001e-001
8.466326e+002;1.046360e-001
8.485611e+002;1.041888e-001
8.504897e+002;1.034136e-001
8.524182e+002;1.034316e-001
8.543467e+002;1.044089e-001
8.562753e+002;1.047662e-001
8.582039e+002;1.051882e-001
8.601324e+002;1.068739e-001
8.620610e+002;1.080669e-001
8.639895e+002;1.084915e-001
8.659180e+002;1.096889e-001
8.678466e+002;1.115793e-001
8.697751e+002;1.135377e-001
8.717037e+002;1.152617e-001
8.736323e+002;1.168003e-001
8.755608e+002;1.182308e-001
8.774893e+002;1.202282e-001
8.794179e+002;1.222293e-001
8.813464e+002;1.244165e-001
8.832750e+002;1.270341e-001
8.852036e+002;1.294458e-001
8.871321e+002;1.315989e-001
8.890606e+002;1.338953e-001
8.909892e+002;1.364675e-001
8.929177e+002;1.384322e-001
8.948463e+002;1.390090e-001
8.967748e+002;1.392100e-001
8.987034e+002;1.395499e-001
9.006319e+002;1.394658e-001
9.025605e+002;1.386466e-001
9.044890e+002;1.373035e-001
9.064175e+002;1.358407e-001
9.083461e+002;1.338744e-001
9.102747e+002;1.320663e-001
9.122032e+002;1.311422e-001
9.141318e+002;1.301585e-001
9.160603e+002;1.296117e-001
9.179888e+002;1.296372e-001
9.199174e+002;1.298224e-001
9.218459e+002;1.302816e-001
9.237745e+002;1.312840e-001
9.257031e+002;1.322203e-001
9.276316e+002;1.333204e-001
9.295601e+002;1.350393e-001
9.314887e+002;1.365853e-001
9.334172e+002;1.381747e-001
9.353458e+002;1.398800e-001
9.372744e+002;1.416904e-001
9.392029e+002;1.436370e-001
9.411314e+002;1.458087e-001
9.430600e+002;1.478360e-001
9.449885e+002;1.499937e-001
9.469171e+002;1.523579e-001
9.488456e+002;1.547386e-001
9.507742e+002;1.577723e-001
9.527027e+002;1.615891e-001
9.546313e+002;1.653430e-001
9.565598e+002;1.690811e-001
9.584883e+002;1.729864e-001
9.604169e+002;1.769833e-001
9.623455e+002;1.815340e-001
9.642740e+002;1.868479e-001
9.662026e+002;1.919057e-001
9.681311e+002;1.975514e-001
9.700596e+002;2.041508e-001
9.719882e+002;2.114358e-001
9.739167e+002;2.191291e-001
9.758453e+002;2.274381e-001
9.777739e+002;2.365005e-001
9.797024e+002;2.466357e-001
9.816309e+002;2.565129e-001
9.835595e+002;2.650774e-001
9.854880e+002;2.722902e-001
9.874166e+002;2.778051e-001
9.893452e+002;2.820276e-001
9.912737e+002;2.857064e-001
9.932022e+002;2.897630e-001
9.951307e+002;2.937893e-001
9.970593e+002;2.979088e-001
9.989879e+002;3.019182e-001
1.000916e+003;3.050979e-001
1.002845e+003;3.074359e-001
1.004773e+003;3.093570e-001
1.006702e+003;3.113078e-001
1.008631e+003;3.139627e-001
1.010559e+003;3.168227e-001
1.012488e+003;3.192992e-001
1.014416e+003;3.218779e-001
1.016345e+003;3.247132e-001
1.018273e+003;3.278076e-001
1.020202e+003;3.307295e-001
1.022130e+003;3.321550e-001
1.024059e+003;3.335696e-001
1.025988e+003;3.355281e-001
1.027916e+003;3.372642e-001
1.029845e+003;3.378857e-001
1.031773e+003;3.374931e-001
1.033702e+003;3.359507e-001
1.035630e+003;3.336532e-001
1.037559e+003;3.308079e-001
1.039487e+003;3.268439e-001
1.041416e+003;3.236286e-001
1.043344e+003;3.210962e-001
1.045273e+003;3.189053e-001
1.047202e+003;3.175609e-001
1.049130e+003;3.166690e-001
1.051059e+003;3.162877e-001
1.052987e+003;3.154895e-001
1.054916e+003;3.139204e-001
1.056844e+003;3.119996e-001
1.058773e+003;3.087497e-001
1.060701e+003;3.035068e-001
1.062630e+003;2.964222e-001
1.064558e+003;2.889400e-001
1.066487e+003;2.814970e-001
1.068416e+003;2.741298e-001
1.070344e+003;2.676826e-001
1.072273e+003;2.615984e-001
1.074201e+003;2.563650e-001
1.076130e+003;2.517715e-001
1.078058e+003;2.467705e-001
1.079987e+003;2.420952e-001
1.081915e+003;2.382554e-001
1.083844e+003;2.350847e-001
1.085773e+003;2.326754e-001
1.087701e+003;2.308047e-001
1.089630e+003;2.285426e-001
1.091558e+003;2.261579e-001
1.093487e+003;2.243630e-001
1.095415e+003;2.227744e-001
1.097344e+003;2.214108e-001
1.099272e+003;2.202639e-001
1.101201e+003;2.187776e-001
1.103129e+003;2.169054e-001
1.105058e+003;2.146998e-001
1.106987e+003;2.125525e-001
1.108915e+003;2.103124e-001
1.110844e+003;2.072521e-001
1.112772e+003;2.030108e-001
1.114701e+003;1.982577e-001
1.116629e+003;1.930915e-001
1.118558e+003;1.878444e-001
1.120486e+003;1.827137e-001
1.122415e+003;1.782426e-001
1.124344e+003;1.737639e-001
1.126272e+003;1.692037e-001
1.128201e+003;1.652509e-001
1.130129e+003;1.616428e-001
1.132058e+003;1.580814e-001
1.133986e+003;1.551703e-001
1.135915e+003;1.527625e-001
1.137843e+003;1.508838e-001
1.139772e+003;1.499331e-001
1.141700e+003;1.497545e-001
1.143629e+003;1.502578e-001
1.145557e+003;1.510503e-001
1.147486e+003;1.517597e-001
1.149415e+003;1.525794e-001
1.151343e+003;1.538981e-001
1.153272e+003;1.547722e-001
1.155200e+003;1.551612e-001
1.157129e+003;1.555328e-001
1.159057e+003;1.552641e-001
1.160986e+003;1.542450e-001
1.162914e+003;1.525353e-001
1.164843e+003;1.495228e-001
1.166771e+003;1.459964e-001
1.168700e+003;1.413269e-001
1.170629e+003;1.355744e-001
1.172557e+003;1.304191e-001
1.174486e+003;1.252229e-001
1.176414e+003;1.204898e-001
1.178343e+003;1.169266e-001
1.180271e+003;1.139035e-001
1.182200e+003;1.112154e-001
1.184128e+003;1.098135e-001
1.186057e+003;1.097480e-001
1.187986e+003;1.102800e-001
1.189914e+003;1.110303e-001
1.191843e+003;1.127241e-001
1.193771e+003;1.152311e-001
1.195700e+003;1.173004e-001
1.197628e+003;1.187663e-001
1.199557e+003;1.198193e-001
1.201485e+003;1.203391e-001
1.203414e+003;1.201007e-001
1.205343e+003;1.194236e-001
1.207271e+003;1.184917e-001
1.209200e+003;1.168036e-001
1.211128e+003;1.147388e-001
1.213057e+003;1.131690e-001
1.214985e+003;1.122864e-001
1.216914e+003;1.123456e-001
1.218842e+003;1.132911e-001
1.220771e+003;1.145780e-001
1.222699e+003;1.160879e-001
1.224628e+003;1.177471e-001
1.226557e+003;1.192616e-001
1.228485e+003;1.206737e-001
1.230414e+003;1.218914e-001
1.232342e+003;1.229237e-001
1.234271e+003;1.237788e-001
1.236199e+003;1.241541e-001
1.238128e+003;1.242322e-001
1.240056e+003;1.243890e-001
1.241985e+003;1.248798e-001
1.243913e+003;1.254095e-001
1.245842e+003;1.258442e-001
1.247771e+003;1.263987e-001
1.249699e+003;1.265861e-001
1.251628e+003;1.262870e-001
1.253556e+003;1.261721e-001
1.255485e+003;1.258570e-001
1.257413e+003;1.250033e-001
1.259342e+003;1.237167e-001
1.261270e+003;1.224836e-001
1.263199e+003;1.217675e-001
1.265127e+003;1.221102e-001
1.267056e+003;1.234123e-001
1.268985e+003;1.247652e-001
1.270913e+003;1.252212e-001
1.272842e+003;1.256613e-001
1.274770e+003;1.263936e-001
1.276699e+003;1.264321e-001
1.278627e+003;1.260438e-001
1.280556e+003;1.257523e-001
1.282484e+003;1.251803e-001
1.284413e+003;1.245006e-001
1.286342e+003;1.243524e-001
1.288270e+003;1.245822e-001
1.290199e+003;1.250930e-001
1.292127e+003;1.257814e-001
1.294056e+003;1.266590e-001
1.295984e+003;1.278112e-001
1.297913e+003;1.291110e-001
1.299841e+003;1.305023e-001
1.301770e+003;1.322993e-001
1.303698e+003;1.346059e-001
1.305627e+003;1.371508e-001
1.307556e+003;1.396412e-001
1.309484e+003;1.422086e-001
1.311413e+003;1.448190e-001
1.313341e+003;1.470009e-001
1.315270e+003;1.483180e-001
1.317198e+003;1.487721e-001
1.319127e+003;1.483695e-001
1.321055e+003;1.473048e-001
1.322984e+003;1.458320e-001
1.324912e+003;1.442755e-001
1.326841e+003;1.427600e-001
1.328770e+003;1.413094e-001
1.330698e+003;1.406110e-001
1.332627e+003;1.403276e-001
1.334555e+003;1.396272e-001
1.336484e+003;1.385590e-001
1.338412e+003;1.374993e-001
1.340341e+003;1.362367e-001
1.342269e+003;1.347172e-001
1.344198e+003;1.332306e-001
1.346126e+003;1.317874e-001
1.348055e+003;1.308374e-001
1.349984e+003;1.305667e-001
1.351912e+003;1.306436e-001
1.353841e+003;1.310270e-001
1.355769e+003;1.317293e-001
1.357698e+003;1.324459e-001
1.359626e+003;1.333077e-001
1.361555e+003;1.337570e-001
1.363483e+003;1.335153e-001
1.365412e+003;1.330442e-001
1.367341e+003;1.324673e-001
1.369269e+003;1.318583e-001
1.371198e+003;1.312351e-001
1.373126e+003;1.302253e-001
1.375055e+003;1.285966e-001
1.376983e+003;1.267463e-001
1.378912e+003;1.249076e-001
1.380840e+003;1.231127e-001
1.382769e+003;1.209880e-001
1.384698e+003;1.189307e-001
1.386626e+003;1.173358e-001
1.388555e+003;1.159906e-001
1.390483e+003;1.149679e-001
1.392412e+003;1.141316e-001
1.394340e+003;1.135715e-001
1.396269e+003;1.132525e-001
1.398197e+003;1.131630e-001
1.400126e+003;1.132886e-001
1.402054e+003;1.133654e-001
1.403983e+003;1.136006e-001
1.405911e+003;1.140913e-001
1.407840e+003;1.145259e-001
1.409769e+003;1.148577e-001
1.411697e+003;1.151140e-001
1.413626e+003;1.154998e-001
1.415554e+003;1.160233e-001
1.417483e+003;1.166519e-001
1.419411e+003;1.173206e-001
1.421340e+003;1.179546e-001
1.423268e+003;1.184337e-001
1.425197e+003;1.187340e-001
1.427125e+003;1.192493e-001
1.429054e+003;1.194564e-001
1.430983e+003;1.190800e-001
1.432911e+003;1.181817e-001
1.434840e+003;1.168945e-001
1.436768e+003;1.156005e-001
1.438697e+003;1.144200e-001
1.440625e+003;1.135861e-001
1.442554e+003;1.127180e-001
1.444482e+003;1.119883e-001
1.446411e+003;1.115555e-001
1.448340e+003;1.111297e-001
1.450268e+003;1.106855e-001
1.452197e+003;1.102273e-001
1.454125e+003;1.095039e-001
1.456054e+003;1.083184e-001
1.457982e+003;1.071869e-001
1.459911e+003;1.062640e-001
1.461839e+003;1.053926e-001
1.463768e+003;1.043838e-001
1.465697e+003;1.026915e-001
1.467625e+003;1.004473e-001
1.469554e+003;9.831447e-002
1.471482e+003;9.619346e-002
1.473411e+003;9.426513e-002
1.475339e+003;9.214962e-002
1.477268e+003;8.995843e-002
1.479196e+003;8.840533e-002
1.481125e+003;8.684076e-002
1.483053e+003;8.518774e-002
1.484982e+003;8.344919e-002
1.486911e+003;8.183801e-002
1.488839e+003;8.043443e-002
1.490768e+003;7.906475e-002
1.492696e+003;7.800301e-002
1.494625e+003;7.725880e-002
1.496553e+003;7.686226e-002
1.498482e+003;7.669931e-002
1.500410e+003;7.643111e-002
1.502339e+003;7.590725e-002
1.504267e+003;7.562748e-002
1.506196e+003;7.560425e-002
1.508125e+003;7.561375e-002
1.510053e+003;7.558283e-002
1.511982e+003;7.539506e-002
1.513910e+003;7.497607e-002
1.515839e+003;7.452248e-002
1.517767e+003;7.422520e-002
1.519696e+003;7.388841e-002
1.521624e+003;7.369205e-002
1.523553e+003;7.354057e-002
1.525481e+003;7.325843e-002
1.527410e+003;7.332229e-002
1.529339e+003;7.333908e-002
1.531267e+003;7.317489e-002
1.533196e+003;7.338165e-002
1.535124e+003;7.385341e-002
1.537053e+003;7.387352e-002
1.538981e+003;7.355439e-002
1.540910e+003;7.350984e-002
1.542838e+003;7.358842e-002
1.544767e+003;7.368876e-002
1.546695e+003;7.384646e-002
1.548624e+003;7.404567e-002
1.550553e+003;7.406622e-002
1.552481e+003;7.417846e-002
1.554410e+003;7.429270e-002
1.556338e+003;7.436493e-002
1.558267e+003;7.437208e-002
1.560195e+003;7.446922e-002
1.562124e+003;7.481304e-002
1.564052e+003;7.495036e-002
1.565981e+003;7.509966e-002
1.567910e+003;7.560251e-002
1.569838e+003;7.598350e-002
1.571767e+003;7.616273e-002
1.573695e+003;7.657231e-002
1.575624e+003;7.696158e-002
1.577552e+003;7.731233e-002
1.579481e+003;7.771657e-002
1.581409e+003;7.825409e-002
1.583338e+003;7.876073e-002
1.585266e+003;7.899356e-002
1.587195e+003;7.948527e-002
1.589124e+003;8.016352e-002
1.591052e+003;8.062851e-002
1.592981e+003;8.116473e-002
1.594909e+003;8.188366e-002
1.596838e+003;8.299589e-002
1.598766e+003;8.415763e-002
1.600695e+003;8.491312e-002
1.602623e+003;8.586034e-002
1.604552e+003;8.708704e-002
1.606480e+003;8.830644e-002
1.608409e+003;8.941247e-002
1.610338e+003;9.038115e-002
1.612266e+003;9.125301e-002
1.614195e+003;9.221074e-002
1.616123e+003;9.320840e-002
1.618052e+003;9.407353e-002
1.619980e+003;9.464797e-002
1.621909e+003;9.525386e-002
1.623837e+003;9.582164e-002
1.625766e+003;9.583395e-002
1.627694e+003;9.589411e-002
1.629623e+003;9.606063e-002
1.631552e+003;9.587626e-002
1.633480e+003;9.559444e-002
1.635409e+003;9.543285e-002
1.637337e+003;9.541716e-002
1.639266e+003;9.523410e-002
1.641194e+003;9.503689e-002
1.643123e+003;9.507532e-002
1.645051e+003;9.478108e-002
1.646980e+003;9.405469e-002
1.648909e+003;9.332447e-002
1.650837e+003;9.255393e-002
1.652766e+003;9.174154e-002
1.654694e+003;9.104089e-002
1.656623e+003;9.027631e-002
1.658551e+003;8.931616e-002
1.660480e+003;8.846991e-002
1.662408e+003;8.754568e-002
1.664337e+003;8.636668e-002
1.666266e+003;8.513042e-002
1.668194e+003;8.402939e-002
1.670123e+003;8.281310e-002
1.672051e+003;8.152436e-002
1.673980e+003;8.015643e-002
1.675908e+003;7.896654e-002
1.677837e+003;7.804814e-002
1.679765e+003;7.690679e-002
1.681694e+003;7.563134e-002
1.683622e+003;7.436576e-002
1.685551e+003;7.340778e-002
1.687479e+003;7.277822e-002
1.689408e+003;7.163172e-002
1.691337e+003;7.026700e-002
1.693265e+003;6.944295e-002
1.695194e+003;6.878530e-002
1.697122e+003;6.792872e-002
1.699051e+003;6.702445e-002
1.700979e+003;6.632525e-002
1.702908e+003;6.595001e-002
1.704836e+003;6.531519e-002
1.706765e+003;6.454492e-002
1.708693e+003;6.372508e-002
1.710622e+003;6.315013e-002
1.712551e+003;6.276714e-002
1.714479e+003;6.230447e-002
1.716408e+003;6.202296e-002
1.718336e+003;6.166276e-002
1.720265e+003;6.130352e-002
1.722193e+003;6.106880e-002
1.724122e+003;6.108581e-002
1.726050e+003;6.104542e-002
1.727979e+003;6.104577e-002
1.729908e+003;6.091792e-002
1.731836e+003;6.057235e-002
1.733765e+003;6.037431e-002
1.735693e+003;6.039423e-002
1.737622e+003;6.023246e-002
1.739550e+003;5.974047e-002
1.741479e+003;5.913569e-002
1.743407e+003;5.840156e-002
1.745336e+003;5.781999e-002
1.747265e+003;5.714564e-002
1.749193e+003;5.632647e-002
1.751122e+003;5.592047e-002
1.753050e+003;5.554150e-002
1.754979e+003;5.497544e-002
1.756907e+003;5.444015e-002
1.758836e+003;5.405437e-002
1.760764e+003;5.377950e-002
1.762693e+003;5.354406e-002
1.764621e+003;5.329408e-002
1.766550e+003;5.311293e-002
1.768479e+003;5.309331e-002
1.770407e+003;5.282298e-002
1.772336e+003;5.250686e-002
1.774264e+003;5.248249e-002
1.776193e+003;5.244884e-002
1.778121e+003;5.234547e-002
1.780050e+003;5.207034e-002
1.781978e+003;5.176605e-002
1.783907e+003;5.157086e-002
1.785835e+003;5.146860e-002
1.787764e+003;5.133985e-002
1.789693e+003;5.102716e-002
1.791621e+003;5.092265e-002
1.793550e+003;5.094519e-002
1.795478e+003;5.081581e-002
1.797407e+003;5.067739e-002
1.799335e+003;5.038697e-002
1.801264e+003;5.015510e-002
1.803192e+003;5.020528e-002
1.805121e+003;5.005905e-002
1.807049e+003;4.996480e-002
1.808978e+003;4.999889e-002
1.810907e+003;4.984969e-002
1.812835e+003;4.958238e-002
1.814764e+003;4.966176e-002
1.816692e+003;4.981342e-002
1.818621e+003;4.978618e-002
1.820549e+003;4.966510e-002
1.822478e+003;4.952842e-002
1.824406e+003;4.939705e-002
1.826335e+003;4.926505e-002
1.828264e+003;4.908174e-002
1.830192e+003;4.911829e-002
1.832121e+003;4.912975e-002
1.834049e+003;4.894966e-002
1.835978e+003;4.877219e-002
1.837906e+003;4.860518e-002
1.839835e+003;4.837770e-002
1.841763e+003;4.815227e-002
1.843692e+003;4.799715e-002
1.845620e+003;4.792026e-002
1.847549e+003;4.795582e-002
1.849478e+003;4.799371e-002
1.851406e+003;4.797339e-002
1.853335e+003;4.799438e-002
1.855263e+003;4.792922e-002
1.857192e+003;4.772935e-002
1.859120e+003;4.751412e-002
1.861049e+003;4.726782e-002
1.862977e+003;4.740335e-002
1.864906e+003;4.769200e-002
1.866834e+003;4.777687e-002
1.868763e+003;4.780994e-002
1.870692e+003;4.767758e-002
1.872620e+003;4.745635e-002
1.874549e+003;4.736976e-002
1.876477e+003;4.734412e-002
1.878406e+003;4.739142e-002
1.880334e+003;4.733318e-002
1.882263e+003;4.702550e-002
1.884191e+003;4.689629e-002
1.886120e+003;4.721873e-002
1.888048e+003;4.745669e-002
1.889977e+003;4.739267e-002
1.891906e+003;4.720403e-002
1.893834e+003;4.703791e-002
1.895763e+003;4.715712e-002
1.897691e+003;4.727514e-002
1.899620e+003;4.719852e-002
1.901548e+003;4.725013e-002
1.903477e+003;4.716000e-002
1.905405e+003;4.698961e-002
1.907334e+003;4.673239e-002
1.909262e+003;4.672232e-002
1.911191e+003;4.693675e-002
1.913120e+003;4.697721e-002
1.915048e+003;4.707454e-002
1.916977e+003;4.728585e-002
1.918905e+003;4.751087e-002
1.920834e+003;4.766859e-002
1.922762e+003;4.760225e-002
1.924691e+003;4.761043e-002
1.926619e+003;4.761520e-002
1.928548e+003;4.743081e-002
1.930477e+003;4.743307e-002
1.932405e+003;4.755327e-002
1.934334e+003;4.761498e-002
1.936262e+003;4.759693e-002
1.938191e+003;4.776167e-002
1.940119e+003;4.784912e-002
1.942048e+003;4.778165e-002
1.943976e+003;4.782644e-002
1.945905e+003;4.761827e-002
1.947833e+003;4.752070e-002
1.949762e+003;4.758507e-002
1.951691e+003;4.773711e-002
1.953619e+003;4.808131e-002
1.955548e+003;4.841545e-002
1.957476e+003;4.837155e-002
1.959405e+003;4.820447e-002
1.961333e+003;4.824187e-002
1.963262e+003;4.823302e-002
1.965190e+003;4.812828e-002
1.967119e+003;4.820310e-002
1.969047e+003;4.842737e-002
1.970976e+003;4.847524e-002
1.972905e+003;4.836070e-002
1.974833e+003;4.828589e-002
1.976762e+003;4.843771e-002
1.978690e+003;4.873735e-002
1.980619e+003;4.873542e-002
1.982547e+003;4.860566e-002
1.984476e+003;4.889036e-002
1.986404e+003;4.920782e-002
1.988333e+003;4.947843e-002
1.990261e+003;4.963902e-002
1.992190e+003;4.944438e-002
1.994119e+003;4.913487e-002
1.996047e+003;4.897591e-002
1.997976e+003;4.910942e-002
1.999904e+003;4.919962e-002
2.001833e+003;4.929842e-002
2.003761e+003;4.949050e-002
2.005690e+003;4.959230e-002
2.007618e+003;4.962175e-002
2.009547e+003;4.953135e-002
2.011476e+003;4.967955e-002
2.013404e+003;4.999384e-002
2.015333e+003;4.992789e-002
2.017261e+003;4.979243e-002
2.019190e+003;4.991448e-002
2.021118e+003;5.005292e-002
2.023047e+003;5.028142e-002
2.024975e+003;5.047476e-002
2.026904e+003;5.044778e-002
2.028833e+003;5.042965e-002
2.030761e+003;5.069879e-002
2.032690e+003;5.084121e-002
2.034618e+003;5.076501e-002
2.036547e+003;5.068435e-002
2.038475e+003;5.059879e-002
2.040404e+003;5.061342e-002
2.042332e+003;5.083924e-002
2.044261e+003;5.084654e-002
2.046189e+003;5.095368e-002
2.048118e+003;5.117301e-002
2.050047e+003;5.088714e-002
2.051975e+003;5.045678e-002
2.053904e+003;5.056912e-002
2.055832e+003;5.070568e-002
2.057761e+003;5.043970e-002
2.059689e+003;5.034738e-002
2.061618e+003;5.041060e-002
2.063546e+003;5.050867e-002
2.065475e+003;5.039311e-002
2.067404e+003;5.020795e-002
2.069332e+003;5.048272e-002
2.071260e+003;5.058546e-002
2.073189e+003;5.045493e-002
2.075118e+003;5.052985e-002
2.077046e+003;5.029433e-002
2.078975e+003;5.011204e-002
2.080903e+003;5.010669e-002
2.082832e+003;4.999343e-002
2.084760e+003;5.002466e-002
2.086689e+003;5.024667e-002
2.088617e+003;5.050305e-002
2.090546e+003;5.038042e-002
2.092475e+003;5.031758e-002
2.094403e+003;5.039516e-002
2.096332e+003;5.009962e-002
2.098260e+003;4.979848e-002
2.100189e+003;4.980450e-002
2.102117e+003;5.003786e-002
2.104046e+003;5.022068e-002
2.105974e+003;5.021844e-002
2.107903e+003;5.027495e-002
2.109832e+003;5.040826e-002
2.111760e+003;5.054347e-002
2.113688e+003;5.065292e-002
2.115617e+003;5.077141e-002
2.117546e+003;5.101788e-002
2.119474e+003;5.115343e-002
2.121403e+003;5.104714e-002
2.123331e+003;5.090662e-002
2.125260e+003;5.103242e-002
2.127188e+003;5.127504e-002
2.129117e+003;5.133676e-002
2.131045e+003;5.124592e-002
2.132974e+003;5.122725e-002
2.134903e+003;5.132315e-002
2.136831e+003;5.118441e-002
2.138760e+003;5.089388e-002
2.140688e+003;5.070587e-002
2.142617e+003;5.042125e-002
2.144545e+003;5.025103e-002
2.146474e+003;5.038459e-002
2.148402e+003;5.059626e-002
2.150331e+003;5.067027e-002
2.152260e+003;5.049694e-002
2.154188e+003;5.053573e-002
2.156117e+003;5.034002e-002
2.158045e+003;5.001715e-002
2.159974e+003;5.000447e-002
2.161902e+003;5.003094e-002
2.163831e+003;4.983880e-002
2.165759e+003;4.972536e-002
2.167688e+003;4.982197e-002
2.169616e+003;4.978191e-002
2.171545e+003;4.938910e-002
2.173474e+003;4.908212e-002
2.175402e+003;4.902647e-002
2.177331e+003;4.900210e-002
2.179259e+003;4.891695e-002
2.181188e+003;4.873423e-002
2.183116e+003;4.870491e-002
2.185045e+003;4.868709e-002
2.186973e+003;4.855893e-002
2.188902e+003;4.833726e-002
2.190831e+003;4.805940e-002
2.192759e+003;4.786040e-002
2.194688e+003;4.800829e-002
2.196616e+003;4.810878e-002
2.198545e+003;4.799952e-002
2.200473e+003;4.788430e-002
2.202402e+003;4.787113e-002
2.204330e+003;4.783180e-002
2.206259e+003;4.756019e-002
2.208188e+003;4.747029e-002
2.210116e+003;4.758703e-002
2.212044e+003;4.766423e-002
2.213973e+003;4.767990e-002
2.215902e+003;4.752588e-002
2.217830e+003;4.744704e-002
2.219759e+003;4.766988e-002
2.221687e+003;4.776467e-002
2.223616e+003;4.760762e-002
2.225544e+003;4.752780e-002
2.227473e+003;4.738565e-002
2.229401e+003;4.706058e-002
2.231330e+003;4.689289e-002
2.233259e+003;4.709378e-002
2.235187e+003;4.726738e-002
2.237116e+003;4.744438e-002
2.239044e+003;4.749087e-002
2.240973e+003;4.740790e-002
2.242901e+003;4.741525e-002
2.244830e+003;4.704308e-002
2.246758e+003;4.693796e-002
2.248687e+003;4.693232e-002
2.250615e+003;4.681978e-002
2.252544e+003;4.669037e-002
2.254473e+003;4.667484e-002
2.256401e+003;4.688496e-002
2.258330e+003;4.686875e-002
2.260258e+003;4.662448e-002
2.262187e+003;4.649955e-002
2.264115e+003;4.636382e-002
2.266044e+003;4.624800e-002
2.267972e+003;4.610082e-002
2.269901e+003;4.602040e-002
2.271830e+003;4.587683e-002
2.273758e+003;4.582126e-002
2.275687e+003;4.582222e-002
2.277615e+003;4.560771e-002
2.279544e+003;4.538265e-002
2.281472e+003;4.534730e-002
2.283401e+003;4.519461e-002
2.285329e+003;4.512366e-002
2.287258e+003;4.555513e-002
2.289187e+003;4.594934e-002
2.291115e+003;4.579597e-002
2.293043e+003;4.558453e-002
2.294972e+003;4.531081e-002
2.296901e+003;4.522116e-002
2.298829e+003;4.542227e-002
2.300758e+003;4.551793e-002
2.302686e+003;4.529463e-002
2.304615e+003;4.518208e-002
2.306543e+003;4.524984e-002
2.308472e+003;4.524447e-002
2.310400e+003;4.535065e-002
2.312329e+003;4.528684e-002
2.314258e+003;4.507602e-002
2.316186e+003;4.514965e-002
2.318115e+003;4.513395e-002
2.320043e+003;4.517928e-002
2.321972e+003;4.531803e-002
2.323900e+003;4.527323e-002
2.325829e+003;4.509564e-002
2.327757e+003;4.524374e-002
2.329686e+003;4.573187e-002
2.331615e+003;4.608428e-002
2.333543e+003;4.617212e-002
2.335472e+003;4.609751e-002
2.337400e+003;4.604419e-002
2.339329e+003;4.604055e-002
2.341257e+003;4.604184e-002
2.343186e+003;4.611670e-002
2.345114e+003;4.624859e-002
2.347043e+003;4.628048e-002
2.348971e+003;4.636312e-002
2.350900e+003;4.638130e-002
2.352829e+003;4.654591e-002
2.354757e+003;4.665001e-002
2.356686e+003;4.663219e-002
2.358614e+003;4.683686e-002
2.360543e+003;4.695502e-002
2.362471e+003;4.686573e-002
2.364400e+003;4.696591e-002
2.366328e+003;4.718101e-002
2.368257e+003;4.712155e-002
2.370186e+003;4.689898e-002
2.372114e+003;4.710748e-002
2.374042e+003;4.713385e-002
2.375971e+003;4.702222e-002
2.377900e+003;4.694672e-002
2.379828e+003;4.697706e-002
2.381757e+003;4.699630e-002
2.383685e+003;4.669900e-002
2.385614e+003;4.688629e-002
2.387542e+003;4.752469e-002
2.389471e+003;4.775239e-002
2.391399e+003;4.786817e-002
2.393328e+003;4.790587e-002
2.395257e+003;4.801495e-002
2.397185e+003;4.804078e-002
2.399114e+003;4.810408e-002
2.401042e+003;4.837622e-002
2.402971e+003;4.857531e-002
2.404899e+003;4.850628e-002
2.406828e+003;4.856393e-002
2.408756e+003;4.849987e-002
2.410685e+003;4.830971e-002
2.412614e+003;4.820040e-002
2.414542e+003;4.863931e-002
2.416471e+003;4.900051e-002
2.418399e+003;4.907455e-002
2.420328e+003;4.933193e-002
2.422256e+003;4.941145e-002
2.424185e+003;4.935632e-002
2.426113e+003;4.952968e-002
2.428042e+003;4.981517e-002
2.429970e+003;4.992964e-002
2.431899e+003;4.986854e-002
2.433828e+003;4.997979e-002
2.435756e+003;5.021432e-002
2.437685e+003;5.023529e-002
2.439613e+003;5.021539e-002
2.441542e+003;5.038846e-002
2.443470e+003;5.072955e-002
2.445399e+003;5.084319e-002
2.447327e+003;5.075179e-002
2.449256e+003;5.089597e-002
2.451185e+003;5.112294e-002
2.453113e+003;5.118579e-002
2.455042e+003;5.123720e-002
2.456970e+003;5.137327e-002
2.458899e+003;5.140747e-002
2.460827e+003;5.129290e-002
2.462756e+003;5.109227e-002
2.464684e+003;5.105377e-002
2.466613e+003;5.126662e-002
2.468542e+003;5.166452e-002
2.470470e+003;5.202130e-002
2.472398e+003;5.200782e-002
2.474327e+003;5.226568e-002
2.476256e+003;5.253091e-002
2.478184e+003;5.220480e-002
2.480113e+003;5.195359e-002
2.482041e+003;5.249692e-002
2.483970e+003;5.282485e-002
2.485898e+003;5.266308e-002
2.487827e+003;5.279361e-002
2.489755e+003;5.293432e-002
2.491684e+003;5.306542e-002
2.493613e+003;5.343500e-002
2.495541e+003;5.337482e-002
2.497470e+003;5.322906e-002
2.499398e+003;5.357130e-002
2.501327e+003;5.392717e-002
2.503255e+003;5.409182e-002
2.505184e+003;5.403504e-002
2.507112e+003;5.379083e-002
2.509041e+003;5.378516e-002
2.510969e+003;5.398645e-002
2.512898e+003;5.436312e-002
2.514827e+003;5.465268e-002
2.516755e+003;5.450036e-002
2.518684e+003;5.452046e-002
2.520612e+003;5.450397e-002
2.522541e+003;5.472968e-002
2.524469e+003;5.497179e-002
2.526398e+003;5.485512e-002
2.528326e+003;5.480245e-002
2.530255e+003;5.489936e-002
2.532184e+003;5.502880e-002
2.534112e+003;5.507450e-002
2.536041e+003;5.510075e-002
2.537969e+003;5.520327e-002
2.539898e+003;5.524993e-002
2.541826e+003;5.506739e-002
2.543755e+003;5.505437e-002
2.545683e+003;5.539693e-002
2.547612e+003;5.561569e-002
2.549541e+003;5.539325e-002
2.551469e+003;5.533283e-002
2.553397e+003;5.533159e-002
2.555326e+003;5.538236e-002
2.557255e+003;5.558386e-002
2.559183e+003;5.569301e-002
2.561112e+003;5.575535e-002
2.563040e+003;5.606314e-002
2.564969e+003;5.629475e-002
2.566897e+003;5.610963e-002
2.568826e+003;5.564062e-002
2.570754e+003;5.534142e-002
2.572683e+003;5.568714e-002
2.574612e+003;5.610868e-002
2.576540e+003;5.618689e-002
2.578469e+003;5.592733e-002
2.580397e+003;5.585475e-002
2.582326e+003;5.602152e-002
2.584254e+003;5.605300e-002
2.586183e+003;5.612260e-002
2.588111e+003;5.615016e-002
2.590040e+003;5.604772e-002
2.591969e+003;5.630253e-002
2.593897e+003;5.657812e-002
2.595826e+003;5.614699e-002
2.597754e+003;5.610536e-002
2.599683e+003;5.639480e-002
2.601611e+003;5.679894e-002
2.603540e+003;5.718132e-002
2.605468e+003;5.741251e-002
2.607397e+003;5.746840e-002
2.609325e+003;5.761559e-002
2.611254e+003;5.773350e-002
2.613183e+003;5.742276e-002
2.615111e+003;5.733646e-002
2.617040e+003;5.764196e-002
2.618968e+003;5.814072e-002
2.620897e+003;5.840725e-002
2.622825e+003;5.810723e-002
2.624754e+003;5.790263e-002
2.626682e+003;5.811822e-002
2.628611e+003;5.827646e-002
2.630540e+003;5.856488e-002
2.632468e+003;5.887781e-002
2.634396e+003;5.901679e-002
2.636325e+003;5.905835e-002
2.638254e+003;5.911499e-002
2.640182e+003;5.916940e-002
2.642111e+003;5.935048e-002
2.644039e+003;5.950819e-002
2.645968e+003;5.965934e-002
2.647896e+003;5.956147e-002
2.649825e+003;5.944439e-002
2.651753e+003;5.945583e-002
2.653682e+003;5.949105e-002
2.655611e+003;5.967367e-002
2.657539e+003;5.986078e-002
2.659468e+003;6.000232e-002
2.661396e+003;5.996884e-002
2.663325e+003;5.987740e-002
2.665253e+003;6.015893e-002
2.667182e+003;6.061940e-002
2.669110e+003;6.061231e-002
2.671039e+003;6.067301e-002
2.672968e+003;6.098967e-002
2.674896e+003;6.115149e-002
2.676825e+003;6.134252e-002
2.678753e+003;6.125804e-002
2.680682e+003;6.122423e-002
2.682610e+003;6.150744e-002
2.684539e+003;6.154940e-002
2.686467e+003;6.133206e-002
2.688396e+003;6.131985e-002
2.690324e+003;6.163294e-002
2.692253e+003;6.206596e-002
2.694182e+003;6.259366e-002
2.696110e+003;6.275848e-002
2.698039e+003;6.244286e-002
2.699967e+003;6.214245e-002
2.701896e+003;6.229487e-002
2.703824e+003;6.246826e-002
2.705753e+003;6.259798e-002
2.707681e+003;6.272974e-002
2.709610e+003;6.272028e-002
2.711539e+003;6.300799e-002
2.713467e+003;6.318960e-002
2.715396e+003;6.310967e-002
2.717324e+003;6.354347e-002
2.719253e+003;6.406000e-002
2.721181e+003;6.395890e-002
2.723110e+003;6.354918e-002
2.725038e+003;6.343234e-002
2.726967e+003;6.361862e-002
2.728896e+003;6.366146e-002
2.730824e+003;6.380835e-002
2.732752e+003;6.396500e-002
2.734681e+003;6.389137e-002
2.736610e+003;6.382509e-002
2.738538e+003;6.380816e-002
2.740467e+003;6.382321e-002
2.742395e+003;6.417821e-002
2.744324e+003;6.417659e-002
2.746252e+003;6.410658e-002
2.748181e+003;6.440412e-002
2.750109e+003;6.455791e-002
2.752038e+003;6.470540e-002
2.753967e+003;6.483210e-002
2.755895e+003;6.483118e-002
2.757824e+003;6.493621e-002
2.759752e+003;6.496915e-002
2.761681e+003;6.502330e-002
2.763609e+003;6.507090e-002
2.765538e+003;6.502029e-002
2.767466e+003;6.541460e-002
2.769395e+003;6.552833e-002
2.771323e+003;6.539495e-002
2.773252e+003;6.558293e-002
2.775181e+003;6.581262e-002
2.777109e+003;6.596899e-002
2.779038e+003;6.602650e-002
2.780966e+003;6.611782e-002
2.782895e+003;6.633706e-002
2.784823e+003;6.654278e-002
2.786752e+003;6.681533e-002
2.788680e+003;6.706760e-002
2.790609e+003;6.740785e-002
2.792538e+003;6.783106e-002
2.794466e+003;6.815787e-002
2.796395e+003;6.830687e-002
2.798323e+003;6.844226e-002
2.800252e+003;6.882215e-002
2.802180e+003;6.902768e-002
2.804109e+003;6.913991e-002
2.806037e+003;6.939922e-002
2.807966e+003;6.971628e-002
2.809895e+003;6.987889e-002
2.811823e+003;7.020226e-002
2.813751e+003;7.092651e-002
2.815680e+003;7.150298e-002
2.817609e+003;7.163258e-002
2.819537e+003;7.197595e-002
2.821466e+003;7.251009e-002
2.823394e+003;7.283139e-002
2.825323e+003;7.348005e-002
2.827251e+003;7.414242e-002
2.829180e+003;7.481379e-002
2.831108e+003;7.577444e-002
2.833037e+003;7.629573e-002
2.834966e+003;7.702547e-002
2.836894e+003;7.814233e-002
2.838823e+003;7.899229e-002
2.840751e+003;7.976718e-002
2.842680e+003;8.077019e-002
2.844608e+003;8.231421e-002
2.846537e+003;8.482881e-002
2.848465e+003;8.722813e-002
2.850394e+003;8.923404e-002
2.852323e+003;9.060601e-002
2.854251e+003;9.143224e-002
2.856180e+003;9.197722e-002
2.858108e+003;9.244971e-002
2.860037e+003;9.272426e-002
2.861965e+003;9.304327e-002
2.863894e+003;9.380871e-002
2.865822e+003;9.463949e-002
2.867751e+003;9.516071e-002
2.869679e+003;9.543553e-002
2.871608e+003;9.566889e-002
2.873536e+003;9.640004e-002
2.875465e+003;9.703080e-002
2.877394e+003;9.719771e-002
2.879322e+003;9.736054e-002
2.881251e+003;9.774127e-002
2.883179e+003;9.803351e-002
2.885108e+003;9.843698e-002
2.887036e+003;9.911121e-002
2.888965e+003;9.930653e-002
2.890893e+003;9.933339e-002
2.892822e+003;9.983339e-002
2.894750e+003;1.001618e-001
2.896679e+003;1.003494e-001
2.898608e+003;1.007786e-001
2.900536e+003;1.009606e-001
2.902465e+003;1.008726e-001
2.904393e+003;1.005864e-001
2.906322e+003;1.005753e-001
2.908250e+003;1.007527e-001
2.910179e+003;1.005456e-001
2.912107e+003;9.993085e-002
2.914036e+003;9.963246e-002
2.915965e+003;9.984669e-002
2.917893e+003;9.986416e-002
2.919822e+003;1.001855e-001
2.921750e+003;1.006643e-001
2.923679e+003;1.000359e-001
2.925607e+003;9.873959e-002
2.927536e+003;9.752508e-002
2.929464e+003;9.653807e-002
2.931393e+003;9.572110e-002
2.933322e+003;9.430370e-002
2.935250e+003;9.266121e-002
2.937178e+003;9.097196e-002
2.939107e+003;8.944483e-002
2.941036e+003;8.782387e-002
2.942964e+003;8.677856e-002
2.944893e+003;8.618065e-002
2.946821e+003;8.535020e-002
2.948750e+003;8.421282e-002
2.950678e+003;8.299168e-002
2.952607e+003;8.172569e-002
2.954535e+003;8.070791e-002
2.956464e+003;7.934536e-002
2.958393e+003;7.822536e-002
2.960321e+003;7.726688e-002
2.962250e+003;7.585216e-002
2.964178e+003;7.492871e-002
2.966107e+003;7.402693e-002
2.968035e+003;7.315141e-002
2.969964e+003;7.249909e-002
2.971892e+003;7.207064e-002
2.973821e+003;7.124212e-002
2.975750e+003;7.060099e-002
2.977678e+003;6.990559e-002
2.979607e+003;6.864006e-002
2.981535e+003;6.746211e-002
2.983464e+003;6.683833e-002
2.985392e+003;6.689302e-002
2.987321e+003;6.665785e-002
2.989249e+003;6.609663e-002
2.991178e+003;6.594057e-002
2.993106e+003;6.611160e-002
2.995035e+003;6.588044e-002
2.996964e+003;6.533999e-002
2.998892e+003;6.518570e-002
3.000821e+003;6.505301e-002
3.002749e+003;6.481895e-002
3.004678e+003;6.434532e-002
3.006606e+003;6.391103e-002
3.008535e+003;6.419687e-002
3.010463e+003;6.459209e-002
3.012392e+003;6.443033e-002
3.014321e+003;6.428804e-002
3.016249e+003;6.462485e-002
3.018177e+003;6.475152e-002
3.020106e+003;6.484091e-002
3.022035e+003;6.510547e-002
3.023963e+003;6.535174e-002
3.025892e+003;6.552043e-002
3.027820e+003;6.589070e-002
3.029749e+003;6.614698e-002
3.031677e+003;6.618932e-002
3.033606e+003;6.636652e-002
3.035534e+003;6.622328e-002
3.037463e+003;6.631378e-002
3.039392e+003;6.680838e-002
3.041320e+003;6.710097e-002
3.043249e+003;6.730679e-002
3.045177e+003;6.744555e-002
3.047106e+003;6.755957e-002
3.049034e+003;6.798296e-002
3.050963e+003;6.818555e-002
3.052891e+003;6.853025e-002
3.054820e+003;6.884649e-002
3.056749e+003;6.894585e-002
3.058677e+003;6.948832e-002
3.060606e+003;7.025905e-002
3.062534e+003;7.036170e-002
3.064463e+003;7.029544e-002
3.066391e+003;7.060894e-002
3.068320e+003;7.090181e-002
3.070248e+003;7.115374e-002
3.072177e+003;7.161199e-002
3.074105e+003;7.206407e-002
3.076034e+003;7.227056e-002
3.077963e+003;7.248911e-002
3.079891e+003;7.295739e-002
3.081820e+003;7.307946e-002
3.083748e+003;7.335536e-002
3.085677e+003;7.358606e-002
3.087605e+003;7.373843e-002
3.089534e+003;7.421875e-002
3.091462e+003;7.477131e-002
3.093391e+003;7.510068e-002
3.095320e+003;7.544539e-002
3.097248e+003;7.596815e-002
3.099177e+003;7.612048e-002
3.101105e+003;7.609402e-002
3.103034e+003;7.663491e-002
3.104962e+003;7.726438e-002
3.106891e+003;7.744160e-002
3.108819e+003;7.761268e-002
3.110748e+003;7.810397e-002
3.112677e+003;7.854596e-002
3.114605e+003;7.913237e-002
3.116533e+003;7.945372e-002
3.118462e+003;7.938123e-002
3.120391e+003;7.979976e-002
3.122319e+003;8.038706e-002
3.124248e+003;8.114228e-002
3.126176e+003;8.178281e-002
3.128105e+003;8.204721e-002
3.130033e+003;8.247191e-002
3.131962e+003;8.281896e-002
3.133890e+003;8.299934e-002
3.135819e+003;8.332345e-002
3.137748e+003;8.419440e-002
3.139676e+003;8.491848e-002
3.141605e+003;8.511692e-002
3.143533e+003;8.503558e-002
3.145462e+003;8.519649e-002
3.147390e+003;8.587290e-002
3.149319e+003;8.706278e-002
3.151247e+003;8.752590e-002
3.153176e+003;8.751094e-002
3.155104e+003;8.800286e-002
3.157033e+003;8.877531e-002
3.158962e+003;8.958812e-002
3.160890e+003;9.010649e-002
3.162819e+003;9.002034e-002
3.164747e+003;9.040873e-002
3.166676e+003;9.132268e-002
3.168604e+003;9.161996e-002
3.170533e+003;9.167463e-002
3.172461e+003;9.264788e-002
3.174390e+003;9.384539e-002
3.176319e+003;9.440079e-002
3.178247e+003;9.443567e-002
3.180176e+003;9.485531e-002
3.182104e+003;9.552176e-002
3.184033e+003;9.580842e-002
3.185961e+003;9.628931e-002
3.187890e+003;9.688781e-002
3.189818e+003;9.716058e-002
3.191747e+003;9.808463e-002
3.193676e+003;9.889084e-002
3.195604e+003;9.879009e-002
3.197532e+003;9.886717e-002
3.199461e+003;1.000665e-001
3.201390e+003;1.011815e-001
3.203318e+003;1.017931e-001
3.205247e+003;1.027147e-001
3.207175e+003;1.032787e-001
3.209104e+003;1.034126e-001
3.211032e+003;1.038878e-001
3.212961e+003;1.049574e-001
3.214889e+003;1.061358e-001
3.216818e+003;1.062802e-001
3.218747e+003;1.068271e-001
3.220675e+003;1.076883e-001
3.222604e+003;1.083153e-001
3.224532e+003;1.087110e-001
3.226461e+003;1.092987e-001
3.228389e+003;1.100664e-001
3.230318e+003;1.108177e-001
3.232246e+003;1.116810e-001
3.234175e+003;1.123529e-001
3.236104e+003;1.126221e-001
3.238032e+003;1.132655e-001
3.239961e+003;1.136848e-001
3.241889e+003;1.143986e-001
3.243818e+003;1.154440e-001
3.245746e+003;1.161388e-001
3.247675e+003;1.164080e-001
3.249603e+003;1.171276e-001
3.251532e+003;1.185519e-001
3.253460e+003;1.192318e-001
3.255389e+003;1.192437e-001
3.257318e+003;1.199130e-001
3.259246e+003;1.206040e-001
3.261175e+003;1.211736e-001
3.263103e+003;1.220104e-001
3.265032e+003;1.221986e-001
3.266960e+003;1.226917e-001
3.268889e+003;1.237939e-001
3.270817e+003;1.247059e-001
3.272746e+003;1.251147e-001
3.274675e+003;1.250090e-001
3.276603e+003;1.253659e-001
3.278531e+003;1.260841e-001
3.280460e+003;1.267607e-001
3.282389e+003;1.268747e-001
3.284317e+003;1.270456e-001
3.286246e+003;1.274680e-001
3.288174e+003;1.275337e-001
3.290103e+003;1.279532e-001
3.292031e+003;1.287681e-001
3.293960e+003;1.288594e-001
3.295888e+003;1.286382e-001
3.297817e+003;1.288047e-001
3.299746e+003;1.287573e-001
3.301674e+003;1.287872e-001
3.303603e+003;1.289753e-001
3.305531e+003;1.289515e-001
3.307460e+003;1.290997e-001
3.309388e+003;1.293741e-001
3.311317e+003;1.293532e-001
3.313245e+003;1.300555e-001
3.315174e+003;1.309986e-001
3.317103e+003;1.314818e-001
3.319031e+003;1.318510e-001
3.320960e+003;1.319849e-001
3.322888e+003;1.316072e-001
3.324817e+003;1.316645e-001
3.326745e+003;1.315231e-001
3.328674e+003;1.309841e-001
3.330602e+003;1.307939e-001
3.332531e+003;1.315481e-001
3.334459e+003;1.320424e-001
3.336388e+003;1.316209e-001
3.338317e+003;1.310374e-001
3.340245e+003;1.310338e-001
3.342174e+003;1.310343e-001
3.344102e+003;1.306461e-001
3.346031e+003;1.305253e-001
3.347959e+003;1.303338e-001
3.349888e+003;1.296747e-001
3.351816e+003;1.291325e-001
3.353745e+003;1.282268e-001
3.355674e+003;1.277271e-001
3.357602e+003;1.278609e-001
3.359531e+003;1.276085e-001
3.361459e+003;1.271538e-001
3.363388e+003;1.268565e-001
3.365316e+003;1.265545e-001
3.367245e+003;1.263469e-001
3.369173e+003;1.257736e-001
3.371102e+003;1.250333e-001
3.373031e+003;1.245921e-001
3.374959e+003;1.244918e-001
3.376887e+003;1.236793e-001
3.378816e+003;1.225999e-001
3.380745e+003;1.223065e-001
3.382673e+003;1.228258e-001
3.384602e+003;1.232312e-001
3.386530e+003;1.229025e-001
3.388459e+003;1.216100e-001
3.390387e+003;1.208159e-001
3.392316e+003;1.204685e-001
3.394244e+003;1.197613e-001
3.396173e+003;1.199883e-001
3.398102e+003;1.206083e-001
3.400030e+003;1.195739e-001
3.401959e+003;1.177826e-001
3.403887e+003;1.168953e-001
3.405816e+003;1.168521e-001
3.407744e+003;1.170854e-001
3.409673e+003;1.162644e-001
3.411601e+003;1.149963e-001
3.413530e+003;1.150412e-001
3.415458e+003;1.156055e-001
3.417387e+003;1.146449e-001
3.419316e+003;1.128381e-001
3.421244e+003;1.118959e-001
3.423173e+003;1.114618e-001
3.425101e+003;1.108969e-001
3.427030e+003;1.102139e-001
3.428958e+003;1.093886e-001
3.430887e+003;1.089788e-001
3.432815e+003;1.088461e-001
3.434744e+003;1.083766e-001
3.436673e+003;1.081215e-001
3.438601e+003;1.071340e-001
3.440530e+003;1.058798e-001
3.442458e+003;1.052168e-001
3.444387e+003;1.043757e-001
3.446315e+003;1.032865e-001
3.448244e+003;1.022096e-001
3.450172e+003;1.017516e-001
3.452101e+003;1.016110e-001
3.454030e+003;1.008276e-001
3.455958e+003;9.992847e-002
3.457886e+003;9.953381e-002
3.459815e+003;9.900028e-002
3.461744e+003;9.800232e-002
3.463672e+003;9.713567e-002
3.465601e+003;9.592800e-002
3.467529e+003;9.502164e-002
3.469458e+003;9.475841e-002
3.471386e+003;9.413934e-002
3.473315e+003;9.341682e-002
3.475243e+003;9.237859e-002
3.477172e+003;9.142381e-002
3.479101e+003;9.074209e-002
3.481029e+003;8.948302e-002
3.482958e+003;8.896933e-002
3.484886e+003;8.820795e-002
3.486815e+003;8.656549e-002
3.488743e+003;8.545604e-002
3.490672e+003;8.500048e-002
3.492600e+003;8.483295e-002
3.494529e+003;8.459777e-002
3.496458e+003;8.386277e-002
3.498386e+003;8.271372e-002
3.500315e+003;8.178165e-002
3.502243e+003;8.054682e-002
3.504172e+003;7.963498e-002
3.506100e+003;7.912851e-002
3.508029e+003;7.831646e-002
3.509957e+003;7.796121e-002
3.511886e+003;7.786836e-002
3.513814e+003;7.691400e-002
3.515743e+003;7.575621e-002
3.517672e+003;7.480957e-002
3.519600e+003;7.419890e-002
3.521529e+003;7.357629e-002
3.523457e+003;7.251158e-002
3.525386e+003;7.127061e-002
3.527314e+003;7.024632e-002
3.529243e+003;6.932606e-002
3.531171e+003;6.888236e-002
3.533100e+003;6.825150e-002
3.535029e+003;6.760161e-002
3.536957e+003;6.697357e-002
3.538885e+003;6.631606e-002
3.540814e+003;6.581116e-002
3.542743e+003;6.515113e-002
3.544671e+003;6.396297e-002
3.546600e+003;6.303737e-002
3.548528e+003;6.280937e-002
3.550457e+003;6.174136e-002
3.552385e+003;6.047778e-002
3.554314e+003;6.000761e-002
3.556242e+003;6.004132e-002
3.558171e+003;5.969751e-002
3.560100e+003;5.862498e-002
3.562028e+003;5.789771e-002
3.563957e+003;5.753569e-002
3.565885e+003;5.724319e-002
3.567814e+003;5.620933e-002
3.569742e+003;5.503169e-002
3.571671e+003;5.434773e-002
3.573599e+003;5.424996e-002
3.575528e+003;5.406615e-002
3.577457e+003;5.345846e-002
3.579385e+003;5.272357e-002
3.581314e+003;5.180319e-002
3.583242e+003;5.067273e-002
3.585171e+003;4.995458e-002
3.587099e+003;4.970797e-002
3.589028e+003;4.965191e-002
3.590956e+003;4.910582e-002
3.592885e+003;4.792859e-002
3.594813e+003;4.726993e-002
3.596742e+003;4.679704e-002
3.598671e+003;4.605278e-002
3.600599e+003;4.542547e-002
3.602528e+003;4.520373e-002
3.604456e+003;4.522252e-002
3.606385e+003;4.480563e-002
3.608313e+003;4.405601e-002
3.610242e+003;4.333879e-002
3.612170e+003;4.248202e-002
3.614099e+003;4.247961e-002
3.616028e+003;4.258774e-002
3.617956e+003;4.216691e-002
3.619885e+003;4.117134e-002
3.621813e+003;4.043639e-002
3.623742e+003;4.022976e-002
3.625670e+003;4.006927e-002
3.627599e+003;3.968714e-002
3.629527e+003;3.908255e-002
3.631456e+003;3.848625e-002
3.633385e+003;3.788979e-002
3.635313e+003;3.748007e-002
3.637241e+003;3.681819e-002
3.639170e+003;3.623198e-002
3.641099e+003;3.570624e-002
3.643027e+003;3.492693e-002
3.644956e+003;3.420630e-002
3.646884e+003;3.403157e-002
3.648813e+003;3.411844e-002
3.650741e+003;3.355633e-002
3.652670e+003;3.308662e-002
3.654598e+003;3.284247e-002
3.656527e+003;3.252139e-002
3.658456e+003;3.247422e-002
3.660384e+003;3.193720e-002
3.662313e+003;3.088860e-002
3.664241e+003;3.019286e-002
3.666170e+003;2.987862e-002
3.668098e+003;2.965326e-002
3.670027e+003;2.928713e-002
3.671955e+003;2.906678e-002
3.673884e+003;2.919285e-002
3.675813e+003;2.896877e-002
3.677741e+003;2.843012e-002
3.679669e+003;2.763751e-002
3.681598e+003;2.727763e-002
3.683527e+003;2.739782e-002
3.685455e+003;2.681219e-002
3.687384e+003;2.633247e-002
3.689312e+003;2.626481e-002
3.691241e+003;2.622954e-002
3.693169e+003;2.606147e-002
3.695098e+003;2.560032e-002
3.697026e+003;2.519377e-002
3.698955e+003;2.507226e-002
3.700884e+003;2.506742e-002
3.702812e+003;2.552965e-002
3.704741e+003;2.560598e-002
3.706669e+003;2.492731e-002
3.708598e+003;2.499487e-002
3.710526e+003;2.498911e-002
3.712455e+003;2.473442e-002
3.714383e+003;2.476048e-002
3.716312e+003;2.442092e-002
3.718240e+003;2.396273e-002
3.720169e+003;2.369139e-002
3.722098e+003;2.373279e-002
3.724026e+003;2.368418e-002
3.725955e+003;2.348744e-002
3.727883e+003;2.374581e-002
3.729812e+003;2.376198e-002
3.731740e+003;2.350647e-002
3.733669e+003;2.360287e-002
3.735597e+003;2.343082e-002
3.737526e+003;2.333270e-002
3.739455e+003;2.365997e-002
3.741383e+003;2.346320e-002
3.743312e+003;2.271287e-002
3.745240e+003;2.246917e-002
3.747169e+003;2.332609e-002
3.749097e+003;2.395902e-002
3.751026e+003;2.357814e-002
3.752954e+003;2.330690e-002
3.754883e+003;2.359087e-002
3.756812e+003;2.315534e-002
3.758740e+003;2.260151e-002
3.760668e+003;2.312696e-002
3.762597e+003;2.412257e-002
3.764526e+003;2.435818e-002
3.766454e+003;2.368177e-002
3.768383e+003;2.313433e-002
3.770311e+003;2.259484e-002
3.772240e+003;2.244245e-002
3.774168e+003;2.333095e-002
3.776097e+003;2.400657e-002
3.778025e+003;2.365689e-002
3.779954e+003;2.255872e-002
3.781883e+003;2.246226e-002
3.783811e+003;2.343246e-002
3.785740e+003;2.373129e-002
3.787668e+003;2.338560e-002
3.789597e+003;2.310924e-002
3.791525e+003;2.313251e-002
3.793454e+003;2.306570e-002
3.795382e+003;2.325544e-002
3.797311e+003;2.327977e-002
3.799240e+003;2.330061e-002
3.801168e+003;2.327715e-002
3.803097e+003;2.312759e-002
3.805025e+003;2.273961e-002
3.806954e+003;2.260395e-002
3.808882e+003;2.304725e-002
3.810811e+003;2.304407e-002
3.812739e+003;2.303873e-002
3.814668e+003;2.328222e-002
3.816596e+003;2.330547e-002
3.818525e+003;2.363740e-002
3.820454e+003;2.398679e-002
3.822382e+003;2.387759e-002
3.824311e+003;2.366781e-002
3.826239e+003;2.359283e-002
3.828168e+003;2.365458e-002
3.830096e+003;2.397037e-002
3.832025e+003;2.417585e-002
3.833953e+003;2.430502e-002
3.835882e+003;2.386954e-002
3.837811e+003;2.309117e-002
3.839739e+003;2.283560e-002
3.841667e+003;2.333938e-002
3.843596e+003;2.379978e-002
3.845525e+003;2.371648e-002
3.847453e+003;2.352053e-002
3.849382e+003;2.378102e-002
3.851310e+003;2.404009e-002
3.853239e+003;2.423698e-002
3.855167e+003;2.397909e-002
3.857096e+003;2.372436e-002
3.859024e+003;2.388067e-002
3.860953e+003;2.430993e-002
3.862882e+003;2.449688e-002
3.864810e+003;2.440602e-002
3.866739e+003;2.462251e-002
3.868667e+003;2.452717e-002
3.870596e+003;2.452181e-002
3.872524e+003;2.469002e-002
3.874453e+003;2.452005e-002
3.876381e+003;2.390913e-002
3.878310e+003;2.399967e-002
3.880239e+003;2.451343e-002
3.882167e+003;2.467781e-002
3.884096e+003;2.505239e-002
3.886024e+003;2.527514e-002
3.887953e+003;2.472491e-002
3.889881e+003;2.433186e-002
3.891810e+003;2.439162e-002
3.893738e+003;2.461353e-002
3.895667e+003;2.542330e-002
3.897595e+003;2.615366e-002
3.899524e+003;2.636708e-002
3.901453e+003;2.628315e-002
3.903381e+003;2.642450e-002
3.905310e+003;2.590318e-002
3.907238e+003;2.590796e-002
3.909167e+003;2.667804e-002
3.911095e+003;2.657936e-002
3.913024e+003;2.621718e-002
3.914952e+003;2.613505e-002
3.916881e+003;2.592681e-002
3.918810e+003;2.569516e-002
3.920738e+003;2.593546e-002
3.922667e+003;2.651047e-002
3.924595e+003;2.638063e-002
3.926524e+003;2.670193e-002
3.928452e+003;2.732646e-002
3.930381e+003;2.684204e-002
3.932309e+003;2.575900e-002
3.934238e+003;2.586280e-002
3.936167e+003;2.686171e-002
3.938095e+003;2.759122e-002
3.940023e+003;2.772241e-002
3.941952e+003;2.684948e-002
3.943881e+003;2.713046e-002
3.945809e+003;2.716993e-002
3.947738e+003;2.662917e-002
3.949666e+003;2.626699e-002
3.951595e+003;2.615936e-002
3.953523e+003;2.638936e-002
3.955452e+003;2.655661e-002
3.957380e+003;2.674974e-002
3.959309e+003;2.702075e-002
3.961238e+003;2.790070e-002
3.963166e+003;2.811387e-002
3.965095e+003;2.749505e-002
3.967023e+003;2.683676e-002
3.968952e+003;2.692576e-002
3.970880e+003;2.741638e-002
3.972809e+003;2.798511e-002
3.974737e+003;2.799423e-002
3.976666e+003;2.768593e-002
3.978594e+003;2.802614e-002
3.980523e+003;2.895223e-002
3.982452e+003;2.874048e-002
3.984380e+003;2.790063e-002
3.986309e+003;2.762911e-002
3.988237e+003;2.715977e-002
3.990166e+003;2.758970e-002
3.992094e+003;2.848613e-002
3.994023e+003;2.807736e-002
3.995951e+003;2.725339e-002
3.997880e+003;2.734724e-002
3.999809e+003;2.724813e-002
4.001737e+003;0.000000e+000
