3.992094e+002;0.000000e+000
4.011380e+002;0.000000e+000
4.030665e+002;0.000000e+000
4.049951e+002;0.000000e+000
4.069236e+002;0.000000e+000
4.088522e+002;0.000000e+000
4.107807e+002;0.000000e+000
4.127093e+002;0.000000e+000
4.146378e+002;0.000000e+000
4.165664e+002;0.000000e+000
4.184949e+002;0.000000e+000
4.204235e+002;0.000000e+000
4.223520e+002;0.000000e+000
4.242806e+002;0.000000e+000
4.262091e+002;0.000000e+000
4.281377e+002;0.000000e+000
4.300662e+002;0.000000e+000
4.319948e+002;0.000000e+000
4.339233e+002;0.000000e+000
4.358519e+002;0.000000e+000
4.377804e+002;0.000000e+000
4.397090e+002;0.000000e+000
4.416375e+002;0.000000e+000
4.435660e+002;0.000000e+000
4.454946e+002;0.000000e+000
4.474232e+002;0.000000e+000
4.493517e+002;0.000000e+000
4.512802e+002;0.000000e+000
4.532088e+002;0.000000e+000
4.551373e+002;0.000000e+000
4.570659e+002;0.000000e+000
4.589944e+002;0.000000e+000
4.609230e+002;0.000000e+000
4.628515e+002;0.000000e+000
4.647801e+002;0.000000e+000
4.667086e+002;0.000000e+000
4.686372e+002;0.000000e+000
4.705657e+002;0.000000e+000
4.724943e+002;0.000000e+000
4.744228e+002;0.000000e+000
4.763513e+002;0.000000e+000
4.782799e+002;0.000000e+000
4.802085e+002;0.000000e+000
4.821370e+002;0.000000e+000
4.840656e+002;0.000000e+000
4.859941e+002;0.000000e+000
4.879226e+002;0.000000e+000
4.898512e+002;0.000000e+000
4.917798e+002;0.000000e+000
4.937083e+002;0.000000e+000
4.956368e+002;0.000000e+000
4.975654e+002;0.000000e+000
4.994939e+002;0.000000e+000
5.014225e+002;0.000000e+000
5.033510e+002;0.000000e+000
5.052796e+002;0.000000e+000
5.072081e+002;0.000000e+000
5.091367e+002;0.000000e+000
5.110652e+002;0.000000e+000
5.129938e+002;0.000000e+000
5.149223e+002;0.000000e+000
5.168509e+002;0.000000e+000
5.187794e+002;0.000000e+000
5.207079e+002;0.000000e+000
5.226365e+002;0.000000e+000
5.245651e+002;0.000000e+000
5.264936e+002;0.000000e+000
5.284222e+002;0.000000e+000
5.303507e+002;0.000000e+000
5.322792e+002;0.000000e+000
5.342078e+002;0.000000e+000
5.361364e+002;0.000000e+000
5.380649e+002;0.000000e+000
5.399935e+002;0.000000e+000
5.419220e+002;0.000000e+000
5.438505e+002;0.000000e+000
5.457791e+002;0.000000e+000
5.477076e+002;0.000000e+000
5.496362e+002;0.000000e+000
5.515648e+002;0.000000e+000
5.534933e+002;0.000000e+000
5.554218e+002;0.000000e+000
5.573504e+002;0.000000e+000
5.592789e+002;0.000000e+000
5.612075e+002;0.000000e+000
5.631360e+002;0.000000e+000
5.650646e+002;0.000000e+000
5.669931e+002;0.000000e+000
5.689217e+002;0.000000e+000
5.708502e+002;0.000000e+000
5.727787e+002;0.000000e+000
5.747073e+002;0.000000e+000
5.766359e+002;0.000000e+000
5.785644e+002;0.000000e+000
5.804930e+002;0.000000e+000
5.824215e+002;0.000000e+000
5.843500e+002;0.000000e+000
5.862786e+002;0.000000e+000
5.882072e+002;0.000000e+000
5.901357e+002;0.000000e+000
5.920643e+002;0.000000e+000
5.939928e+002;0.000000e+000
5.959213e+002;0.000000e+000
5.978499e+002;0.000000e+000
5.997784e+002;2.045620e-001
6.017070e+002;2.110987e-001
6.036355e+002;2.191918e-001
6.055641e+002;2.201841e-001
6.074926e+002;2.138080e-001
6.094211e+002;2.086445e-001
6.113497e+002;2.095958e-001
6.132783e+002;2.114993e-001
6.152068e+002;2.143848e-001
6.171354e+002;2.115995e-001
6.190639e+002;2.034923e-001
6.209924e+002;1.992826e-001
6.229210e+002;1.951893e-001
6.248495e+002;1.915184e-001
6.267781e+002;1.921766e-001
6.287067e+002;1.904130e-001
6.306352e+002;1.837740e-001
6.325637e+002;1.817710e-001
6.344923e+002;1.839190e-001
6.364208e+002;1.862363e-001
6.383494e+002;1.833006e-001
6.402780e+002;1.793387e-001
6.422065e+002;1.798019e-001
6.441350e+002;1.784567e-001
6.460636e+002;1.756538e-001
6.479921e+002;1.759982e-001
6.499207e+002;1.764822e-001
6.518492e+002;1.773822e-001
6.537778e+002;1.799131e-001
6.557063e+002;1.848573e-001
6.576349e+002;1.902524e-001
6.595634e+002;1.932856e-001
6.614919e+002;1.932141e-001
6.634205e+002;1.922413e-001
6.653491e+002;1.907823e-001
6.672776e+002;1.878061e-001
6.692062e+002;1.855717e-001
6.711347e+002;1.815616e-001
6.730632e+002;1.770392e-001
6.749918e+002;1.740651e-001
6.769203e+002;1.705724e-001
6.788489e+002;1.670977e-001
6.807775e+002;1.652857e-001
6.827060e+002;1.622057e-001
6.846345e+002;1.590064e-001
6.865631e+002;1.596199e-001
6.884916e+002;1.601461e-001
6.904202e+002;1.593936e-001
6.923488e+002;1.589110e-001
6.942773e+002;1.583848e-001
6.962058e+002;1.583932e-001
6.981344e+002;1.585438e-001
7.000629e+002;1.582771e-001
7.019915e+002;1.576028e-001
7.039200e+002;1.564289e-001
7.058486e+002;1.548975e-001
7.077771e+002;1.530863e-001
7.097057e+002;1.509186e-001
7.116342e+002;1.493045e-001
7.135627e+002;1.470617e-001
7.154913e+002;1.436219e-001
7.174199e+002;1.405207e-001
7.193484e+002;1.376918e-001
7.212770e+002;1.337560e-001
7.232055e+002;1.305894e-001
7.251340e+002;1.288996e-001
7.270626e+002;1.273649e-001
7.289911e+002;1.253294e-001
7.309197e+002;1.233850e-001
7.328483e+002;1.216056e-001
7.347768e+002;1.186458e-001
7.367053e+002;1.166787e-001
7.386339e+002;1.162397e-001
7.405624e+002;1.164118e-001
7.424910e+002;1.157950e-001
7.444196e+002;1.148088e-001
7.463481e+002;1.136687e-001
7.482766e+002;1.122338e-001
7.502052e+002;1.109892e-001
7.521337e+002;1.104834e-001
7.540623e+002;1.102277e-001
7.559908e+002;1.096799e-001
7.579194e+002;1.092555e-001
7.598479e+002;1.091253e-001
7.617765e+002;1.078487e-001
7.637050e+002;1.063991e-001
7.656335e+002;1.053490e-001
7.675621e+002;1.051028e-001
7.694907e+002;1.048547e-001
7.714192e+002;1.042866e-001
7.733478e+002;1.041513e-001
7.752763e+002;1.038743e-001
7.772048e+002;1.035178e-001
7.791334e+002;1.025421e-001
7.810620e+002;1.017342e-001
7.829905e+002;1.016249e-001
7.849191e+002;1.011802e-001
7.868476e+002;1.013565e-001
7.887761e+002;1.017399e-001
7.907047e+002;1.007943e-001
7.926332e+002;9.996392e-002
7.945618e+002;9.999583e-002
7.964903e+002;9.998236e-002
7.984189e+002;1.000101e-001
8.003474e+002;9.979469e-002
8.022759e+002;9.975484e-002
8.042045e+002;9.980708e-002
8.061331e+002;9.927072e-002
8.080616e+002;9.876658e-002
8.099902e+002;9.900041e-002
8.119187e+002;9.910908e-002
8.138472e+002;9.908049e-002
8.157758e+002;9.976384e-002
8.177043e+002;1.002676e-001
8.196329e+002;9.963879e-002
8.215615e+002;9.967384e-002
8.234900e+002;9.952219e-002
8.254185e+002;9.918544e-002
8.273471e+002;9.988926e-002
8.292756e+002;1.007313e-001
8.312042e+002;1.010473e-001
8.331328e+002;1.008530e-001
8.350613e+002;1.009165e-001
8.369898e+002;1.005651e-001
8.389184e+002;1.005026e-001
8.408469e+002;1.010911e-001
8.427755e+002;1.007320e-001
8.447040e+002;1.006318e-001
8.466326e+002;1.011573e-001
8.485611e+002;1.007139e-001
8.504897e+002;1.010003e-001
8.524182e+002;1.019053e-001
8.543467e+002;1.018548e-001
8.562753e+002;1.019218e-001
8.582039e+002;1.025617e-001
8.601324e+002;1.028066e-001
8.620610e+002;1.033172e-001
8.639895e+002;1.043482e-001
8.659180e+002;1.050589e-001
8.678466e+002;1.059113e-001
8.697751e+002;1.066832e-001
8.717037e+002;1.075037e-001
8.736323e+002;1.087489e-001
8.755608e+002;1.098279e-001
8.774893e+002;1.109741e-001
8.794179e+002;1.129931e-001
8.813464e+002;1.149647e-001
8.832750e+002;1.163613e-001
8.852036e+002;1.178604e-001
8.871321e+002;1.198610e-001
8.890606e+002;1.220199e-001
8.909892e+002;1.234570e-001
8.929177e+002;1.250273e-001
8.948463e+002;1.260591e-001
8.967748e+002;1.258216e-001
8.987034e+002;1.252386e-001
9.006319e+002;1.249528e-001
9.025605e+002;1.248219e-001
9.044890e+002;1.241467e-001
9.064175e+002;1.228930e-001
9.083461e+002;1.217342e-001
9.102747e+002;1.207359e-001
9.122032e+002;1.197182e-001
9.141318e+002;1.187381e-001
9.160603e+002;1.180970e-001
9.179888e+002;1.179646e-001
9.199174e+002;1.183661e-001
9.218459e+002;1.184192e-001
9.237745e+002;1.188410e-001
9.257031e+002;1.200495e-001
9.276316e+002;1.207479e-001
9.295601e+002;1.212717e-001
9.314887e+002;1.225936e-001
9.334172e+002;1.236779e-001
9.353458e+002;1.244557e-001
9.372744e+002;1.249338e-001
9.392029e+002;1.257961e-001
9.411314e+002;1.279244e-001
9.430600e+002;1.300027e-001
9.449885e+002;1.316171e-001
9.469171e+002;1.337277e-001
9.488456e+002;1.363677e-001
9.507742e+002;1.389380e-001
9.527027e+002;1.411954e-001
9.546313e+002;1.435756e-001
9.565598e+002;1.468490e-001
9.584883e+002;1.506475e-001
9.604169e+002;1.541569e-001
9.623455e+002;1.576191e-001
9.642740e+002;1.616570e-001
9.662026e+002;1.657528e-001
9.681311e+002;1.700906e-001
9.700596e+002;1.752482e-001
9.719882e+002;1.814604e-001
9.739167e+002;1.891320e-001
9.758453e+002;1.982927e-001
9.777739e+002;2.087230e-001
9.797024e+002;2.194746e-001
9.816309e+002;2.287705e-001
9.835595e+002;2.345306e-001
9.854880e+002;2.366197e-001
9.874166e+002;2.375143e-001
9.893452e+002;2.391164e-001
9.912737e+002;2.420663e-001
9.932022e+002;2.461602e-001
9.951307e+002;2.508152e-001
9.970593e+002;2.549374e-001
9.989879e+002;2.580513e-001
1.000916e+003;2.597186e-001
1.002845e+003;2.602901e-001
1.004773e+003;2.614421e-001
1.006702e+003;2.623858e-001
1.008631e+003;2.630084e-001
1.010559e+003;2.646367e-001
1.012488e+003;2.674179e-001
1.014416e+003;2.704276e-001
1.016345e+003;2.734485e-001
1.018273e+003;2.763767e-001
1.020202e+003;2.797118e-001
1.022130e+003;2.837384e-001
1.024059e+003;2.882725e-001
1.025988e+003;2.924671e-001
1.027916e+003;2.956356e-001
1.029845e+003;2.969925e-001
1.031773e+003;2.963337e-001
1.033702e+003;2.924570e-001
1.035630e+003;2.864982e-001
1.037559e+003;2.800207e-001
1.039487e+003;2.737561e-001
1.041416e+003;2.699545e-001
1.043344e+003;2.696353e-001
1.045273e+003;2.723838e-001
1.047202e+003;2.766359e-001
1.049130e+003;2.814920e-001
1.051059e+003;2.852389e-001
1.052987e+003;2.876967e-001
1.054916e+003;2.888896e-001
1.056844e+003;2.858638e-001
1.058773e+003;2.782888e-001
1.060701e+003;2.675907e-001
1.062630e+003;2.540409e-001
1.064558e+003;2.403297e-001
1.066487e+003;2.283661e-001
1.068416e+003;2.181604e-001
1.070344e+003;2.102233e-001
1.072273e+003;2.045050e-001
1.074201e+003;1.998332e-001
1.076130e+003;1.956302e-001
1.078058e+003;1.913181e-001
1.079987e+003;1.870735e-001
1.081915e+003;1.841610e-001
1.083844e+003;1.827480e-001
1.085773e+003;1.823389e-001
1.087701e+003;1.826924e-001
1.089630e+003;1.834354e-001
1.091558e+003;1.847534e-001
1.093487e+003;1.868415e-001
1.095415e+003;1.899569e-001
1.097344e+003;1.930949e-001
1.099272e+003;1.956512e-001
1.101201e+003;1.981740e-001
1.103129e+003;1.990149e-001
1.105058e+003;1.981982e-001
1.106987e+003;1.971951e-001
1.108915e+003;1.958562e-001
1.110844e+003;1.921506e-001
1.112772e+003;1.855000e-001
1.114701e+003;1.765821e-001
1.116629e+003;1.668243e-001
1.118558e+003;1.587334e-001
1.120486e+003;1.524683e-001
1.122415e+003;1.472790e-001
1.124344e+003;1.416280e-001
1.126272e+003;1.354458e-001
1.128201e+003;1.301231e-001
1.130129e+003;1.259485e-001
1.132058e+003;1.225489e-001
1.133986e+003;1.197455e-001
1.135915e+003;1.175743e-001
1.137843e+003;1.164709e-001
1.139772e+003;1.165542e-001
1.141700e+003;1.179947e-001
1.143629e+003;1.204883e-001
1.145557e+003;1.230504e-001
1.147486e+003;1.247617e-001
1.149415e+003;1.260593e-001
1.151343e+003;1.277238e-001
1.153272e+003;1.297962e-001
1.155200e+003;1.320101e-001
1.157129e+003;1.336027e-001
1.159057e+003;1.342724e-001
1.160986e+003;1.336336e-001
1.162914e+003;1.309751e-001
1.164843e+003;1.257654e-001
1.166771e+003;1.188390e-001
1.168700e+003;1.111885e-001
1.170629e+003;1.041278e-001
1.172557e+003;9.854943e-002
1.174486e+003;9.441833e-002
1.176414e+003;9.164627e-002
1.178343e+003;8.935792e-002
1.180271e+003;8.717414e-002
1.182200e+003;8.524322e-002
1.184128e+003;8.424524e-002
1.186057e+003;8.386297e-002
1.187986e+003;8.407443e-002
1.189914e+003;8.501543e-002
1.191843e+003;8.648810e-002
1.193771e+003;8.821432e-002
1.195700e+003;8.999614e-002
1.197628e+003;9.175198e-002
1.199557e+003;9.293265e-002
1.201485e+003;9.373658e-002
1.203414e+003;9.430601e-002
1.205343e+003;9.390832e-002
1.207271e+003;9.198836e-002
1.209200e+003;8.908916e-002
1.211128e+003;8.631070e-002
1.213057e+003;8.444671e-002
1.214985e+003;8.370332e-002
1.216914e+003;8.384898e-002
1.218842e+003;8.488218e-002
1.220771e+003;8.621698e-002
1.222699e+003;8.732648e-002
1.224628e+003;8.857074e-002
1.226557e+003;9.025424e-002
1.228485e+003;9.188681e-002
1.230414e+003;9.295096e-002
1.232342e+003;9.383346e-002
1.234271e+003;9.462741e-002
1.236199e+003;9.503190e-002
1.238128e+003;9.538575e-002
1.240056e+003;9.584697e-002
1.241985e+003;9.637941e-002
1.243913e+003;9.691722e-002
1.245842e+003;9.756722e-002
1.247771e+003;9.778044e-002
1.249699e+003;9.754201e-002
1.251628e+003;9.711446e-002
1.253556e+003;9.702455e-002
1.255485e+003;9.715212e-002
1.257413e+003;9.702152e-002
1.259342e+003;9.687721e-002
1.261270e+003;9.727746e-002
1.263199e+003;9.776949e-002
1.265127e+003;9.767804e-002
1.267056e+003;9.731680e-002
1.268985e+003;9.755117e-002
1.270913e+003;9.858489e-002
1.272842e+003;9.967743e-002
1.274770e+003;1.005557e-001
1.276699e+003;1.009956e-001
1.278627e+003;1.011216e-001
1.280556e+003;1.007560e-001
1.282484e+003;1.000008e-001
1.284413e+003;9.944773e-002
1.286342e+003;9.901085e-002
1.288270e+003;9.851056e-002
1.290199e+003;9.830101e-002
1.292127e+003;9.860419e-002
1.294056e+003;9.919976e-002
1.295984e+003;9.979978e-002
1.297913e+003;1.008727e-001
1.299841e+003;1.027594e-001
1.301770e+003;1.052723e-001
1.303698e+003;1.079417e-001
1.305627e+003;1.110084e-001
1.307556e+003;1.143167e-001
1.309484e+003;1.175034e-001
1.311413e+003;1.199945e-001
1.313341e+003;1.215143e-001
1.315270e+003;1.215398e-001
1.317198e+003;1.199685e-001
1.319127e+003;1.174573e-001
1.321055e+003;1.145718e-001
1.322984e+003;1.120263e-001
1.324912e+003;1.102518e-001
1.326841e+003;1.095649e-001
1.328770e+003;1.100968e-001
1.330698e+003;1.111413e-001
1.332627e+003;1.120836e-001
1.334555e+003;1.123880e-001
1.336484e+003;1.116804e-001
1.338412e+003;1.102768e-001
1.340341e+003;1.084455e-001
1.342269e+003;1.062733e-001
1.344198e+003;1.039771e-001
1.346126e+003;1.018825e-001
1.348055e+003;1.006411e-001
1.349984e+003;1.004369e-001
1.351912e+003;1.008306e-001
1.353841e+003;1.018083e-001
1.355769e+003;1.027699e-001
1.357698e+003;1.033832e-001
1.359626e+003;1.035655e-001
1.361555e+003;1.031836e-001
1.363483e+003;1.024853e-001
1.365412e+003;1.019732e-001
1.367341e+003;1.018957e-001
1.369269e+003;1.017764e-001
1.371198e+003;1.008585e-001
1.373126e+003;9.886143e-002
1.375055e+003;9.642330e-002
1.376983e+003;9.404733e-002
1.378912e+003;9.173381e-002
1.380840e+003;8.959468e-002
1.382769e+003;8.765400e-002
1.384698e+003;8.599757e-002
1.386626e+003;8.454338e-002
1.388555e+003;8.357071e-002
1.390483e+003;8.322680e-002
1.392412e+003;8.321207e-002
1.394340e+003;8.311400e-002
1.396269e+003;8.326035e-002
1.398197e+003;8.337720e-002
1.400126e+003;8.357340e-002
1.402054e+003;8.422513e-002
1.403983e+003;8.454061e-002
1.405911e+003;8.463059e-002
1.407840e+003;8.510289e-002
1.409769e+003;8.569761e-002
1.411697e+003;8.630379e-002
1.413626e+003;8.728727e-002
1.415554e+003;8.845744e-002
1.417483e+003;8.971088e-002
1.419411e+003;9.117097e-002
1.421340e+003;9.277365e-002
1.423268e+003;9.408111e-002
1.425197e+003;9.501454e-002
1.427125e+003;9.546500e-002
1.429054e+003;9.509121e-002
1.430983e+003;9.408806e-002
1.432911e+003;9.271236e-002
1.434840e+003;9.112078e-002
1.436768e+003;8.950838e-002
1.438697e+003;8.855416e-002
1.440625e+003;8.766215e-002
1.442554e+003;8.699059e-002
1.444482e+003;8.677536e-002
1.446411e+003;8.657630e-002
1.448340e+003;8.634963e-002
1.450268e+003;8.621189e-002
1.452197e+003;8.567998e-002
1.454125e+003;8.470166e-002
1.456054e+003;8.359654e-002
1.457982e+003;8.236711e-002
1.459911e+003;8.113685e-002
1.461839e+003;8.012905e-002
1.463768e+003;7.901610e-002
1.465697e+003;7.753595e-002
1.467625e+003;7.637608e-002
1.469554e+003;7.531872e-002
1.471482e+003;7.400481e-002
1.473411e+003;7.268628e-002
1.475339e+003;7.144431e-002
1.477268e+003;7.069117e-002
1.479196e+003;7.041555e-002
1.481125e+003;6.980137e-002
1.483053e+003;6.849398e-002
1.484982e+003;6.684922e-002
1.486911e+003;6.560539e-002
1.488839e+003;6.460577e-002
1.490768e+003;6.373970e-002
1.492696e+003;6.314519e-002
1.494625e+003;6.272423e-002
1.496553e+003;6.243295e-002
1.498482e+003;6.217021e-002
1.500410e+003;6.233445e-002
1.502339e+003;6.254460e-002
1.504267e+003;6.220837e-002
1.506196e+003;6.166780e-002
1.508125e+003;6.184080e-002
1.510053e+003;6.193086e-002
1.511982e+003;6.197327e-002
1.513910e+003;6.223254e-002
1.515839e+003;6.213358e-002
1.517767e+003;6.176432e-002
1.519696e+003;6.148007e-002
1.521624e+003;6.150347e-002
1.523553e+003;6.179564e-002
1.525481e+003;6.187526e-002
1.527410e+003;6.180642e-002
1.529339e+003;6.174408e-002
1.531267e+003;6.175821e-002
1.533196e+003;6.173185e-002
1.535124e+003;6.180183e-002
1.537053e+003;6.179297e-002
1.538981e+003;6.145163e-002
1.540910e+003;6.111106e-002
1.542838e+003;6.137213e-002
1.544767e+003;6.180076e-002
1.546695e+003;6.211913e-002
1.548624e+003;6.206042e-002
1.550553e+003;6.180267e-002
1.552481e+003;6.167571e-002
1.554410e+003;6.151458e-002
1.556338e+003;6.153825e-002
1.558267e+003;6.144453e-002
1.560195e+003;6.165921e-002
1.562124e+003;6.189135e-002
1.564052e+003;6.185719e-002
1.565981e+003;6.195080e-002
1.567910e+003;6.217113e-002
1.569838e+003;6.233533e-002
1.571767e+003;6.248460e-002
1.573695e+003;6.280037e-002
1.575624e+003;6.308978e-002
1.577552e+003;6.354386e-002
1.579481e+003;6.404709e-002
1.581409e+003;6.429995e-002
1.583338e+003;6.455264e-002
1.585266e+003;6.506197e-002
1.587195e+003;6.550802e-002
1.589124e+003;6.584153e-002
1.591052e+003;6.605848e-002
1.592981e+003;6.645547e-002
1.594909e+003;6.710217e-002
1.596838e+003;6.748308e-002
1.598766e+003;6.772358e-002
1.600695e+003;6.810272e-002
1.602623e+003;6.870946e-002
1.604552e+003;6.923084e-002
1.606480e+003;6.934736e-002
1.608409e+003;6.958702e-002
1.610338e+003;7.005242e-002
1.612266e+003;7.026859e-002
1.614195e+003;7.041084e-002
1.616123e+003;7.040893e-002
1.618052e+003;7.071339e-002
1.619980e+003;7.122786e-002
1.621909e+003;7.132258e-002
1.623837e+003;7.131594e-002
1.625766e+003;7.157733e-002
1.627694e+003;7.162633e-002
1.629623e+003;7.167561e-002
1.631552e+003;7.170046e-002
1.633480e+003;7.166259e-002
1.635409e+003;7.165716e-002
1.637337e+003;7.175271e-002
1.639266e+003;7.172309e-002
1.641194e+003;7.148388e-002
1.643123e+003;7.130677e-002
1.645051e+003;7.100567e-002
1.646980e+003;7.064369e-002
1.648909e+003;7.050799e-002
1.650837e+003;7.004058e-002
1.652766e+003;6.939203e-002
1.654694e+003;6.933698e-002
1.656623e+003;6.921153e-002
1.658551e+003;6.879431e-002
1.660480e+003;6.844413e-002
1.662408e+003;6.793182e-002
1.664337e+003;6.748378e-002
1.666266e+003;6.708624e-002
1.668194e+003;6.651285e-002
1.670123e+003;6.599121e-002
1.672051e+003;6.559638e-002
1.673980e+003;6.502668e-002
1.675908e+003;6.459693e-002
1.677837e+003;6.436665e-002
1.679765e+003;6.402206e-002
1.681694e+003;6.342850e-002
1.683622e+003;6.264640e-002
1.685551e+003;6.198703e-002
1.687479e+003;6.164466e-002
1.689408e+003;6.130211e-002
1.691337e+003;6.106937e-002
1.693265e+003;6.077566e-002
1.695194e+003;5.995861e-002
1.697122e+003;5.950542e-002
1.699051e+003;5.932925e-002
1.700979e+003;5.914731e-002
1.702908e+003;5.899519e-002
1.704836e+003;5.853606e-002
1.706765e+003;5.822330e-002
1.708693e+003;5.790880e-002
1.710622e+003;5.771783e-002
1.712551e+003;5.770580e-002
1.714479e+003;5.754477e-002
1.716408e+003;5.724493e-002
1.718336e+003;5.716726e-002
1.720265e+003;5.746939e-002
1.722193e+003;5.754285e-002
1.724122e+003;5.739371e-002
1.726050e+003;5.750978e-002
1.727979e+003;5.755385e-002
1.729908e+003;5.748047e-002
1.731836e+003;5.730123e-002
1.733765e+003;5.726470e-002
1.735693e+003;5.735518e-002
1.737622e+003;5.701368e-002
1.739550e+003;5.651562e-002
1.741479e+003;5.624900e-002
1.743407e+003;5.577084e-002
1.745336e+003;5.531063e-002
1.747265e+003;5.482192e-002
1.749193e+003;5.452527e-002
1.751122e+003;5.437142e-002
1.753050e+003;5.409538e-002
1.754979e+003;5.371598e-002
1.756907e+003;5.359349e-002
1.758836e+003;5.359979e-002
1.760764e+003;5.354806e-002
1.762693e+003;5.322588e-002
1.764621e+003;5.299421e-002
1.766550e+003;5.302434e-002
1.768479e+003;5.291725e-002
1.770407e+003;5.258487e-002
1.772336e+003;5.227853e-002
1.774264e+003;5.245445e-002
1.776193e+003;5.265975e-002
1.778121e+003;5.236046e-002
1.780050e+003;5.203090e-002
1.781978e+003;5.207763e-002
1.783907e+003;5.218104e-002
1.785835e+003;5.211551e-002
1.787764e+003;5.197577e-002
1.789693e+003;5.173159e-002
1.791621e+003;5.163568e-002
1.793550e+003;5.161366e-002
1.795478e+003;5.184941e-002
1.797407e+003;5.183071e-002
1.799335e+003;5.149871e-002
1.801264e+003;5.138375e-002
1.803192e+003;5.122661e-002
1.805121e+003;5.095767e-002
1.807049e+003;5.098073e-002
1.808978e+003;5.123962e-002
1.810907e+003;5.128134e-002
1.812835e+003;5.114915e-002
1.814764e+003;5.100644e-002
1.816692e+003;5.077674e-002
1.818621e+003;5.069611e-002
1.820549e+003;5.091415e-002
1.822478e+003;5.100380e-002
1.824406e+003;5.089601e-002
1.826335e+003;5.079864e-002
1.828264e+003;5.072073e-002
1.830192e+003;5.073633e-002
1.832121e+003;5.083220e-002
1.834049e+003;5.076553e-002
1.835978e+003;5.044577e-002
1.837906e+003;5.033544e-002
1.839835e+003;5.037574e-002
1.841763e+003;5.021923e-002
1.843692e+003;5.001049e-002
1.845620e+003;4.983773e-002
1.847549e+003;4.969345e-002
1.849478e+003;4.953336e-002
1.851406e+003;4.945285e-002
1.853335e+003;4.945445e-002
1.855263e+003;4.947298e-002
1.857192e+003;4.944676e-002
1.859120e+003;4.947773e-002
1.861049e+003;4.935291e-002
1.862977e+003;4.910208e-002
1.864906e+003;4.927930e-002
1.866834e+003;4.939174e-002
1.868763e+003;4.938041e-002
1.870692e+003;4.954093e-002
1.872620e+003;4.942675e-002
1.874549e+003;4.933750e-002
1.876477e+003;4.928075e-002
1.878406e+003;4.915773e-002
1.880334e+003;4.915012e-002
1.882263e+003;4.910556e-002
1.884191e+003;4.917383e-002
1.886120e+003;4.936631e-002
1.888048e+003;4.925440e-002
1.889977e+003;4.899546e-002
1.891906e+003;4.895659e-002
1.893834e+003;4.906412e-002
1.895763e+003;4.906572e-002
1.897691e+003;4.890297e-002
1.899620e+003;4.876582e-002
1.901548e+003;4.866444e-002
1.903477e+003;4.897336e-002
1.905405e+003;4.940470e-002
1.907334e+003;4.944123e-002
1.909262e+003;4.922504e-002
1.911191e+003;4.897599e-002
1.913120e+003;4.882617e-002
1.915048e+003;4.889359e-002
1.916977e+003;4.881565e-002
1.918905e+003;4.866866e-002
1.920834e+003;4.877064e-002
1.922762e+003;4.893679e-002
1.924691e+003;4.911395e-002
1.926619e+003;4.922463e-002
1.928548e+003;4.911317e-002
1.930477e+003;4.914678e-002
1.932405e+003;4.930257e-002
1.934334e+003;4.934957e-002
1.936262e+003;4.930079e-002
1.938191e+003;4.928123e-002
1.940119e+003;4.930922e-002
1.942048e+003;4.941275e-002
1.943976e+003;4.955898e-002
1.945905e+003;4.973394e-002
1.947833e+003;4.986541e-002
1.949762e+003;4.989593e-002
1.951691e+003;4.983602e-002
1.953619e+003;4.977448e-002
1.955548e+003;4.989567e-002
1.957476e+003;4.988262e-002
1.959405e+003;4.973130e-002
1.961333e+003;4.982130e-002
1.963262e+003;5.009397e-002
1.965190e+003;5.017548e-002
1.967119e+003;5.025404e-002
1.969047e+003;5.022692e-002
1.970976e+003;4.987493e-002
1.972905e+003;4.972332e-002
1.974833e+003;5.007928e-002
1.976762e+003;5.034630e-002
1.978690e+003;5.035103e-002
1.980619e+003;5.040625e-002
1.982547e+003;5.034928e-002
1.984476e+003;5.025192e-002
1.986404e+003;5.036033e-002
1.988333e+003;5.047632e-002
1.990261e+003;5.065113e-002
1.992190e+003;5.083387e-002
1.994119e+003;5.085153e-002
1.996047e+003;5.082493e-002
1.997976e+003;5.089906e-002
1.999904e+003;5.084218e-002
2.001833e+003;5.080918e-002
2.003761e+003;5.100108e-002
2.005690e+003;5.107311e-002
2.007618e+003;5.100231e-002
2.009547e+003;5.087757e-002
2.011476e+003;5.084237e-002
2.013404e+003;5.098777e-002
2.015333e+003;5.136174e-002
2.017261e+003;5.139714e-002
2.019190e+003;5.144484e-002
2.021118e+003;5.153396e-002
2.023047e+003;5.158101e-002
2.024975e+003;5.175309e-002
2.026904e+003;5.206112e-002
2.028833e+003;5.209059e-002
2.030761e+003;5.180084e-002
2.032690e+003;5.170431e-002
2.034618e+003;5.197092e-002
2.036547e+003;5.221840e-002
2.038475e+003;5.225372e-002
2.040404e+003;5.232428e-002
2.042332e+003;5.230372e-002
2.044261e+003;5.248065e-002
2.046189e+003;5.250840e-002
2.048118e+003;5.241956e-002
2.050047e+003;5.243986e-002
2.051975e+003;5.225884e-002
2.053904e+003;5.224968e-002
2.055832e+003;5.232682e-002
2.057761e+003;5.228160e-002
2.059689e+003;5.231296e-002
2.061618e+003;5.242012e-002
2.063546e+003;5.236966e-002
2.065475e+003;5.216288e-002
2.067404e+003;5.204109e-002
2.069332e+003;5.190321e-002
2.071260e+003;5.194959e-002
2.073189e+003;5.221067e-002
2.075118e+003;5.222076e-002
2.077046e+003;5.198724e-002
2.078975e+003;5.200509e-002
2.080903e+003;5.208106e-002
2.082832e+003;5.186979e-002
2.084760e+003;5.191505e-002
2.086689e+003;5.192345e-002
2.088617e+003;5.179158e-002
2.090546e+003;5.189776e-002
2.092475e+003;5.224329e-002
2.094403e+003;5.226788e-002
2.096332e+003;5.214495e-002
2.098260e+003;5.204378e-002
2.100189e+003;5.207412e-002
2.102117e+003;5.225566e-002
2.104046e+003;5.234259e-002
2.105974e+003;5.222472e-002
2.107903e+003;5.208947e-002
2.109832e+003;5.216733e-002
2.111760e+003;5.220888e-002
2.113688e+003;5.210875e-002
2.115617e+003;5.231415e-002
2.117546e+003;5.257403e-002
2.119474e+003;5.249610e-002
2.121403e+003;5.249868e-002
2.123331e+003;5.258465e-002
2.125260e+003;5.234297e-002
2.127188e+003;5.216654e-002
2.129117e+003;5.249374e-002
2.131045e+003;5.268807e-002
2.132974e+003;5.249535e-002
2.134903e+003;5.241119e-002
2.136831e+003;5.241298e-002
2.138760e+003;5.251161e-002
2.140688e+003;5.260956e-002
2.142617e+003;5.239568e-002
2.144545e+003;5.252489e-002
2.146474e+003;5.262339e-002
2.148402e+003;5.235998e-002
2.150331e+003;5.208906e-002
2.152260e+003;5.217028e-002
2.154188e+003;5.238412e-002
2.156117e+003;5.231437e-002
2.158045e+003;5.210344e-002
2.159974e+003;5.186233e-002
2.161902e+003;5.159683e-002
2.163831e+003;5.139247e-002
2.165759e+003;5.130114e-002
2.167688e+003;5.127848e-002
2.169616e+003;5.161228e-002
2.171545e+003;5.176291e-002
2.173474e+003;5.132762e-002
2.175402e+003;5.121774e-002
2.177331e+003;5.118904e-002
2.179259e+003;5.083220e-002
2.181188e+003;5.060333e-002
2.183116e+003;5.056971e-002
2.185045e+003;5.053778e-002
2.186973e+003;5.047316e-002
2.188902e+003;5.036223e-002
2.190831e+003;5.036353e-002
2.192759e+003;5.039698e-002
2.194688e+003;5.028235e-002
2.196616e+003;5.023544e-002
2.198545e+003;5.035326e-002
2.200473e+003;5.035337e-002
2.202402e+003;5.016146e-002
2.204330e+003;4.997458e-002
2.206259e+003;4.979336e-002
2.208188e+003;4.966429e-002
2.210116e+003;4.971663e-002
2.212044e+003;4.998871e-002
2.213973e+003;5.005202e-002
2.215902e+003;5.010111e-002
2.217830e+003;5.031542e-002
2.219759e+003;5.035375e-002
2.221687e+003;5.011364e-002
2.223616e+003;5.014365e-002
2.225544e+003;5.043040e-002
2.227473e+003;5.041767e-002
2.229401e+003;5.025475e-002
2.231330e+003;5.017820e-002
2.233259e+003;4.996711e-002
2.235187e+003;4.984795e-002
2.237116e+003;5.029288e-002
2.239044e+003;5.063483e-002
2.240973e+003;5.033328e-002
2.242901e+003;4.995023e-002
2.244830e+003;5.000599e-002
2.246758e+003;5.017039e-002
2.248687e+003;5.011754e-002
2.250615e+003;4.981086e-002
2.252544e+003;4.980127e-002
2.254473e+003;5.001648e-002
2.256401e+003;4.981941e-002
2.258330e+003;4.954955e-002
2.260258e+003;4.946570e-002
2.262187e+003;4.941680e-002
2.264115e+003;4.932009e-002
2.266044e+003;4.927600e-002
2.267972e+003;4.927655e-002
2.269901e+003;4.904287e-002
2.271830e+003;4.892329e-002
2.273758e+003;4.921732e-002
2.275687e+003;4.937221e-002
2.277615e+003;4.921261e-002
2.279544e+003;4.904899e-002
2.281472e+003;4.876396e-002
2.283401e+003;4.857012e-002
2.285329e+003;4.873961e-002
2.287258e+003;4.880385e-002
2.289187e+003;4.865047e-002
2.291115e+003;4.875896e-002
2.293043e+003;4.880059e-002
2.294972e+003;4.869987e-002
2.296901e+003;4.867252e-002
2.298829e+003;4.864587e-002
2.300758e+003;4.857691e-002
2.302686e+003;4.847727e-002
2.304615e+003;4.847546e-002
2.306543e+003;4.854082e-002
2.308472e+003;4.850954e-002
2.310400e+003;4.865298e-002
2.312329e+003;4.873816e-002
2.314258e+003;4.847431e-002
2.316186e+003;4.823365e-002
2.318115e+003;4.818355e-002
2.320043e+003;4.849324e-002
2.321972e+003;4.854456e-002
2.323900e+003;4.835974e-002
2.325829e+003;4.827479e-002
2.327757e+003;4.838526e-002
2.329686e+003;4.860177e-002
2.331615e+003;4.866195e-002
2.333543e+003;4.860859e-002
2.335472e+003;4.867715e-002
2.337400e+003;4.902766e-002
2.339329e+003;4.939434e-002
2.341257e+003;4.935740e-002
2.343186e+003;4.922727e-002
2.345114e+003;4.907024e-002
2.347043e+003;4.900767e-002
2.348971e+003;4.912463e-002
2.350900e+003;4.936969e-002
2.352829e+003;4.961272e-002
2.354757e+003;4.959178e-002
2.356686e+003;4.930974e-002
2.358614e+003;4.920567e-002
2.360543e+003;4.940310e-002
2.362471e+003;4.963163e-002
2.364400e+003;4.952834e-002
2.366328e+003;4.937132e-002
2.368257e+003;4.934511e-002
2.370186e+003;4.950484e-002
2.372114e+003;4.991529e-002
2.374042e+003;4.979484e-002
2.375971e+003;4.945615e-002
2.377900e+003;4.957313e-002
2.379828e+003;4.992013e-002
2.381757e+003;5.004474e-002
2.383685e+003;5.027011e-002
2.385614e+003;5.039769e-002
2.387542e+003;5.020446e-002
2.389471e+003;5.015049e-002
2.391399e+003;5.029701e-002
2.393328e+003;5.012554e-002
2.395257e+003;5.009162e-002
2.397185e+003;5.020918e-002
2.399114e+003;5.024950e-002
2.401042e+003;5.020795e-002
2.402971e+003;5.033615e-002
2.404899e+003;5.034381e-002
2.406828e+003;5.019040e-002
2.408756e+003;5.025843e-002
2.410685e+003;5.043427e-002
2.412614e+003;5.051678e-002
2.414542e+003;5.077484e-002
2.416471e+003;5.111262e-002
2.418399e+003;5.122479e-002
2.420328e+003;5.112321e-002
2.422256e+003;5.111482e-002
2.424185e+003;5.138561e-002
2.426113e+003;5.161004e-002
2.428042e+003;5.168214e-002
2.429970e+003;5.153587e-002
2.431899e+003;5.143757e-002
2.433828e+003;5.159933e-002
2.435756e+003;5.165072e-002
2.437685e+003;5.170629e-002
2.439613e+003;5.209877e-002
2.441542e+003;5.222143e-002
2.443470e+003;5.206818e-002
2.445399e+003;5.199086e-002
2.447327e+003;5.189575e-002
2.449256e+003;5.195209e-002
2.451185e+003;5.217159e-002
2.453113e+003;5.222222e-002
2.455042e+003;5.226766e-002
2.456970e+003;5.220245e-002
2.458899e+003;5.223459e-002
2.460827e+003;5.246914e-002
2.462756e+003;5.279911e-002
2.464684e+003;5.279305e-002
2.466613e+003;5.248316e-002
2.468542e+003;5.242790e-002
2.470470e+003;5.270539e-002
2.472398e+003;5.280031e-002
2.474327e+003;5.284345e-002
2.476256e+003;5.282676e-002
2.478184e+003;5.278867e-002
2.480113e+003;5.286538e-002
2.482041e+003;5.305152e-002
2.483970e+003;5.338411e-002
2.485898e+003;5.340955e-002
2.487827e+003;5.303917e-002
2.489755e+003;5.307167e-002
2.491684e+003;5.338134e-002
2.493613e+003;5.344376e-002
2.495541e+003;5.338100e-002
2.497470e+003;5.329888e-002
2.499398e+003;5.335036e-002
2.501327e+003;5.353228e-002
2.503255e+003;5.359709e-002
2.505184e+003;5.370353e-002
2.507112e+003;5.399343e-002
2.509041e+003;5.413532e-002
2.510969e+003;5.442239e-002
2.512898e+003;5.450390e-002
2.514827e+003;5.420194e-002
2.516755e+003;5.424635e-002
2.518684e+003;5.445300e-002
2.520612e+003;5.432006e-002
2.522541e+003;5.402176e-002
2.524469e+003;5.403613e-002
2.526398e+003;5.409899e-002
2.528326e+003;5.412571e-002
2.530255e+003;5.441533e-002
2.532184e+003;5.462231e-002
2.534112e+003;5.443910e-002
2.536041e+003;5.437916e-002
2.537969e+003;5.434570e-002
2.539898e+003;5.424639e-002
2.541826e+003;5.411370e-002
2.543755e+003;5.405583e-002
2.545683e+003;5.435340e-002
2.547612e+003;5.448338e-002
2.549541e+003;5.432700e-002
2.551469e+003;5.423460e-002
2.553397e+003;5.432265e-002
2.555326e+003;5.449875e-002
2.557255e+003;5.456103e-002
2.559183e+003;5.447884e-002
2.561112e+003;5.441247e-002
2.563040e+003;5.450596e-002
2.564969e+003;5.449345e-002
2.566897e+003;5.420547e-002
2.568826e+003;5.418843e-002
2.570754e+003;5.436797e-002
2.572683e+003;5.454251e-002
2.574612e+003;5.475708e-002
2.576540e+003;5.489783e-002
2.578469e+003;5.482508e-002
2.580397e+003;5.449315e-002
2.582326e+003;5.428600e-002
2.584254e+003;5.463396e-002
2.586183e+003;5.473870e-002
2.588111e+003;5.442765e-002
2.590040e+003;5.449439e-002
2.591969e+003;5.497197e-002
2.593897e+003;5.510429e-002
2.595826e+003;5.508232e-002
2.597754e+003;5.500560e-002
2.599683e+003;5.485485e-002
2.601611e+003;5.517934e-002
2.603540e+003;5.536987e-002
2.605468e+003;5.519876e-002
2.607397e+003;5.502632e-002
2.609325e+003;5.513299e-002
2.611254e+003;5.545016e-002
2.613183e+003;5.553408e-002
2.615111e+003;5.540905e-002
2.617040e+003;5.537593e-002
2.618968e+003;5.538771e-002
2.620897e+003;5.545878e-002
2.622825e+003;5.564329e-002
2.624754e+003;5.593939e-002
2.626682e+003;5.604972e-002
2.628611e+003;5.592665e-002
2.630540e+003;5.559927e-002
2.632468e+003;5.553657e-002
2.634396e+003;5.576086e-002
2.636325e+003;5.595699e-002
2.638254e+003;5.625364e-002
2.640182e+003;5.623361e-002
2.642111e+003;5.627891e-002
2.644039e+003;5.664255e-002
2.645968e+003;5.701406e-002
2.647896e+003;5.697322e-002
2.649825e+003;5.668993e-002
2.651753e+003;5.664890e-002
2.653682e+003;5.705630e-002
2.655611e+003;5.716201e-002
2.657539e+003;5.687894e-002
2.659468e+003;5.691312e-002
2.661396e+003;5.710354e-002
2.663325e+003;5.733453e-002
2.665253e+003;5.764110e-002
2.667182e+003;5.754633e-002
2.669110e+003;5.725079e-002
2.671039e+003;5.728433e-002
2.672968e+003;5.741962e-002
2.674896e+003;5.765540e-002
2.676825e+003;5.804924e-002
2.678753e+003;5.815379e-002
2.680682e+003;5.799850e-002
2.682610e+003;5.788722e-002
2.684539e+003;5.792985e-002
2.686467e+003;5.805693e-002
2.688396e+003;5.821216e-002
2.690324e+003;5.864956e-002
2.692253e+003;5.885049e-002
2.694182e+003;5.868377e-002
2.696110e+003;5.868013e-002
2.698039e+003;5.877867e-002
2.699967e+003;5.894278e-002
2.701896e+003;5.913527e-002
2.703824e+003;5.924383e-002
2.705753e+003;5.931341e-002
2.707681e+003;5.907760e-002
2.709610e+003;5.896251e-002
2.711539e+003;5.935295e-002
2.713467e+003;5.952309e-002
2.715396e+003;5.938471e-002
2.717324e+003;5.917104e-002
2.719253e+003;5.931994e-002
2.721181e+003;5.949824e-002
2.723110e+003;5.954235e-002
2.725038e+003;5.971226e-002
2.726967e+003;5.997725e-002
2.728896e+003;6.009683e-002
2.730824e+003;6.018748e-002
2.732752e+003;6.013549e-002
2.734681e+003;6.000479e-002
2.736610e+003;6.001917e-002
2.738538e+003;6.036826e-002
2.740467e+003;6.072734e-002
2.742395e+003;6.080722e-002
2.744324e+003;6.050177e-002
2.746252e+003;6.008564e-002
2.748181e+003;5.990076e-002
2.750109e+003;6.021260e-002
2.752038e+003;6.040409e-002
2.753967e+003;6.050817e-002
2.755895e+003;6.060119e-002
2.757824e+003;6.062854e-002
2.759752e+003;6.086173e-002
2.761681e+003;6.098773e-002
2.763609e+003;6.085060e-002
2.765538e+003;6.080074e-002
2.767466e+003;6.074556e-002
2.769395e+003;6.095715e-002
2.771323e+003;6.145320e-002
2.773252e+003;6.165265e-002
2.775181e+003;6.139274e-002
2.777109e+003;6.133569e-002
2.779038e+003;6.148782e-002
2.780966e+003;6.163554e-002
2.782895e+003;6.190564e-002
2.784823e+003;6.221667e-002
2.786752e+003;6.247856e-002
2.788680e+003;6.260756e-002
2.790609e+003;6.246781e-002
2.792538e+003;6.254100e-002
2.794466e+003;6.280749e-002
2.796395e+003;6.325092e-002
2.798323e+003;6.347041e-002
2.800252e+003;6.323743e-002
2.802180e+003;6.340660e-002
2.804109e+003;6.376123e-002
2.806037e+003;6.384339e-002
2.807966e+003;6.403653e-002
2.809895e+003;6.420521e-002
2.811823e+003;6.442403e-002
2.813751e+003;6.491974e-002
2.815680e+003;6.536133e-002
2.817609e+003;6.586610e-002
2.819537e+003;6.640717e-002
2.821466e+003;6.653467e-002
2.823394e+003;6.656599e-002
2.825323e+003;6.679311e-002
2.827251e+003;6.717496e-002
2.829180e+003;6.762159e-002
2.831108e+003;6.802645e-002
2.833037e+003;6.844723e-002
2.834966e+003;6.939482e-002
2.836894e+003;6.992377e-002
2.838823e+003;7.042451e-002
2.840751e+003;7.180912e-002
2.842680e+003;7.261821e-002
2.844608e+003;7.348774e-002
2.846537e+003;7.523400e-002
2.848465e+003;7.686634e-002
2.850394e+003;7.781886e-002
2.852323e+003;7.814380e-002
2.854251e+003;7.783800e-002
2.856180e+003;7.788391e-002
2.858108e+003;7.820529e-002
2.860037e+003;7.852103e-002
2.861965e+003;7.866282e-002
2.863894e+003;7.868582e-002
2.865822e+003;7.942858e-002
2.867751e+003;8.021139e-002
2.869679e+003;8.026528e-002
2.871608e+003;8.050211e-002
2.873536e+003;8.062460e-002
2.875465e+003;8.029086e-002
2.877394e+003;8.056042e-002
2.879322e+003;8.117172e-002
2.881251e+003;8.210729e-002
2.883179e+003;8.266185e-002
2.885108e+003;8.279935e-002
2.887036e+003;8.305667e-002
2.888965e+003;8.338627e-002
2.890893e+003;8.392788e-002
2.892822e+003;8.436441e-002
2.894750e+003;8.462370e-002
2.896679e+003;8.499371e-002
2.898608e+003;8.519072e-002
2.900536e+003;8.496486e-002
2.902465e+003;8.504061e-002
2.904393e+003;8.499516e-002
2.906322e+003;8.429766e-002
2.908250e+003;8.363719e-002
2.910179e+003;8.371328e-002
2.912107e+003;8.411790e-002
2.914036e+003;8.434715e-002
2.915965e+003;8.408987e-002
2.917893e+003;8.335287e-002
2.919822e+003;8.187094e-002
2.921750e+003;8.019561e-002
2.923679e+003;7.913269e-002
2.925607e+003;7.771376e-002
2.927536e+003;7.634432e-002
2.929464e+003;7.560200e-002
2.931393e+003;7.496284e-002
2.933322e+003;7.437165e-002
2.935250e+003;7.373022e-002
2.937178e+003;7.298196e-002
2.939107e+003;7.241053e-002
2.941036e+003;7.207968e-002
2.942964e+003;7.151044e-002
2.944893e+003;7.038676e-002
2.946821e+003;6.960320e-002
2.948750e+003;6.906901e-002
2.950678e+003;6.852652e-002
2.952607e+003;6.800749e-002
2.954535e+003;6.740142e-002
2.956464e+003;6.706091e-002
2.958393e+003;6.711683e-002
2.960321e+003;6.652038e-002
2.962250e+003;6.526078e-002
2.964178e+003;6.445131e-002
2.966107e+003;6.434163e-002
2.968035e+003;6.424516e-002
2.969964e+003;6.394650e-002
2.971892e+003;6.342807e-002
2.973821e+003;6.293482e-002
2.975750e+003;6.232386e-002
2.977678e+003;6.134961e-002
2.979607e+003;6.064702e-002
2.981535e+003;6.062721e-002
2.983464e+003;6.040009e-002
2.985392e+003;5.987318e-002
2.987321e+003;5.949919e-002
2.989249e+003;5.941996e-002
2.991178e+003;5.962966e-002
2.993106e+003;5.963350e-002
2.995035e+003;5.972249e-002
2.996964e+003;5.979507e-002
2.998892e+003;5.947118e-002
3.000821e+003;5.912695e-002
3.002749e+003;5.926962e-002
3.004678e+003;5.953358e-002
3.006606e+003;5.932754e-002
3.008535e+003;5.927896e-002
3.010463e+003;5.985230e-002
3.012392e+003;5.968378e-002
3.014321e+003;5.889413e-002
3.016249e+003;5.904131e-002
3.018177e+003;5.963741e-002
3.020106e+003;5.965186e-002
3.022035e+003;5.958747e-002
3.023963e+003;6.014295e-002
3.025892e+003;6.056763e-002
3.027820e+003;6.071831e-002
3.029749e+003;6.075200e-002
3.031677e+003;6.070284e-002
3.033606e+003;6.096085e-002
3.035534e+003;6.121199e-002
3.037463e+003;6.126792e-002
3.039392e+003;6.129134e-002
3.041320e+003;6.142621e-002
3.043249e+003;6.190655e-002
3.045177e+003;6.198887e-002
3.047106e+003;6.171172e-002
3.049034e+003;6.188967e-002
3.050963e+003;6.215396e-002
3.052891e+003;6.246394e-002
3.054820e+003;6.241643e-002
3.056749e+003;6.260120e-002
3.058677e+003;6.297087e-002
3.060606e+003;6.289610e-002
3.062534e+003;6.296130e-002
3.064463e+003;6.328101e-002
3.066391e+003;6.360304e-002
3.068320e+003;6.382129e-002
3.070248e+003;6.392895e-002
3.072177e+003;6.401100e-002
3.074105e+003;6.434563e-002
3.076034e+003;6.447453e-002
3.077963e+003;6.456721e-002
3.079891e+003;6.505639e-002
3.081820e+003;6.532694e-002
3.083748e+003;6.525239e-002
3.085677e+003;6.546357e-002
3.087605e+003;6.596702e-002
3.089534e+003;6.637312e-002
3.091462e+003;6.669571e-002
3.093391e+003;6.692359e-002
3.095320e+003;6.681054e-002
3.097248e+003;6.640400e-002
3.099177e+003;6.681823e-002
3.101105e+003;6.750081e-002
3.103034e+003;6.748459e-002
3.104962e+003;6.739415e-002
3.106891e+003;6.778694e-002
3.108819e+003;6.845196e-002
3.110748e+003;6.876876e-002
3.112677e+003;6.903223e-002
3.114605e+003;6.946398e-002
3.116533e+003;6.963129e-002
3.118462e+003;6.948238e-002
3.120391e+003;6.976569e-002
3.122319e+003;6.997919e-002
3.124248e+003;6.993630e-002
3.126176e+003;7.007808e-002
3.128105e+003;7.035536e-002
3.130033e+003;7.079490e-002
3.131962e+003;7.150006e-002
3.133890e+003;7.204913e-002
3.135819e+003;7.247563e-002
3.137748e+003;7.309683e-002
3.139676e+003;7.337839e-002
3.141605e+003;7.360722e-002
3.143533e+003;7.393555e-002
3.145462e+003;7.406481e-002
3.147390e+003;7.414026e-002
3.149319e+003;7.447587e-002
3.151247e+003;7.467958e-002
3.153176e+003;7.487898e-002
3.155104e+003;7.538851e-002
3.157033e+003;7.570904e-002
3.158962e+003;7.617145e-002
3.160890e+003;7.675913e-002
3.162819e+003;7.696680e-002
3.164747e+003;7.710928e-002
3.166676e+003;7.760777e-002
3.168604e+003;7.802323e-002
3.170533e+003;7.818259e-002
3.172461e+003;7.847811e-002
3.174390e+003;7.903434e-002
3.176319e+003;7.966874e-002
3.178247e+003;8.034193e-002
3.180176e+003;8.095756e-002
3.182104e+003;8.155667e-002
3.184033e+003;8.167630e-002
3.185961e+003;8.188118e-002
3.187890e+003;8.236203e-002
3.189818e+003;8.295991e-002
3.191747e+003;8.345867e-002
3.193676e+003;8.375193e-002
3.195604e+003;8.399550e-002
3.197532e+003;8.437226e-002
3.199461e+003;8.446819e-002
3.201390e+003;8.490692e-002
3.203318e+003;8.583442e-002
3.205247e+003;8.646303e-002
3.207175e+003;8.695295e-002
3.209104e+003;8.740955e-002
3.211032e+003;8.810301e-002
3.212961e+003;8.901908e-002
3.214889e+003;8.940233e-002
3.216818e+003;8.995815e-002
3.218747e+003;9.066851e-002
3.220675e+003;9.112507e-002
3.222604e+003;9.168015e-002
3.224532e+003;9.232081e-002
3.226461e+003;9.275629e-002
3.228389e+003;9.334636e-002
3.230318e+003;9.410115e-002
3.232246e+003;9.441001e-002
3.234175e+003;9.483050e-002
3.236104e+003;9.592163e-002
3.238032e+003;9.656924e-002
3.239961e+003;9.703598e-002
3.241889e+003;9.832004e-002
3.243818e+003;9.989703e-002
3.245746e+003;1.003488e-001
3.247675e+003;1.004267e-001
3.249603e+003;1.010918e-001
3.251532e+003;1.020800e-001
3.253460e+003;1.036055e-001
3.255389e+003;1.047182e-001
3.257318e+003;1.052602e-001
3.259246e+003;1.061247e-001
3.261175e+003;1.072955e-001
3.263103e+003;1.078643e-001
3.265032e+003;1.085215e-001
3.266960e+003;1.090621e-001
3.268889e+003;1.095095e-001
3.270817e+003;1.101093e-001
3.272746e+003;1.108721e-001
3.274675e+003;1.108628e-001
3.276603e+003;1.110880e-001
3.278531e+003;1.124766e-001
3.280460e+003;1.134640e-001
3.282389e+003;1.132532e-001
3.284317e+003;1.131973e-001
3.286246e+003;1.135090e-001
3.288174e+003;1.138017e-001
3.290103e+003;1.136785e-001
3.292031e+003;1.129993e-001
3.293960e+003;1.131708e-001
3.295888e+003;1.137901e-001
3.297817e+003;1.135919e-001
3.299746e+003;1.128282e-001
3.301674e+003;1.121776e-001
3.303603e+003;1.126796e-001
3.305531e+003;1.134866e-001
3.307460e+003;1.137016e-001
3.309388e+003;1.134624e-001
3.311317e+003;1.132226e-001
3.313245e+003;1.131060e-001
3.315174e+003;1.136494e-001
3.317103e+003;1.142344e-001
3.319031e+003;1.148112e-001
3.320960e+003;1.150086e-001
3.322888e+003;1.149115e-001
3.324817e+003;1.156680e-001
3.326745e+003;1.167455e-001
3.328674e+003;1.178610e-001
3.330602e+003;1.182355e-001
3.332531e+003;1.179543e-001
3.334459e+003;1.177967e-001
3.336388e+003;1.176741e-001
3.338317e+003;1.175388e-001
3.340245e+003;1.169945e-001
3.342174e+003;1.163780e-001
3.344102e+003;1.156341e-001
3.346031e+003;1.151621e-001
3.347959e+003;1.145954e-001
3.349888e+003;1.139443e-001
3.351816e+003;1.129541e-001
3.353745e+003;1.117940e-001
3.355674e+003;1.109726e-001
3.357602e+003;1.098597e-001
3.359531e+003;1.088537e-001
3.361459e+003;1.085335e-001
3.363388e+003;1.079086e-001
3.365316e+003;1.068713e-001
3.367245e+003;1.061922e-001
3.369173e+003;1.054613e-001
3.371102e+003;1.046923e-001
3.373031e+003;1.038064e-001
3.374959e+003;1.034173e-001
3.376887e+003;1.038313e-001
3.378816e+003;1.037898e-001
3.380745e+003;1.026684e-001
3.382673e+003;1.019518e-001
3.384602e+003;1.015413e-001
3.386530e+003;1.008016e-001
3.388459e+003;9.990487e-002
3.390387e+003;9.996980e-002
3.392316e+003;9.970882e-002
3.394244e+003;9.921113e-002
3.396173e+003;9.847210e-002
3.398102e+003;9.770837e-002
3.400030e+003;9.709241e-002
3.401959e+003;9.651577e-002
3.403887e+003;9.572816e-002
3.405816e+003;9.547903e-002
3.407744e+003;9.548151e-002
3.409673e+003;9.486838e-002
3.411601e+003;9.376150e-002
3.413530e+003;9.330114e-002
3.415458e+003;9.320881e-002
3.417387e+003;9.217731e-002
3.419316e+003;9.119922e-002
3.421244e+003;9.042069e-002
3.423173e+003;8.965797e-002
3.425101e+003;8.873357e-002
3.427030e+003;8.791681e-002
3.428958e+003;8.764707e-002
3.430887e+003;8.724377e-002
3.432815e+003;8.606813e-002
3.434744e+003;8.472868e-002
3.436673e+003;8.432876e-002
3.438601e+003;8.484657e-002
3.440530e+003;8.414871e-002
3.442458e+003;8.308944e-002
3.444387e+003;8.271841e-002
3.446315e+003;8.199238e-002
3.448244e+003;8.118958e-002
3.450172e+003;8.107100e-002
3.452101e+003;8.039241e-002
3.454030e+003;7.920298e-002
3.455958e+003;7.858384e-002
3.457886e+003;7.824413e-002
3.459815e+003;7.749154e-002
3.461744e+003;7.710548e-002
3.463672e+003;7.693286e-002
3.465601e+003;7.637320e-002
3.467529e+003;7.542202e-002
3.469458e+003;7.496020e-002
3.471386e+003;7.466082e-002
3.473315e+003;7.408386e-002
3.475243e+003;7.317117e-002
3.477172e+003;7.200842e-002
3.479101e+003;7.145662e-002
3.481029e+003;7.107911e-002
3.482958e+003;7.011507e-002
3.484886e+003;6.914672e-002
3.486815e+003;6.881453e-002
3.488743e+003;6.859198e-002
3.490672e+003;6.775790e-002
3.492600e+003;6.728937e-002
3.494529e+003;6.710152e-002
3.496458e+003;6.652370e-002
3.498386e+003;6.609587e-002
3.500315e+003;6.545439e-002
3.502243e+003;6.435443e-002
3.504172e+003;6.329033e-002
3.506100e+003;6.284284e-002
3.508029e+003;6.290542e-002
3.509957e+003;6.234321e-002
3.511886e+003;6.185681e-002
3.513814e+003;6.171803e-002
3.515743e+003;6.148507e-002
3.517672e+003;6.118136e-002
3.519600e+003;6.046433e-002
3.521529e+003;5.984154e-002
3.523457e+003;5.928728e-002
3.525386e+003;5.850554e-002
3.527314e+003;5.780894e-002
3.529243e+003;5.759218e-002
3.531171e+003;5.731767e-002
3.533100e+003;5.660900e-002
3.535029e+003;5.622369e-002
3.536957e+003;5.590653e-002
3.538885e+003;5.559833e-002
3.540814e+003;5.550905e-002
3.542743e+003;5.526212e-002
3.544671e+003;5.485440e-002
3.546600e+003;5.410075e-002
3.548528e+003;5.335631e-002
3.550457e+003;5.301150e-002
3.552385e+003;5.263854e-002
3.554314e+003;5.196390e-002
3.556242e+003;5.129373e-002
3.558171e+003;5.133016e-002
3.560100e+003;5.109831e-002
3.562028e+003;5.034534e-002
3.563957e+003;4.938884e-002
3.565885e+003;4.848306e-002
3.567814e+003;4.826449e-002
3.569742e+003;4.860422e-002
3.571671e+003;4.832874e-002
3.573599e+003;4.765779e-002
3.575528e+003;4.722549e-002
3.577457e+003;4.721995e-002
3.579385e+003;4.718149e-002
3.581314e+003;4.689559e-002
3.583242e+003;4.662024e-002
3.585171e+003;4.624480e-002
3.587099e+003;4.538066e-002
3.589028e+003;4.464043e-002
3.590956e+003;4.462806e-002
3.592885e+003;4.479384e-002
3.594813e+003;4.403774e-002
3.596742e+003;4.367750e-002
3.598671e+003;4.386675e-002
3.600599e+003;4.386605e-002
3.602528e+003;4.350965e-002
3.604456e+003;4.242166e-002
3.606385e+003;4.213953e-002
3.608313e+003;4.240917e-002
3.610242e+003;4.215037e-002
3.612170e+003;4.190188e-002
3.614099e+003;4.199917e-002
3.616028e+003;4.153858e-002
3.617956e+003;4.105059e-002
3.619885e+003;4.123688e-002
3.621813e+003;4.137743e-002
3.623742e+003;4.131165e-002
3.625670e+003;4.096829e-002
3.627599e+003;4.015754e-002
3.629527e+003;3.995450e-002
3.631456e+003;3.967128e-002
3.633385e+003;3.911583e-002
3.635313e+003;3.874454e-002
3.637241e+003;3.832463e-002
3.639170e+003;3.806601e-002
3.641099e+003;3.829184e-002
3.643027e+003;3.888276e-002
3.644956e+003;3.881290e-002
3.646884e+003;3.743596e-002
3.648813e+003;3.639171e-002
3.650741e+003;3.682912e-002
3.652670e+003;3.746706e-002
3.654598e+003;3.743752e-002
3.656527e+003;3.649340e-002
3.658456e+003;3.549246e-002
3.660384e+003;3.484718e-002
3.662313e+003;3.535215e-002
3.664241e+003;3.586527e-002
3.666170e+003;3.529213e-002
3.668098e+003;3.486596e-002
3.670027e+003;3.491052e-002
3.671955e+003;3.511682e-002
3.673884e+003;3.452077e-002
3.675813e+003;3.335134e-002
3.677741e+003;3.308555e-002
3.679669e+003;3.321873e-002
3.681598e+003;3.380185e-002
3.683527e+003;3.423168e-002
3.685455e+003;3.400985e-002
3.687384e+003;3.345018e-002
3.689312e+003;3.302946e-002
3.691241e+003;3.282078e-002
3.693169e+003;3.282618e-002
3.695098e+003;3.278458e-002
3.697026e+003;3.297501e-002
3.698955e+003;3.319473e-002
3.700884e+003;3.252707e-002
3.702812e+003;3.270252e-002
3.704741e+003;3.311884e-002
3.706669e+003;3.288161e-002
3.708598e+003;3.316265e-002
3.710526e+003;3.308323e-002
3.712455e+003;3.217977e-002
3.714383e+003;3.150871e-002
3.716312e+003;3.118683e-002
3.718240e+003;3.098783e-002
3.720169e+003;3.150800e-002
3.722098e+003;3.205604e-002
3.724026e+003;3.163040e-002
3.725955e+003;3.109944e-002
3.727883e+003;3.093699e-002
3.729812e+003;3.112340e-002
3.731740e+003;3.103396e-002
3.733669e+003;3.094755e-002
3.735597e+003;3.095595e-002
3.737526e+003;3.106239e-002
3.739455e+003;3.099563e-002
3.741383e+003;3.089113e-002
3.743312e+003;3.070055e-002
3.745240e+003;3.078672e-002
3.747169e+003;3.108449e-002
3.749097e+003;3.078021e-002
3.751026e+003;3.065987e-002
3.752954e+003;3.158404e-002
3.754883e+003;3.212190e-002
3.756812e+003;3.150558e-002
3.758740e+003;3.097278e-002
3.760668e+003;3.090892e-002
3.762597e+003;3.124255e-002
3.764526e+003;3.207481e-002
3.766454e+003;3.183283e-002
3.768383e+003;3.076741e-002
3.770311e+003;3.041008e-002
3.772240e+003;3.091845e-002
3.774168e+003;3.138560e-002
3.776097e+003;3.119620e-002
3.778025e+003;3.073419e-002
3.779954e+003;3.092959e-002
3.781883e+003;3.167684e-002
3.783811e+003;3.169566e-002
3.785740e+003;3.147444e-002
3.787668e+003;3.169616e-002
3.789597e+003;3.189997e-002
3.791525e+003;3.186906e-002
3.793454e+003;3.210474e-002
3.795382e+003;3.247661e-002
3.797311e+003;3.242834e-002
3.799240e+003;3.137214e-002
3.801168e+003;3.119634e-002
3.803097e+003;3.120097e-002
3.805025e+003;3.107019e-002
3.806954e+003;3.102872e-002
3.808882e+003;3.116708e-002
3.810811e+003;3.153009e-002
3.812739e+003;3.183971e-002
3.814668e+003;3.176923e-002
3.816596e+003;3.151021e-002
3.818525e+003;3.153989e-002
3.820454e+003;3.159159e-002
3.822382e+003;3.142496e-002
3.824311e+003;3.120948e-002
3.826239e+003;3.177051e-002
3.828168e+003;3.213888e-002
3.830096e+003;3.242441e-002
3.832025e+003;3.268922e-002
3.833953e+003;3.291803e-002
3.835882e+003;3.299581e-002
3.837811e+003;3.278080e-002
3.839739e+003;3.291953e-002
3.841667e+003;3.259367e-002
3.843596e+003;3.232874e-002
3.845525e+003;3.254803e-002
3.847453e+003;3.214088e-002
3.849382e+003;3.155119e-002
3.851310e+003;3.148866e-002
3.853239e+003;3.193110e-002
3.855167e+003;3.272427e-002
3.857096e+003;3.294730e-002
3.859024e+003;3.254389e-002
3.860953e+003;3.262743e-002
3.862882e+003;3.336694e-002
3.864810e+003;3.400140e-002
3.866739e+003;3.376550e-002
3.868667e+003;3.291059e-002
3.870596e+003;3.196727e-002
3.872524e+003;3.203931e-002
3.874453e+003;3.244980e-002
3.876381e+003;3.283372e-002
3.878310e+003;3.359127e-002
3.880239e+003;3.384623e-002
3.882167e+003;3.303017e-002
3.884096e+003;3.250961e-002
3.886024e+003;3.306696e-002
3.887953e+003;3.362149e-002
3.889881e+003;3.296185e-002
3.891810e+003;3.223091e-002
3.893738e+003;3.285741e-002
3.895667e+003;3.302002e-002
3.897595e+003;3.320038e-002
3.899524e+003;3.370738e-002
3.901453e+003;3.336247e-002
3.903381e+003;3.274885e-002
3.905310e+003;3.296679e-002
3.907238e+003;3.386364e-002
3.909167e+003;3.398011e-002
3.911095e+003;3.263139e-002
3.913024e+003;3.266554e-002
3.914952e+003;3.350153e-002
3.916881e+003;3.367970e-002
3.918810e+003;3.381070e-002
3.920738e+003;3.399738e-002
3.922667e+003;3.390498e-002
3.924595e+003;3.403967e-002
3.926524e+003;3.399624e-002
3.928452e+003;3.346875e-002
3.930381e+003;3.306371e-002
3.932309e+003;3.386278e-002
3.934238e+003;3.431755e-002
3.936167e+003;3.318525e-002
3.938095e+003;3.272041e-002
3.940023e+003;3.386207e-002
3.941952e+003;3.495917e-002
3.943881e+003;3.508057e-002
3.945809e+003;3.484054e-002
3.947738e+003;3.438088e-002
3.949666e+003;3.411589e-002
3.951595e+003;3.421802e-002
3.953523e+003;3.457649e-002
3.955452e+003;3.511183e-002
3.957380e+003;3.528088e-002
3.959309e+003;3.485418e-002
3.961238e+003;3.489964e-002
3.963166e+003;3.491134e-002
3.965095e+003;3.509113e-002
3.967023e+003;3.583792e-002
3.968952e+003;3.602241e-002
3.970880e+003;3.547643e-002
3.972809e+003;3.476655e-002
3.974737e+003;3.445111e-002
3.976666e+003;3.478073e-002
3.978594e+003;3.519004e-002
3.980523e+003;3.535679e-002
3.982452e+003;3.508284e-002
3.984380e+003;3.482385e-002
3.986309e+003;3.504756e-002
3.988237e+003;3.512206e-002
3.990166e+003;3.482216e-002
3.992094e+003;3.508499e-002
3.994023e+003;3.538655e-002
3.995951e+003;3.524344e-002
3.997880e+003;3.444917e-002
3.999809e+003;3.485451e-002
4.001737e+003;0.000000e+000
