3.992094e+002;0.000000e+000
4.011380e+002;0.000000e+000
4.030665e+002;0.000000e+000
4.049951e+002;0.000000e+000
4.069236e+002;0.000000e+000
4.088522e+002;0.000000e+000
4.107807e+002;0.000000e+000
4.127093e+002;0.000000e+000
4.146378e+002;0.000000e+000
4.165664e+002;0.000000e+000
4.184949e+002;0.000000e+000
4.204235e+002;0.000000e+000
4.223520e+002;0.000000e+000
4.242806e+002;0.000000e+000
4.262091e+002;0.000000e+000
4.281377e+002;0.000000e+000
4.300662e+002;0.000000e+000
4.319948e+002;0.000000e+000
4.339233e+002;0.000000e+000
4.358519e+002;0.000000e+000
4.377804e+002;0.000000e+000
4.397090e+002;0.000000e+000
4.416375e+002;0.000000e+000
4.435660e+002;0.000000e+000
4.454946e+002;0.000000e+000
4.474232e+002;0.000000e+000
4.493517e+002;0.000000e+000
4.512802e+002;0.000000e+000
4.532088e+002;0.000000e+000
4.551373e+002;0.000000e+000
4.570659e+002;0.000000e+000
4.589944e+002;0.000000e+000
4.609230e+002;0.000000e+000
4.628515e+002;0.000000e+000
4.647801e+002;0.000000e+000
4.667086e+002;0.000000e+000
4.686372e+002;0.000000e+000
4.705657e+002;0.000000e+000
4.724943e+002;0.000000e+000
4.744228e+002;0.000000e+000
4.763513e+002;0.000000e+000
4.782799e+002;0.000000e+000
4.802085e+002;0.000000e+000
4.821370e+002;0.000000e+000
4.840656e+002;0.000000e+000
4.859941e+002;0.000000e+000
4.879226e+002;0.000000e+000
4.898512e+002;0.000000e+000
4.917798e+002;0.000000e+000
4.937083e+002;0.000000e+000
4.956368e+002;0.000000e+000
4.975654e+002;0.000000e+000
4.994939e+002;0.000000e+000
5.014225e+002;0.000000e+000
5.033510e+002;0.000000e+000
5.052796e+002;0.000000e+000
5.072081e+002;0.000000e+000
5.091367e+002;0.000000e+000
5.110652e+002;0.000000e+000
5.129938e+002;0.000000e+000
5.149223e+002;0.000000e+000
5.168509e+002;0.000000e+000
5.187794e+002;0.000000e+000
5.207079e+002;0.000000e+000
5.226365e+002;0.000000e+000
5.245651e+002;0.000000e+000
5.264936e+002;0.000000e+000
5.284222e+002;0.000000e+000
5.303507e+002;0.000000e+000
5.322792e+002;0.000000e+000
5.342078e+002;0.000000e+000
5.361364e+002;0.000000e+000
5.380649e+002;0.000000e+000
5.399935e+002;0.000000e+000
5.419220e+002;0.000000e+000
5.438505e+002;0.000000e+000
5.457791e+002;0.000000e+000
5.477076e+002;0.000000e+000
5.496362e+002;0.000000e+000
5.515648e+002;0.000000e+000
5.534933e+002;0.000000e+000
5.554218e+002;0.000000e+000
5.573504e+002;0.000000e+000
5.592789e+002;0.000000e+000
5.612075e+002;0.000000e+000
5.631360e+002;0.000000e+000
5.650646e+002;0.000000e+000
5.669931e+002;0.000000e+000
5.689217e+002;0.000000e+000
5.708502e+002;0.000000e+000
5.727787e+002;0.000000e+000
5.747073e+002;0.000000e+000
5.766359e+002;0.000000e+000
5.785644e+002;0.000000e+000
5.804930e+002;0.000000e+000
5.824215e+002;0.000000e+000
5.843500e+002;0.000000e+000
5.862786e+002;0.000000e+000
5.882072e+002;0.000000e+000
5.901357e+002;0.000000e+000
5.920643e+002;0.000000e+000
5.939928e+002;0.000000e+000
5.959213e+002;0.000000e+000
5.978499e+002;0.000000e+000
5.997784e+002;2.160277e-001
6.017070e+002;2.212909e-001
6.036355e+002;2.328729e-001
6.055641e+002;2.331793e-001
6.074926e+002;2.260641e-001
6.094211e+002;2.269099e-001
6.113497e+002;2.308185e-001
6.132783e+002;2.351164e-001
6.152068e+002;2.381509e-001
6.171354e+002;2.339575e-001
6.190639e+002;2.272759e-001
6.209924e+002;2.236125e-001
6.229210e+002;2.232622e-001
6.248495e+002;2.231038e-001
6.267781e+002;2.172168e-001
6.287067e+002;2.166165e-001
6.306352e+002;2.176682e-001
6.325637e+002;2.136033e-001
6.344923e+002;2.140662e-001
6.364208e+002;2.101539e-001
6.383494e+002;2.019148e-001
6.402780e+002;1.983947e-001
6.422065e+002;1.972492e-001
6.441350e+002;1.981675e-001
6.460636e+002;2.016136e-001
6.479921e+002;1.995884e-001
6.499207e+002;1.976782e-001
6.518492e+002;1.985943e-001
6.537778e+002;2.006654e-001
6.557063e+002;2.059564e-001
6.576349e+002;2.102687e-001
6.595634e+002;2.146981e-001
6.614919e+002;2.171018e-001
6.634205e+002;2.161593e-001
6.653491e+002;2.149189e-001
6.672776e+002;2.134058e-001
6.692062e+002;2.096972e-001
6.711347e+002;2.049524e-001
6.730632e+002;2.008657e-001
6.749918e+002;1.955110e-001
6.769203e+002;1.889518e-001
6.788489e+002;1.838042e-001
6.807775e+002;1.809486e-001
6.827060e+002;1.794642e-001
6.846345e+002;1.776666e-001
6.865631e+002;1.755323e-001
6.884916e+002;1.746914e-001
6.904202e+002;1.738715e-001
6.923488e+002;1.732080e-001
6.942773e+002;1.726309e-001
6.962058e+002;1.722927e-001
6.981344e+002;1.720008e-001
7.000629e+002;1.716342e-001
7.019915e+002;1.713911e-001
7.039200e+002;1.709146e-001
7.058486e+002;1.692369e-001
7.077771e+002;1.667565e-001
7.097057e+002;1.645845e-001
7.116342e+002;1.630556e-001
7.135627e+002;1.613811e-001
7.154913e+002;1.584592e-001
7.174199e+002;1.552823e-001
7.193484e+002;1.526553e-001
7.212770e+002;1.506794e-001
7.232055e+002;1.491830e-001
7.251340e+002;1.469637e-001
7.270626e+002;1.449553e-001
7.289911e+002;1.423921e-001
7.309197e+002;1.398360e-001
7.328483e+002;1.381291e-001
7.347768e+002;1.367472e-001
7.367053e+002;1.353906e-001
7.386339e+002;1.334128e-001
7.405624e+002;1.314930e-001
7.424910e+002;1.307896e-001
7.444196e+002;1.301797e-001
7.463481e+002;1.285404e-001
7.482766e+002;1.272961e-001
7.502052e+002;1.268355e-001
7.521337e+002;1.250903e-001
7.540623e+002;1.233815e-001
7.559908e+002;1.220628e-001
7.579194e+002;1.212565e-001
7.598479e+002;1.210499e-001
7.617765e+002;1.202639e-001
7.637050e+002;1.190210e-001
7.656335e+002;1.177160e-001
7.675621e+002;1.169734e-001
7.694907e+002;1.168268e-001
7.714192e+002;1.161208e-001
7.733478e+002;1.149393e-001
7.752763e+002;1.133963e-001
7.772048e+002;1.130699e-001
7.791334e+002;1.147494e-001
7.810620e+002;1.158782e-001
7.829905e+002;1.157096e-001
7.849191e+002;1.150529e-001
7.868476e+002;1.134480e-001
7.887761e+002;1.108972e-001
7.907047e+002;1.081304e-001
7.926332e+002;1.059257e-001
7.945618e+002;1.041782e-001
7.964903e+002;1.025702e-001
7.984189e+002;1.020241e-001
8.003474e+002;1.022439e-001
8.022759e+002;1.019222e-001
8.042045e+002;1.014323e-001
8.061331e+002;1.005782e-001
8.080616e+002;1.002095e-001
8.099902e+002;1.004628e-001
8.119187e+002;1.006551e-001
8.138472e+002;1.005694e-001
8.157758e+002;9.995332e-002
8.177043e+002;9.942603e-002
8.196329e+002;9.893923e-002
8.215615e+002;9.921820e-002
8.234900e+002;1.000124e-001
8.254185e+002;1.002006e-001
8.273471e+002;1.002102e-001
8.292756e+002;1.005981e-001
8.312042e+002;1.015374e-001
8.331328e+002;1.014791e-001
8.350613e+002;1.004799e-001
8.369898e+002;1.002895e-001
8.389184e+002;1.004463e-001
8.408469e+002;1.004664e-001
8.427755e+002;1.013585e-001
8.447040e+002;1.024132e-001
8.466326e+002;1.025721e-001
8.485611e+002;1.017052e-001
8.504897e+002;1.013711e-001
8.524182e+002;1.020600e-001
8.543467e+002;1.027189e-001
8.562753e+002;1.029898e-001
8.582039e+002;1.040721e-001
8.601324e+002;1.058793e-001
8.620610e+002;1.073919e-001
8.639895e+002;1.087356e-001
8.659180e+002;1.103458e-001
8.678466e+002;1.124552e-001
8.697751e+002;1.151831e-001
8.717037e+002;1.177169e-001
8.736323e+002;1.202190e-001
8.755608e+002;1.226227e-001
8.774893e+002;1.251439e-001
8.794179e+002;1.277498e-001
8.813464e+002;1.306295e-001
8.832750e+002;1.339248e-001
8.852036e+002;1.372098e-001
8.871321e+002;1.402149e-001
8.890606e+002;1.430957e-001
8.909892e+002;1.460973e-001
8.929177e+002;1.485947e-001
8.948463e+002;1.498782e-001
8.967748e+002;1.502129e-001
8.987034e+002;1.500977e-001
9.006319e+002;1.495136e-001
9.025605e+002;1.479989e-001
9.044890e+002;1.460777e-001
9.064175e+002;1.438439e-001
9.083461e+002;1.415025e-001
9.102747e+002;1.399857e-001
9.122032e+002;1.385633e-001
9.141318e+002;1.365222e-001
9.160603e+002;1.355111e-001
9.179888e+002;1.351431e-001
9.199174e+002;1.351620e-001
9.218459e+002;1.361903e-001
9.237745e+002;1.378345e-001
9.257031e+002;1.392112e-001
9.276316e+002;1.407928e-001
9.295601e+002;1.427968e-001
9.314887e+002;1.447801e-001
9.334172e+002;1.465742e-001
9.353458e+002;1.483076e-001
9.372744e+002;1.506257e-001
9.392029e+002;1.531942e-001
9.411314e+002;1.556424e-001
9.430600e+002;1.583274e-001
9.449885e+002;1.617082e-001
9.469171e+002;1.652535e-001
9.488456e+002;1.687655e-001
9.507742e+002;1.727637e-001
9.527027e+002;1.773490e-001
9.546313e+002;1.821971e-001
9.565598e+002;1.873174e-001
9.584883e+002;1.925017e-001
9.604169e+002;1.981277e-001
9.623455e+002;2.043742e-001
9.642740e+002;2.107479e-001
9.662026e+002;2.168861e-001
9.681311e+002;2.237697e-001
9.700596e+002;2.320644e-001
9.719882e+002;2.419342e-001
9.739167e+002;2.525361e-001
9.758453e+002;2.641507e-001
9.777739e+002;2.778460e-001
9.797024e+002;2.925042e-001
9.816309e+002;3.067459e-001
9.835595e+002;3.184485e-001
9.854880e+002;3.267087e-001
9.874166e+002;3.319655e-001
9.893452e+002;3.359309e-001
9.912737e+002;3.406054e-001
9.932022e+002;3.460003e-001
9.951307e+002;3.511834e-001
9.970593e+002;3.557111e-001
9.989879e+002;3.598953e-001
1.000916e+003;3.640011e-001
1.002845e+003;3.674338e-001
1.004773e+003;3.697677e-001
1.006702e+003;3.716604e-001
1.008631e+003;3.742802e-001
1.010559e+003;3.772854e-001
1.012488e+003;3.807780e-001
1.014416e+003;3.848392e-001
1.016345e+003;3.886402e-001
1.018273e+003;3.921566e-001
1.020202e+003;3.958966e-001
1.022130e+003;3.993620e-001
1.024059e+003;4.030516e-001
1.025988e+003;4.064835e-001
1.027916e+003;4.086314e-001
1.029845e+003;4.095160e-001
1.031773e+003;4.078603e-001
1.033702e+003;4.039692e-001
1.035630e+003;3.984932e-001
1.037559e+003;3.916559e-001
1.039487e+003;3.850759e-001
1.041416e+003;3.812288e-001
1.043344e+003;3.793061e-001
1.045273e+003;3.782912e-001
1.047202e+003;3.787849e-001
1.049130e+003;3.812256e-001
1.051059e+003;3.837211e-001
1.052987e+003;3.839230e-001
1.054916e+003;3.808352e-001
1.056844e+003;3.749380e-001
1.058773e+003;3.664667e-001
1.060701e+003;3.552733e-001
1.062630e+003;3.414584e-001
1.064558e+003;3.266309e-001
1.066487e+003;3.132136e-001
1.068416e+003;3.020098e-001
1.070344e+003;2.919072e-001
1.072273e+003;2.833839e-001
1.074201e+003;2.763580e-001
1.076130e+003;2.702999e-001
1.078058e+003;2.644750e-001
1.079987e+003;2.593901e-001
1.081915e+003;2.554663e-001
1.083844e+003;2.524256e-001
1.085773e+003;2.500407e-001
1.087701e+003;2.487961e-001
1.089630e+003;2.484012e-001
1.091558e+003;2.477186e-001
1.093487e+003;2.476879e-001
1.095415e+003;2.484377e-001
1.097344e+003;2.489468e-001
1.099272e+003;2.488807e-001
1.101201e+003;2.488405e-001
1.103129e+003;2.479493e-001
1.105058e+003;2.457992e-001
1.106987e+003;2.430220e-001
1.108915e+003;2.394444e-001
1.110844e+003;2.348910e-001
1.112772e+003;2.289944e-001
1.114701e+003;2.209738e-001
1.116629e+003;2.117551e-001
1.118558e+003;2.036522e-001
1.120486e+003;1.962170e-001
1.122415e+003;1.892592e-001
1.124344e+003;1.834044e-001
1.126272e+003;1.776424e-001
1.128201e+003;1.713368e-001
1.130129e+003;1.659553e-001
1.132058e+003;1.615327e-001
1.133986e+003;1.577806e-001
1.135915e+003;1.547920e-001
1.137843e+003;1.528326e-001
1.139772e+003;1.522483e-001
1.141700e+003;1.529547e-001
1.143629e+003;1.544128e-001
1.145557e+003;1.559436e-001
1.147486e+003;1.575501e-001
1.149415e+003;1.594920e-001
1.151343e+003;1.610894e-001
1.153272e+003;1.616176e-001
1.155200e+003;1.619774e-001
1.157129e+003;1.625899e-001
1.159057e+003;1.624132e-001
1.160986e+003;1.607424e-001
1.162914e+003;1.576750e-001
1.164843e+003;1.530349e-001
1.166771e+003;1.467175e-001
1.168700e+003;1.392908e-001
1.170629e+003;1.319452e-001
1.172557e+003;1.254401e-001
1.174486e+003;1.199750e-001
1.176414e+003;1.155503e-001
1.178343e+003;1.122806e-001
1.180271e+003;1.093325e-001
1.182200e+003;1.067808e-001
1.184128e+003;1.054499e-001
1.186057e+003;1.052582e-001
1.187986e+003;1.059612e-001
1.189914e+003;1.074504e-001
1.191843e+003;1.099309e-001
1.193771e+003;1.126501e-001
1.195700e+003;1.149769e-001
1.197628e+003;1.169465e-001
1.199557e+003;1.183117e-001
1.201485e+003;1.187406e-001
1.203414e+003;1.182450e-001
1.205343e+003;1.173300e-001
1.207271e+003;1.159916e-001
1.209200e+003;1.133180e-001
1.211128e+003;1.100267e-001
1.213057e+003;1.075879e-001
1.214985e+003;1.066250e-001
1.216914e+003;1.071697e-001
1.218842e+003;1.085133e-001
1.220771e+003;1.101523e-001
1.222699e+003;1.119640e-001
1.224628e+003;1.135928e-001
1.226557e+003;1.152594e-001
1.228485e+003;1.169915e-001
1.230414e+003;1.187493e-001
1.232342e+003;1.201734e-001
1.234271e+003;1.208657e-001
1.236199e+003;1.213169e-001
1.238128e+003;1.216564e-001
1.240056e+003;1.216547e-001
1.241985e+003;1.219380e-001
1.243913e+003;1.228163e-001
1.245842e+003;1.236945e-001
1.247771e+003;1.241781e-001
1.249699e+003;1.243337e-001
1.251628e+003;1.243850e-001
1.253556e+003;1.239473e-001
1.255485e+003;1.231554e-001
1.257413e+003;1.224591e-001
1.259342e+003;1.216272e-001
1.261270e+003;1.208191e-001
1.263199e+003;1.204993e-001
1.265127e+003;1.208663e-001
1.267056e+003;1.218636e-001
1.268985e+003;1.232443e-001
1.270913e+003;1.243463e-001
1.272842e+003;1.253651e-001
1.274770e+003;1.261447e-001
1.276699e+003;1.262677e-001
1.278627e+003;1.261421e-001
1.280556e+003;1.257146e-001
1.282484e+003;1.247628e-001
1.284413e+003;1.240765e-001
1.286342e+003;1.240627e-001
1.288270e+003;1.243081e-001
1.290199e+003;1.246997e-001
1.292127e+003;1.256608e-001
1.294056e+003;1.268499e-001
1.295984e+003;1.281532e-001
1.297913e+003;1.301261e-001
1.299841e+003;1.324745e-001
1.301770e+003;1.353081e-001
1.303698e+003;1.389461e-001
1.305627e+003;1.430726e-001
1.307556e+003;1.475160e-001
1.309484e+003;1.520226e-001
1.311413e+003;1.562548e-001
1.313341e+003;1.599289e-001
1.315270e+003;1.623400e-001
1.317198e+003;1.631059e-001
1.319127e+003;1.621460e-001
1.321055e+003;1.601319e-001
1.322984e+003;1.576927e-001
1.324912e+003;1.552381e-001
1.326841e+003;1.531535e-001
1.328770e+003;1.511767e-001
1.330698e+003;1.499773e-001
1.332627e+003;1.496693e-001
1.334555e+003;1.491062e-001
1.336484e+003;1.478923e-001
1.338412e+003;1.461749e-001
1.340341e+003;1.439614e-001
1.342269e+003;1.415455e-001
1.344198e+003;1.391335e-001
1.346126e+003;1.370911e-001
1.348055e+003;1.358826e-001
1.349984e+003;1.355942e-001
1.351912e+003;1.360665e-001
1.353841e+003;1.370288e-001
1.355769e+003;1.380436e-001
1.357698e+003;1.387116e-001
1.359626e+003;1.392268e-001
1.361555e+003;1.391109e-001
1.363483e+003;1.386094e-001
1.365412e+003;1.380587e-001
1.367341e+003;1.372340e-001
1.369269e+003;1.364845e-001
1.371198e+003;1.354894e-001
1.373126e+003;1.335816e-001
1.375055e+003;1.309923e-001
1.376983e+003;1.279490e-001
1.378912e+003;1.247936e-001
1.380840e+003;1.223128e-001
1.382769e+003;1.200462e-001
1.384698e+003;1.174360e-001
1.386626e+003;1.155310e-001
1.388555e+003;1.142431e-001
1.390483e+003;1.129458e-001
1.392412e+003;1.116547e-001
1.394340e+003;1.109668e-001
1.396269e+003;1.108604e-001
1.398197e+003;1.109510e-001
1.400126e+003;1.111145e-001
1.402054e+003;1.112222e-001
1.403983e+003;1.113993e-001
1.405911e+003;1.117457e-001
1.407840e+003;1.123989e-001
1.409769e+003;1.130757e-001
1.411697e+003;1.136313e-001
1.413626e+003;1.142442e-001
1.415554e+003;1.151812e-001
1.417483e+003;1.164775e-001
1.419411e+003;1.177261e-001
1.421340e+003;1.187892e-001
1.423268e+003;1.199949e-001
1.425197e+003;1.208031e-001
1.427125e+003;1.210520e-001
1.429054e+003;1.209059e-001
1.430983e+003;1.200654e-001
1.432911e+003;1.184866e-001
1.434840e+003;1.166895e-001
1.436768e+003;1.149634e-001
1.438697e+003;1.132392e-001
1.440625e+003;1.118853e-001
1.442554e+003;1.110616e-001
1.444482e+003;1.106924e-001
1.446411e+003;1.102090e-001
1.448340e+003;1.094961e-001
1.450268e+003;1.089913e-001
1.452197e+003;1.083216e-001
1.454125e+003;1.073850e-001
1.456054e+003;1.062193e-001
1.457982e+003;1.051241e-001
1.459911e+003;1.038618e-001
1.461839e+003;1.024447e-001
1.463768e+003;1.009702e-001
1.465697e+003;9.934680e-002
1.467625e+003;9.740946e-002
1.469554e+003;9.514978e-002
1.471482e+003;9.287716e-002
1.473411e+003;9.062500e-002
1.475339e+003;8.839086e-002
1.477268e+003;8.645005e-002
1.479196e+003;8.502280e-002
1.481125e+003;8.360755e-002
1.483053e+003;8.169138e-002
1.484982e+003;7.940578e-002
1.486911e+003;7.747103e-002
1.488839e+003;7.584281e-002
1.490768e+003;7.419410e-002
1.492696e+003;7.272729e-002
1.494625e+003;7.166912e-002
1.496553e+003;7.086756e-002
1.498482e+003;7.021154e-002
1.500410e+003;6.965485e-002
1.502339e+003;6.907092e-002
1.504267e+003;6.876974e-002
1.506196e+003;6.843412e-002
1.508125e+003;6.790606e-002
1.510053e+003;6.761730e-002
1.511982e+003;6.736250e-002
1.513910e+003;6.680772e-002
1.515839e+003;6.621486e-002
1.517767e+003;6.572133e-002
1.519696e+003;6.520206e-002
1.521624e+003;6.478240e-002
1.523553e+003;6.452781e-002
1.525481e+003;6.416641e-002
1.527410e+003;6.412558e-002
1.529339e+003;6.413699e-002
1.531267e+003;6.408542e-002
1.533196e+003;6.416764e-002
1.535124e+003;6.420018e-002
1.537053e+003;6.397486e-002
1.538981e+003;6.376890e-002
1.540910e+003;6.381933e-002
1.542838e+003;6.382401e-002
1.544767e+003;6.376184e-002
1.546695e+003;6.394251e-002
1.548624e+003;6.417967e-002
1.550553e+003;6.403354e-002
1.552481e+003;6.400105e-002
1.554410e+003;6.406084e-002
1.556338e+003;6.409951e-002
1.558267e+003;6.425776e-002
1.560195e+003;6.446369e-002
1.562124e+003;6.470040e-002
1.564052e+003;6.494514e-002
1.565981e+003;6.532759e-002
1.567910e+003;6.578042e-002
1.569838e+003;6.590644e-002
1.571767e+003;6.596170e-002
1.573695e+003;6.662629e-002
1.575624e+003;6.740534e-002
1.577552e+003;6.790052e-002
1.579481e+003;6.832944e-002
1.581409e+003;6.888920e-002
1.583338e+003;6.955762e-002
1.585266e+003;7.004666e-002
1.587195e+003;7.069866e-002
1.589124e+003;7.147287e-002
1.591052e+003;7.216046e-002
1.592981e+003;7.298502e-002
1.594909e+003;7.387215e-002
1.596838e+003;7.497434e-002
1.598766e+003;7.638588e-002
1.600695e+003;7.794785e-002
1.602623e+003;7.961635e-002
1.604552e+003;8.146764e-002
1.606480e+003;8.342727e-002
1.608409e+003;8.505883e-002
1.610338e+003;8.669934e-002
1.612266e+003;8.855359e-002
1.614195e+003;8.993129e-002
1.616123e+003;9.085914e-002
1.618052e+003;9.193210e-002
1.619980e+003;9.277340e-002
1.621909e+003;9.327522e-002
1.623837e+003;9.375583e-002
1.625766e+003;9.373774e-002
1.627694e+003;9.346160e-002
1.629623e+003;9.324635e-002
1.631552e+003;9.266412e-002
1.633480e+003;9.209382e-002
1.635409e+003;9.184444e-002
1.637337e+003;9.143669e-002
1.639266e+003;9.063957e-002
1.641194e+003;9.005491e-002
1.643123e+003;8.989950e-002
1.645051e+003;8.936854e-002
1.646980e+003;8.839022e-002
1.648909e+003;8.723627e-002
1.650837e+003;8.624879e-002
1.652766e+003;8.530063e-002
1.654694e+003;8.411742e-002
1.656623e+003;8.316512e-002
1.658551e+003;8.207370e-002
1.660480e+003;8.090638e-002
1.662408e+003;7.978319e-002
1.664337e+003;7.875945e-002
1.666266e+003;7.768400e-002
1.668194e+003;7.647715e-002
1.670123e+003;7.520106e-002
1.672051e+003;7.383813e-002
1.673980e+003;7.253444e-002
1.675908e+003;7.157534e-002
1.677837e+003;7.075181e-002
1.679765e+003;6.963568e-002
1.681694e+003;6.819405e-002
1.683622e+003;6.689422e-002
1.685551e+003;6.615968e-002
1.687479e+003;6.562994e-002
1.689408e+003;6.464795e-002
1.691337e+003;6.363814e-002
1.693265e+003;6.286979e-002
1.695194e+003;6.207028e-002
1.697122e+003;6.128055e-002
1.699051e+003;6.070398e-002
1.700979e+003;6.022261e-002
1.702908e+003;5.986485e-002
1.704836e+003;5.918698e-002
1.706765e+003;5.861418e-002
1.708693e+003;5.818383e-002
1.710622e+003;5.759566e-002
1.712551e+003;5.706605e-002
1.714479e+003;5.683059e-002
1.716408e+003;5.672003e-002
1.718336e+003;5.678697e-002
1.720265e+003;5.676847e-002
1.722193e+003;5.665230e-002
1.724122e+003;5.684766e-002
1.726050e+003;5.703352e-002
1.727979e+003;5.696393e-002
1.729908e+003;5.702551e-002
1.731836e+003;5.695433e-002
1.733765e+003;5.678750e-002
1.735693e+003;5.683845e-002
1.737622e+003;5.661654e-002
1.739550e+003;5.587566e-002
1.741479e+003;5.513769e-002
1.743407e+003;5.432475e-002
1.745336e+003;5.333424e-002
1.747265e+003;5.236065e-002
1.749193e+003;5.149121e-002
1.751122e+003;5.099187e-002
1.753050e+003;5.037533e-002
1.754979e+003;4.966347e-002
1.756907e+003;4.903593e-002
1.758836e+003;4.867185e-002
1.760764e+003;4.852270e-002
1.762693e+003;4.829190e-002
1.764621e+003;4.776385e-002
1.766550e+003;4.750156e-002
1.768479e+003;4.757627e-002
1.770407e+003;4.749575e-002
1.772336e+003;4.719689e-002
1.774264e+003;4.700298e-002
1.776193e+003;4.702041e-002
1.778121e+003;4.688012e-002
1.780050e+003;4.670088e-002
1.781978e+003;4.660637e-002
1.783907e+003;4.644254e-002
1.785835e+003;4.626872e-002
1.787764e+003;4.595653e-002
1.789693e+003;4.555251e-002
1.791621e+003;4.544143e-002
1.793550e+003;4.546317e-002
1.795478e+003;4.540722e-002
1.797407e+003;4.540759e-002
1.799335e+003;4.517678e-002
1.801264e+003;4.491453e-002
1.803192e+003;4.499644e-002
1.805121e+003;4.487816e-002
1.807049e+003;4.462644e-002
1.808978e+003;4.442985e-002
1.810907e+003;4.410504e-002
1.812835e+003;4.385528e-002
1.814764e+003;4.405725e-002
1.816692e+003;4.426571e-002
1.818621e+003;4.421211e-002
1.820549e+003;4.410339e-002
1.822478e+003;4.392793e-002
1.824406e+003;4.383160e-002
1.826335e+003;4.378040e-002
1.828264e+003;4.356800e-002
1.830192e+003;4.346193e-002
1.832121e+003;4.348028e-002
1.834049e+003;4.338503e-002
1.835978e+003;4.345241e-002
1.837906e+003;4.327297e-002
1.839835e+003;4.278028e-002
1.841763e+003;4.246316e-002
1.843692e+003;4.234195e-002
1.845620e+003;4.232102e-002
1.847549e+003;4.269195e-002
1.849478e+003;4.269126e-002
1.851406e+003;4.229184e-002
1.853335e+003;4.211934e-002
1.855263e+003;4.210123e-002
1.857192e+003;4.206860e-002
1.859120e+003;4.194570e-002
1.861049e+003;4.161089e-002
1.862977e+003;4.163470e-002
1.864906e+003;4.183809e-002
1.866834e+003;4.208137e-002
1.868763e+003;4.233450e-002
1.870692e+003;4.236098e-002
1.872620e+003;4.222592e-002
1.874549e+003;4.206225e-002
1.876477e+003;4.183642e-002
1.878406e+003;4.173190e-002
1.880334e+003;4.176637e-002
1.882263e+003;4.173176e-002
1.884191e+003;4.178118e-002
1.886120e+003;4.184809e-002
1.888048e+003;4.189710e-002
1.889977e+003;4.189575e-002
1.891906e+003;4.178035e-002
1.893834e+003;4.171804e-002
1.895763e+003;4.184623e-002
1.897691e+003;4.185627e-002
1.899620e+003;4.173985e-002
1.901548e+003;4.179519e-002
1.903477e+003;4.160867e-002
1.905405e+003;4.147894e-002
1.907334e+003;4.139616e-002
1.909262e+003;4.159991e-002
1.911191e+003;4.188684e-002
1.913120e+003;4.182233e-002
1.915048e+003;4.186046e-002
1.916977e+003;4.191596e-002
1.918905e+003;4.209305e-002
1.920834e+003;4.220124e-002
1.922762e+003;4.223637e-002
1.924691e+003;4.244033e-002
1.926619e+003;4.248560e-002
1.928548e+003;4.224009e-002
1.930477e+003;4.240836e-002
1.932405e+003;4.261866e-002
1.934334e+003;4.267002e-002
1.936262e+003;4.269495e-002
1.938191e+003;4.264944e-002
1.940119e+003;4.272646e-002
1.942048e+003;4.295922e-002
1.943976e+003;4.315943e-002
1.945905e+003;4.304175e-002
1.947833e+003;4.289737e-002
1.949762e+003;4.286833e-002
1.951691e+003;4.308939e-002
1.953619e+003;4.335431e-002
1.955548e+003;4.331477e-002
1.957476e+003;4.322300e-002
1.959405e+003;4.332488e-002
1.961333e+003;4.350533e-002
1.963262e+003;4.352441e-002
1.965190e+003;4.341132e-002
1.967119e+003;4.347207e-002
1.969047e+003;4.362159e-002
1.970976e+003;4.356815e-002
1.972905e+003;4.363845e-002
1.974833e+003;4.367651e-002
1.976762e+003;4.389637e-002
1.978690e+003;4.416109e-002
1.980619e+003;4.401802e-002
1.982547e+003;4.407654e-002
1.984476e+003;4.439811e-002
1.986404e+003;4.441866e-002
1.988333e+003;4.442934e-002
1.990261e+003;4.447966e-002
1.992190e+003;4.445261e-002
1.994119e+003;4.434203e-002
1.996047e+003;4.433084e-002
1.997976e+003;4.440244e-002
1.999904e+003;4.458077e-002
2.001833e+003;4.493059e-002
2.003761e+003;4.498002e-002
2.005690e+003;4.483293e-002
2.007618e+003;4.489227e-002
2.009547e+003;4.481115e-002
2.011476e+003;4.501607e-002
2.013404e+003;4.548543e-002
2.015333e+003;4.548017e-002
2.017261e+003;4.532446e-002
2.019190e+003;4.546582e-002
2.021118e+003;4.575602e-002
2.023047e+003;4.576629e-002
2.024975e+003;4.586434e-002
2.026904e+003;4.627900e-002
2.028833e+003;4.634414e-002
2.030761e+003;4.638510e-002
2.032690e+003;4.640283e-002
2.034618e+003;4.643716e-002
2.036547e+003;4.654226e-002
2.038475e+003;4.650468e-002
2.040404e+003;4.645324e-002
2.042332e+003;4.646935e-002
2.044261e+003;4.654905e-002
2.046189e+003;4.661113e-002
2.048118e+003;4.676450e-002
2.050047e+003;4.673785e-002
2.051975e+003;4.649775e-002
2.053904e+003;4.647787e-002
2.055832e+003;4.646714e-002
2.057761e+003;4.638093e-002
2.059689e+003;4.621178e-002
2.061618e+003;4.618962e-002
2.063546e+003;4.641751e-002
2.065475e+003;4.644752e-002
2.067404e+003;4.614806e-002
2.069332e+003;4.598868e-002
2.071260e+003;4.602032e-002
2.073189e+003;4.617558e-002
2.075118e+003;4.618845e-002
2.077046e+003;4.594699e-002
2.078975e+003;4.595524e-002
2.080903e+003;4.611700e-002
2.082832e+003;4.609795e-002
2.084760e+003;4.609106e-002
2.086689e+003;4.634996e-002
2.088617e+003;4.637562e-002
2.090546e+003;4.617868e-002
2.092475e+003;4.619250e-002
2.094403e+003;4.633072e-002
2.096332e+003;4.628132e-002
2.098260e+003;4.626083e-002
2.100189e+003;4.633898e-002
2.102117e+003;4.633407e-002
2.104046e+003;4.634480e-002
2.105974e+003;4.657346e-002
2.107903e+003;4.694092e-002
2.109832e+003;4.700885e-002
2.111760e+003;4.674586e-002
2.113688e+003;4.668808e-002
2.115617e+003;4.707816e-002
2.117546e+003;4.753919e-002
2.119474e+003;4.777939e-002
2.121403e+003;4.763435e-002
2.123331e+003;4.741740e-002
2.125260e+003;4.742412e-002
2.127188e+003;4.760972e-002
2.129117e+003;4.751209e-002
2.131045e+003;4.731559e-002
2.132974e+003;4.741455e-002
2.134903e+003;4.756362e-002
2.136831e+003;4.736152e-002
2.138760e+003;4.719856e-002
2.140688e+003;4.720628e-002
2.142617e+003;4.697499e-002
2.144545e+003;4.666816e-002
2.146474e+003;4.671346e-002
2.148402e+003;4.698511e-002
2.150331e+003;4.690799e-002
2.152260e+003;4.678424e-002
2.154188e+003;4.671276e-002
2.156117e+003;4.654075e-002
2.158045e+003;4.626610e-002
2.159974e+003;4.618001e-002
2.161902e+003;4.629043e-002
2.163831e+003;4.612927e-002
2.165759e+003;4.571398e-002
2.167688e+003;4.547977e-002
2.169616e+003;4.534403e-002
2.171545e+003;4.518395e-002
2.173474e+003;4.494863e-002
2.175402e+003;4.488374e-002
2.177331e+003;4.486008e-002
2.179259e+003;4.479267e-002
2.181188e+003;4.464407e-002
2.183116e+003;4.445569e-002
2.185045e+003;4.398271e-002
2.186973e+003;4.355752e-002
2.188902e+003;4.377736e-002
2.190831e+003;4.383589e-002
2.192759e+003;4.344900e-002
2.194688e+003;4.345080e-002
2.196616e+003;4.373796e-002
2.198545e+003;4.391246e-002
2.200473e+003;4.376933e-002
2.202402e+003;4.360291e-002
2.204330e+003;4.363244e-002
2.206259e+003;4.339023e-002
2.208188e+003;4.307809e-002
2.210116e+003;4.300397e-002
2.212044e+003;4.293958e-002
2.213973e+003;4.305292e-002
2.215902e+003;4.315376e-002
2.217830e+003;4.306305e-002
2.219759e+003;4.307318e-002
2.221687e+003;4.307626e-002
2.223616e+003;4.303275e-002
2.225544e+003;4.280452e-002
2.227473e+003;4.274891e-002
2.229401e+003;4.276489e-002
2.231330e+003;4.287876e-002
2.233259e+003;4.286852e-002
2.235187e+003;4.256874e-002
2.237116e+003;4.263090e-002
2.239044e+003;4.294496e-002
2.240973e+003;4.284848e-002
2.242901e+003;4.266771e-002
2.244830e+003;4.253924e-002
2.246758e+003;4.249971e-002
2.248687e+003;4.242403e-002
2.250615e+003;4.234831e-002
2.252544e+003;4.242049e-002
2.254473e+003;4.252214e-002
2.256401e+003;4.246949e-002
2.258330e+003;4.233103e-002
2.260258e+003;4.212766e-002
2.262187e+003;4.208491e-002
2.264115e+003;4.206407e-002
2.266044e+003;4.168365e-002
2.267972e+003;4.131719e-002
2.269901e+003;4.137976e-002
2.271830e+003;4.126730e-002
2.273758e+003;4.133613e-002
2.275687e+003;4.120471e-002
2.277615e+003;4.077066e-002
2.279544e+003;4.079428e-002
2.281472e+003;4.087979e-002
2.283401e+003;4.080065e-002
2.285329e+003;4.104134e-002
2.287258e+003;4.137120e-002
2.289187e+003;4.141165e-002
2.291115e+003;4.118208e-002
2.293043e+003;4.087440e-002
2.294972e+003;4.047355e-002
2.296901e+003;4.041071e-002
2.298829e+003;4.058712e-002
2.300758e+003;4.052353e-002
2.302686e+003;4.032803e-002
2.304615e+003;4.038071e-002
2.306543e+003;4.054889e-002
2.308472e+003;4.058410e-002
2.310400e+003;4.047567e-002
2.312329e+003;4.043322e-002
2.314258e+003;4.065752e-002
2.316186e+003;4.087312e-002
2.318115e+003;4.083628e-002
2.320043e+003;4.063714e-002
2.321972e+003;4.059916e-002
2.323900e+003;4.066738e-002
2.325829e+003;4.083370e-002
2.327757e+003;4.091597e-002
2.329686e+003;4.090880e-002
2.331615e+003;4.111717e-002
2.333543e+003;4.141879e-002
2.335472e+003;4.146177e-002
2.337400e+003;4.158602e-002
2.339329e+003;4.172202e-002
2.341257e+003;4.176010e-002
2.343186e+003;4.195866e-002
2.345114e+003;4.192056e-002
2.347043e+003;4.184324e-002
2.348971e+003;4.210141e-002
2.350900e+003;4.236989e-002
2.352829e+003;4.233326e-002
2.354757e+003;4.215322e-002
2.356686e+003;4.247015e-002
2.358614e+003;4.279118e-002
2.360543e+003;4.274781e-002
2.362471e+003;4.270771e-002
2.364400e+003;4.275725e-002
2.366328e+003;4.275216e-002
2.368257e+003;4.266830e-002
2.370186e+003;4.266972e-002
2.372114e+003;4.285334e-002
2.374042e+003;4.278423e-002
2.375971e+003;4.270650e-002
2.377900e+003;4.284190e-002
2.379828e+003;4.288168e-002
2.381757e+003;4.290326e-002
2.383685e+003;4.296138e-002
2.385614e+003;4.300210e-002
2.387542e+003;4.333974e-002
2.389471e+003;4.383120e-002
2.391399e+003;4.409903e-002
2.393328e+003;4.398707e-002
2.395257e+003;4.381591e-002
2.397185e+003;4.395052e-002
2.399114e+003;4.418434e-002
2.401042e+003;4.424337e-002
2.402971e+003;4.420254e-002
2.404899e+003;4.439799e-002
2.406828e+003;4.473144e-002
2.408756e+003;4.474606e-002
2.410685e+003;4.475608e-002
2.412614e+003;4.477430e-002
2.414542e+003;4.525470e-002
2.416471e+003;4.555807e-002
2.418399e+003;4.547388e-002
2.420328e+003;4.558979e-002
2.422256e+003;4.570739e-002
2.424185e+003;4.589402e-002
2.426113e+003;4.614931e-002
2.428042e+003;4.619965e-002
2.429970e+003;4.626533e-002
2.431899e+003;4.655322e-002
2.433828e+003;4.662621e-002
2.435756e+003;4.636423e-002
2.437685e+003;4.612658e-002
2.439613e+003;4.625213e-002
2.441542e+003;4.678372e-002
2.443470e+003;4.722091e-002
2.445399e+003;4.718319e-002
2.447327e+003;4.719704e-002
2.449256e+003;4.733337e-002
2.451185e+003;4.737645e-002
2.453113e+003;4.752743e-002
2.455042e+003;4.773164e-002
2.456970e+003;4.790254e-002
2.458899e+003;4.788411e-002
2.460827e+003;4.771759e-002
2.462756e+003;4.761671e-002
2.464684e+003;4.767983e-002
2.466613e+003;4.789884e-002
2.468542e+003;4.816623e-002
2.470470e+003;4.868868e-002
2.472398e+003;4.885216e-002
2.474327e+003;4.895225e-002
2.476256e+003;4.910986e-002
2.478184e+003;4.897428e-002
2.480113e+003;4.895381e-002
2.482041e+003;4.932202e-002
2.483970e+003;4.972439e-002
2.485898e+003;4.983230e-002
2.487827e+003;4.969059e-002
2.489755e+003;4.967123e-002
2.491684e+003;5.005255e-002
2.493613e+003;5.024489e-002
2.495541e+003;5.006783e-002
2.497470e+003;5.007303e-002
2.499398e+003;5.053253e-002
2.501327e+003;5.091270e-002
2.503255e+003;5.081719e-002
2.505184e+003;5.064641e-002
2.507112e+003;5.066755e-002
2.509041e+003;5.073142e-002
2.510969e+003;5.098427e-002
2.512898e+003;5.148920e-002
2.514827e+003;5.168475e-002
2.516755e+003;5.139304e-002
2.518684e+003;5.139035e-002
2.520612e+003;5.161903e-002
2.522541e+003;5.172573e-002
2.524469e+003;5.167031e-002
2.526398e+003;5.185867e-002
2.528326e+003;5.194746e-002
2.530255e+003;5.174921e-002
2.532184e+003;5.177538e-002
2.534112e+003;5.211801e-002
2.536041e+003;5.228511e-002
2.537969e+003;5.252612e-002
2.539898e+003;5.255903e-002
2.541826e+003;5.222110e-002
2.543755e+003;5.232735e-002
2.545683e+003;5.260858e-002
2.547612e+003;5.252451e-002
2.549541e+003;5.232178e-002
2.551469e+003;5.252201e-002
2.553397e+003;5.272181e-002
2.555326e+003;5.274377e-002
2.557255e+003;5.285846e-002
2.559183e+003;5.287743e-002
2.561112e+003;5.276884e-002
2.563040e+003;5.270363e-002
2.564969e+003;5.274108e-002
2.566897e+003;5.275907e-002
2.568826e+003;5.262553e-002
2.570754e+003;5.240652e-002
2.572683e+003;5.274306e-002
2.574612e+003;5.326333e-002
2.576540e+003;5.332937e-002
2.578469e+003;5.320734e-002
2.580397e+003;5.325202e-002
2.582326e+003;5.329899e-002
2.584254e+003;5.321756e-002
2.586183e+003;5.320030e-002
2.588111e+003;5.345801e-002
2.590040e+003;5.373821e-002
2.591969e+003;5.385965e-002
2.593897e+003;5.375066e-002
2.595826e+003;5.380771e-002
2.597754e+003;5.428138e-002
2.599683e+003;5.439940e-002
2.601611e+003;5.455172e-002
2.603540e+003;5.478617e-002
2.605468e+003;5.468683e-002
2.607397e+003;5.470284e-002
2.609325e+003;5.520756e-002
2.611254e+003;5.522972e-002
2.613183e+003;5.506570e-002
2.615111e+003;5.526705e-002
2.617040e+003;5.532892e-002
2.618968e+003;5.541553e-002
2.620897e+003;5.570676e-002
2.622825e+003;5.591372e-002
2.624754e+003;5.590958e-002
2.626682e+003;5.608093e-002
2.628611e+003;5.612961e-002
2.630540e+003;5.636801e-002
2.632468e+003;5.655513e-002
2.634396e+003;5.652521e-002
2.636325e+003;5.658427e-002
2.638254e+003;5.676647e-002
2.640182e+003;5.702290e-002
2.642111e+003;5.717361e-002
2.644039e+003;5.729797e-002
2.645968e+003;5.751069e-002
2.647896e+003;5.731423e-002
2.649825e+003;5.733711e-002
2.651753e+003;5.771208e-002
2.653682e+003;5.767976e-002
2.655611e+003;5.778293e-002
2.657539e+003;5.815140e-002
2.659468e+003;5.855510e-002
2.661396e+003;5.860667e-002
2.663325e+003;5.835146e-002
2.665253e+003;5.841930e-002
2.667182e+003;5.883437e-002
2.669110e+003;5.880459e-002
2.671039e+003;5.884928e-002
2.672968e+003;5.898654e-002
2.674896e+003;5.901607e-002
2.676825e+003;5.907016e-002
2.678753e+003;5.908724e-002
2.680682e+003;5.948383e-002
2.682610e+003;6.005741e-002
2.684539e+003;6.023821e-002
2.686467e+003;6.008149e-002
2.688396e+003;6.009348e-002
2.690324e+003;6.020948e-002
2.692253e+003;6.043893e-002
2.694182e+003;6.083752e-002
2.696110e+003;6.113886e-002
2.698039e+003;6.107948e-002
2.699967e+003;6.094605e-002
2.701896e+003;6.117521e-002
2.703824e+003;6.144171e-002
2.705753e+003;6.136896e-002
2.707681e+003;6.129596e-002
2.709610e+003;6.146751e-002
2.711539e+003;6.166318e-002
2.713467e+003;6.193063e-002
2.715396e+003;6.222994e-002
2.717324e+003;6.240139e-002
2.719253e+003;6.244665e-002
2.721181e+003;6.242500e-002
2.723110e+003;6.236849e-002
2.725038e+003;6.276675e-002
2.726967e+003;6.294800e-002
2.728896e+003;6.280389e-002
2.730824e+003;6.291993e-002
2.732752e+003;6.291801e-002
2.734681e+003;6.294264e-002
2.736610e+003;6.299726e-002
2.738538e+003;6.307737e-002
2.740467e+003;6.337616e-002
2.742395e+003;6.379062e-002
2.744324e+003;6.377857e-002
2.746252e+003;6.348671e-002
2.748181e+003;6.346424e-002
2.750109e+003;6.368468e-002
2.752038e+003;6.388696e-002
2.753967e+003;6.405588e-002
2.755895e+003;6.413727e-002
2.757824e+003;6.403465e-002
2.759752e+003;6.407082e-002
2.761681e+003;6.422488e-002
2.763609e+003;6.421201e-002
2.765538e+003;6.436119e-002
2.767466e+003;6.477648e-002
2.769395e+003;6.490166e-002
2.771323e+003;6.486303e-002
2.773252e+003;6.497326e-002
2.775181e+003;6.532940e-002
2.777109e+003;6.585623e-002
2.779038e+003;6.613800e-002
2.780966e+003;6.613927e-002
2.782895e+003;6.612499e-002
2.784823e+003;6.616011e-002
2.786752e+003;6.621961e-002
2.788680e+003;6.647910e-002
2.790609e+003;6.700443e-002
2.792538e+003;6.741257e-002
2.794466e+003;6.777048e-002
2.796395e+003;6.820234e-002
2.798323e+003;6.865939e-002
2.800252e+003;6.891809e-002
2.802180e+003;6.856389e-002
2.804109e+003;6.839254e-002
2.806037e+003;6.902722e-002
2.807966e+003;6.982075e-002
2.809895e+003;7.023603e-002
2.811823e+003;7.082941e-002
2.813751e+003;7.153631e-002
2.815680e+003;7.192027e-002
2.817609e+003;7.189364e-002
2.819537e+003;7.198980e-002
2.821466e+003;7.264907e-002
2.823394e+003;7.347672e-002
2.825323e+003;7.426640e-002
2.827251e+003;7.485296e-002
2.829180e+003;7.547054e-002
2.831108e+003;7.637770e-002
2.833037e+003;7.710943e-002
2.834966e+003;7.801328e-002
2.836894e+003;7.920255e-002
2.838823e+003;8.023079e-002
2.840751e+003;8.120599e-002
2.842680e+003;8.248072e-002
2.844608e+003;8.445998e-002
2.846537e+003;8.639341e-002
2.848465e+003;8.858147e-002
2.850394e+003;9.067190e-002
2.852323e+003;9.184223e-002
2.854251e+003;9.296449e-002
2.856180e+003;9.383713e-002
2.858108e+003;9.442208e-002
2.860037e+003;9.527387e-002
2.861965e+003;9.593564e-002
2.863894e+003;9.651093e-002
2.865822e+003;9.714280e-002
2.867751e+003;9.763709e-002
2.869679e+003;9.848254e-002
2.871608e+003;9.914972e-002
2.873536e+003;9.961449e-002
2.875465e+003;1.001706e-001
2.877394e+003;1.005868e-001
2.879322e+003;1.005333e-001
2.881251e+003;1.009155e-001
2.883179e+003;1.017624e-001
2.885108e+003;1.023939e-001
2.887036e+003;1.030297e-001
2.888965e+003;1.034696e-001
2.890893e+003;1.034998e-001
2.892822e+003;1.039908e-001
2.894750e+003;1.045341e-001
2.896679e+003;1.044852e-001
2.898608e+003;1.044390e-001
2.900536e+003;1.045715e-001
2.902465e+003;1.043565e-001
2.904393e+003;1.038358e-001
2.906322e+003;1.034875e-001
2.908250e+003;1.034956e-001
2.910179e+003;1.032854e-001
2.912107e+003;1.027052e-001
2.914036e+003;1.021667e-001
2.915965e+003;1.017175e-001
2.917893e+003;1.008888e-001
2.919822e+003;1.001338e-001
2.921750e+003;9.994253e-002
2.923679e+003;9.909959e-002
2.925607e+003;9.734317e-002
2.927536e+003;9.575298e-002
2.929464e+003;9.428208e-002
2.931393e+003;9.284848e-002
2.933322e+003;9.123552e-002
2.935250e+003;8.979774e-002
2.937178e+003;8.852824e-002
2.939107e+003;8.711801e-002
2.941036e+003;8.585595e-002
2.942964e+003;8.517907e-002
2.944893e+003;8.484033e-002
2.946821e+003;8.387659e-002
2.948750e+003;8.261448e-002
2.950678e+003;8.147156e-002
2.952607e+003;8.019210e-002
2.954535e+003;7.861012e-002
2.956464e+003;7.715855e-002
2.958393e+003;7.623226e-002
2.960321e+003;7.516923e-002
2.962250e+003;7.365205e-002
2.964178e+003;7.261418e-002
2.966107e+003;7.192692e-002
2.968035e+003;7.115678e-002
2.969964e+003;7.047042e-002
2.971892e+003;6.960048e-002
2.973821e+003;6.863323e-002
2.975750e+003;6.827232e-002
2.977678e+003;6.732211e-002
2.979607e+003;6.573432e-002
2.981535e+003;6.468560e-002
2.983464e+003;6.431659e-002
2.985392e+003;6.395717e-002
2.987321e+003;6.343877e-002
2.989249e+003;6.295662e-002
2.991178e+003;6.288619e-002
2.993106e+003;6.296328e-002
2.995035e+003;6.287366e-002
2.996964e+003;6.265122e-002
2.998892e+003;6.259447e-002
3.000821e+003;6.255183e-002
3.002749e+003;6.240992e-002
3.004678e+003;6.173437e-002
3.006606e+003;6.125926e-002
3.008535e+003;6.178342e-002
3.010463e+003;6.193338e-002
3.012392e+003;6.170859e-002
3.014321e+003;6.212162e-002
3.016249e+003;6.283085e-002
3.018177e+003;6.325882e-002
3.020106e+003;6.325521e-002
3.022035e+003;6.301036e-002
3.023963e+003;6.329918e-002
3.025892e+003;6.367163e-002
3.027820e+003;6.399272e-002
3.029749e+003;6.429245e-002
3.031677e+003;6.399537e-002
3.033606e+003;6.411921e-002
3.035534e+003;6.481440e-002
3.037463e+003;6.536303e-002
3.039392e+003;6.554659e-002
3.041320e+003;6.531696e-002
3.043249e+003;6.544676e-002
3.045177e+003;6.595434e-002
3.047106e+003;6.621613e-002
3.049034e+003;6.644813e-002
3.050963e+003;6.695432e-002
3.052891e+003;6.755891e-002
3.054820e+003;6.796456e-002
3.056749e+003;6.817311e-002
3.058677e+003;6.862159e-002
3.060606e+003;6.892236e-002
3.062534e+003;6.904109e-002
3.064463e+003;6.938922e-002
3.066391e+003;6.961083e-002
3.068320e+003;6.973674e-002
3.070248e+003;6.999063e-002
3.072177e+003;7.032800e-002
3.074105e+003;7.075656e-002
3.076034e+003;7.124723e-002
3.077963e+003;7.184610e-002
3.079891e+003;7.229002e-002
3.081820e+003;7.235581e-002
3.083748e+003;7.275656e-002
3.085677e+003;7.337753e-002
3.087605e+003;7.353335e-002
3.089534e+003;7.384096e-002
3.091462e+003;7.448071e-002
3.093391e+003;7.496516e-002
3.095320e+003;7.527237e-002
3.097248e+003;7.603126e-002
3.099177e+003;7.638556e-002
3.101105e+003;7.609841e-002
3.103034e+003;7.647833e-002
3.104962e+003;7.763491e-002
3.106891e+003;7.828392e-002
3.108819e+003;7.847228e-002
3.110748e+003;7.889024e-002
3.112677e+003;7.920063e-002
3.114605e+003;7.946315e-002
3.116533e+003;7.951818e-002
3.118462e+003;7.996838e-002
3.120391e+003;8.094271e-002
3.122319e+003;8.166506e-002
3.124248e+003;8.228505e-002
3.126176e+003;8.285681e-002
3.128105e+003;8.320898e-002
3.130033e+003;8.369331e-002
3.131962e+003;8.425795e-002
3.133890e+003;8.456662e-002
3.135819e+003;8.469143e-002
3.137748e+003;8.535786e-002
3.139676e+003;8.650637e-002
3.141605e+003;8.702816e-002
3.143533e+003;8.720051e-002
3.145462e+003;8.764029e-002
3.147390e+003;8.839720e-002
3.149319e+003;8.918891e-002
3.151247e+003;8.931115e-002
3.153176e+003;8.948563e-002
3.155104e+003;8.978540e-002
3.157033e+003;9.083553e-002
3.158962e+003;9.204905e-002
3.160890e+003;9.245238e-002
3.162819e+003;9.279642e-002
3.164747e+003;9.338535e-002
3.166676e+003;9.426356e-002
3.168604e+003;9.458493e-002
3.170533e+003;9.491092e-002
3.172461e+003;9.611069e-002
3.174390e+003;9.700909e-002
3.176319e+003;9.716585e-002
3.178247e+003;9.750456e-002
3.180176e+003;9.792456e-002
3.182104e+003;9.856760e-002
3.184033e+003;9.939058e-002
3.185961e+003;1.003833e-001
3.187890e+003;1.012759e-001
3.189818e+003;1.015678e-001
3.191747e+003;1.020999e-001
3.193676e+003;1.028612e-001
3.195604e+003;1.034947e-001
3.197532e+003;1.042870e-001
3.199461e+003;1.051543e-001
3.201390e+003;1.059235e-001
3.203318e+003;1.067586e-001
3.205247e+003;1.073323e-001
3.207175e+003;1.079232e-001
3.209104e+003;1.087225e-001
3.211032e+003;1.096544e-001
3.212961e+003;1.103726e-001
3.214889e+003;1.114025e-001
3.216818e+003;1.122620e-001
3.218747e+003;1.132115e-001
3.220675e+003;1.142094e-001
3.222604e+003;1.151912e-001
3.224532e+003;1.163352e-001
3.226461e+003;1.166615e-001
3.228389e+003;1.170531e-001
3.230318e+003;1.179186e-001
3.232246e+003;1.188498e-001
3.234175e+003;1.200155e-001
3.236104e+003;1.206499e-001
3.238032e+003;1.210281e-001
3.239961e+003;1.220897e-001
3.241889e+003;1.234584e-001
3.243818e+003;1.242714e-001
3.245746e+003;1.250204e-001
3.247675e+003;1.256072e-001
3.249603e+003;1.262019e-001
3.251532e+003;1.274242e-001
3.253460e+003;1.285234e-001
3.255389e+003;1.292566e-001
3.257318e+003;1.302219e-001
3.259246e+003;1.311738e-001
3.261175e+003;1.319206e-001
3.263103e+003;1.329391e-001
3.265032e+003;1.337953e-001
3.266960e+003;1.345107e-001
3.268889e+003;1.351806e-001
3.270817e+003;1.364924e-001
3.272746e+003;1.370772e-001
3.274675e+003;1.368204e-001
3.276603e+003;1.372300e-001
3.278531e+003;1.378514e-001
3.280460e+003;1.382274e-001
3.282389e+003;1.383918e-001
3.284317e+003;1.391078e-001
3.286246e+003;1.397410e-001
3.288174e+003;1.397464e-001
3.290103e+003;1.399895e-001
3.292031e+003;1.408276e-001
3.293960e+003;1.409763e-001
3.295888e+003;1.410562e-001
3.297817e+003;1.414118e-001
3.299746e+003;1.417614e-001
3.301674e+003;1.423545e-001
3.303603e+003;1.423736e-001
3.305531e+003;1.418083e-001
3.307460e+003;1.420732e-001
3.309388e+003;1.429162e-001
3.311317e+003;1.432335e-001
3.313245e+003;1.436241e-001
3.315174e+003;1.445558e-001
3.317103e+003;1.452306e-001
3.319031e+003;1.455027e-001
3.320960e+003;1.460296e-001
3.322888e+003;1.456190e-001
3.324817e+003;1.457435e-001
3.326745e+003;1.463677e-001
3.328674e+003;1.464443e-001
3.330602e+003;1.459682e-001
3.332531e+003;1.461561e-001
3.334459e+003;1.464208e-001
3.336388e+003;1.461281e-001
3.338317e+003;1.452993e-001
3.340245e+003;1.448861e-001
3.342174e+003;1.450491e-001
3.344102e+003;1.442807e-001
3.346031e+003;1.432495e-001
3.347959e+003;1.424437e-001
3.349888e+003;1.415898e-001
3.351816e+003;1.412673e-001
3.353745e+003;1.405479e-001
3.355674e+003;1.396713e-001
3.357602e+003;1.397740e-001
3.359531e+003;1.396140e-001
3.361459e+003;1.389318e-001
3.363388e+003;1.380772e-001
3.365316e+003;1.376015e-001
3.367245e+003;1.371423e-001
3.369173e+003;1.367680e-001
3.371102e+003;1.358927e-001
3.373031e+003;1.348536e-001
3.374959e+003;1.340441e-001
3.376887e+003;1.334032e-001
3.378816e+003;1.330632e-001
3.380745e+003;1.327652e-001
3.382673e+003;1.325840e-001
3.384602e+003;1.324697e-001
3.386530e+003;1.315723e-001
3.388459e+003;1.305535e-001
3.390387e+003;1.300069e-001
3.392316e+003;1.294522e-001
3.394244e+003;1.285518e-001
3.396173e+003;1.279661e-001
3.398102e+003;1.280579e-001
3.400030e+003;1.274410e-001
3.401959e+003;1.265570e-001
3.403887e+003;1.259950e-001
3.405816e+003;1.252998e-001
3.407744e+003;1.246644e-001
3.409673e+003;1.234915e-001
3.411601e+003;1.231185e-001
3.413530e+003;1.231591e-001
3.415458e+003;1.216969e-001
3.417387e+003;1.203545e-001
3.419316e+003;1.201428e-001
3.421244e+003;1.196434e-001
3.423173e+003;1.186381e-001
3.425101e+003;1.173980e-001
3.427030e+003;1.165052e-001
3.428958e+003;1.162912e-001
3.430887e+003;1.157033e-001
3.432815e+003;1.144570e-001
3.434744e+003;1.131951e-001
3.436673e+003;1.125024e-001
3.438601e+003;1.117453e-001
3.440530e+003;1.111432e-001
3.442458e+003;1.103548e-001
3.444387e+003;1.094866e-001
3.446315e+003;1.090338e-001
3.448244e+003;1.084477e-001
3.450172e+003;1.075135e-001
3.452101e+003;1.062844e-001
3.454030e+003;1.049005e-001
3.455958e+003;1.036698e-001
3.457886e+003;1.029297e-001
3.459815e+003;1.020106e-001
3.461744e+003;1.007376e-001
3.463672e+003;9.998912e-002
3.465601e+003;9.903575e-002
3.467529e+003;9.819561e-002
3.469458e+003;9.791709e-002
3.471386e+003;9.717032e-002
3.473315e+003;9.629213e-002
3.475243e+003;9.513534e-002
3.477172e+003;9.350344e-002
3.479101e+003;9.237699e-002
3.481029e+003;9.171452e-002
3.482958e+003;9.105723e-002
3.484886e+003;9.013051e-002
3.486815e+003;8.895522e-002
3.488743e+003;8.771924e-002
3.490672e+003;8.681886e-002
3.492600e+003;8.622134e-002
3.494529e+003;8.577084e-002
3.496458e+003;8.460236e-002
3.498386e+003;8.323462e-002
3.500315e+003;8.242656e-002
3.502243e+003;8.116689e-002
3.504172e+003;8.024574e-002
3.506100e+003;7.941708e-002
3.508029e+003;7.831051e-002
3.509957e+003;7.787943e-002
3.511886e+003;7.730583e-002
3.513814e+003;7.639911e-002
3.515743e+003;7.537772e-002
3.517672e+003;7.395840e-002
3.519600e+003;7.288124e-002
3.521529e+003;7.197177e-002
3.523457e+003;7.121791e-002
3.525386e+003;7.016683e-002
3.527314e+003;6.897359e-002
3.529243e+003;6.818714e-002
3.531171e+003;6.769957e-002
3.533100e+003;6.698869e-002
3.535029e+003;6.634602e-002
3.536957e+003;6.581262e-002
3.538885e+003;6.518111e-002
3.540814e+003;6.470972e-002
3.542743e+003;6.346865e-002
3.544671e+003;6.194492e-002
3.546600e+003;6.108001e-002
3.548528e+003;6.070779e-002
3.550457e+003;5.969466e-002
3.552385e+003;5.855791e-002
3.554314e+003;5.816276e-002
3.556242e+003;5.760012e-002
3.558171e+003;5.666921e-002
3.560100e+003;5.567892e-002
3.562028e+003;5.520809e-002
3.563957e+003;5.472058e-002
3.565885e+003;5.382728e-002
3.567814e+003;5.260959e-002
3.569742e+003;5.194343e-002
3.571671e+003;5.162810e-002
3.573599e+003;5.097522e-002
3.575528e+003;5.001834e-002
3.577457e+003;4.922063e-002
3.579385e+003;4.823672e-002
3.581314e+003;4.734238e-002
3.583242e+003;4.728257e-002
3.585171e+003;4.713381e-002
3.587099e+003;4.588228e-002
3.589028e+003;4.487599e-002
3.590956e+003;4.461065e-002
3.592885e+003;4.409264e-002
3.594813e+003;4.345699e-002
3.596742e+003;4.210123e-002
3.598671e+003;4.107590e-002
3.600599e+003;4.081244e-002
3.602528e+003;4.040537e-002
3.604456e+003;3.997313e-002
3.606385e+003;3.985120e-002
3.608313e+003;3.970943e-002
3.610242e+003;3.896890e-002
3.612170e+003;3.823535e-002
3.614099e+003;3.779508e-002
3.616028e+003;3.744442e-002
3.617956e+003;3.687619e-002
3.619885e+003;3.585706e-002
3.621813e+003;3.543041e-002
3.623742e+003;3.543756e-002
3.625670e+003;3.535948e-002
3.627599e+003;3.472556e-002
3.629527e+003;3.392565e-002
3.631456e+003;3.290187e-002
3.633385e+003;3.190436e-002
3.635313e+003;3.138204e-002
3.637241e+003;3.094268e-002
3.639170e+003;3.072132e-002
3.641099e+003;3.018653e-002
3.643027e+003;2.959686e-002
3.644956e+003;2.904684e-002
3.646884e+003;2.837480e-002
3.648813e+003;2.772728e-002
3.650741e+003;2.730134e-002
3.652670e+003;2.703605e-002
3.654598e+003;2.712989e-002
3.656527e+003;2.677261e-002
3.658456e+003;2.591826e-002
3.660384e+003;2.512320e-002
3.662313e+003;2.472905e-002
3.664241e+003;2.416355e-002
3.666170e+003;2.350916e-002
3.668098e+003;2.276716e-002
3.670027e+003;2.236311e-002
3.671955e+003;2.222146e-002
3.673884e+003;2.227060e-002
3.675813e+003;2.173884e-002
3.677741e+003;2.116344e-002
3.679669e+003;2.103338e-002
3.681598e+003;2.085442e-002
3.683527e+003;2.087465e-002
3.685455e+003;2.075646e-002
3.687384e+003;2.036515e-002
3.689312e+003;2.006342e-002
3.691241e+003;1.992194e-002
3.693169e+003;1.967002e-002
3.695098e+003;1.963609e-002
3.697026e+003;1.892656e-002
3.698955e+003;1.857458e-002
3.700884e+003;1.868871e-002
3.702812e+003;1.876759e-002
3.704741e+003;1.867239e-002
3.706669e+003;1.821815e-002
3.708598e+003;1.791605e-002
3.710526e+003;1.765974e-002
3.712455e+003;1.734569e-002
3.714383e+003;1.715624e-002
3.716312e+003;1.730017e-002
3.718240e+003;1.750869e-002
3.720169e+003;1.736538e-002
3.722098e+003;1.682146e-002
3.724026e+003;1.655943e-002
3.725955e+003;1.676770e-002
3.727883e+003;1.720325e-002
3.729812e+003;1.726796e-002
3.731740e+003;1.690844e-002
3.733669e+003;1.694995e-002
3.735597e+003;1.667497e-002
3.737526e+003;1.623000e-002
3.739455e+003;1.618478e-002
3.741383e+003;1.621659e-002
3.743312e+003;1.580501e-002
3.745240e+003;1.529987e-002
3.747169e+003;1.586862e-002
3.749097e+003;1.650003e-002
3.751026e+003;1.689545e-002
3.752954e+003;1.669459e-002
3.754883e+003;1.617738e-002
3.756812e+003;1.606229e-002
3.758740e+003;1.636049e-002
3.760668e+003;1.662842e-002
3.762597e+003;1.694430e-002
3.764526e+003;1.705608e-002
3.766454e+003;1.652990e-002
3.768383e+003;1.624603e-002
3.770311e+003;1.598414e-002
3.772240e+003;1.577278e-002
3.774168e+003;1.652636e-002
3.776097e+003;1.730800e-002
3.778025e+003;1.698051e-002
3.779954e+003;1.577876e-002
3.781883e+003;1.583164e-002
3.783811e+003;1.691970e-002
3.785740e+003;1.732813e-002
3.787668e+003;1.728917e-002
3.789597e+003;1.662935e-002
3.791525e+003;1.634638e-002
3.793454e+003;1.624215e-002
3.795382e+003;1.628205e-002
3.797311e+003;1.661647e-002
3.799240e+003;1.644014e-002
3.801168e+003;1.556928e-002
3.803097e+003;1.553625e-002
3.805025e+003;1.604283e-002
3.806954e+003;1.590189e-002
3.808882e+003;1.607652e-002
3.810811e+003;1.652615e-002
3.812739e+003;1.698816e-002
3.814668e+003;1.734965e-002
3.816596e+003;1.729631e-002
3.818525e+003;1.769712e-002
3.820454e+003;1.722046e-002
3.822382e+003;1.639393e-002
3.824311e+003;1.651045e-002
3.826239e+003;1.690461e-002
3.828168e+003;1.696139e-002
3.830096e+003;1.682973e-002
3.832025e+003;1.646881e-002
3.833953e+003;1.651307e-002
3.835882e+003;1.680410e-002
3.837811e+003;1.665469e-002
3.839739e+003;1.614805e-002
3.841667e+003;1.658604e-002
3.843596e+003;1.703840e-002
3.845525e+003;1.646709e-002
3.847453e+003;1.616194e-002
3.849382e+003;1.704519e-002
3.851310e+003;1.746919e-002
3.853239e+003;1.698069e-002
3.855167e+003;1.690548e-002
3.857096e+003;1.726628e-002
3.859024e+003;1.760981e-002
3.860953e+003;1.778265e-002
3.862882e+003;1.740076e-002
3.864810e+003;1.686965e-002
3.866739e+003;1.728944e-002
3.868667e+003;1.788011e-002
3.870596e+003;1.783087e-002
3.872524e+003;1.768946e-002
3.874453e+003;1.747109e-002
3.876381e+003;1.716420e-002
3.878310e+003;1.756409e-002
3.880239e+003;1.788042e-002
3.882167e+003;1.808687e-002
3.884096e+003;1.844664e-002
3.886024e+003;1.849836e-002
3.887953e+003;1.813568e-002
3.889881e+003;1.815395e-002
3.891810e+003;1.847288e-002
3.893738e+003;1.839555e-002
3.895667e+003;1.835137e-002
3.897595e+003;1.936944e-002
3.899524e+003;1.912180e-002
3.901453e+003;1.858205e-002
3.903381e+003;1.880724e-002
3.905310e+003;1.848177e-002
3.907238e+003;1.867349e-002
3.909167e+003;1.929361e-002
3.911095e+003;1.972671e-002
3.913024e+003;1.957934e-002
3.914952e+003;1.897982e-002
3.916881e+003;1.915774e-002
3.918810e+003;1.938971e-002
3.920738e+003;1.876333e-002
3.922667e+003;1.889703e-002
3.924595e+003;1.909791e-002
3.926524e+003;1.943080e-002
3.928452e+003;1.996471e-002
3.930381e+003;2.006637e-002
3.932309e+003;1.987552e-002
3.934238e+003;1.977481e-002
3.936167e+003;2.037789e-002
3.938095e+003;2.084079e-002
3.940023e+003;2.065474e-002
3.941952e+003;2.021276e-002
3.943881e+003;2.023050e-002
3.945809e+003;1.990501e-002
3.947738e+003;1.968753e-002
3.949666e+003;1.943098e-002
3.951595e+003;1.924581e-002
3.953523e+003;1.976077e-002
3.955452e+003;2.019690e-002
3.957380e+003;2.012252e-002
3.959309e+003;1.998660e-002
3.961238e+003;2.066555e-002
3.963166e+003;2.098035e-002
3.965095e+003;2.050410e-002
3.967023e+003;2.018104e-002
3.968952e+003;2.042581e-002
3.970880e+003;2.075097e-002
3.972809e+003;2.095580e-002
3.974737e+003;2.144333e-002
3.976666e+003;2.194075e-002
3.978594e+003;2.226325e-002
3.980523e+003;2.258720e-002
3.982452e+003;2.190545e-002
3.984380e+003;2.098967e-002
3.986309e+003;2.059272e-002
3.988237e+003;2.041988e-002
3.990166e+003;2.053078e-002
3.992094e+003;2.085980e-002
3.994023e+003;2.121051e-002
3.995951e+003;2.105140e-002
3.997880e+003;2.024599e-002
3.999809e+003;1.998580e-002
4.001737e+003;0.000000e+000
