3.992094e+002;0.000000e+000
4.011380e+002;0.000000e+000
4.030665e+002;0.000000e+000
4.049951e+002;0.000000e+000
4.069236e+002;0.000000e+000
4.088522e+002;0.000000e+000
4.107807e+002;0.000000e+000
4.127093e+002;0.000000e+000
4.146378e+002;0.000000e+000
4.165664e+002;0.000000e+000
4.184949e+002;0.000000e+000
4.204235e+002;0.000000e+000
4.223520e+002;0.000000e+000
4.242806e+002;0.000000e+000
4.262091e+002;0.000000e+000
4.281377e+002;0.000000e+000
4.300662e+002;0.000000e+000
4.319948e+002;0.000000e+000
4.339233e+002;0.000000e+000
4.358519e+002;0.000000e+000
4.377804e+002;0.000000e+000
4.397090e+002;0.000000e+000
4.416375e+002;0.000000e+000
4.435660e+002;0.000000e+000
4.454946e+002;0.000000e+000
4.474232e+002;0.000000e+000
4.493517e+002;0.000000e+000
4.512802e+002;0.000000e+000
4.532088e+002;0.000000e+000
4.551373e+002;0.000000e+000
4.570659e+002;0.000000e+000
4.589944e+002;0.000000e+000
4.609230e+002;0.000000e+000
4.628515e+002;0.000000e+000
4.647801e+002;0.000000e+000
4.667086e+002;0.000000e+000
4.686372e+002;0.000000e+000
4.705657e+002;0.000000e+000
4.724943e+002;0.000000e+000
4.744228e+002;0.000000e+000
4.763513e+002;0.000000e+000
4.782799e+002;0.000000e+000
4.802085e+002;0.000000e+000
4.821370e+002;0.000000e+000
4.840656e+002;0.000000e+000
4.859941e+002;0.000000e+000
4.879226e+002;0.000000e+000
4.898512e+002;0.000000e+000
4.917798e+002;0.000000e+000
4.937083e+002;0.000000e+000
4.956368e+002;0.000000e+000
4.975654e+002;0.000000e+000
4.994939e+002;0.000000e+000
5.014225e+002;0.000000e+000
5.033510e+002;0.000000e+000
5.052796e+002;0.000000e+000
5.072081e+002;0.000000e+000
5.091367e+002;0.000000e+000
5.110652e+002;0.000000e+000
5.129938e+002;0.000000e+000
5.149223e+002;0.000000e+000
5.168509e+002;0.000000e+000
5.187794e+002;0.000000e+000
5.207079e+002;0.000000e+000
5.226365e+002;0.000000e+000
5.245651e+002;0.000000e+000
5.264936e+002;0.000000e+000
5.284222e+002;0.000000e+000
5.303507e+002;0.000000e+000
5.322792e+002;0.000000e+000
5.342078e+002;0.000000e+000
5.361364e+002;0.000000e+000
5.380649e+002;0.000000e+000
5.399935e+002;0.000000e+000
5.419220e+002;0.000000e+000
5.438505e+002;0.000000e+000
5.457791e+002;0.000000e+000
5.477076e+002;0.000000e+000
5.496362e+002;0.000000e+000
5.515648e+002;0.000000e+000
5.534933e+002;0.000000e+000
5.554218e+002;0.000000e+000
5.573504e+002;0.000000e+000
5.592789e+002;0.000000e+000
5.612075e+002;0.000000e+000
5.631360e+002;0.000000e+000
5.650646e+002;0.000000e+000
5.669931e+002;0.000000e+000
5.689217e+002;0.000000e+000
5.708502e+002;0.000000e+000
5.727787e+002;0.000000e+000
5.747073e+002;0.000000e+000
5.766359e+002;0.000000e+000
5.785644e+002;0.000000e+000
5.804930e+002;0.000000e+000
5.824215e+002;0.000000e+000
5.843500e+002;0.000000e+000
5.862786e+002;0.000000e+000
5.882072e+002;0.000000e+000
5.901357e+002;0.000000e+000
5.920643e+002;0.000000e+000
5.939928e+002;0.000000e+000
5.959213e+002;0.000000e+000
5.978499e+002;0.000000e+000
5.997784e+002;3.027953e-001
6.017070e+002;3.005618e-001
6.036355e+002;3.010952e-001
6.055641e+002;2.987410e-001
6.074926e+002;2.957950e-001
6.094211e+002;3.001217e-001
6.113497e+002;3.020206e-001
6.132783e+002;2.963783e-001
6.152068e+002;2.944232e-001
6.171354e+002;2.947834e-001
6.190639e+002;2.913944e-001
6.209924e+002;2.918722e-001
6.229210e+002;2.883587e-001
6.248495e+002;2.794201e-001
6.267781e+002;2.714015e-001
6.287067e+002;2.676868e-001
6.306352e+002;2.687571e-001
6.325637e+002;2.683567e-001
6.344923e+002;2.670347e-001
6.364208e+002;2.651247e-001
6.383494e+002;2.621842e-001
6.402780e+002;2.615666e-001
6.422065e+002;2.563234e-001
6.441350e+002;2.540403e-001
6.460636e+002;2.549722e-001
6.479921e+002;2.534257e-001
6.499207e+002;2.539431e-001
6.518492e+002;2.548633e-001
6.537778e+002;2.540303e-001
6.557063e+002;2.587193e-001
6.576349e+002;2.671504e-001
6.595634e+002;2.720468e-001
6.614919e+002;2.722819e-001
6.634205e+002;2.688259e-001
6.653491e+002;2.683265e-001
6.672776e+002;2.691866e-001
6.692062e+002;2.685961e-001
6.711347e+002;2.648140e-001
6.730632e+002;2.575618e-001
6.749918e+002;2.497198e-001
6.769203e+002;2.424129e-001
6.788489e+002;2.359604e-001
6.807775e+002;2.337760e-001
6.827060e+002;2.332761e-001
6.846345e+002;2.301096e-001
6.865631e+002;2.259385e-001
6.884916e+002;2.239225e-001
6.904202e+002;2.246538e-001
6.923488e+002;2.242210e-001
6.942773e+002;2.233390e-001
6.962058e+002;2.227205e-001
6.981344e+002;2.222348e-001
7.000629e+002;2.205780e-001
7.019915e+002;2.200432e-001
7.039200e+002;2.209600e-001
7.058486e+002;2.202679e-001
7.077771e+002;2.174585e-001
7.097057e+002;2.140082e-001
7.116342e+002;2.103018e-001
7.135627e+002;2.080171e-001
7.154913e+002;2.051917e-001
7.174199e+002;1.995661e-001
7.193484e+002;1.938437e-001
7.212770e+002;1.904096e-001
7.232055e+002;1.862073e-001
7.251340e+002;1.804355e-001
7.270626e+002;1.754536e-001
7.289911e+002;1.725241e-001
7.309197e+002;1.694542e-001
7.328483e+002;1.657476e-001
7.347768e+002;1.616545e-001
7.367053e+002;1.584156e-001
7.386339e+002;1.564595e-001
7.405624e+002;1.550554e-001
7.424910e+002;1.534055e-001
7.444196e+002;1.516853e-001
7.463481e+002;1.491770e-001
7.482766e+002;1.472209e-001
7.502052e+002;1.458745e-001
7.521337e+002;1.437203e-001
7.540623e+002;1.411674e-001
7.559908e+002;1.397928e-001
7.579194e+002;1.388801e-001
7.598479e+002;1.373730e-001
7.617765e+002;1.353137e-001
7.637050e+002;1.339750e-001
7.656335e+002;1.331534e-001
7.675621e+002;1.317658e-001
7.694907e+002;1.303728e-001
7.714192e+002;1.289585e-001
7.733478e+002;1.280017e-001
7.752763e+002;1.272087e-001
7.772048e+002;1.271617e-001
7.791334e+002;1.274805e-001
7.810620e+002;1.278541e-001
7.829905e+002;1.286629e-001
7.849191e+002;1.301930e-001
7.868476e+002;1.320601e-001
7.887761e+002;1.339816e-001
7.907047e+002;1.353255e-001
7.926332e+002;1.367989e-001
7.945618e+002;1.389534e-001
7.964903e+002;1.405229e-001
7.984189e+002;1.415553e-001
8.003474e+002;1.426958e-001
8.022759e+002;1.430172e-001
8.042045e+002;1.428810e-001
8.061331e+002;1.424337e-001
8.080616e+002;1.416612e-001
8.099902e+002;1.411197e-001
8.119187e+002;1.399968e-001
8.138472e+002;1.381574e-001
8.157758e+002;1.362029e-001
8.177043e+002;1.353666e-001
8.196329e+002;1.346708e-001
8.215615e+002;1.332289e-001
8.234900e+002;1.312482e-001
8.254185e+002;1.283059e-001
8.273471e+002;1.253753e-001
8.292756e+002;1.212472e-001
8.312042e+002;1.166183e-001
8.331328e+002;1.132316e-001
8.350613e+002;1.109075e-001
8.369898e+002;1.093426e-001
8.389184e+002;1.081330e-001
8.408469e+002;1.072300e-001
8.427755e+002;1.066117e-001
8.447040e+002;1.056533e-001
8.466326e+002;1.050412e-001
8.485611e+002;1.040233e-001
8.504897e+002;1.027265e-001
8.524182e+002;1.024249e-001
8.543467e+002;1.031583e-001
8.562753e+002;1.038428e-001
8.582039e+002;1.040762e-001
8.601324e+002;1.051328e-001
8.620610e+002;1.058104e-001
8.639895e+002;1.064516e-001
8.659180e+002;1.076034e-001
8.678466e+002;1.090252e-001
8.697751e+002;1.103382e-001
8.717037e+002;1.119298e-001
8.736323e+002;1.142728e-001
8.755608e+002;1.172422e-001
8.774893e+002;1.201455e-001
8.794179e+002;1.229168e-001
8.813464e+002;1.259297e-001
8.832750e+002;1.295196e-001
8.852036e+002;1.334511e-001
8.871321e+002;1.382422e-001
8.890606e+002;1.428749e-001
8.909892e+002;1.471754e-001
8.929177e+002;1.515553e-001
8.948463e+002;1.551533e-001
8.967748e+002;1.574538e-001
8.987034e+002;1.582693e-001
9.006319e+002;1.574675e-001
9.025605e+002;1.558524e-001
9.044890e+002;1.535635e-001
9.064175e+002;1.506336e-001
9.083461e+002;1.476245e-001
9.102747e+002;1.444234e-001
9.122032e+002;1.409751e-001
9.141318e+002;1.375430e-001
9.160603e+002;1.346407e-001
9.179888e+002;1.327348e-001
9.199174e+002;1.316190e-001
9.218459e+002;1.314207e-001
9.237745e+002;1.315031e-001
9.257031e+002;1.320956e-001
9.276316e+002;1.335876e-001
9.295601e+002;1.353099e-001
9.314887e+002;1.371255e-001
9.334172e+002;1.389072e-001
9.353458e+002;1.403728e-001
9.372744e+002;1.421572e-001
9.392029e+002;1.439946e-001
9.411314e+002;1.462044e-001
9.430600e+002;1.491076e-001
9.449885e+002;1.524362e-001
9.469171e+002;1.557643e-001
9.488456e+002;1.598319e-001
9.507742e+002;1.652321e-001
9.527027e+002;1.714330e-001
9.546313e+002;1.782056e-001
9.565598e+002;1.855266e-001
9.584883e+002;1.934558e-001
9.604169e+002;2.022319e-001
9.623455e+002;2.112963e-001
9.642740e+002;2.208495e-001
9.662026e+002;2.309062e-001
9.681311e+002;2.416586e-001
9.700596e+002;2.541040e-001
9.719882e+002;2.688555e-001
9.739167e+002;2.859194e-001
9.758453e+002;3.052311e-001
9.777739e+002;3.280392e-001
9.797024e+002;3.541280e-001
9.816309e+002;3.792542e-001
9.835595e+002;3.981243e-001
9.854880e+002;4.094455e-001
9.874166e+002;4.156401e-001
9.893452e+002;4.210929e-001
9.912737e+002;4.280899e-001
9.932022e+002;4.368953e-001
9.951307e+002;4.469564e-001
9.970593e+002;4.569814e-001
9.989879e+002;4.652538e-001
1.000916e+003;4.711478e-001
1.002845e+003;4.753821e-001
1.004773e+003;4.779090e-001
1.006702e+003;4.806350e-001
1.008631e+003;4.842156e-001
1.010559e+003;4.887807e-001
1.012488e+003;4.947553e-001
1.014416e+003;5.012495e-001
1.016345e+003;5.070800e-001
1.018273e+003;5.134189e-001
1.020202e+003;5.200776e-001
1.022130e+003;5.263598e-001
1.024059e+003;5.327249e-001
1.025988e+003;5.397149e-001
1.027916e+003;5.451903e-001
1.029845e+003;5.496244e-001
1.031773e+003;5.511116e-001
1.033702e+003;5.480687e-001
1.035630e+003;5.403884e-001
1.037559e+003;5.293352e-001
1.039487e+003;5.183953e-001
1.041416e+003;5.100527e-001
1.043344e+003;5.048116e-001
1.045273e+003;5.032879e-001
1.047202e+003;5.055590e-001
1.049130e+003;5.105515e-001
1.051059e+003;5.159485e-001
1.052987e+003;5.200741e-001
1.054916e+003;5.208731e-001
1.056844e+003;5.166295e-001
1.058773e+003;5.068214e-001
1.060701e+003;4.909706e-001
1.062630e+003;4.693882e-001
1.064558e+003;4.463201e-001
1.066487e+003;4.248983e-001
1.068416e+003;4.057980e-001
1.070344e+003;3.902598e-001
1.072273e+003;3.777913e-001
1.074201e+003;3.687430e-001
1.076130e+003;3.615761e-001
1.078058e+003;3.537179e-001
1.079987e+003;3.460504e-001
1.081915e+003;3.402563e-001
1.083844e+003;3.369665e-001
1.085773e+003;3.343577e-001
1.087701e+003;3.319775e-001
1.089630e+003;3.310018e-001
1.091558e+003;3.310844e-001
1.093487e+003;3.311075e-001
1.095415e+003;3.316253e-001
1.097344e+003;3.328230e-001
1.099272e+003;3.340443e-001
1.101201e+003;3.349904e-001
1.103129e+003;3.345876e-001
1.105058e+003;3.325571e-001
1.106987e+003;3.293033e-001
1.108915e+003;3.254417e-001
1.110844e+003;3.208819e-001
1.112772e+003;3.137568e-001
1.114701e+003;3.044733e-001
1.116629e+003;2.929977e-001
1.118558e+003;2.803386e-001
1.120486e+003;2.690658e-001
1.122415e+003;2.593005e-001
1.124344e+003;2.499811e-001
1.126272e+003;2.398328e-001
1.128201e+003;2.290309e-001
1.130129e+003;2.195093e-001
1.132058e+003;2.114349e-001
1.133986e+003;2.049599e-001
1.135915e+003;1.998248e-001
1.137843e+003;1.953607e-001
1.139772e+003;1.921951e-001
1.141700e+003;1.912649e-001
1.143629e+003;1.920194e-001
1.145557e+003;1.935041e-001
1.147486e+003;1.953671e-001
1.149415e+003;1.966262e-001
1.151343e+003;1.974962e-001
1.153272e+003;1.991794e-001
1.155200e+003;2.007841e-001
1.157129e+003;2.026127e-001
1.159057e+003;2.036233e-001
1.160986e+003;2.031953e-001
1.162914e+003;2.004198e-001
1.164843e+003;1.943296e-001
1.166771e+003;1.857649e-001
1.168700e+003;1.762533e-001
1.170629e+003;1.669490e-001
1.172557e+003;1.578465e-001
1.174486e+003;1.494733e-001
1.176414e+003;1.428712e-001
1.178343e+003;1.376651e-001
1.180271e+003;1.332037e-001
1.182200e+003;1.299184e-001
1.184128e+003;1.276799e-001
1.186057e+003;1.265371e-001
1.187986e+003;1.263928e-001
1.189914e+003;1.271847e-001
1.191843e+003;1.293819e-001
1.193771e+003;1.322880e-001
1.195700e+003;1.350623e-001
1.197628e+003;1.375027e-001
1.199557e+003;1.395680e-001
1.201485e+003;1.409614e-001
1.203414e+003;1.412773e-001
1.205343e+003;1.407413e-001
1.207271e+003;1.390762e-001
1.209200e+003;1.354320e-001
1.211128e+003;1.301818e-001
1.213057e+003;1.249598e-001
1.214985e+003;1.214734e-001
1.216914e+003;1.200744e-001
1.218842e+003;1.204080e-001
1.220771e+003;1.220552e-001
1.222699e+003;1.241693e-001
1.224628e+003;1.263764e-001
1.226557e+003;1.287210e-001
1.228485e+003;1.312472e-001
1.230414e+003;1.338132e-001
1.232342e+003;1.360534e-001
1.234271e+003;1.380127e-001
1.236199e+003;1.390249e-001
1.238128e+003;1.393148e-001
1.240056e+003;1.395471e-001
1.241985e+003;1.405237e-001
1.243913e+003;1.426256e-001
1.245842e+003;1.455121e-001
1.247771e+003;1.483024e-001
1.249699e+003;1.506201e-001
1.251628e+003;1.528386e-001
1.253556e+003;1.554026e-001
1.255485e+003;1.583246e-001
1.257413e+003;1.612960e-001
1.259342e+003;1.642772e-001
1.261270e+003;1.660963e-001
1.263199e+003;1.658167e-001
1.265127e+003;1.636914e-001
1.267056e+003;1.604366e-001
1.268985e+003;1.571766e-001
1.270913e+003;1.546938e-001
1.272842e+003;1.533125e-001
1.274770e+003;1.526733e-001
1.276699e+003;1.521556e-001
1.278627e+003;1.514040e-001
1.280556e+003;1.499419e-001
1.282484e+003;1.481371e-001
1.284413e+003;1.464657e-001
1.286342e+003;1.451011e-001
1.288270e+003;1.442757e-001
1.290199e+003;1.442409e-001
1.292127e+003;1.445333e-001
1.294056e+003;1.446626e-001
1.295984e+003;1.452716e-001
1.297913e+003;1.468950e-001
1.299841e+003;1.497477e-001
1.301770e+003;1.534852e-001
1.303698e+003;1.579605e-001
1.305627e+003;1.630103e-001
1.307556e+003;1.681107e-001
1.309484e+003;1.731163e-001
1.311413e+003;1.781521e-001
1.313341e+003;1.821981e-001
1.315270e+003;1.844325e-001
1.317198e+003;1.846984e-001
1.319127e+003;1.825031e-001
1.321055e+003;1.788490e-001
1.322984e+003;1.749614e-001
1.324912e+003;1.715204e-001
1.326841e+003;1.688158e-001
1.328770e+003;1.677298e-001
1.330698e+003;1.685567e-001
1.332627e+003;1.701278e-001
1.334555e+003;1.714337e-001
1.336484e+003;1.717268e-001
1.338412e+003;1.705543e-001
1.340341e+003;1.683509e-001
1.342269e+003;1.657905e-001
1.344198e+003;1.630958e-001
1.346126e+003;1.600097e-001
1.348055e+003;1.572827e-001
1.349984e+003;1.559455e-001
1.351912e+003;1.559009e-001
1.353841e+003;1.568363e-001
1.355769e+003;1.583379e-001
1.357698e+003;1.600074e-001
1.359626e+003;1.613159e-001
1.361555e+003;1.613843e-001
1.363483e+003;1.600929e-001
1.365412e+003;1.582734e-001
1.367341e+003;1.570425e-001
1.369269e+003;1.564164e-001
1.371198e+003;1.555080e-001
1.373126e+003;1.534653e-001
1.375055e+003;1.501735e-001
1.376983e+003;1.467116e-001
1.378912e+003;1.429799e-001
1.380840e+003;1.388674e-001
1.382769e+003;1.351526e-001
1.384698e+003;1.320987e-001
1.386626e+003;1.295784e-001
1.388555e+003;1.274588e-001
1.390483e+003;1.257943e-001
1.392412e+003;1.247169e-001
1.394340e+003;1.241628e-001
1.396269e+003;1.239996e-001
1.398197e+003;1.241549e-001
1.400126e+003;1.243959e-001
1.402054e+003;1.246299e-001
1.403983e+003;1.251326e-001
1.405911e+003;1.256834e-001
1.407840e+003;1.260798e-001
1.409769e+003;1.265844e-001
1.411697e+003;1.274443e-001
1.413626e+003;1.286219e-001
1.415554e+003;1.299137e-001
1.417483e+003;1.315321e-001
1.419411e+003;1.334852e-001
1.421340e+003;1.356822e-001
1.423268e+003;1.379267e-001
1.425197e+003;1.398344e-001
1.427125e+003;1.412612e-001
1.429054e+003;1.419720e-001
1.430983e+003;1.418139e-001
1.432911e+003;1.406323e-001
1.434840e+003;1.385351e-001
1.436768e+003;1.361227e-001
1.438697e+003;1.339068e-001
1.440625e+003;1.320199e-001
1.442554e+003;1.306622e-001
1.444482e+003;1.296895e-001
1.446411e+003;1.287792e-001
1.448340e+003;1.280891e-001
1.450268e+003;1.277371e-001
1.452197e+003;1.274487e-001
1.454125e+003;1.267119e-001
1.456054e+003;1.253673e-001
1.457982e+003;1.237186e-001
1.459911e+003;1.218211e-001
1.461839e+003;1.198404e-001
1.463768e+003;1.174986e-001
1.465697e+003;1.144628e-001
1.467625e+003;1.115926e-001
1.469554e+003;1.087728e-001
1.471482e+003;1.055927e-001
1.473411e+003;1.024302e-001
1.475339e+003;9.974621e-002
1.477268e+003;9.744222e-002
1.479196e+003;9.548172e-002
1.481125e+003;9.374382e-002
1.483053e+003;9.116456e-002
1.484982e+003;8.766706e-002
1.486911e+003;8.404511e-002
1.488839e+003;8.070164e-002
1.490768e+003;7.779353e-002
1.492696e+003;7.554167e-002
1.494625e+003;7.365292e-002
1.496553e+003;7.217873e-002
1.498482e+003;7.103392e-002
1.500410e+003;6.978604e-002
1.502339e+003;6.844544e-002
1.504267e+003;6.721058e-002
1.506196e+003;6.606106e-002
1.508125e+003;6.495006e-002
1.510053e+003;6.413262e-002
1.511982e+003;6.344245e-002
1.513910e+003;6.286110e-002
1.515839e+003;6.211814e-002
1.517767e+003;6.133115e-002
1.519696e+003;6.068645e-002
1.521624e+003;5.993297e-002
1.523553e+003;5.941913e-002
1.525481e+003;5.900867e-002
1.527410e+003;5.875815e-002
1.529339e+003;5.862180e-002
1.531267e+003;5.838000e-002
1.533196e+003;5.809144e-002
1.535124e+003;5.816375e-002
1.537053e+003;5.819553e-002
1.538981e+003;5.763837e-002
1.540910e+003;5.734119e-002
1.542838e+003;5.762751e-002
1.544767e+003;5.769055e-002
1.546695e+003;5.769161e-002
1.548624e+003;5.779447e-002
1.550553e+003;5.791482e-002
1.552481e+003;5.784876e-002
1.554410e+003;5.761514e-002
1.556338e+003;5.747423e-002
1.558267e+003;5.718083e-002
1.560195e+003;5.685098e-002
1.562124e+003;5.690556e-002
1.564052e+003;5.702653e-002
1.565981e+003;5.689457e-002
1.567910e+003;5.687724e-002
1.569838e+003;5.715664e-002
1.571767e+003;5.770156e-002
1.573695e+003;5.795412e-002
1.575624e+003;5.781825e-002
1.577552e+003;5.760538e-002
1.579481e+003;5.747158e-002
1.581409e+003;5.741988e-002
1.583338e+003;5.770349e-002
1.585266e+003;5.816818e-002
1.587195e+003;5.853420e-002
1.589124e+003;5.882678e-002
1.591052e+003;5.897113e-002
1.592981e+003;5.894350e-002
1.594909e+003;5.917335e-002
1.596838e+003;5.938399e-002
1.598766e+003;5.947243e-002
1.600695e+003;5.953962e-002
1.602623e+003;5.964657e-002
1.604552e+003;6.014223e-002
1.606480e+003;6.089264e-002
1.608409e+003;6.155585e-002
1.610338e+003;6.208427e-002
1.612266e+003;6.254782e-002
1.614195e+003;6.302618e-002
1.616123e+003;6.344591e-002
1.618052e+003;6.439355e-002
1.619980e+003;6.539179e-002
1.621909e+003;6.588607e-002
1.623837e+003;6.619214e-002
1.625766e+003;6.658369e-002
1.627694e+003;6.714177e-002
1.629623e+003;6.766182e-002
1.631552e+003;6.767557e-002
1.633480e+003;6.754742e-002
1.635409e+003;6.769892e-002
1.637337e+003;6.798580e-002
1.639266e+003;6.816753e-002
1.641194e+003;6.808144e-002
1.643123e+003;6.789463e-002
1.645051e+003;6.792516e-002
1.646980e+003;6.783970e-002
1.648909e+003;6.772606e-002
1.650837e+003;6.773431e-002
1.652766e+003;6.745964e-002
1.654694e+003;6.731630e-002
1.656623e+003;6.735639e-002
1.658551e+003;6.696754e-002
1.660480e+003;6.654552e-002
1.662408e+003;6.623250e-002
1.664337e+003;6.602234e-002
1.666266e+003;6.562933e-002
1.668194e+003;6.463026e-002
1.670123e+003;6.352779e-002
1.672051e+003;6.263810e-002
1.673980e+003;6.152149e-002
1.675908e+003;6.023726e-002
1.677837e+003;5.889497e-002
1.679765e+003;5.780814e-002
1.681694e+003;5.679430e-002
1.683622e+003;5.562928e-002
1.685551e+003;5.472058e-002
1.687479e+003;5.393513e-002
1.689408e+003;5.278478e-002
1.691337e+003;5.172346e-002
1.693265e+003;5.084337e-002
1.695194e+003;4.990964e-002
1.697122e+003;4.924237e-002
1.699051e+003;4.860592e-002
1.700979e+003;4.799686e-002
1.702908e+003;4.772595e-002
1.704836e+003;4.760780e-002
1.706765e+003;4.755848e-002
1.708693e+003;4.760632e-002
1.710622e+003;4.742734e-002
1.712551e+003;4.694575e-002
1.714479e+003;4.648370e-002
1.716408e+003;4.594102e-002
1.718336e+003;4.558107e-002
1.720265e+003;4.576011e-002
1.722193e+003;4.596507e-002
1.724122e+003;4.576622e-002
1.726050e+003;4.555781e-002
1.727979e+003;4.531527e-002
1.729908e+003;4.523006e-002
1.731836e+003;4.513752e-002
1.733765e+003;4.463819e-002
1.735693e+003;4.418078e-002
1.737622e+003;4.384846e-002
1.739550e+003;4.323497e-002
1.741479e+003;4.245308e-002
1.743407e+003;4.163547e-002
1.745336e+003;4.086239e-002
1.747265e+003;4.003657e-002
1.749193e+003;3.946980e-002
1.751122e+003;3.879743e-002
1.753050e+003;3.813991e-002
1.754979e+003;3.773501e-002
1.756907e+003;3.749365e-002
1.758836e+003;3.711814e-002
1.760764e+003;3.678433e-002
1.762693e+003;3.671351e-002
1.764621e+003;3.668264e-002
1.766550e+003;3.635813e-002
1.768479e+003;3.599707e-002
1.770407e+003;3.599977e-002
1.772336e+003;3.609283e-002
1.774264e+003;3.606047e-002
1.776193e+003;3.591227e-002
1.778121e+003;3.558430e-002
1.780050e+003;3.524329e-002
1.781978e+003;3.514509e-002
1.783907e+003;3.506811e-002
1.785835e+003;3.483871e-002
1.787764e+003;3.466509e-002
1.789693e+003;3.462823e-002
1.791621e+003;3.458313e-002
1.793550e+003;3.430687e-002
1.795478e+003;3.430027e-002
1.797407e+003;3.429873e-002
1.799335e+003;3.428076e-002
1.801264e+003;3.439677e-002
1.803192e+003;3.427886e-002
1.805121e+003;3.409432e-002
1.807049e+003;3.389083e-002
1.808978e+003;3.374957e-002
1.810907e+003;3.351764e-002
1.812835e+003;3.331285e-002
1.814764e+003;3.328061e-002
1.816692e+003;3.320035e-002
1.818621e+003;3.311066e-002
1.820549e+003;3.321655e-002
1.822478e+003;3.340555e-002
1.824406e+003;3.347601e-002
1.826335e+003;3.329228e-002
1.828264e+003;3.296654e-002
1.830192e+003;3.270527e-002
1.832121e+003;3.257392e-002
1.834049e+003;3.265065e-002
1.835978e+003;3.258842e-002
1.837906e+003;3.238285e-002
1.839835e+003;3.236768e-002
1.841763e+003;3.232656e-002
1.843692e+003;3.211170e-002
1.845620e+003;3.195864e-002
1.847549e+003;3.195835e-002
1.849478e+003;3.186749e-002
1.851406e+003;3.178563e-002
1.853335e+003;3.164882e-002
1.855263e+003;3.152151e-002
1.857192e+003;3.150091e-002
1.859120e+003;3.137146e-002
1.861049e+003;3.143237e-002
1.862977e+003;3.153276e-002
1.864906e+003;3.143529e-002
1.866834e+003;3.142892e-002
1.868763e+003;3.144655e-002
1.870692e+003;3.131608e-002
1.872620e+003;3.119374e-002
1.874549e+003;3.123992e-002
1.876477e+003;3.119801e-002
1.878406e+003;3.105146e-002
1.880334e+003;3.121183e-002
1.882263e+003;3.127132e-002
1.884191e+003;3.116366e-002
1.886120e+003;3.093300e-002
1.888048e+003;3.079512e-002
1.889977e+003;3.068782e-002
1.891906e+003;3.061105e-002
1.893834e+003;3.067900e-002
1.895763e+003;3.076442e-002
1.897691e+003;3.074010e-002
1.899620e+003;3.075532e-002
1.901548e+003;3.082467e-002
1.903477e+003;3.084506e-002
1.905405e+003;3.075748e-002
1.907334e+003;3.076641e-002
1.909262e+003;3.079476e-002
1.911191e+003;3.082126e-002
1.913120e+003;3.069639e-002
1.915048e+003;3.069525e-002
1.916977e+003;3.097563e-002
1.918905e+003;3.107855e-002
1.920834e+003;3.075933e-002
1.922762e+003;3.069788e-002
1.924691e+003;3.073931e-002
1.926619e+003;3.077701e-002
1.928548e+003;3.100015e-002
1.930477e+003;3.117366e-002
1.932405e+003;3.123013e-002
1.934334e+003;3.101470e-002
1.936262e+003;3.081685e-002
1.938191e+003;3.096979e-002
1.940119e+003;3.125444e-002
1.942048e+003;3.128834e-002
1.943976e+003;3.129831e-002
1.945905e+003;3.129896e-002
1.947833e+003;3.128628e-002
1.949762e+003;3.149008e-002
1.951691e+003;3.183861e-002
1.953619e+003;3.176780e-002
1.955548e+003;3.167267e-002
1.957476e+003;3.167345e-002
1.959405e+003;3.149186e-002
1.961333e+003;3.148107e-002
1.963262e+003;3.160385e-002
1.965190e+003;3.142931e-002
1.967119e+003;3.134806e-002
1.969047e+003;3.153237e-002
1.970976e+003;3.173601e-002
1.972905e+003;3.156772e-002
1.974833e+003;3.133261e-002
1.976762e+003;3.155429e-002
1.978690e+003;3.167502e-002
1.980619e+003;3.154841e-002
1.982547e+003;3.156572e-002
1.984476e+003;3.156095e-002
1.986404e+003;3.160581e-002
1.988333e+003;3.172232e-002
1.990261e+003;3.173258e-002
1.992190e+003;3.170863e-002
1.994119e+003;3.163357e-002
1.996047e+003;3.171059e-002
1.997976e+003;3.176734e-002
1.999904e+003;3.168767e-002
2.001833e+003;3.165000e-002
2.003761e+003;3.173365e-002
2.005690e+003;3.196480e-002
2.007618e+003;3.211398e-002
2.009547e+003;3.214752e-002
2.011476e+003;3.212879e-002
2.013404e+003;3.216140e-002
2.015333e+003;3.218184e-002
2.017261e+003;3.231857e-002
2.019190e+003;3.263332e-002
2.021118e+003;3.272749e-002
2.023047e+003;3.256246e-002
2.024975e+003;3.243326e-002
2.026904e+003;3.238014e-002
2.028833e+003;3.240324e-002
2.030761e+003;3.252564e-002
2.032690e+003;3.290598e-002
2.034618e+003;3.309378e-002
2.036547e+003;3.300096e-002
2.038475e+003;3.280838e-002
2.040404e+003;3.289719e-002
2.042332e+003;3.306825e-002
2.044261e+003;3.288447e-002
2.046189e+003;3.291081e-002
2.048118e+003;3.311119e-002
2.050047e+003;3.326523e-002
2.051975e+003;3.319842e-002
2.053904e+003;3.309431e-002
2.055832e+003;3.304082e-002
2.057761e+003;3.300618e-002
2.059689e+003;3.288750e-002
2.061618e+003;3.277733e-002
2.063546e+003;3.276154e-002
2.065475e+003;3.267740e-002
2.067404e+003;3.258046e-002
2.069332e+003;3.247515e-002
2.071260e+003;3.256142e-002
2.073189e+003;3.247243e-002
2.075118e+003;3.226624e-002
2.077046e+003;3.234387e-002
2.078975e+003;3.253843e-002
2.080903e+003;3.247386e-002
2.082832e+003;3.230697e-002
2.084760e+003;3.210435e-002
2.086689e+003;3.208166e-002
2.088617e+003;3.233898e-002
2.090546e+003;3.247593e-002
2.092475e+003;3.243923e-002
2.094403e+003;3.233702e-002
2.096332e+003;3.250382e-002
2.098260e+003;3.248761e-002
2.100189e+003;3.238828e-002
2.102117e+003;3.254032e-002
2.104046e+003;3.252117e-002
2.105974e+003;3.248929e-002
2.107903e+003;3.243155e-002
2.109832e+003;3.242955e-002
2.111760e+003;3.260935e-002
2.113688e+003;3.276818e-002
2.115617e+003;3.282671e-002
2.117546e+003;3.294230e-002
2.119474e+003;3.290359e-002
2.121403e+003;3.285359e-002
2.123331e+003;3.308498e-002
2.125260e+003;3.323114e-002
2.127188e+003;3.315085e-002
2.129117e+003;3.318333e-002
2.131045e+003;3.317992e-002
2.132974e+003;3.313608e-002
2.134903e+003;3.339392e-002
2.136831e+003;3.349137e-002
2.138760e+003;3.331789e-002
2.140688e+003;3.309431e-002
2.142617e+003;3.295406e-002
2.144545e+003;3.272120e-002
2.146474e+003;3.288647e-002
2.148402e+003;3.320324e-002
2.150331e+003;3.279177e-002
2.152260e+003;3.232328e-002
2.154188e+003;3.246883e-002
2.156117e+003;3.270219e-002
2.158045e+003;3.264346e-002
2.159974e+003;3.253224e-002
2.161902e+003;3.246012e-002
2.163831e+003;3.229504e-002
2.165759e+003;3.215740e-002
2.167688e+003;3.189106e-002
2.169616e+003;3.175575e-002
2.171545e+003;3.156340e-002
2.173474e+003;3.125099e-002
2.175402e+003;3.104139e-002
2.177331e+003;3.089952e-002
2.179259e+003;3.091077e-002
2.181188e+003;3.097908e-002
2.183116e+003;3.069443e-002
2.185045e+003;3.040677e-002
2.186973e+003;3.030039e-002
2.188902e+003;3.013500e-002
2.190831e+003;2.982109e-002
2.192759e+003;2.974937e-002
2.194688e+003;2.977634e-002
2.196616e+003;2.983521e-002
2.198545e+003;2.987067e-002
2.200473e+003;2.983947e-002
2.202402e+003;2.964868e-002
2.204330e+003;2.953454e-002
2.206259e+003;2.967735e-002
2.208188e+003;2.949007e-002
2.210116e+003;2.922592e-002
2.212044e+003;2.919693e-002
2.213973e+003;2.913035e-002
2.215902e+003;2.914838e-002
2.217830e+003;2.918244e-002
2.219759e+003;2.921224e-002
2.221687e+003;2.939617e-002
2.223616e+003;2.948088e-002
2.225544e+003;2.928958e-002
2.227473e+003;2.926576e-002
2.229401e+003;2.931818e-002
2.231330e+003;2.939032e-002
2.233259e+003;2.925516e-002
2.235187e+003;2.891058e-002
2.237116e+003;2.899282e-002
2.239044e+003;2.920792e-002
2.240973e+003;2.921805e-002
2.242901e+003;2.917744e-002
2.244830e+003;2.907585e-002
2.246758e+003;2.885919e-002
2.248687e+003;2.884836e-002
2.250615e+003;2.882694e-002
2.252544e+003;2.863776e-002
2.254473e+003;2.883855e-002
2.256401e+003;2.879316e-002
2.258330e+003;2.854221e-002
2.260258e+003;2.852186e-002
2.262187e+003;2.849801e-002
2.264115e+003;2.843140e-002
2.266044e+003;2.841392e-002
2.267972e+003;2.833525e-002
2.269901e+003;2.819239e-002
2.271830e+003;2.816156e-002
2.273758e+003;2.811727e-002
2.275687e+003;2.809104e-002
2.277615e+003;2.801339e-002
2.279544e+003;2.786688e-002
2.281472e+003;2.756601e-002
2.283401e+003;2.729919e-002
2.285329e+003;2.740258e-002
2.287258e+003;2.758158e-002
2.289187e+003;2.773329e-002
2.291115e+003;2.767788e-002
2.293043e+003;2.772933e-002
2.294972e+003;2.783396e-002
2.296901e+003;2.788352e-002
2.298829e+003;2.762381e-002
2.300758e+003;2.734156e-002
2.302686e+003;2.728236e-002
2.304615e+003;2.713994e-002
2.306543e+003;2.712065e-002
2.308472e+003;2.712227e-002
2.310400e+003;2.703905e-002
2.312329e+003;2.709815e-002
2.314258e+003;2.720848e-002
2.316186e+003;2.757982e-002
2.318115e+003;2.786215e-002
2.320043e+003;2.781870e-002
2.321972e+003;2.774060e-002
2.323900e+003;2.757014e-002
2.325829e+003;2.739538e-002
2.327757e+003;2.758575e-002
2.329686e+003;2.786748e-002
2.331615e+003;2.785861e-002
2.333543e+003;2.771107e-002
2.335472e+003;2.795302e-002
2.337400e+003;2.822789e-002
2.339329e+003;2.826870e-002
2.341257e+003;2.825600e-002
2.343186e+003;2.821827e-002
2.345114e+003;2.828330e-002
2.347043e+003;2.868172e-002
2.348971e+003;2.895779e-002
2.350900e+003;2.879394e-002
2.352829e+003;2.859352e-002
2.354757e+003;2.865089e-002
2.356686e+003;2.882835e-002
2.358614e+003;2.908999e-002
2.360543e+003;2.923939e-002
2.362471e+003;2.911890e-002
2.364400e+003;2.929269e-002
2.366328e+003;2.946064e-002
2.368257e+003;2.936820e-002
2.370186e+003;2.962662e-002
2.372114e+003;2.996630e-002
2.374042e+003;3.006806e-002
2.375971e+003;3.020401e-002
2.377900e+003;3.015926e-002
2.379828e+003;3.009608e-002
2.381757e+003;3.018731e-002
2.383685e+003;3.007704e-002
2.385614e+003;3.009224e-002
2.387542e+003;3.043353e-002
2.389471e+003;3.057841e-002
2.391399e+003;3.064586e-002
2.393328e+003;3.106460e-002
2.395257e+003;3.133841e-002
2.397185e+003;3.096293e-002
2.399114e+003;3.076542e-002
2.401042e+003;3.095994e-002
2.402971e+003;3.114055e-002
2.404899e+003;3.124825e-002
2.406828e+003;3.128845e-002
2.408756e+003;3.149571e-002
2.410685e+003;3.184506e-002
2.412614e+003;3.191488e-002
2.414542e+003;3.210264e-002
2.416471e+003;3.257350e-002
2.418399e+003;3.260185e-002
2.420328e+003;3.254906e-002
2.422256e+003;3.272427e-002
2.424185e+003;3.268172e-002
2.426113e+003;3.293476e-002
2.428042e+003;3.346556e-002
2.429970e+003;3.371644e-002
2.431899e+003;3.398624e-002
2.433828e+003;3.436657e-002
2.435756e+003;3.429227e-002
2.437685e+003;3.428456e-002
2.439613e+003;3.431045e-002
2.441542e+003;3.434333e-002
2.443470e+003;3.447758e-002
2.445399e+003;3.490373e-002
2.447327e+003;3.523017e-002
2.449256e+003;3.527082e-002
2.451185e+003;3.530352e-002
2.453113e+003;3.536290e-002
2.455042e+003;3.551123e-002
2.456970e+003;3.574236e-002
2.458899e+003;3.594905e-002
2.460827e+003;3.604340e-002
2.462756e+003;3.626245e-002
2.464684e+003;3.646342e-002
2.466613e+003;3.671917e-002
2.468542e+003;3.688027e-002
2.470470e+003;3.696417e-002
2.472398e+003;3.712182e-002
2.474327e+003;3.705946e-002
2.476256e+003;3.712688e-002
2.478184e+003;3.758920e-002
2.480113e+003;3.796544e-002
2.482041e+003;3.798778e-002
2.483970e+003;3.814252e-002
2.485898e+003;3.815489e-002
2.487827e+003;3.826730e-002
2.489755e+003;3.849143e-002
2.491684e+003;3.835365e-002
2.493613e+003;3.853183e-002
2.495541e+003;3.886555e-002
2.497470e+003;3.913229e-002
2.499398e+003;3.939223e-002
2.501327e+003;3.946450e-002
2.503255e+003;3.955294e-002
2.505184e+003;3.969505e-002
2.507112e+003;3.997502e-002
2.509041e+003;4.008042e-002
2.510969e+003;4.027833e-002
2.512898e+003;4.074726e-002
2.514827e+003;4.097725e-002
2.516755e+003;4.100420e-002
2.518684e+003;4.094448e-002
2.520612e+003;4.112070e-002
2.522541e+003;4.143950e-002
2.524469e+003;4.156735e-002
2.526398e+003;4.141573e-002
2.528326e+003;4.123138e-002
2.530255e+003;4.143585e-002
2.532184e+003;4.162179e-002
2.534112e+003;4.170612e-002
2.536041e+003;4.185386e-002
2.537969e+003;4.205991e-002
2.539898e+003;4.216629e-002
2.541826e+003;4.227230e-002
2.543755e+003;4.239707e-002
2.545683e+003;4.218480e-002
2.547612e+003;4.229140e-002
2.549541e+003;4.269414e-002
2.551469e+003;4.301981e-002
2.553397e+003;4.301293e-002
2.555326e+003;4.277878e-002
2.557255e+003;4.291709e-002
2.559183e+003;4.323977e-002
2.561112e+003;4.315621e-002
2.563040e+003;4.304479e-002
2.564969e+003;4.339236e-002
2.566897e+003;4.349808e-002
2.568826e+003;4.345303e-002
2.570754e+003;4.341019e-002
2.572683e+003;4.332931e-002
2.574612e+003;4.342242e-002
2.576540e+003;4.344530e-002
2.578469e+003;4.347061e-002
2.580397e+003;4.378165e-002
2.582326e+003;4.413123e-002
2.584254e+003;4.416695e-002
2.586183e+003;4.406096e-002
2.588111e+003;4.428028e-002
2.590040e+003;4.437109e-002
2.591969e+003;4.429965e-002
2.593897e+003;4.467326e-002
2.595826e+003;4.519969e-002
2.597754e+003;4.531339e-002
2.599683e+003;4.534719e-002
2.601611e+003;4.546259e-002
2.603540e+003;4.564573e-002
2.605468e+003;4.571998e-002
2.607397e+003;4.560120e-002
2.609325e+003;4.567433e-002
2.611254e+003;4.616788e-002
2.613183e+003;4.647451e-002
2.615111e+003;4.645954e-002
2.617040e+003;4.661943e-002
2.618968e+003;4.711904e-002
2.620897e+003;4.754958e-002
2.622825e+003;4.768087e-002
2.624754e+003;4.785204e-002
2.626682e+003;4.797776e-002
2.628611e+003;4.804634e-002
2.630540e+003;4.842148e-002
2.632468e+003;4.844949e-002
2.634396e+003;4.866762e-002
2.636325e+003;4.890749e-002
2.638254e+003;4.903496e-002
2.640182e+003;4.922233e-002
2.642111e+003;4.961666e-002
2.644039e+003;5.022201e-002
2.645968e+003;5.039363e-002
2.647896e+003;5.017831e-002
2.649825e+003;5.033629e-002
2.651753e+003;5.088718e-002
2.653682e+003;5.142832e-002
2.655611e+003;5.179307e-002
2.657539e+003;5.200550e-002
2.659468e+003;5.212249e-002
2.661396e+003;5.203206e-002
2.663325e+003;5.196177e-002
2.665253e+003;5.203101e-002
2.667182e+003;5.217241e-002
2.669110e+003;5.254759e-002
2.671039e+003;5.291152e-002
2.672968e+003;5.310525e-002
2.674896e+003;5.320621e-002
2.676825e+003;5.363477e-002
2.678753e+003;5.426024e-002
2.680682e+003;5.440214e-002
2.682610e+003;5.437582e-002
2.684539e+003;5.454229e-002
2.686467e+003;5.496427e-002
2.688396e+003;5.569305e-002
2.690324e+003;5.597847e-002
2.692253e+003;5.582370e-002
2.694182e+003;5.591350e-002
2.696110e+003;5.628717e-002
2.698039e+003;5.641442e-002
2.699967e+003;5.682107e-002
2.701896e+003;5.761431e-002
2.703824e+003;5.802304e-002
2.705753e+003;5.759229e-002
2.707681e+003;5.762952e-002
2.709610e+003;5.845668e-002
2.711539e+003;5.894908e-002
2.713467e+003;5.916192e-002
2.715396e+003;5.940545e-002
2.717324e+003;5.977458e-002
2.719253e+003;5.988451e-002
2.721181e+003;5.979906e-002
2.723110e+003;6.022185e-002
2.725038e+003;6.079918e-002
2.726967e+003;6.097160e-002
2.728896e+003;6.112624e-002
2.730824e+003;6.119188e-002
2.732752e+003;6.143907e-002
2.734681e+003;6.165963e-002
2.736610e+003;6.173254e-002
2.738538e+003;6.174511e-002
2.740467e+003;6.209734e-002
2.742395e+003;6.268774e-002
2.744324e+003;6.293414e-002
2.746252e+003;6.292219e-002
2.748181e+003;6.311511e-002
2.750109e+003;6.301799e-002
2.752038e+003;6.310403e-002
2.753967e+003;6.335266e-002
2.755895e+003;6.335956e-002
2.757824e+003;6.332418e-002
2.759752e+003;6.350911e-002
2.761681e+003;6.398055e-002
2.763609e+003;6.433437e-002
2.765538e+003;6.469325e-002
2.767466e+003;6.484741e-002
2.769395e+003;6.469860e-002
2.771323e+003;6.487308e-002
2.773252e+003;6.534292e-002
2.775181e+003;6.567060e-002
2.777109e+003;6.580333e-002
2.779038e+003;6.628715e-002
2.780966e+003;6.696220e-002
2.782895e+003;6.730613e-002
2.784823e+003;6.764552e-002
2.786752e+003;6.807815e-002
2.788680e+003;6.843296e-002
2.790609e+003;6.853242e-002
2.792538e+003;6.885165e-002
2.794466e+003;6.943502e-002
2.796395e+003;6.985274e-002
2.798323e+003;7.027167e-002
2.800252e+003;7.091336e-002
2.802180e+003;7.194506e-002
2.804109e+003;7.260396e-002
2.806037e+003;7.284084e-002
2.807966e+003;7.353371e-002
2.809895e+003;7.427029e-002
2.811823e+003;7.440284e-002
2.813751e+003;7.476002e-002
2.815680e+003;7.573854e-002
2.817609e+003;7.676067e-002
2.819537e+003;7.747035e-002
2.821466e+003;7.824889e-002
2.823394e+003;7.921022e-002
2.825323e+003;8.016109e-002
2.827251e+003;8.143555e-002
2.829180e+003;8.262338e-002
2.831108e+003;8.356975e-002
2.833037e+003;8.457764e-002
2.834966e+003;8.587541e-002
2.836894e+003;8.756631e-002
2.838823e+003;8.898012e-002
2.840751e+003;9.035092e-002
2.842680e+003;9.205749e-002
2.844608e+003;9.409025e-002
2.846537e+003;9.605380e-002
2.848465e+003;9.823084e-002
2.850394e+003;1.009731e-001
2.852323e+003;1.032691e-001
2.854251e+003;1.050637e-001
2.856180e+003;1.068628e-001
2.858108e+003;1.083545e-001
2.860037e+003;1.097127e-001
2.861965e+003;1.114987e-001
2.863894e+003;1.130387e-001
2.865822e+003;1.140819e-001
2.867751e+003;1.150491e-001
2.869679e+003;1.159267e-001
2.871608e+003;1.166072e-001
2.873536e+003;1.174791e-001
2.875465e+003;1.184000e-001
2.877394e+003;1.191092e-001
2.879322e+003;1.198292e-001
2.881251e+003;1.201063e-001
2.883179e+003;1.207740e-001
2.885108e+003;1.219476e-001
2.887036e+003;1.226156e-001
2.888965e+003;1.227248e-001
2.890893e+003;1.234485e-001
2.892822e+003;1.245201e-001
2.894750e+003;1.252355e-001
2.896679e+003;1.257732e-001
2.898608e+003;1.263077e-001
2.900536e+003;1.263216e-001
2.902465e+003;1.257787e-001
2.904393e+003;1.256595e-001
2.906322e+003;1.257027e-001
2.908250e+003;1.247818e-001
2.910179e+003;1.232469e-001
2.912107e+003;1.218514e-001
2.914036e+003;1.203887e-001
2.915965e+003;1.187227e-001
2.917893e+003;1.174238e-001
2.919822e+003;1.160618e-001
2.921750e+003;1.146742e-001
2.923679e+003;1.135553e-001
2.925607e+003;1.125138e-001
2.927536e+003;1.114430e-001
2.929464e+003;1.099894e-001
2.931393e+003;1.081760e-001
2.933322e+003;1.067140e-001
2.935250e+003;1.053119e-001
2.937178e+003;1.041270e-001
2.939107e+003;1.034296e-001
2.941036e+003;1.022731e-001
2.942964e+003;1.010722e-001
2.944893e+003;1.002116e-001
2.946821e+003;9.922932e-002
2.948750e+003;9.781440e-002
2.950678e+003;9.593221e-002
2.952607e+003;9.431131e-002
2.954535e+003;9.333112e-002
2.956464e+003;9.203390e-002
2.958393e+003;9.032526e-002
2.960321e+003;8.918720e-002
2.962250e+003;8.827136e-002
2.964178e+003;8.715729e-002
2.966107e+003;8.559991e-002
2.968035e+003;8.406980e-002
2.969964e+003;8.280308e-002
2.971892e+003;8.122274e-002
2.973821e+003;7.947863e-002
2.975750e+003;7.744129e-002
2.977678e+003;7.518837e-002
2.979607e+003;7.336560e-002
2.981535e+003;7.221790e-002
2.983464e+003;7.107045e-002
2.985392e+003;6.975658e-002
2.987321e+003;6.851605e-002
2.989249e+003;6.734134e-002
2.991178e+003;6.665391e-002
2.993106e+003;6.650138e-002
2.995035e+003;6.642875e-002
2.996964e+003;6.629190e-002
2.998892e+003;6.568082e-002
3.000821e+003;6.495842e-002
3.002749e+003;6.467995e-002
3.004678e+003;6.468876e-002
3.006606e+003;6.456117e-002
3.008535e+003;6.460804e-002
3.010463e+003;6.478444e-002
3.012392e+003;6.474710e-002
3.014321e+003;6.494683e-002
3.016249e+003;6.547924e-002
3.018177e+003;6.569277e-002
3.020106e+003;6.575051e-002
3.022035e+003;6.570067e-002
3.023963e+003;6.576967e-002
3.025892e+003;6.655193e-002
3.027820e+003;6.727348e-002
3.029749e+003;6.744694e-002
3.031677e+003;6.802699e-002
3.033606e+003;6.885763e-002
3.035534e+003;6.902307e-002
3.037463e+003;6.900664e-002
3.039392e+003;6.899451e-002
3.041320e+003;6.937698e-002
3.043249e+003;7.026104e-002
3.045177e+003;7.089385e-002
3.047106e+003;7.128400e-002
3.049034e+003;7.172950e-002
3.050963e+003;7.204299e-002
3.052891e+003;7.266039e-002
3.054820e+003;7.366391e-002
3.056749e+003;7.425272e-002
3.058677e+003;7.477927e-002
3.060606e+003;7.513365e-002
3.062534e+003;7.499797e-002
3.064463e+003;7.527198e-002
3.066391e+003;7.641484e-002
3.068320e+003;7.734241e-002
3.070248e+003;7.797875e-002
3.072177e+003;7.854783e-002
3.074105e+003;7.896861e-002
3.076034e+003;7.937992e-002
3.077963e+003;8.002319e-002
3.079891e+003;8.087113e-002
3.081820e+003;8.158305e-002
3.083748e+003;8.181117e-002
3.085677e+003;8.248837e-002
3.087605e+003;8.345425e-002
3.089534e+003;8.431911e-002
3.091462e+003;8.492803e-002
3.093391e+003;8.539323e-002
3.095320e+003;8.591773e-002
3.097248e+003;8.639082e-002
3.099177e+003;8.690458e-002
3.101105e+003;8.763117e-002
3.103034e+003;8.806770e-002
3.104962e+003;8.861909e-002
3.106891e+003;8.913216e-002
3.108819e+003;8.972718e-002
3.110748e+003;9.053267e-002
3.112677e+003;9.150524e-002
3.114605e+003;9.205696e-002
3.116533e+003;9.246968e-002
3.118462e+003;9.299462e-002
3.120391e+003;9.367660e-002
3.122319e+003;9.464249e-002
3.124248e+003;9.590027e-002
3.126176e+003;9.678077e-002
3.128105e+003;9.761970e-002
3.130033e+003;9.863387e-002
3.131962e+003;9.908174e-002
3.133890e+003;9.924548e-002
3.135819e+003;1.000608e-001
3.137748e+003;1.008927e-001
3.139676e+003;1.015366e-001
3.141605e+003;1.022165e-001
3.143533e+003;1.031166e-001
3.145462e+003;1.040824e-001
3.147390e+003;1.054045e-001
3.149319e+003;1.066206e-001
3.151247e+003;1.069203e-001
3.153176e+003;1.067296e-001
3.155104e+003;1.076970e-001
3.157033e+003;1.090313e-001
3.158962e+003;1.100056e-001
3.160890e+003;1.109068e-001
3.162819e+003;1.118890e-001
3.164747e+003;1.124687e-001
3.166676e+003;1.133994e-001
3.168604e+003;1.145197e-001
3.170533e+003;1.155553e-001
3.172461e+003;1.163939e-001
3.174390e+003;1.168028e-001
3.176319e+003;1.172872e-001
3.178247e+003;1.182000e-001
3.180176e+003;1.193850e-001
3.182104e+003;1.209936e-001
3.184033e+003;1.218773e-001
3.185961e+003;1.224962e-001
3.187890e+003;1.233943e-001
3.189818e+003;1.241059e-001
3.191747e+003;1.251817e-001
3.193676e+003;1.262009e-001
3.195604e+003;1.270066e-001
3.197532e+003;1.280324e-001
3.199461e+003;1.289346e-001
3.201390e+003;1.304923e-001
3.203318e+003;1.319206e-001
3.205247e+003;1.322753e-001
3.207175e+003;1.328304e-001
3.209104e+003;1.341726e-001
3.211032e+003;1.356840e-001
3.212961e+003;1.367038e-001
3.214889e+003;1.374222e-001
3.216818e+003;1.387117e-001
3.218747e+003;1.400537e-001
3.220675e+003;1.415623e-001
3.222604e+003;1.428675e-001
3.224532e+003;1.442259e-001
3.226461e+003;1.458060e-001
3.228389e+003;1.471303e-001
3.230318e+003;1.482119e-001
3.232246e+003;1.491725e-001
3.234175e+003;1.506042e-001
3.236104e+003;1.522369e-001
3.238032e+003;1.529831e-001
3.239961e+003;1.542586e-001
3.241889e+003;1.563400e-001
3.243818e+003;1.579716e-001
3.245746e+003;1.592588e-001
3.247675e+003;1.603165e-001
3.249603e+003;1.617485e-001
3.251532e+003;1.632412e-001
3.253460e+003;1.645017e-001
3.255389e+003;1.661882e-001
3.257318e+003;1.680358e-001
3.259246e+003;1.695205e-001
3.261175e+003;1.701122e-001
3.263103e+003;1.705220e-001
3.265032e+003;1.722965e-001
3.266960e+003;1.736540e-001
3.268889e+003;1.737846e-001
3.270817e+003;1.741200e-001
3.272746e+003;1.748339e-001
3.274675e+003;1.755856e-001
3.276603e+003;1.767431e-001
3.278531e+003;1.776490e-001
3.280460e+003;1.778627e-001
3.282389e+003;1.784440e-001
3.284317e+003;1.787866e-001
3.286246e+003;1.790588e-001
3.288174e+003;1.797248e-001
3.290103e+003;1.801167e-001
3.292031e+003;1.808284e-001
3.293960e+003;1.807301e-001
3.295888e+003;1.801983e-001
3.297817e+003;1.805747e-001
3.299746e+003;1.806586e-001
3.301674e+003;1.804301e-001
3.303603e+003;1.811392e-001
3.305531e+003;1.822520e-001
3.307460e+003;1.824385e-001
3.309388e+003;1.821442e-001
3.311317e+003;1.823096e-001
3.313245e+003;1.830574e-001
3.315174e+003;1.841045e-001
3.317103e+003;1.848222e-001
3.319031e+003;1.851466e-001
3.320960e+003;1.846321e-001
3.322888e+003;1.844622e-001
3.324817e+003;1.849042e-001
3.326745e+003;1.847412e-001
3.328674e+003;1.841751e-001
3.330602e+003;1.839816e-001
3.332531e+003;1.839670e-001
3.334459e+003;1.836266e-001
3.336388e+003;1.829363e-001
3.338317e+003;1.823091e-001
3.340245e+003;1.812211e-001
3.342174e+003;1.799689e-001
3.344102e+003;1.794773e-001
3.346031e+003;1.781773e-001
3.347959e+003;1.763669e-001
3.349888e+003;1.752395e-001
3.351816e+003;1.741306e-001
3.353745e+003;1.732162e-001
3.355674e+003;1.724384e-001
3.357602e+003;1.716030e-001
3.359531e+003;1.701454e-001
3.361459e+003;1.687211e-001
3.363388e+003;1.676481e-001
3.365316e+003;1.672564e-001
3.367245e+003;1.667086e-001
3.369173e+003;1.651737e-001
3.371102e+003;1.642644e-001
3.373031e+003;1.641000e-001
3.374959e+003;1.629859e-001
3.376887e+003;1.618687e-001
3.378816e+003;1.614582e-001
3.380745e+003;1.608930e-001
3.382673e+003;1.601832e-001
3.384602e+003;1.598348e-001
3.386530e+003;1.590946e-001
3.388459e+003;1.577421e-001
3.390387e+003;1.565015e-001
3.392316e+003;1.558893e-001
3.394244e+003;1.555299e-001
3.396173e+003;1.551634e-001
3.398102e+003;1.542433e-001
3.400030e+003;1.532572e-001
3.401959e+003;1.523390e-001
3.403887e+003;1.516421e-001
3.405816e+003;1.506300e-001
3.407744e+003;1.494247e-001
3.409673e+003;1.483639e-001
3.411601e+003;1.467934e-001
3.413530e+003;1.454817e-001
3.415458e+003;1.449207e-001
3.417387e+003;1.439082e-001
3.419316e+003;1.429470e-001
3.421244e+003;1.421136e-001
3.423173e+003;1.408288e-001
3.425101e+003;1.391199e-001
3.427030e+003;1.381360e-001
3.428958e+003;1.376243e-001
3.430887e+003;1.364099e-001
3.432815e+003;1.345755e-001
3.434744e+003;1.332628e-001
3.436673e+003;1.322957e-001
3.438601e+003;1.312171e-001
3.440530e+003;1.296528e-001
3.442458e+003;1.282525e-001
3.444387e+003;1.272497e-001
3.446315e+003;1.259879e-001
3.448244e+003;1.245977e-001
3.450172e+003;1.238129e-001
3.452101e+003;1.226878e-001
3.454030e+003;1.212365e-001
3.455958e+003;1.201878e-001
3.457886e+003;1.191272e-001
3.459815e+003;1.175060e-001
3.461744e+003;1.157366e-001
3.463672e+003;1.149647e-001
3.465601e+003;1.145580e-001
3.467529e+003;1.140817e-001
3.469458e+003;1.123933e-001
3.471386e+003;1.107430e-001
3.473315e+003;1.094030e-001
3.475243e+003;1.077126e-001
3.477172e+003;1.068367e-001
3.479101e+003;1.062061e-001
3.481029e+003;1.052434e-001
3.482958e+003;1.040874e-001
3.484886e+003;1.029719e-001
3.486815e+003;1.013241e-001
3.488743e+003;9.989344e-002
3.490672e+003;9.904528e-002
3.492600e+003;9.772040e-002
3.494529e+003;9.628618e-002
3.496458e+003;9.561446e-002
3.498386e+003;9.485325e-002
3.500315e+003;9.331621e-002
3.502243e+003;9.154820e-002
3.504172e+003;9.022724e-002
3.506100e+003;8.927449e-002
3.508029e+003;8.859853e-002
3.509957e+003;8.767273e-002
3.511886e+003;8.660149e-002
3.513814e+003;8.516875e-002
3.515743e+003;8.387603e-002
3.517672e+003;8.257348e-002
3.519600e+003;8.145026e-002
3.521529e+003;8.067858e-002
3.523457e+003;7.946634e-002
3.525386e+003;7.869861e-002
3.527314e+003;7.780395e-002
3.529243e+003;7.604732e-002
3.531171e+003;7.454632e-002
3.533100e+003;7.334187e-002
3.535029e+003;7.209591e-002
3.536957e+003;7.141975e-002
3.538885e+003;7.087845e-002
3.540814e+003;6.970380e-002
3.542743e+003;6.788599e-002
3.544671e+003;6.678291e-002
3.546600e+003;6.611264e-002
3.548528e+003;6.497735e-002
3.550457e+003;6.387245e-002
3.552385e+003;6.281596e-002
3.554314e+003;6.129825e-002
3.556242e+003;5.982009e-002
3.558171e+003;5.858797e-002
3.560100e+003;5.700197e-002
3.562028e+003;5.564190e-002
3.563957e+003;5.488245e-002
3.565885e+003;5.450870e-002
3.567814e+003;5.338212e-002
3.569742e+003;5.177116e-002
3.571671e+003;4.982022e-002
3.573599e+003;4.862475e-002
3.575528e+003;4.830330e-002
3.577457e+003;4.741455e-002
3.579385e+003;4.622563e-002
3.581314e+003;4.548161e-002
3.583242e+003;4.471553e-002
3.585171e+003;4.328995e-002
3.587099e+003;4.159317e-002
3.589028e+003;4.089846e-002
3.590956e+003;4.035471e-002
3.592885e+003;3.906609e-002
3.594813e+003;3.757558e-002
3.596742e+003;3.613439e-002
3.598671e+003;3.497293e-002
3.600599e+003;3.353174e-002
3.602528e+003;3.238096e-002
3.604456e+003;3.195767e-002
3.606385e+003;3.113479e-002
3.608313e+003;2.985349e-002
3.610242e+003;2.835761e-002
3.612170e+003;2.761844e-002
3.614099e+003;2.701895e-002
3.616028e+003;2.570999e-002
3.617956e+003;2.462384e-002
3.619885e+003;2.369328e-002
3.621813e+003;2.256943e-002
3.623742e+003;2.183719e-002
3.625670e+003;2.154830e-002
3.627599e+003;2.131660e-002
3.629527e+003;2.018986e-002
3.631456e+003;1.856431e-002
3.633385e+003;1.753242e-002
3.635313e+003;1.756451e-002
3.637241e+003;1.785880e-002
3.639170e+003;1.717530e-002
3.641099e+003;1.581618e-002
3.643027e+003;1.482680e-002
3.644956e+003;1.485865e-002
3.646884e+003;1.434786e-002
3.648813e+003;1.354185e-002
3.650741e+003;1.299021e-002
3.652670e+003;1.250150e-002
3.654598e+003;1.207111e-002
3.656527e+003;1.152504e-002
3.658456e+003;1.145019e-002
3.660384e+003;1.162090e-002
3.662313e+003;1.126159e-002
3.664241e+003;1.026671e-002
3.666170e+003;9.900759e-003
3.668098e+003;9.706872e-003
3.670027e+003;8.915341e-003
3.671955e+003;8.658715e-003
3.673884e+003;9.001121e-003
3.675813e+003;8.161208e-003
3.677741e+003;7.493189e-003
3.679669e+003;7.101142e-003
3.681598e+003;6.677180e-003
3.683527e+003;6.286978e-003
3.685455e+003;6.380982e-003
3.687384e+003;6.829428e-003
3.689312e+003;6.828452e-003
3.691241e+003;6.674387e-003
3.693169e+003;6.148296e-003
3.695098e+003;5.752122e-003
3.697026e+003;5.830159e-003
3.698955e+003;6.453987e-003
3.700884e+003;6.469524e-003
3.702812e+003;6.118085e-003
3.704741e+003;5.815115e-003
3.706669e+003;5.230868e-003
3.708598e+003;5.555681e-003
3.710526e+003;6.231883e-003
3.712455e+003;6.201128e-003
3.714383e+003;5.287882e-003
3.716312e+003;4.641144e-003
3.718240e+003;4.957104e-003
3.720169e+003;5.487894e-003
3.722098e+003;5.754338e-003
3.724026e+003;5.503665e-003
3.725955e+003;5.350607e-003
3.727883e+003;5.491182e-003
3.729812e+003;4.638599e-003
3.731740e+003;4.001454e-003
3.733669e+003;3.736550e-003
3.735597e+003;3.462957e-003
3.737526e+003;3.579169e-003
3.739455e+003;3.679004e-003
3.741383e+003;3.511155e-003
3.743312e+003;3.286978e-003
3.745240e+003;3.462423e-003
3.747169e+003;4.465926e-003
3.749097e+003;4.309017e-003
3.751026e+003;3.077166e-003
3.752954e+003;2.969162e-003
3.754883e+003;3.457346e-003
3.756812e+003;3.536943e-003
3.758740e+003;3.555116e-003
3.760668e+003;3.605295e-003
3.762597e+003;3.838661e-003
3.764526e+003;3.593067e-003
3.766454e+003;3.397366e-003
3.768383e+003;3.198582e-003
3.770311e+003;3.312386e-003
3.772240e+003;3.887970e-003
3.774168e+003;3.646458e-003
3.776097e+003;3.210598e-003
3.778025e+003;3.453772e-003
3.779954e+003;3.487740e-003
3.781883e+003;3.521410e-003
3.783811e+003;3.236035e-003
3.785740e+003;2.729760e-003
3.787668e+003;2.881497e-003
3.789597e+003;3.514529e-003
3.791525e+003;3.548868e-003
3.793454e+003;3.110504e-003
3.795382e+003;3.270686e-003
3.797311e+003;3.862396e-003
3.799240e+003;3.410223e-003
3.801168e+003;2.586443e-003
3.803097e+003;2.522850e-003
3.805025e+003;3.108668e-003
3.806954e+003;3.108868e-003
3.808882e+003;3.050471e-003
3.810811e+003;2.977135e-003
3.812739e+003;3.548200e-003
3.814668e+003;3.956612e-003
3.816596e+003;3.051772e-003
3.818525e+003;2.343354e-003
3.820454e+003;2.612242e-003
3.822382e+003;2.957119e-003
3.824311e+003;3.231495e-003
3.826239e+003;3.232797e-003
3.828168e+003;2.733461e-003
3.830096e+003;2.620509e-003
3.832025e+003;2.801554e-003
3.833953e+003;2.893405e-003
3.835882e+003;2.870657e-003
3.837811e+003;2.978370e-003
3.839739e+003;3.340533e-003
3.841667e+003;3.385377e-003
3.843596e+003;3.187233e-003
3.845525e+003;3.461655e-003
3.847453e+003;3.668144e-003
3.849382e+003;3.628048e-003
3.851310e+003;3.283974e-003
3.853239e+003;2.912585e-003
3.855167e+003;3.319765e-003
3.857096e+003;4.048206e-003
3.859024e+003;3.763321e-003
3.860953e+003;3.297195e-003
3.862882e+003;3.482329e-003
3.864810e+003;3.707141e-003
3.866739e+003;3.765861e-003
3.868667e+003;3.599080e-003
3.870596e+003;3.417670e-003
3.872524e+003;3.788756e-003
3.874453e+003;4.059143e-003
3.876381e+003;4.571323e-003
3.878310e+003;5.121958e-003
3.880239e+003;5.033925e-003
3.882167e+003;4.288470e-003
3.884096e+003;4.052253e-003
3.886024e+003;4.054159e-003
3.887953e+003;3.538012e-003
3.889881e+003;3.716565e-003
3.891810e+003;4.557226e-003
3.893738e+003;4.554414e-003
3.895667e+003;4.023692e-003
3.897595e+003;4.212349e-003
3.899524e+003;4.840724e-003
3.901453e+003;5.131212e-003
3.903381e+003;4.498969e-003
3.905310e+003;4.304566e-003
3.907238e+003;5.486820e-003
3.909167e+003;5.298783e-003
3.911095e+003;4.700158e-003
3.913024e+003;4.944971e-003
3.914952e+003;5.923796e-003
3.916881e+003;6.594920e-003
3.918810e+003;6.268724e-003
3.920738e+003;5.340845e-003
3.922667e+003;4.514168e-003
3.924595e+003;4.683277e-003
3.926524e+003;4.670114e-003
3.928452e+003;4.861933e-003
3.930381e+003;5.099999e-003
3.932309e+003;4.710809e-003
3.934238e+003;4.725748e-003
3.936167e+003;4.500375e-003
3.938095e+003;4.192609e-003
3.940023e+003;4.599049e-003
3.941952e+003;4.966387e-003
3.943881e+003;5.088701e-003
3.945809e+003;5.308074e-003
3.947738e+003;5.259978e-003
3.949666e+003;5.668862e-003
3.951595e+003;6.118958e-003
3.953523e+003;5.653857e-003
3.955452e+003;5.480377e-003
3.957380e+003;5.730601e-003
3.959309e+003;5.893768e-003
3.961238e+003;6.239379e-003
3.963166e+003;5.743661e-003
3.965095e+003;4.682741e-003
3.967023e+003;4.768459e-003
3.968952e+003;5.025210e-003
3.970880e+003;5.341684e-003
3.972809e+003;5.710960e-003
3.974737e+003;5.772973e-003
3.976666e+003;5.586592e-003
3.978594e+003;5.643048e-003
3.980523e+003;6.567671e-003
3.982452e+003;6.354689e-003
3.984380e+003;5.799836e-003
3.986309e+003;5.907908e-003
3.988237e+003;6.303754e-003
3.990166e+003;5.908345e-003
3.992094e+003;5.276882e-003
3.994023e+003;5.136979e-003
3.995951e+003;4.848396e-003
3.997880e+003;4.586693e-003
3.999809e+003;5.332157e-003
4.001737e+003;0.000000e+000
