3.992094e+002;0.000000e+000
4.011380e+002;0.000000e+000
4.030665e+002;0.000000e+000
4.049951e+002;0.000000e+000
4.069236e+002;0.000000e+000
4.088522e+002;0.000000e+000
4.107807e+002;0.000000e+000
4.127093e+002;0.000000e+000
4.146378e+002;0.000000e+000
4.165664e+002;0.000000e+000
4.184949e+002;0.000000e+000
4.204235e+002;0.000000e+000
4.223520e+002;0.000000e+000
4.242806e+002;0.000000e+000
4.262091e+002;0.000000e+000
4.281377e+002;0.000000e+000
4.300662e+002;0.000000e+000
4.319948e+002;0.000000e+000
4.339233e+002;0.000000e+000
4.358519e+002;0.000000e+000
4.377804e+002;0.000000e+000
4.397090e+002;0.000000e+000
4.416375e+002;0.000000e+000
4.435660e+002;0.000000e+000
4.454946e+002;0.000000e+000
4.474232e+002;0.000000e+000
4.493517e+002;0.000000e+000
4.512802e+002;0.000000e+000
4.532088e+002;0.000000e+000
4.551373e+002;0.000000e+000
4.570659e+002;0.000000e+000
4.589944e+002;0.000000e+000
4.609230e+002;0.000000e+000
4.628515e+002;0.000000e+000
4.647801e+002;0.000000e+000
4.667086e+002;0.000000e+000
4.686372e+002;0.000000e+000
4.705657e+002;0.000000e+000
4.724943e+002;0.000000e+000
4.744228e+002;0.000000e+000
4.763513e+002;0.000000e+000
4.782799e+002;0.000000e+000
4.802085e+002;0.000000e+000
4.821370e+002;0.000000e+000
4.840656e+002;0.000000e+000
4.859941e+002;0.000000e+000
4.879226e+002;0.000000e+000
4.898512e+002;0.000000e+000
4.917798e+002;0.000000e+000
4.937083e+002;0.000000e+000
4.956368e+002;0.000000e+000
4.975654e+002;0.000000e+000
4.994939e+002;0.000000e+000
5.014225e+002;0.000000e+000
5.033510e+002;0.000000e+000
5.052796e+002;0.000000e+000
5.072081e+002;0.000000e+000
5.091367e+002;0.000000e+000
5.110652e+002;0.000000e+000
5.129938e+002;0.000000e+000
5.149223e+002;0.000000e+000
5.168509e+002;0.000000e+000
5.187794e+002;0.000000e+000
5.207079e+002;0.000000e+000
5.226365e+002;0.000000e+000
5.245651e+002;0.000000e+000
5.264936e+002;0.000000e+000
5.284222e+002;0.000000e+000
5.303507e+002;0.000000e+000
5.322792e+002;0.000000e+000
5.342078e+002;0.000000e+000
5.361364e+002;0.000000e+000
5.380649e+002;0.000000e+000
5.399935e+002;0.000000e+000
5.419220e+002;0.000000e+000
5.438505e+002;0.000000e+000
5.457791e+002;0.000000e+000
5.477076e+002;0.000000e+000
5.496362e+002;0.000000e+000
5.515648e+002;0.000000e+000
5.534933e+002;0.000000e+000
5.554218e+002;0.000000e+000
5.573504e+002;0.000000e+000
5.592789e+002;0.000000e+000
5.612075e+002;0.000000e+000
5.631360e+002;0.000000e+000
5.650646e+002;0.000000e+000
5.669931e+002;0.000000e+000
5.689217e+002;0.000000e+000
5.708502e+002;0.000000e+000
5.727787e+002;0.000000e+000
5.747073e+002;0.000000e+000
5.766359e+002;0.000000e+000
5.785644e+002;0.000000e+000
5.804930e+002;0.000000e+000
5.824215e+002;0.000000e+000
5.843500e+002;0.000000e+000
5.862786e+002;0.000000e+000
5.882072e+002;0.000000e+000
5.901357e+002;0.000000e+000
5.920643e+002;0.000000e+000
5.939928e+002;0.000000e+000
5.959213e+002;0.000000e+000
5.978499e+002;0.000000e+000
5.997784e+002;2.989582e-001
6.017070e+002;3.010927e-001
6.036355e+002;2.979623e-001
6.055641e+002;2.955041e-001
6.074926e+002;2.977025e-001
6.094211e+002;2.963275e-001
6.113497e+002;2.917400e-001
6.132783e+002;2.909400e-001
6.152068e+002;2.927498e-001
6.171354e+002;2.939528e-001
6.190639e+002;2.891497e-001
6.209924e+002;2.814238e-001
6.229210e+002;2.723012e-001
6.248495e+002;2.628978e-001
6.267781e+002;2.578239e-001
6.287067e+002;2.577915e-001
6.306352e+002;2.576007e-001
6.325637e+002;2.539920e-001
6.344923e+002;2.486500e-001
6.364208e+002;2.475876e-001
6.383494e+002;2.511788e-001
6.402780e+002;2.550098e-001
6.422065e+002;2.540323e-001
6.441350e+002;2.503381e-001
6.460636e+002;2.455655e-001
6.479921e+002;2.423443e-001
6.499207e+002;2.432949e-001
6.518492e+002;2.458129e-001
6.537778e+002;2.493527e-001
6.557063e+002;2.591634e-001
6.576349e+002;2.651612e-001
6.595634e+002;2.670248e-001
6.614919e+002;2.676061e-001
6.634205e+002;2.649087e-001
6.653491e+002;2.640501e-001
6.672776e+002;2.622460e-001
6.692062e+002;2.581764e-001
6.711347e+002;2.512830e-001
6.730632e+002;2.440878e-001
6.749918e+002;2.377796e-001
6.769203e+002;2.304807e-001
6.788489e+002;2.242793e-001
6.807775e+002;2.189878e-001
6.827060e+002;2.145040e-001
6.846345e+002;2.119707e-001
6.865631e+002;2.108064e-001
6.884916e+002;2.094069e-001
6.904202e+002;2.076324e-001
6.923488e+002;2.069719e-001
6.942773e+002;2.073537e-001
6.962058e+002;2.063814e-001
6.981344e+002;2.060478e-001
7.000629e+002;2.053828e-001
7.019915e+002;2.039273e-001
7.039200e+002;2.029483e-001
7.058486e+002;2.011976e-001
7.077771e+002;1.987095e-001
7.097057e+002;1.968502e-001
7.116342e+002;1.943418e-001
7.135627e+002;1.918887e-001
7.154913e+002;1.892427e-001
7.174199e+002;1.851804e-001
7.193484e+002;1.810901e-001
7.212770e+002;1.773922e-001
7.232055e+002;1.727077e-001
7.251340e+002;1.682266e-001
7.270626e+002;1.652306e-001
7.289911e+002;1.635948e-001
7.309197e+002;1.614284e-001
7.328483e+002;1.587961e-001
7.347768e+002;1.564333e-001
7.367053e+002;1.541476e-001
7.386339e+002;1.521747e-001
7.405624e+002;1.505396e-001
7.424910e+002;1.484319e-001
7.444196e+002;1.459222e-001
7.463481e+002;1.443589e-001
7.482766e+002;1.434591e-001
7.502052e+002;1.410079e-001
7.521337e+002;1.393434e-001
7.540623e+002;1.385020e-001
7.559908e+002;1.371365e-001
7.579194e+002;1.357823e-001
7.598479e+002;1.345447e-001
7.617765e+002;1.323113e-001
7.637050e+002;1.310139e-001
7.656335e+002;1.302033e-001
7.675621e+002;1.282813e-001
7.694907e+002;1.271399e-001
7.714192e+002;1.268439e-001
7.733478e+002;1.263722e-001
7.752763e+002;1.258569e-001
7.772048e+002;1.247411e-001
7.791334e+002;1.238347e-001
7.810620e+002;1.238756e-001
7.829905e+002;1.237807e-001
7.849191e+002;1.222099e-001
7.868476e+002;1.208316e-001
7.887761e+002;1.200487e-001
7.907047e+002;1.193217e-001
7.926332e+002;1.189515e-001
7.945618e+002;1.190177e-001
7.964903e+002;1.192371e-001
7.984189e+002;1.195758e-001
8.003474e+002;1.192880e-001
8.022759e+002;1.185821e-001
8.042045e+002;1.185685e-001
8.061331e+002;1.181708e-001
8.080616e+002;1.179894e-001
8.099902e+002;1.177165e-001
8.119187e+002;1.169509e-001
8.138472e+002;1.167411e-001
8.157758e+002;1.158962e-001
8.177043e+002;1.142356e-001
8.196329e+002;1.134156e-001
8.215615e+002;1.132166e-001
8.234900e+002;1.123967e-001
8.254185e+002;1.115781e-001
8.273471e+002;1.115138e-001
8.292756e+002;1.116608e-001
8.312042e+002;1.111794e-001
8.331328e+002;1.107528e-001
8.350613e+002;1.104797e-001
8.369898e+002;1.106411e-001
8.389184e+002;1.110192e-001
8.408469e+002;1.111917e-001
8.427755e+002;1.110282e-001
8.447040e+002;1.108728e-001
8.466326e+002;1.107161e-001
8.485611e+002;1.109460e-001
8.504897e+002;1.116423e-001
8.524182e+002;1.121939e-001
8.543467e+002;1.127848e-001
8.562753e+002;1.134779e-001
8.582039e+002;1.146782e-001
8.601324e+002;1.162552e-001
8.620610e+002;1.176614e-001
8.639895e+002;1.191190e-001
8.659180e+002;1.209980e-001
8.678466e+002;1.228348e-001
8.697751e+002;1.247218e-001
8.717037e+002;1.274271e-001
8.736323e+002;1.301076e-001
8.755608e+002;1.320241e-001
8.774893e+002;1.334626e-001
8.794179e+002;1.356488e-001
8.813464e+002;1.386722e-001
8.832750e+002;1.420524e-001
8.852036e+002;1.453759e-001
8.871321e+002;1.491070e-001
8.890606e+002;1.531710e-001
8.909892e+002;1.561172e-001
8.929177e+002;1.581345e-001
8.948463e+002;1.599899e-001
8.967748e+002;1.608912e-001
8.987034e+002;1.601653e-001
9.006319e+002;1.587671e-001
9.025605e+002;1.568022e-001
9.044890e+002;1.544321e-001
9.064175e+002;1.523111e-001
9.083461e+002;1.496199e-001
9.102747e+002;1.471245e-001
9.122032e+002;1.454372e-001
9.141318e+002;1.438673e-001
9.160603e+002;1.427530e-001
9.179888e+002;1.423866e-001
9.199174e+002;1.426734e-001
9.218459e+002;1.434746e-001
9.237745e+002;1.447302e-001
9.257031e+002;1.458651e-001
9.276316e+002;1.471623e-001
9.295601e+002;1.486806e-001
9.314887e+002;1.503469e-001
9.334172e+002;1.524779e-001
9.353458e+002;1.548065e-001
9.372744e+002;1.570353e-001
9.392029e+002;1.594182e-001
9.411314e+002;1.620412e-001
9.430600e+002;1.643718e-001
9.449885e+002;1.666740e-001
9.469171e+002;1.699095e-001
9.488456e+002;1.739872e-001
9.507742e+002;1.781211e-001
9.527027e+002;1.824559e-001
9.546313e+002;1.877698e-001
9.565598e+002;1.939756e-001
9.584883e+002;2.005687e-001
9.604169e+002;2.069727e-001
9.623455e+002;2.137950e-001
9.642740e+002;2.213786e-001
9.662026e+002;2.291534e-001
9.681311e+002;2.376730e-001
9.700596e+002;2.482851e-001
9.719882e+002;2.608349e-001
9.739167e+002;2.748689e-001
9.758453e+002;2.909916e-001
9.777739e+002;3.100531e-001
9.797024e+002;3.304911e-001
9.816309e+002;3.489650e-001
9.835595e+002;3.624210e-001
9.854880e+002;3.696267e-001
9.874166e+002;3.727876e-001
9.893452e+002;3.758433e-001
9.912737e+002;3.809471e-001
9.932022e+002;3.884782e-001
9.951307e+002;3.977802e-001
9.970593e+002;4.079370e-001
9.989879e+002;4.172012e-001
1.000916e+003;4.236748e-001
1.002845e+003;4.276012e-001
1.004773e+003;4.291649e-001
1.006702e+003;4.295026e-001
1.008631e+003;4.310946e-001
1.010559e+003;4.353300e-001
1.012488e+003;4.418716e-001
1.014416e+003;4.489239e-001
1.016345e+003;4.555753e-001
1.018273e+003;4.625391e-001
1.020202e+003;4.698428e-001
1.022130e+003;4.772436e-001
1.024059e+003;4.838354e-001
1.025988e+003;4.904386e-001
1.027916e+003;4.953865e-001
1.029845e+003;4.972874e-001
1.031773e+003;4.956985e-001
1.033702e+003;4.900447e-001
1.035630e+003;4.807402e-001
1.037559e+003;4.706686e-001
1.039487e+003;4.625685e-001
1.041416e+003;4.572341e-001
1.043344e+003;4.548349e-001
1.045273e+003;4.562953e-001
1.047202e+003;4.606349e-001
1.049130e+003;4.654299e-001
1.051059e+003;4.690711e-001
1.052987e+003;4.694971e-001
1.054916e+003;4.665167e-001
1.056844e+003;4.597500e-001
1.058773e+003;4.482436e-001
1.060701e+003;4.318139e-001
1.062630e+003;4.118555e-001
1.064558e+003;3.915085e-001
1.066487e+003;3.725925e-001
1.068416e+003;3.565396e-001
1.070344e+003;3.437540e-001
1.072273e+003;3.334630e-001
1.074201e+003;3.242510e-001
1.076130e+003;3.167138e-001
1.078058e+003;3.101161e-001
1.079987e+003;3.043055e-001
1.081915e+003;2.995735e-001
1.083844e+003;2.962099e-001
1.085773e+003;2.943236e-001
1.087701e+003;2.939002e-001
1.089630e+003;2.936221e-001
1.091558e+003;2.938068e-001
1.093487e+003;2.951804e-001
1.095415e+003;2.968805e-001
1.097344e+003;2.991462e-001
1.099272e+003;3.016083e-001
1.101201e+003;3.028275e-001
1.103129e+003;3.018883e-001
1.105058e+003;2.993009e-001
1.106987e+003;2.957232e-001
1.108915e+003;2.908939e-001
1.110844e+003;2.833878e-001
1.112772e+003;2.728632e-001
1.114701e+003;2.600387e-001
1.116629e+003;2.460344e-001
1.118558e+003;2.340512e-001
1.120486e+003;2.251663e-001
1.122415e+003;2.178428e-001
1.124344e+003;2.105490e-001
1.126272e+003;2.019227e-001
1.128201e+003;1.928180e-001
1.130129e+003;1.852050e-001
1.132058e+003;1.793237e-001
1.133986e+003;1.746679e-001
1.135915e+003;1.710439e-001
1.137843e+003;1.684486e-001
1.139772e+003;1.676485e-001
1.141700e+003;1.687623e-001
1.143629e+003;1.708167e-001
1.145557e+003;1.734227e-001
1.147486e+003;1.755633e-001
1.149415e+003;1.770950e-001
1.151343e+003;1.784979e-001
1.153272e+003;1.801451e-001
1.155200e+003;1.819462e-001
1.157129e+003;1.832122e-001
1.159057e+003;1.834983e-001
1.160986e+003;1.822593e-001
1.162914e+003;1.788922e-001
1.164843e+003;1.728327e-001
1.166771e+003;1.645930e-001
1.168700e+003;1.548705e-001
1.170629e+003;1.455541e-001
1.172557e+003;1.373401e-001
1.174486e+003;1.297603e-001
1.176414e+003;1.233898e-001
1.178343e+003;1.182113e-001
1.180271e+003;1.142319e-001
1.182200e+003;1.117035e-001
1.184128e+003;1.103102e-001
1.186057e+003;1.097363e-001
1.187986e+003;1.102248e-001
1.189914e+003;1.118620e-001
1.191843e+003;1.142277e-001
1.193771e+003;1.172770e-001
1.195700e+003;1.202877e-001
1.197628e+003;1.226315e-001
1.199557e+003;1.243296e-001
1.201485e+003;1.251397e-001
1.203414e+003;1.249823e-001
1.205343e+003;1.241120e-001
1.207271e+003;1.214039e-001
1.209200e+003;1.167239e-001
1.211128e+003;1.120285e-001
1.213057e+003;1.088115e-001
1.214985e+003;1.074264e-001
1.216914e+003;1.080075e-001
1.218842e+003;1.094404e-001
1.220771e+003;1.107969e-001
1.222699e+003;1.124460e-001
1.224628e+003;1.145733e-001
1.226557e+003;1.168143e-001
1.228485e+003;1.187770e-001
1.230414e+003;1.207386e-001
1.232342e+003;1.226257e-001
1.234271e+003;1.237436e-001
1.236199e+003;1.242215e-001
1.238128e+003;1.246828e-001
1.240056e+003;1.249628e-001
1.241985e+003;1.257120e-001
1.243913e+003;1.271660e-001
1.245842e+003;1.283123e-001
1.247771e+003;1.285007e-001
1.249699e+003;1.282378e-001
1.251628e+003;1.280107e-001
1.253556e+003;1.278595e-001
1.255485e+003;1.281792e-001
1.257413e+003;1.291499e-001
1.259342e+003;1.299358e-001
1.261270e+003;1.294751e-001
1.263199e+003;1.283664e-001
1.265127e+003;1.281310e-001
1.267056e+003;1.289276e-001
1.268985e+003;1.297160e-001
1.270913e+003;1.303586e-001
1.272842e+003;1.310036e-001
1.274770e+003;1.315148e-001
1.276699e+003;1.319333e-001
1.278627e+003;1.320945e-001
1.280556e+003;1.316197e-001
1.282484e+003;1.302921e-001
1.284413e+003;1.291911e-001
1.286342e+003;1.287912e-001
1.288270e+003;1.290824e-001
1.290199e+003;1.300479e-001
1.292127e+003;1.313548e-001
1.294056e+003;1.327272e-001
1.295984e+003;1.341133e-001
1.297913e+003;1.360674e-001
1.299841e+003;1.389784e-001
1.301770e+003;1.426340e-001
1.303698e+003;1.468976e-001
1.305627e+003;1.517712e-001
1.307556e+003;1.571473e-001
1.309484e+003;1.622842e-001
1.311413e+003;1.664560e-001
1.313341e+003;1.689093e-001
1.315270e+003;1.690792e-001
1.317198e+003;1.671337e-001
1.319127e+003;1.638711e-001
1.321055e+003;1.599603e-001
1.322984e+003;1.563336e-001
1.324912e+003;1.539102e-001
1.326841e+003;1.527683e-001
1.328770e+003;1.531835e-001
1.330698e+003;1.543547e-001
1.332627e+003;1.557240e-001
1.334555e+003;1.566768e-001
1.336484e+003;1.559032e-001
1.338412e+003;1.537179e-001
1.340341e+003;1.511402e-001
1.342269e+003;1.483850e-001
1.344198e+003;1.453193e-001
1.346126e+003;1.426162e-001
1.348055e+003;1.410807e-001
1.349984e+003;1.404769e-001
1.351912e+003;1.409545e-001
1.353841e+003;1.422687e-001
1.355769e+003;1.437242e-001
1.357698e+003;1.450024e-001
1.359626e+003;1.460410e-001
1.361555e+003;1.461833e-001
1.363483e+003;1.451868e-001
1.365412e+003;1.440368e-001
1.367341e+003;1.432195e-001
1.369269e+003;1.423941e-001
1.371198e+003;1.409857e-001
1.373126e+003;1.383517e-001
1.375055e+003;1.349361e-001
1.376983e+003;1.314462e-001
1.378912e+003;1.279652e-001
1.380840e+003;1.245720e-001
1.382769e+003;1.215182e-001
1.384698e+003;1.186359e-001
1.386626e+003;1.163046e-001
1.388555e+003;1.146874e-001
1.390483e+003;1.138799e-001
1.392412e+003;1.130825e-001
1.394340e+003;1.124620e-001
1.396269e+003;1.124596e-001
1.398197e+003;1.126065e-001
1.400126e+003;1.128029e-001
1.402054e+003;1.131487e-001
1.403983e+003;1.134724e-001
1.405911e+003;1.138426e-001
1.407840e+003;1.141895e-001
1.409769e+003;1.148261e-001
1.411697e+003;1.157084e-001
1.413626e+003;1.167125e-001
1.415554e+003;1.178958e-001
1.417483e+003;1.196041e-001
1.419411e+003;1.216471e-001
1.421340e+003;1.235937e-001
1.423268e+003;1.251258e-001
1.425197e+003;1.262331e-001
1.427125e+003;1.268284e-001
1.429054e+003;1.264497e-001
1.430983e+003;1.252573e-001
1.432911e+003;1.233476e-001
1.434840e+003;1.210112e-001
1.436768e+003;1.189200e-001
1.438697e+003;1.172745e-001
1.440625e+003;1.157375e-001
1.442554e+003;1.146039e-001
1.444482e+003;1.139622e-001
1.446411e+003;1.132960e-001
1.448340e+003;1.125480e-001
1.450268e+003;1.120059e-001
1.452197e+003;1.113759e-001
1.454125e+003;1.102501e-001
1.456054e+003;1.087183e-001
1.457982e+003;1.071696e-001
1.459911e+003;1.056494e-001
1.461839e+003;1.038613e-001
1.463768e+003;1.017396e-001
1.465697e+003;9.965404e-002
1.467625e+003;9.770185e-002
1.469554e+003;9.554918e-002
1.471482e+003;9.353183e-002
1.473411e+003;9.172115e-002
1.475339e+003;8.991021e-002
1.477268e+003;8.856501e-002
1.479196e+003;8.739573e-002
1.481125e+003;8.581363e-002
1.483053e+003;8.383331e-002
1.484982e+003;8.163235e-002
1.486911e+003;7.965751e-002
1.488839e+003;7.789124e-002
1.490768e+003;7.649702e-002
1.492696e+003;7.529420e-002
1.494625e+003;7.428318e-002
1.496553e+003;7.379415e-002
1.498482e+003;7.339503e-002
1.500410e+003;7.325482e-002
1.502339e+003;7.338537e-002
1.504267e+003;7.315169e-002
1.506196e+003;7.267010e-002
1.508125e+003;7.255833e-002
1.510053e+003;7.241233e-002
1.511982e+003;7.192094e-002
1.513910e+003;7.167048e-002
1.515839e+003;7.148927e-002
1.517767e+003;7.130650e-002
1.519696e+003;7.107685e-002
1.521624e+003;7.093213e-002
1.523553e+003;7.096182e-002
1.525481e+003;7.085375e-002
1.527410e+003;7.065144e-002
1.529339e+003;7.047011e-002
1.531267e+003;7.062809e-002
1.533196e+003;7.077002e-002
1.535124e+003;7.069776e-002
1.537053e+003;7.058302e-002
1.538981e+003;7.029415e-002
1.540910e+003;6.997989e-002
1.542838e+003;7.018750e-002
1.544767e+003;7.085274e-002
1.546695e+003;7.122099e-002
1.548624e+003;7.110015e-002
1.550553e+003;7.091371e-002
1.552481e+003;7.106612e-002
1.554410e+003;7.131337e-002
1.556338e+003;7.125683e-002
1.558267e+003;7.110187e-002
1.560195e+003;7.138959e-002
1.562124e+003;7.168322e-002
1.564052e+003;7.178441e-002
1.565981e+003;7.203110e-002
1.567910e+003;7.217900e-002
1.569838e+003;7.227068e-002
1.571767e+003;7.258692e-002
1.573695e+003;7.287622e-002
1.575624e+003;7.303535e-002
1.577552e+003;7.338204e-002
1.579481e+003;7.383589e-002
1.581409e+003;7.422925e-002
1.583338e+003;7.449447e-002
1.585266e+003;7.456634e-002
1.587195e+003;7.495265e-002
1.589124e+003;7.556348e-002
1.591052e+003;7.604203e-002
1.592981e+003;7.622934e-002
1.594909e+003;7.649196e-002
1.596838e+003;7.692123e-002
1.598766e+003;7.741662e-002
1.600695e+003;7.791293e-002
1.602623e+003;7.839222e-002
1.604552e+003;7.867207e-002
1.606480e+003;7.874214e-002
1.608409e+003;7.896177e-002
1.610338e+003;7.931696e-002
1.612266e+003;7.948213e-002
1.614195e+003;7.935399e-002
1.616123e+003;7.922445e-002
1.618052e+003;7.937129e-002
1.619980e+003;7.936258e-002
1.621909e+003;7.947532e-002
1.623837e+003;7.999992e-002
1.625766e+003;8.047687e-002
1.627694e+003;8.054889e-002
1.629623e+003;8.063538e-002
1.631552e+003;8.065771e-002
1.633480e+003;8.071361e-002
1.635409e+003;8.066390e-002
1.637337e+003;8.062895e-002
1.639266e+003;8.074905e-002
1.641194e+003;8.073703e-002
1.643123e+003;8.048384e-002
1.645051e+003;8.013351e-002
1.646980e+003;7.980338e-002
1.648909e+003;7.969302e-002
1.650837e+003;7.939377e-002
1.652766e+003;7.890148e-002
1.654694e+003;7.894353e-002
1.656623e+003;7.886628e-002
1.658551e+003;7.822917e-002
1.660480e+003;7.760682e-002
1.662408e+003;7.701886e-002
1.664337e+003;7.643957e-002
1.666266e+003;7.602499e-002
1.668194e+003;7.540751e-002
1.670123e+003;7.478112e-002
1.672051e+003;7.465444e-002
1.673980e+003;7.445129e-002
1.675908e+003;7.387815e-002
1.677837e+003;7.338800e-002
1.679765e+003;7.300897e-002
1.681694e+003;7.262600e-002
1.683622e+003;7.210291e-002
1.685551e+003;7.161613e-002
1.687479e+003;7.137261e-002
1.689408e+003;7.113918e-002
1.691337e+003;7.061896e-002
1.693265e+003;7.024433e-002
1.695194e+003;6.994626e-002
1.697122e+003;6.968877e-002
1.699051e+003;6.947973e-002
1.700979e+003;6.906894e-002
1.702908e+003;6.885651e-002
1.704836e+003;6.893533e-002
1.706765e+003;6.888357e-002
1.708693e+003;6.863824e-002
1.710622e+003;6.846228e-002
1.712551e+003;6.828353e-002
1.714479e+003;6.820614e-002
1.716408e+003;6.809977e-002
1.718336e+003;6.789745e-002
1.720265e+003;6.805690e-002
1.722193e+003;6.830242e-002
1.724122e+003;6.788940e-002
1.726050e+003;6.741946e-002
1.727979e+003;6.737759e-002
1.729908e+003;6.741033e-002
1.731836e+003;6.734157e-002
1.733765e+003;6.691783e-002
1.735693e+003;6.671016e-002
1.737622e+003;6.689004e-002
1.739550e+003;6.681282e-002
1.741479e+003;6.661814e-002
1.743407e+003;6.621829e-002
1.745336e+003;6.580868e-002
1.747265e+003;6.546348e-002
1.749193e+003;6.511085e-002
1.751122e+003;6.494025e-002
1.753050e+003;6.491647e-002
1.754979e+003;6.497746e-002
1.756907e+003;6.494541e-002
1.758836e+003;6.514793e-002
1.760764e+003;6.535883e-002
1.762693e+003;6.540278e-002
1.764621e+003;6.543883e-002
1.766550e+003;6.539191e-002
1.768479e+003;6.542758e-002
1.770407e+003;6.539415e-002
1.772336e+003;6.519813e-002
1.774264e+003;6.526697e-002
1.776193e+003;6.522392e-002
1.778121e+003;6.494075e-002
1.780050e+003;6.471922e-002
1.781978e+003;6.480987e-002
1.783907e+003;6.474882e-002
1.785835e+003;6.459812e-002
1.787764e+003;6.479860e-002
1.789693e+003;6.505436e-002
1.791621e+003;6.505628e-002
1.793550e+003;6.498031e-002
1.795478e+003;6.487361e-002
1.797407e+003;6.478102e-002
1.799335e+003;6.479821e-002
1.801264e+003;6.465080e-002
1.803192e+003;6.446034e-002
1.805121e+003;6.451885e-002
1.807049e+003;6.455318e-002
1.808978e+003;6.446680e-002
1.810907e+003;6.444355e-002
1.812835e+003;6.449936e-002
1.814764e+003;6.454053e-002
1.816692e+003;6.458174e-002
1.818621e+003;6.447595e-002
1.820549e+003;6.447464e-002
1.822478e+003;6.461362e-002
1.824406e+003;6.476017e-002
1.826335e+003;6.470429e-002
1.828264e+003;6.437430e-002
1.830192e+003;6.415935e-002
1.832121e+003;6.439409e-002
1.834049e+003;6.439897e-002
1.835978e+003;6.416595e-002
1.837906e+003;6.427781e-002
1.839835e+003;6.431489e-002
1.841763e+003;6.418931e-002
1.843692e+003;6.409962e-002
1.845620e+003;6.409164e-002
1.847549e+003;6.419841e-002
1.849478e+003;6.431708e-002
1.851406e+003;6.423901e-002
1.853335e+003;6.405247e-002
1.855263e+003;6.391940e-002
1.857192e+003;6.381929e-002
1.859120e+003;6.377201e-002
1.861049e+003;6.390078e-002
1.862977e+003;6.394634e-002
1.864906e+003;6.393114e-002
1.866834e+003;6.394769e-002
1.868763e+003;6.391041e-002
1.870692e+003;6.361363e-002
1.872620e+003;6.332598e-002
1.874549e+003;6.349541e-002
1.876477e+003;6.374829e-002
1.878406e+003;6.383035e-002
1.880334e+003;6.394926e-002
1.882263e+003;6.398570e-002
1.884191e+003;6.377055e-002
1.886120e+003;6.358536e-002
1.888048e+003;6.367900e-002
1.889977e+003;6.385107e-002
1.891906e+003;6.385836e-002
1.893834e+003;6.378728e-002
1.895763e+003;6.345607e-002
1.897691e+003;6.319987e-002
1.899620e+003;6.338172e-002
1.901548e+003;6.369446e-002
1.903477e+003;6.370118e-002
1.905405e+003;6.353538e-002
1.907334e+003;6.359326e-002
1.909262e+003;6.369308e-002
1.911191e+003;6.363875e-002
1.913120e+003;6.371836e-002
1.915048e+003;6.365253e-002
1.916977e+003;6.353384e-002
1.918905e+003;6.368686e-002
1.920834e+003;6.397015e-002
1.922762e+003;6.399679e-002
1.924691e+003;6.399879e-002
1.926619e+003;6.409620e-002
1.928548e+003;6.399786e-002
1.930477e+003;6.384876e-002
1.932405e+003;6.382478e-002
1.934334e+003;6.386596e-002
1.936262e+003;6.382624e-002
1.938191e+003;6.378744e-002
1.940119e+003;6.393233e-002
1.942048e+003;6.409083e-002
1.943976e+003;6.420709e-002
1.945905e+003;6.423364e-002
1.947833e+003;6.419100e-002
1.949762e+003;6.443045e-002
1.951691e+003;6.464161e-002
1.953619e+003;6.457694e-002
1.955548e+003;6.449467e-002
1.957476e+003;6.447960e-002
1.959405e+003;6.456779e-002
1.961333e+003;6.443164e-002
1.963262e+003;6.440151e-002
1.965190e+003;6.444878e-002
1.967119e+003;6.436692e-002
1.969047e+003;6.449905e-002
1.970976e+003;6.431374e-002
1.972905e+003;6.405392e-002
1.974833e+003;6.426744e-002
1.976762e+003;6.457851e-002
1.978690e+003;6.474060e-002
1.980619e+003;6.481595e-002
1.982547e+003;6.494649e-002
1.984476e+003;6.502934e-002
1.986404e+003;6.482553e-002
1.988333e+003;6.475206e-002
1.990261e+003;6.487015e-002
1.992190e+003;6.477998e-002
1.994119e+003;6.482895e-002
1.996047e+003;6.516914e-002
1.997976e+003;6.534792e-002
1.999904e+003;6.518211e-002
2.001833e+003;6.475759e-002
2.003761e+003;6.448018e-002
2.005690e+003;6.466565e-002
2.007618e+003;6.499343e-002
2.009547e+003;6.539184e-002
2.011476e+003;6.568768e-002
2.013404e+003;6.584296e-002
2.015333e+003;6.573467e-002
2.017261e+003;6.552552e-002
2.019190e+003;6.536326e-002
2.021118e+003;6.561472e-002
2.023047e+003;6.596062e-002
2.024975e+003;6.577522e-002
2.026904e+003;6.543270e-002
2.028833e+003;6.550109e-002
2.030761e+003;6.571975e-002
2.032690e+003;6.563187e-002
2.034618e+003;6.561630e-002
2.036547e+003;6.566228e-002
2.038475e+003;6.564135e-002
2.040404e+003;6.592155e-002
2.042332e+003;6.598793e-002
2.044261e+003;6.570479e-002
2.046189e+003;6.560227e-002
2.048118e+003;6.555761e-002
2.050047e+003;6.558809e-002
2.051975e+003;6.569693e-002
2.053904e+003;6.578405e-002
2.055832e+003;6.572896e-002
2.057761e+003;6.555276e-002
2.059689e+003;6.548683e-002
2.061618e+003;6.547932e-002
2.063546e+003;6.532713e-002
2.065475e+003;6.532925e-002
2.067404e+003;6.530737e-002
2.069332e+003;6.513103e-002
2.071260e+003;6.522412e-002
2.073189e+003;6.542323e-002
2.075118e+003;6.547030e-002
2.077046e+003;6.545886e-002
2.078975e+003;6.534508e-002
2.080903e+003;6.526078e-002
2.082832e+003;6.544118e-002
2.084760e+003;6.555302e-002
2.086689e+003;6.543197e-002
2.088617e+003;6.539819e-002
2.090546e+003;6.532019e-002
2.092475e+003;6.533383e-002
2.094403e+003;6.527121e-002
2.096332e+003;6.525184e-002
2.098260e+003;6.524037e-002
2.100189e+003;6.533834e-002
2.102117e+003;6.525739e-002
2.104046e+003;6.514782e-002
2.105974e+003;6.525065e-002
2.107903e+003;6.526035e-002
2.109832e+003;6.514624e-002
2.111760e+003;6.519220e-002
2.113688e+003;6.522824e-002
2.115617e+003;6.522138e-002
2.117546e+003;6.539646e-002
2.119474e+003;6.555272e-002
2.121403e+003;6.542353e-002
2.123331e+003;6.523371e-002
2.125260e+003;6.516390e-002
2.127188e+003;6.520572e-002
2.129117e+003;6.557795e-002
2.131045e+003;6.583922e-002
2.132974e+003;6.564552e-002
2.134903e+003;6.536930e-002
2.136831e+003;6.546310e-002
2.138760e+003;6.553984e-002
2.140688e+003;6.573185e-002
2.142617e+003;6.575140e-002
2.144545e+003;6.519128e-002
2.146474e+003;6.497404e-002
2.148402e+003;6.521184e-002
2.150331e+003;6.534970e-002
2.152260e+003;6.538852e-002
2.154188e+003;6.530907e-002
2.156117e+003;6.520518e-002
2.158045e+003;6.529609e-002
2.159974e+003;6.550636e-002
2.161902e+003;6.546877e-002
2.163831e+003;6.536464e-002
2.165759e+003;6.512675e-002
2.167688e+003;6.492763e-002
2.169616e+003;6.490601e-002
2.171545e+003;6.473694e-002
2.173474e+003;6.468898e-002
2.175402e+003;6.471783e-002
2.177331e+003;6.474571e-002
2.179259e+003;6.484518e-002
2.181188e+003;6.455318e-002
2.183116e+003;6.406137e-002
2.185045e+003;6.398570e-002
2.186973e+003;6.404252e-002
2.188902e+003;6.398600e-002
2.190831e+003;6.389233e-002
2.192759e+003;6.387129e-002
2.194688e+003;6.379388e-002
2.196616e+003;6.370555e-002
2.198545e+003;6.389444e-002
2.200473e+003;6.397238e-002
2.202402e+003;6.395578e-002
2.204330e+003;6.414913e-002
2.206259e+003;6.394634e-002
2.208188e+003;6.338414e-002
2.210116e+003;6.335178e-002
2.212044e+003;6.365145e-002
2.213973e+003;6.383196e-002
2.215902e+003;6.394749e-002
2.217830e+003;6.384596e-002
2.219759e+003;6.355689e-002
2.221687e+003;6.364873e-002
2.223616e+003;6.385548e-002
2.225544e+003;6.392404e-002
2.227473e+003;6.383652e-002
2.229401e+003;6.371238e-002
2.231330e+003;6.379734e-002
2.233259e+003;6.362644e-002
2.235187e+003;6.329206e-002
2.237116e+003;6.338114e-002
2.239044e+003;6.360396e-002
2.240973e+003;6.352322e-002
2.242901e+003;6.349327e-002
2.244830e+003;6.381226e-002
2.246758e+003;6.410005e-002
2.248687e+003;6.403477e-002
2.250615e+003;6.385011e-002
2.252544e+003;6.370842e-002
2.254473e+003;6.345361e-002
2.256401e+003;6.322096e-002
2.258330e+003;6.328788e-002
2.260258e+003;6.336934e-002
2.262187e+003;6.324000e-002
2.264115e+003;6.313461e-002
2.266044e+003;6.309906e-002
2.267972e+003;6.300987e-002
2.269901e+003;6.282675e-002
2.271830e+003;6.268897e-002
2.273758e+003;6.278062e-002
2.275687e+003;6.289603e-002
2.277615e+003;6.274589e-002
2.279544e+003;6.269941e-002
2.281472e+003;6.267461e-002
2.283401e+003;6.256190e-002
2.285329e+003;6.260162e-002
2.287258e+003;6.279176e-002
2.289187e+003;6.268292e-002
2.291115e+003;6.258096e-002
2.293043e+003;6.264100e-002
2.294972e+003;6.232818e-002
2.296901e+003;6.218829e-002
2.298829e+003;6.227230e-002
2.300758e+003;6.238173e-002
2.302686e+003;6.228271e-002
2.304615e+003;6.218604e-002
2.306543e+003;6.230959e-002
2.308472e+003;6.211034e-002
2.310400e+003;6.197316e-002
2.312329e+003;6.231254e-002
2.314258e+003;6.265359e-002
2.316186e+003;6.248514e-002
2.318115e+003;6.212693e-002
2.320043e+003;6.212735e-002
2.321972e+003;6.227265e-002
2.323900e+003;6.268009e-002
2.325829e+003;6.308231e-002
2.327757e+003;6.303001e-002
2.329686e+003;6.278957e-002
2.331615e+003;6.268346e-002
2.333543e+003;6.271385e-002
2.335472e+003;6.270573e-002
2.337400e+003;6.288236e-002
2.339329e+003;6.297845e-002
2.341257e+003;6.285954e-002
2.343186e+003;6.295126e-002
2.345114e+003;6.313645e-002
2.347043e+003;6.325077e-002
2.348971e+003;6.312472e-002
2.350900e+003;6.309997e-002
2.352829e+003;6.340542e-002
2.354757e+003;6.356073e-002
2.356686e+003;6.346060e-002
2.358614e+003;6.324854e-002
2.360543e+003;6.319351e-002
2.362471e+003;6.363434e-002
2.364400e+003;6.403492e-002
2.366328e+003;6.376180e-002
2.368257e+003;6.351118e-002
2.370186e+003;6.365452e-002
2.372114e+003;6.400619e-002
2.374042e+003;6.415600e-002
2.375971e+003;6.398900e-002
2.377900e+003;6.391121e-002
2.379828e+003;6.399084e-002
2.381757e+003;6.405842e-002
2.383685e+003;6.394143e-002
2.385614e+003;6.373709e-002
2.387542e+003;6.375812e-002
2.389471e+003;6.396370e-002
2.391399e+003;6.395379e-002
2.393328e+003;6.407224e-002
2.395257e+003;6.434286e-002
2.397185e+003;6.431174e-002
2.399114e+003;6.417260e-002
2.401042e+003;6.418366e-002
2.402971e+003;6.447218e-002
2.404899e+003;6.477852e-002
2.406828e+003;6.484076e-002
2.408756e+003;6.487446e-002
2.410685e+003;6.488011e-002
2.412614e+003;6.491455e-002
2.414542e+003;6.517877e-002
2.416471e+003;6.552174e-002
2.418399e+003;6.557838e-002
2.420328e+003;6.537327e-002
2.422256e+003;6.505693e-002
2.424185e+003;6.486849e-002
2.426113e+003;6.489754e-002
2.428042e+003;6.527618e-002
2.429970e+003;6.565673e-002
2.431899e+003;6.552540e-002
2.433828e+003;6.556104e-002
2.435756e+003;6.585333e-002
2.437685e+003;6.613707e-002
2.439613e+003;6.613248e-002
2.441542e+003;6.605814e-002
2.443470e+003;6.604131e-002
2.445399e+003;6.603742e-002
2.447327e+003;6.634714e-002
2.449256e+003;6.645740e-002
2.451185e+003;6.614733e-002
2.453113e+003;6.616960e-002
2.455042e+003;6.646435e-002
2.456970e+003;6.658515e-002
2.458899e+003;6.666326e-002
2.460827e+003;6.635100e-002
2.462756e+003;6.623477e-002
2.464684e+003;6.656553e-002
2.466613e+003;6.687868e-002
2.468542e+003;6.696882e-002
2.470470e+003;6.702341e-002
2.472398e+003;6.708079e-002
2.474327e+003;6.712514e-002
2.476256e+003;6.706671e-002
2.478184e+003;6.697071e-002
2.480113e+003;6.698359e-002
2.482041e+003;6.713427e-002
2.483970e+003;6.744520e-002
2.485898e+003;6.766380e-002
2.487827e+003;6.745739e-002
2.489755e+003;6.732203e-002
2.491684e+003;6.752009e-002
2.493613e+003;6.757358e-002
2.495541e+003;6.759236e-002
2.497470e+003;6.794488e-002
2.499398e+003;6.805206e-002
2.501327e+003;6.770500e-002
2.503255e+003;6.760049e-002
2.505184e+003;6.778431e-002
2.507112e+003;6.791373e-002
2.509041e+003;6.781781e-002
2.510969e+003;6.791516e-002
2.512898e+003;6.823673e-002
2.514827e+003;6.847582e-002
2.516755e+003;6.836768e-002
2.518684e+003;6.821715e-002
2.520612e+003;6.827538e-002
2.522541e+003;6.860098e-002
2.524469e+003;6.880720e-002
2.526398e+003;6.887949e-002
2.528326e+003;6.895152e-002
2.530255e+003;6.868850e-002
2.532184e+003;6.863544e-002
2.534112e+003;6.881135e-002
2.536041e+003;6.848361e-002
2.537969e+003;6.818826e-002
2.539898e+003;6.817327e-002
2.541826e+003;6.814489e-002
2.543755e+003;6.845487e-002
2.545683e+003;6.881923e-002
2.547612e+003;6.876224e-002
2.549541e+003;6.870484e-002
2.551469e+003;6.873565e-002
2.553397e+003;6.860618e-002
2.555326e+003;6.858861e-002
2.557255e+003;6.906708e-002
2.559183e+003;6.922796e-002
2.561112e+003;6.889467e-002
2.563040e+003;6.894143e-002
2.564969e+003;6.914598e-002
2.566897e+003;6.919474e-002
2.568826e+003;6.901561e-002
2.570754e+003;6.843614e-002
2.572683e+003;6.835663e-002
2.574612e+003;6.881271e-002
2.576540e+003;6.899980e-002
2.578469e+003;6.903130e-002
2.580397e+003;6.923636e-002
2.582326e+003;6.938323e-002
2.584254e+003;6.913770e-002
2.586183e+003;6.911758e-002
2.588111e+003;6.914866e-002
2.590040e+003;6.920387e-002
2.591969e+003;6.925027e-002
2.593897e+003;6.939182e-002
2.595826e+003;6.970842e-002
2.597754e+003;6.996755e-002
2.599683e+003;6.992532e-002
2.601611e+003;6.968492e-002
2.603540e+003;6.991921e-002
2.605468e+003;7.035800e-002
2.607397e+003;7.059164e-002
2.609325e+003;7.068034e-002
2.611254e+003;7.034191e-002
2.613183e+003;7.009011e-002
2.615111e+003;7.023915e-002
2.617040e+003;7.033482e-002
2.618968e+003;7.036077e-002
2.620897e+003;7.054280e-002
2.622825e+003;7.071905e-002
2.624754e+003;7.076222e-002
2.626682e+003;7.063721e-002
2.628611e+003;7.066965e-002
2.630540e+003;7.114577e-002
2.632468e+003;7.143091e-002
2.634396e+003;7.126788e-002
2.636325e+003;7.104262e-002
2.638254e+003;7.122380e-002
2.640182e+003;7.154229e-002
2.642111e+003;7.167841e-002
2.644039e+003;7.163876e-002
2.645968e+003;7.171437e-002
2.647896e+003;7.186702e-002
2.649825e+003;7.191433e-002
2.651753e+003;7.193748e-002
2.653682e+003;7.219579e-002
2.655611e+003;7.241159e-002
2.657539e+003;7.240430e-002
2.659468e+003;7.244416e-002
2.661396e+003;7.253010e-002
2.663325e+003;7.260685e-002
2.665253e+003;7.267970e-002
2.667182e+003;7.267246e-002
2.669110e+003;7.263611e-002
2.671039e+003;7.281537e-002
2.672968e+003;7.305574e-002
2.674896e+003;7.320113e-002
2.676825e+003;7.311913e-002
2.678753e+003;7.303394e-002
2.680682e+003;7.352962e-002
2.682610e+003;7.374915e-002
2.684539e+003;7.366681e-002
2.686467e+003;7.393421e-002
2.688396e+003;7.414804e-002
2.690324e+003;7.409514e-002
2.692253e+003;7.421184e-002
2.694182e+003;7.425676e-002
2.696110e+003;7.417885e-002
2.698039e+003;7.426845e-002
2.699967e+003;7.451780e-002
2.701896e+003;7.446250e-002
2.703824e+003;7.424690e-002
2.705753e+003;7.441211e-002
2.707681e+003;7.458209e-002
2.709610e+003;7.484544e-002
2.711539e+003;7.509706e-002
2.713467e+003;7.498651e-002
2.715396e+003;7.502715e-002
2.717324e+003;7.539584e-002
2.719253e+003;7.557499e-002
2.721181e+003;7.543439e-002
2.723110e+003;7.570888e-002
2.725038e+003;7.623147e-002
2.726967e+003;7.617299e-002
2.728896e+003;7.574347e-002
2.730824e+003;7.576158e-002
2.732752e+003;7.596250e-002
2.734681e+003;7.622582e-002
2.736610e+003;7.646110e-002
2.738538e+003;7.637797e-002
2.740467e+003;7.629909e-002
2.742395e+003;7.655816e-002
2.744324e+003;7.663432e-002
2.746252e+003;7.659563e-002
2.748181e+003;7.662764e-002
2.750109e+003;7.655061e-002
2.752038e+003;7.667638e-002
2.753967e+003;7.672077e-002
2.755895e+003;7.658459e-002
2.757824e+003;7.678566e-002
2.759752e+003;7.706575e-002
2.761681e+003;7.729954e-002
2.763609e+003;7.751523e-002
2.765538e+003;7.786535e-002
2.767466e+003;7.801510e-002
2.769395e+003;7.782235e-002
2.771323e+003;7.763178e-002
2.773252e+003;7.776706e-002
2.775181e+003;7.804461e-002
2.777109e+003;7.811242e-002
2.779038e+003;7.823869e-002
2.780966e+003;7.847097e-002
2.782895e+003;7.865595e-002
2.784823e+003;7.931139e-002
2.786752e+003;8.009562e-002
2.788680e+003;8.033017e-002
2.790609e+003;8.021955e-002
2.792538e+003;8.004251e-002
2.794466e+003;8.027986e-002
2.796395e+003;8.092542e-002
2.798323e+003;8.096055e-002
2.800252e+003;8.080743e-002
2.802180e+003;8.141161e-002
2.804109e+003;8.208603e-002
2.806037e+003;8.211421e-002
2.807966e+003;8.223052e-002
2.809895e+003;8.271243e-002
2.811823e+003;8.326364e-002
2.813751e+003;8.376258e-002
2.815680e+003;8.430406e-002
2.817609e+003;8.477096e-002
2.819537e+003;8.531430e-002
2.821466e+003;8.586947e-002
2.823394e+003;8.627154e-002
2.825323e+003;8.687443e-002
2.827251e+003;8.761714e-002
2.829180e+003;8.792240e-002
2.831108e+003;8.828253e-002
2.833037e+003;8.939252e-002
2.834966e+003;9.055789e-002
2.836894e+003;9.179385e-002
2.838823e+003;9.292653e-002
2.840751e+003;9.406934e-002
2.842680e+003;9.519380e-002
2.844608e+003;9.612743e-002
2.846537e+003;9.756963e-002
2.848465e+003;9.986258e-002
2.850394e+003;1.021006e-001
2.852323e+003;1.034754e-001
2.854251e+003;1.045130e-001
2.856180e+003;1.052496e-001
2.858108e+003;1.054102e-001
2.860037e+003;1.067690e-001
2.861965e+003;1.084834e-001
2.863894e+003;1.096880e-001
2.865822e+003;1.106775e-001
2.867751e+003;1.116139e-001
2.869679e+003;1.123891e-001
2.871608e+003;1.129047e-001
2.873536e+003;1.133705e-001
2.875465e+003;1.134403e-001
2.877394e+003;1.140051e-001
2.879322e+003;1.149384e-001
2.881251e+003;1.155420e-001
2.883179e+003;1.164301e-001
2.885108e+003;1.171731e-001
2.887036e+003;1.177628e-001
2.888965e+003;1.185370e-001
2.890893e+003;1.194299e-001
2.892822e+003;1.192208e-001
2.894750e+003;1.186443e-001
2.896679e+003;1.185164e-001
2.898608e+003;1.185659e-001
2.900536e+003;1.182896e-001
2.902465e+003;1.180574e-001
2.904393e+003;1.176091e-001
2.906322e+003;1.165446e-001
2.908250e+003;1.152859e-001
2.910179e+003;1.142125e-001
2.912107e+003;1.133562e-001
2.914036e+003;1.120214e-001
2.915965e+003;1.103643e-001
2.917893e+003;1.095321e-001
2.919822e+003;1.086922e-001
2.921750e+003;1.069773e-001
2.923679e+003;1.053429e-001
2.925607e+003;1.037722e-001
2.927536e+003;1.018857e-001
2.929464e+003;1.003068e-001
2.931393e+003;9.903508e-002
2.933322e+003;9.766762e-002
2.935250e+003;9.663922e-002
2.937178e+003;9.587775e-002
2.939107e+003;9.506576e-002
2.941036e+003;9.382985e-002
2.942964e+003;9.286892e-002
2.944893e+003;9.194786e-002
2.946821e+003;9.100264e-002
2.948750e+003;9.029940e-002
2.950678e+003;8.922415e-002
2.952607e+003;8.785222e-002
2.954535e+003;8.610732e-002
2.956464e+003;8.484331e-002
2.958393e+003;8.449488e-002
2.960321e+003;8.393548e-002
2.962250e+003;8.282682e-002
2.964178e+003;8.172473e-002
2.966107e+003;8.082184e-002
2.968035e+003;8.004251e-002
2.969964e+003;7.946593e-002
2.971892e+003;7.897472e-002
2.973821e+003;7.834428e-002
2.975750e+003;7.757393e-002
2.977678e+003;7.679760e-002
2.979607e+003;7.616158e-002
2.981535e+003;7.607757e-002
2.983464e+003;7.588057e-002
2.985392e+003;7.522895e-002
2.987321e+003;7.468600e-002
2.989249e+003;7.464204e-002
2.991178e+003;7.448614e-002
2.993106e+003;7.403215e-002
2.995035e+003;7.345729e-002
2.996964e+003;7.315976e-002
2.998892e+003;7.343587e-002
3.000821e+003;7.365762e-002
3.002749e+003;7.374793e-002
3.004678e+003;7.421219e-002
3.006606e+003;7.465967e-002
3.008535e+003;7.445849e-002
3.010463e+003;7.417952e-002
3.012392e+003;7.447575e-002
3.014321e+003;7.505275e-002
3.016249e+003;7.515256e-002
3.018177e+003;7.481371e-002
3.020106e+003;7.491992e-002
3.022035e+003;7.504573e-002
3.023963e+003;7.486299e-002
3.025892e+003;7.488859e-002
3.027820e+003;7.523427e-002
3.029749e+003;7.565434e-002
3.031677e+003;7.601736e-002
3.033606e+003;7.608356e-002
3.035534e+003;7.652306e-002
3.037463e+003;7.683264e-002
3.039392e+003;7.670572e-002
3.041320e+003;7.676897e-002
3.043249e+003;7.723366e-002
3.045177e+003;7.771820e-002
3.047106e+003;7.802859e-002
3.049034e+003;7.827214e-002
3.050963e+003;7.847216e-002
3.052891e+003;7.854374e-002
3.054820e+003;7.885166e-002
3.056749e+003;7.932997e-002
3.058677e+003;7.965723e-002
3.060606e+003;7.969557e-002
3.062534e+003;7.995352e-002
3.064463e+003;8.029892e-002
3.066391e+003;8.097029e-002
3.068320e+003;8.108661e-002
3.070248e+003;8.079534e-002
3.072177e+003;8.148487e-002
3.074105e+003;8.234553e-002
3.076034e+003;8.250148e-002
3.077963e+003;8.246890e-002
3.079891e+003;8.258290e-002
3.081820e+003;8.270995e-002
3.083748e+003;8.297006e-002
3.085677e+003;8.328475e-002
3.087605e+003;8.380184e-002
3.089534e+003;8.445162e-002
3.091462e+003;8.517838e-002
3.093391e+003;8.572292e-002
3.095320e+003;8.586366e-002
3.097248e+003;8.628306e-002
3.099177e+003;8.709076e-002
3.101105e+003;8.717851e-002
3.103034e+003;8.730465e-002
3.104962e+003;8.790841e-002
3.106891e+003;8.856037e-002
3.108819e+003;8.910478e-002
3.110748e+003;8.957753e-002
3.112677e+003;8.963251e-002
3.114605e+003;8.983466e-002
3.116533e+003;9.066823e-002
3.118462e+003;9.106810e-002
3.120391e+003;9.149228e-002
3.122319e+003;9.183671e-002
3.124248e+003;9.198398e-002
3.126176e+003;9.300899e-002
3.128105e+003;9.371652e-002
3.130033e+003;9.355978e-002
3.131962e+003;9.377470e-002
3.133890e+003;9.508972e-002
3.135819e+003;9.630127e-002
3.137748e+003;9.694038e-002
3.139676e+003;9.729640e-002
3.141605e+003;9.745218e-002
3.143533e+003;9.780012e-002
3.145462e+003;9.842052e-002
3.147390e+003;9.893936e-002
3.149319e+003;9.966388e-002
3.151247e+003;1.003371e-001
3.153176e+003;1.008734e-001
3.155104e+003;1.013402e-001
3.157033e+003;1.018162e-001
3.158962e+003;1.026979e-001
3.160890e+003;1.035572e-001
3.162819e+003;1.042330e-001
3.164747e+003;1.049441e-001
3.166676e+003;1.056880e-001
3.168604e+003;1.059412e-001
3.170533e+003;1.060869e-001
3.172461e+003;1.069148e-001
3.174390e+003;1.081937e-001
3.176319e+003;1.096110e-001
3.178247e+003;1.104163e-001
3.180176e+003;1.105623e-001
3.182104e+003;1.110059e-001
3.184033e+003;1.117319e-001
3.185961e+003;1.125930e-001
3.187890e+003;1.135944e-001
3.189818e+003;1.142888e-001
3.191747e+003;1.152279e-001
3.193676e+003;1.163976e-001
3.195604e+003;1.176088e-001
3.197532e+003;1.185623e-001
3.199461e+003;1.194168e-001
3.201390e+003;1.202856e-001
3.203318e+003;1.206487e-001
3.205247e+003;1.214007e-001
3.207175e+003;1.224434e-001
3.209104e+003;1.236341e-001
3.211032e+003;1.250981e-001
3.212961e+003;1.261417e-001
3.214889e+003;1.266174e-001
3.216818e+003;1.268332e-001
3.218747e+003;1.279212e-001
3.220675e+003;1.293634e-001
3.222604e+003;1.301104e-001
3.224532e+003;1.308157e-001
3.226461e+003;1.320555e-001
3.228389e+003;1.336082e-001
3.230318e+003;1.352349e-001
3.232246e+003;1.363801e-001
3.234175e+003;1.372584e-001
3.236104e+003;1.379248e-001
3.238032e+003;1.388164e-001
3.239961e+003;1.401192e-001
3.241889e+003;1.413318e-001
3.243818e+003;1.428984e-001
3.245746e+003;1.444581e-001
3.247675e+003;1.455464e-001
3.249603e+003;1.466579e-001
3.251532e+003;1.480793e-001
3.253460e+003;1.496204e-001
3.255389e+003;1.509345e-001
3.257318e+003;1.520589e-001
3.259246e+003;1.531525e-001
3.261175e+003;1.544831e-001
3.263103e+003;1.559416e-001
3.265032e+003;1.577364e-001
3.266960e+003;1.593007e-001
3.268889e+003;1.601832e-001
3.270817e+003;1.603481e-001
3.272746e+003;1.607686e-001
3.274675e+003;1.622356e-001
3.276603e+003;1.633338e-001
3.278531e+003;1.645963e-001
3.280460e+003;1.657759e-001
3.282389e+003;1.659172e-001
3.284317e+003;1.660374e-001
3.286246e+003;1.666663e-001
3.288174e+003;1.674623e-001
3.290103e+003;1.683388e-001
3.292031e+003;1.688988e-001
3.293960e+003;1.689461e-001
3.295888e+003;1.688784e-001
3.297817e+003;1.691647e-001
3.299746e+003;1.695805e-001
3.301674e+003;1.697084e-001
3.303603e+003;1.697332e-001
3.305531e+003;1.699823e-001
3.307460e+003;1.705294e-001
3.309388e+003;1.709733e-001
3.311317e+003;1.717548e-001
3.313245e+003;1.719522e-001
3.315174e+003;1.717738e-001
3.317103e+003;1.722112e-001
3.319031e+003;1.727608e-001
3.320960e+003;1.734475e-001
3.322888e+003;1.739582e-001
3.324817e+003;1.746075e-001
3.326745e+003;1.754971e-001
3.328674e+003;1.761726e-001
3.330602e+003;1.768056e-001
3.332531e+003;1.772217e-001
3.334459e+003;1.773306e-001
3.336388e+003;1.778606e-001
3.338317e+003;1.785019e-001
3.340245e+003;1.780656e-001
3.342174e+003;1.771907e-001
3.344102e+003;1.765847e-001
3.346031e+003;1.762991e-001
3.347959e+003;1.756079e-001
3.349888e+003;1.745106e-001
3.351816e+003;1.740649e-001
3.353745e+003;1.732950e-001
3.355674e+003;1.723836e-001
3.357602e+003;1.714832e-001
3.359531e+003;1.704125e-001
3.361459e+003;1.693093e-001
3.363388e+003;1.683579e-001
3.365316e+003;1.676591e-001
3.367245e+003;1.666418e-001
3.369173e+003;1.658746e-001
3.371102e+003;1.652834e-001
3.373031e+003;1.644244e-001
3.374959e+003;1.634856e-001
3.376887e+003;1.622437e-001
3.378816e+003;1.608922e-001
3.380745e+003;1.601540e-001
3.382673e+003;1.596150e-001
3.384602e+003;1.589577e-001
3.386530e+003;1.580117e-001
3.388459e+003;1.573265e-001
3.390387e+003;1.568270e-001
3.392316e+003;1.560704e-001
3.394244e+003;1.551870e-001
3.396173e+003;1.544842e-001
3.398102e+003;1.537416e-001
3.400030e+003;1.525611e-001
3.401959e+003;1.511391e-001
3.403887e+003;1.499583e-001
3.405816e+003;1.494622e-001
3.407744e+003;1.488978e-001
3.409673e+003;1.477965e-001
3.411601e+003;1.468816e-001
3.413530e+003;1.451795e-001
3.415458e+003;1.435660e-001
3.417387e+003;1.428961e-001
3.419316e+003;1.421892e-001
3.421244e+003;1.412444e-001
3.423173e+003;1.401960e-001
3.425101e+003;1.389098e-001
3.427030e+003;1.378261e-001
3.428958e+003;1.367789e-001
3.430887e+003;1.351254e-001
3.432815e+003;1.338160e-001
3.434744e+003;1.329685e-001
3.436673e+003;1.318976e-001
3.438601e+003;1.308196e-001
3.440530e+003;1.301245e-001
3.442458e+003;1.295006e-001
3.444387e+003;1.281595e-001
3.446315e+003;1.264649e-001
3.448244e+003;1.250994e-001
3.450172e+003;1.239640e-001
3.452101e+003;1.226548e-001
3.454030e+003;1.221166e-001
3.455958e+003;1.214182e-001
3.457886e+003;1.201755e-001
3.459815e+003;1.192696e-001
3.461744e+003;1.178229e-001
3.463672e+003;1.161441e-001
3.465601e+003;1.150920e-001
3.467529e+003;1.144058e-001
3.469458e+003;1.136422e-001
3.471386e+003;1.125490e-001
3.473315e+003;1.108922e-001
3.475243e+003;1.098899e-001
3.477172e+003;1.094244e-001
3.479101e+003;1.079126e-001
3.481029e+003;1.055797e-001
3.482958e+003;1.044549e-001
3.484886e+003;1.039594e-001
3.486815e+003;1.028317e-001
3.488743e+003;1.014888e-001
3.490672e+003;1.003833e-001
3.492600e+003;9.951302e-002
3.494529e+003;9.855716e-002
3.496458e+003;9.748203e-002
3.498386e+003;9.633804e-002
3.500315e+003;9.523068e-002
3.502243e+003;9.390219e-002
3.504172e+003;9.255094e-002
3.506100e+003;9.148046e-002
3.508029e+003;9.028055e-002
3.509957e+003;8.912081e-002
3.511886e+003;8.825629e-002
3.513814e+003;8.731182e-002
3.515743e+003;8.636580e-002
3.517672e+003;8.565233e-002
3.519600e+003;8.471346e-002
3.521529e+003;8.370577e-002
3.523457e+003;8.305446e-002
3.525386e+003;8.229619e-002
3.527314e+003;8.117160e-002
3.529243e+003;8.062500e-002
3.531171e+003;7.981791e-002
3.533100e+003;7.815260e-002
3.535029e+003;7.709246e-002
3.536957e+003;7.586302e-002
3.538885e+003;7.475869e-002
3.540814e+003;7.406858e-002
3.542743e+003;7.340111e-002
3.544671e+003;7.318070e-002
3.546600e+003;7.294849e-002
3.548528e+003;7.231349e-002
3.550457e+003;7.135863e-002
3.552385e+003;7.001512e-002
3.554314e+003;6.946142e-002
3.556242e+003;6.864665e-002
3.558171e+003;6.750720e-002
3.560100e+003;6.721789e-002
3.562028e+003;6.713164e-002
3.563957e+003;6.610096e-002
3.565885e+003;6.439682e-002
3.567814e+003;6.323372e-002
3.569742e+003;6.255332e-002
3.571671e+003;6.174136e-002
3.573599e+003;6.139701e-002
3.575528e+003;6.092455e-002
3.577457e+003;5.992415e-002
3.579385e+003;5.985135e-002
3.581314e+003;5.943752e-002
3.583242e+003;5.864118e-002
3.585171e+003;5.834975e-002
3.587099e+003;5.746992e-002
3.589028e+003;5.632576e-002
3.590956e+003;5.587027e-002
3.592885e+003;5.570393e-002
3.594813e+003;5.523740e-002
3.596742e+003;5.491520e-002
3.598671e+003;5.448560e-002
3.600599e+003;5.376998e-002
3.602528e+003;5.315498e-002
3.604456e+003;5.269488e-002
3.606385e+003;5.207894e-002
3.608313e+003;5.193593e-002
3.610242e+003;5.155127e-002
3.612170e+003;5.077633e-002
3.614099e+003;5.009698e-002
3.616028e+003;5.009107e-002
3.617956e+003;5.004682e-002
3.619885e+003;4.944836e-002
3.621813e+003;4.876507e-002
3.623742e+003;4.856016e-002
3.625670e+003;4.808105e-002
3.627599e+003;4.748241e-002
3.629527e+003;4.726901e-002
3.631456e+003;4.699741e-002
3.633385e+003;4.698348e-002
3.635313e+003;4.666262e-002
3.637241e+003;4.597542e-002
3.639170e+003;4.609725e-002
3.641099e+003;4.599608e-002
3.643027e+003;4.559778e-002
3.644956e+003;4.590872e-002
3.646884e+003;4.612039e-002
3.648813e+003;4.565755e-002
3.650741e+003;4.481757e-002
3.652670e+003;4.467433e-002
3.654598e+003;4.513244e-002
3.656527e+003;4.519406e-002
3.658456e+003;4.461374e-002
3.660384e+003;4.405450e-002
3.662313e+003;4.379264e-002
3.664241e+003;4.393945e-002
3.666170e+003;4.333469e-002
3.668098e+003;4.305679e-002
3.670027e+003;4.279633e-002
3.671955e+003;4.247892e-002
3.673884e+003;4.283557e-002
3.675813e+003;4.315650e-002
3.677741e+003;4.265942e-002
3.679669e+003;4.250317e-002
3.681598e+003;4.253676e-002
3.683527e+003;4.191020e-002
3.685455e+003;4.197074e-002
3.687384e+003;4.202728e-002
3.689312e+003;4.170728e-002
3.691241e+003;4.185364e-002
3.693169e+003;4.189965e-002
3.695098e+003;4.198785e-002
3.697026e+003;4.225616e-002
3.698955e+003;4.218586e-002
3.700884e+003;4.156476e-002
3.702812e+003;4.113575e-002
3.704741e+003;4.109011e-002
3.706669e+003;4.126566e-002
3.708598e+003;4.154471e-002
3.710526e+003;4.091430e-002
3.712455e+003;4.001691e-002
3.714383e+003;4.045224e-002
3.716312e+003;4.047567e-002
3.718240e+003;3.974389e-002
3.720169e+003;3.935755e-002
3.722098e+003;3.990673e-002
3.724026e+003;4.037217e-002
3.725955e+003;4.000790e-002
3.727883e+003;3.998309e-002
3.729812e+003;4.025063e-002
3.731740e+003;4.036755e-002
3.733669e+003;4.012004e-002
3.735597e+003;4.007090e-002
3.737526e+003;4.056969e-002
3.739455e+003;4.053935e-002
3.741383e+003;4.047294e-002
3.743312e+003;4.002531e-002
3.745240e+003;3.926516e-002
3.747169e+003;3.906119e-002
3.749097e+003;3.921790e-002
3.751026e+003;4.013457e-002
3.752954e+003;4.067906e-002
3.754883e+003;4.002040e-002
3.756812e+003;3.984727e-002
3.758740e+003;4.059021e-002
3.760668e+003;4.064326e-002
3.762597e+003;4.063889e-002
3.764526e+003;4.063001e-002
3.766454e+003;4.015449e-002
3.768383e+003;3.963722e-002
3.770311e+003;3.952758e-002
3.772240e+003;3.985650e-002
3.774168e+003;4.028236e-002
3.776097e+003;4.009474e-002
3.778025e+003;3.968297e-002
3.779954e+003;3.936016e-002
3.781883e+003;3.976709e-002
3.783811e+003;4.032395e-002
3.785740e+003;4.062001e-002
3.787668e+003;4.056464e-002
3.789597e+003;3.989115e-002
3.791525e+003;3.935559e-002
3.793454e+003;3.979709e-002
3.795382e+003;4.062019e-002
3.797311e+003;4.059098e-002
3.799240e+003;4.034639e-002
3.801168e+003;3.982465e-002
3.803097e+003;3.969887e-002
3.805025e+003;3.981837e-002
3.806954e+003;3.955410e-002
3.808882e+003;4.011175e-002
3.810811e+003;4.077736e-002
3.812739e+003;4.037984e-002
3.814668e+003;3.968046e-002
3.816596e+003;3.983594e-002
3.818525e+003;3.993383e-002
3.820454e+003;4.033381e-002
3.822382e+003;4.024103e-002
3.824311e+003;3.922984e-002
3.826239e+003;3.893027e-002
3.828168e+003;3.947583e-002
3.830096e+003;4.057828e-002
3.832025e+003;4.102262e-002
3.833953e+003;4.016554e-002
3.835882e+003;3.981317e-002
3.837811e+003;3.975689e-002
3.839739e+003;4.013395e-002
3.841667e+003;4.060407e-002
3.843596e+003;4.096786e-002
3.845525e+003;4.079024e-002
3.847453e+003;4.014104e-002
3.849382e+003;3.987211e-002
3.851310e+003;3.984807e-002
3.853239e+003;3.988792e-002
3.855167e+003;4.004798e-002
3.857096e+003;4.000158e-002
3.859024e+003;4.027320e-002
3.860953e+003;4.047621e-002
3.862882e+003;4.011008e-002
3.864810e+003;4.009674e-002
3.866739e+003;4.063652e-002
3.868667e+003;4.052128e-002
3.870596e+003;4.057595e-002
3.872524e+003;4.100718e-002
3.874453e+003;4.052306e-002
3.876381e+003;4.015932e-002
3.878310e+003;4.041471e-002
3.880239e+003;4.058770e-002
3.882167e+003;4.122879e-002
3.884096e+003;4.211605e-002
3.886024e+003;4.186123e-002
3.887953e+003;4.116496e-002
3.889881e+003;4.117028e-002
3.891810e+003;4.165658e-002
3.893738e+003;4.128304e-002
3.895667e+003;4.086504e-002
3.897595e+003;4.119309e-002
3.899524e+003;4.133235e-002
3.901453e+003;4.055205e-002
3.903381e+003;4.046446e-002
3.905310e+003;4.135086e-002
3.907238e+003;4.139179e-002
3.909167e+003;4.137094e-002
3.911095e+003;4.159915e-002
3.913024e+003;4.155609e-002
3.914952e+003;4.165385e-002
3.916881e+003;4.215286e-002
3.918810e+003;4.227979e-002
3.920738e+003;4.185473e-002
3.922667e+003;4.197034e-002
3.924595e+003;4.219101e-002
3.926524e+003;4.258481e-002
3.928452e+003;4.320199e-002
3.930381e+003;4.347629e-002
3.932309e+003;4.363537e-002
3.934238e+003;4.315855e-002
3.936167e+003;4.169634e-002
3.938095e+003;4.111950e-002
3.940023e+003;4.131540e-002
3.941952e+003;4.144624e-002
3.943881e+003;4.114791e-002
3.945809e+003;4.121225e-002
3.947738e+003;4.185021e-002
3.949666e+003;4.208313e-002
3.951595e+003;4.202326e-002
3.953523e+003;4.226087e-002
3.955452e+003;4.211999e-002
3.957380e+003;4.157709e-002
3.959309e+003;4.156469e-002
3.961238e+003;4.190140e-002
3.963166e+003;4.250084e-002
3.965095e+003;4.245067e-002
3.967023e+003;4.212460e-002
3.968952e+003;4.252740e-002
3.970880e+003;4.241782e-002
3.972809e+003;4.166534e-002
3.974737e+003;4.188086e-002
3.976666e+003;4.242681e-002
3.978594e+003;4.252094e-002
3.980523e+003;4.211751e-002
3.982452e+003;4.142627e-002
3.984380e+003;4.126402e-002
3.986309e+003;4.136168e-002
3.988237e+003;4.162158e-002
3.990166e+003;4.218024e-002
3.992094e+003;4.217582e-002
3.994023e+003;4.190640e-002
3.995951e+003;4.227665e-002
3.997880e+003;4.189472e-002
3.999809e+003;4.179286e-002
4.001737e+003;0.000000e+000
