3.992094e+002;0.000000e+000
4.011380e+002;0.000000e+000
4.030665e+002;0.000000e+000
4.049951e+002;0.000000e+000
4.069236e+002;0.000000e+000
4.088522e+002;0.000000e+000
4.107807e+002;0.000000e+000
4.127093e+002;0.000000e+000
4.146378e+002;0.000000e+000
4.165664e+002;0.000000e+000
4.184949e+002;0.000000e+000
4.204235e+002;0.000000e+000
4.223520e+002;0.000000e+000
4.242806e+002;0.000000e+000
4.262091e+002;0.000000e+000
4.281377e+002;0.000000e+000
4.300662e+002;0.000000e+000
4.319948e+002;0.000000e+000
4.339233e+002;0.000000e+000
4.358519e+002;0.000000e+000
4.377804e+002;0.000000e+000
4.397090e+002;0.000000e+000
4.416375e+002;0.000000e+000
4.435660e+002;0.000000e+000
4.454946e+002;0.000000e+000
4.474232e+002;0.000000e+000
4.493517e+002;0.000000e+000
4.512802e+002;0.000000e+000
4.532088e+002;0.000000e+000
4.551373e+002;0.000000e+000
4.570659e+002;0.000000e+000
4.589944e+002;0.000000e+000
4.609230e+002;0.000000e+000
4.628515e+002;0.000000e+000
4.647801e+002;0.000000e+000
4.667086e+002;0.000000e+000
4.686372e+002;0.000000e+000
4.705657e+002;0.000000e+000
4.724943e+002;0.000000e+000
4.744228e+002;0.000000e+000
4.763513e+002;0.000000e+000
4.782799e+002;0.000000e+000
4.802085e+002;0.000000e+000
4.821370e+002;0.000000e+000
4.840656e+002;0.000000e+000
4.859941e+002;0.000000e+000
4.879226e+002;0.000000e+000
4.898512e+002;0.000000e+000
4.917798e+002;0.000000e+000
4.937083e+002;0.000000e+000
4.956368e+002;0.000000e+000
4.975654e+002;0.000000e+000
4.994939e+002;0.000000e+000
5.014225e+002;0.000000e+000
5.033510e+002;0.000000e+000
5.052796e+002;0.000000e+000
5.072081e+002;0.000000e+000
5.091367e+002;0.000000e+000
5.110652e+002;0.000000e+000
5.129938e+002;0.000000e+000
5.149223e+002;0.000000e+000
5.168509e+002;0.000000e+000
5.187794e+002;0.000000e+000
5.207079e+002;0.000000e+000
5.226365e+002;0.000000e+000
5.245651e+002;0.000000e+000
5.264936e+002;0.000000e+000
5.284222e+002;0.000000e+000
5.303507e+002;0.000000e+000
5.322792e+002;0.000000e+000
5.342078e+002;0.000000e+000
5.361364e+002;0.000000e+000
5.380649e+002;0.000000e+000
5.399935e+002;0.000000e+000
5.419220e+002;0.000000e+000
5.438505e+002;0.000000e+000
5.457791e+002;0.000000e+000
5.477076e+002;0.000000e+000
5.496362e+002;0.000000e+000
5.515648e+002;0.000000e+000
5.534933e+002;0.000000e+000
5.554218e+002;0.000000e+000
5.573504e+002;0.000000e+000
5.592789e+002;0.000000e+000
5.612075e+002;0.000000e+000
5.631360e+002;0.000000e+000
5.650646e+002;0.000000e+000
5.669931e+002;0.000000e+000
5.689217e+002;0.000000e+000
5.708502e+002;0.000000e+000
5.727787e+002;0.000000e+000
5.747073e+002;0.000000e+000
5.766359e+002;0.000000e+000
5.785644e+002;0.000000e+000
5.804930e+002;0.000000e+000
5.824215e+002;0.000000e+000
5.843500e+002;0.000000e+000
5.862786e+002;0.000000e+000
5.882072e+002;0.000000e+000
5.901357e+002;0.000000e+000
5.920643e+002;0.000000e+000
5.939928e+002;0.000000e+000
5.959213e+002;0.000000e+000
5.978499e+002;0.000000e+000
5.997784e+002;2.851714e-001
6.017070e+002;2.824410e-001
6.036355e+002;2.742180e-001
6.055641e+002;2.714186e-001
6.074926e+002;2.725679e-001
6.094211e+002;2.792236e-001
6.113497e+002;2.838691e-001
6.132783e+002;2.829729e-001
6.152068e+002;2.774024e-001
6.171354e+002;2.727266e-001
6.190639e+002;2.708214e-001
6.209924e+002;2.681099e-001
6.229210e+002;2.595861e-001
6.248495e+002;2.523914e-001
6.267781e+002;2.500328e-001
6.287067e+002;2.469093e-001
6.306352e+002;2.417011e-001
6.325637e+002;2.418990e-001
6.344923e+002;2.414179e-001
6.364208e+002;2.375436e-001
6.383494e+002;2.359698e-001
6.402780e+002;2.343163e-001
6.422065e+002;2.306761e-001
6.441350e+002;2.273827e-001
6.460636e+002;2.274904e-001
6.479921e+002;2.285631e-001
6.499207e+002;2.281519e-001
6.518492e+002;2.299809e-001
6.537778e+002;2.339710e-001
6.557063e+002;2.399310e-001
6.576349e+002;2.441532e-001
6.595634e+002;2.462278e-001
6.614919e+002;2.470821e-001
6.634205e+002;2.461050e-001
6.653491e+002;2.448882e-001
6.672776e+002;2.436156e-001
6.692062e+002;2.406816e-001
6.711347e+002;2.379033e-001
6.730632e+002;2.329813e-001
6.749918e+002;2.255443e-001
6.769203e+002;2.172866e-001
6.788489e+002;2.103788e-001
6.807775e+002;2.052637e-001
6.827060e+002;2.016964e-001
6.846345e+002;2.002155e-001
6.865631e+002;1.995060e-001
6.884916e+002;1.981362e-001
6.904202e+002;1.977248e-001
6.923488e+002;1.964833e-001
6.942773e+002;1.944272e-001
6.962058e+002;1.939540e-001
6.981344e+002;1.938984e-001
7.000629e+002;1.932791e-001
7.019915e+002;1.928000e-001
7.039200e+002;1.906962e-001
7.058486e+002;1.886350e-001
7.077771e+002;1.869322e-001
7.097057e+002;1.851220e-001
7.116342e+002;1.824676e-001
7.135627e+002;1.793507e-001
7.154913e+002;1.758884e-001
7.174199e+002;1.719166e-001
7.193484e+002;1.687160e-001
7.212770e+002;1.661162e-001
7.232055e+002;1.623035e-001
7.251340e+002;1.579194e-001
7.270626e+002;1.537234e-001
7.289911e+002;1.503389e-001
7.309197e+002;1.476691e-001
7.328483e+002;1.459110e-001
7.347768e+002;1.452291e-001
7.367053e+002;1.433294e-001
7.386339e+002;1.409656e-001
7.405624e+002;1.394975e-001
7.424910e+002;1.379521e-001
7.444196e+002;1.359362e-001
7.463481e+002;1.338555e-001
7.482766e+002;1.329498e-001
7.502052e+002;1.315422e-001
7.521337e+002;1.301407e-001
7.540623e+002;1.286093e-001
7.559908e+002;1.265387e-001
7.579194e+002;1.245552e-001
7.598479e+002;1.233893e-001
7.617765e+002;1.224182e-001
7.637050e+002;1.216892e-001
7.656335e+002;1.198950e-001
7.675621e+002;1.180313e-001
7.694907e+002;1.173804e-001
7.714192e+002;1.166188e-001
7.733478e+002;1.156863e-001
7.752763e+002;1.151301e-001
7.772048e+002;1.147499e-001
7.791334e+002;1.135938e-001
7.810620e+002;1.127047e-001
7.829905e+002;1.125066e-001
7.849191e+002;1.118170e-001
7.868476e+002;1.106527e-001
7.887761e+002;1.099793e-001
7.907047e+002;1.093099e-001
7.926332e+002;1.090084e-001
7.945618e+002;1.089528e-001
7.964903e+002;1.085405e-001
7.984189e+002;1.081913e-001
8.003474e+002;1.077753e-001
8.022759e+002;1.067304e-001
8.042045e+002;1.064527e-001
8.061331e+002;1.063985e-001
8.080616e+002;1.063987e-001
8.099902e+002;1.064303e-001
8.119187e+002;1.058657e-001
8.138472e+002;1.052770e-001
8.157758e+002;1.048759e-001
8.177043e+002;1.046727e-001
8.196329e+002;1.049436e-001
8.215615e+002;1.050933e-001
8.234900e+002;1.044013e-001
8.254185e+002;1.037217e-001
8.273471e+002;1.032611e-001
8.292756e+002;1.026557e-001
8.312042e+002;1.023019e-001
8.331328e+002;1.024894e-001
8.350613e+002;1.024661e-001
8.369898e+002;1.025208e-001
8.389184e+002;1.026805e-001
8.408469e+002;1.029850e-001
8.427755e+002;1.025941e-001
8.447040e+002;1.023172e-001
8.466326e+002;1.030606e-001
8.485611e+002;1.038279e-001
8.504897e+002;1.036258e-001
8.524182e+002;1.036109e-001
8.543467e+002;1.041007e-001
8.562753e+002;1.053130e-001
8.582039e+002;1.064740e-001
8.601324e+002;1.079478e-001
8.620610e+002;1.092303e-001
8.639895e+002;1.101576e-001
8.659180e+002;1.113783e-001
8.678466e+002;1.133293e-001
8.697751e+002;1.158103e-001
8.717037e+002;1.180888e-001
8.736323e+002;1.200028e-001
8.755608e+002;1.218209e-001
8.774893e+002;1.237570e-001
8.794179e+002;1.257922e-001
8.813464e+002;1.283962e-001
8.832750e+002;1.314225e-001
8.852036e+002;1.341747e-001
8.871321e+002;1.375629e-001
8.890606e+002;1.414194e-001
8.909892e+002;1.441479e-001
8.929177e+002;1.461454e-001
8.948463e+002;1.475621e-001
8.967748e+002;1.481924e-001
8.987034e+002;1.480738e-001
9.006319e+002;1.470623e-001
9.025605e+002;1.453945e-001
9.044890e+002;1.432952e-001
9.064175e+002;1.413177e-001
9.083461e+002;1.390225e-001
9.102747e+002;1.370606e-001
9.122032e+002;1.361004e-001
9.141318e+002;1.351081e-001
9.160603e+002;1.342226e-001
9.179888e+002;1.340920e-001
9.199174e+002;1.343787e-001
9.218459e+002;1.353406e-001
9.237745e+002;1.369352e-001
9.257031e+002;1.383784e-001
9.276316e+002;1.396423e-001
9.295601e+002;1.413982e-001
9.314887e+002;1.433900e-001
9.334172e+002;1.453317e-001
9.353458e+002;1.475019e-001
9.372744e+002;1.498339e-001
9.392029e+002;1.520101e-001
9.411314e+002;1.546780e-001
9.430600e+002;1.574084e-001
9.449885e+002;1.601495e-001
9.469171e+002;1.631425e-001
9.488456e+002;1.670338e-001
9.507742e+002;1.713973e-001
9.527027e+002;1.763328e-001
9.546313e+002;1.819797e-001
9.565598e+002;1.877427e-001
9.584883e+002;1.937072e-001
9.604169e+002;1.997672e-001
9.623455e+002;2.063761e-001
9.642740e+002;2.138951e-001
9.662026e+002;2.213717e-001
9.681311e+002;2.294970e-001
9.700596e+002;2.390441e-001
9.719882e+002;2.505611e-001
9.739167e+002;2.643411e-001
9.758453e+002;2.799717e-001
9.777739e+002;2.971240e-001
9.797024e+002;3.153434e-001
9.816309e+002;3.319832e-001
9.835595e+002;3.430092e-001
9.854880e+002;3.475981e-001
9.874166e+002;3.488591e-001
9.893452e+002;3.509651e-001
9.912737e+002;3.553482e-001
9.932022e+002;3.616511e-001
9.951307e+002;3.691150e-001
9.970593e+002;3.774555e-001
9.989879e+002;3.846523e-001
1.000916e+003;3.888664e-001
1.002845e+003;3.905629e-001
1.004773e+003;3.916680e-001
1.006702e+003;3.925260e-001
1.008631e+003;3.930001e-001
1.010559e+003;3.956623e-001
1.012488e+003;3.997684e-001
1.014416e+003;4.037578e-001
1.016345e+003;4.089091e-001
1.018273e+003;4.149827e-001
1.020202e+003;4.212309e-001
1.022130e+003;4.276496e-001
1.024059e+003;4.341754e-001
1.025988e+003;4.410924e-001
1.027916e+003;4.461911e-001
1.029845e+003;4.484805e-001
1.031773e+003;4.466574e-001
1.033702e+003;4.404285e-001
1.035630e+003;4.306766e-001
1.037559e+003;4.205312e-001
1.039487e+003;4.122823e-001
1.041416e+003;4.077709e-001
1.043344e+003;4.075485e-001
1.045273e+003;4.104768e-001
1.047202e+003;4.156744e-001
1.049130e+003;4.223336e-001
1.051059e+003;4.281064e-001
1.052987e+003;4.297275e-001
1.054916e+003;4.261439e-001
1.056844e+003;4.183224e-001
1.058773e+003;4.057288e-001
1.060701e+003;3.876410e-001
1.062630e+003;3.672762e-001
1.064558e+003;3.473755e-001
1.066487e+003;3.293005e-001
1.068416e+003;3.140003e-001
1.070344e+003;3.014792e-001
1.072273e+003;2.919988e-001
1.074201e+003;2.846434e-001
1.076130e+003;2.788339e-001
1.078058e+003;2.734110e-001
1.079987e+003;2.678647e-001
1.081915e+003;2.638176e-001
1.083844e+003;2.623830e-001
1.085773e+003;2.625495e-001
1.087701e+003;2.630035e-001
1.089630e+003;2.631016e-001
1.091558e+003;2.630160e-001
1.093487e+003;2.647336e-001
1.095415e+003;2.687385e-001
1.097344e+003;2.723141e-001
1.099272e+003;2.749210e-001
1.101201e+003;2.772970e-001
1.103129e+003;2.776897e-001
1.105058e+003;2.766753e-001
1.106987e+003;2.750096e-001
1.108915e+003;2.720647e-001
1.110844e+003;2.662708e-001
1.112772e+003;2.567413e-001
1.114701e+003;2.443030e-001
1.116629e+003;2.311932e-001
1.118558e+003;2.199655e-001
1.120486e+003;2.113432e-001
1.122415e+003;2.039685e-001
1.124344e+003;1.966290e-001
1.126272e+003;1.882030e-001
1.128201e+003;1.794691e-001
1.130129e+003;1.723829e-001
1.132058e+003;1.670278e-001
1.133986e+003;1.629457e-001
1.135915e+003;1.603089e-001
1.137843e+003;1.588034e-001
1.139772e+003;1.588074e-001
1.141700e+003;1.602551e-001
1.143629e+003;1.622639e-001
1.145557e+003;1.649365e-001
1.147486e+003;1.678428e-001
1.149415e+003;1.699861e-001
1.151343e+003;1.716000e-001
1.153272e+003;1.728852e-001
1.155200e+003;1.740872e-001
1.157129e+003;1.747075e-001
1.159057e+003;1.739320e-001
1.160986e+003;1.713853e-001
1.162914e+003;1.663688e-001
1.164843e+003;1.587003e-001
1.166771e+003;1.499965e-001
1.168700e+003;1.412335e-001
1.170629e+003;1.327484e-001
1.172557e+003;1.253424e-001
1.174486e+003;1.190772e-001
1.176414e+003;1.142217e-001
1.178343e+003;1.104363e-001
1.180271e+003;1.074073e-001
1.182200e+003;1.054613e-001
1.184128e+003;1.042487e-001
1.186057e+003;1.037412e-001
1.187986e+003;1.044774e-001
1.189914e+003;1.059886e-001
1.191843e+003;1.079815e-001
1.193771e+003;1.110720e-001
1.195700e+003;1.143070e-001
1.197628e+003;1.165770e-001
1.199557e+003;1.181835e-001
1.201485e+003;1.191487e-001
1.203414e+003;1.194111e-001
1.205343e+003;1.187074e-001
1.207271e+003;1.162012e-001
1.209200e+003;1.122995e-001
1.211128e+003;1.082197e-001
1.213057e+003;1.048098e-001
1.214985e+003;1.031291e-001
1.216914e+003;1.037003e-001
1.218842e+003;1.048203e-001
1.220771e+003;1.059610e-001
1.222699e+003;1.078139e-001
1.224628e+003;1.097212e-001
1.226557e+003;1.114973e-001
1.228485e+003;1.134757e-001
1.230414e+003;1.154039e-001
1.232342e+003;1.171090e-001
1.234271e+003;1.184820e-001
1.236199e+003;1.189085e-001
1.238128e+003;1.189711e-001
1.240056e+003;1.193149e-001
1.241985e+003;1.199757e-001
1.243913e+003;1.211188e-001
1.245842e+003;1.223533e-001
1.247771e+003;1.229691e-001
1.249699e+003;1.228928e-001
1.251628e+003;1.227391e-001
1.253556e+003;1.224772e-001
1.255485e+003;1.223898e-001
1.257413e+003;1.227959e-001
1.259342e+003;1.229543e-001
1.261270e+003;1.226554e-001
1.263199e+003;1.226289e-001
1.265127e+003;1.228978e-001
1.267056e+003;1.234225e-001
1.268985e+003;1.242960e-001
1.270913e+003;1.253745e-001
1.272842e+003;1.262012e-001
1.274770e+003;1.267448e-001
1.276699e+003;1.273431e-001
1.278627e+003;1.275343e-001
1.280556e+003;1.269686e-001
1.282484e+003;1.257045e-001
1.284413e+003;1.243694e-001
1.286342e+003;1.235688e-001
1.288270e+003;1.231622e-001
1.290199e+003;1.235192e-001
1.292127e+003;1.244257e-001
1.294056e+003;1.252498e-001
1.295984e+003;1.264025e-001
1.297913e+003;1.280840e-001
1.299841e+003;1.305733e-001
1.301770e+003;1.341179e-001
1.303698e+003;1.383001e-001
1.305627e+003;1.429538e-001
1.307556e+003;1.478100e-001
1.309484e+003;1.524773e-001
1.311413e+003;1.565896e-001
1.313341e+003;1.588489e-001
1.315270e+003;1.592878e-001
1.317198e+003;1.576383e-001
1.319127e+003;1.538677e-001
1.321055e+003;1.495740e-001
1.322984e+003;1.462623e-001
1.324912e+003;1.441682e-001
1.326841e+003;1.431431e-001
1.328770e+003;1.431852e-001
1.330698e+003;1.440621e-001
1.332627e+003;1.454295e-001
1.334555e+003;1.463208e-001
1.336484e+003;1.456077e-001
1.338412e+003;1.436055e-001
1.340341e+003;1.414445e-001
1.342269e+003;1.387862e-001
1.344198e+003;1.356537e-001
1.346126e+003;1.331325e-001
1.348055e+003;1.315806e-001
1.349984e+003;1.310438e-001
1.351912e+003;1.317375e-001
1.353841e+003;1.330882e-001
1.355769e+003;1.343175e-001
1.357698e+003;1.353077e-001
1.359626e+003;1.360451e-001
1.361555e+003;1.360203e-001
1.363483e+003;1.350063e-001
1.365412e+003;1.342525e-001
1.367341e+003;1.338916e-001
1.369269e+003;1.334407e-001
1.371198e+003;1.322566e-001
1.373126e+003;1.296986e-001
1.375055e+003;1.260976e-001
1.376983e+003;1.224676e-001
1.378912e+003;1.191320e-001
1.380840e+003;1.159858e-001
1.382769e+003;1.131033e-001
1.384698e+003;1.104301e-001
1.386626e+003;1.081209e-001
1.388555e+003;1.065227e-001
1.390483e+003;1.055790e-001
1.392412e+003;1.047379e-001
1.394340e+003;1.042922e-001
1.396269e+003;1.044659e-001
1.398197e+003;1.046130e-001
1.400126e+003;1.047634e-001
1.402054e+003;1.050978e-001
1.403983e+003;1.054303e-001
1.405911e+003;1.058312e-001
1.407840e+003;1.061674e-001
1.409769e+003;1.068423e-001
1.411697e+003;1.080236e-001
1.413626e+003;1.091578e-001
1.415554e+003;1.102737e-001
1.417483e+003;1.119226e-001
1.419411e+003;1.142839e-001
1.421340e+003;1.165985e-001
1.423268e+003;1.183090e-001
1.425197e+003;1.192142e-001
1.427125e+003;1.192892e-001
1.429054e+003;1.188471e-001
1.430983e+003;1.176912e-001
1.432911e+003;1.156561e-001
1.434840e+003;1.133721e-001
1.436768e+003;1.112481e-001
1.438697e+003;1.094849e-001
1.440625e+003;1.080983e-001
1.442554e+003;1.072030e-001
1.444482e+003;1.068400e-001
1.446411e+003;1.065353e-001
1.448340e+003;1.061768e-001
1.450268e+003;1.058131e-001
1.452197e+003;1.051185e-001
1.454125e+003;1.040211e-001
1.456054e+003;1.026623e-001
1.457982e+003;1.013874e-001
1.459911e+003;1.001171e-001
1.461839e+003;9.820139e-002
1.463768e+003;9.604062e-002
1.465697e+003;9.402572e-002
1.467625e+003;9.211328e-002
1.469554e+003;8.991213e-002
1.471482e+003;8.792634e-002
1.473411e+003;8.638261e-002
1.475339e+003;8.505625e-002
1.477268e+003;8.399707e-002
1.479196e+003;8.290693e-002
1.481125e+003;8.157922e-002
1.483053e+003;7.993356e-002
1.484982e+003;7.802153e-002
1.486911e+003;7.641013e-002
1.488839e+003;7.478466e-002
1.490768e+003;7.335952e-002
1.492696e+003;7.239287e-002
1.494625e+003;7.165153e-002
1.496553e+003;7.118543e-002
1.498482e+003;7.083593e-002
1.500410e+003;7.052533e-002
1.502339e+003;7.037238e-002
1.504267e+003;7.006803e-002
1.506196e+003;6.964735e-002
1.508125e+003;6.946169e-002
1.510053e+003;6.932473e-002
1.511982e+003;6.902147e-002
1.513910e+003;6.884140e-002
1.515839e+003;6.875665e-002
1.517767e+003;6.838028e-002
1.519696e+003;6.790660e-002
1.521624e+003;6.775387e-002
1.523553e+003;6.777769e-002
1.525481e+003;6.759333e-002
1.527410e+003;6.747972e-002
1.529339e+003;6.755028e-002
1.531267e+003;6.768970e-002
1.533196e+003;6.767661e-002
1.535124e+003;6.748754e-002
1.537053e+003;6.741830e-002
1.538981e+003;6.736049e-002
1.540910e+003;6.734490e-002
1.542838e+003;6.753824e-002
1.544767e+003;6.759387e-002
1.546695e+003;6.760870e-002
1.548624e+003;6.784710e-002
1.550553e+003;6.802505e-002
1.552481e+003;6.790780e-002
1.554410e+003;6.805396e-002
1.556338e+003;6.832812e-002
1.558267e+003;6.811074e-002
1.560195e+003;6.824258e-002
1.562124e+003;6.876057e-002
1.564052e+003;6.898449e-002
1.565981e+003;6.920169e-002
1.567910e+003;6.911889e-002
1.569838e+003;6.925610e-002
1.571767e+003;6.984760e-002
1.573695e+003;7.008271e-002
1.575624e+003;7.011320e-002
1.577552e+003;7.041349e-002
1.579481e+003;7.088485e-002
1.581409e+003;7.124801e-002
1.583338e+003;7.164411e-002
1.585266e+003;7.196813e-002
1.587195e+003;7.222702e-002
1.589124e+003;7.273196e-002
1.591052e+003;7.324078e-002
1.592981e+003;7.337973e-002
1.594909e+003;7.343972e-002
1.596838e+003;7.378300e-002
1.598766e+003;7.424203e-002
1.600695e+003;7.459168e-002
1.602623e+003;7.501718e-002
1.604552e+003;7.544713e-002
1.606480e+003;7.548186e-002
1.608409e+003;7.544890e-002
1.610338e+003;7.550015e-002
1.612266e+003;7.558197e-002
1.614195e+003;7.560547e-002
1.616123e+003;7.553556e-002
1.618052e+003;7.593014e-002
1.619980e+003;7.618915e-002
1.621909e+003;7.625995e-002
1.623837e+003;7.653733e-002
1.625766e+003;7.680155e-002
1.627694e+003;7.673469e-002
1.629623e+003;7.658337e-002
1.631552e+003;7.650892e-002
1.633480e+003;7.670935e-002
1.635409e+003;7.685269e-002
1.637337e+003;7.685637e-002
1.639266e+003;7.686032e-002
1.641194e+003;7.713345e-002
1.643123e+003;7.720544e-002
1.645051e+003;7.687235e-002
1.646980e+003;7.655638e-002
1.648909e+003;7.637667e-002
1.650837e+003;7.587110e-002
1.652766e+003;7.543049e-002
1.654694e+003;7.560279e-002
1.656623e+003;7.566478e-002
1.658551e+003;7.518695e-002
1.660480e+003;7.466798e-002
1.662408e+003;7.402351e-002
1.664337e+003;7.340267e-002
1.666266e+003;7.296190e-002
1.668194e+003;7.248496e-002
1.670123e+003;7.201643e-002
1.672051e+003;7.185341e-002
1.673980e+003;7.181760e-002
1.675908e+003;7.142818e-002
1.677837e+003;7.076394e-002
1.679765e+003;6.999959e-002
1.681694e+003;6.948662e-002
1.683622e+003;6.907345e-002
1.685551e+003;6.848466e-002
1.687479e+003;6.810578e-002
1.689408e+003;6.786387e-002
1.691337e+003;6.749133e-002
1.693265e+003;6.712101e-002
1.695194e+003;6.684555e-002
1.697122e+003;6.661937e-002
1.699051e+003;6.609613e-002
1.700979e+003;6.568532e-002
1.702908e+003;6.577696e-002
1.704836e+003;6.599399e-002
1.706765e+003;6.604590e-002
1.708693e+003;6.574754e-002
1.710622e+003;6.549793e-002
1.712551e+003;6.541148e-002
1.714479e+003;6.514750e-002
1.716408e+003;6.476398e-002
1.718336e+003;6.476595e-002
1.720265e+003;6.500598e-002
1.722193e+003;6.495483e-002
1.724122e+003;6.481460e-002
1.726050e+003;6.461739e-002
1.727979e+003;6.444886e-002
1.729908e+003;6.441715e-002
1.731836e+003;6.429295e-002
1.733765e+003;6.390573e-002
1.735693e+003;6.361597e-002
1.737622e+003;6.358057e-002
1.739550e+003;6.352123e-002
1.741479e+003;6.332475e-002
1.743407e+003;6.283893e-002
1.745336e+003;6.258313e-002
1.747265e+003;6.236314e-002
1.749193e+003;6.194889e-002
1.751122e+003;6.167197e-002
1.753050e+003;6.161220e-002
1.754979e+003;6.166490e-002
1.756907e+003;6.165612e-002
1.758836e+003;6.173915e-002
1.760764e+003;6.176253e-002
1.762693e+003;6.181474e-002
1.764621e+003;6.191714e-002
1.766550e+003;6.187006e-002
1.768479e+003;6.174866e-002
1.770407e+003;6.157910e-002
1.772336e+003;6.144201e-002
1.774264e+003;6.135454e-002
1.776193e+003;6.127112e-002
1.778121e+003;6.115095e-002
1.780050e+003;6.093420e-002
1.781978e+003;6.093725e-002
1.783907e+003;6.102616e-002
1.785835e+003;6.085830e-002
1.787764e+003;6.089123e-002
1.789693e+003;6.113135e-002
1.791621e+003;6.116354e-002
1.793550e+003;6.101419e-002
1.795478e+003;6.093244e-002
1.797407e+003;6.081412e-002
1.799335e+003;6.064649e-002
1.801264e+003;6.057929e-002
1.803192e+003;6.048539e-002
1.805121e+003;6.047983e-002
1.807049e+003;6.048802e-002
1.808978e+003;6.038189e-002
1.810907e+003;6.033696e-002
1.812835e+003;6.025454e-002
1.814764e+003;6.020411e-002
1.816692e+003;6.008613e-002
1.818621e+003;5.989022e-002
1.820549e+003;5.990395e-002
1.822478e+003;6.011726e-002
1.824406e+003;6.021838e-002
1.826335e+003;6.017252e-002
1.828264e+003;6.000106e-002
1.830192e+003;5.987379e-002
1.832121e+003;5.971325e-002
1.834049e+003;5.948216e-002
1.835978e+003;5.945237e-002
1.837906e+003;5.973237e-002
1.839835e+003;6.001088e-002
1.841763e+003;5.994256e-002
1.843692e+003;5.956865e-002
1.845620e+003;5.943679e-002
1.847549e+003;5.960913e-002
1.849478e+003;5.967295e-002
1.851406e+003;5.949987e-002
1.853335e+003;5.925701e-002
1.855263e+003;5.913481e-002
1.857192e+003;5.903228e-002
1.859120e+003;5.897739e-002
1.861049e+003;5.889959e-002
1.862977e+003;5.886195e-002
1.864906e+003;5.897989e-002
1.866834e+003;5.903968e-002
1.868763e+003;5.909723e-002
1.870692e+003;5.893762e-002
1.872620e+003;5.865161e-002
1.874549e+003;5.880474e-002
1.876477e+003;5.907878e-002
1.878406e+003;5.912988e-002
1.880334e+003;5.917175e-002
1.882263e+003;5.918448e-002
1.884191e+003;5.898384e-002
1.886120e+003;5.879135e-002
1.888048e+003;5.872386e-002
1.889977e+003;5.873987e-002
1.891906e+003;5.889337e-002
1.893834e+003;5.889606e-002
1.895763e+003;5.853576e-002
1.897691e+003;5.830124e-002
1.899620e+003;5.845857e-002
1.901548e+003;5.856488e-002
1.903477e+003;5.854444e-002
1.905405e+003;5.861877e-002
1.907334e+003;5.860159e-002
1.909262e+003;5.849637e-002
1.911191e+003;5.858638e-002
1.913120e+003;5.890563e-002
1.915048e+003;5.896574e-002
1.916977e+003;5.876783e-002
1.918905e+003;5.872158e-002
1.920834e+003;5.894927e-002
1.922762e+003;5.924193e-002
1.924691e+003;5.919845e-002
1.926619e+003;5.892354e-002
1.928548e+003;5.882143e-002
1.930477e+003;5.879032e-002
1.932405e+003;5.885421e-002
1.934334e+003;5.899796e-002
1.936262e+003;5.897269e-002
1.938191e+003;5.890673e-002
1.940119e+003;5.915353e-002
1.942048e+003;5.931045e-002
1.943976e+003;5.924208e-002
1.945905e+003;5.921337e-002
1.947833e+003;5.927706e-002
1.949762e+003;5.931747e-002
1.951691e+003;5.930957e-002
1.953619e+003;5.910072e-002
1.955548e+003;5.895606e-002
1.957476e+003;5.910866e-002
1.959405e+003;5.938817e-002
1.961333e+003;5.928819e-002
1.963262e+003;5.906697e-002
1.965190e+003;5.908838e-002
1.967119e+003;5.933567e-002
1.969047e+003;5.963350e-002
1.970976e+003;5.953388e-002
1.972905e+003;5.929730e-002
1.974833e+003;5.929419e-002
1.976762e+003;5.944952e-002
1.978690e+003;5.959229e-002
1.980619e+003;5.967063e-002
1.982547e+003;5.964896e-002
1.984476e+003;5.976579e-002
1.986404e+003;5.986577e-002
1.988333e+003;5.975872e-002
1.990261e+003;5.973880e-002
1.992190e+003;5.972975e-002
1.994119e+003;5.980572e-002
1.996047e+003;6.008884e-002
1.997976e+003;5.994834e-002
1.999904e+003;5.959560e-002
2.001833e+003;5.944842e-002
2.003761e+003;5.955326e-002
2.005690e+003;5.971640e-002
2.007618e+003;5.971793e-002
2.009547e+003;5.991989e-002
2.011476e+003;6.024548e-002
2.013404e+003;6.057627e-002
2.015333e+003;6.069789e-002
2.017261e+003;6.048635e-002
2.019190e+003;6.026543e-002
2.021118e+003;6.027110e-002
2.023047e+003;6.046563e-002
2.024975e+003;6.059772e-002
2.026904e+003;6.057441e-002
2.028833e+003;6.052881e-002
2.030761e+003;6.046129e-002
2.032690e+003;6.032782e-002
2.034618e+003;6.033159e-002
2.036547e+003;6.050257e-002
2.038475e+003;6.060725e-002
2.040404e+003;6.070657e-002
2.042332e+003;6.080425e-002
2.044261e+003;6.074026e-002
2.046189e+003;6.072052e-002
2.048118e+003;6.066089e-002
2.050047e+003;6.047408e-002
2.051975e+003;6.035295e-002
2.053904e+003;6.028816e-002
2.055832e+003;6.020312e-002
2.057761e+003;6.026360e-002
2.059689e+003;6.036887e-002
2.061618e+003;6.046395e-002
2.063546e+003;6.048231e-002
2.065475e+003;6.048254e-002
2.067404e+003;6.042225e-002
2.069332e+003;6.004756e-002
2.071260e+003;5.984812e-002
2.073189e+003;6.018089e-002
2.075118e+003;6.030970e-002
2.077046e+003;6.030769e-002
2.078975e+003;6.029981e-002
2.080903e+003;6.025249e-002
2.082832e+003;6.030483e-002
2.084760e+003;6.042084e-002
2.086689e+003;6.034987e-002
2.088617e+003;6.025454e-002
2.090546e+003;6.040801e-002
2.092475e+003;6.060481e-002
2.094403e+003;6.017758e-002
2.096332e+003;5.981587e-002
2.098260e+003;5.994184e-002
2.100189e+003;6.002343e-002
2.102117e+003;6.010261e-002
2.104046e+003;6.021629e-002
2.105974e+003;6.039537e-002
2.107903e+003;6.040972e-002
2.109832e+003;6.025443e-002
2.111760e+003;6.022908e-002
2.113688e+003;6.015794e-002
2.115617e+003;6.009009e-002
2.117546e+003;6.031298e-002
2.119474e+003;6.037191e-002
2.121403e+003;6.017324e-002
2.123331e+003;6.004843e-002
2.125260e+003;5.992305e-002
2.127188e+003;6.007906e-002
2.129117e+003;6.049781e-002
2.131045e+003;6.087106e-002
2.132974e+003;6.089303e-002
2.134903e+003;6.071446e-002
2.136831e+003;6.068665e-002
2.138760e+003;6.067785e-002
2.140688e+003;6.075810e-002
2.142617e+003;6.082601e-002
2.144545e+003;6.047785e-002
2.146474e+003;6.036692e-002
2.148402e+003;6.055631e-002
2.150331e+003;6.069972e-002
2.152260e+003;6.070612e-002
2.154188e+003;6.060355e-002
2.156117e+003;6.041791e-002
2.158045e+003;6.057345e-002
2.159974e+003;6.057117e-002
2.161902e+003;6.016160e-002
2.163831e+003;6.001754e-002
2.165759e+003;5.983356e-002
2.167688e+003;5.972176e-002
2.169616e+003;5.967443e-002
2.171545e+003;5.948570e-002
2.173474e+003;5.956880e-002
2.175402e+003;5.965258e-002
2.177331e+003;5.962593e-002
2.179259e+003;5.952609e-002
2.181188e+003;5.930448e-002
2.183116e+003;5.908489e-002
2.185045e+003;5.899694e-002
2.186973e+003;5.890844e-002
2.188902e+003;5.882948e-002
2.190831e+003;5.876236e-002
2.192759e+003;5.858585e-002
2.194688e+003;5.848420e-002
2.196616e+003;5.867470e-002
2.198545e+003;5.899033e-002
2.200473e+003;5.880918e-002
2.202402e+003;5.844042e-002
2.204330e+003;5.865745e-002
2.206259e+003;5.875834e-002
2.208188e+003;5.842885e-002
2.210116e+003;5.834650e-002
2.212044e+003;5.833941e-002
2.213973e+003;5.831273e-002
2.215902e+003;5.837094e-002
2.217830e+003;5.838754e-002
2.219759e+003;5.846323e-002
2.221687e+003;5.880675e-002
2.223616e+003;5.888191e-002
2.225544e+003;5.868771e-002
2.227473e+003;5.862798e-002
2.229401e+003;5.865438e-002
2.231330e+003;5.871844e-002
2.233259e+003;5.862369e-002
2.235187e+003;5.837503e-002
2.237116e+003;5.830712e-002
2.239044e+003;5.841616e-002
2.240973e+003;5.846563e-002
2.242901e+003;5.829484e-002
2.244830e+003;5.833478e-002
2.246758e+003;5.849853e-002
2.248687e+003;5.845762e-002
2.250615e+003;5.832409e-002
2.252544e+003;5.846373e-002
2.254473e+003;5.845842e-002
2.256401e+003;5.826597e-002
2.258330e+003;5.827309e-002
2.260258e+003;5.833001e-002
2.262187e+003;5.814753e-002
2.264115e+003;5.804088e-002
2.266044e+003;5.808026e-002
2.267972e+003;5.803266e-002
2.269901e+003;5.770894e-002
2.271830e+003;5.744405e-002
2.273758e+003;5.752268e-002
2.275687e+003;5.770614e-002
2.277615e+003;5.749439e-002
2.279544e+003;5.746583e-002
2.281472e+003;5.754178e-002
2.283401e+003;5.740857e-002
2.285329e+003;5.736505e-002
2.287258e+003;5.772431e-002
2.289187e+003;5.782218e-002
2.291115e+003;5.763394e-002
2.293043e+003;5.742975e-002
2.294972e+003;5.740150e-002
2.296901e+003;5.756641e-002
2.298829e+003;5.754125e-002
2.300758e+003;5.748705e-002
2.302686e+003;5.722165e-002
2.304615e+003;5.710898e-002
2.306543e+003;5.734070e-002
2.308472e+003;5.721243e-002
2.310400e+003;5.697405e-002
2.312329e+003;5.714016e-002
2.314258e+003;5.727926e-002
2.316186e+003;5.711303e-002
2.318115e+003;5.709466e-002
2.320043e+003;5.717720e-002
2.321972e+003;5.720048e-002
2.323900e+003;5.766289e-002
2.325829e+003;5.796503e-002
2.327757e+003;5.755472e-002
2.329686e+003;5.748312e-002
2.331615e+003;5.760701e-002
2.333543e+003;5.752601e-002
2.335472e+003;5.742990e-002
2.337400e+003;5.755079e-002
2.339329e+003;5.783236e-002
2.341257e+003;5.780375e-002
2.343186e+003;5.777218e-002
2.345114e+003;5.776582e-002
2.347043e+003;5.799467e-002
2.348971e+003;5.831970e-002
2.350900e+003;5.838038e-002
2.352829e+003;5.852439e-002
2.354757e+003;5.845592e-002
2.356686e+003;5.823535e-002
2.358614e+003;5.802792e-002
2.360543e+003;5.800743e-002
2.362471e+003;5.836078e-002
2.364400e+003;5.858506e-002
2.366328e+003;5.846684e-002
2.368257e+003;5.831189e-002
2.370186e+003;5.838356e-002
2.372114e+003;5.859586e-002
2.374042e+003;5.875990e-002
2.375971e+003;5.877886e-002
2.377900e+003;5.881050e-002
2.379828e+003;5.896726e-002
2.381757e+003;5.888290e-002
2.383685e+003;5.871335e-002
2.385614e+003;5.865350e-002
2.387542e+003;5.864910e-002
2.389471e+003;5.860401e-002
2.391399e+003;5.856192e-002
2.393328e+003;5.873498e-002
2.395257e+003;5.908405e-002
2.397185e+003;5.932010e-002
2.399114e+003;5.922458e-002
2.401042e+003;5.880337e-002
2.402971e+003;5.889227e-002
2.404899e+003;5.925841e-002
2.406828e+003;5.952791e-002
2.408756e+003;5.964258e-002
2.410685e+003;5.955649e-002
2.412614e+003;5.957872e-002
2.414542e+003;5.979583e-002
2.416471e+003;6.009226e-002
2.418399e+003;6.011308e-002
2.420328e+003;6.008111e-002
2.422256e+003;5.989923e-002
2.424185e+003;5.967212e-002
2.426113e+003;5.956580e-002
2.428042e+003;5.988402e-002
2.429970e+003;6.017374e-002
2.431899e+003;6.009630e-002
2.433828e+003;6.010752e-002
2.435756e+003;6.034115e-002
2.437685e+003;6.069019e-002
2.439613e+003;6.091845e-002
2.441542e+003;6.087694e-002
2.443470e+003;6.077925e-002
2.445399e+003;6.080139e-002
2.447327e+003;6.076831e-002
2.449256e+003;6.060569e-002
2.451185e+003;6.040337e-002
2.453113e+003;6.051419e-002
2.455042e+003;6.099852e-002
2.456970e+003;6.116850e-002
2.458899e+003;6.103135e-002
2.460827e+003;6.077521e-002
2.462756e+003;6.097122e-002
2.464684e+003;6.137816e-002
2.466613e+003;6.141694e-002
2.468542e+003;6.151576e-002
2.470470e+003;6.163076e-002
2.472398e+003;6.156486e-002
2.474327e+003;6.179595e-002
2.476256e+003;6.186116e-002
2.478184e+003;6.182689e-002
2.480113e+003;6.190411e-002
2.482041e+003;6.168278e-002
2.483970e+003;6.153027e-002
2.485898e+003;6.171940e-002
2.487827e+003;6.205289e-002
2.489755e+003;6.216184e-002
2.491684e+003;6.185948e-002
2.493613e+003;6.165593e-002
2.495541e+003;6.176669e-002
2.497470e+003;6.201829e-002
2.499398e+003;6.230435e-002
2.501327e+003;6.242461e-002
2.503255e+003;6.249623e-002
2.505184e+003;6.261869e-002
2.507112e+003;6.261727e-002
2.509041e+003;6.249180e-002
2.510969e+003;6.248548e-002
2.512898e+003;6.274895e-002
2.514827e+003;6.321651e-002
2.516755e+003;6.313320e-002
2.518684e+003;6.272996e-002
2.520612e+003;6.268525e-002
2.522541e+003;6.285176e-002
2.524469e+003;6.293092e-002
2.526398e+003;6.318746e-002
2.528326e+003;6.329010e-002
2.530255e+003;6.300845e-002
2.532184e+003;6.277128e-002
2.534112e+003;6.268502e-002
2.536041e+003;6.256542e-002
2.537969e+003;6.273586e-002
2.539898e+003;6.293295e-002
2.541826e+003;6.278418e-002
2.543755e+003;6.296382e-002
2.545683e+003;6.320290e-002
2.547612e+003;6.315676e-002
2.549541e+003;6.332786e-002
2.551469e+003;6.339039e-002
2.553397e+003;6.296271e-002
2.555326e+003;6.261104e-002
2.557255e+003;6.298382e-002
2.559183e+003;6.321946e-002
2.561112e+003;6.293935e-002
2.563040e+003;6.292877e-002
2.564969e+003;6.319588e-002
2.566897e+003;6.334227e-002
2.568826e+003;6.331363e-002
2.570754e+003;6.298351e-002
2.572683e+003;6.279578e-002
2.574612e+003;6.301986e-002
2.576540e+003;6.319424e-002
2.578469e+003;6.323958e-002
2.580397e+003;6.336796e-002
2.582326e+003;6.327898e-002
2.584254e+003;6.319320e-002
2.586183e+003;6.355809e-002
2.588111e+003;6.365287e-002
2.590040e+003;6.346470e-002
2.591969e+003;6.376326e-002
2.593897e+003;6.403618e-002
2.595826e+003;6.402490e-002
2.597754e+003;6.409014e-002
2.599683e+003;6.413572e-002
2.601611e+003;6.395993e-002
2.603540e+003;6.377336e-002
2.605468e+003;6.379277e-002
2.607397e+003;6.391740e-002
2.609325e+003;6.401365e-002
2.611254e+003;6.397586e-002
2.613183e+003;6.390738e-002
2.615111e+003;6.388147e-002
2.617040e+003;6.381868e-002
2.618968e+003;6.403991e-002
2.620897e+003;6.450690e-002
2.622825e+003;6.459958e-002
2.624754e+003;6.433437e-002
2.626682e+003;6.448441e-002
2.628611e+003;6.501544e-002
2.630540e+003;6.542373e-002
2.632468e+003;6.570059e-002
2.634396e+003;6.532782e-002
2.636325e+003;6.481744e-002
2.638254e+003;6.510065e-002
2.640182e+003;6.540605e-002
2.642111e+003;6.529289e-002
2.644039e+003;6.523679e-002
2.645968e+003;6.548136e-002
2.647896e+003;6.578112e-002
2.649825e+003;6.574754e-002
2.651753e+003;6.565723e-002
2.653682e+003;6.579010e-002
2.655611e+003;6.597065e-002
2.657539e+003;6.615818e-002
2.659468e+003;6.610501e-002
2.661396e+003;6.590624e-002
2.663325e+003;6.606168e-002
2.665253e+003;6.621853e-002
2.667182e+003;6.626029e-002
2.669110e+003;6.640083e-002
2.671039e+003;6.670146e-002
2.672968e+003;6.662405e-002
2.674896e+003;6.654823e-002
2.676825e+003;6.668578e-002
2.678753e+003;6.669497e-002
2.680682e+003;6.686252e-002
2.682610e+003;6.692459e-002
2.684539e+003;6.693167e-002
2.686467e+003;6.710298e-002
2.688396e+003;6.731309e-002
2.690324e+003;6.746098e-002
2.692253e+003;6.775267e-002
2.694182e+003;6.773160e-002
2.696110e+003;6.773795e-002
2.698039e+003;6.799696e-002
2.699967e+003;6.809039e-002
2.701896e+003;6.783993e-002
2.703824e+003;6.787762e-002
2.705753e+003;6.797855e-002
2.707681e+003;6.830346e-002
2.709610e+003;6.866664e-002
2.711539e+003;6.873441e-002
2.713467e+003;6.899592e-002
2.715396e+003;6.919722e-002
2.717324e+003;6.921782e-002
2.719253e+003;6.907127e-002
2.721181e+003;6.892531e-002
2.723110e+003;6.903293e-002
2.725038e+003;6.933826e-002
2.726967e+003;6.937270e-002
2.728896e+003;6.913114e-002
2.730824e+003;6.929213e-002
2.732752e+003;6.971947e-002
2.734681e+003;6.994244e-002
2.736610e+003;6.994311e-002
2.738538e+003;6.995214e-002
2.740467e+003;6.985110e-002
2.742395e+003;6.985122e-002
2.744324e+003;7.001583e-002
2.746252e+003;7.012449e-002
2.748181e+003;7.007995e-002
2.750109e+003;6.995268e-002
2.752038e+003;6.979896e-002
2.753967e+003;6.981857e-002
2.755895e+003;7.001886e-002
2.757824e+003;7.029995e-002
2.759752e+003;7.047210e-002
2.761681e+003;7.037776e-002
2.763609e+003;7.032847e-002
2.765538e+003;7.084946e-002
2.767466e+003;7.141612e-002
2.769395e+003;7.131395e-002
2.771323e+003;7.093263e-002
2.773252e+003;7.110569e-002
2.775181e+003;7.144798e-002
2.777109e+003;7.156435e-002
2.779038e+003;7.164309e-002
2.780966e+003;7.188473e-002
2.782895e+003;7.195679e-002
2.784823e+003;7.210640e-002
2.786752e+003;7.288018e-002
2.788680e+003;7.328385e-002
2.790609e+003;7.315027e-002
2.792538e+003;7.306319e-002
2.794466e+003;7.321294e-002
2.796395e+003;7.353617e-002
2.798323e+003;7.368605e-002
2.800252e+003;7.372590e-002
2.802180e+003;7.404453e-002
2.804109e+003;7.433107e-002
2.806037e+003;7.465908e-002
2.807966e+003;7.522351e-002
2.809895e+003;7.593645e-002
2.811823e+003;7.639113e-002
2.813751e+003;7.635791e-002
2.815680e+003;7.669864e-002
2.817609e+003;7.725449e-002
2.819537e+003;7.738870e-002
2.821466e+003;7.772275e-002
2.823394e+003;7.837976e-002
2.825323e+003;7.911651e-002
2.827251e+003;7.954452e-002
2.829180e+003;7.974680e-002
2.831108e+003;8.040565e-002
2.833037e+003;8.123708e-002
2.834966e+003;8.198325e-002
2.836894e+003;8.316463e-002
2.838823e+003;8.417384e-002
2.840751e+003;8.513098e-002
2.842680e+003;8.602968e-002
2.844608e+003;8.657852e-002
2.846537e+003;8.733183e-002
2.848465e+003;8.865237e-002
2.850394e+003;9.022284e-002
2.852323e+003;9.142851e-002
2.854251e+003;9.286723e-002
2.856180e+003;9.411637e-002
2.858108e+003;9.434578e-002
2.860037e+003;9.519070e-002
2.861965e+003;9.666195e-002
2.863894e+003;9.778202e-002
2.865822e+003;9.847315e-002
2.867751e+003;9.913111e-002
2.869679e+003;9.967226e-002
2.871608e+003;1.000565e-001
2.873536e+003;1.007225e-001
2.875465e+003;1.013637e-001
2.877394e+003;1.018693e-001
2.879322e+003;1.026260e-001
2.881251e+003;1.032506e-001
2.883179e+003;1.036324e-001
2.885108e+003;1.037000e-001
2.887036e+003;1.044012e-001
2.888965e+003;1.053996e-001
2.890893e+003;1.059349e-001
2.892822e+003;1.060406e-001
2.894750e+003;1.060226e-001
2.896679e+003;1.059232e-001
2.898608e+003;1.059970e-001
2.900536e+003;1.061415e-001
2.902465e+003;1.059120e-001
2.904393e+003;1.051672e-001
2.906322e+003;1.042703e-001
2.908250e+003;1.030339e-001
2.910179e+003;1.015100e-001
2.912107e+003;1.003045e-001
2.914036e+003;9.897519e-002
2.915965e+003;9.740303e-002
2.917893e+003;9.601611e-002
2.919822e+003;9.487753e-002
2.921750e+003;9.368490e-002
2.923679e+003;9.257813e-002
2.925607e+003;9.169607e-002
2.927536e+003;9.041620e-002
2.929464e+003;8.953489e-002
2.931393e+003;8.914546e-002
2.933322e+003;8.814304e-002
2.935250e+003;8.719888e-002
2.937178e+003;8.649400e-002
2.939107e+003;8.582824e-002
2.941036e+003;8.511619e-002
2.942964e+003;8.494995e-002
2.944893e+003;8.472175e-002
2.946821e+003;8.392157e-002
2.948750e+003;8.253621e-002
2.950678e+003;8.110981e-002
2.952607e+003;8.033372e-002
2.954535e+003;7.942667e-002
2.956464e+003;7.818370e-002
2.958393e+003;7.716203e-002
2.960321e+003;7.647703e-002
2.962250e+003;7.568462e-002
2.964178e+003;7.478317e-002
2.966107e+003;7.437539e-002
2.968035e+003;7.394549e-002
2.969964e+003;7.377420e-002
2.971892e+003;7.343011e-002
2.973821e+003;7.262812e-002
2.975750e+003;7.208230e-002
2.977678e+003;7.129412e-002
2.979607e+003;7.051200e-002
2.981535e+003;7.024359e-002
2.983464e+003;7.002540e-002
2.985392e+003;6.946142e-002
2.987321e+003;6.912678e-002
2.989249e+003;6.891976e-002
2.991178e+003;6.861049e-002
2.993106e+003;6.854810e-002
2.995035e+003;6.847598e-002
2.996964e+003;6.811891e-002
2.998892e+003;6.790435e-002
3.000821e+003;6.789025e-002
3.002749e+003;6.824817e-002
3.004678e+003;6.898912e-002
3.006606e+003;6.932633e-002
3.008535e+003;6.896383e-002
3.010463e+003;6.882253e-002
3.012392e+003;6.886986e-002
3.014321e+003;6.893241e-002
3.016249e+003;6.915728e-002
3.018177e+003;6.893378e-002
3.020106e+003;6.898329e-002
3.022035e+003;6.926593e-002
3.023963e+003;6.923845e-002
3.025892e+003;6.950287e-002
3.027820e+003;6.968306e-002
3.029749e+003;6.991649e-002
3.031677e+003;7.019354e-002
3.033606e+003;7.023136e-002
3.035534e+003;7.053387e-002
3.037463e+003;7.105386e-002
3.039392e+003;7.121568e-002
3.041320e+003;7.122876e-002
3.043249e+003;7.141764e-002
3.045177e+003;7.148123e-002
3.047106e+003;7.232230e-002
3.049034e+003;7.286972e-002
3.050963e+003;7.285522e-002
3.052891e+003;7.316309e-002
3.054820e+003;7.323804e-002
3.056749e+003;7.356585e-002
3.058677e+003;7.390522e-002
3.060606e+003;7.386692e-002
3.062534e+003;7.413487e-002
3.064463e+003;7.423389e-002
3.066391e+003;7.439737e-002
3.068320e+003;7.483552e-002
3.070248e+003;7.553831e-002
3.072177e+003;7.595220e-002
3.074105e+003;7.615601e-002
3.076034e+003;7.652978e-002
3.077963e+003;7.654974e-002
3.079891e+003;7.650279e-002
3.081820e+003;7.665076e-002
3.083748e+003;7.726787e-002
3.085677e+003;7.762100e-002
3.087605e+003;7.782936e-002
3.089534e+003;7.859027e-002
3.091462e+003;7.905843e-002
3.093391e+003;7.918727e-002
3.095320e+003;7.907357e-002
3.097248e+003;7.941819e-002
3.099177e+003;8.035553e-002
3.101105e+003;8.107875e-002
3.103034e+003;8.134983e-002
3.104962e+003;8.137453e-002
3.106891e+003;8.166055e-002
3.108819e+003;8.242536e-002
3.110748e+003;8.316159e-002
3.112677e+003;8.369086e-002
3.114605e+003;8.368909e-002
3.116533e+003;8.378806e-002
3.118462e+003;8.404387e-002
3.120391e+003;8.441137e-002
3.122319e+003;8.530346e-002
3.124248e+003;8.571102e-002
3.126176e+003;8.606571e-002
3.128105e+003;8.621193e-002
3.130033e+003;8.633346e-002
3.131962e+003;8.700056e-002
3.133890e+003;8.781227e-002
3.135819e+003;8.844785e-002
3.137748e+003;8.895075e-002
3.139676e+003;8.938657e-002
3.141605e+003;8.981771e-002
3.143533e+003;9.031245e-002
3.145462e+003;9.057920e-002
3.147390e+003;9.075573e-002
3.149319e+003;9.130269e-002
3.151247e+003;9.194991e-002
3.153176e+003;9.251211e-002
3.155104e+003;9.322696e-002
3.157033e+003;9.387899e-002
3.158962e+003;9.481224e-002
3.160890e+003;9.550302e-002
3.162819e+003;9.611420e-002
3.164747e+003;9.660976e-002
3.166676e+003;9.705562e-002
3.168604e+003;9.761605e-002
3.170533e+003;9.824754e-002
3.172461e+003;9.878746e-002
3.174390e+003;9.935822e-002
3.176319e+003;9.983919e-002
3.178247e+003;1.009191e-001
3.180176e+003;1.019126e-001
3.182104e+003;1.019078e-001
3.184033e+003;1.022694e-001
3.185961e+003;1.034596e-001
3.187890e+003;1.044760e-001
3.189818e+003;1.052514e-001
3.191747e+003;1.059607e-001
3.193676e+003;1.063862e-001
3.195604e+003;1.071253e-001
3.197532e+003;1.081895e-001
3.199461e+003;1.093218e-001
3.201390e+003;1.100399e-001
3.203318e+003;1.103265e-001
3.205247e+003;1.115054e-001
3.207175e+003;1.130979e-001
3.209104e+003;1.136781e-001
3.211032e+003;1.140802e-001
3.212961e+003;1.145119e-001
3.214889e+003;1.152590e-001
3.216818e+003;1.160599e-001
3.218747e+003;1.175982e-001
3.220675e+003;1.191777e-001
3.222604e+003;1.202497e-001
3.224532e+003;1.209242e-001
3.226461e+003;1.218585e-001
3.228389e+003;1.236081e-001
3.230318e+003;1.251770e-001
3.232246e+003;1.258241e-001
3.234175e+003;1.265160e-001
3.236104e+003;1.273856e-001
3.238032e+003;1.282988e-001
3.239961e+003;1.291187e-001
3.241889e+003;1.299564e-001
3.243818e+003;1.314487e-001
3.245746e+003;1.331834e-001
3.247675e+003;1.341947e-001
3.249603e+003;1.355277e-001
3.251532e+003;1.370167e-001
3.253460e+003;1.387085e-001
3.255389e+003;1.400151e-001
3.257318e+003;1.405386e-001
3.259246e+003;1.414913e-001
3.261175e+003;1.428733e-001
3.263103e+003;1.440720e-001
3.265032e+003;1.455667e-001
3.266960e+003;1.471770e-001
3.268889e+003;1.481062e-001
3.270817e+003;1.484946e-001
3.272746e+003;1.487961e-001
3.274675e+003;1.497661e-001
3.276603e+003;1.502803e-001
3.278531e+003;1.504598e-001
3.280460e+003;1.511841e-001
3.282389e+003;1.516589e-001
3.284317e+003;1.524635e-001
3.286246e+003;1.536704e-001
3.288174e+003;1.542720e-001
3.290103e+003;1.544351e-001
3.292031e+003;1.542564e-001
3.293960e+003;1.542007e-001
3.295888e+003;1.546766e-001
3.297817e+003;1.555358e-001
3.299746e+003;1.561452e-001
3.301674e+003;1.559703e-001
3.303603e+003;1.555402e-001
3.305531e+003;1.553209e-001
3.307460e+003;1.557106e-001
3.309388e+003;1.566153e-001
3.311317e+003;1.573284e-001
3.313245e+003;1.573306e-001
3.315174e+003;1.577543e-001
3.317103e+003;1.586104e-001
3.319031e+003;1.591848e-001
3.320960e+003;1.595866e-001
3.322888e+003;1.596016e-001
3.324817e+003;1.600048e-001
3.326745e+003;1.604684e-001
3.328674e+003;1.610901e-001
3.330602e+003;1.621988e-001
3.332531e+003;1.627164e-001
3.334459e+003;1.623283e-001
3.336388e+003;1.617985e-001
3.338317e+003;1.622031e-001
3.340245e+003;1.621121e-001
3.342174e+003;1.621048e-001
3.344102e+003;1.621522e-001
3.346031e+003;1.613389e-001
3.347959e+003;1.598551e-001
3.349888e+003;1.585176e-001
3.351816e+003;1.574374e-001
3.353745e+003;1.562393e-001
3.355674e+003;1.554450e-001
3.357602e+003;1.547524e-001
3.359531e+003;1.536324e-001
3.361459e+003;1.527024e-001
3.363388e+003;1.520261e-001
3.365316e+003;1.510283e-001
3.367245e+003;1.498666e-001
3.369173e+003;1.490963e-001
3.371102e+003;1.483510e-001
3.373031e+003;1.475805e-001
3.374959e+003;1.461758e-001
3.376887e+003;1.447946e-001
3.378816e+003;1.440195e-001
3.380745e+003;1.434110e-001
3.382673e+003;1.430857e-001
3.384602e+003;1.427753e-001
3.386530e+003;1.419078e-001
3.388459e+003;1.408811e-001
3.390387e+003;1.400547e-001
3.392316e+003;1.396857e-001
3.394244e+003;1.392108e-001
3.396173e+003;1.378778e-001
3.398102e+003;1.366762e-001
3.400030e+003;1.361116e-001
3.401959e+003;1.357035e-001
3.403887e+003;1.348147e-001
3.405816e+003;1.338625e-001
3.407744e+003;1.328635e-001
3.409673e+003;1.317870e-001
3.411601e+003;1.306456e-001
3.413530e+003;1.295766e-001
3.415458e+003;1.283766e-001
3.417387e+003;1.274049e-001
3.419316e+003;1.266267e-001
3.421244e+003;1.255857e-001
3.423173e+003;1.247626e-001
3.425101e+003;1.240788e-001
3.427030e+003;1.233876e-001
3.428958e+003;1.223670e-001
3.430887e+003;1.208005e-001
3.432815e+003;1.198503e-001
3.434744e+003;1.192545e-001
3.436673e+003;1.178996e-001
3.438601e+003;1.166359e-001
3.440530e+003;1.158730e-001
3.442458e+003;1.155405e-001
3.444387e+003;1.145472e-001
3.446315e+003;1.129424e-001
3.448244e+003;1.123603e-001
3.450172e+003;1.112711e-001
3.452101e+003;1.095906e-001
3.454030e+003;1.090258e-001
3.455958e+003;1.080949e-001
3.457886e+003;1.070275e-001
3.459815e+003;1.064728e-001
3.461744e+003;1.053698e-001
3.463672e+003;1.043810e-001
3.465601e+003;1.030650e-001
3.467529e+003;1.019343e-001
3.469458e+003;1.015344e-001
3.471386e+003;1.006624e-001
3.473315e+003;9.842547e-002
3.475243e+003;9.704721e-002
3.477172e+003;9.669474e-002
3.479101e+003;9.613020e-002
3.481029e+003;9.534654e-002
3.482958e+003;9.445293e-002
3.484886e+003;9.323682e-002
3.486815e+003;9.248009e-002
3.488743e+003;9.148581e-002
3.490672e+003;9.052949e-002
3.492600e+003;8.961581e-002
3.494529e+003;8.852052e-002
3.496458e+003;8.763612e-002
3.498386e+003;8.685350e-002
3.500315e+003;8.608090e-002
3.502243e+003;8.473891e-002
3.504172e+003;8.356537e-002
3.506100e+003;8.304612e-002
3.508029e+003;8.207438e-002
3.509957e+003;8.081705e-002
3.511886e+003;8.027663e-002
3.513814e+003;7.943247e-002
3.515743e+003;7.856271e-002
3.517672e+003;7.757596e-002
3.519600e+003;7.663231e-002
3.521529e+003;7.616545e-002
3.523457e+003;7.538658e-002
3.525386e+003;7.464035e-002
3.527314e+003;7.397813e-002
3.529243e+003;7.358877e-002
3.531171e+003;7.314654e-002
3.533100e+003;7.211918e-002
3.535029e+003;7.115018e-002
3.536957e+003;7.020433e-002
3.538885e+003;6.939587e-002
3.540814e+003;6.879726e-002
3.542743e+003;6.757757e-002
3.544671e+003;6.704970e-002
3.546600e+003;6.695464e-002
3.548528e+003;6.609590e-002
3.550457e+003;6.495591e-002
3.552385e+003;6.413826e-002
3.554314e+003;6.430713e-002
3.556242e+003;6.403384e-002
3.558171e+003;6.297892e-002
3.560100e+003;6.238643e-002
3.562028e+003;6.198306e-002
3.563957e+003;6.106903e-002
3.565885e+003;6.014599e-002
3.567814e+003;5.936256e-002
3.569742e+003;5.893553e-002
3.571671e+003;5.822092e-002
3.573599e+003;5.752817e-002
3.575528e+003;5.677965e-002
3.577457e+003;5.578060e-002
3.579385e+003;5.549202e-002
3.581314e+003;5.531951e-002
3.583242e+003;5.504817e-002
3.585171e+003;5.517140e-002
3.587099e+003;5.459564e-002
3.589028e+003;5.364879e-002
3.590956e+003;5.326393e-002
3.592885e+003;5.352730e-002
3.594813e+003;5.340843e-002
3.596742e+003;5.228440e-002
3.598671e+003;5.111817e-002
3.600599e+003;5.116238e-002
3.602528e+003;5.105042e-002
3.604456e+003;5.038407e-002
3.606385e+003;5.006448e-002
3.608313e+003;4.994261e-002
3.610242e+003;4.914552e-002
3.612170e+003;4.851955e-002
3.614099e+003;4.861229e-002
3.616028e+003;4.888684e-002
3.617956e+003;4.832756e-002
3.619885e+003;4.721374e-002
3.621813e+003;4.673088e-002
3.623742e+003;4.673922e-002
3.625670e+003;4.660109e-002
3.627599e+003;4.612263e-002
3.629527e+003;4.577741e-002
3.631456e+003;4.589207e-002
3.633385e+003;4.596805e-002
3.635313e+003;4.541274e-002
3.637241e+003;4.480626e-002
3.639170e+003;4.458084e-002
3.641099e+003;4.450371e-002
3.643027e+003;4.471355e-002
3.644956e+003;4.464469e-002
3.646884e+003;4.400845e-002
3.648813e+003;4.324775e-002
3.650741e+003;4.321323e-002
3.652670e+003;4.348921e-002
3.654598e+003;4.387412e-002
3.656527e+003;4.381808e-002
3.658456e+003;4.355928e-002
3.660384e+003;4.352053e-002
3.662313e+003;4.304523e-002
3.664241e+003;4.281736e-002
3.666170e+003;4.218553e-002
3.668098e+003;4.173850e-002
3.670027e+003;4.157713e-002
3.671955e+003;4.162369e-002
3.673884e+003;4.153086e-002
3.675813e+003;4.154756e-002
3.677741e+003;4.108246e-002
3.679669e+003;4.060575e-002
3.681598e+003;4.043904e-002
3.683527e+003;4.013097e-002
3.685455e+003;4.072699e-002
3.687384e+003;4.096811e-002
3.689312e+003;4.057122e-002
3.691241e+003;4.078438e-002
3.693169e+003;4.105831e-002
3.695098e+003;4.086453e-002
3.697026e+003;4.063784e-002
3.698955e+003;4.065443e-002
3.700884e+003;4.031945e-002
3.702812e+003;3.945355e-002
3.704741e+003;3.908316e-002
3.706669e+003;3.913385e-002
3.708598e+003;3.945290e-002
3.710526e+003;3.974254e-002
3.712455e+003;3.935961e-002
3.714383e+003;3.936074e-002
3.716312e+003;3.953255e-002
3.718240e+003;3.918563e-002
3.720169e+003;3.847448e-002
3.722098e+003;3.813832e-002
3.724026e+003;3.846612e-002
3.725955e+003;3.857445e-002
3.727883e+003;3.802995e-002
3.729812e+003;3.783289e-002
3.731740e+003;3.799513e-002
3.733669e+003;3.774567e-002
3.735597e+003;3.792928e-002
3.737526e+003;3.837179e-002
3.739455e+003;3.843481e-002
3.741383e+003;3.838369e-002
3.743312e+003;3.828634e-002
3.745240e+003;3.783282e-002
3.747169e+003;3.782313e-002
3.749097e+003;3.797628e-002
3.751026e+003;3.815250e-002
3.752954e+003;3.834171e-002
3.754883e+003;3.861469e-002
3.756812e+003;3.844313e-002
3.758740e+003;3.866944e-002
3.760668e+003;3.869114e-002
3.762597e+003;3.843321e-002
3.764526e+003;3.836987e-002
3.766454e+003;3.802413e-002
3.768383e+003;3.792967e-002
3.770311e+003;3.806145e-002
3.772240e+003;3.836447e-002
3.774168e+003;3.822030e-002
3.776097e+003;3.765597e-002
3.778025e+003;3.753873e-002
3.779954e+003;3.796674e-002
3.781883e+003;3.809589e-002
3.783811e+003;3.845312e-002
3.785740e+003;3.904267e-002
3.787668e+003;3.866492e-002
3.789597e+003;3.789710e-002
3.791525e+003;3.791069e-002
3.793454e+003;3.808941e-002
3.795382e+003;3.863156e-002
3.797311e+003;3.942336e-002
3.799240e+003;3.963566e-002
3.801168e+003;3.843915e-002
3.803097e+003;3.778095e-002
3.805025e+003;3.782346e-002
3.806954e+003;3.798486e-002
3.808882e+003;3.801281e-002
3.810811e+003;3.790491e-002
3.812739e+003;3.809310e-002
3.814668e+003;3.824914e-002
3.816596e+003;3.846583e-002
3.818525e+003;3.778460e-002
3.820454e+003;3.756554e-002
3.822382e+003;3.787154e-002
3.824311e+003;3.756528e-002
3.826239e+003;3.733604e-002
3.828168e+003;3.808931e-002
3.830096e+003;3.873182e-002
3.832025e+003;3.815753e-002
3.833953e+003;3.788061e-002
3.835882e+003;3.808641e-002
3.837811e+003;3.742780e-002
3.839739e+003;3.752150e-002
3.841667e+003;3.840436e-002
3.843596e+003;3.884714e-002
3.845525e+003;3.862874e-002
3.847453e+003;3.830186e-002
3.849382e+003;3.801621e-002
3.851310e+003;3.788343e-002
3.853239e+003;3.803715e-002
3.855167e+003;3.844903e-002
3.857096e+003;3.902857e-002
3.859024e+003;3.903506e-002
3.860953e+003;3.853324e-002
3.862882e+003;3.855602e-002
3.864810e+003;3.836067e-002
3.866739e+003;3.854190e-002
3.868667e+003;3.878308e-002
3.870596e+003;3.861682e-002
3.872524e+003;3.851065e-002
3.874453e+003;3.870476e-002
3.876381e+003;3.945431e-002
3.878310e+003;3.989474e-002
3.880239e+003;3.985312e-002
3.882167e+003;3.998901e-002
3.884096e+003;4.011978e-002
3.886024e+003;4.016801e-002
3.887953e+003;3.986438e-002
3.889881e+003;3.996314e-002
3.891810e+003;4.005670e-002
3.893738e+003;3.942318e-002
3.895667e+003;3.923843e-002
3.897595e+003;3.954558e-002
3.899524e+003;3.976967e-002
3.901453e+003;3.959443e-002
3.903381e+003;3.898474e-002
3.905310e+003;3.919622e-002
3.907238e+003;3.992627e-002
3.909167e+003;3.996078e-002
3.911095e+003;3.947260e-002
3.913024e+003;3.874117e-002
3.914952e+003;3.863337e-002
3.916881e+003;3.953933e-002
3.918810e+003;4.019032e-002
3.920738e+003;4.027600e-002
3.922667e+003;4.063806e-002
3.924595e+003;4.103824e-002
3.926524e+003;4.087367e-002
3.928452e+003;4.082180e-002
3.930381e+003;4.050840e-002
3.932309e+003;4.029687e-002
3.934238e+003;4.021715e-002
3.936167e+003;4.035864e-002
3.938095e+003;4.015561e-002
3.940023e+003;3.955545e-002
3.941952e+003;3.984934e-002
3.943881e+003;4.029498e-002
3.945809e+003;4.010750e-002
3.947738e+003;4.020599e-002
3.949666e+003;4.034461e-002
3.951595e+003;4.034584e-002
3.953523e+003;4.017502e-002
3.955452e+003;4.015169e-002
3.957380e+003;3.973343e-002
3.959309e+003;3.962521e-002
3.961238e+003;4.005256e-002
3.963166e+003;4.039286e-002
3.965095e+003;4.069434e-002
3.967023e+003;4.073717e-002
3.968952e+003;4.108293e-002
3.970880e+003;4.093847e-002
3.972809e+003;4.004009e-002
3.974737e+003;3.951425e-002
3.976666e+003;3.996481e-002
3.978594e+003;4.040275e-002
3.980523e+003;4.001142e-002
3.982452e+003;3.967189e-002
3.984380e+003;4.025194e-002
3.986309e+003;4.084786e-002
3.988237e+003;4.046403e-002
3.990166e+003;4.054543e-002
3.992094e+003;4.022838e-002
3.994023e+003;4.029756e-002
3.995951e+003;4.120420e-002
3.997880e+003;4.102663e-002
3.999809e+003;4.088925e-002
4.001737e+003;0.000000e+000
