3.992094e+002;0.000000e+000
4.011380e+002;0.000000e+000
4.030665e+002;0.000000e+000
4.049951e+002;0.000000e+000
4.069236e+002;0.000000e+000
4.088522e+002;0.000000e+000
4.107807e+002;0.000000e+000
4.127093e+002;0.000000e+000
4.146378e+002;0.000000e+000
4.165664e+002;0.000000e+000
4.184949e+002;0.000000e+000
4.204235e+002;0.000000e+000
4.223520e+002;0.000000e+000
4.242806e+002;0.000000e+000
4.262091e+002;0.000000e+000
4.281377e+002;0.000000e+000
4.300662e+002;0.000000e+000
4.319948e+002;0.000000e+000
4.339233e+002;0.000000e+000
4.358519e+002;0.000000e+000
4.377804e+002;0.000000e+000
4.397090e+002;0.000000e+000
4.416375e+002;0.000000e+000
4.435660e+002;0.000000e+000
4.454946e+002;0.000000e+000
4.474232e+002;0.000000e+000
4.493517e+002;0.000000e+000
4.512802e+002;0.000000e+000
4.532088e+002;0.000000e+000
4.551373e+002;0.000000e+000
4.570659e+002;0.000000e+000
4.589944e+002;0.000000e+000
4.609230e+002;0.000000e+000
4.628515e+002;0.000000e+000
4.647801e+002;0.000000e+000
4.667086e+002;0.000000e+000
4.686372e+002;0.000000e+000
4.705657e+002;0.000000e+000
4.724943e+002;0.000000e+000
4.744228e+002;0.000000e+000
4.763513e+002;0.000000e+000
4.782799e+002;0.000000e+000
4.802085e+002;0.000000e+000
4.821370e+002;0.000000e+000
4.840656e+002;0.000000e+000
4.859941e+002;0.000000e+000
4.879226e+002;0.000000e+000
4.898512e+002;0.000000e+000
4.917798e+002;0.000000e+000
4.937083e+002;0.000000e+000
4.956368e+002;0.000000e+000
4.975654e+002;0.000000e+000
4.994939e+002;0.000000e+000
5.014225e+002;0.000000e+000
5.033510e+002;0.000000e+000
5.052796e+002;0.000000e+000
5.072081e+002;0.000000e+000
5.091367e+002;0.000000e+000
5.110652e+002;0.000000e+000
5.129938e+002;0.000000e+000
5.149223e+002;0.000000e+000
5.168509e+002;0.000000e+000
5.187794e+002;0.000000e+000
5.207079e+002;0.000000e+000
5.226365e+002;0.000000e+000
5.245651e+002;0.000000e+000
5.264936e+002;0.000000e+000
5.284222e+002;0.000000e+000
5.303507e+002;0.000000e+000
5.322792e+002;0.000000e+000
5.342078e+002;0.000000e+000
5.361364e+002;0.000000e+000
5.380649e+002;0.000000e+000
5.399935e+002;0.000000e+000
5.419220e+002;0.000000e+000
5.438505e+002;0.000000e+000
5.457791e+002;0.000000e+000
5.477076e+002;0.000000e+000
5.496362e+002;0.000000e+000
5.515648e+002;0.000000e+000
5.534933e+002;0.000000e+000
5.554218e+002;0.000000e+000
5.573504e+002;0.000000e+000
5.592789e+002;0.000000e+000
5.612075e+002;0.000000e+000
5.631360e+002;0.000000e+000
5.650646e+002;0.000000e+000
5.669931e+002;0.000000e+000
5.689217e+002;0.000000e+000
5.708502e+002;0.000000e+000
5.727787e+002;0.000000e+000
5.747073e+002;0.000000e+000
5.766359e+002;0.000000e+000
5.785644e+002;0.000000e+000
5.804930e+002;0.000000e+000
5.824215e+002;0.000000e+000
5.843500e+002;0.000000e+000
5.862786e+002;0.000000e+000
5.882072e+002;0.000000e+000
5.901357e+002;0.000000e+000
5.920643e+002;0.000000e+000
5.939928e+002;0.000000e+000
5.959213e+002;0.000000e+000
5.978499e+002;0.000000e+000
5.997784e+002;3.118983e-001
6.017070e+002;3.072690e-001
6.036355e+002;3.122786e-001
6.055641e+002;3.154522e-001
6.074926e+002;3.102838e-001
6.094211e+002;3.136220e-001
6.113497e+002;3.148144e-001
6.132783e+002;3.092480e-001
6.152068e+002;3.079488e-001
6.171354e+002;3.128489e-001
6.190639e+002;3.132901e-001
6.209924e+002;3.078800e-001
6.229210e+002;2.940705e-001
6.248495e+002;2.799147e-001
6.267781e+002;2.730528e-001
6.287067e+002;2.725363e-001
6.306352e+002;2.728544e-001
6.325637e+002;2.702056e-001
6.344923e+002;2.665625e-001
6.364208e+002;2.651359e-001
6.383494e+002;2.626877e-001
6.402780e+002;2.570236e-001
6.422065e+002;2.507597e-001
6.441350e+002;2.528154e-001
6.460636e+002;2.555441e-001
6.479921e+002;2.544785e-001
6.499207e+002;2.550929e-001
6.518492e+002;2.559840e-001
6.537778e+002;2.571813e-001
6.557063e+002;2.617089e-001
6.576349e+002;2.690629e-001
6.595634e+002;2.743247e-001
6.614919e+002;2.789041e-001
6.634205e+002;2.814211e-001
6.653491e+002;2.795904e-001
6.672776e+002;2.773416e-001
6.692062e+002;2.731274e-001
6.711347e+002;2.663374e-001
6.730632e+002;2.583058e-001
6.749918e+002;2.488450e-001
6.769203e+002;2.398101e-001
6.788489e+002;2.342623e-001
6.807775e+002;2.307658e-001
6.827060e+002;2.275603e-001
6.846345e+002;2.251232e-001
6.865631e+002;2.246277e-001
6.884916e+002;2.238561e-001
6.904202e+002;2.223468e-001
6.923488e+002;2.219166e-001
6.942773e+002;2.221952e-001
6.962058e+002;2.233828e-001
6.981344e+002;2.234752e-001
7.000629e+002;2.212542e-001
7.019915e+002;2.198437e-001
7.039200e+002;2.203629e-001
7.058486e+002;2.196931e-001
7.077771e+002;2.169159e-001
7.097057e+002;2.131892e-001
7.116342e+002;2.091927e-001
7.135627e+002;2.052338e-001
7.154913e+002;2.002012e-001
7.174199e+002;1.945199e-001
7.193484e+002;1.887370e-001
7.212770e+002;1.831818e-001
7.232055e+002;1.791152e-001
7.251340e+002;1.747516e-001
7.270626e+002;1.688736e-001
7.289911e+002;1.635800e-001
7.309197e+002;1.594858e-001
7.328483e+002;1.562934e-001
7.347768e+002;1.524496e-001
7.367053e+002;1.487655e-001
7.386339e+002;1.462891e-001
7.405624e+002;1.442748e-001
7.424910e+002;1.421846e-001
7.444196e+002;1.406346e-001
7.463481e+002;1.383419e-001
7.482766e+002;1.364959e-001
7.502052e+002;1.344523e-001
7.521337e+002;1.319214e-001
7.540623e+002;1.296598e-001
7.559908e+002;1.279422e-001
7.579194e+002;1.261385e-001
7.598479e+002;1.245498e-001
7.617765e+002;1.230406e-001
7.637050e+002;1.226603e-001
7.656335e+002;1.225032e-001
7.675621e+002;1.210009e-001
7.694907e+002;1.189364e-001
7.714192e+002;1.170883e-001
7.733478e+002;1.156157e-001
7.752763e+002;1.149390e-001
7.772048e+002;1.151653e-001
7.791334e+002;1.149179e-001
7.810620e+002;1.148056e-001
7.829905e+002;1.154347e-001
7.849191e+002;1.171501e-001
7.868476e+002;1.188940e-001
7.887761e+002;1.205982e-001
7.907047e+002;1.222789e-001
7.926332e+002;1.240781e-001
7.945618e+002;1.263028e-001
7.964903e+002;1.283486e-001
7.984189e+002;1.294350e-001
8.003474e+002;1.299872e-001
8.022759e+002;1.299218e-001
8.042045e+002;1.287441e-001
8.061331e+002;1.279405e-001
8.080616e+002;1.276135e-001
8.099902e+002;1.271591e-001
8.119187e+002;1.258909e-001
8.138472e+002;1.248894e-001
8.157758e+002;1.245071e-001
8.177043e+002;1.240827e-001
8.196329e+002;1.234700e-001
8.215615e+002;1.220804e-001
8.234900e+002;1.203292e-001
8.254185e+002;1.169847e-001
8.273471e+002;1.131861e-001
8.292756e+002;1.096323e-001
8.312042e+002;1.063691e-001
8.331328e+002;1.041129e-001
8.350613e+002;1.026667e-001
8.369898e+002;1.014196e-001
8.389184e+002;1.002645e-001
8.408469e+002;9.985390e-002
8.427755e+002;9.919797e-002
8.447040e+002;9.823815e-002
8.466326e+002;9.850282e-002
8.485611e+002;9.828177e-002
8.504897e+002;9.792863e-002
8.524182e+002;9.843075e-002
8.543467e+002;9.887620e-002
8.562753e+002;9.986204e-002
8.582039e+002;1.011820e-001
8.601324e+002;1.019754e-001
8.620610e+002;1.032989e-001
8.639895e+002;1.051420e-001
8.659180e+002;1.068850e-001
8.678466e+002;1.086383e-001
8.697751e+002;1.106499e-001
8.717037e+002;1.133444e-001
8.736323e+002;1.167256e-001
8.755608e+002;1.200816e-001
8.774893e+002;1.231902e-001
8.794179e+002;1.271074e-001
8.813464e+002;1.315316e-001
8.832750e+002;1.361181e-001
8.852036e+002;1.415753e-001
8.871321e+002;1.473014e-001
8.890606e+002;1.525864e-001
8.909892e+002;1.570508e-001
8.929177e+002;1.607389e-001
8.948463e+002;1.637942e-001
8.967748e+002;1.652411e-001
8.987034e+002;1.656647e-001
9.006319e+002;1.655244e-001
9.025605e+002;1.638509e-001
9.044890e+002;1.610040e-001
9.064175e+002;1.581754e-001
9.083461e+002;1.555844e-001
9.102747e+002;1.522643e-001
9.122032e+002;1.488616e-001
9.141318e+002;1.455427e-001
9.160603e+002;1.426739e-001
9.179888e+002;1.411473e-001
9.199174e+002;1.402865e-001
9.218459e+002;1.404467e-001
9.237745e+002;1.412598e-001
9.257031e+002;1.423934e-001
9.276316e+002;1.442046e-001
9.295601e+002;1.463631e-001
9.314887e+002;1.486331e-001
9.334172e+002;1.507404e-001
9.353458e+002;1.524710e-001
9.372744e+002;1.543469e-001
9.392029e+002;1.564965e-001
9.411314e+002;1.592168e-001
9.430600e+002;1.624877e-001
9.449885e+002;1.665000e-001
9.469171e+002;1.708435e-001
9.488456e+002;1.762130e-001
9.507742e+002;1.830350e-001
9.527027e+002;1.903840e-001
9.546313e+002;1.980191e-001
9.565598e+002;2.060905e-001
9.584883e+002;2.146057e-001
9.604169e+002;2.234707e-001
9.623455e+002;2.327340e-001
9.642740e+002;2.426360e-001
9.662026e+002;2.533010e-001
9.681311e+002;2.648985e-001
9.700596e+002;2.777954e-001
9.719882e+002;2.930049e-001
9.739167e+002;3.113147e-001
9.758453e+002;3.325042e-001
9.777739e+002;3.563699e-001
9.797024e+002;3.828534e-001
9.816309e+002;4.069929e-001
9.835595e+002;4.233132e-001
9.854880e+002;4.321872e-001
9.874166e+002;4.362159e-001
9.893452e+002;4.398504e-001
9.912737e+002;4.470683e-001
9.932022e+002;4.576254e-001
9.951307e+002;4.692464e-001
9.970593e+002;4.810834e-001
9.989879e+002;4.910441e-001
1.000916e+003;4.972897e-001
1.002845e+003;5.013623e-001
1.004773e+003;5.050083e-001
1.006702e+003;5.076532e-001
1.008631e+003;5.110009e-001
1.010559e+003;5.166386e-001
1.012488e+003;5.233418e-001
1.014416e+003;5.304464e-001
1.016345e+003;5.379621e-001
1.018273e+003;5.458217e-001
1.020202e+003;5.540662e-001
1.022130e+003;5.628877e-001
1.024059e+003;5.711753e-001
1.025988e+003;5.787758e-001
1.027916e+003;5.852225e-001
1.029845e+003;5.897441e-001
1.031773e+003;5.903906e-001
1.033702e+003;5.860759e-001
1.035630e+003;5.757307e-001
1.037559e+003;5.609485e-001
1.039487e+003;5.477801e-001
1.041416e+003;5.387715e-001
1.043344e+003;5.331564e-001
1.045273e+003;5.325252e-001
1.047202e+003;5.369920e-001
1.049130e+003;5.447033e-001
1.051059e+003;5.526859e-001
1.052987e+003;5.577675e-001
1.054916e+003;5.571712e-001
1.056844e+003;5.512242e-001
1.058773e+003;5.380199e-001
1.060701e+003;5.163486e-001
1.062630e+003;4.887814e-001
1.064558e+003;4.607374e-001
1.066487e+003;4.351017e-001
1.068416e+003;4.123835e-001
1.070344e+003;3.951799e-001
1.072273e+003;3.826268e-001
1.074201e+003;3.726254e-001
1.076130e+003;3.639187e-001
1.078058e+003;3.559195e-001
1.079987e+003;3.485706e-001
1.081915e+003;3.422315e-001
1.083844e+003;3.386751e-001
1.085773e+003;3.370541e-001
1.087701e+003;3.359637e-001
1.089630e+003;3.353185e-001
1.091558e+003;3.358653e-001
1.093487e+003;3.375960e-001
1.095415e+003;3.395674e-001
1.097344e+003;3.416989e-001
1.099272e+003;3.446447e-001
1.101201e+003;3.465090e-001
1.103129e+003;3.458079e-001
1.105058e+003;3.439458e-001
1.106987e+003;3.399618e-001
1.108915e+003;3.339898e-001
1.110844e+003;3.287215e-001
1.112772e+003;3.214920e-001
1.114701e+003;3.103509e-001
1.116629e+003;2.955731e-001
1.118558e+003;2.800784e-001
1.120486e+003;2.665760e-001
1.122415e+003;2.549084e-001
1.124344e+003;2.442806e-001
1.126272e+003;2.334432e-001
1.128201e+003;2.223660e-001
1.130129e+003;2.123747e-001
1.132058e+003;2.041443e-001
1.133986e+003;1.979834e-001
1.135915e+003;1.928511e-001
1.137843e+003;1.885816e-001
1.139772e+003;1.866580e-001
1.141700e+003;1.863536e-001
1.143629e+003;1.873128e-001
1.145557e+003;1.902372e-001
1.147486e+003;1.935767e-001
1.149415e+003;1.956190e-001
1.151343e+003;1.969063e-001
1.153272e+003;1.990734e-001
1.155200e+003;2.008670e-001
1.157129e+003;2.026716e-001
1.159057e+003;2.037200e-001
1.160986e+003;2.021931e-001
1.162914e+003;1.976102e-001
1.164843e+003;1.892918e-001
1.166771e+003;1.786902e-001
1.168700e+003;1.672867e-001
1.170629e+003;1.560923e-001
1.172557e+003;1.460743e-001
1.174486e+003;1.378230e-001
1.176414e+003;1.312844e-001
1.178343e+003;1.255298e-001
1.180271e+003;1.208069e-001
1.182200e+003;1.176612e-001
1.184128e+003;1.157591e-001
1.186057e+003;1.151701e-001
1.187986e+003;1.155341e-001
1.189914e+003;1.168858e-001
1.191843e+003;1.198861e-001
1.193771e+003;1.230679e-001
1.195700e+003;1.259168e-001
1.197628e+003;1.288248e-001
1.199557e+003;1.314705e-001
1.201485e+003;1.331405e-001
1.203414e+003;1.334921e-001
1.205343e+003;1.327060e-001
1.207271e+003;1.303739e-001
1.209200e+003;1.256148e-001
1.211128e+003;1.190777e-001
1.213057e+003;1.136296e-001
1.214985e+003;1.107595e-001
1.216914e+003;1.098351e-001
1.218842e+003;1.107777e-001
1.220771e+003;1.128189e-001
1.222699e+003;1.151129e-001
1.224628e+003;1.175975e-001
1.226557e+003;1.200461e-001
1.228485e+003;1.224866e-001
1.230414e+003;1.250734e-001
1.232342e+003;1.277634e-001
1.234271e+003;1.302344e-001
1.236199e+003;1.312872e-001
1.238128e+003;1.310881e-001
1.240056e+003;1.312042e-001
1.241985e+003;1.325315e-001
1.243913e+003;1.345984e-001
1.245842e+003;1.370126e-001
1.247771e+003;1.393763e-001
1.249699e+003;1.414204e-001
1.251628e+003;1.433944e-001
1.253556e+003;1.456688e-001
1.255485e+003;1.488187e-001
1.257413e+003;1.522163e-001
1.259342e+003;1.549466e-001
1.261270e+003;1.565805e-001
1.263199e+003;1.560452e-001
1.265127e+003;1.540548e-001
1.267056e+003;1.515552e-001
1.268985e+003;1.490332e-001
1.270913e+003;1.472715e-001
1.272842e+003;1.466957e-001
1.274770e+003;1.468590e-001
1.276699e+003;1.470525e-001
1.278627e+003;1.464646e-001
1.280556e+003;1.449039e-001
1.282484e+003;1.426726e-001
1.284413e+003;1.405618e-001
1.286342e+003;1.391837e-001
1.288270e+003;1.383462e-001
1.290199e+003;1.381456e-001
1.292127e+003;1.383886e-001
1.294056e+003;1.387766e-001
1.295984e+003;1.401490e-001
1.297913e+003;1.424721e-001
1.299841e+003;1.454114e-001
1.301770e+003;1.494534e-001
1.303698e+003;1.544237e-001
1.305627e+003;1.598905e-001
1.307556e+003;1.656556e-001
1.309484e+003;1.716918e-001
1.311413e+003;1.773252e-001
1.313341e+003;1.816231e-001
1.315270e+003;1.838839e-001
1.317198e+003;1.834224e-001
1.319127e+003;1.804077e-001
1.321055e+003;1.760592e-001
1.322984e+003;1.715660e-001
1.324912e+003;1.679479e-001
1.326841e+003;1.657135e-001
1.328770e+003;1.653087e-001
1.330698e+003;1.665267e-001
1.332627e+003;1.683180e-001
1.334555e+003;1.695860e-001
1.336484e+003;1.692886e-001
1.338412e+003;1.676339e-001
1.340341e+003;1.649914e-001
1.342269e+003;1.616020e-001
1.344198e+003;1.581999e-001
1.346126e+003;1.549108e-001
1.348055e+003;1.521572e-001
1.349984e+003;1.507671e-001
1.351912e+003;1.508638e-001
1.353841e+003;1.521173e-001
1.355769e+003;1.538852e-001
1.357698e+003;1.557015e-001
1.359626e+003;1.569143e-001
1.361555e+003;1.566077e-001
1.363483e+003;1.549141e-001
1.365412e+003;1.531500e-001
1.367341e+003;1.521683e-001
1.369269e+003;1.515780e-001
1.371198e+003;1.502513e-001
1.373126e+003;1.474324e-001
1.375055e+003;1.435875e-001
1.376983e+003;1.394026e-001
1.378912e+003;1.353002e-001
1.380840e+003;1.311608e-001
1.382769e+003;1.271892e-001
1.384698e+003;1.238373e-001
1.386626e+003;1.212374e-001
1.388555e+003;1.191591e-001
1.390483e+003;1.175508e-001
1.392412e+003;1.164261e-001
1.394340e+003;1.159735e-001
1.396269e+003;1.161981e-001
1.398197e+003;1.166892e-001
1.400126e+003;1.170777e-001
1.402054e+003;1.174503e-001
1.403983e+003;1.181312e-001
1.405911e+003;1.185962e-001
1.407840e+003;1.190084e-001
1.409769e+003;1.198431e-001
1.411697e+003;1.207490e-001
1.413626e+003;1.218162e-001
1.415554e+003;1.234838e-001
1.417483e+003;1.257720e-001
1.419411e+003;1.280859e-001
1.421340e+003;1.304573e-001
1.423268e+003;1.327632e-001
1.425197e+003;1.344638e-001
1.427125e+003;1.356552e-001
1.429054e+003;1.363042e-001
1.430983e+003;1.355751e-001
1.432911e+003;1.338219e-001
1.434840e+003;1.314404e-001
1.436768e+003;1.286424e-001
1.438697e+003;1.264324e-001
1.440625e+003;1.247222e-001
1.442554e+003;1.230997e-001
1.444482e+003;1.221522e-001
1.446411e+003;1.213911e-001
1.448340e+003;1.207500e-001
1.450268e+003;1.205425e-001
1.452197e+003;1.201796e-001
1.454125e+003;1.193675e-001
1.456054e+003;1.178758e-001
1.457982e+003;1.160465e-001
1.459911e+003;1.141412e-001
1.461839e+003;1.118049e-001
1.463768e+003;1.089943e-001
1.465697e+003;1.060763e-001
1.467625e+003;1.035559e-001
1.469554e+003;1.010043e-001
1.471482e+003;9.799622e-002
1.473411e+003;9.488136e-002
1.475339e+003;9.226286e-002
1.477268e+003;9.022997e-002
1.479196e+003;8.874661e-002
1.481125e+003;8.710550e-002
1.483053e+003;8.437399e-002
1.484982e+003;8.086929e-002
1.486911e+003;7.726272e-002
1.488839e+003;7.394906e-002
1.490768e+003;7.128651e-002
1.492696e+003;6.928121e-002
1.494625e+003;6.757087e-002
1.496553e+003;6.615212e-002
1.498482e+003;6.502999e-002
1.500410e+003;6.394672e-002
1.502339e+003;6.292215e-002
1.504267e+003;6.188925e-002
1.506196e+003;6.078828e-002
1.508125e+003;5.955402e-002
1.510053e+003;5.868187e-002
1.511982e+003;5.799350e-002
1.513910e+003;5.745002e-002
1.515839e+003;5.701999e-002
1.517767e+003;5.636190e-002
1.519696e+003;5.556568e-002
1.521624e+003;5.470393e-002
1.523553e+003;5.411617e-002
1.525481e+003;5.390166e-002
1.527410e+003;5.389968e-002
1.529339e+003;5.391655e-002
1.531267e+003;5.386802e-002
1.533196e+003;5.368812e-002
1.535124e+003;5.353259e-002
1.537053e+003;5.352145e-002
1.538981e+003;5.344609e-002
1.540910e+003;5.350148e-002
1.542838e+003;5.371504e-002
1.544767e+003;5.379015e-002
1.546695e+003;5.396274e-002
1.548624e+003;5.412481e-002
1.550553e+003;5.424260e-002
1.552481e+003;5.410319e-002
1.554410e+003;5.400176e-002
1.556338e+003;5.403253e-002
1.558267e+003;5.349855e-002
1.560195e+003;5.299024e-002
1.562124e+003;5.329075e-002
1.564052e+003;5.348679e-002
1.565981e+003;5.349781e-002
1.567910e+003;5.364208e-002
1.569838e+003;5.402667e-002
1.571767e+003;5.471276e-002
1.573695e+003;5.503685e-002
1.575624e+003;5.490463e-002
1.577552e+003;5.483902e-002
1.579481e+003;5.480932e-002
1.581409e+003;5.493569e-002
1.583338e+003;5.538685e-002
1.585266e+003;5.568269e-002
1.587195e+003;5.613617e-002
1.589124e+003;5.677863e-002
1.591052e+003;5.707013e-002
1.592981e+003;5.695146e-002
1.594909e+003;5.694595e-002
1.596838e+003;5.714945e-002
1.598766e+003;5.715641e-002
1.600695e+003;5.732523e-002
1.602623e+003;5.766875e-002
1.604552e+003;5.808106e-002
1.606480e+003;5.857883e-002
1.608409e+003;5.908234e-002
1.610338e+003;5.974488e-002
1.612266e+003;6.043931e-002
1.614195e+003;6.103905e-002
1.616123e+003;6.145716e-002
1.618052e+003;6.201623e-002
1.619980e+003;6.282120e-002
1.621909e+003;6.349955e-002
1.623837e+003;6.391490e-002
1.625766e+003;6.436796e-002
1.627694e+003;6.496592e-002
1.629623e+003;6.527503e-002
1.631552e+003;6.543810e-002
1.633480e+003;6.561264e-002
1.635409e+003;6.581767e-002
1.637337e+003;6.616547e-002
1.639266e+003;6.617361e-002
1.641194e+003;6.591523e-002
1.643123e+003;6.590030e-002
1.645051e+003;6.600791e-002
1.646980e+003;6.583676e-002
1.648909e+003;6.565476e-002
1.650837e+003;6.575973e-002
1.652766e+003;6.591994e-002
1.654694e+003;6.597223e-002
1.656623e+003;6.608444e-002
1.658551e+003;6.594662e-002
1.660480e+003;6.549627e-002
1.662408e+003;6.497943e-002
1.664337e+003;6.461646e-002
1.666266e+003;6.429307e-002
1.668194e+003;6.352591e-002
1.670123e+003;6.240591e-002
1.672051e+003;6.123557e-002
1.673980e+003;6.002400e-002
1.675908e+003;5.864190e-002
1.677837e+003;5.717750e-002
1.679765e+003;5.599623e-002
1.681694e+003;5.474073e-002
1.683622e+003;5.319299e-002
1.685551e+003;5.200898e-002
1.687479e+003;5.119272e-002
1.689408e+003;5.017485e-002
1.691337e+003;4.900477e-002
1.693265e+003;4.805440e-002
1.695194e+003;4.727411e-002
1.697122e+003;4.672605e-002
1.699051e+003;4.629209e-002
1.700979e+003;4.567319e-002
1.702908e+003;4.513818e-002
1.704836e+003;4.482852e-002
1.706765e+003;4.468325e-002
1.708693e+003;4.458859e-002
1.710622e+003;4.440724e-002
1.712551e+003;4.426971e-002
1.714479e+003;4.397347e-002
1.716408e+003;4.325258e-002
1.718336e+003;4.273315e-002
1.720265e+003;4.257279e-002
1.722193e+003;4.231364e-002
1.724122e+003;4.179651e-002
1.726050e+003;4.152779e-002
1.727979e+003;4.121163e-002
1.729908e+003;4.080935e-002
1.731836e+003;4.046494e-002
1.733765e+003;3.977548e-002
1.735693e+003;3.923288e-002
1.737622e+003;3.880783e-002
1.739550e+003;3.820283e-002
1.741479e+003;3.733062e-002
1.743407e+003;3.639989e-002
1.745336e+003;3.575606e-002
1.747265e+003;3.519467e-002
1.749193e+003;3.477014e-002
1.751122e+003;3.435459e-002
1.753050e+003;3.369585e-002
1.754979e+003;3.296346e-002
1.756907e+003;3.281771e-002
1.758836e+003;3.272306e-002
1.760764e+003;3.234277e-002
1.762693e+003;3.204509e-002
1.764621e+003;3.189305e-002
1.766550e+003;3.171530e-002
1.768479e+003;3.139227e-002
1.770407e+003;3.116291e-002
1.772336e+003;3.102534e-002
1.774264e+003;3.089209e-002
1.776193e+003;3.060127e-002
1.778121e+003;3.018980e-002
1.780050e+003;3.012512e-002
1.781978e+003;3.006909e-002
1.783907e+003;2.988469e-002
1.785835e+003;2.967763e-002
1.787764e+003;2.947560e-002
1.789693e+003;2.934087e-002
1.791621e+003;2.916078e-002
1.793550e+003;2.885211e-002
1.795478e+003;2.879850e-002
1.797407e+003;2.883660e-002
1.799335e+003;2.854596e-002
1.801264e+003;2.836171e-002
1.803192e+003;2.841693e-002
1.805121e+003;2.833738e-002
1.807049e+003;2.813105e-002
1.808978e+003;2.799709e-002
1.810907e+003;2.780015e-002
1.812835e+003;2.767674e-002
1.814764e+003;2.762791e-002
1.816692e+003;2.748005e-002
1.818621e+003;2.746099e-002
1.820549e+003;2.759857e-002
1.822478e+003;2.764076e-002
1.824406e+003;2.737159e-002
1.826335e+003;2.707078e-002
1.828264e+003;2.685283e-002
1.830192e+003;2.671426e-002
1.832121e+003;2.654016e-002
1.834049e+003;2.661321e-002
1.835978e+003;2.663182e-002
1.837906e+003;2.641074e-002
1.839835e+003;2.627854e-002
1.841763e+003;2.631698e-002
1.843692e+003;2.641873e-002
1.845620e+003;2.638440e-002
1.847549e+003;2.608568e-002
1.849478e+003;2.587490e-002
1.851406e+003;2.582064e-002
1.853335e+003;2.555531e-002
1.855263e+003;2.521512e-002
1.857192e+003;2.517948e-002
1.859120e+003;2.529937e-002
1.861049e+003;2.534499e-002
1.862977e+003;2.528890e-002
1.864906e+003;2.520866e-002
1.866834e+003;2.518556e-002
1.868763e+003;2.517790e-002
1.870692e+003;2.507019e-002
1.872620e+003;2.494443e-002
1.874549e+003;2.505267e-002
1.876477e+003;2.506731e-002
1.878406e+003;2.497191e-002
1.880334e+003;2.501965e-002
1.882263e+003;2.497584e-002
1.884191e+003;2.497612e-002
1.886120e+003;2.486510e-002
1.888048e+003;2.463057e-002
1.889977e+003;2.456879e-002
1.891906e+003;2.468486e-002
1.893834e+003;2.473919e-002
1.895763e+003;2.476150e-002
1.897691e+003;2.463587e-002
1.899620e+003;2.452374e-002
1.901548e+003;2.446358e-002
1.903477e+003;2.453674e-002
1.905405e+003;2.444230e-002
1.907334e+003;2.449954e-002
1.909262e+003;2.474312e-002
1.911191e+003;2.496981e-002
1.913120e+003;2.506861e-002
1.915048e+003;2.500680e-002
1.916977e+003;2.509785e-002
1.918905e+003;2.523868e-002
1.920834e+003;2.493829e-002
1.922762e+003;2.474403e-002
1.924691e+003;2.491166e-002
1.926619e+003;2.502066e-002
1.928548e+003;2.515989e-002
1.930477e+003;2.561593e-002
1.932405e+003;2.587448e-002
1.934334e+003;2.574887e-002
1.936262e+003;2.566240e-002
1.938191e+003;2.576203e-002
1.940119e+003;2.590311e-002
1.942048e+003;2.605912e-002
1.943976e+003;2.625721e-002
1.945905e+003;2.622556e-002
1.947833e+003;2.627970e-002
1.949762e+003;2.654921e-002
1.951691e+003;2.659722e-002
1.953619e+003;2.659599e-002
1.955548e+003;2.676987e-002
1.957476e+003;2.687271e-002
1.959405e+003;2.670725e-002
1.961333e+003;2.683598e-002
1.963262e+003;2.719860e-002
1.965190e+003;2.723688e-002
1.967119e+003;2.718065e-002
1.969047e+003;2.708944e-002
1.970976e+003;2.714298e-002
1.972905e+003;2.722153e-002
1.974833e+003;2.708581e-002
1.976762e+003;2.719575e-002
1.978690e+003;2.748803e-002
1.980619e+003;2.754889e-002
1.982547e+003;2.751768e-002
1.984476e+003;2.777161e-002
1.986404e+003;2.789105e-002
1.988333e+003;2.778249e-002
1.990261e+003;2.780955e-002
1.992190e+003;2.794090e-002
1.994119e+003;2.805643e-002
1.996047e+003;2.828889e-002
1.997976e+003;2.834491e-002
1.999904e+003;2.824380e-002
2.001833e+003;2.827715e-002
2.003761e+003;2.835853e-002
2.005690e+003;2.848538e-002
2.007618e+003;2.867542e-002
2.009547e+003;2.888508e-002
2.011476e+003;2.887215e-002
2.013404e+003;2.882258e-002
2.015333e+003;2.915430e-002
2.017261e+003;2.947759e-002
2.019190e+003;2.971538e-002
2.021118e+003;2.991823e-002
2.023047e+003;2.988373e-002
2.024975e+003;2.986574e-002
2.026904e+003;3.009838e-002
2.028833e+003;3.035958e-002
2.030761e+003;3.067036e-002
2.032690e+003;3.090354e-002
2.034618e+003;3.104919e-002
2.036547e+003;3.114404e-002
2.038475e+003;3.126232e-002
2.040404e+003;3.128927e-002
2.042332e+003;3.150943e-002
2.044261e+003;3.150889e-002
2.046189e+003;3.125121e-002
2.048118e+003;3.133934e-002
2.050047e+003;3.151709e-002
2.051975e+003;3.151616e-002
2.053904e+003;3.139027e-002
2.055832e+003;3.135512e-002
2.057761e+003;3.152603e-002
2.059689e+003;3.167071e-002
2.061618e+003;3.150070e-002
2.063546e+003;3.127499e-002
2.065475e+003;3.129116e-002
2.067404e+003;3.117138e-002
2.069332e+003;3.105456e-002
2.071260e+003;3.124113e-002
2.073189e+003;3.127300e-002
2.075118e+003;3.112069e-002
2.077046e+003;3.106666e-002
2.078975e+003;3.099139e-002
2.080903e+003;3.086018e-002
2.082832e+003;3.082229e-002
2.084760e+003;3.066716e-002
2.086689e+003;3.051631e-002
2.088617e+003;3.078139e-002
2.090546e+003;3.117263e-002
2.092475e+003;3.126417e-002
2.094403e+003;3.118619e-002
2.096332e+003;3.118961e-002
2.098260e+003;3.117138e-002
2.100189e+003;3.111628e-002
2.102117e+003;3.126620e-002
2.104046e+003;3.154648e-002
2.105974e+003;3.176759e-002
2.107903e+003;3.180424e-002
2.109832e+003;3.183504e-002
2.111760e+003;3.195086e-002
2.113688e+003;3.192301e-002
2.115617e+003;3.192265e-002
2.117546e+003;3.218241e-002
2.119474e+003;3.222095e-002
2.121403e+003;3.231703e-002
2.123331e+003;3.278641e-002
2.125260e+003;3.288994e-002
2.127188e+003;3.261896e-002
2.129117e+003;3.258085e-002
2.131045e+003;3.266236e-002
2.132974e+003;3.283983e-002
2.134903e+003;3.302316e-002
2.136831e+003;3.297833e-002
2.138760e+003;3.284130e-002
2.140688e+003;3.268740e-002
2.142617e+003;3.246865e-002
2.144545e+003;3.214188e-002
2.146474e+003;3.197112e-002
2.148402e+003;3.208077e-002
2.150331e+003;3.195161e-002
2.152260e+003;3.185604e-002
2.154188e+003;3.185290e-002
2.156117e+003;3.174160e-002
2.158045e+003;3.142372e-002
2.159974e+003;3.125804e-002
2.161902e+003;3.120253e-002
2.163831e+003;3.102990e-002
2.165759e+003;3.106559e-002
2.167688e+003;3.076485e-002
2.169616e+003;3.032167e-002
2.171545e+003;3.006156e-002
2.173474e+003;2.978376e-002
2.175402e+003;2.943762e-002
2.177331e+003;2.922716e-002
2.179259e+003;2.890534e-002
2.181188e+003;2.858488e-002
2.183116e+003;2.831336e-002
2.185045e+003;2.803724e-002
2.186973e+003;2.805258e-002
2.188902e+003;2.813954e-002
2.190831e+003;2.793582e-002
2.192759e+003;2.788402e-002
2.194688e+003;2.776695e-002
2.196616e+003;2.756923e-002
2.198545e+003;2.749089e-002
2.200473e+003;2.747363e-002
2.202402e+003;2.714651e-002
2.204330e+003;2.697220e-002
2.206259e+003;2.719374e-002
2.208188e+003;2.695883e-002
2.210116e+003;2.675344e-002
2.212044e+003;2.698277e-002
2.213973e+003;2.716375e-002
2.215902e+003;2.706638e-002
2.217830e+003;2.705738e-002
2.219759e+003;2.720506e-002
2.221687e+003;2.729940e-002
2.223616e+003;2.725131e-002
2.225544e+003;2.703214e-002
2.227473e+003;2.699610e-002
2.229401e+003;2.711554e-002
2.231330e+003;2.710076e-002
2.233259e+003;2.684987e-002
2.235187e+003;2.674594e-002
2.237116e+003;2.681565e-002
2.239044e+003;2.687609e-002
2.240973e+003;2.693983e-002
2.242901e+003;2.698947e-002
2.244830e+003;2.697064e-002
2.246758e+003;2.677163e-002
2.248687e+003;2.689876e-002
2.250615e+003;2.694413e-002
2.252544e+003;2.660349e-002
2.254473e+003;2.667578e-002
2.256401e+003;2.693243e-002
2.258330e+003;2.674513e-002
2.260258e+003;2.619846e-002
2.262187e+003;2.588658e-002
2.264115e+003;2.594373e-002
2.266044e+003;2.604497e-002
2.267972e+003;2.597103e-002
2.269901e+003;2.572866e-002
2.271830e+003;2.568950e-002
2.273758e+003;2.554736e-002
2.275687e+003;2.532792e-002
2.277615e+003;2.502235e-002
2.279544e+003;2.489868e-002
2.281472e+003;2.489282e-002
2.283401e+003;2.487952e-002
2.285329e+003;2.505432e-002
2.287258e+003;2.516400e-002
2.289187e+003;2.519524e-002
2.291115e+003;2.518587e-002
2.293043e+003;2.535251e-002
2.294972e+003;2.537777e-002
2.296901e+003;2.534482e-002
2.298829e+003;2.523299e-002
2.300758e+003;2.496016e-002
2.302686e+003;2.480405e-002
2.304615e+003;2.480058e-002
2.306543e+003;2.487913e-002
2.308472e+003;2.494731e-002
2.310400e+003;2.490952e-002
2.312329e+003;2.508848e-002
2.314258e+003;2.528771e-002
2.316186e+003;2.556936e-002
2.318115e+003;2.590789e-002
2.320043e+003;2.582229e-002
2.321972e+003;2.569235e-002
2.323900e+003;2.585668e-002
2.325829e+003;2.582648e-002
2.327757e+003;2.593121e-002
2.329686e+003;2.628720e-002
2.331615e+003;2.628913e-002
2.333543e+003;2.612167e-002
2.335472e+003;2.613104e-002
2.337400e+003;2.644454e-002
2.339329e+003;2.677180e-002
2.341257e+003;2.692019e-002
2.343186e+003;2.696765e-002
2.345114e+003;2.718467e-002
2.347043e+003;2.782622e-002
2.348971e+003;2.794741e-002
2.350900e+003;2.772891e-002
2.352829e+003;2.759585e-002
2.354757e+003;2.778100e-002
2.356686e+003;2.804169e-002
2.358614e+003;2.822036e-002
2.360543e+003;2.824299e-002
2.362471e+003;2.817729e-002
2.364400e+003;2.855951e-002
2.366328e+003;2.899820e-002
2.368257e+003;2.912971e-002
2.370186e+003;2.917329e-002
2.372114e+003;2.945836e-002
2.374042e+003;2.952674e-002
2.375971e+003;2.924290e-002
2.377900e+003;2.921288e-002
2.379828e+003;2.948106e-002
2.381757e+003;2.986180e-002
2.383685e+003;3.007030e-002
2.385614e+003;3.030401e-002
2.387542e+003;3.049527e-002
2.389471e+003;3.035524e-002
2.391399e+003;3.029342e-002
2.393328e+003;3.072729e-002
2.395257e+003;3.107296e-002
2.397185e+003;3.110222e-002
2.399114e+003;3.094812e-002
2.401042e+003;3.079600e-002
2.402971e+003;3.080251e-002
2.404899e+003;3.082845e-002
2.406828e+003;3.101655e-002
2.408756e+003;3.155970e-002
2.410685e+003;3.219005e-002
2.412614e+003;3.240477e-002
2.414542e+003;3.246176e-002
2.416471e+003;3.274624e-002
2.418399e+003;3.286760e-002
2.420328e+003;3.293329e-002
2.422256e+003;3.335850e-002
2.424185e+003;3.364129e-002
2.426113e+003;3.393127e-002
2.428042e+003;3.435269e-002
2.429970e+003;3.449204e-002
2.431899e+003;3.452662e-002
2.433828e+003;3.487220e-002
2.435756e+003;3.510033e-002
2.437685e+003;3.527527e-002
2.439613e+003;3.557003e-002
2.441542e+003;3.574959e-002
2.443470e+003;3.582849e-002
2.445399e+003;3.603005e-002
2.447327e+003;3.639546e-002
2.449256e+003;3.657554e-002
2.451185e+003;3.663412e-002
2.453113e+003;3.682180e-002
2.455042e+003;3.707863e-002
2.456970e+003;3.731752e-002
2.458899e+003;3.748436e-002
2.460827e+003;3.772146e-002
2.462756e+003;3.796110e-002
2.464684e+003;3.780723e-002
2.466613e+003;3.786488e-002
2.468542e+003;3.826611e-002
2.470470e+003;3.851058e-002
2.472398e+003;3.864884e-002
2.474327e+003;3.870215e-002
2.476256e+003;3.909886e-002
2.478184e+003;3.965959e-002
2.480113e+003;4.002156e-002
2.482041e+003;4.005012e-002
2.483970e+003;4.023358e-002
2.485898e+003;4.033904e-002
2.487827e+003;4.035777e-002
2.489755e+003;4.062277e-002
2.491684e+003;4.083141e-002
2.493613e+003;4.099353e-002
2.495541e+003;4.124351e-002
2.497470e+003;4.149557e-002
2.499398e+003;4.157311e-002
2.501327e+003;4.149527e-002
2.503255e+003;4.175703e-002
2.505184e+003;4.196041e-002
2.507112e+003;4.216596e-002
2.509041e+003;4.248560e-002
2.510969e+003;4.298977e-002
2.512898e+003;4.336965e-002
2.514827e+003;4.352020e-002
2.516755e+003;4.389736e-002
2.518684e+003;4.426311e-002
2.520612e+003;4.425423e-002
2.522541e+003;4.442046e-002
2.524469e+003;4.473614e-002
2.526398e+003;4.471407e-002
2.528326e+003;4.467007e-002
2.530255e+003;4.509388e-002
2.532184e+003;4.530427e-002
2.534112e+003;4.500218e-002
2.536041e+003;4.488951e-002
2.537969e+003;4.480575e-002
2.539898e+003;4.478867e-002
2.541826e+003;4.512458e-002
2.543755e+003;4.552495e-002
2.545683e+003;4.574648e-002
2.547612e+003;4.587635e-002
2.549541e+003;4.595317e-002
2.551469e+003;4.609920e-002
2.553397e+003;4.603259e-002
2.555326e+003;4.592555e-002
2.557255e+003;4.615034e-002
2.559183e+003;4.613899e-002
2.561112e+003;4.594691e-002
2.563040e+003;4.601815e-002
2.564969e+003;4.643952e-002
2.566897e+003;4.680723e-002
2.568826e+003;4.682299e-002
2.570754e+003;4.675719e-002
2.572683e+003;4.665189e-002
2.574612e+003;4.662529e-002
2.576540e+003;4.672136e-002
2.578469e+003;4.688610e-002
2.580397e+003;4.730817e-002
2.582326e+003;4.766249e-002
2.584254e+003;4.747258e-002
2.586183e+003;4.730510e-002
2.588111e+003;4.765971e-002
2.590040e+003;4.790724e-002
2.591969e+003;4.811340e-002
2.593897e+003;4.863542e-002
2.595826e+003;4.879915e-002
2.597754e+003;4.841404e-002
2.599683e+003;4.854044e-002
2.601611e+003;4.890586e-002
2.603540e+003;4.914252e-002
2.605468e+003;4.947557e-002
2.607397e+003;4.959304e-002
2.609325e+003;4.960180e-002
2.611254e+003;4.982866e-002
2.613183e+003;5.013235e-002
2.615111e+003;5.047513e-002
2.617040e+003;5.072300e-002
2.618968e+003;5.089046e-002
2.620897e+003;5.114546e-002
2.622825e+003;5.149043e-002
2.624754e+003;5.181984e-002
2.626682e+003;5.194829e-002
2.628611e+003;5.207942e-002
2.630540e+003;5.245467e-002
2.632468e+003;5.254646e-002
2.634396e+003;5.276083e-002
2.636325e+003;5.315850e-002
2.638254e+003;5.334957e-002
2.640182e+003;5.334327e-002
2.642111e+003;5.342263e-002
2.644039e+003;5.400258e-002
2.645968e+003;5.459496e-002
2.647896e+003;5.465542e-002
2.649825e+003;5.471994e-002
2.651753e+003;5.506547e-002
2.653682e+003;5.536708e-002
2.655611e+003;5.533434e-002
2.657539e+003;5.550091e-002
2.659468e+003;5.597968e-002
2.661396e+003;5.593106e-002
2.663325e+003;5.604222e-002
2.665253e+003;5.664708e-002
2.667182e+003;5.698482e-002
2.669110e+003;5.707006e-002
2.671039e+003;5.733779e-002
2.672968e+003;5.770323e-002
2.674896e+003;5.760848e-002
2.676825e+003;5.767738e-002
2.678753e+003;5.796635e-002
2.680682e+003;5.815019e-002
2.682610e+003;5.836302e-002
2.684539e+003;5.876991e-002
2.686467e+003;5.937046e-002
2.688396e+003;6.012252e-002
2.690324e+003;6.062462e-002
2.692253e+003;6.068188e-002
2.694182e+003;6.067072e-002
2.696110e+003;6.094361e-002
2.698039e+003;6.100798e-002
2.699967e+003;6.116903e-002
2.701896e+003;6.170726e-002
2.703824e+003;6.231112e-002
2.705753e+003;6.251896e-002
2.707681e+003;6.268036e-002
2.709610e+003;6.337006e-002
2.711539e+003;6.404498e-002
2.713467e+003;6.417728e-002
2.715396e+003;6.395448e-002
2.717324e+003;6.406690e-002
2.719253e+003;6.435516e-002
2.721181e+003;6.458502e-002
2.723110e+003;6.498870e-002
2.725038e+003;6.544619e-002
2.726967e+003;6.557445e-002
2.728896e+003;6.552798e-002
2.730824e+003;6.547504e-002
2.732752e+003;6.588611e-002
2.734681e+003;6.639478e-002
2.736610e+003;6.648690e-002
2.738538e+003;6.627218e-002
2.740467e+003;6.650130e-002
2.742395e+003;6.681448e-002
2.744324e+003;6.680838e-002
2.746252e+003;6.696700e-002
2.748181e+003;6.710643e-002
2.750109e+003;6.702098e-002
2.752038e+003;6.721626e-002
2.753967e+003;6.727379e-002
2.755895e+003;6.694319e-002
2.757824e+003;6.710163e-002
2.759752e+003;6.781758e-002
2.761681e+003;6.820943e-002
2.763609e+003;6.822909e-002
2.765538e+003;6.854585e-002
2.767466e+003;6.883080e-002
2.769395e+003;6.905697e-002
2.771323e+003;6.916268e-002
2.773252e+003;6.924926e-002
2.775181e+003;6.976775e-002
2.777109e+003;7.025029e-002
2.779038e+003;7.054693e-002
2.780966e+003;7.079314e-002
2.782895e+003;7.081842e-002
2.784823e+003;7.140584e-002
2.786752e+003;7.241190e-002
2.788680e+003;7.306919e-002
2.790609e+003;7.296123e-002
2.792538e+003;7.305621e-002
2.794466e+003;7.340786e-002
2.796395e+003;7.374730e-002
2.798323e+003;7.413444e-002
2.800252e+003;7.457028e-002
2.802180e+003;7.535103e-002
2.804109e+003;7.588007e-002
2.806037e+003;7.644289e-002
2.807966e+003;7.730421e-002
2.809895e+003;7.809442e-002
2.811823e+003;7.880983e-002
2.813751e+003;7.966734e-002
2.815680e+003;8.052181e-002
2.817609e+003;8.121842e-002
2.819537e+003;8.169574e-002
2.821466e+003;8.245436e-002
2.823394e+003;8.347674e-002
2.825323e+003;8.427135e-002
2.827251e+003;8.518189e-002
2.829180e+003;8.607642e-002
2.831108e+003;8.713947e-002
2.833037e+003;8.817799e-002
2.834966e+003;8.903872e-002
2.836894e+003;9.045729e-002
2.838823e+003;9.222618e-002
2.840751e+003;9.386723e-002
2.842680e+003;9.556470e-002
2.844608e+003;9.761887e-002
2.846537e+003;9.964571e-002
2.848465e+003;1.018641e-001
2.850394e+003;1.044345e-001
2.852323e+003;1.065768e-001
2.854251e+003;1.083353e-001
2.856180e+003;1.096141e-001
2.858108e+003;1.107096e-001
2.860037e+003;1.118201e-001
2.861965e+003;1.129886e-001
2.863894e+003;1.145936e-001
2.865822e+003;1.160104e-001
2.867751e+003;1.171487e-001
2.869679e+003;1.178441e-001
2.871608e+003;1.181328e-001
2.873536e+003;1.187176e-001
2.875465e+003;1.195830e-001
2.877394e+003;1.201515e-001
2.879322e+003;1.205420e-001
2.881251e+003;1.213579e-001
2.883179e+003;1.224579e-001
2.885108e+003;1.233846e-001
2.887036e+003;1.237127e-001
2.888965e+003;1.240434e-001
2.890893e+003;1.246865e-001
2.892822e+003;1.254057e-001
2.894750e+003;1.261022e-001
2.896679e+003;1.266117e-001
2.898608e+003;1.268492e-001
2.900536e+003;1.267652e-001
2.902465e+003;1.263260e-001
2.904393e+003;1.259401e-001
2.906322e+003;1.253968e-001
2.908250e+003;1.248306e-001
2.910179e+003;1.238663e-001
2.912107e+003;1.224674e-001
2.914036e+003;1.206566e-001
2.915965e+003;1.188839e-001
2.917893e+003;1.170225e-001
2.919822e+003;1.152617e-001
2.921750e+003;1.136905e-001
2.923679e+003;1.119255e-001
2.925607e+003;1.103065e-001
2.927536e+003;1.092656e-001
2.929464e+003;1.079154e-001
2.931393e+003;1.059319e-001
2.933322e+003;1.042209e-001
2.935250e+003;1.028011e-001
2.937178e+003;1.016767e-001
2.939107e+003;1.010718e-001
2.941036e+003;1.000260e-001
2.942964e+003;9.871825e-002
2.944893e+003;9.784997e-002
2.946821e+003;9.716792e-002
2.948750e+003;9.603169e-002
2.950678e+003;9.484785e-002
2.952607e+003;9.335844e-002
2.954535e+003;9.169979e-002
2.956464e+003;9.020302e-002
2.958393e+003;8.902030e-002
2.960321e+003;8.781917e-002
2.962250e+003;8.657367e-002
2.964178e+003;8.528523e-002
2.966107e+003;8.409365e-002
2.968035e+003;8.295719e-002
2.969964e+003;8.150794e-002
2.971892e+003;8.000275e-002
2.973821e+003;7.872212e-002
2.975750e+003;7.713345e-002
2.977678e+003;7.511624e-002
2.979607e+003;7.357880e-002
2.981535e+003;7.273357e-002
2.983464e+003;7.211610e-002
2.985392e+003;7.129084e-002
2.987321e+003;7.027167e-002
2.989249e+003;6.929034e-002
2.991178e+003;6.862558e-002
2.993106e+003;6.856156e-002
2.995035e+003;6.818198e-002
2.996964e+003;6.780034e-002
2.998892e+003;6.747650e-002
3.000821e+003;6.704270e-002
3.002749e+003;6.699394e-002
3.004678e+003;6.701630e-002
3.006606e+003;6.690979e-002
3.008535e+003;6.693940e-002
3.010463e+003;6.702518e-002
3.012392e+003;6.703451e-002
3.014321e+003;6.737995e-002
3.016249e+003;6.780813e-002
3.018177e+003;6.808973e-002
3.020106e+003;6.850154e-002
3.022035e+003;6.858302e-002
3.023963e+003;6.889079e-002
3.025892e+003;6.961191e-002
3.027820e+003;7.017489e-002
3.029749e+003;7.019607e-002
3.031677e+003;7.016059e-002
3.033606e+003;7.047241e-002
3.035534e+003;7.078043e-002
3.037463e+003;7.140174e-002
3.039392e+003;7.184912e-002
3.041320e+003;7.211492e-002
3.043249e+003;7.243919e-002
3.045177e+003;7.322858e-002
3.047106e+003;7.411259e-002
3.049034e+003;7.454030e-002
3.050963e+003;7.460616e-002
3.052891e+003;7.488075e-002
3.054820e+003;7.571014e-002
3.056749e+003;7.623282e-002
3.058677e+003;7.677807e-002
3.060606e+003;7.712178e-002
3.062534e+003;7.718205e-002
3.064463e+003;7.744560e-002
3.066391e+003;7.791788e-002
3.068320e+003;7.877602e-002
3.070248e+003;7.930148e-002
3.072177e+003;7.948499e-002
3.074105e+003;8.010753e-002
3.076034e+003;8.117983e-002
3.077963e+003;8.180057e-002
3.079891e+003;8.210965e-002
3.081820e+003;8.227657e-002
3.083748e+003;8.262870e-002
3.085677e+003;8.353854e-002
3.087605e+003;8.391245e-002
3.089534e+003;8.411875e-002
3.091462e+003;8.459065e-002
3.093391e+003;8.542163e-002
3.095320e+003;8.614744e-002
3.097248e+003;8.629526e-002
3.099177e+003;8.672883e-002
3.101105e+003;8.780250e-002
3.103034e+003;8.843619e-002
3.104962e+003;8.870122e-002
3.106891e+003;8.907744e-002
3.108819e+003;8.975688e-002
3.110748e+003;9.072302e-002
3.112677e+003;9.134472e-002
3.114605e+003;9.175447e-002
3.116533e+003;9.206441e-002
3.118462e+003;9.251818e-002
3.120391e+003;9.313986e-002
3.122319e+003;9.385908e-002
3.124248e+003;9.513625e-002
3.126176e+003;9.619491e-002
3.128105e+003;9.674735e-002
3.130033e+003;9.749999e-002
3.131962e+003;9.803513e-002
3.133890e+003;9.832960e-002
3.135819e+003;9.886722e-002
3.137748e+003;9.987813e-002
3.139676e+003;1.010414e-001
3.141605e+003;1.015640e-001
3.143533e+003;1.020276e-001
3.145462e+003;1.029740e-001
3.147390e+003;1.036658e-001
3.149319e+003;1.041837e-001
3.151247e+003;1.048851e-001
3.153176e+003;1.053811e-001
3.155104e+003;1.060889e-001
3.157033e+003;1.074312e-001
3.158962e+003;1.085572e-001
3.160890e+003;1.088227e-001
3.162819e+003;1.092072e-001
3.164747e+003;1.099104e-001
3.166676e+003;1.107051e-001
3.168604e+003;1.116764e-001
3.170533e+003;1.129585e-001
3.172461e+003;1.135980e-001
3.174390e+003;1.139143e-001
3.176319e+003;1.148034e-001
3.178247e+003;1.162430e-001
3.180176e+003;1.174409e-001
3.182104e+003;1.181492e-001
3.184033e+003;1.188538e-001
3.185961e+003;1.196941e-001
3.187890e+003;1.206987e-001
3.189818e+003;1.219580e-001
3.191747e+003;1.231074e-001
3.193676e+003;1.236405e-001
3.195604e+003;1.241821e-001
3.197532e+003;1.253378e-001
3.199461e+003;1.265471e-001
3.201390e+003;1.275634e-001
3.203318e+003;1.286506e-001
3.205247e+003;1.294927e-001
3.207175e+003;1.306735e-001
3.209104e+003;1.319168e-001
3.211032e+003;1.329457e-001
3.212961e+003;1.335106e-001
3.214889e+003;1.346940e-001
3.216818e+003;1.364396e-001
3.218747e+003;1.374101e-001
3.220675e+003;1.384919e-001
3.222604e+003;1.402111e-001
3.224532e+003;1.417766e-001
3.226461e+003;1.429757e-001
3.228389e+003;1.444701e-001
3.230318e+003;1.463309e-001
3.232246e+003;1.473230e-001
3.234175e+003;1.478281e-001
3.236104e+003;1.489244e-001
3.238032e+003;1.505609e-001
3.239961e+003;1.523874e-001
3.241889e+003;1.542496e-001
3.243818e+003;1.562632e-001
3.245746e+003;1.581807e-001
3.247675e+003;1.598041e-001
3.249603e+003;1.613995e-001
3.251532e+003;1.633545e-001
3.253460e+003;1.650799e-001
3.255389e+003;1.670156e-001
3.257318e+003;1.690688e-001
3.259246e+003;1.705010e-001
3.261175e+003;1.716894e-001
3.263103e+003;1.726059e-001
3.265032e+003;1.738396e-001
3.266960e+003;1.754740e-001
3.268889e+003;1.767960e-001
3.270817e+003;1.778320e-001
3.272746e+003;1.790244e-001
3.274675e+003;1.797761e-001
3.276603e+003;1.800140e-001
3.278531e+003;1.807913e-001
3.280460e+003;1.813051e-001
3.282389e+003;1.815805e-001
3.284317e+003;1.823541e-001
3.286246e+003;1.826829e-001
3.288174e+003;1.830339e-001
3.290103e+003;1.839437e-001
3.292031e+003;1.848698e-001
3.293960e+003;1.845707e-001
3.295888e+003;1.845356e-001
3.297817e+003;1.848262e-001
3.299746e+003;1.843333e-001
3.301674e+003;1.844653e-001
3.303603e+003;1.852435e-001
3.305531e+003;1.855554e-001
3.307460e+003;1.853031e-001
3.309388e+003;1.858629e-001
3.311317e+003;1.869198e-001
3.313245e+003;1.878396e-001
3.315174e+003;1.892202e-001
3.317103e+003;1.904397e-001
3.319031e+003;1.902194e-001
3.320960e+003;1.895210e-001
3.322888e+003;1.899609e-001
3.324817e+003;1.911661e-001
3.326745e+003;1.918882e-001
3.328674e+003;1.921107e-001
3.330602e+003;1.923109e-001
3.332531e+003;1.921766e-001
3.334459e+003;1.911147e-001
3.336388e+003;1.898544e-001
3.338317e+003;1.891343e-001
3.340245e+003;1.880656e-001
3.342174e+003;1.867997e-001
3.344102e+003;1.853048e-001
3.346031e+003;1.836960e-001
3.347959e+003;1.823552e-001
3.349888e+003;1.812067e-001
3.351816e+003;1.804153e-001
3.353745e+003;1.789452e-001
3.355674e+003;1.775395e-001
3.357602e+003;1.763865e-001
3.359531e+003;1.748808e-001
3.361459e+003;1.735945e-001
3.363388e+003;1.719759e-001
3.365316e+003;1.708383e-001
3.367245e+003;1.698414e-001
3.369173e+003;1.688179e-001
3.371102e+003;1.682556e-001
3.373031e+003;1.673608e-001
3.374959e+003;1.653213e-001
3.376887e+003;1.644410e-001
3.378816e+003;1.649035e-001
3.380745e+003;1.643108e-001
3.382673e+003;1.628736e-001
3.384602e+003;1.617897e-001
3.386530e+003;1.606289e-001
3.388459e+003;1.597311e-001
3.390387e+003;1.589110e-001
3.392316e+003;1.582453e-001
3.394244e+003;1.576638e-001
3.396173e+003;1.575298e-001
3.398102e+003;1.572072e-001
3.400030e+003;1.564774e-001
3.401959e+003;1.557374e-001
3.403887e+003;1.546505e-001
3.405816e+003;1.530926e-001
3.407744e+003;1.516450e-001
3.409673e+003;1.507439e-001
3.411601e+003;1.491979e-001
3.413530e+003;1.478337e-001
3.415458e+003;1.466128e-001
3.417387e+003;1.453286e-001
3.419316e+003;1.440445e-001
3.421244e+003;1.422013e-001
3.423173e+003;1.415274e-001
3.425101e+003;1.411683e-001
3.427030e+003;1.396202e-001
3.428958e+003;1.382034e-001
3.430887e+003;1.373457e-001
3.432815e+003;1.358193e-001
3.434744e+003;1.340067e-001
3.436673e+003;1.331620e-001
3.438601e+003;1.319106e-001
3.440530e+003;1.299640e-001
3.442458e+003;1.283437e-001
3.444387e+003;1.271870e-001
3.446315e+003;1.263268e-001
3.448244e+003;1.254075e-001
3.450172e+003;1.246655e-001
3.452101e+003;1.231471e-001
3.454030e+003;1.210401e-001
3.455958e+003;1.190499e-001
3.457886e+003;1.179606e-001
3.459815e+003;1.172428e-001
3.461744e+003;1.157110e-001
3.463672e+003;1.146811e-001
3.465601e+003;1.137901e-001
3.467529e+003;1.123932e-001
3.469458e+003;1.105698e-001
3.471386e+003;1.088373e-001
3.473315e+003;1.074686e-001
3.475243e+003;1.060027e-001
3.477172e+003;1.047588e-001
3.479101e+003;1.037264e-001
3.481029e+003;1.025857e-001
3.482958e+003;1.016707e-001
3.484886e+003;1.008337e-001
3.486815e+003;9.939954e-002
3.488743e+003;9.778692e-002
3.490672e+003;9.622972e-002
3.492600e+003;9.481306e-002
3.494529e+003;9.405268e-002
3.496458e+003;9.358604e-002
3.498386e+003;9.272524e-002
3.500315e+003;9.085142e-002
3.502243e+003;8.896787e-002
3.504172e+003;8.788650e-002
3.506100e+003;8.683829e-002
3.508029e+003;8.547241e-002
3.509957e+003;8.419689e-002
3.511886e+003;8.318185e-002
3.513814e+003;8.184117e-002
3.515743e+003;8.095416e-002
3.517672e+003;8.047982e-002
3.519600e+003;7.934050e-002
3.521529e+003;7.768424e-002
3.523457e+003;7.623310e-002
3.525386e+003;7.552854e-002
3.527314e+003;7.459963e-002
3.529243e+003;7.315996e-002
3.531171e+003;7.190889e-002
3.533100e+003;7.077010e-002
3.535029e+003;6.978382e-002
3.536957e+003;6.926037e-002
3.538885e+003;6.888155e-002
3.540814e+003;6.770225e-002
3.542743e+003;6.648200e-002
3.544671e+003;6.557811e-002
3.546600e+003;6.441814e-002
3.548528e+003;6.364113e-002
3.550457e+003;6.265957e-002
3.552385e+003;6.129016e-002
3.554314e+003;6.028168e-002
3.556242e+003;5.922245e-002
3.558171e+003;5.804000e-002
3.560100e+003;5.735866e-002
3.562028e+003;5.646849e-002
3.563957e+003;5.563587e-002
3.565885e+003;5.518186e-002
3.567814e+003;5.375089e-002
3.569742e+003;5.206306e-002
3.571671e+003;5.065452e-002
3.573599e+003;4.924222e-002
3.575528e+003;4.866922e-002
3.577457e+003;4.835096e-002
3.579385e+003;4.738129e-002
3.581314e+003;4.665115e-002
3.583242e+003;4.599745e-002
3.585171e+003;4.496543e-002
3.587099e+003;4.384637e-002
3.589028e+003;4.276679e-002
3.590956e+003;4.195669e-002
3.592885e+003;4.121188e-002
3.594813e+003;3.998643e-002
3.596742e+003;3.849823e-002
3.598671e+003;3.733683e-002
3.600599e+003;3.625244e-002
3.602528e+003;3.552598e-002
3.604456e+003;3.511481e-002
3.606385e+003;3.403798e-002
3.608313e+003;3.262861e-002
3.610242e+003;3.154680e-002
3.612170e+003;3.064625e-002
3.614099e+003;3.000986e-002
3.616028e+003;2.864809e-002
3.617956e+003;2.693863e-002
3.619885e+003;2.604033e-002
3.621813e+003;2.494812e-002
3.623742e+003;2.460581e-002
3.625670e+003;2.444896e-002
3.627599e+003;2.373675e-002
3.629527e+003;2.282642e-002
3.631456e+003;2.164250e-002
3.633385e+003;2.019853e-002
3.635313e+003;1.916127e-002
3.637241e+003;1.853363e-002
3.639170e+003;1.769004e-002
3.641099e+003;1.641857e-002
3.643027e+003;1.586587e-002
3.644956e+003;1.560607e-002
3.646884e+003;1.463765e-002
3.648813e+003;1.403739e-002
3.650741e+003;1.326789e-002
3.652670e+003;1.253267e-002
3.654598e+003;1.249631e-002
3.656527e+003;1.232362e-002
3.658456e+003;1.194954e-002
3.660384e+003;1.108841e-002
3.662313e+003;9.980868e-003
3.664241e+003;9.203358e-003
3.666170e+003;8.864274e-003
3.668098e+003;8.504574e-003
3.670027e+003;7.861365e-003
3.671955e+003;7.223217e-003
3.673884e+003;6.904359e-003
3.675813e+003;6.339491e-003
3.677741e+003;6.032403e-003
3.679669e+003;5.563232e-003
3.681598e+003;4.810704e-003
3.683527e+003;4.219609e-003
3.685455e+003;4.495353e-003
3.687384e+003;4.755427e-003
3.689312e+003;4.692956e-003
3.691241e+003;4.372838e-003
3.693169e+003;3.432899e-003
3.695098e+003;2.912184e-003
3.697026e+003;2.980371e-003
3.698955e+003;3.259403e-003
3.700884e+003;3.394394e-003
3.702812e+003;2.847877e-003
3.704741e+003;2.535114e-003
3.706669e+003;2.188874e-003
3.708598e+003;1.944444e-003
3.710526e+003;2.137626e-003
3.712455e+003;2.220212e-003
3.714383e+003;1.723303e-003
3.716312e+003;1.202906e-003
3.718240e+003;1.136226e-003
3.720169e+003;2.009416e-003
3.722098e+003;2.613376e-003
3.724026e+003;2.233101e-003
3.725955e+003;1.737375e-003
3.727883e+003;1.785481e-003
3.729812e+003;1.556507e-003
3.731740e+003;9.058347e-004
3.733669e+003;3.548117e-004
3.735597e+003;-1.200943e-004
3.737526e+003;-2.018057e-004
3.739455e+003;-3.649506e-004
3.741383e+003;-4.665022e-005
3.743312e+003;5.962917e-004
3.745240e+003;5.067161e-004
3.747169e+003;3.748083e-004
3.749097e+003;5.690522e-004
3.751026e+003;-5.294497e-005
3.752954e+003;-4.114292e-004
3.754883e+003;1.963967e-004
3.756812e+003;3.335559e-004
3.758740e+003;3.677447e-004
3.760668e+003;5.460940e-004
3.762597e+003;4.072094e-004
3.764526e+003;2.085626e-004
3.766454e+003;-4.612013e-005
3.768383e+003;-1.557683e-004
3.770311e+003;1.551944e-004
3.772240e+003;2.299448e-004
3.774168e+003;-1.521249e-004
3.776097e+003;-3.412128e-004
3.778025e+003;-4.880370e-005
3.779954e+003;2.750134e-006
3.781883e+003;-2.592627e-004
3.783811e+003;-7.875247e-005
3.785740e+003;-3.400209e-004
3.787668e+003;-3.324722e-004
3.789597e+003;8.803685e-004
3.791525e+003;5.892246e-004
3.793454e+003;-3.627656e-004
3.795382e+003;-2.204511e-004
3.797311e+003;1.423340e-004
3.799240e+003;4.718544e-005
3.801168e+003;-5.427017e-005
3.803097e+003;-1.797150e-004
3.805025e+003;-1.275473e-004
3.806954e+003;1.788944e-004
3.808882e+003;3.330585e-004
3.810811e+003;4.631957e-004
3.812739e+003;1.011201e-003
3.814668e+003;1.164465e-003
3.816596e+003;2.964852e-004
3.818525e+003;-6.057315e-004
3.820454e+003;-6.110586e-004
3.822382e+003;2.919759e-004
3.824311e+003;6.344831e-004
3.826239e+003;2.432057e-004
3.828168e+003;-1.414800e-005
3.830096e+003;2.866046e-004
3.832025e+003;2.693639e-004
3.833953e+003;-2.746606e-004
3.835882e+003;-2.800911e-004
3.837811e+003;2.536489e-004
3.839739e+003;6.006383e-004
3.841667e+003;7.136305e-004
3.843596e+003;8.962722e-004
3.845525e+003;1.000408e-003
3.847453e+003;1.352648e-003
3.849382e+003;1.180579e-003
3.851310e+003;4.758335e-004
3.853239e+003;1.592051e-004
3.855167e+003;6.509751e-004
3.857096e+003;1.828902e-003
3.859024e+003;1.700317e-003
3.860953e+003;1.264146e-003
3.862882e+003;1.319910e-003
3.864810e+003;1.127955e-003
3.866739e+003;1.167522e-003
3.868667e+003;1.146492e-003
3.870596e+003;1.489142e-003
3.872524e+003;2.183413e-003
3.874453e+003;2.392527e-003
3.876381e+003;2.455634e-003
3.878310e+003;2.828033e-003
3.880239e+003;2.938404e-003
3.882167e+003;2.996219e-003
3.884096e+003;3.151754e-003
3.886024e+003;2.026493e-003
3.887953e+003;1.215166e-003
3.889881e+003;2.082156e-003
3.891810e+003;2.814926e-003
3.893738e+003;2.763471e-003
3.895667e+003;2.358379e-003
3.897595e+003;2.695552e-003
3.899524e+003;3.703866e-003
3.901453e+003;4.393690e-003
3.903381e+003;3.841135e-003
3.905310e+003;3.410924e-003
3.907238e+003;3.907696e-003
3.909167e+003;3.639809e-003
3.911095e+003;3.409054e-003
3.913024e+003;4.158453e-003
3.914952e+003;4.675640e-003
3.916881e+003;4.077605e-003
3.918810e+003;3.417770e-003
3.920738e+003;3.288915e-003
3.922667e+003;3.356627e-003
3.924595e+003;3.549737e-003
3.926524e+003;3.541185e-003
3.928452e+003;3.899037e-003
3.930381e+003;4.026067e-003
3.932309e+003;3.743000e-003
3.934238e+003;3.787018e-003
3.936167e+003;3.851197e-003
3.938095e+003;3.817368e-003
3.940023e+003;3.594169e-003
3.941952e+003;4.005767e-003
3.943881e+003;4.442795e-003
3.945809e+003;4.623830e-003
3.947738e+003;4.131190e-003
3.949666e+003;4.143299e-003
3.951595e+003;4.940782e-003
3.953523e+003;4.845280e-003
3.955452e+003;5.182949e-003
3.957380e+003;5.238783e-003
3.959309e+003;4.924562e-003
3.961238e+003;4.638230e-003
3.963166e+003;4.843906e-003
3.965095e+003;5.328266e-003
3.967023e+003;5.440617e-003
3.968952e+003;5.117936e-003
3.970880e+003;5.743661e-003
3.972809e+003;6.174174e-003
3.974737e+003;5.686822e-003
3.976666e+003;5.397236e-003
3.978594e+003;5.244484e-003
3.980523e+003;5.991147e-003
3.982452e+003;6.795904e-003
3.984380e+003;6.969742e-003
3.986309e+003;7.037761e-003
3.988237e+003;7.772471e-003
3.990166e+003;7.832754e-003
3.992094e+003;6.948328e-003
3.994023e+003;6.151590e-003
3.995951e+003;5.869385e-003
3.997880e+003;5.827507e-003
3.999809e+003;6.522833e-003
4.001737e+003;0.000000e+000
