3.992094e+002;0.000000e+000
4.011380e+002;0.000000e+000
4.030665e+002;0.000000e+000
4.049951e+002;0.000000e+000
4.069236e+002;0.000000e+000
4.088522e+002;0.000000e+000
4.107807e+002;0.000000e+000
4.127093e+002;0.000000e+000
4.146378e+002;0.000000e+000
4.165664e+002;0.000000e+000
4.184949e+002;0.000000e+000
4.204235e+002;0.000000e+000
4.223520e+002;0.000000e+000
4.242806e+002;0.000000e+000
4.262091e+002;0.000000e+000
4.281377e+002;0.000000e+000
4.300662e+002;0.000000e+000
4.319948e+002;0.000000e+000
4.339233e+002;0.000000e+000
4.358519e+002;0.000000e+000
4.377804e+002;0.000000e+000
4.397090e+002;0.000000e+000
4.416375e+002;0.000000e+000
4.435660e+002;0.000000e+000
4.454946e+002;0.000000e+000
4.474232e+002;0.000000e+000
4.493517e+002;0.000000e+000
4.512802e+002;0.000000e+000
4.532088e+002;0.000000e+000
4.551373e+002;0.000000e+000
4.570659e+002;0.000000e+000
4.589944e+002;0.000000e+000
4.609230e+002;0.000000e+000
4.628515e+002;0.000000e+000
4.647801e+002;0.000000e+000
4.667086e+002;0.000000e+000
4.686372e+002;0.000000e+000
4.705657e+002;0.000000e+000
4.724943e+002;0.000000e+000
4.744228e+002;0.000000e+000
4.763513e+002;0.000000e+000
4.782799e+002;0.000000e+000
4.802085e+002;0.000000e+000
4.821370e+002;0.000000e+000
4.840656e+002;0.000000e+000
4.859941e+002;0.000000e+000
4.879226e+002;0.000000e+000
4.898512e+002;0.000000e+000
4.917798e+002;0.000000e+000
4.937083e+002;0.000000e+000
4.956368e+002;0.000000e+000
4.975654e+002;0.000000e+000
4.994939e+002;0.000000e+000
5.014225e+002;0.000000e+000
5.033510e+002;0.000000e+000
5.052796e+002;0.000000e+000
5.072081e+002;0.000000e+000
5.091367e+002;0.000000e+000
5.110652e+002;0.000000e+000
5.129938e+002;0.000000e+000
5.149223e+002;0.000000e+000
5.168509e+002;0.000000e+000
5.187794e+002;0.000000e+000
5.207079e+002;0.000000e+000
5.226365e+002;0.000000e+000
5.245651e+002;0.000000e+000
5.264936e+002;0.000000e+000
5.284222e+002;0.000000e+000
5.303507e+002;0.000000e+000
5.322792e+002;0.000000e+000
5.342078e+002;0.000000e+000
5.361364e+002;0.000000e+000
5.380649e+002;0.000000e+000
5.399935e+002;0.000000e+000
5.419220e+002;0.000000e+000
5.438505e+002;0.000000e+000
5.457791e+002;0.000000e+000
5.477076e+002;0.000000e+000
5.496362e+002;0.000000e+000
5.515648e+002;0.000000e+000
5.534933e+002;0.000000e+000
5.554218e+002;0.000000e+000
5.573504e+002;0.000000e+000
5.592789e+002;0.000000e+000
5.612075e+002;0.000000e+000
5.631360e+002;0.000000e+000
5.650646e+002;0.000000e+000
5.669931e+002;0.000000e+000
5.689217e+002;0.000000e+000
5.708502e+002;0.000000e+000
5.727787e+002;0.000000e+000
5.747073e+002;0.000000e+000
5.766359e+002;0.000000e+000
5.785644e+002;0.000000e+000
5.804930e+002;0.000000e+000
5.824215e+002;0.000000e+000
5.843500e+002;0.000000e+000
5.862786e+002;0.000000e+000
5.882072e+002;0.000000e+000
5.901357e+002;0.000000e+000
5.920643e+002;0.000000e+000
5.939928e+002;0.000000e+000
5.959213e+002;0.000000e+000
5.978499e+002;0.000000e+000
5.997784e+002;2.598169e-001
6.017070e+002;2.603768e-001
6.036355e+002;2.572952e-001
6.055641e+002;2.596297e-001
6.074926e+002;2.566698e-001
6.094211e+002;2.551376e-001
6.113497e+002;2.571090e-001
6.132783e+002;2.600540e-001
6.152068e+002;2.572960e-001
6.171354e+002;2.542386e-001
6.190639e+002;2.533557e-001
6.209924e+002;2.532813e-001
6.229210e+002;2.492803e-001
6.248495e+002;2.475314e-001
6.267781e+002;2.430265e-001
6.287067e+002;2.386677e-001
6.306352e+002;2.381549e-001
6.325637e+002;2.349540e-001
6.344923e+002;2.346292e-001
6.364208e+002;2.324709e-001
6.383494e+002;2.253882e-001
6.402780e+002;2.238157e-001
6.422065e+002;2.263639e-001
6.441350e+002;2.252958e-001
6.460636e+002;2.216138e-001
6.479921e+002;2.215593e-001
6.499207e+002;2.223479e-001
6.518492e+002;2.240211e-001
6.537778e+002;2.260496e-001
6.557063e+002;2.297951e-001
6.576349e+002;2.360424e-001
6.595634e+002;2.401097e-001
6.614919e+002;2.414421e-001
6.634205e+002;2.422451e-001
6.653491e+002;2.402162e-001
6.672776e+002;2.393395e-001
6.692062e+002;2.365664e-001
6.711347e+002;2.312098e-001
6.730632e+002;2.264177e-001
6.749918e+002;2.209225e-001
6.769203e+002;2.157006e-001
6.788489e+002;2.103499e-001
6.807775e+002;2.067965e-001
6.827060e+002;2.054566e-001
6.846345e+002;2.041360e-001
6.865631e+002;2.026103e-001
6.884916e+002;2.006455e-001
6.904202e+002;1.986115e-001
6.923488e+002;1.986363e-001
6.942773e+002;1.985348e-001
6.962058e+002;1.991236e-001
6.981344e+002;2.002383e-001
7.000629e+002;1.987177e-001
7.019915e+002;1.960805e-001
7.039200e+002;1.947957e-001
7.058486e+002;1.944396e-001
7.077771e+002;1.930081e-001
7.097057e+002;1.917760e-001
7.116342e+002;1.909280e-001
7.135627e+002;1.883150e-001
7.154913e+002;1.850646e-001
7.174199e+002;1.822758e-001
7.193484e+002;1.791940e-001
7.212770e+002;1.772458e-001
7.232055e+002;1.754112e-001
7.251340e+002;1.730370e-001
7.270626e+002;1.702478e-001
7.289911e+002;1.669069e-001
7.309197e+002;1.650709e-001
7.328483e+002;1.642610e-001
7.347768e+002;1.631803e-001
7.367053e+002;1.620111e-001
7.386339e+002;1.603460e-001
7.405624e+002;1.583521e-001
7.424910e+002;1.574053e-001
7.444196e+002;1.565874e-001
7.463481e+002;1.549406e-001
7.482766e+002;1.541502e-001
7.502052e+002;1.541404e-001
7.521337e+002;1.527234e-001
7.540623e+002;1.508632e-001
7.559908e+002;1.494468e-001
7.579194e+002;1.488229e-001
7.598479e+002;1.485267e-001
7.617765e+002;1.481880e-001
7.637050e+002;1.477326e-001
7.656335e+002;1.469129e-001
7.675621e+002;1.464461e-001
7.694907e+002;1.457727e-001
7.714192e+002;1.443118e-001
7.733478e+002;1.434416e-001
7.752763e+002;1.436660e-001
7.772048e+002;1.435805e-001
7.791334e+002;1.437927e-001
7.810620e+002;1.438922e-001
7.829905e+002;1.435062e-001
7.849191e+002;1.426731e-001
7.868476e+002;1.415540e-001
7.887761e+002;1.398174e-001
7.907047e+002;1.382003e-001
7.926332e+002;1.373028e-001
7.945618e+002;1.361527e-001
7.964903e+002;1.346212e-001
7.984189e+002;1.345045e-001
8.003474e+002;1.351924e-001
8.022759e+002;1.349517e-001
8.042045e+002;1.342216e-001
8.061331e+002;1.341611e-001
8.080616e+002;1.338633e-001
8.099902e+002;1.339611e-001
8.119187e+002;1.342907e-001
8.138472e+002;1.340991e-001
8.157758e+002;1.335488e-001
8.177043e+002;1.327927e-001
8.196329e+002;1.322764e-001
8.215615e+002;1.325772e-001
8.234900e+002;1.332232e-001
8.254185e+002;1.342930e-001
8.273471e+002;1.354214e-001
8.292756e+002;1.356754e-001
8.312042e+002;1.358664e-001
8.331328e+002;1.352779e-001
8.350613e+002;1.340143e-001
8.369898e+002;1.338507e-001
8.389184e+002;1.346651e-001
8.408469e+002;1.347221e-001
8.427755e+002;1.349611e-001
8.447040e+002;1.363485e-001
8.466326e+002;1.371564e-001
8.485611e+002;1.365561e-001
8.504897e+002;1.363845e-001
8.524182e+002;1.375018e-001
8.543467e+002;1.382213e-001
8.562753e+002;1.388565e-001
8.582039e+002;1.405099e-001
8.601324e+002;1.423897e-001
8.620610e+002;1.431640e-001
8.639895e+002;1.437153e-001
8.659180e+002;1.448754e-001
8.678466e+002;1.467291e-001
8.697751e+002;1.491080e-001
8.717037e+002;1.512989e-001
8.736323e+002;1.537374e-001
8.755608e+002;1.565486e-001
8.774893e+002;1.594173e-001
8.794179e+002;1.619637e-001
8.813464e+002;1.646024e-001
8.832750e+002;1.675275e-001
8.852036e+002;1.704506e-001
8.871321e+002;1.729437e-001
8.890606e+002;1.757798e-001
8.909892e+002;1.788113e-001
8.929177e+002;1.808887e-001
8.948463e+002;1.818335e-001
8.967748e+002;1.820433e-001
8.987034e+002;1.818444e-001
9.006319e+002;1.813118e-001
9.025605e+002;1.796898e-001
9.044890e+002;1.773936e-001
9.064175e+002;1.751144e-001
9.083461e+002;1.730313e-001
9.102747e+002;1.718347e-001
9.122032e+002;1.707116e-001
9.141318e+002;1.689158e-001
9.160603e+002;1.684399e-001
9.179888e+002;1.691490e-001
9.199174e+002;1.699286e-001
9.218459e+002;1.709329e-001
9.237745e+002;1.721617e-001
9.257031e+002;1.735901e-001
9.276316e+002;1.754067e-001
9.295601e+002;1.775711e-001
9.314887e+002;1.793575e-001
9.334172e+002;1.814840e-001
9.353458e+002;1.837985e-001
9.372744e+002;1.860898e-001
9.392029e+002;1.882645e-001
9.411314e+002;1.906947e-001
9.430600e+002;1.933864e-001
9.449885e+002;1.967331e-001
9.469171e+002;2.006276e-001
9.488456e+002;2.042477e-001
9.507742e+002;2.082012e-001
9.527027e+002;2.130735e-001
9.546313e+002;2.178987e-001
9.565598e+002;2.226640e-001
9.584883e+002;2.280783e-001
9.604169e+002;2.338341e-001
9.623455e+002;2.396223e-001
9.642740e+002;2.458048e-001
9.662026e+002;2.524753e-001
9.681311e+002;2.595890e-001
9.700596e+002;2.676691e-001
9.719882e+002;2.769966e-001
9.739167e+002;2.874372e-001
9.758453e+002;2.995204e-001
9.777739e+002;3.132626e-001
9.797024e+002;3.281732e-001
9.816309e+002;3.416306e-001
9.835595e+002;3.515679e-001
9.854880e+002;3.579932e-001
9.874166e+002;3.616175e-001
9.893452e+002;3.641525e-001
9.912737e+002;3.678634e-001
9.932022e+002;3.718031e-001
9.951307e+002;3.761495e-001
9.970593e+002;3.815273e-001
9.989879e+002;3.869994e-001
1.000916e+003;3.914891e-001
1.002845e+003;3.941596e-001
1.004773e+003;3.960018e-001
1.006702e+003;3.981893e-001
1.008631e+003;4.010653e-001
1.010559e+003;4.044009e-001
1.012488e+003;4.077859e-001
1.014416e+003;4.117268e-001
1.016345e+003;4.153609e-001
1.018273e+003;4.200023e-001
1.020202e+003;4.248116e-001
1.022130e+003;4.286166e-001
1.024059e+003;4.328761e-001
1.025988e+003;4.377293e-001
1.027916e+003;4.412299e-001
1.029845e+003;4.419021e-001
1.031773e+003;4.395452e-001
1.033702e+003;4.347274e-001
1.035630e+003;4.278536e-001
1.037559e+003;4.204623e-001
1.039487e+003;4.136045e-001
1.041416e+003;4.092584e-001
1.043344e+003;4.074492e-001
1.045273e+003;4.076335e-001
1.047202e+003;4.102885e-001
1.049130e+003;4.141131e-001
1.051059e+003;4.159419e-001
1.052987e+003;4.149870e-001
1.054916e+003;4.114041e-001
1.056844e+003;4.052992e-001
1.058773e+003;3.959465e-001
1.060701e+003;3.829935e-001
1.062630e+003;3.660125e-001
1.064558e+003;3.491732e-001
1.066487e+003;3.344104e-001
1.068416e+003;3.216696e-001
1.070344e+003;3.116154e-001
1.072273e+003;3.032039e-001
1.074201e+003;2.963731e-001
1.076130e+003;2.907074e-001
1.078058e+003;2.850168e-001
1.079987e+003;2.802903e-001
1.081915e+003;2.772188e-001
1.083844e+003;2.752220e-001
1.085773e+003;2.737001e-001
1.087701e+003;2.728661e-001
1.089630e+003;2.729222e-001
1.091558e+003;2.730027e-001
1.093487e+003;2.739815e-001
1.095415e+003;2.750937e-001
1.097344e+003;2.753771e-001
1.099272e+003;2.759665e-001
1.101201e+003;2.767056e-001
1.103129e+003;2.760093e-001
1.105058e+003;2.740205e-001
1.106987e+003;2.711101e-001
1.108915e+003;2.671676e-001
1.110844e+003;2.616393e-001
1.112772e+003;2.541590e-001
1.114701e+003;2.442027e-001
1.116629e+003;2.332020e-001
1.118558e+003;2.237653e-001
1.120486e+003;2.160231e-001
1.122415e+003;2.088017e-001
1.124344e+003;2.029422e-001
1.126272e+003;1.975588e-001
1.128201e+003;1.912023e-001
1.130129e+003;1.853526e-001
1.132058e+003;1.810507e-001
1.133986e+003;1.776228e-001
1.135915e+003;1.746085e-001
1.137843e+003;1.725831e-001
1.139772e+003;1.723623e-001
1.141700e+003;1.733976e-001
1.143629e+003;1.751442e-001
1.145557e+003;1.766927e-001
1.147486e+003;1.780028e-001
1.149415e+003;1.794521e-001
1.151343e+003;1.808450e-001
1.153272e+003;1.816875e-001
1.155200e+003;1.818752e-001
1.157129e+003;1.815672e-001
1.159057e+003;1.804025e-001
1.160986e+003;1.781300e-001
1.162914e+003;1.744657e-001
1.164843e+003;1.689954e-001
1.166771e+003;1.626044e-001
1.168700e+003;1.556416e-001
1.170629e+003;1.488253e-001
1.172557e+003;1.430133e-001
1.174486e+003;1.378863e-001
1.176414e+003;1.338380e-001
1.178343e+003;1.311815e-001
1.180271e+003;1.290670e-001
1.182200e+003;1.271560e-001
1.184128e+003;1.261932e-001
1.186057e+003;1.265151e-001
1.187986e+003;1.276363e-001
1.189914e+003;1.291376e-001
1.191843e+003;1.315065e-001
1.193771e+003;1.343592e-001
1.195700e+003;1.367221e-001
1.197628e+003;1.385220e-001
1.199557e+003;1.396692e-001
1.201485e+003;1.399361e-001
1.203414e+003;1.399354e-001
1.205343e+003;1.387641e-001
1.207271e+003;1.364763e-001
1.209200e+003;1.335028e-001
1.211128e+003;1.304088e-001
1.213057e+003;1.283523e-001
1.214985e+003;1.275509e-001
1.216914e+003;1.280346e-001
1.218842e+003;1.294473e-001
1.220771e+003;1.311817e-001
1.222699e+003;1.331262e-001
1.224628e+003;1.346699e-001
1.226557e+003;1.363446e-001
1.228485e+003;1.382136e-001
1.230414e+003;1.397075e-001
1.232342e+003;1.409812e-001
1.234271e+003;1.417158e-001
1.236199e+003;1.420575e-001
1.238128e+003;1.422746e-001
1.240056e+003;1.425873e-001
1.241985e+003;1.432022e-001
1.243913e+003;1.443556e-001
1.245842e+003;1.453406e-001
1.247771e+003;1.456298e-001
1.249699e+003;1.457034e-001
1.251628e+003;1.458242e-001
1.253556e+003;1.456010e-001
1.255485e+003;1.455584e-001
1.257413e+003;1.454968e-001
1.259342e+003;1.448636e-001
1.261270e+003;1.441824e-001
1.263199e+003;1.436223e-001
1.265127e+003;1.433611e-001
1.267056e+003;1.439248e-001
1.268985e+003;1.449084e-001
1.270913e+003;1.457079e-001
1.272842e+003;1.466996e-001
1.274770e+003;1.475043e-001
1.276699e+003;1.479004e-001
1.278627e+003;1.479640e-001
1.280556e+003;1.476023e-001
1.282484e+003;1.465198e-001
1.284413e+003;1.455026e-001
1.286342e+003;1.452575e-001
1.288270e+003;1.455579e-001
1.290199e+003;1.461335e-001
1.292127e+003;1.470544e-001
1.294056e+003;1.483952e-001
1.295984e+003;1.500580e-001
1.297913e+003;1.518574e-001
1.299841e+003;1.540671e-001
1.301770e+003;1.571489e-001
1.303698e+003;1.608089e-001
1.305627e+003;1.644139e-001
1.307556e+003;1.682571e-001
1.309484e+003;1.725433e-001
1.311413e+003;1.766223e-001
1.313341e+003;1.795287e-001
1.315270e+003;1.806262e-001
1.317198e+003;1.799831e-001
1.319127e+003;1.781290e-001
1.321055e+003;1.756492e-001
1.322984e+003;1.729923e-001
1.324912e+003;1.708921e-001
1.326841e+003;1.694604e-001
1.328770e+003;1.687477e-001
1.330698e+003;1.687257e-001
1.332627e+003;1.689729e-001
1.334555e+003;1.692002e-001
1.336484e+003;1.685146e-001
1.338412e+003;1.667184e-001
1.340341e+003;1.646719e-001
1.342269e+003;1.625602e-001
1.344198e+003;1.601070e-001
1.346126e+003;1.580340e-001
1.348055e+003;1.568532e-001
1.349984e+003;1.566997e-001
1.351912e+003;1.572492e-001
1.353841e+003;1.581817e-001
1.355769e+003;1.592581e-001
1.357698e+003;1.600849e-001
1.359626e+003;1.606508e-001
1.361555e+003;1.606044e-001
1.363483e+003;1.598566e-001
1.365412e+003;1.589904e-001
1.367341e+003;1.582098e-001
1.369269e+003;1.572325e-001
1.371198e+003;1.558296e-001
1.373126e+003;1.536305e-001
1.375055e+003;1.509047e-001
1.376983e+003;1.480298e-001
1.378912e+003;1.452655e-001
1.380840e+003;1.428771e-001
1.382769e+003;1.403680e-001
1.384698e+003;1.376733e-001
1.386626e+003;1.357051e-001
1.388555e+003;1.345745e-001
1.390483e+003;1.336338e-001
1.392412e+003;1.326922e-001
1.394340e+003;1.323308e-001
1.396269e+003;1.324992e-001
1.398197e+003;1.329620e-001
1.400126e+003;1.330969e-001
1.402054e+003;1.332940e-001
1.403983e+003;1.337810e-001
1.405911e+003;1.342084e-001
1.407840e+003;1.346194e-001
1.409769e+003;1.351694e-001
1.411697e+003;1.358230e-001
1.413626e+003;1.364912e-001
1.415554e+003;1.374059e-001
1.417483e+003;1.389473e-001
1.419411e+003;1.405786e-001
1.421340e+003;1.418092e-001
1.423268e+003;1.427828e-001
1.425197e+003;1.435012e-001
1.427125e+003;1.438795e-001
1.429054e+003;1.435598e-001
1.430983e+003;1.425256e-001
1.432911e+003;1.409030e-001
1.434840e+003;1.389743e-001
1.436768e+003;1.371396e-001
1.438697e+003;1.354231e-001
1.440625e+003;1.341359e-001
1.442554e+003;1.332223e-001
1.444482e+003;1.324788e-001
1.446411e+003;1.317315e-001
1.448340e+003;1.310052e-001
1.450268e+003;1.305665e-001
1.452197e+003;1.300623e-001
1.454125e+003;1.291970e-001
1.456054e+003;1.280066e-001
1.457982e+003;1.268387e-001
1.459911e+003;1.255342e-001
1.461839e+003;1.241438e-001
1.463768e+003;1.226201e-001
1.465697e+003;1.208226e-001
1.467625e+003;1.189632e-001
1.469554e+003;1.170767e-001
1.471482e+003;1.150614e-001
1.473411e+003;1.132240e-001
1.475339e+003;1.115756e-001
1.477268e+003;1.101765e-001
1.479196e+003;1.090920e-001
1.481125e+003;1.077176e-001
1.483053e+003;1.057298e-001
1.484982e+003;1.038365e-001
1.486911e+003;1.022847e-001
1.488839e+003;1.007007e-001
1.490768e+003;9.926684e-002
1.492696e+003;9.825061e-002
1.494625e+003;9.760647e-002
1.496553e+003;9.710476e-002
1.498482e+003;9.669904e-002
1.500410e+003;9.636803e-002
1.502339e+003;9.591349e-002
1.504267e+003;9.564861e-002
1.506196e+003;9.571837e-002
1.508125e+003;9.571225e-002
1.510053e+003;9.556041e-002
1.511982e+003;9.541860e-002
1.513910e+003;9.515373e-002
1.515839e+003;9.471419e-002
1.517767e+003;9.420869e-002
1.519696e+003;9.388138e-002
1.521624e+003;9.372376e-002
1.523553e+003;9.342812e-002
1.525481e+003;9.322873e-002
1.527410e+003;9.347410e-002
1.529339e+003;9.368972e-002
1.531267e+003;9.370887e-002
1.533196e+003;9.373486e-002
1.535124e+003;9.365107e-002
1.537053e+003;9.368601e-002
1.538981e+003;9.364457e-002
1.540910e+003;9.354219e-002
1.542838e+003;9.353377e-002
1.544767e+003;9.352674e-002
1.546695e+003;9.364186e-002
1.548624e+003;9.382043e-002
1.550553e+003;9.388825e-002
1.552481e+003;9.390264e-002
1.554410e+003;9.394801e-002
1.556338e+003;9.409201e-002
1.558267e+003;9.421544e-002
1.560195e+003;9.411184e-002
1.562124e+003;9.426747e-002
1.564052e+003;9.451631e-002
1.565981e+003;9.471621e-002
1.567910e+003;9.514903e-002
1.569838e+003;9.551346e-002
1.571767e+003;9.564890e-002
1.573695e+003;9.584544e-002
1.575624e+003;9.609609e-002
1.577552e+003;9.645441e-002
1.579481e+003;9.690057e-002
1.581409e+003;9.736870e-002
1.583338e+003;9.779452e-002
1.585266e+003;9.786113e-002
1.587195e+003;9.808023e-002
1.589124e+003;9.871621e-002
1.591052e+003;9.922362e-002
1.592981e+003;9.968589e-002
1.594909e+003;1.002371e-001
1.596838e+003;1.010468e-001
1.598766e+003;1.019248e-001
1.600695e+003;1.026148e-001
1.602623e+003;1.033875e-001
1.604552e+003;1.042391e-001
1.606480e+003;1.051492e-001
1.608409e+003;1.057330e-001
1.610338e+003;1.060709e-001
1.612266e+003;1.065781e-001
1.614195e+003;1.069593e-001
1.616123e+003;1.071296e-001
1.618052e+003;1.075776e-001
1.619980e+003;1.080739e-001
1.621909e+003;1.082538e-001
1.623837e+003;1.084963e-001
1.625766e+003;1.084955e-001
1.627694e+003;1.081265e-001
1.629623e+003;1.078919e-001
1.631552e+003;1.078283e-001
1.633480e+003;1.079381e-001
1.635409e+003;1.079390e-001
1.637337e+003;1.077597e-001
1.639266e+003;1.074045e-001
1.641194e+003;1.071618e-001
1.643123e+003;1.072885e-001
1.645051e+003;1.073211e-001
1.646980e+003;1.067493e-001
1.648909e+003;1.058138e-001
1.650837e+003;1.054502e-001
1.652766e+003;1.050985e-001
1.654694e+003;1.045001e-001
1.656623e+003;1.037739e-001
1.658551e+003;1.030220e-001
1.660480e+003;1.026229e-001
1.662408e+003;1.021725e-001
1.664337e+003;1.015132e-001
1.666266e+003;1.005585e-001
1.668194e+003;9.966409e-002
1.670123e+003;9.903245e-002
1.672051e+003;9.833795e-002
1.673980e+003;9.739702e-002
1.675908e+003;9.672881e-002
1.677837e+003;9.635500e-002
1.679765e+003;9.592427e-002
1.681694e+003;9.530920e-002
1.683622e+003;9.447829e-002
1.685551e+003;9.380785e-002
1.687479e+003;9.344283e-002
1.689408e+003;9.286075e-002
1.691337e+003;9.215150e-002
1.693265e+003;9.157246e-002
1.695194e+003;9.126695e-002
1.697122e+003;9.105695e-002
1.699051e+003;9.039029e-002
1.700979e+003;8.967671e-002
1.702908e+003;8.968970e-002
1.704836e+003;8.956178e-002
1.706765e+003;8.910124e-002
1.708693e+003;8.880077e-002
1.710622e+003;8.875219e-002
1.712551e+003;8.866087e-002
1.714479e+003;8.838026e-002
1.716408e+003;8.807866e-002
1.718336e+003;8.794370e-002
1.720265e+003;8.783697e-002
1.722193e+003;8.789660e-002
1.724122e+003;8.814409e-002
1.726050e+003;8.813564e-002
1.727979e+003;8.802051e-002
1.729908e+003;8.805370e-002
1.731836e+003;8.812322e-002
1.733765e+003;8.805289e-002
1.735693e+003;8.790301e-002
1.737622e+003;8.772305e-002
1.739550e+003;8.737308e-002
1.741479e+003;8.699071e-002
1.743407e+003;8.663280e-002
1.745336e+003;8.647399e-002
1.747265e+003;8.636665e-002
1.749193e+003;8.593041e-002
1.751122e+003;8.565895e-002
1.753050e+003;8.535794e-002
1.754979e+003;8.485027e-002
1.756907e+003;8.446683e-002
1.758836e+003;8.440083e-002
1.760764e+003;8.433033e-002
1.762693e+003;8.411613e-002
1.764621e+003;8.386236e-002
1.766550e+003;8.390003e-002
1.768479e+003;8.394806e-002
1.770407e+003;8.375265e-002
1.772336e+003;8.350196e-002
1.774264e+003;8.341783e-002
1.776193e+003;8.348405e-002
1.778121e+003;8.344333e-002
1.780050e+003;8.338054e-002
1.781978e+003;8.342285e-002
1.783907e+003;8.335616e-002
1.785835e+003;8.324362e-002
1.787764e+003;8.313466e-002
1.789693e+003;8.285837e-002
1.791621e+003;8.285332e-002
1.793550e+003;8.282369e-002
1.795478e+003;8.259929e-002
1.797407e+003;8.249331e-002
1.799335e+003;8.248397e-002
1.801264e+003;8.240429e-002
1.803192e+003;8.237445e-002
1.805121e+003;8.224016e-002
1.807049e+003;8.214792e-002
1.808978e+003;8.216325e-002
1.810907e+003;8.204537e-002
1.812835e+003;8.191238e-002
1.814764e+003;8.202191e-002
1.816692e+003;8.223212e-002
1.818621e+003;8.227023e-002
1.820549e+003;8.204585e-002
1.822478e+003;8.182865e-002
1.824406e+003;8.183713e-002
1.826335e+003;8.183513e-002
1.828264e+003;8.170225e-002
1.830192e+003;8.183213e-002
1.832121e+003;8.186533e-002
1.834049e+003;8.163436e-002
1.835978e+003;8.152928e-002
1.837906e+003;8.146989e-002
1.839835e+003;8.126356e-002
1.841763e+003;8.118287e-002
1.843692e+003;8.121151e-002
1.845620e+003;8.116845e-002
1.847549e+003;8.127135e-002
1.849478e+003;8.119341e-002
1.851406e+003;8.105367e-002
1.853335e+003;8.098590e-002
1.855263e+003;8.091281e-002
1.857192e+003;8.064224e-002
1.859120e+003;8.050977e-002
1.861049e+003;8.058168e-002
1.862977e+003;8.071860e-002
1.864906e+003;8.092175e-002
1.866834e+003;8.098000e-002
1.868763e+003;8.097549e-002
1.870692e+003;8.075320e-002
1.872620e+003;8.066007e-002
1.874549e+003;8.073432e-002
1.876477e+003;8.058973e-002
1.878406e+003;8.045748e-002
1.880334e+003;8.066749e-002
1.882263e+003;8.076377e-002
1.884191e+003;8.073572e-002
1.886120e+003;8.081565e-002
1.888048e+003;8.093268e-002
1.889977e+003;8.103466e-002
1.891906e+003;8.079857e-002
1.893834e+003;8.068153e-002
1.895763e+003;8.078089e-002
1.897691e+003;8.074410e-002
1.899620e+003;8.055504e-002
1.901548e+003;8.067950e-002
1.903477e+003;8.068692e-002
1.905405e+003;8.056608e-002
1.907334e+003;8.060980e-002
1.909262e+003;8.073017e-002
1.911191e+003;8.062935e-002
1.913120e+003;8.044257e-002
1.915048e+003;8.073133e-002
1.916977e+003;8.096167e-002
1.918905e+003;8.090251e-002
1.920834e+003;8.082811e-002
1.922762e+003;8.081365e-002
1.924691e+003;8.098722e-002
1.926619e+003;8.108462e-002
1.928548e+003;8.072514e-002
1.930477e+003;8.079442e-002
1.932405e+003;8.095596e-002
1.934334e+003;8.087097e-002
1.936262e+003;8.103123e-002
1.938191e+003;8.108294e-002
1.940119e+003;8.102256e-002
1.942048e+003;8.104680e-002
1.943976e+003;8.130199e-002
1.945905e+003;8.122981e-002
1.947833e+003;8.100395e-002
1.949762e+003;8.117907e-002
1.951691e+003;8.137764e-002
1.953619e+003;8.163223e-002
1.955548e+003;8.173649e-002
1.957476e+003;8.170050e-002
1.959405e+003;8.176961e-002
1.961333e+003;8.168262e-002
1.963262e+003;8.157610e-002
1.965190e+003;8.163767e-002
1.967119e+003;8.173661e-002
1.969047e+003;8.184605e-002
1.970976e+003;8.183149e-002
1.972905e+003;8.171745e-002
1.974833e+003;8.163556e-002
1.976762e+003;8.185405e-002
1.978690e+003;8.223777e-002
1.980619e+003;8.227573e-002
1.982547e+003;8.230484e-002
1.984476e+003;8.243421e-002
1.986404e+003;8.232258e-002
1.988333e+003;8.225390e-002
1.990261e+003;8.236696e-002
1.992190e+003;8.255982e-002
1.994119e+003;8.250485e-002
1.996047e+003;8.221743e-002
1.997976e+003;8.225454e-002
1.999904e+003;8.259580e-002
2.001833e+003;8.279835e-002
2.003761e+003;8.263195e-002
2.005690e+003;8.256447e-002
2.007618e+003;8.281314e-002
2.009547e+003;8.290557e-002
2.011476e+003;8.289454e-002
2.013404e+003;8.281022e-002
2.015333e+003;8.280893e-002
2.017261e+003;8.299328e-002
2.019190e+003;8.312038e-002
2.021118e+003;8.328202e-002
2.023047e+003;8.353798e-002
2.024975e+003;8.373337e-002
2.026904e+003;8.365478e-002
2.028833e+003;8.344144e-002
2.030761e+003;8.360610e-002
2.032690e+003;8.363743e-002
2.034618e+003;8.348107e-002
2.036547e+003;8.351830e-002
2.038475e+003;8.348493e-002
2.040404e+003;8.334734e-002
2.042332e+003;8.347461e-002
2.044261e+003;8.367559e-002
2.046189e+003;8.382230e-002
2.048118e+003;8.394232e-002
2.050047e+003;8.370412e-002
2.051975e+003;8.345637e-002
2.053904e+003;8.357115e-002
2.055832e+003;8.365981e-002
2.057761e+003;8.343919e-002
2.059689e+003;8.337323e-002
2.061618e+003;8.341622e-002
2.063546e+003;8.330105e-002
2.065475e+003;8.318141e-002
2.067404e+003;8.304908e-002
2.069332e+003;8.311705e-002
2.071260e+003;8.324261e-002
2.073189e+003;8.332373e-002
2.075118e+003;8.332301e-002
2.077046e+003;8.303661e-002
2.078975e+003;8.312768e-002
2.080903e+003;8.320107e-002
2.082832e+003;8.290661e-002
2.084760e+003;8.274010e-002
2.086689e+003;8.289041e-002
2.088617e+003;8.300608e-002
2.090546e+003;8.281033e-002
2.092475e+003;8.273079e-002
2.094403e+003;8.269384e-002
2.096332e+003;8.256274e-002
2.098260e+003;8.257897e-002
2.100189e+003;8.266000e-002
2.102117e+003;8.269420e-002
2.104046e+003;8.275657e-002
2.105974e+003;8.296116e-002
2.107903e+003;8.325192e-002
2.109832e+003;8.328664e-002
2.111760e+003;8.301041e-002
2.113688e+003;8.274928e-002
2.115617e+003;8.293649e-002
2.117546e+003;8.333404e-002
2.119474e+003;8.353987e-002
2.121403e+003;8.341394e-002
2.123331e+003;8.330984e-002
2.125260e+003;8.330265e-002
2.127188e+003;8.330494e-002
2.129117e+003;8.340326e-002
2.131045e+003;8.354127e-002
2.132974e+003;8.360273e-002
2.134903e+003;8.366366e-002
2.136831e+003;8.329403e-002
2.138760e+003;8.282197e-002
2.140688e+003;8.283399e-002
2.142617e+003;8.273941e-002
2.144545e+003;8.266478e-002
2.146474e+003;8.285520e-002
2.148402e+003;8.289005e-002
2.150331e+003;8.271452e-002
2.152260e+003;8.260150e-002
2.154188e+003;8.267564e-002
2.156117e+003;8.262554e-002
2.158045e+003;8.252656e-002
2.159974e+003;8.248974e-002
2.161902e+003;8.236275e-002
2.163831e+003;8.204953e-002
2.165759e+003;8.186162e-002
2.167688e+003;8.181329e-002
2.169616e+003;8.171369e-002
2.171545e+003;8.154008e-002
2.173474e+003;8.139958e-002
2.175402e+003;8.129872e-002
2.177331e+003;8.108038e-002
2.179259e+003;8.097520e-002
2.181188e+003;8.079758e-002
2.183116e+003;8.086985e-002
2.185045e+003;8.087265e-002
2.186973e+003;8.055232e-002
2.188902e+003;8.045234e-002
2.190831e+003;8.036155e-002
2.192759e+003;8.018006e-002
2.194688e+003;8.029138e-002
2.196616e+003;8.034074e-002
2.198545e+003;8.037072e-002
2.200473e+003;8.035668e-002
2.202402e+003;8.014610e-002
2.204330e+003;8.015013e-002
2.206259e+003;8.016332e-002
2.208188e+003;8.006096e-002
2.210116e+003;8.011167e-002
2.212044e+003;8.006430e-002
2.213973e+003;7.998264e-002
2.215902e+003;8.004080e-002
2.217830e+003;8.011192e-002
2.219759e+003;8.019305e-002
2.221687e+003;7.994336e-002
2.223616e+003;7.966264e-002
2.225544e+003;7.966806e-002
2.227473e+003;7.984997e-002
2.229401e+003;7.997332e-002
2.231330e+003;7.983822e-002
2.233259e+003;7.953485e-002
2.235187e+003;7.938458e-002
2.237116e+003;7.956060e-002
2.239044e+003;7.962634e-002
2.240973e+003;7.960449e-002
2.242901e+003;7.959956e-002
2.244830e+003;7.946454e-002
2.246758e+003;7.911086e-002
2.248687e+003;7.891273e-002
2.250615e+003;7.907914e-002
2.252544e+003;7.923944e-002
2.254473e+003;7.917228e-002
2.256401e+003;7.908140e-002
2.258330e+003;7.892716e-002
2.260258e+003;7.870766e-002
2.262187e+003;7.874833e-002
2.264115e+003;7.870849e-002
2.266044e+003;7.852802e-002
2.267972e+003;7.816585e-002
2.269901e+003;7.817696e-002
2.271830e+003;7.831971e-002
2.273758e+003;7.847284e-002
2.275687e+003;7.836623e-002
2.277615e+003;7.814550e-002
2.279544e+003;7.828813e-002
2.281472e+003;7.827670e-002
2.283401e+003;7.786805e-002
2.285329e+003;7.773080e-002
2.287258e+003;7.800186e-002
2.289187e+003;7.812837e-002
2.291115e+003;7.788430e-002
2.293043e+003;7.758301e-002
2.294972e+003;7.743931e-002
2.296901e+003;7.739761e-002
2.298829e+003;7.750917e-002
2.300758e+003;7.775778e-002
2.302686e+003;7.770337e-002
2.304615e+003;7.745226e-002
2.306543e+003;7.747991e-002
2.308472e+003;7.752834e-002
2.310400e+003;7.748141e-002
2.312329e+003;7.734269e-002
2.314258e+003;7.734281e-002
2.316186e+003;7.752371e-002
2.318115e+003;7.726695e-002
2.320043e+003;7.702219e-002
2.321972e+003;7.721914e-002
2.323900e+003;7.732175e-002
2.325829e+003;7.722084e-002
2.327757e+003;7.735358e-002
2.329686e+003;7.768265e-002
2.331615e+003;7.781406e-002
2.333543e+003;7.788561e-002
2.335472e+003;7.800610e-002
2.337400e+003;7.800694e-002
2.339329e+003;7.797902e-002
2.341257e+003;7.817633e-002
2.343186e+003;7.839020e-002
2.345114e+003;7.843453e-002
2.347043e+003;7.826452e-002
2.348971e+003;7.809950e-002
2.350900e+003;7.809588e-002
2.352829e+003;7.803802e-002
2.354757e+003;7.796534e-002
2.356686e+003;7.783289e-002
2.358614e+003;7.802819e-002
2.360543e+003;7.847236e-002
2.362471e+003;7.859881e-002
2.364400e+003;7.835852e-002
2.366328e+003;7.845045e-002
2.368257e+003;7.836210e-002
2.370186e+003;7.812805e-002
2.372114e+003;7.819239e-002
2.374042e+003;7.820850e-002
2.375971e+003;7.830361e-002
2.377900e+003;7.843687e-002
2.379828e+003;7.841631e-002
2.381757e+003;7.828321e-002
2.383685e+003;7.809331e-002
2.385614e+003;7.806305e-002
2.387542e+003;7.833476e-002
2.389471e+003;7.859607e-002
2.391399e+003;7.888500e-002
2.393328e+003;7.889135e-002
2.395257e+003;7.869051e-002
2.397185e+003;7.886311e-002
2.399114e+003;7.917944e-002
2.401042e+003;7.912430e-002
2.402971e+003;7.907608e-002
2.404899e+003;7.926971e-002
2.406828e+003;7.947357e-002
2.408756e+003;7.952411e-002
2.410685e+003;7.932077e-002
2.412614e+003;7.910971e-002
2.414542e+003;7.948129e-002
2.416471e+003;7.969207e-002
2.418399e+003;7.964601e-002
2.420328e+003;7.999483e-002
2.422256e+003;8.021999e-002
2.424185e+003;7.998507e-002
2.426113e+003;8.008140e-002
2.428042e+003;8.021673e-002
2.429970e+003;8.023833e-002
2.431899e+003;8.053333e-002
2.433828e+003;8.055831e-002
2.435756e+003;8.031128e-002
2.437685e+003;8.021916e-002
2.439613e+003;8.020234e-002
2.441542e+003;8.034568e-002
2.443470e+003;8.081070e-002
2.445399e+003;8.107347e-002
2.447327e+003;8.094031e-002
2.449256e+003;8.087624e-002
2.451185e+003;8.084870e-002
2.453113e+003;8.098175e-002
2.455042e+003;8.128310e-002
2.456970e+003;8.123752e-002
2.458899e+003;8.109344e-002
2.460827e+003;8.089109e-002
2.462756e+003;8.082296e-002
2.464684e+003;8.085588e-002
2.466613e+003;8.084076e-002
2.468542e+003;8.091903e-002
2.470470e+003;8.117971e-002
2.472398e+003;8.149067e-002
2.474327e+003;8.169118e-002
2.476256e+003;8.175565e-002
2.478184e+003;8.183993e-002
2.480113e+003;8.164299e-002
2.482041e+003;8.177129e-002
2.483970e+003;8.208939e-002
2.485898e+003;8.206626e-002
2.487827e+003;8.211425e-002
2.489755e+003;8.211629e-002
2.491684e+003;8.230516e-002
2.493613e+003;8.268249e-002
2.495541e+003;8.240245e-002
2.497470e+003;8.223215e-002
2.499398e+003;8.228345e-002
2.501327e+003;8.257176e-002
2.503255e+003;8.289964e-002
2.505184e+003;8.290673e-002
2.507112e+003;8.282252e-002
2.509041e+003;8.258290e-002
2.510969e+003;8.272803e-002
2.512898e+003;8.336893e-002
2.514827e+003;8.368142e-002
2.516755e+003;8.348408e-002
2.518684e+003;8.335830e-002
2.520612e+003;8.320384e-002
2.522541e+003;8.325493e-002
2.524469e+003;8.338334e-002
2.526398e+003;8.343446e-002
2.528326e+003;8.343594e-002
2.530255e+003;8.338442e-002
2.532184e+003;8.358200e-002
2.534112e+003;8.386888e-002
2.536041e+003;8.384074e-002
2.537969e+003;8.390996e-002
2.539898e+003;8.365948e-002
2.541826e+003;8.329463e-002
2.543755e+003;8.340792e-002
2.545683e+003;8.362594e-002
2.547612e+003;8.351906e-002
2.549541e+003;8.337728e-002
2.551469e+003;8.358108e-002
2.553397e+003;8.352276e-002
2.555326e+003;8.341406e-002
2.557255e+003;8.372461e-002
2.559183e+003;8.402538e-002
2.561112e+003;8.392145e-002
2.563040e+003;8.380859e-002
2.564969e+003;8.373819e-002
2.566897e+003;8.377182e-002
2.568826e+003;8.363683e-002
2.570754e+003;8.336744e-002
2.572683e+003;8.360770e-002
2.574612e+003;8.405863e-002
2.576540e+003;8.405609e-002
2.578469e+003;8.382065e-002
2.580397e+003;8.362413e-002
2.582326e+003;8.372332e-002
2.584254e+003;8.399361e-002
2.586183e+003;8.431017e-002
2.588111e+003;8.430056e-002
2.590040e+003;8.422497e-002
2.591969e+003;8.455969e-002
2.593897e+003;8.449911e-002
2.595826e+003;8.430599e-002
2.597754e+003;8.450265e-002
2.599683e+003;8.467753e-002
2.601611e+003;8.455458e-002
2.603540e+003;8.457877e-002
2.605468e+003;8.468910e-002
2.607397e+003;8.487481e-002
2.609325e+003;8.508398e-002
2.611254e+003;8.510011e-002
2.613183e+003;8.518778e-002
2.615111e+003;8.512167e-002
2.617040e+003;8.508539e-002
2.618968e+003;8.534153e-002
2.620897e+003;8.558740e-002
2.622825e+003;8.528176e-002
2.624754e+003;8.538069e-002
2.626682e+003;8.588627e-002
2.628611e+003;8.579643e-002
2.630540e+003;8.569451e-002
2.632468e+003;8.601777e-002
2.634396e+003;8.625832e-002
2.636325e+003;8.610227e-002
2.638254e+003;8.600718e-002
2.640182e+003;8.619165e-002
2.642111e+003;8.636547e-002
2.644039e+003;8.653755e-002
2.645968e+003;8.680883e-002
2.647896e+003;8.650961e-002
2.649825e+003;8.623282e-002
2.651753e+003;8.637615e-002
2.653682e+003;8.632509e-002
2.655611e+003;8.627283e-002
2.657539e+003;8.643359e-002
2.659468e+003;8.660380e-002
2.661396e+003;8.680093e-002
2.663325e+003;8.684655e-002
2.665253e+003;8.694837e-002
2.667182e+003;8.708882e-002
2.669110e+003;8.709266e-002
2.671039e+003;8.717414e-002
2.672968e+003;8.730453e-002
2.674896e+003;8.758406e-002
2.676825e+003;8.766475e-002
2.678753e+003;8.747256e-002
2.680682e+003;8.765274e-002
2.682610e+003;8.790719e-002
2.684539e+003;8.788885e-002
2.686467e+003;8.785048e-002
2.688396e+003;8.781142e-002
2.690324e+003;8.811949e-002
2.692253e+003;8.837852e-002
2.694182e+003;8.863547e-002
2.696110e+003;8.890696e-002
2.698039e+003;8.880767e-002
2.699967e+003;8.837535e-002
2.701896e+003;8.846413e-002
2.703824e+003;8.901305e-002
2.705753e+003;8.910624e-002
2.707681e+003;8.892887e-002
2.709610e+003;8.905467e-002
2.711539e+003;8.942411e-002
2.713467e+003;8.940201e-002
2.715396e+003;8.935605e-002
2.717324e+003;8.941886e-002
2.719253e+003;8.935137e-002
2.721181e+003;8.949959e-002
2.723110e+003;8.958364e-002
2.725038e+003;8.966970e-002
2.726967e+003;8.961357e-002
2.728896e+003;8.938687e-002
2.730824e+003;8.949503e-002
2.732752e+003;8.969345e-002
2.734681e+003;8.996034e-002
2.736610e+003;9.005341e-002
2.738538e+003;8.989774e-002
2.740467e+003;8.997963e-002
2.742395e+003;8.998827e-002
2.744324e+003;8.974616e-002
2.746252e+003;8.967605e-002
2.748181e+003;9.010702e-002
2.750109e+003;9.050259e-002
2.752038e+003;9.075585e-002
2.753967e+003;9.086461e-002
2.755895e+003;9.053107e-002
2.757824e+003;9.027268e-002
2.759752e+003;9.039351e-002
2.761681e+003;9.052226e-002
2.763609e+003;9.030642e-002
2.765538e+003;9.011754e-002
2.767466e+003;9.044884e-002
2.769395e+003;9.077378e-002
2.771323e+003;9.079988e-002
2.773252e+003;9.123486e-002
2.775181e+003;9.155757e-002
2.777109e+003;9.160474e-002
2.779038e+003;9.159643e-002
2.780966e+003;9.195765e-002
2.782895e+003;9.206470e-002
2.784823e+003;9.191756e-002
2.786752e+003;9.203636e-002
2.788680e+003;9.249891e-002
2.790609e+003;9.292099e-002
2.792538e+003;9.314956e-002
2.794466e+003;9.361555e-002
2.796395e+003;9.400623e-002
2.798323e+003;9.400112e-002
2.800252e+003;9.399006e-002
2.802180e+003;9.405794e-002
2.804109e+003;9.407856e-002
2.806037e+003;9.444926e-002
2.807966e+003;9.498295e-002
2.809895e+003;9.551933e-002
2.811823e+003;9.595465e-002
2.813751e+003;9.623824e-002
2.815680e+003;9.656100e-002
2.817609e+003;9.697521e-002
2.819537e+003;9.760348e-002
2.821466e+003;9.791057e-002
2.823394e+003;9.788072e-002
2.825323e+003;9.844160e-002
2.827251e+003;9.941386e-002
2.829180e+003;1.001585e-001
2.831108e+003;1.005054e-001
2.833037e+003;1.011060e-001
2.834966e+003;1.020829e-001
2.836894e+003;1.031555e-001
2.838823e+003;1.039785e-001
2.840751e+003;1.045345e-001
2.842680e+003;1.053976e-001
2.844608e+003;1.069773e-001
2.846537e+003;1.086483e-001
2.848465e+003;1.101968e-001
2.850394e+003;1.120470e-001
2.852323e+003;1.132683e-001
2.854251e+003;1.142546e-001
2.856180e+003;1.153525e-001
2.858108e+003;1.161404e-001
2.860037e+003;1.166882e-001
2.861965e+003;1.174773e-001
2.863894e+003;1.188089e-001
2.865822e+003;1.198536e-001
2.867751e+003;1.202803e-001
2.869679e+003;1.208870e-001
2.871608e+003;1.214924e-001
2.873536e+003;1.220517e-001
2.875465e+003;1.224808e-001
2.877394e+003;1.227590e-001
2.879322e+003;1.229118e-001
2.881251e+003;1.233281e-001
2.883179e+003;1.239536e-001
2.885108e+003;1.244657e-001
2.887036e+003;1.249692e-001
2.888965e+003;1.250899e-001
2.890893e+003;1.250914e-001
2.892822e+003;1.258820e-001
2.894750e+003;1.263546e-001
2.896679e+003;1.265040e-001
2.898608e+003;1.266807e-001
2.900536e+003;1.261808e-001
2.902465e+003;1.257187e-001
2.904393e+003;1.254394e-001
2.906322e+003;1.246059e-001
2.908250e+003;1.237135e-001
2.910179e+003;1.232050e-001
2.912107e+003;1.223227e-001
2.914036e+003;1.211717e-001
2.915965e+003;1.200706e-001
2.917893e+003;1.192483e-001
2.919822e+003;1.184575e-001
2.921750e+003;1.175245e-001
2.923679e+003;1.165150e-001
2.925607e+003;1.152059e-001
2.927536e+003;1.137377e-001
2.929464e+003;1.126935e-001
2.931393e+003;1.117510e-001
2.933322e+003;1.103976e-001
2.935250e+003;1.093792e-001
2.937178e+003;1.081333e-001
2.939107e+003;1.068176e-001
2.941036e+003;1.058788e-001
2.942964e+003;1.054064e-001
2.944893e+003;1.046993e-001
2.946821e+003;1.036223e-001
2.948750e+003;1.024498e-001
2.950678e+003;1.013164e-001
2.952607e+003;9.992726e-002
2.954535e+003;9.871513e-002
2.956464e+003;9.770202e-002
2.958393e+003;9.695847e-002
2.960321e+003;9.619309e-002
2.962250e+003;9.519656e-002
2.964178e+003;9.422416e-002
2.966107e+003;9.351268e-002
2.968035e+003;9.295128e-002
2.969964e+003;9.242015e-002
2.971892e+003;9.175484e-002
2.973821e+003;9.084660e-002
2.975750e+003;9.027892e-002
2.977678e+003;8.940689e-002
2.979607e+003;8.819727e-002
2.981535e+003;8.751617e-002
2.983464e+003;8.712081e-002
2.985392e+003;8.701970e-002
2.987321e+003;8.662172e-002
2.989249e+003;8.614655e-002
2.991178e+003;8.592103e-002
2.993106e+003;8.578808e-002
2.995035e+003;8.562444e-002
2.996964e+003;8.557413e-002
2.998892e+003;8.562525e-002
3.000821e+003;8.557247e-002
3.002749e+003;8.499999e-002
3.004678e+003;8.438465e-002
3.006606e+003;8.462616e-002
3.008535e+003;8.499710e-002
3.010463e+003;8.496707e-002
3.012392e+003;8.486172e-002
3.014321e+003;8.472352e-002
3.016249e+003;8.496707e-002
3.018177e+003;8.527636e-002
3.020106e+003;8.539242e-002
3.022035e+003;8.576793e-002
3.023963e+003;8.633952e-002
3.025892e+003;8.663409e-002
3.027820e+003;8.697857e-002
3.029749e+003;8.739942e-002
3.031677e+003;8.722951e-002
3.033606e+003;8.690721e-002
3.035534e+003;8.692024e-002
3.037463e+003;8.713101e-002
3.039392e+003;8.750194e-002
3.041320e+003;8.742997e-002
3.043249e+003;8.742296e-002
3.045177e+003;8.780692e-002
3.047106e+003;8.828366e-002
3.049034e+003;8.853453e-002
3.050963e+003;8.865314e-002
3.052891e+003;8.907508e-002
3.054820e+003;8.961781e-002
3.056749e+003;8.963691e-002
3.058677e+003;8.968119e-002
3.060606e+003;8.984387e-002
3.062534e+003;8.978210e-002
3.064463e+003;9.001937e-002
3.066391e+003;9.051292e-002
3.068320e+003;9.095350e-002
3.070248e+003;9.120359e-002
3.072177e+003;9.144361e-002
3.074105e+003;9.184002e-002
3.076034e+003;9.214122e-002
3.077963e+003;9.260158e-002
3.079891e+003;9.294291e-002
3.081820e+003;9.290680e-002
3.083748e+003;9.301080e-002
3.085677e+003;9.327333e-002
3.087605e+003;9.349132e-002
3.089534e+003;9.394225e-002
3.091462e+003;9.451689e-002
3.093391e+003;9.465221e-002
3.095320e+003;9.460171e-002
3.097248e+003;9.496304e-002
3.099177e+003;9.554290e-002
3.101105e+003;9.577711e-002
3.103034e+003;9.621046e-002
3.104962e+003;9.700230e-002
3.106891e+003;9.752841e-002
3.108819e+003;9.804102e-002
3.110748e+003;9.834535e-002
3.112677e+003;9.827571e-002
3.114605e+003;9.879749e-002
3.116533e+003;9.944003e-002
3.118462e+003;9.960587e-002
3.120391e+003;1.000335e-001
3.122319e+003;9.984502e-002
3.124248e+003;9.994624e-002
3.126176e+003;1.009695e-001
3.128105e+003;1.013330e-001
3.130033e+003;1.013699e-001
3.131962e+003;1.019484e-001
3.133890e+003;1.026263e-001
3.135819e+003;1.030871e-001
3.137748e+003;1.034788e-001
3.139676e+003;1.041087e-001
3.141605e+003;1.048252e-001
3.143533e+003;1.054461e-001
3.145462e+003;1.057393e-001
3.147390e+003;1.057431e-001
3.149319e+003;1.065022e-001
3.151247e+003;1.071799e-001
3.153176e+003;1.074218e-001
3.155104e+003;1.076410e-001
3.157033e+003;1.082560e-001
3.158962e+003;1.086404e-001
3.160890e+003;1.086705e-001
3.162819e+003;1.090570e-001
3.164747e+003;1.098776e-001
3.166676e+003;1.108090e-001
3.168604e+003;1.114404e-001
3.170533e+003;1.118419e-001
3.172461e+003;1.126361e-001
3.174390e+003;1.135008e-001
3.176319e+003;1.138151e-001
3.178247e+003;1.138515e-001
3.180176e+003;1.140307e-001
3.182104e+003;1.144725e-001
3.184033e+003;1.157322e-001
3.185961e+003;1.171443e-001
3.187890e+003;1.179179e-001
3.189818e+003;1.180475e-001
3.191747e+003;1.188231e-001
3.193676e+003;1.195025e-001
3.195604e+003;1.194848e-001
3.197532e+003;1.202107e-001
3.199461e+003;1.215687e-001
3.201390e+003;1.222396e-001
3.203318e+003;1.230745e-001
3.205247e+003;1.239487e-001
3.207175e+003;1.243244e-001
3.209104e+003;1.246303e-001
3.211032e+003;1.255564e-001
3.212961e+003;1.267470e-001
3.214889e+003;1.275050e-001
3.216818e+003;1.281958e-001
3.218747e+003;1.293799e-001
3.220675e+003;1.301896e-001
3.222604e+003;1.306994e-001
3.224532e+003;1.314802e-001
3.226461e+003;1.322947e-001
3.228389e+003;1.329273e-001
3.230318e+003;1.339308e-001
3.232246e+003;1.347841e-001
3.234175e+003;1.353433e-001
3.236104e+003;1.363455e-001
3.238032e+003;1.374595e-001
3.239961e+003;1.381460e-001
3.241889e+003;1.390813e-001
3.243818e+003;1.405351e-001
3.245746e+003;1.417131e-001
3.247675e+003;1.420539e-001
3.249603e+003;1.429443e-001
3.251532e+003;1.442080e-001
3.253460e+003;1.449733e-001
3.255389e+003;1.456814e-001
3.257318e+003;1.466840e-001
3.259246e+003;1.476690e-001
3.261175e+003;1.489390e-001
3.263103e+003;1.504298e-001
3.265032e+003;1.507488e-001
3.266960e+003;1.508409e-001
3.268889e+003;1.516950e-001
3.270817e+003;1.534537e-001
3.272746e+003;1.547959e-001
3.274675e+003;1.547658e-001
3.276603e+003;1.549546e-001
3.278531e+003;1.557189e-001
3.280460e+003;1.567595e-001
3.282389e+003;1.565246e-001
3.284317e+003;1.562993e-001
3.286246e+003;1.571712e-001
3.288174e+003;1.579072e-001
3.290103e+003;1.584293e-001
3.292031e+003;1.588836e-001
3.293960e+003;1.589790e-001
3.295888e+003;1.590232e-001
3.297817e+003;1.595945e-001
3.299746e+003;1.602456e-001
3.301674e+003;1.603061e-001
3.303603e+003;1.597024e-001
3.305531e+003;1.594448e-001
3.307460e+003;1.604426e-001
3.309388e+003;1.615397e-001
3.311317e+003;1.622292e-001
3.313245e+003;1.628250e-001
3.315174e+003;1.631825e-001
3.317103e+003;1.637284e-001
3.319031e+003;1.642525e-001
3.320960e+003;1.643907e-001
3.322888e+003;1.649256e-001
3.324817e+003;1.656497e-001
3.326745e+003;1.653923e-001
3.328674e+003;1.652783e-001
3.330602e+003;1.657468e-001
3.332531e+003;1.662042e-001
3.334459e+003;1.664413e-001
3.336388e+003;1.662037e-001
3.338317e+003;1.659201e-001
3.340245e+003;1.655969e-001
3.342174e+003;1.654517e-001
3.344102e+003;1.649941e-001
3.346031e+003;1.642924e-001
3.347959e+003;1.636138e-001
3.349888e+003;1.626299e-001
3.351816e+003;1.620661e-001
3.353745e+003;1.612881e-001
3.355674e+003;1.608053e-001
3.357602e+003;1.605896e-001
3.359531e+003;1.597979e-001
3.361459e+003;1.590825e-001
3.363388e+003;1.584558e-001
3.365316e+003;1.574967e-001
3.367245e+003;1.566753e-001
3.369173e+003;1.554990e-001
3.371102e+003;1.541488e-001
3.373031e+003;1.535671e-001
3.374959e+003;1.534803e-001
3.376887e+003;1.529241e-001
3.378816e+003;1.516981e-001
3.380745e+003;1.508680e-001
3.382673e+003;1.508999e-001
3.384602e+003;1.504235e-001
3.386530e+003;1.491678e-001
3.388459e+003;1.483511e-001
3.390387e+003;1.482355e-001
3.392316e+003;1.475012e-001
3.394244e+003;1.469830e-001
3.396173e+003;1.468220e-001
3.398102e+003;1.462239e-001
3.400030e+003;1.453470e-001
3.401959e+003;1.448462e-001
3.403887e+003;1.443296e-001
3.405816e+003;1.435736e-001
3.407744e+003;1.433695e-001
3.409673e+003;1.429474e-001
3.411601e+003;1.419182e-001
3.413530e+003;1.411634e-001
3.415458e+003;1.398044e-001
3.417387e+003;1.383223e-001
3.419316e+003;1.375407e-001
3.421244e+003;1.370014e-001
3.423173e+003;1.365008e-001
3.425101e+003;1.358587e-001
3.427030e+003;1.350137e-001
3.428958e+003;1.344188e-001
3.430887e+003;1.334040e-001
3.432815e+003;1.319674e-001
3.434744e+003;1.311188e-001
3.436673e+003;1.308850e-001
3.438601e+003;1.299440e-001
3.440530e+003;1.287661e-001
3.442458e+003;1.280076e-001
3.444387e+003;1.272590e-001
3.446315e+003;1.265786e-001
3.448244e+003;1.255657e-001
3.450172e+003;1.244650e-001
3.452101e+003;1.231970e-001
3.454030e+003;1.218093e-001
3.455958e+003;1.202702e-001
3.457886e+003;1.196045e-001
3.459815e+003;1.192373e-001
3.461744e+003;1.185052e-001
3.463672e+003;1.179081e-001
3.465601e+003;1.169343e-001
3.467529e+003;1.159427e-001
3.469458e+003;1.149899e-001
3.471386e+003;1.138509e-001
3.473315e+003;1.124846e-001
3.475243e+003;1.109411e-001
3.477172e+003;1.099965e-001
3.479101e+003;1.090655e-001
3.481029e+003;1.079526e-001
3.482958e+003;1.071102e-001
3.484886e+003;1.064030e-001
3.486815e+003;1.057416e-001
3.488743e+003;1.049739e-001
3.490672e+003;1.037770e-001
3.492600e+003;1.025617e-001
3.494529e+003;1.016922e-001
3.496458e+003;1.011432e-001
3.498386e+003;1.003925e-001
3.500315e+003;9.943423e-002
3.502243e+003;9.823898e-002
3.504172e+003;9.665851e-002
3.506100e+003;9.566397e-002
3.508029e+003;9.500106e-002
3.509957e+003;9.464204e-002
3.511886e+003;9.419160e-002
3.513814e+003;9.341123e-002
3.515743e+003;9.310554e-002
3.517672e+003;9.203116e-002
3.519600e+003;9.052128e-002
3.521529e+003;8.969931e-002
3.523457e+003;8.911397e-002
3.525386e+003;8.804896e-002
3.527314e+003;8.699715e-002
3.529243e+003;8.608090e-002
3.531171e+003;8.513647e-002
3.533100e+003;8.425719e-002
3.535029e+003;8.375418e-002
3.536957e+003;8.298939e-002
3.538885e+003;8.209608e-002
3.540814e+003;8.185113e-002
3.542743e+003;8.130372e-002
3.544671e+003;7.976324e-002
3.546600e+003;7.872442e-002
3.548528e+003;7.852130e-002
3.550457e+003;7.784918e-002
3.552385e+003;7.685455e-002
3.554314e+003;7.588251e-002
3.556242e+003;7.508130e-002
3.558171e+003;7.458684e-002
3.560100e+003;7.382984e-002
3.562028e+003;7.338408e-002
3.563957e+003;7.260196e-002
3.565885e+003;7.197162e-002
3.567814e+003;7.137191e-002
3.569742e+003;7.051138e-002
3.571671e+003;6.985492e-002
3.573599e+003;6.934495e-002
3.575528e+003;6.867367e-002
3.577457e+003;6.853867e-002
3.579385e+003;6.814869e-002
3.581314e+003;6.739899e-002
3.583242e+003;6.692699e-002
3.585171e+003;6.625102e-002
3.587099e+003;6.522335e-002
3.589028e+003;6.506821e-002
3.590956e+003;6.505493e-002
3.592885e+003;6.431121e-002
3.594813e+003;6.408572e-002
3.596742e+003;6.325598e-002
3.598671e+003;6.227085e-002
3.600599e+003;6.167315e-002
3.602528e+003;6.155054e-002
3.604456e+003;6.180084e-002
3.606385e+003;6.164535e-002
3.608313e+003;6.131893e-002
3.610242e+003;6.098399e-002
3.612170e+003;6.017857e-002
3.614099e+003;5.987215e-002
3.616028e+003;6.021538e-002
3.617956e+003;5.984207e-002
3.619885e+003;5.908159e-002
3.621813e+003;5.882132e-002
3.623742e+003;5.866507e-002
3.625670e+003;5.842988e-002
3.627599e+003;5.787639e-002
3.629527e+003;5.721953e-002
3.631456e+003;5.661651e-002
3.633385e+003;5.652004e-002
3.635313e+003;5.658023e-002
3.637241e+003;5.641147e-002
3.639170e+003;5.664218e-002
3.641099e+003;5.657642e-002
3.643027e+003;5.540401e-002
3.644956e+003;5.455175e-002
3.646884e+003;5.407658e-002
3.648813e+003;5.420521e-002
3.650741e+003;5.461495e-002
3.652670e+003;5.462799e-002
3.654598e+003;5.419984e-002
3.656527e+003;5.374556e-002
3.658456e+003;5.372832e-002
3.660384e+003;5.378453e-002
3.662313e+003;5.309185e-002
3.664241e+003;5.220051e-002
3.666170e+003;5.207501e-002
3.668098e+003;5.178863e-002
3.670027e+003;5.124223e-002
3.671955e+003;5.139811e-002
3.673884e+003;5.199116e-002
3.675813e+003;5.184415e-002
3.677741e+003;5.180043e-002
3.679669e+003;5.170562e-002
3.681598e+003;5.147842e-002
3.683527e+003;5.182212e-002
3.685455e+003;5.183015e-002
3.687384e+003;5.161325e-002
3.689312e+003;5.111001e-002
3.691241e+003;5.033261e-002
3.693169e+003;4.972926e-002
3.695098e+003;5.010583e-002
3.697026e+003;5.029489e-002
3.698955e+003;4.982048e-002
3.700884e+003;5.002905e-002
3.702812e+003;5.088442e-002
3.704741e+003;5.058840e-002
3.706669e+003;4.951438e-002
3.708598e+003;4.924493e-002
3.710526e+003;4.915532e-002
3.712455e+003;4.944669e-002
3.714383e+003;4.950844e-002
3.716312e+003;4.908445e-002
3.718240e+003;4.928446e-002
3.720169e+003;4.949518e-002
3.722098e+003;4.924478e-002
3.724026e+003;4.925017e-002
3.725955e+003;4.955631e-002
3.727883e+003;4.975984e-002
3.729812e+003;4.944357e-002
3.731740e+003;4.907006e-002
3.733669e+003;4.913732e-002
3.735597e+003;4.904965e-002
3.737526e+003;4.877279e-002
3.739455e+003;4.870747e-002
3.741383e+003;4.867570e-002
3.743312e+003;4.861556e-002
3.745240e+003;4.862897e-002
3.747169e+003;4.917472e-002
3.749097e+003;4.968420e-002
3.751026e+003;4.957915e-002
3.752954e+003;4.875759e-002
3.754883e+003;4.816475e-002
3.756812e+003;4.824128e-002
3.758740e+003;4.868790e-002
3.760668e+003;4.877675e-002
3.762597e+003;4.934340e-002
3.764526e+003;4.976330e-002
3.766454e+003;4.962272e-002
3.768383e+003;4.939200e-002
3.770311e+003;4.916036e-002
3.772240e+003;4.894287e-002
3.774168e+003;4.940072e-002
3.776097e+003;4.960024e-002
3.778025e+003;4.911543e-002
3.779954e+003;4.879455e-002
3.781883e+003;4.830064e-002
3.783811e+003;4.823221e-002
3.785740e+003;4.879384e-002
3.787668e+003;4.910478e-002
3.789597e+003;4.887033e-002
3.791525e+003;4.905782e-002
3.793454e+003;4.927997e-002
3.795382e+003;4.938802e-002
3.797311e+003;4.940002e-002
3.799240e+003;4.883945e-002
3.801168e+003;4.862111e-002
3.803097e+003;4.884456e-002
3.805025e+003;4.885431e-002
3.806954e+003;4.914482e-002
3.808882e+003;4.978986e-002
3.810811e+003;4.946109e-002
3.812739e+003;4.939860e-002
3.814668e+003;4.967112e-002
3.816596e+003;4.912115e-002
3.818525e+003;4.901356e-002
3.820454e+003;4.884668e-002
3.822382e+003;4.846475e-002
3.824311e+003;4.892180e-002
3.826239e+003;4.944101e-002
3.828168e+003;4.954632e-002
3.830096e+003;4.955850e-002
3.832025e+003;4.970117e-002
3.833953e+003;5.003076e-002
3.835882e+003;5.027595e-002
3.837811e+003;5.004689e-002
3.839739e+003;4.901034e-002
3.841667e+003;4.894146e-002
3.843596e+003;4.967160e-002
3.845525e+003;4.925295e-002
3.847453e+003;4.883815e-002
3.849382e+003;4.981584e-002
3.851310e+003;5.032930e-002
3.853239e+003;5.036100e-002
3.855167e+003;4.972149e-002
3.857096e+003;4.919342e-002
3.859024e+003;4.935781e-002
3.860953e+003;4.988262e-002
3.862882e+003;4.964278e-002
3.864810e+003;4.929441e-002
3.866739e+003;4.965968e-002
3.868667e+003;4.994217e-002
3.870596e+003;5.016570e-002
3.872524e+003;5.057757e-002
3.874453e+003;5.083700e-002
3.876381e+003;5.060877e-002
3.878310e+003;5.066204e-002
3.880239e+003;5.084248e-002
3.882167e+003;5.096586e-002
3.884096e+003;5.094969e-002
3.886024e+003;5.073350e-002
3.887953e+003;5.070460e-002
3.889881e+003;5.055546e-002
3.891810e+003;5.025668e-002
3.893738e+003;5.060016e-002
3.895667e+003;5.133430e-002
3.897595e+003;5.188947e-002
3.899524e+003;5.155594e-002
3.901453e+003;5.147244e-002
3.903381e+003;5.220858e-002
3.905310e+003;5.159698e-002
3.907238e+003;5.083562e-002
3.909167e+003;5.115906e-002
3.911095e+003;5.158728e-002
3.913024e+003;5.135887e-002
3.914952e+003;5.143164e-002
3.916881e+003;5.210849e-002
3.918810e+003;5.175765e-002
3.920738e+003;5.103324e-002
3.922667e+003;5.123444e-002
3.924595e+003;5.126460e-002
3.926524e+003;5.172902e-002
3.928452e+003;5.236218e-002
3.930381e+003;5.195389e-002
3.932309e+003;5.123138e-002
3.934238e+003;5.144652e-002
3.936167e+003;5.200192e-002
3.938095e+003;5.217035e-002
3.940023e+003;5.214043e-002
3.941952e+003;5.150162e-002
3.943881e+003;5.148673e-002
3.945809e+003;5.196390e-002
3.947738e+003;5.189149e-002
3.949666e+003;5.143996e-002
3.951595e+003;5.118404e-002
3.953523e+003;5.103197e-002
3.955452e+003;5.085678e-002
3.957380e+003;5.120689e-002
3.959309e+003;5.246174e-002
3.961238e+003;5.342323e-002
3.963166e+003;5.314820e-002
3.965095e+003;5.239605e-002
3.967023e+003;5.170711e-002
3.968952e+003;5.197487e-002
3.970880e+003;5.268171e-002
3.972809e+003;5.273895e-002
3.974737e+003;5.230174e-002
3.976666e+003;5.181013e-002
3.978594e+003;5.209029e-002
3.980523e+003;5.309788e-002
3.982452e+003;5.295094e-002
3.984380e+003;5.228145e-002
3.986309e+003;5.186681e-002
3.988237e+003;5.127653e-002
3.990166e+003;5.189720e-002
3.992094e+003;5.274089e-002
3.994023e+003;5.251775e-002
3.995951e+003;5.197775e-002
3.997880e+003;5.171398e-002
3.999809e+003;5.157437e-002
4.001737e+003;0.000000e+000
