3.992094e+002;0.000000e+000
4.011380e+002;0.000000e+000
4.030665e+002;0.000000e+000
4.049951e+002;0.000000e+000
4.069236e+002;0.000000e+000
4.088522e+002;0.000000e+000
4.107807e+002;0.000000e+000
4.127093e+002;0.000000e+000
4.146378e+002;0.000000e+000
4.165664e+002;0.000000e+000
4.184949e+002;0.000000e+000
4.204235e+002;0.000000e+000
4.223520e+002;0.000000e+000
4.242806e+002;0.000000e+000
4.262091e+002;0.000000e+000
4.281377e+002;0.000000e+000
4.300662e+002;0.000000e+000
4.319948e+002;0.000000e+000
4.339233e+002;0.000000e+000
4.358519e+002;0.000000e+000
4.377804e+002;0.000000e+000
4.397090e+002;0.000000e+000
4.416375e+002;0.000000e+000
4.435660e+002;0.000000e+000
4.454946e+002;0.000000e+000
4.474232e+002;0.000000e+000
4.493517e+002;0.000000e+000
4.512802e+002;0.000000e+000
4.532088e+002;0.000000e+000
4.551373e+002;0.000000e+000
4.570659e+002;0.000000e+000
4.589944e+002;0.000000e+000
4.609230e+002;0.000000e+000
4.628515e+002;0.000000e+000
4.647801e+002;0.000000e+000
4.667086e+002;0.000000e+000
4.686372e+002;0.000000e+000
4.705657e+002;0.000000e+000
4.724943e+002;0.000000e+000
4.744228e+002;0.000000e+000
4.763513e+002;0.000000e+000
4.782799e+002;0.000000e+000
4.802085e+002;0.000000e+000
4.821370e+002;0.000000e+000
4.840656e+002;0.000000e+000
4.859941e+002;0.000000e+000
4.879226e+002;0.000000e+000
4.898512e+002;0.000000e+000
4.917798e+002;0.000000e+000
4.937083e+002;0.000000e+000
4.956368e+002;0.000000e+000
4.975654e+002;0.000000e+000
4.994939e+002;0.000000e+000
5.014225e+002;0.000000e+000
5.033510e+002;0.000000e+000
5.052796e+002;0.000000e+000
5.072081e+002;0.000000e+000
5.091367e+002;0.000000e+000
5.110652e+002;0.000000e+000
5.129938e+002;0.000000e+000
5.149223e+002;0.000000e+000
5.168509e+002;0.000000e+000
5.187794e+002;0.000000e+000
5.207079e+002;0.000000e+000
5.226365e+002;0.000000e+000
5.245651e+002;0.000000e+000
5.264936e+002;0.000000e+000
5.284222e+002;0.000000e+000
5.303507e+002;0.000000e+000
5.322792e+002;0.000000e+000
5.342078e+002;0.000000e+000
5.361364e+002;0.000000e+000
5.380649e+002;0.000000e+000
5.399935e+002;0.000000e+000
5.419220e+002;0.000000e+000
5.438505e+002;0.000000e+000
5.457791e+002;0.000000e+000
5.477076e+002;0.000000e+000
5.496362e+002;0.000000e+000
5.515648e+002;0.000000e+000
5.534933e+002;0.000000e+000
5.554218e+002;0.000000e+000
5.573504e+002;0.000000e+000
5.592789e+002;0.000000e+000
5.612075e+002;0.000000e+000
5.631360e+002;0.000000e+000
5.650646e+002;0.000000e+000
5.669931e+002;0.000000e+000
5.689217e+002;0.000000e+000
5.708502e+002;0.000000e+000
5.727787e+002;0.000000e+000
5.747073e+002;0.000000e+000
5.766359e+002;0.000000e+000
5.785644e+002;0.000000e+000
5.804930e+002;0.000000e+000
5.824215e+002;0.000000e+000
5.843500e+002;0.000000e+000
5.862786e+002;0.000000e+000
5.882072e+002;0.000000e+000
5.901357e+002;0.000000e+000
5.920643e+002;0.000000e+000
5.939928e+002;0.000000e+000
5.959213e+002;0.000000e+000
5.978499e+002;0.000000e+000
5.997784e+002;2.047639e-001
6.017070e+002;2.022335e-001
6.036355e+002;2.042377e-001
6.055641e+002;2.069035e-001
6.074926e+002;2.069319e-001
6.094211e+002;2.047509e-001
6.113497e+002;2.023045e-001
6.132783e+002;2.031550e-001
6.152068e+002;2.036612e-001
6.171354e+002;2.024758e-001
6.190639e+002;2.010447e-001
6.209924e+002;1.962321e-001
6.229210e+002;1.909809e-001
6.248495e+002;1.910191e-001
6.267781e+002;1.914888e-001
6.287067e+002;1.867771e-001
6.306352e+002;1.805441e-001
6.325637e+002;1.800932e-001
6.344923e+002;1.820699e-001
6.364208e+002;1.799103e-001
6.383494e+002;1.755431e-001
6.402780e+002;1.744412e-001
6.422065e+002;1.768164e-001
6.441350e+002;1.786285e-001
6.460636e+002;1.778508e-001
6.479921e+002;1.757988e-001
6.499207e+002;1.761834e-001
6.518492e+002;1.776408e-001
6.537778e+002;1.774313e-001
6.557063e+002;1.777086e-001
6.576349e+002;1.839474e-001
6.595634e+002;1.898873e-001
6.614919e+002;1.900931e-001
6.634205e+002;1.870678e-001
6.653491e+002;1.851712e-001
6.672776e+002;1.850521e-001
6.692062e+002;1.852449e-001
6.711347e+002;1.816013e-001
6.730632e+002;1.771939e-001
6.749918e+002;1.731301e-001
6.769203e+002;1.681713e-001
6.788489e+002;1.645881e-001
6.807775e+002;1.623498e-001
6.827060e+002;1.598320e-001
6.846345e+002;1.574740e-001
6.865631e+002;1.562887e-001
6.884916e+002;1.559096e-001
6.904202e+002;1.571400e-001
6.923488e+002;1.573130e-001
6.942773e+002;1.561558e-001
6.962058e+002;1.561354e-001
6.981344e+002;1.554162e-001
7.000629e+002;1.542026e-001
7.019915e+002;1.527299e-001
7.039200e+002;1.510823e-001
7.058486e+002;1.504315e-001
7.077771e+002;1.503025e-001
7.097057e+002;1.493339e-001
7.116342e+002;1.480197e-001
7.135627e+002;1.453947e-001
7.154913e+002;1.422835e-001
7.174199e+002;1.401634e-001
7.193484e+002;1.377897e-001
7.212770e+002;1.343812e-001
7.232055e+002;1.308668e-001
7.251340e+002;1.287799e-001
7.270626e+002;1.273243e-001
7.289911e+002;1.257720e-001
7.309197e+002;1.247479e-001
7.328483e+002;1.228672e-001
7.347768e+002;1.190542e-001
7.367053e+002;1.170256e-001
7.386339e+002;1.162807e-001
7.405624e+002;1.148756e-001
7.424910e+002;1.141020e-001
7.444196e+002;1.139790e-001
7.463481e+002;1.130364e-001
7.482766e+002;1.119009e-001
7.502052e+002;1.108789e-001
7.521337e+002;1.102382e-001
7.540623e+002;1.095736e-001
7.559908e+002;1.084471e-001
7.579194e+002;1.076322e-001
7.598479e+002;1.070027e-001
7.617765e+002;1.060794e-001
7.637050e+002;1.057158e-001
7.656335e+002;1.055813e-001
7.675621e+002;1.054232e-001
7.694907e+002;1.044271e-001
7.714192e+002;1.031934e-001
7.733478e+002;1.029877e-001
7.752763e+002;1.025790e-001
7.772048e+002;1.016368e-001
7.791334e+002;1.006569e-001
7.810620e+002;1.005191e-001
7.829905e+002;1.007042e-001
7.849191e+002;1.002416e-001
7.868476e+002;9.986883e-002
7.887761e+002;9.930778e-002
7.907047e+002;9.862801e-002
7.926332e+002;9.863757e-002
7.945618e+002;9.845839e-002
7.964903e+002;9.773015e-002
7.984189e+002;9.701294e-002
8.003474e+002;9.675079e-002
8.022759e+002;9.745798e-002
8.042045e+002;9.818663e-002
8.061331e+002;9.773172e-002
8.080616e+002;9.754528e-002
8.099902e+002;9.751654e-002
8.119187e+002;9.732518e-002
8.138472e+002;9.787852e-002
8.157758e+002;9.840839e-002
8.177043e+002;9.821106e-002
8.196329e+002;9.748635e-002
8.215615e+002;9.720439e-002
8.234900e+002;9.698991e-002
8.254185e+002;9.745325e-002
8.273471e+002;9.814605e-002
8.292756e+002;9.828556e-002
8.312042e+002;9.862398e-002
8.331328e+002;9.876018e-002
8.350613e+002;9.856357e-002
8.369898e+002;9.845769e-002
8.389184e+002;9.900807e-002
8.408469e+002;9.944832e-002
8.427755e+002;9.896025e-002
8.447040e+002;9.914256e-002
8.466326e+002;9.924815e-002
8.485611e+002;9.823271e-002
8.504897e+002;9.842376e-002
8.524182e+002;9.940766e-002
8.543467e+002;9.962550e-002
8.562753e+002;1.004772e-001
8.582039e+002;1.015183e-001
8.601324e+002;1.017278e-001
8.620610e+002;1.019629e-001
8.639895e+002;1.023965e-001
8.659180e+002;1.032881e-001
8.678466e+002;1.045437e-001
8.697751e+002;1.053719e-001
8.717037e+002;1.063328e-001
8.736323e+002;1.075599e-001
8.755608e+002;1.092333e-001
8.774893e+002;1.111149e-001
8.794179e+002;1.132128e-001
8.813464e+002;1.149739e-001
8.832750e+002;1.167869e-001
8.852036e+002;1.185766e-001
8.871321e+002;1.204838e-001
8.890606e+002;1.228501e-001
8.909892e+002;1.246237e-001
8.929177e+002;1.260789e-001
8.948463e+002;1.274421e-001
8.967748e+002;1.280875e-001
8.987034e+002;1.278962e-001
9.006319e+002;1.276608e-001
9.025605e+002;1.274128e-001
9.044890e+002;1.264661e-001
9.064175e+002;1.252310e-001
9.083461e+002;1.243128e-001
9.102747e+002;1.236397e-001
9.122032e+002;1.225820e-001
9.141318e+002;1.214973e-001
9.160603e+002;1.206838e-001
9.179888e+002;1.203477e-001
9.199174e+002;1.206062e-001
9.218459e+002;1.210843e-001
9.237745e+002;1.218605e-001
9.257031e+002;1.230395e-001
9.276316e+002;1.240070e-001
9.295601e+002;1.246152e-001
9.314887e+002;1.257713e-001
9.334172e+002;1.271492e-001
9.353458e+002;1.280941e-001
9.372744e+002;1.288553e-001
9.392029e+002;1.301108e-001
9.411314e+002;1.319451e-001
9.430600e+002;1.339235e-001
9.449885e+002;1.357336e-001
9.469171e+002;1.378478e-001
9.488456e+002;1.404709e-001
9.507742e+002;1.434614e-001
9.527027e+002;1.463972e-001
9.546313e+002;1.491403e-001
9.565598e+002;1.523799e-001
9.584883e+002;1.558234e-001
9.604169e+002;1.592519e-001
9.623455e+002;1.630037e-001
9.642740e+002;1.666954e-001
9.662026e+002;1.708420e-001
9.681311e+002;1.757693e-001
9.700596e+002;1.814361e-001
9.719882e+002;1.874171e-001
9.739167e+002;1.946213e-001
9.758453e+002;2.034959e-001
9.777739e+002;2.130683e-001
9.797024e+002;2.225176e-001
9.816309e+002;2.303109e-001
9.835595e+002;2.355941e-001
9.854880e+002;2.384231e-001
9.874166e+002;2.392764e-001
9.893452e+002;2.403488e-001
9.912737e+002;2.429579e-001
9.932022e+002;2.462197e-001
9.951307e+002;2.502216e-001
9.970593e+002;2.544635e-001
9.989879e+002;2.578302e-001
1.000916e+003;2.596788e-001
1.002845e+003;2.603533e-001
1.004773e+003;2.607371e-001
1.006702e+003;2.615860e-001
1.008631e+003;2.625891e-001
1.010559e+003;2.643707e-001
1.012488e+003;2.675680e-001
1.014416e+003;2.708201e-001
1.016345e+003;2.738986e-001
1.018273e+003;2.768969e-001
1.020202e+003;2.796894e-001
1.022130e+003;2.828438e-001
1.024059e+003;2.853614e-001
1.025988e+003;2.877792e-001
1.027916e+003;2.900557e-001
1.029845e+003;2.915366e-001
1.031773e+003;2.916730e-001
1.033702e+003;2.890495e-001
1.035630e+003;2.847535e-001
1.037559e+003;2.798982e-001
1.039487e+003;2.748536e-001
1.041416e+003;2.710736e-001
1.043344e+003;2.699795e-001
1.045273e+003;2.712508e-001
1.047202e+003;2.733302e-001
1.049130e+003;2.760022e-001
1.051059e+003;2.790797e-001
1.052987e+003;2.813502e-001
1.054916e+003;2.811673e-001
1.056844e+003;2.787388e-001
1.058773e+003;2.743403e-001
1.060701e+003;2.665842e-001
1.062630e+003;2.561127e-001
1.064558e+003;2.448283e-001
1.066487e+003;2.345462e-001
1.068416e+003;2.266538e-001
1.070344e+003;2.200862e-001
1.072273e+003;2.151143e-001
1.074201e+003;2.108244e-001
1.076130e+003;2.066585e-001
1.078058e+003;2.026623e-001
1.079987e+003;1.990416e-001
1.081915e+003;1.960945e-001
1.083844e+003;1.943748e-001
1.085773e+003;1.943072e-001
1.087701e+003;1.948716e-001
1.089630e+003;1.948887e-001
1.091558e+003;1.949185e-001
1.093487e+003;1.961678e-001
1.095415e+003;1.982721e-001
1.097344e+003;2.000519e-001
1.099272e+003;2.018619e-001
1.101201e+003;2.035216e-001
1.103129e+003;2.034968e-001
1.105058e+003;2.020281e-001
1.106987e+003;2.002705e-001
1.108915e+003;1.983181e-001
1.110844e+003;1.949704e-001
1.112772e+003;1.895811e-001
1.114701e+003;1.820478e-001
1.116629e+003;1.735438e-001
1.118558e+003;1.663033e-001
1.120486e+003;1.605389e-001
1.122415e+003;1.554782e-001
1.124344e+003;1.506041e-001
1.126272e+003;1.453177e-001
1.128201e+003;1.404323e-001
1.130129e+003;1.362112e-001
1.132058e+003;1.324892e-001
1.133986e+003;1.293898e-001
1.135915e+003;1.272949e-001
1.137843e+003;1.262674e-001
1.139772e+003;1.261026e-001
1.141700e+003;1.268052e-001
1.143629e+003;1.282032e-001
1.145557e+003;1.302973e-001
1.147486e+003;1.326298e-001
1.149415e+003;1.342329e-001
1.151343e+003;1.355985e-001
1.153272e+003;1.369735e-001
1.155200e+003;1.383963e-001
1.157129e+003;1.399095e-001
1.159057e+003;1.409107e-001
1.160986e+003;1.405327e-001
1.162914e+003;1.382156e-001
1.164843e+003;1.338235e-001
1.166771e+003;1.283698e-001
1.168700e+003;1.217269e-001
1.170629e+003;1.151768e-001
1.172557e+003;1.097508e-001
1.174486e+003;1.051001e-001
1.176414e+003;1.016594e-001
1.178343e+003;9.911795e-002
1.180271e+003;9.697770e-002
1.182200e+003;9.527239e-002
1.184128e+003;9.449736e-002
1.186057e+003;9.444304e-002
1.187986e+003;9.469429e-002
1.189914e+003;9.533086e-002
1.191843e+003;9.665438e-002
1.193771e+003;9.839547e-002
1.195700e+003;1.002236e-001
1.197628e+003;1.019110e-001
1.199557e+003;1.028953e-001
1.201485e+003;1.034015e-001
1.203414e+003;1.035371e-001
1.205343e+003;1.029764e-001
1.207271e+003;1.010185e-001
1.209200e+003;9.805228e-002
1.211128e+003;9.556475e-002
1.213057e+003;9.430645e-002
1.214985e+003;9.380069e-002
1.216914e+003;9.378588e-002
1.218842e+003;9.459495e-002
1.220771e+003;9.591088e-002
1.222699e+003;9.734188e-002
1.224628e+003;9.867749e-002
1.226557e+003;9.998048e-002
1.228485e+003;1.013348e-001
1.230414e+003;1.026141e-001
1.232342e+003;1.035247e-001
1.234271e+003;1.040448e-001
1.236199e+003;1.047509e-001
1.238128e+003;1.051552e-001
1.240056e+003;1.051254e-001
1.241985e+003;1.053899e-001
1.243913e+003;1.058837e-001
1.245842e+003;1.065712e-001
1.247771e+003;1.069575e-001
1.249699e+003;1.067386e-001
1.251628e+003;1.063480e-001
1.253556e+003;1.062272e-001
1.255485e+003;1.063245e-001
1.257413e+003;1.064324e-001
1.259342e+003;1.065259e-001
1.261270e+003;1.068974e-001
1.263199e+003;1.072859e-001
1.265127e+003;1.068143e-001
1.267056e+003;1.062267e-001
1.268985e+003;1.061316e-001
1.270913e+003;1.064753e-001
1.272842e+003;1.073037e-001
1.274770e+003;1.078658e-001
1.276699e+003;1.078127e-001
1.278627e+003;1.076814e-001
1.280556e+003;1.074447e-001
1.282484e+003;1.067076e-001
1.284413e+003;1.060716e-001
1.286342e+003;1.059968e-001
1.288270e+003;1.055640e-001
1.290199e+003;1.052952e-001
1.292127e+003;1.055639e-001
1.294056e+003;1.061033e-001
1.295984e+003;1.069156e-001
1.297913e+003;1.078452e-001
1.299841e+003;1.093138e-001
1.301770e+003;1.117555e-001
1.303698e+003;1.143678e-001
1.305627e+003;1.171153e-001
1.307556e+003;1.198567e-001
1.309484e+003;1.225468e-001
1.311413e+003;1.249377e-001
1.313341e+003;1.263103e-001
1.315270e+003;1.263986e-001
1.317198e+003;1.251120e-001
1.319127e+003;1.226586e-001
1.321055e+003;1.197718e-001
1.322984e+003;1.175009e-001
1.324912e+003;1.161680e-001
1.326841e+003;1.154493e-001
1.328770e+003;1.154028e-001
1.330698e+003;1.160310e-001
1.332627e+003;1.167240e-001
1.334555e+003;1.168538e-001
1.336484e+003;1.163398e-001
1.338412e+003;1.151843e-001
1.340341e+003;1.136380e-001
1.342269e+003;1.117539e-001
1.344198e+003;1.094850e-001
1.346126e+003;1.075171e-001
1.348055e+003;1.063220e-001
1.349984e+003;1.057028e-001
1.351912e+003;1.057735e-001
1.353841e+003;1.066394e-001
1.355769e+003;1.077398e-001
1.357698e+003;1.084786e-001
1.359626e+003;1.086787e-001
1.361555e+003;1.083857e-001
1.363483e+003;1.076292e-001
1.365412e+003;1.068708e-001
1.367341e+003;1.065594e-001
1.369269e+003;1.063787e-001
1.371198e+003;1.054582e-001
1.373126e+003;1.034698e-001
1.375055e+003;1.011701e-001
1.376983e+003;9.887662e-002
1.378912e+003;9.664030e-002
1.380840e+003;9.491587e-002
1.382769e+003;9.336941e-002
1.384698e+003;9.173589e-002
1.386626e+003;9.025624e-002
1.388555e+003;8.921943e-002
1.390483e+003;8.876792e-002
1.392412e+003;8.860995e-002
1.394340e+003;8.825032e-002
1.396269e+003;8.824603e-002
1.398197e+003;8.855940e-002
1.400126e+003;8.896258e-002
1.402054e+003;8.933716e-002
1.403983e+003;8.952113e-002
1.405911e+003;8.962323e-002
1.407840e+003;8.991840e-002
1.409769e+003;9.018654e-002
1.411697e+003;9.058585e-002
1.413626e+003;9.122546e-002
1.415554e+003;9.208055e-002
1.417483e+003;9.310012e-002
1.419411e+003;9.415390e-002
1.421340e+003;9.552688e-002
1.423268e+003;9.678669e-002
1.425197e+003;9.763625e-002
1.427125e+003;9.804418e-002
1.429054e+003;9.786645e-002
1.430983e+003;9.706838e-002
1.432911e+003;9.577847e-002
1.434840e+003;9.443266e-002
1.436768e+003;9.332319e-002
1.438697e+003;9.223688e-002
1.440625e+003;9.104575e-002
1.442554e+003;9.030674e-002
1.444482e+003;8.995916e-002
1.446411e+003;8.977187e-002
1.448340e+003;8.962135e-002
1.450268e+003;8.942977e-002
1.452197e+003;8.899813e-002
1.454125e+003;8.831399e-002
1.456054e+003;8.711902e-002
1.457982e+003;8.585700e-002
1.459911e+003;8.490297e-002
1.461839e+003;8.376600e-002
1.463768e+003;8.239091e-002
1.465697e+003;8.127742e-002
1.467625e+003;8.017328e-002
1.469554e+003;7.872299e-002
1.471482e+003;7.718910e-002
1.473411e+003;7.598753e-002
1.475339e+003;7.485122e-002
1.477268e+003;7.390722e-002
1.479196e+003;7.345066e-002
1.481125e+003;7.280518e-002
1.483053e+003;7.146540e-002
1.484982e+003;6.985103e-002
1.486911e+003;6.866315e-002
1.488839e+003;6.754699e-002
1.490768e+003;6.648088e-002
1.492696e+003;6.579107e-002
1.494625e+003;6.542261e-002
1.496553e+003;6.532259e-002
1.498482e+003;6.511201e-002
1.500410e+003;6.502572e-002
1.502339e+003;6.499855e-002
1.504267e+003;6.477760e-002
1.506196e+003;6.450678e-002
1.508125e+003;6.466129e-002
1.510053e+003;6.458709e-002
1.511982e+003;6.453192e-002
1.513910e+003;6.449444e-002
1.515839e+003;6.404340e-002
1.517767e+003;6.361194e-002
1.519696e+003;6.355314e-002
1.521624e+003;6.370083e-002
1.523553e+003;6.395667e-002
1.525481e+003;6.386039e-002
1.527410e+003;6.370252e-002
1.529339e+003;6.361087e-002
1.531267e+003;6.368652e-002
1.533196e+003;6.362092e-002
1.535124e+003;6.358057e-002
1.537053e+003;6.359767e-002
1.538981e+003;6.335312e-002
1.540910e+003;6.316944e-002
1.542838e+003;6.341477e-002
1.544767e+003;6.366853e-002
1.546695e+003;6.364048e-002
1.548624e+003;6.364021e-002
1.550553e+003;6.375916e-002
1.552481e+003;6.380232e-002
1.554410e+003;6.364033e-002
1.556338e+003;6.370617e-002
1.558267e+003;6.383081e-002
1.560195e+003;6.405147e-002
1.562124e+003;6.422968e-002
1.564052e+003;6.431089e-002
1.565981e+003;6.440762e-002
1.567910e+003;6.467211e-002
1.569838e+003;6.487084e-002
1.571767e+003;6.514315e-002
1.573695e+003;6.538178e-002
1.575624e+003;6.542812e-002
1.577552e+003;6.564563e-002
1.579481e+003;6.594601e-002
1.581409e+003;6.623586e-002
1.583338e+003;6.648540e-002
1.585266e+003;6.681437e-002
1.587195e+003;6.727889e-002
1.589124e+003;6.765264e-002
1.591052e+003;6.796650e-002
1.592981e+003;6.831156e-002
1.594909e+003;6.870235e-002
1.596838e+003;6.901720e-002
1.598766e+003;6.925804e-002
1.600695e+003;6.950042e-002
1.602623e+003;7.011760e-002
1.604552e+003;7.075945e-002
1.606480e+003;7.078522e-002
1.608409e+003;7.077798e-002
1.610338e+003;7.126503e-002
1.612266e+003;7.162023e-002
1.614195e+003;7.161796e-002
1.616123e+003;7.164098e-002
1.618052e+003;7.200509e-002
1.619980e+003;7.227115e-002
1.621909e+003;7.223691e-002
1.623837e+003;7.217079e-002
1.625766e+003;7.236998e-002
1.627694e+003;7.256091e-002
1.629623e+003;7.255720e-002
1.631552e+003;7.250378e-002
1.633480e+003;7.242016e-002
1.635409e+003;7.229111e-002
1.637337e+003;7.241338e-002
1.639266e+003;7.266834e-002
1.641194e+003;7.241119e-002
1.643123e+003;7.205953e-002
1.645051e+003;7.202817e-002
1.646980e+003;7.194658e-002
1.648909e+003;7.163317e-002
1.650837e+003;7.105386e-002
1.652766e+003;7.026100e-002
1.654694e+003;7.009957e-002
1.656623e+003;7.007582e-002
1.658551e+003;6.971865e-002
1.660480e+003;6.948447e-002
1.662408e+003;6.928980e-002
1.664337e+003;6.882676e-002
1.666266e+003;6.822053e-002
1.668194e+003;6.770945e-002
1.670123e+003;6.728934e-002
1.672051e+003;6.697474e-002
1.673980e+003;6.654266e-002
1.675908e+003;6.615856e-002
1.677837e+003;6.603210e-002
1.679765e+003;6.570799e-002
1.681694e+003;6.532062e-002
1.683622e+003;6.484303e-002
1.685551e+003;6.437207e-002
1.687479e+003;6.409816e-002
1.689408e+003;6.378967e-002
1.691337e+003;6.364566e-002
1.693265e+003;6.353775e-002
1.695194e+003;6.311215e-002
1.697122e+003;6.280041e-002
1.699051e+003;6.262531e-002
1.700979e+003;6.252444e-002
1.702908e+003;6.244060e-002
1.704836e+003;6.224091e-002
1.706765e+003;6.205984e-002
1.708693e+003;6.175626e-002
1.710622e+003;6.165788e-002
1.712551e+003;6.152397e-002
1.714479e+003;6.143461e-002
1.716408e+003;6.159342e-002
1.718336e+003;6.156631e-002
1.720265e+003;6.154046e-002
1.722193e+003;6.153015e-002
1.724122e+003;6.144652e-002
1.726050e+003;6.151958e-002
1.727979e+003;6.152832e-002
1.729908e+003;6.160728e-002
1.731836e+003;6.167113e-002
1.733765e+003;6.161033e-002
1.735693e+003;6.178185e-002
1.737622e+003;6.172811e-002
1.739550e+003;6.123705e-002
1.741479e+003;6.085948e-002
1.743407e+003;6.055978e-002
1.745336e+003;6.020156e-002
1.747265e+003;5.951317e-002
1.749193e+003;5.907354e-002
1.751122e+003;5.893955e-002
1.753050e+003;5.867770e-002
1.754979e+003;5.846574e-002
1.756907e+003;5.847635e-002
1.758836e+003;5.835339e-002
1.760764e+003;5.816276e-002
1.762693e+003;5.803959e-002
1.764621e+003;5.801819e-002
1.766550e+003;5.795681e-002
1.768479e+003;5.770906e-002
1.770407e+003;5.741205e-002
1.772336e+003;5.715683e-002
1.774264e+003;5.731816e-002
1.776193e+003;5.761586e-002
1.778121e+003;5.743111e-002
1.780050e+003;5.731121e-002
1.781978e+003;5.759282e-002
1.783907e+003;5.763235e-002
1.785835e+003;5.728452e-002
1.787764e+003;5.709859e-002
1.789693e+003;5.694870e-002
1.791621e+003;5.687055e-002
1.793550e+003;5.693223e-002
1.795478e+003;5.709341e-002
1.797407e+003;5.698614e-002
1.799335e+003;5.684849e-002
1.801264e+003;5.681930e-002
1.803192e+003;5.690424e-002
1.805121e+003;5.699442e-002
1.807049e+003;5.689268e-002
1.808978e+003;5.686549e-002
1.810907e+003;5.686183e-002
1.812835e+003;5.682738e-002
1.814764e+003;5.685303e-002
1.816692e+003;5.669243e-002
1.818621e+003;5.668733e-002
1.820549e+003;5.679199e-002
1.822478e+003;5.681261e-002
1.824406e+003;5.683830e-002
1.826335e+003;5.679400e-002
1.828264e+003;5.682915e-002
1.830192e+003;5.695524e-002
1.832121e+003;5.695452e-002
1.834049e+003;5.667872e-002
1.835978e+003;5.643664e-002
1.837906e+003;5.641823e-002
1.839835e+003;5.639340e-002
1.841763e+003;5.640476e-002
1.843692e+003;5.651909e-002
1.845620e+003;5.647377e-002
1.847549e+003;5.623392e-002
1.849478e+003;5.594470e-002
1.851406e+003;5.588075e-002
1.853335e+003;5.599367e-002
1.855263e+003;5.591908e-002
1.857192e+003;5.581507e-002
1.859120e+003;5.594485e-002
1.861049e+003;5.592714e-002
1.862977e+003;5.597674e-002
1.864906e+003;5.620020e-002
1.866834e+003;5.623094e-002
1.868763e+003;5.623671e-002
1.870692e+003;5.627405e-002
1.872620e+003;5.603502e-002
1.874549e+003;5.588685e-002
1.876477e+003;5.576451e-002
1.878406e+003;5.574526e-002
1.880334e+003;5.589258e-002
1.882263e+003;5.584808e-002
1.884191e+003;5.579311e-002
1.886120e+003;5.575381e-002
1.888048e+003;5.574899e-002
1.889977e+003;5.565595e-002
1.891906e+003;5.561825e-002
1.893834e+003;5.568872e-002
1.895763e+003;5.553356e-002
1.897691e+003;5.528624e-002
1.899620e+003;5.522705e-002
1.901548e+003;5.521377e-002
1.903477e+003;5.534224e-002
1.905405e+003;5.550558e-002
1.907334e+003;5.561456e-002
1.909262e+003;5.564156e-002
1.911191e+003;5.549824e-002
1.913120e+003;5.533442e-002
1.915048e+003;5.536434e-002
1.916977e+003;5.540277e-002
1.918905e+003;5.527484e-002
1.920834e+003;5.532918e-002
1.922762e+003;5.532527e-002
1.924691e+003;5.539976e-002
1.926619e+003;5.558692e-002
1.928548e+003;5.566664e-002
1.930477e+003;5.570273e-002
1.932405e+003;5.565568e-002
1.934334e+003;5.560861e-002
1.936262e+003;5.533148e-002
1.938191e+003;5.522946e-002
1.940119e+003;5.535135e-002
1.942048e+003;5.562258e-002
1.943976e+003;5.575879e-002
1.945905e+003;5.559961e-002
1.947833e+003;5.563278e-002
1.949762e+003;5.570872e-002
1.951691e+003;5.567437e-002
1.953619e+003;5.568472e-002
1.955548e+003;5.584503e-002
1.957476e+003;5.587208e-002
1.959405e+003;5.555950e-002
1.961333e+003;5.549783e-002
1.963262e+003;5.581537e-002
1.965190e+003;5.582905e-002
1.967119e+003;5.586911e-002
1.969047e+003;5.616996e-002
1.970976e+003;5.597704e-002
1.972905e+003;5.573422e-002
1.974833e+003;5.605353e-002
1.976762e+003;5.636084e-002
1.978690e+003;5.632440e-002
1.980619e+003;5.619145e-002
1.982547e+003;5.612833e-002
1.984476e+003;5.616128e-002
1.986404e+003;5.622343e-002
1.988333e+003;5.622841e-002
1.990261e+003;5.621747e-002
1.992190e+003;5.623018e-002
1.994119e+003;5.626880e-002
1.996047e+003;5.627729e-002
1.997976e+003;5.605383e-002
1.999904e+003;5.605303e-002
2.001833e+003;5.629091e-002
2.003761e+003;5.647075e-002
2.005690e+003;5.653290e-002
2.007618e+003;5.652479e-002
2.009547e+003;5.643849e-002
2.011476e+003;5.622369e-002
2.013404e+003;5.622317e-002
2.015333e+003;5.640287e-002
2.017261e+003;5.640046e-002
2.019190e+003;5.636001e-002
2.021118e+003;5.645351e-002
2.023047e+003;5.654676e-002
2.024975e+003;5.670051e-002
2.026904e+003;5.695758e-002
2.028833e+003;5.707660e-002
2.030761e+003;5.687841e-002
2.032690e+003;5.666875e-002
2.034618e+003;5.666853e-002
2.036547e+003;5.676428e-002
2.038475e+003;5.688721e-002
2.040404e+003;5.690213e-002
2.042332e+003;5.683240e-002
2.044261e+003;5.672894e-002
2.046189e+003;5.667612e-002
2.048118e+003;5.682999e-002
2.050047e+003;5.695796e-002
2.051975e+003;5.678973e-002
2.053904e+003;5.675737e-002
2.055832e+003;5.688263e-002
2.057761e+003;5.683403e-002
2.059689e+003;5.669673e-002
2.061618e+003;5.688959e-002
2.063546e+003;5.691909e-002
2.065475e+003;5.667819e-002
2.067404e+003;5.658382e-002
2.069332e+003;5.653996e-002
2.071260e+003;5.661171e-002
2.073189e+003;5.677432e-002
2.075118e+003;5.676451e-002
2.077046e+003;5.642264e-002
2.078975e+003;5.620752e-002
2.080903e+003;5.614111e-002
2.082832e+003;5.602503e-002
2.084760e+003;5.626718e-002
2.086689e+003;5.658454e-002
2.088617e+003;5.640891e-002
2.090546e+003;5.601330e-002
2.092475e+003;5.609126e-002
2.094403e+003;5.631810e-002
2.096332e+003;5.634651e-002
2.098260e+003;5.609703e-002
2.100189e+003;5.618742e-002
2.102117e+003;5.665607e-002
2.104046e+003;5.646852e-002
2.105974e+003;5.597316e-002
2.107903e+003;5.580211e-002
2.109832e+003;5.602540e-002
2.111760e+003;5.608878e-002
2.113688e+003;5.593969e-002
2.115617e+003;5.592669e-002
2.117546e+003;5.621185e-002
2.119474e+003;5.632293e-002
2.121403e+003;5.617222e-002
2.123331e+003;5.616483e-002
2.125260e+003;5.617799e-002
2.127188e+003;5.633504e-002
2.129117e+003;5.647336e-002
2.131045e+003;5.631437e-002
2.132974e+003;5.622087e-002
2.134903e+003;5.640483e-002
2.136831e+003;5.635575e-002
2.138760e+003;5.625500e-002
2.140688e+003;5.625236e-002
2.142617e+003;5.608618e-002
2.144545e+003;5.613149e-002
2.146474e+003;5.614153e-002
2.148402e+003;5.595752e-002
2.150331e+003;5.593622e-002
2.152260e+003;5.576583e-002
2.154188e+003;5.573622e-002
2.156117e+003;5.583602e-002
2.158045e+003;5.568796e-002
2.159974e+003;5.543036e-002
2.161902e+003;5.528041e-002
2.163831e+003;5.533912e-002
2.165759e+003;5.535214e-002
2.167688e+003;5.534680e-002
2.169616e+003;5.546861e-002
2.171545e+003;5.557464e-002
2.173474e+003;5.525591e-002
2.175402e+003;5.516215e-002
2.177331e+003;5.514484e-002
2.179259e+003;5.483440e-002
2.181188e+003;5.462059e-002
2.183116e+003;5.463163e-002
2.185045e+003;5.464899e-002
2.186973e+003;5.459489e-002
2.188902e+003;5.476892e-002
2.190831e+003;5.479053e-002
2.192759e+003;5.472325e-002
2.194688e+003;5.444511e-002
2.196616e+003;5.416884e-002
2.198545e+003;5.437240e-002
2.200473e+003;5.442055e-002
2.202402e+003;5.446911e-002
2.204330e+003;5.450547e-002
2.206259e+003;5.412890e-002
2.208188e+003;5.385489e-002
2.210116e+003;5.393783e-002
2.212044e+003;5.400330e-002
2.213973e+003;5.403028e-002
2.215902e+003;5.414294e-002
2.217830e+003;5.433203e-002
2.219759e+003;5.416580e-002
2.221687e+003;5.393419e-002
2.223616e+003;5.400037e-002
2.225544e+003;5.426284e-002
2.227473e+003;5.442442e-002
2.229401e+003;5.419823e-002
2.231330e+003;5.402679e-002
2.233259e+003;5.391479e-002
2.235187e+003;5.389116e-002
2.237116e+003;5.432321e-002
2.239044e+003;5.451539e-002
2.240973e+003;5.415491e-002
2.242901e+003;5.388655e-002
2.244830e+003;5.395467e-002
2.246758e+003;5.406551e-002
2.248687e+003;5.384765e-002
2.250615e+003;5.346340e-002
2.252544e+003;5.347071e-002
2.254473e+003;5.365914e-002
2.256401e+003;5.364763e-002
2.258330e+003;5.359106e-002
2.260258e+003;5.361190e-002
2.262187e+003;5.351654e-002
2.264115e+003;5.323415e-002
2.266044e+003;5.303760e-002
2.267972e+003;5.304771e-002
2.269901e+003;5.301360e-002
2.271830e+003;5.309567e-002
2.273758e+003;5.349173e-002
2.275687e+003;5.344107e-002
2.277615e+003;5.308114e-002
2.279544e+003;5.269379e-002
2.281472e+003;5.257392e-002
2.283401e+003;5.253173e-002
2.285329e+003;5.232349e-002
2.287258e+003;5.225645e-002
2.289187e+003;5.243560e-002
2.291115e+003;5.279855e-002
2.293043e+003;5.285726e-002
2.294972e+003;5.277344e-002
2.296901e+003;5.264819e-002
2.298829e+003;5.260080e-002
2.300758e+003;5.253263e-002
2.302686e+003;5.240192e-002
2.304615e+003;5.254553e-002
2.306543e+003;5.244988e-002
2.308472e+003;5.216161e-002
2.310400e+003;5.219509e-002
2.312329e+003;5.244925e-002
2.314258e+003;5.244876e-002
2.316186e+003;5.227685e-002
2.318115e+003;5.209392e-002
2.320043e+003;5.213531e-002
2.321972e+003;5.204976e-002
2.323900e+003;5.203127e-002
2.325829e+003;5.200072e-002
2.327757e+003;5.192043e-002
2.329686e+003;5.208316e-002
2.331615e+003;5.230952e-002
2.333543e+003;5.228530e-002
2.335472e+003;5.214491e-002
2.337400e+003;5.207445e-002
2.339329e+003;5.221740e-002
2.341257e+003;5.224228e-002
2.343186e+003;5.212399e-002
2.345114e+003;5.217390e-002
2.347043e+003;5.230410e-002
2.348971e+003;5.232099e-002
2.350900e+003;5.264554e-002
2.352829e+003;5.271773e-002
2.354757e+003;5.238192e-002
2.356686e+003;5.227517e-002
2.358614e+003;5.245979e-002
2.360543e+003;5.260963e-002
2.362471e+003;5.283017e-002
2.364400e+003;5.269375e-002
2.366328e+003;5.234147e-002
2.368257e+003;5.219389e-002
2.370186e+003;5.244218e-002
2.372114e+003;5.275073e-002
2.374042e+003;5.272993e-002
2.375971e+003;5.258667e-002
2.377900e+003;5.257680e-002
2.379828e+003;5.257747e-002
2.381757e+003;5.258296e-002
2.383685e+003;5.284820e-002
2.385614e+003;5.320119e-002
2.387542e+003;5.299776e-002
2.389471e+003;5.283795e-002
2.391399e+003;5.277711e-002
2.393328e+003;5.263005e-002
2.395257e+003;5.273056e-002
2.397185e+003;5.274362e-002
2.399114e+003;5.271482e-002
2.401042e+003;5.263080e-002
2.402971e+003;5.259441e-002
2.404899e+003;5.250743e-002
2.406828e+003;5.235134e-002
2.408756e+003;5.254564e-002
2.410685e+003;5.271871e-002
2.412614e+003;5.278789e-002
2.414542e+003;5.296130e-002
2.416471e+003;5.307785e-002
2.418399e+003;5.298208e-002
2.420328e+003;5.309717e-002
2.422256e+003;5.322284e-002
2.424185e+003;5.330907e-002
2.426113e+003;5.346126e-002
2.428042e+003;5.362731e-002
2.429970e+003;5.361711e-002
2.431899e+003;5.364699e-002
2.433828e+003;5.363604e-002
2.435756e+003;5.347273e-002
2.437685e+003;5.325281e-002
2.439613e+003;5.325745e-002
2.441542e+003;5.343470e-002
2.443470e+003;5.378982e-002
2.445399e+003;5.399448e-002
2.447327e+003;5.366795e-002
2.449256e+003;5.363331e-002
2.451185e+003;5.411723e-002
2.453113e+003;5.418610e-002
2.455042e+003;5.396514e-002
2.456970e+003;5.392395e-002
2.458899e+003;5.364354e-002
2.460827e+003;5.342758e-002
2.462756e+003;5.381063e-002
2.464684e+003;5.402799e-002
2.466613e+003;5.387383e-002
2.468542e+003;5.372239e-002
2.470470e+003;5.392571e-002
2.472398e+003;5.429144e-002
2.474327e+003;5.432385e-002
2.476256e+003;5.423509e-002
2.478184e+003;5.412864e-002
2.480113e+003;5.396732e-002
2.482041e+003;5.406697e-002
2.483970e+003;5.462859e-002
2.485898e+003;5.477260e-002
2.487827e+003;5.433496e-002
2.489755e+003;5.440898e-002
2.491684e+003;5.473242e-002
2.493613e+003;5.471946e-002
2.495541e+003;5.476170e-002
2.497470e+003;5.468462e-002
2.499398e+003;5.457707e-002
2.501327e+003;5.444060e-002
2.503255e+003;5.428431e-002
2.505184e+003;5.444210e-002
2.507112e+003;5.466350e-002
2.509041e+003;5.444556e-002
2.510969e+003;5.433076e-002
2.512898e+003;5.466557e-002
2.514827e+003;5.493539e-002
2.516755e+003;5.502538e-002
2.518684e+003;5.512690e-002
2.520612e+003;5.502015e-002
2.522541e+003;5.491083e-002
2.524469e+003;5.498792e-002
2.526398e+003;5.511888e-002
2.528326e+003;5.493027e-002
2.530255e+003;5.473242e-002
2.532184e+003;5.486673e-002
2.534112e+003;5.472584e-002
2.536041e+003;5.449112e-002
2.537969e+003;5.474539e-002
2.539898e+003;5.507480e-002
2.541826e+003;5.498330e-002
2.543755e+003;5.479042e-002
2.545683e+003;5.483188e-002
2.547612e+003;5.468943e-002
2.549541e+003;5.459797e-002
2.551469e+003;5.495186e-002
2.553397e+003;5.503535e-002
2.555326e+003;5.489350e-002
2.557255e+003;5.491016e-002
2.559183e+003;5.491392e-002
2.561112e+003;5.498570e-002
2.563040e+003;5.500390e-002
2.564969e+003;5.468368e-002
2.566897e+003;5.433872e-002
2.568826e+003;5.414267e-002
2.570754e+003;5.429422e-002
2.572683e+003;5.470239e-002
2.574612e+003;5.476008e-002
2.576540e+003;5.471634e-002
2.578469e+003;5.493588e-002
2.580397e+003;5.503719e-002
2.582326e+003;5.508097e-002
2.584254e+003;5.521362e-002
2.586183e+003;5.526156e-002
2.588111e+003;5.505009e-002
2.590040e+003;5.493862e-002
2.591969e+003;5.505144e-002
2.593897e+003;5.513698e-002
2.595826e+003;5.521674e-002
2.597754e+003;5.512156e-002
2.599683e+003;5.502177e-002
2.601611e+003;5.511704e-002
2.603540e+003;5.529426e-002
2.605468e+003;5.554546e-002
2.607397e+003;5.564988e-002
2.609325e+003;5.565776e-002
2.611254e+003;5.560160e-002
2.613183e+003;5.542204e-002
2.615111e+003;5.552862e-002
2.617040e+003;5.545298e-002
2.618968e+003;5.542863e-002
2.620897e+003;5.556010e-002
2.622825e+003;5.558304e-002
2.624754e+003;5.565591e-002
2.626682e+003;5.567410e-002
2.628611e+003;5.558620e-002
2.630540e+003;5.567233e-002
2.632468e+003;5.571546e-002
2.634396e+003;5.574112e-002
2.636325e+003;5.614450e-002
2.638254e+003;5.647354e-002
2.640182e+003;5.638069e-002
2.642111e+003;5.632927e-002
2.644039e+003;5.634183e-002
2.645968e+003;5.643396e-002
2.647896e+003;5.646735e-002
2.649825e+003;5.618938e-002
2.651753e+003;5.622920e-002
2.653682e+003;5.652121e-002
2.655611e+003;5.651883e-002
2.657539e+003;5.654845e-002
2.659468e+003;5.662538e-002
2.661396e+003;5.659250e-002
2.663325e+003;5.665377e-002
2.665253e+003;5.698520e-002
2.667182e+003;5.722724e-002
2.669110e+003;5.720347e-002
2.671039e+003;5.707803e-002
2.672968e+003;5.714896e-002
2.674896e+003;5.723004e-002
2.676825e+003;5.754137e-002
2.678753e+003;5.779054e-002
2.680682e+003;5.777892e-002
2.682610e+003;5.770463e-002
2.684539e+003;5.765362e-002
2.686467e+003;5.737643e-002
2.688396e+003;5.730667e-002
2.690324e+003;5.776840e-002
2.692253e+003;5.781344e-002
2.694182e+003;5.767254e-002
2.696110e+003;5.755764e-002
2.698039e+003;5.771454e-002
2.699967e+003;5.801997e-002
2.701896e+003;5.809037e-002
2.703824e+003;5.807276e-002
2.705753e+003;5.813837e-002
2.707681e+003;5.805432e-002
2.709610e+003;5.802747e-002
2.711539e+003;5.834532e-002
2.713467e+003;5.856879e-002
2.715396e+003;5.865919e-002
2.717324e+003;5.854471e-002
2.719253e+003;5.870967e-002
2.721181e+003;5.909776e-002
2.723110e+003;5.937533e-002
2.725038e+003;5.943117e-002
2.726967e+003;5.928261e-002
2.728896e+003;5.899090e-002
2.730824e+003;5.904306e-002
2.732752e+003;5.934334e-002
2.734681e+003;5.935622e-002
2.736610e+003;5.937829e-002
2.738538e+003;5.961274e-002
2.740467e+003;5.971861e-002
2.742395e+003;5.966086e-002
2.744324e+003;5.954805e-002
2.746252e+003;5.923077e-002
2.748181e+003;5.880470e-002
2.750109e+003;5.887550e-002
2.752038e+003;5.921463e-002
2.753967e+003;5.926020e-002
2.755895e+003;5.946704e-002
2.757824e+003;5.982393e-002
2.759752e+003;6.006217e-002
2.761681e+003;6.018302e-002
2.763609e+003;6.029714e-002
2.765538e+003;6.018557e-002
2.767466e+003;5.981941e-002
2.769395e+003;5.985055e-002
2.771323e+003;6.025271e-002
2.773252e+003;6.050577e-002
2.775181e+003;6.043082e-002
2.777109e+003;6.035760e-002
2.779038e+003;6.054706e-002
2.780966e+003;6.079876e-002
2.782895e+003;6.103059e-002
2.784823e+003;6.107883e-002
2.786752e+003;6.124434e-002
2.788680e+003;6.141732e-002
2.790609e+003;6.122591e-002
2.792538e+003;6.150347e-002
2.794466e+003;6.179083e-002
2.796395e+003;6.209964e-002
2.798323e+003;6.222339e-002
2.800252e+003;6.230715e-002
2.802180e+003;6.240024e-002
2.804109e+003;6.265137e-002
2.806037e+003;6.294831e-002
2.807966e+003;6.322686e-002
2.809895e+003;6.313331e-002
2.811823e+003;6.319297e-002
2.813751e+003;6.377209e-002
2.815680e+003;6.438237e-002
2.817609e+003;6.473325e-002
2.819537e+003;6.512456e-002
2.821466e+003;6.535579e-002
2.823394e+003;6.531195e-002
2.825323e+003;6.568733e-002
2.827251e+003;6.643732e-002
2.829180e+003;6.657897e-002
2.831108e+003;6.639543e-002
2.833037e+003;6.698424e-002
2.834966e+003;6.828675e-002
2.836894e+003;6.882280e-002
2.838823e+003;6.918845e-002
2.840751e+003;7.008407e-002
2.842680e+003;7.080543e-002
2.844608e+003;7.191167e-002
2.846537e+003;7.348928e-002
2.848465e+003;7.472503e-002
2.850394e+003;7.550886e-002
2.852323e+003;7.636020e-002
2.854251e+003;7.629479e-002
2.856180e+003;7.589033e-002
2.858108e+003;7.620845e-002
2.860037e+003;7.713195e-002
2.861965e+003;7.756803e-002
2.863894e+003;7.755476e-002
2.865822e+003;7.820989e-002
2.867751e+003;7.907803e-002
2.869679e+003;7.910800e-002
2.871608e+003;7.940999e-002
2.873536e+003;7.972702e-002
2.875465e+003;7.965393e-002
2.877394e+003;7.992221e-002
2.879322e+003;8.050135e-002
2.881251e+003;8.123907e-002
2.883179e+003;8.123156e-002
2.885108e+003;8.116142e-002
2.887036e+003;8.177349e-002
2.888965e+003;8.239973e-002
2.890893e+003;8.303279e-002
2.892822e+003;8.322379e-002
2.894750e+003;8.342068e-002
2.896679e+003;8.363365e-002
2.898608e+003;8.346224e-002
2.900536e+003;8.296894e-002
2.902465e+003;8.281230e-002
2.904393e+003;8.275357e-002
2.906322e+003;8.265576e-002
2.908250e+003;8.242080e-002
2.910179e+003;8.235422e-002
2.912107e+003;8.240076e-002
2.914036e+003;8.212378e-002
2.915965e+003;8.173417e-002
2.917893e+003;8.126276e-002
2.919822e+003;8.053206e-002
2.921750e+003;7.917313e-002
2.923679e+003;7.821957e-002
2.925607e+003;7.690877e-002
2.927536e+003;7.522655e-002
2.929464e+003;7.400607e-002
2.931393e+003;7.348308e-002
2.933322e+003;7.324781e-002
2.935250e+003;7.252133e-002
2.937178e+003;7.155494e-002
2.939107e+003;7.099576e-002
2.941036e+003;7.086562e-002
2.942964e+003;7.031035e-002
2.944893e+003;6.913521e-002
2.946821e+003;6.858379e-002
2.948750e+003;6.816086e-002
2.950678e+003;6.773369e-002
2.952607e+003;6.725510e-002
2.954535e+003;6.639825e-002
2.956464e+003;6.585908e-002
2.958393e+003;6.568410e-002
2.960321e+003;6.504850e-002
2.962250e+003;6.409094e-002
2.964178e+003;6.336094e-002
2.966107e+003;6.304698e-002
2.968035e+003;6.266569e-002
2.969964e+003;6.192432e-002
2.971892e+003;6.167338e-002
2.973821e+003;6.145331e-002
2.975750e+003;6.084400e-002
2.977678e+003;6.023129e-002
2.979607e+003;5.965053e-002
2.981535e+003;5.929043e-002
2.983464e+003;5.912566e-002
2.985392e+003;5.878145e-002
2.987321e+003;5.822705e-002
2.989249e+003;5.831686e-002
2.991178e+003;5.815477e-002
2.993106e+003;5.810253e-002
2.995035e+003;5.860299e-002
2.996964e+003;5.868229e-002
2.998892e+003;5.840266e-002
3.000821e+003;5.802001e-002
3.002749e+003;5.777124e-002
3.004678e+003;5.779902e-002
3.006606e+003;5.786246e-002
3.008535e+003;5.764775e-002
3.010463e+003;5.789093e-002
3.012392e+003;5.815856e-002
3.014321e+003;5.811022e-002
3.016249e+003;5.846839e-002
3.018177e+003;5.845850e-002
3.020106e+003;5.830750e-002
3.022035e+003;5.850145e-002
3.023963e+003;5.892225e-002
3.025892e+003;5.867736e-002
3.027820e+003;5.825824e-002
3.029749e+003;5.844785e-002
3.031677e+003;5.883478e-002
3.033606e+003;5.910080e-002
3.035534e+003;5.949607e-002
3.037463e+003;5.952943e-002
3.039392e+003;5.957937e-002
3.041320e+003;5.986626e-002
3.043249e+003;5.994320e-002
3.045177e+003;5.995679e-002
3.047106e+003;6.006882e-002
3.049034e+003;6.024754e-002
3.050963e+003;6.054454e-002
3.052891e+003;6.044666e-002
3.054820e+003;6.033544e-002
3.056749e+003;6.052611e-002
3.058677e+003;6.081027e-002
3.060606e+003;6.107723e-002
3.062534e+003;6.125464e-002
3.064463e+003;6.125666e-002
3.066391e+003;6.140235e-002
3.068320e+003;6.141873e-002
3.070248e+003;6.149724e-002
3.072177e+003;6.201635e-002
3.074105e+003;6.260633e-002
3.076034e+003;6.306821e-002
3.077963e+003;6.288948e-002
3.079891e+003;6.258574e-002
3.081820e+003;6.316638e-002
3.083748e+003;6.369170e-002
3.085677e+003;6.355245e-002
3.087605e+003;6.326227e-002
3.089534e+003;6.361601e-002
3.091462e+003;6.407647e-002
3.093391e+003;6.437176e-002
3.095320e+003;6.459028e-002
3.097248e+003;6.413665e-002
3.099177e+003;6.429119e-002
3.101105e+003;6.481802e-002
3.103034e+003;6.511167e-002
3.104962e+003;6.530749e-002
3.106891e+003;6.563912e-002
3.108819e+003;6.588688e-002
3.110748e+003;6.589536e-002
3.112677e+003;6.621664e-002
3.114605e+003;6.685286e-002
3.116533e+003;6.718285e-002
3.118462e+003;6.700052e-002
3.120391e+003;6.729309e-002
3.122319e+003;6.771348e-002
3.124248e+003;6.766387e-002
3.126176e+003;6.781653e-002
3.128105e+003;6.821638e-002
3.130033e+003;6.834794e-002
3.131962e+003;6.823316e-002
3.133890e+003;6.849173e-002
3.135819e+003;6.936812e-002
3.137748e+003;7.014833e-002
3.139676e+003;7.027475e-002
3.141605e+003;7.051766e-002
3.143533e+003;7.111923e-002
3.145462e+003;7.136030e-002
3.147390e+003;7.134008e-002
3.149319e+003;7.146888e-002
3.151247e+003;7.195511e-002
3.153176e+003;7.208308e-002
3.155104e+003;7.185634e-002
3.157033e+003;7.233933e-002
3.158962e+003;7.343485e-002
3.160890e+003;7.373277e-002
3.162819e+003;7.376159e-002
3.164747e+003;7.405432e-002
3.166676e+003;7.465585e-002
3.168604e+003;7.509469e-002
3.170533e+003;7.519164e-002
3.172461e+003;7.553627e-002
3.174390e+003;7.609533e-002
3.176319e+003;7.650650e-002
3.178247e+003;7.680693e-002
3.180176e+003;7.717810e-002
3.182104e+003;7.772651e-002
3.184033e+003;7.817958e-002
3.185961e+003;7.893498e-002
3.187890e+003;7.943951e-002
3.189818e+003;7.949120e-002
3.191747e+003;7.965054e-002
3.193676e+003;8.016121e-002
3.195604e+003;8.062381e-002
3.197532e+003;8.101505e-002
3.199461e+003;8.112755e-002
3.201390e+003;8.142576e-002
3.203318e+003;8.223592e-002
3.205247e+003;8.299705e-002
3.207175e+003;8.311585e-002
3.209104e+003;8.352344e-002
3.211032e+003;8.469775e-002
3.212961e+003;8.564321e-002
3.214889e+003;8.584274e-002
3.216818e+003;8.654964e-002
3.218747e+003;8.711449e-002
3.220675e+003;8.722541e-002
3.222604e+003;8.744087e-002
3.224532e+003;8.780315e-002
3.226461e+003;8.812810e-002
3.228389e+003;8.891273e-002
3.230318e+003;8.962844e-002
3.232246e+003;8.987374e-002
3.234175e+003;9.035039e-002
3.236104e+003;9.139874e-002
3.238032e+003;9.209239e-002
3.239961e+003;9.220333e-002
3.241889e+003;9.294955e-002
3.243818e+003;9.412288e-002
3.245746e+003;9.464435e-002
3.247675e+003;9.489056e-002
3.249603e+003;9.550814e-002
3.251532e+003;9.639591e-002
3.253460e+003;9.730739e-002
3.255389e+003;9.829212e-002
3.257318e+003;9.895779e-002
3.259246e+003;9.967630e-002
3.261175e+003;1.004710e-001
3.263103e+003;1.007515e-001
3.265032e+003;1.010246e-001
3.266960e+003;1.016402e-001
3.268889e+003;1.023412e-001
3.270817e+003;1.027384e-001
3.272746e+003;1.034236e-001
3.274675e+003;1.043466e-001
3.276603e+003;1.054760e-001
3.278531e+003;1.059324e-001
3.280460e+003;1.055177e-001
3.282389e+003;1.060851e-001
3.284317e+003;1.070344e-001
3.286246e+003;1.067676e-001
3.288174e+003;1.066047e-001
3.290103e+003;1.065932e-001
3.292031e+003;1.062302e-001
3.293960e+003;1.063693e-001
3.295888e+003;1.068394e-001
3.297817e+003;1.068345e-001
3.299746e+003;1.062742e-001
3.301674e+003;1.061030e-001
3.303603e+003;1.063186e-001
3.305531e+003;1.064179e-001
3.307460e+003;1.066507e-001
3.309388e+003;1.066921e-001
3.311317e+003;1.066013e-001
3.313245e+003;1.063490e-001
3.315174e+003;1.061835e-001
3.317103e+003;1.066427e-001
3.319031e+003;1.073567e-001
3.320960e+003;1.076711e-001
3.322888e+003;1.079705e-001
3.324817e+003;1.087688e-001
3.326745e+003;1.092022e-001
3.328674e+003;1.093669e-001
3.330602e+003;1.098959e-001
3.332531e+003;1.100375e-001
3.334459e+003;1.100817e-001
3.336388e+003;1.100395e-001
3.338317e+003;1.095657e-001
3.340245e+003;1.092658e-001
3.342174e+003;1.090323e-001
3.344102e+003;1.085953e-001
3.346031e+003;1.084534e-001
3.347959e+003;1.078320e-001
3.349888e+003;1.067164e-001
3.351816e+003;1.061467e-001
3.353745e+003;1.056139e-001
3.355674e+003;1.049314e-001
3.357602e+003;1.043108e-001
3.359531e+003;1.035198e-001
3.361459e+003;1.031184e-001
3.363388e+003;1.026773e-001
3.365316e+003;1.022333e-001
3.367245e+003;1.018517e-001
3.369173e+003;1.012960e-001
3.371102e+003;1.003506e-001
3.373031e+003;9.924360e-002
3.374959e+003;9.889363e-002
3.376887e+003;9.967513e-002
3.378816e+003;1.000780e-001
3.380745e+003;9.927221e-002
3.382673e+003;9.802005e-002
3.384602e+003;9.717964e-002
3.386530e+003;9.727108e-002
3.388459e+003;9.740379e-002
3.390387e+003;9.692277e-002
3.392316e+003;9.614095e-002
3.394244e+003;9.584023e-002
3.396173e+003;9.599201e-002
3.398102e+003;9.560500e-002
3.400030e+003;9.464719e-002
3.401959e+003;9.383272e-002
3.403887e+003;9.293376e-002
3.405816e+003;9.241241e-002
3.407744e+003;9.252281e-002
3.409673e+003;9.250883e-002
3.411601e+003;9.181926e-002
3.413530e+003;9.125514e-002
3.415458e+003;9.064847e-002
3.417387e+003;8.984660e-002
3.419316e+003;8.893696e-002
3.421244e+003;8.804794e-002
3.423173e+003;8.725316e-002
3.425101e+003;8.655947e-002
3.427030e+003;8.571546e-002
3.428958e+003;8.537170e-002
3.430887e+003;8.536585e-002
3.432815e+003;8.447439e-002
3.434744e+003;8.350401e-002
3.436673e+003;8.330711e-002
3.438601e+003;8.332409e-002
3.440530e+003;8.255188e-002
3.442458e+003;8.129069e-002
3.444387e+003;8.072858e-002
3.446315e+003;8.026399e-002
3.448244e+003;7.975564e-002
3.450172e+003;7.968438e-002
3.452101e+003;7.876474e-002
3.454030e+003;7.787685e-002
3.455958e+003;7.774182e-002
3.457886e+003;7.767766e-002
3.459815e+003;7.739959e-002
3.461744e+003;7.700074e-002
3.463672e+003;7.572418e-002
3.465601e+003;7.448783e-002
3.467529e+003;7.380322e-002
3.469458e+003;7.360902e-002
3.471386e+003;7.363497e-002
3.473315e+003;7.347009e-002
3.475243e+003;7.277709e-002
3.477172e+003;7.182511e-002
3.479101e+003;7.071075e-002
3.481029e+003;7.019576e-002
3.482958e+003;6.993306e-002
3.484886e+003;6.930449e-002
3.486815e+003;6.827391e-002
3.488743e+003;6.767011e-002
3.490672e+003;6.675625e-002
3.492600e+003;6.649598e-002
3.494529e+003;6.700968e-002
3.496458e+003;6.640338e-002
3.498386e+003;6.542985e-002
3.500315e+003;6.460074e-002
3.502243e+003;6.379745e-002
3.504172e+003;6.322248e-002
3.506100e+003;6.279600e-002
3.508029e+003;6.232038e-002
3.509957e+003;6.151416e-002
3.511886e+003;6.076518e-002
3.513814e+003;6.043703e-002
3.515743e+003;6.029805e-002
3.517672e+003;5.968409e-002
3.519600e+003;5.929594e-002
3.521529e+003;5.939333e-002
3.523457e+003;5.914127e-002
3.525386e+003;5.851680e-002
3.527314e+003;5.795874e-002
3.529243e+003;5.760568e-002
3.531171e+003;5.742351e-002
3.533100e+003;5.682277e-002
3.535029e+003;5.582223e-002
3.536957e+003;5.495565e-002
3.538885e+003;5.434367e-002
3.540814e+003;5.394758e-002
3.542743e+003;5.376540e-002
3.544671e+003;5.358011e-002
3.546600e+003;5.298208e-002
3.548528e+003;5.260720e-002
3.550457e+003;5.215388e-002
3.552385e+003;5.155754e-002
3.554314e+003;5.114087e-002
3.556242e+003;5.099702e-002
3.558171e+003;5.100466e-002
3.560100e+003;5.034537e-002
3.562028e+003;4.962205e-002
3.563957e+003;4.925035e-002
3.565885e+003;4.854912e-002
3.567814e+003;4.791723e-002
3.569742e+003;4.801580e-002
3.571671e+003;4.795193e-002
3.573599e+003;4.739545e-002
3.575528e+003;4.666048e-002
3.577457e+003;4.607551e-002
3.579385e+003;4.588423e-002
3.581314e+003;4.593188e-002
3.583242e+003;4.570713e-002
3.585171e+003;4.555722e-002
3.587099e+003;4.477169e-002
3.589028e+003;4.399741e-002
3.590956e+003;4.371935e-002
3.592885e+003;4.377168e-002
3.594813e+003;4.348500e-002
3.596742e+003;4.346402e-002
3.598671e+003;4.311768e-002
3.600599e+003;4.236197e-002
3.602528e+003;4.207049e-002
3.604456e+003;4.164688e-002
3.606385e+003;4.210393e-002
3.608313e+003;4.234853e-002
3.610242e+003;4.198939e-002
3.612170e+003;4.129062e-002
3.614099e+003;4.074951e-002
3.616028e+003;4.001764e-002
3.617956e+003;4.010208e-002
3.619885e+003;4.092402e-002
3.621813e+003;4.095198e-002
3.623742e+003;4.036966e-002
3.625670e+003;3.977911e-002
3.627599e+003;3.926429e-002
3.629527e+003;3.913892e-002
3.631456e+003;3.933575e-002
3.633385e+003;3.884920e-002
3.635313e+003;3.834464e-002
3.637241e+003;3.826162e-002
3.639170e+003;3.796048e-002
3.641099e+003;3.817663e-002
3.643027e+003;3.851503e-002
3.644956e+003;3.840371e-002
3.646884e+003;3.809072e-002
3.648813e+003;3.765579e-002
3.650741e+003;3.766313e-002
3.652670e+003;3.768347e-002
3.654598e+003;3.766866e-002
3.656527e+003;3.693264e-002
3.658456e+003;3.642518e-002
3.660384e+003;3.620526e-002
3.662313e+003;3.610327e-002
3.664241e+003;3.565994e-002
3.666170e+003;3.521954e-002
3.668098e+003;3.493655e-002
3.670027e+003;3.453405e-002
3.671955e+003;3.479121e-002
3.673884e+003;3.514718e-002
3.675813e+003;3.475603e-002
3.677741e+003;3.470938e-002
3.679669e+003;3.481247e-002
3.681598e+003;3.497178e-002
3.683527e+003;3.526974e-002
3.685455e+003;3.549520e-002
3.687384e+003;3.518857e-002
3.689312e+003;3.444142e-002
3.691241e+003;3.418949e-002
3.693169e+003;3.417256e-002
3.695098e+003;3.410837e-002
3.697026e+003;3.434972e-002
3.698955e+003;3.453172e-002
3.700884e+003;3.424351e-002
3.702812e+003;3.448440e-002
3.704741e+003;3.407690e-002
3.706669e+003;3.362847e-002
3.708598e+003;3.427850e-002
3.710526e+003;3.457280e-002
3.712455e+003;3.330394e-002
3.714383e+003;3.222584e-002
3.716312e+003;3.235119e-002
3.718240e+003;3.296700e-002
3.720169e+003;3.386540e-002
3.722098e+003;3.404558e-002
3.724026e+003;3.352186e-002
3.725955e+003;3.322013e-002
3.727883e+003;3.325171e-002
3.729812e+003;3.344259e-002
3.731740e+003;3.293601e-002
3.733669e+003;3.273932e-002
3.735597e+003;3.312385e-002
3.737526e+003;3.292228e-002
3.739455e+003;3.235694e-002
3.741383e+003;3.191103e-002
3.743312e+003;3.229387e-002
3.745240e+003;3.296864e-002
3.747169e+003;3.321594e-002
3.749097e+003;3.253903e-002
3.751026e+003;3.195874e-002
3.752954e+003;3.277765e-002
3.754883e+003;3.396495e-002
3.756812e+003;3.307365e-002
3.758740e+003;3.233634e-002
3.760668e+003;3.283783e-002
3.762597e+003;3.284483e-002
3.764526e+003;3.302066e-002
3.766454e+003;3.314963e-002
3.768383e+003;3.252282e-002
3.770311e+003;3.257649e-002
3.772240e+003;3.319216e-002
3.774168e+003;3.354026e-002
3.776097e+003;3.306178e-002
3.778025e+003;3.229526e-002
3.779954e+003;3.237871e-002
3.781883e+003;3.320893e-002
3.783811e+003;3.367601e-002
3.785740e+003;3.369940e-002
3.787668e+003;3.350754e-002
3.789597e+003;3.347057e-002
3.791525e+003;3.363964e-002
3.793454e+003;3.387926e-002
3.795382e+003;3.414665e-002
3.797311e+003;3.396090e-002
3.799240e+003;3.322703e-002
3.801168e+003;3.250064e-002
3.803097e+003;3.204702e-002
3.805025e+003;3.228016e-002
3.806954e+003;3.258846e-002
3.808882e+003;3.260403e-002
3.810811e+003;3.297797e-002
3.812739e+003;3.347924e-002
3.814668e+003;3.328351e-002
3.816596e+003;3.288343e-002
3.818525e+003;3.265197e-002
3.820454e+003;3.275286e-002
3.822382e+003;3.311126e-002
3.824311e+003;3.271088e-002
3.826239e+003;3.223887e-002
3.828168e+003;3.248993e-002
3.830096e+003;3.273092e-002
3.832025e+003;3.295356e-002
3.833953e+003;3.354642e-002
3.835882e+003;3.365364e-002
3.837811e+003;3.326842e-002
3.839739e+003;3.374169e-002
3.841667e+003;3.361927e-002
3.843596e+003;3.349842e-002
3.845525e+003;3.393217e-002
3.847453e+003;3.355970e-002
3.849382e+003;3.312514e-002
3.851310e+003;3.320174e-002
3.853239e+003;3.311148e-002
3.855167e+003;3.273181e-002
3.857096e+003;3.266915e-002
3.859024e+003;3.352813e-002
3.860953e+003;3.419995e-002
3.862882e+003;3.432243e-002
3.864810e+003;3.401587e-002
3.866739e+003;3.341482e-002
3.868667e+003;3.360999e-002
3.870596e+003;3.406138e-002
3.872524e+003;3.380587e-002
3.874453e+003;3.277222e-002
3.876381e+003;3.270794e-002
3.878310e+003;3.386042e-002
3.880239e+003;3.412303e-002
3.882167e+003;3.337728e-002
3.884096e+003;3.277011e-002
3.886024e+003;3.295059e-002
3.887953e+003;3.369517e-002
3.889881e+003;3.335067e-002
3.891810e+003;3.320990e-002
3.893738e+003;3.381976e-002
3.895667e+003;3.356034e-002
3.897595e+003;3.353543e-002
3.899524e+003;3.354653e-002
3.901453e+003;3.354230e-002
3.903381e+003;3.387890e-002
3.905310e+003;3.415518e-002
3.907238e+003;3.395291e-002
3.909167e+003;3.349974e-002
3.911095e+003;3.293905e-002
3.913024e+003;3.296253e-002
3.914952e+003;3.354423e-002
3.916881e+003;3.340269e-002
3.918810e+003;3.328308e-002
3.920738e+003;3.367576e-002
3.922667e+003;3.371207e-002
3.924595e+003;3.423218e-002
3.926524e+003;3.524811e-002
3.928452e+003;3.480047e-002
3.930381e+003;3.371698e-002
3.932309e+003;3.427047e-002
3.934238e+003;3.455023e-002
3.936167e+003;3.427452e-002
3.938095e+003;3.383373e-002
3.940023e+003;3.354535e-002
3.941952e+003;3.443127e-002
3.943881e+003;3.464800e-002
3.945809e+003;3.501046e-002
3.947738e+003;3.526625e-002
3.949666e+003;3.445907e-002
3.951595e+003;3.383043e-002
3.953523e+003;3.404429e-002
3.955452e+003;3.442263e-002
3.957380e+003;3.467672e-002
3.959309e+003;3.487073e-002
3.961238e+003;3.442862e-002
3.963166e+003;3.408812e-002
3.965095e+003;3.465077e-002
3.967023e+003;3.488388e-002
3.968952e+003;3.476113e-002
3.970880e+003;3.459077e-002
3.972809e+003;3.456741e-002
3.974737e+003;3.469376e-002
3.976666e+003;3.475535e-002
3.978594e+003;3.505787e-002
3.980523e+003;3.485361e-002
3.982452e+003;3.424315e-002
3.984380e+003;3.395822e-002
3.986309e+003;3.416676e-002
3.988237e+003;3.421379e-002
3.990166e+003;3.422960e-002
3.992094e+003;3.503032e-002
3.994023e+003;3.516805e-002
3.995951e+003;3.465479e-002
3.997880e+003;3.434462e-002
3.999809e+003;3.418135e-002
4.001737e+003;0.000000e+000
