3.992094e+002;0.000000e+000
4.011380e+002;0.000000e+000
4.030665e+002;0.000000e+000
4.049951e+002;0.000000e+000
4.069236e+002;0.000000e+000
4.088522e+002;0.000000e+000
4.107807e+002;0.000000e+000
4.127093e+002;0.000000e+000
4.146378e+002;0.000000e+000
4.165664e+002;0.000000e+000
4.184949e+002;0.000000e+000
4.204235e+002;0.000000e+000
4.223520e+002;0.000000e+000
4.242806e+002;0.000000e+000
4.262091e+002;0.000000e+000
4.281377e+002;0.000000e+000
4.300662e+002;0.000000e+000
4.319948e+002;0.000000e+000
4.339233e+002;0.000000e+000
4.358519e+002;0.000000e+000
4.377804e+002;0.000000e+000
4.397090e+002;0.000000e+000
4.416375e+002;0.000000e+000
4.435660e+002;0.000000e+000
4.454946e+002;0.000000e+000
4.474232e+002;0.000000e+000
4.493517e+002;0.000000e+000
4.512802e+002;0.000000e+000
4.532088e+002;0.000000e+000
4.551373e+002;0.000000e+000
4.570659e+002;0.000000e+000
4.589944e+002;0.000000e+000
4.609230e+002;0.000000e+000
4.628515e+002;0.000000e+000
4.647801e+002;0.000000e+000
4.667086e+002;0.000000e+000
4.686372e+002;0.000000e+000
4.705657e+002;0.000000e+000
4.724943e+002;0.000000e+000
4.744228e+002;0.000000e+000
4.763513e+002;0.000000e+000
4.782799e+002;0.000000e+000
4.802085e+002;0.000000e+000
4.821370e+002;0.000000e+000
4.840656e+002;0.000000e+000
4.859941e+002;0.000000e+000
4.879226e+002;0.000000e+000
4.898512e+002;0.000000e+000
4.917798e+002;0.000000e+000
4.937083e+002;0.000000e+000
4.956368e+002;0.000000e+000
4.975654e+002;0.000000e+000
4.994939e+002;0.000000e+000
5.014225e+002;0.000000e+000
5.033510e+002;0.000000e+000
5.052796e+002;0.000000e+000
5.072081e+002;0.000000e+000
5.091367e+002;0.000000e+000
5.110652e+002;0.000000e+000
5.129938e+002;0.000000e+000
5.149223e+002;0.000000e+000
5.168509e+002;0.000000e+000
5.187794e+002;0.000000e+000
5.207079e+002;0.000000e+000
5.226365e+002;0.000000e+000
5.245651e+002;0.000000e+000
5.264936e+002;0.000000e+000
5.284222e+002;0.000000e+000
5.303507e+002;0.000000e+000
5.322792e+002;0.000000e+000
5.342078e+002;0.000000e+000
5.361364e+002;0.000000e+000
5.380649e+002;0.000000e+000
5.399935e+002;0.000000e+000
5.419220e+002;0.000000e+000
5.438505e+002;0.000000e+000
5.457791e+002;0.000000e+000
5.477076e+002;0.000000e+000
5.496362e+002;0.000000e+000
5.515648e+002;0.000000e+000
5.534933e+002;0.000000e+000
5.554218e+002;0.000000e+000
5.573504e+002;0.000000e+000
5.592789e+002;0.000000e+000
5.612075e+002;0.000000e+000
5.631360e+002;0.000000e+000
5.650646e+002;0.000000e+000
5.669931e+002;0.000000e+000
5.689217e+002;0.000000e+000
5.708502e+002;0.000000e+000
5.727787e+002;0.000000e+000
5.747073e+002;0.000000e+000
5.766359e+002;0.000000e+000
5.785644e+002;0.000000e+000
5.804930e+002;0.000000e+000
5.824215e+002;0.000000e+000
5.843500e+002;0.000000e+000
5.862786e+002;0.000000e+000
5.882072e+002;0.000000e+000
5.901357e+002;0.000000e+000
5.920643e+002;0.000000e+000
5.939928e+002;0.000000e+000
5.959213e+002;0.000000e+000
5.978499e+002;0.000000e+000
5.997784e+002;2.748170e-001
6.017070e+002;2.712996e-001
6.036355e+002;2.748055e-001
6.055641e+002;2.789628e-001
6.074926e+002;2.760454e-001
6.094211e+002;2.804407e-001
6.113497e+002;2.848931e-001
6.132783e+002;2.851729e-001
6.152068e+002;2.801550e-001
6.171354e+002;2.750969e-001
6.190639e+002;2.692986e-001
6.209924e+002;2.604988e-001
6.229210e+002;2.547080e-001
6.248495e+002;2.505829e-001
6.267781e+002;2.476557e-001
6.287067e+002;2.460248e-001
6.306352e+002;2.412103e-001
6.325637e+002;2.397513e-001
6.344923e+002;2.422289e-001
6.364208e+002;2.456981e-001
6.383494e+002;2.454941e-001
6.402780e+002;2.429164e-001
6.422065e+002;2.383526e-001
6.441350e+002;2.316246e-001
6.460636e+002;2.284694e-001
6.479921e+002;2.296119e-001
6.499207e+002;2.320206e-001
6.518492e+002;2.347484e-001
6.537778e+002;2.399799e-001
6.557063e+002;2.476188e-001
6.576349e+002;2.519890e-001
6.595634e+002;2.523896e-001
6.614919e+002;2.530627e-001
6.634205e+002;2.536111e-001
6.653491e+002;2.538921e-001
6.672776e+002;2.498941e-001
6.692062e+002;2.439123e-001
6.711347e+002;2.405923e-001
6.730632e+002;2.363905e-001
6.749918e+002;2.282725e-001
6.769203e+002;2.201041e-001
6.788489e+002;2.135473e-001
6.807775e+002;2.080147e-001
6.827060e+002;2.053567e-001
6.846345e+002;2.033590e-001
6.865631e+002;2.014147e-001
6.884916e+002;2.012766e-001
6.904202e+002;2.015291e-001
6.923488e+002;2.002067e-001
6.942773e+002;1.985212e-001
6.962058e+002;1.976836e-001
6.981344e+002;1.970368e-001
7.000629e+002;1.963062e-001
7.019915e+002;1.951086e-001
7.039200e+002;1.934845e-001
7.058486e+002;1.920421e-001
7.077771e+002;1.895887e-001
7.097057e+002;1.876567e-001
7.116342e+002;1.861422e-001
7.135627e+002;1.835120e-001
7.154913e+002;1.799533e-001
7.174199e+002;1.764766e-001
7.193484e+002;1.733999e-001
7.212770e+002;1.701897e-001
7.232055e+002;1.655695e-001
7.251340e+002;1.610447e-001
7.270626e+002;1.575628e-001
7.289911e+002;1.548957e-001
7.309197e+002;1.516179e-001
7.328483e+002;1.493437e-001
7.347768e+002;1.481527e-001
7.367053e+002;1.463678e-001
7.386339e+002;1.446498e-001
7.405624e+002;1.430016e-001
7.424910e+002;1.410349e-001
7.444196e+002;1.386358e-001
7.463481e+002;1.366188e-001
7.482766e+002;1.365479e-001
7.502052e+002;1.355278e-001
7.521337e+002;1.332471e-001
7.540623e+002;1.316547e-001
7.559908e+002;1.306569e-001
7.579194e+002;1.290270e-001
7.598479e+002;1.278270e-001
7.617765e+002;1.264656e-001
7.637050e+002;1.249621e-001
7.656335e+002;1.239898e-001
7.675621e+002;1.229541e-001
7.694907e+002;1.225413e-001
7.714192e+002;1.223609e-001
7.733478e+002;1.215078e-001
7.752763e+002;1.211444e-001
7.772048e+002;1.204103e-001
7.791334e+002;1.191900e-001
7.810620e+002;1.192295e-001
7.829905e+002;1.190107e-001
7.849191e+002;1.174360e-001
7.868476e+002;1.163735e-001
7.887761e+002;1.162711e-001
7.907047e+002;1.163925e-001
7.926332e+002;1.167104e-001
7.945618e+002;1.166936e-001
7.964903e+002;1.163932e-001
7.984189e+002;1.164379e-001
8.003474e+002;1.169941e-001
8.022759e+002;1.171455e-001
8.042045e+002;1.166098e-001
8.061331e+002;1.160196e-001
8.080616e+002;1.163283e-001
8.099902e+002;1.171491e-001
8.119187e+002;1.165496e-001
8.138472e+002;1.155522e-001
8.157758e+002;1.148086e-001
8.177043e+002;1.138780e-001
8.196329e+002;1.130096e-001
8.215615e+002;1.115037e-001
8.234900e+002;1.099329e-001
8.254185e+002;1.086701e-001
8.273471e+002;1.081415e-001
8.292756e+002;1.078495e-001
8.312042e+002;1.075276e-001
8.331328e+002;1.073495e-001
8.350613e+002;1.069141e-001
8.369898e+002;1.066776e-001
8.389184e+002;1.068298e-001
8.408469e+002;1.073801e-001
8.427755e+002;1.074201e-001
8.447040e+002;1.073715e-001
8.466326e+002;1.077219e-001
8.485611e+002;1.080784e-001
8.504897e+002;1.086331e-001
8.524182e+002;1.094593e-001
8.543467e+002;1.102473e-001
8.562753e+002;1.110910e-001
8.582039e+002;1.119704e-001
8.601324e+002;1.136805e-001
8.620610e+002;1.156653e-001
8.639895e+002;1.179129e-001
8.659180e+002;1.199848e-001
8.678466e+002;1.217899e-001
8.697751e+002;1.236263e-001
8.717037e+002;1.258190e-001
8.736323e+002;1.279508e-001
8.755608e+002;1.294693e-001
8.774893e+002;1.305333e-001
8.794179e+002;1.318755e-001
8.813464e+002;1.341748e-001
8.832750e+002;1.368752e-001
8.852036e+002;1.394381e-001
8.871321e+002;1.424024e-001
8.890606e+002;1.454011e-001
8.909892e+002;1.478976e-001
8.929177e+002;1.496977e-001
8.948463e+002;1.509319e-001
8.967748e+002;1.514042e-001
8.987034e+002;1.508315e-001
9.006319e+002;1.495856e-001
9.025605e+002;1.479721e-001
9.044890e+002;1.459820e-001
9.064175e+002;1.442652e-001
9.083461e+002;1.422192e-001
9.102747e+002;1.397877e-001
9.122032e+002;1.384998e-001
9.141318e+002;1.378971e-001
9.160603e+002;1.368753e-001
9.179888e+002;1.359134e-001
9.199174e+002;1.362566e-001
9.218459e+002;1.370911e-001
9.237745e+002;1.379587e-001
9.257031e+002;1.393178e-001
9.276316e+002;1.411348e-001
9.295601e+002;1.430148e-001
9.314887e+002;1.445451e-001
9.334172e+002;1.462568e-001
9.353458e+002;1.480744e-001
9.372744e+002;1.499921e-001
9.392029e+002;1.522102e-001
9.411314e+002;1.546232e-001
9.430600e+002;1.568632e-001
9.449885e+002;1.592359e-001
9.469171e+002;1.621226e-001
9.488456e+002;1.654153e-001
9.507742e+002;1.688276e-001
9.527027e+002;1.726270e-001
9.546313e+002;1.770825e-001
9.565598e+002;1.822616e-001
9.584883e+002;1.879950e-001
9.604169e+002;1.936443e-001
9.623455e+002;1.996740e-001
9.642740e+002;2.067730e-001
9.662026e+002;2.141480e-001
9.681311e+002;2.222527e-001
9.700596e+002;2.312970e-001
9.719882e+002;2.419304e-001
9.739167e+002;2.545838e-001
9.758453e+002;2.695395e-001
9.777739e+002;2.870237e-001
9.797024e+002;3.052939e-001
9.816309e+002;3.216012e-001
9.835595e+002;3.329759e-001
9.854880e+002;3.372647e-001
9.874166e+002;3.377058e-001
9.893452e+002;3.394509e-001
9.912737e+002;3.445698e-001
9.932022e+002;3.525881e-001
9.951307e+002;3.615605e-001
9.970593e+002;3.709778e-001
9.989879e+002;3.792025e-001
1.000916e+003;3.844494e-001
1.002845e+003;3.867385e-001
1.004773e+003;3.873445e-001
1.006702e+003;3.873159e-001
1.008631e+003;3.882369e-001
1.010559e+003;3.914446e-001
1.012488e+003;3.967084e-001
1.014416e+003;4.033737e-001
1.016345e+003;4.097840e-001
1.018273e+003;4.160865e-001
1.020202e+003;4.235063e-001
1.022130e+003;4.306737e-001
1.024059e+003;4.375434e-001
1.025988e+003;4.444853e-001
1.027916e+003;4.495982e-001
1.029845e+003;4.519253e-001
1.031773e+003;4.507102e-001
1.033702e+003;4.452553e-001
1.035630e+003;4.359052e-001
1.037559e+003;4.255389e-001
1.039487e+003;4.164235e-001
1.041416e+003;4.112316e-001
1.043344e+003;4.111539e-001
1.045273e+003;4.147091e-001
1.047202e+003;4.212627e-001
1.049130e+003;4.282550e-001
1.051059e+003;4.334550e-001
1.052987e+003;4.358242e-001
1.054916e+003;4.337903e-001
1.056844e+003;4.277679e-001
1.058773e+003;4.165989e-001
1.060701e+003;3.990893e-001
1.062630e+003;3.784406e-001
1.064558e+003;3.574506e-001
1.066487e+003;3.384044e-001
1.068416e+003;3.231893e-001
1.070344e+003;3.114727e-001
1.072273e+003;3.022233e-001
1.074201e+003;2.948314e-001
1.076130e+003;2.886201e-001
1.078058e+003;2.821515e-001
1.079987e+003;2.754076e-001
1.081915e+003;2.699814e-001
1.083844e+003;2.678231e-001
1.085773e+003;2.676516e-001
1.087701e+003;2.679000e-001
1.089630e+003;2.683085e-001
1.091558e+003;2.692276e-001
1.093487e+003;2.710920e-001
1.095415e+003;2.740738e-001
1.097344e+003;2.775382e-001
1.099272e+003;2.807091e-001
1.101201e+003;2.827440e-001
1.103129e+003;2.832074e-001
1.105058e+003;2.817620e-001
1.106987e+003;2.785350e-001
1.108915e+003;2.743525e-001
1.110844e+003;2.676953e-001
1.112772e+003;2.563212e-001
1.114701e+003;2.421678e-001
1.116629e+003;2.286540e-001
1.118558e+003;2.174621e-001
1.120486e+003;2.087845e-001
1.122415e+003;2.017202e-001
1.124344e+003;1.945286e-001
1.126272e+003;1.860662e-001
1.128201e+003;1.771396e-001
1.130129e+003;1.696919e-001
1.132058e+003;1.643241e-001
1.133986e+003;1.598999e-001
1.135915e+003;1.563507e-001
1.137843e+003;1.545870e-001
1.139772e+003;1.551709e-001
1.141700e+003;1.574565e-001
1.143629e+003;1.599711e-001
1.145557e+003;1.624846e-001
1.147486e+003;1.651099e-001
1.149415e+003;1.674355e-001
1.151343e+003;1.694997e-001
1.153272e+003;1.716708e-001
1.155200e+003;1.737112e-001
1.157129e+003;1.750684e-001
1.159057e+003;1.763893e-001
1.160986e+003;1.761310e-001
1.162914e+003;1.724780e-001
1.164843e+003;1.651864e-001
1.166771e+003;1.563879e-001
1.168700e+003;1.468799e-001
1.170629e+003;1.375062e-001
1.172557e+003;1.292451e-001
1.174486e+003;1.218719e-001
1.176414e+003;1.160998e-001
1.178343e+003;1.119193e-001
1.180271e+003;1.087361e-001
1.182200e+003;1.065625e-001
1.184128e+003;1.049326e-001
1.186057e+003;1.042468e-001
1.187986e+003;1.048981e-001
1.189914e+003;1.066315e-001
1.191843e+003;1.086958e-001
1.193771e+003;1.111533e-001
1.195700e+003;1.139506e-001
1.197628e+003;1.163622e-001
1.199557e+003;1.180274e-001
1.201485e+003;1.188800e-001
1.203414e+003;1.191514e-001
1.205343e+003;1.183407e-001
1.207271e+003;1.151941e-001
1.209200e+003;1.105783e-001
1.211128e+003;1.065010e-001
1.213057e+003;1.034707e-001
1.214985e+003;1.021679e-001
1.216914e+003;1.029324e-001
1.218842e+003;1.043136e-001
1.220771e+003;1.053870e-001
1.222699e+003;1.069335e-001
1.224628e+003;1.089914e-001
1.226557e+003;1.110868e-001
1.228485e+003;1.132316e-001
1.230414e+003;1.154305e-001
1.232342e+003;1.171848e-001
1.234271e+003;1.183972e-001
1.236199e+003;1.188443e-001
1.238128e+003;1.187592e-001
1.240056e+003;1.188625e-001
1.241985e+003;1.196605e-001
1.243913e+003;1.210584e-001
1.245842e+003;1.224487e-001
1.247771e+003;1.230744e-001
1.249699e+003;1.229660e-001
1.251628e+003;1.224748e-001
1.253556e+003;1.219067e-001
1.255485e+003;1.219964e-001
1.257413e+003;1.226138e-001
1.259342e+003;1.228407e-001
1.261270e+003;1.226555e-001
1.263199e+003;1.224358e-001
1.265127e+003;1.225180e-001
1.267056e+003;1.230845e-001
1.268985e+003;1.239749e-001
1.270913e+003;1.249305e-001
1.272842e+003;1.259943e-001
1.274770e+003;1.268486e-001
1.276699e+003;1.272032e-001
1.278627e+003;1.273224e-001
1.280556e+003;1.268757e-001
1.282484e+003;1.257496e-001
1.284413e+003;1.243836e-001
1.286342e+003;1.235773e-001
1.288270e+003;1.237126e-001
1.290199e+003;1.246158e-001
1.292127e+003;1.256272e-001
1.294056e+003;1.264737e-001
1.295984e+003;1.275686e-001
1.297913e+003;1.295810e-001
1.299841e+003;1.326105e-001
1.301770e+003;1.364031e-001
1.303698e+003;1.408288e-001
1.305627e+003;1.456137e-001
1.307556e+003;1.507821e-001
1.309484e+003;1.556857e-001
1.311413e+003;1.597441e-001
1.313341e+003;1.622526e-001
1.315270e+003;1.623748e-001
1.317198e+003;1.597998e-001
1.319127e+003;1.555973e-001
1.321055e+003;1.512460e-001
1.322984e+003;1.476636e-001
1.324912e+003;1.453434e-001
1.326841e+003;1.444982e-001
1.328770e+003;1.449913e-001
1.330698e+003;1.463396e-001
1.332627e+003;1.478567e-001
1.334555e+003;1.485866e-001
1.336484e+003;1.478440e-001
1.338412e+003;1.457027e-001
1.340341e+003;1.427377e-001
1.342269e+003;1.393915e-001
1.344198e+003;1.359631e-001
1.346126e+003;1.332582e-001
1.348055e+003;1.315545e-001
1.349984e+003;1.313018e-001
1.351912e+003;1.324642e-001
1.353841e+003;1.339743e-001
1.355769e+003;1.352093e-001
1.357698e+003;1.361822e-001
1.359626e+003;1.374278e-001
1.361555e+003;1.378608e-001
1.363483e+003;1.370033e-001
1.365412e+003;1.362759e-001
1.367341e+003;1.357839e-001
1.369269e+003;1.352078e-001
1.371198e+003;1.338071e-001
1.373126e+003;1.309252e-001
1.375055e+003;1.272761e-001
1.376983e+003;1.237253e-001
1.378912e+003;1.201550e-001
1.380840e+003;1.169543e-001
1.382769e+003;1.140825e-001
1.384698e+003;1.112101e-001
1.386626e+003;1.088265e-001
1.388555e+003;1.072529e-001
1.390483e+003;1.064205e-001
1.392412e+003;1.057892e-001
1.394340e+003;1.053913e-001
1.396269e+003;1.053270e-001
1.398197e+003;1.053491e-001
1.400126e+003;1.053775e-001
1.402054e+003;1.057928e-001
1.403983e+003;1.062642e-001
1.405911e+003;1.065294e-001
1.407840e+003;1.067734e-001
1.409769e+003;1.074414e-001
1.411697e+003;1.086033e-001
1.413626e+003;1.099669e-001
1.415554e+003;1.113196e-001
1.417483e+003;1.129272e-001
1.419411e+003;1.151028e-001
1.421340e+003;1.173769e-001
1.423268e+003;1.191228e-001
1.425197e+003;1.203365e-001
1.427125e+003;1.210013e-001
1.429054e+003;1.208975e-001
1.430983e+003;1.198750e-001
1.432911e+003;1.179296e-001
1.434840e+003;1.153859e-001
1.436768e+003;1.130037e-001
1.438697e+003;1.114318e-001
1.440625e+003;1.102342e-001
1.442554e+003;1.095587e-001
1.444482e+003;1.092541e-001
1.446411e+003;1.086899e-001
1.448340e+003;1.083329e-001
1.450268e+003;1.079285e-001
1.452197e+003;1.070904e-001
1.454125e+003;1.058945e-001
1.456054e+003;1.043553e-001
1.457982e+003;1.027804e-001
1.459911e+003;1.012459e-001
1.461839e+003;9.938862e-002
1.463768e+003;9.722884e-002
1.465697e+003;9.495970e-002
1.467625e+003;9.287503e-002
1.469554e+003;9.072498e-002
1.471482e+003;8.880600e-002
1.473411e+003;8.730206e-002
1.475339e+003;8.601227e-002
1.477268e+003;8.495958e-002
1.479196e+003;8.397271e-002
1.481125e+003;8.275320e-002
1.483053e+003;8.098910e-002
1.484982e+003;7.887546e-002
1.486911e+003;7.697590e-002
1.488839e+003;7.516150e-002
1.490768e+003;7.379081e-002
1.492696e+003;7.301297e-002
1.494625e+003;7.221840e-002
1.496553e+003;7.163074e-002
1.498482e+003;7.132809e-002
1.500410e+003;7.119992e-002
1.502339e+003;7.108700e-002
1.504267e+003;7.064247e-002
1.506196e+003;7.011671e-002
1.508125e+003;7.004218e-002
1.510053e+003;7.019623e-002
1.511982e+003;7.014252e-002
1.513910e+003;7.005370e-002
1.515839e+003;6.968481e-002
1.517767e+003;6.929220e-002
1.519696e+003;6.894814e-002
1.521624e+003;6.877928e-002
1.523553e+003;6.887052e-002
1.525481e+003;6.880149e-002
1.527410e+003;6.881884e-002
1.529339e+003;6.879955e-002
1.531267e+003;6.890143e-002
1.533196e+003;6.901938e-002
1.535124e+003;6.898990e-002
1.537053e+003;6.892368e-002
1.538981e+003;6.860886e-002
1.540910e+003;6.844665e-002
1.542838e+003;6.863920e-002
1.544767e+003;6.890322e-002
1.546695e+003;6.905406e-002
1.548624e+003;6.902633e-002
1.550553e+003;6.897308e-002
1.552481e+003;6.891479e-002
1.554410e+003;6.900757e-002
1.556338e+003;6.907515e-002
1.558267e+003;6.906032e-002
1.560195e+003;6.914959e-002
1.562124e+003;6.947795e-002
1.564052e+003;6.986682e-002
1.565981e+003;7.002567e-002
1.567910e+003;6.984900e-002
1.569838e+003;6.989975e-002
1.571767e+003;7.021259e-002
1.573695e+003;7.028320e-002
1.575624e+003;7.036221e-002
1.577552e+003;7.082684e-002
1.579481e+003;7.119144e-002
1.581409e+003;7.124934e-002
1.583338e+003;7.138936e-002
1.585266e+003;7.166149e-002
1.587195e+003;7.200982e-002
1.589124e+003;7.227988e-002
1.591052e+003;7.260278e-002
1.592981e+003;7.289864e-002
1.594909e+003;7.301281e-002
1.596838e+003;7.338506e-002
1.598766e+003;7.391331e-002
1.600695e+003;7.429789e-002
1.602623e+003;7.469564e-002
1.604552e+003;7.495449e-002
1.606480e+003;7.507741e-002
1.608409e+003;7.550157e-002
1.610338e+003;7.584006e-002
1.612266e+003;7.581910e-002
1.614195e+003;7.590204e-002
1.616123e+003;7.589751e-002
1.618052e+003;7.594324e-002
1.619980e+003;7.605167e-002
1.621909e+003;7.625059e-002
1.623837e+003;7.652990e-002
1.625766e+003;7.682829e-002
1.627694e+003;7.716579e-002
1.629623e+003;7.732029e-002
1.631552e+003;7.714441e-002
1.633480e+003;7.712079e-002
1.635409e+003;7.718807e-002
1.637337e+003;7.709911e-002
1.639266e+003;7.730338e-002
1.641194e+003;7.730184e-002
1.643123e+003;7.698710e-002
1.645051e+003;7.682852e-002
1.646980e+003;7.672038e-002
1.648909e+003;7.653283e-002
1.650837e+003;7.605048e-002
1.652766e+003;7.572269e-002
1.654694e+003;7.571176e-002
1.656623e+003;7.566530e-002
1.658551e+003;7.533653e-002
1.660480e+003;7.477742e-002
1.662408e+003;7.404874e-002
1.664337e+003;7.353182e-002
1.666266e+003;7.327467e-002
1.668194e+003;7.274485e-002
1.670123e+003;7.204088e-002
1.672051e+003;7.182010e-002
1.673980e+003;7.182092e-002
1.675908e+003;7.143076e-002
1.677837e+003;7.092662e-002
1.679765e+003;7.027444e-002
1.681694e+003;6.982078e-002
1.683622e+003;6.951216e-002
1.685551e+003;6.903619e-002
1.687479e+003;6.878316e-002
1.689408e+003;6.867673e-002
1.691337e+003;6.851000e-002
1.693265e+003;6.829698e-002
1.695194e+003;6.789374e-002
1.697122e+003;6.766755e-002
1.699051e+003;6.750871e-002
1.700979e+003;6.715523e-002
1.702908e+003;6.711199e-002
1.704836e+003;6.732489e-002
1.706765e+003;6.743807e-002
1.708693e+003;6.733782e-002
1.710622e+003;6.711552e-002
1.712551e+003;6.691949e-002
1.714479e+003;6.690438e-002
1.716408e+003;6.687620e-002
1.718336e+003;6.700125e-002
1.720265e+003;6.719051e-002
1.722193e+003;6.733770e-002
1.724122e+003;6.731448e-002
1.726050e+003;6.708315e-002
1.727979e+003;6.698807e-002
1.729908e+003;6.712677e-002
1.731836e+003;6.697918e-002
1.733765e+003;6.645215e-002
1.735693e+003;6.623212e-002
1.737622e+003;6.628179e-002
1.739550e+003;6.591561e-002
1.741479e+003;6.542350e-002
1.743407e+003;6.496996e-002
1.745336e+003;6.460869e-002
1.747265e+003;6.430729e-002
1.749193e+003;6.389114e-002
1.751122e+003;6.355559e-002
1.753050e+003;6.349166e-002
1.754979e+003;6.341462e-002
1.756907e+003;6.327143e-002
1.758836e+003;6.324157e-002
1.760764e+003;6.342555e-002
1.762693e+003;6.348069e-002
1.764621e+003;6.328243e-002
1.766550e+003;6.317539e-002
1.768479e+003;6.331747e-002
1.770407e+003;6.325874e-002
1.772336e+003;6.303921e-002
1.774264e+003;6.306909e-002
1.776193e+003;6.304626e-002
1.778121e+003;6.287416e-002
1.780050e+003;6.254506e-002
1.781978e+003;6.249991e-002
1.783907e+003;6.266378e-002
1.785835e+003;6.263496e-002
1.787764e+003;6.257591e-002
1.789693e+003;6.255995e-002
1.791621e+003;6.247546e-002
1.793550e+003;6.239937e-002
1.795478e+003;6.247469e-002
1.797407e+003;6.251992e-002
1.799335e+003;6.250580e-002
1.801264e+003;6.252160e-002
1.803192e+003;6.245434e-002
1.805121e+003;6.234566e-002
1.807049e+003;6.232964e-002
1.808978e+003;6.226408e-002
1.810907e+003;6.211806e-002
1.812835e+003;6.210304e-002
1.814764e+003;6.222837e-002
1.816692e+003;6.223219e-002
1.818621e+003;6.209987e-002
1.820549e+003;6.208197e-002
1.822478e+003;6.213056e-002
1.824406e+003;6.221078e-002
1.826335e+003;6.225024e-002
1.828264e+003;6.212854e-002
1.830192e+003;6.206695e-002
1.832121e+003;6.185929e-002
1.834049e+003;6.163073e-002
1.835978e+003;6.158655e-002
1.837906e+003;6.179389e-002
1.839835e+003;6.211435e-002
1.841763e+003;6.206726e-002
1.843692e+003;6.170149e-002
1.845620e+003;6.144968e-002
1.847549e+003;6.156528e-002
1.849478e+003;6.176971e-002
1.851406e+003;6.166529e-002
1.853335e+003;6.148018e-002
1.855263e+003;6.125540e-002
1.857192e+003;6.103356e-002
1.859120e+003;6.102189e-002
1.861049e+003;6.116305e-002
1.862977e+003;6.129241e-002
1.864906e+003;6.133649e-002
1.866834e+003;6.132263e-002
1.868763e+003;6.119864e-002
1.870692e+003;6.098506e-002
1.872620e+003;6.076084e-002
1.874549e+003;6.074781e-002
1.876477e+003;6.091525e-002
1.878406e+003;6.102281e-002
1.880334e+003;6.104100e-002
1.882263e+003;6.098067e-002
1.884191e+003;6.077262e-002
1.886120e+003;6.068245e-002
1.888048e+003;6.066241e-002
1.889977e+003;6.063487e-002
1.891906e+003;6.062412e-002
1.893834e+003;6.069392e-002
1.895763e+003;6.068310e-002
1.897691e+003;6.071873e-002
1.899620e+003;6.084534e-002
1.901548e+003;6.060683e-002
1.903477e+003;6.040382e-002
1.905405e+003;6.048597e-002
1.907334e+003;6.062565e-002
1.909262e+003;6.077292e-002
1.911191e+003;6.084080e-002
1.913120e+003;6.091178e-002
1.915048e+003;6.097198e-002
1.916977e+003;6.091468e-002
1.918905e+003;6.089226e-002
1.920834e+003;6.099924e-002
1.922762e+003;6.113512e-002
1.924691e+003;6.121317e-002
1.926619e+003;6.104634e-002
1.928548e+003;6.075314e-002
1.930477e+003;6.060915e-002
1.932405e+003;6.072967e-002
1.934334e+003;6.090080e-002
1.936262e+003;6.085853e-002
1.938191e+003;6.086676e-002
1.940119e+003;6.110591e-002
1.942048e+003;6.131172e-002
1.943976e+003;6.134588e-002
1.945905e+003;6.123831e-002
1.947833e+003;6.128074e-002
1.949762e+003;6.125887e-002
1.951691e+003;6.124285e-002
1.953619e+003;6.121245e-002
1.955548e+003;6.110328e-002
1.957476e+003;6.108333e-002
1.959405e+003;6.117620e-002
1.961333e+003;6.105435e-002
1.963262e+003;6.097751e-002
1.965190e+003;6.114073e-002
1.967119e+003;6.131470e-002
1.969047e+003;6.139300e-002
1.970976e+003;6.135683e-002
1.972905e+003;6.118715e-002
1.974833e+003;6.094884e-002
1.976762e+003;6.099852e-002
1.978690e+003;6.125544e-002
1.980619e+003;6.146980e-002
1.982547e+003;6.132664e-002
1.984476e+003;6.131447e-002
1.986404e+003;6.157185e-002
1.988333e+003;6.169175e-002
1.990261e+003;6.164531e-002
1.992190e+003;6.163076e-002
1.994119e+003;6.169962e-002
1.996047e+003;6.169129e-002
1.997976e+003;6.147201e-002
1.999904e+003;6.125166e-002
2.001833e+003;6.121256e-002
2.003761e+003;6.136160e-002
2.005690e+003;6.161667e-002
2.007618e+003;6.190957e-002
2.009547e+003;6.211516e-002
2.011476e+003;6.205931e-002
2.013404e+003;6.205916e-002
2.015333e+003;6.233526e-002
2.017261e+003;6.236000e-002
2.019190e+003;6.222573e-002
2.021118e+003;6.243027e-002
2.023047e+003;6.250404e-002
2.024975e+003;6.230359e-002
2.026904e+003;6.225621e-002
2.028833e+003;6.238532e-002
2.030761e+003;6.240874e-002
2.032690e+003;6.245170e-002
2.034618e+003;6.244646e-002
2.036547e+003;6.225892e-002
2.038475e+003;6.214165e-002
2.040404e+003;6.241153e-002
2.042332e+003;6.263901e-002
2.044261e+003;6.268142e-002
2.046189e+003;6.271821e-002
2.048118e+003;6.251728e-002
2.050047e+003;6.223980e-002
2.051975e+003;6.228007e-002
2.053904e+003;6.238762e-002
2.055832e+003;6.234061e-002
2.057761e+003;6.225223e-002
2.059689e+003;6.231916e-002
2.061618e+003;6.238475e-002
2.063546e+003;6.209815e-002
2.065475e+003;6.180466e-002
2.067404e+003;6.183178e-002
2.069332e+003;6.181620e-002
2.071260e+003;6.172391e-002
2.073189e+003;6.190591e-002
2.075118e+003;6.186093e-002
2.077046e+003;6.156826e-002
2.078975e+003;6.160319e-002
2.080903e+003;6.178495e-002
2.082832e+003;6.200389e-002
2.084760e+003;6.193655e-002
2.086689e+003;6.149961e-002
2.088617e+003;6.133408e-002
2.090546e+003;6.161056e-002
2.092475e+003;6.211898e-002
2.094403e+003;6.212334e-002
2.096332e+003;6.181432e-002
2.098260e+003;6.179675e-002
2.100189e+003;6.201318e-002
2.102117e+003;6.211737e-002
2.104046e+003;6.208117e-002
2.105974e+003;6.218206e-002
2.107903e+003;6.211348e-002
2.109832e+003;6.185826e-002
2.111760e+003;6.189131e-002
2.113688e+003;6.187832e-002
2.115617e+003;6.157078e-002
2.117546e+003;6.157188e-002
2.119474e+003;6.186602e-002
2.121403e+003;6.184107e-002
2.123331e+003;6.175428e-002
2.125260e+003;6.185241e-002
2.127188e+003;6.209581e-002
2.129117e+003;6.222500e-002
2.131045e+003;6.229498e-002
2.132974e+003;6.241329e-002
2.134903e+003;6.242435e-002
2.136831e+003;6.234176e-002
2.138760e+003;6.216474e-002
2.140688e+003;6.222091e-002
2.142617e+003;6.233885e-002
2.144545e+003;6.216287e-002
2.146474e+003;6.198642e-002
2.148402e+003;6.190346e-002
2.150331e+003;6.189815e-002
2.152260e+003;6.201623e-002
2.154188e+003;6.194408e-002
2.156117e+003;6.170901e-002
2.158045e+003;6.174495e-002
2.159974e+003;6.194301e-002
2.161902e+003;6.181215e-002
2.163831e+003;6.154405e-002
2.165759e+003;6.139743e-002
2.167688e+003;6.143220e-002
2.169616e+003;6.139193e-002
2.171545e+003;6.110648e-002
2.173474e+003;6.099863e-002
2.175402e+003;6.112162e-002
2.177331e+003;6.109885e-002
2.179259e+003;6.108096e-002
2.181188e+003;6.124903e-002
2.183116e+003;6.101426e-002
2.185045e+003;6.075646e-002
2.186973e+003;6.074792e-002
2.188902e+003;6.071984e-002
2.190831e+003;6.056294e-002
2.192759e+003;6.026711e-002
2.194688e+003;6.023426e-002
2.196616e+003;6.035139e-002
2.198545e+003;6.043524e-002
2.200473e+003;6.017648e-002
2.202402e+003;5.990217e-002
2.204330e+003;6.010402e-002
2.206259e+003;6.016510e-002
2.208188e+003;5.996542e-002
2.210116e+003;6.017739e-002
2.212044e+003;6.030791e-002
2.213973e+003;6.023052e-002
2.215902e+003;6.028511e-002
2.217830e+003;6.016000e-002
2.219759e+003;6.003017e-002
2.221687e+003;6.026006e-002
2.223616e+003;6.044739e-002
2.225544e+003;6.047953e-002
2.227473e+003;6.059315e-002
2.229401e+003;6.050809e-002
2.231330e+003;6.041989e-002
2.233259e+003;6.030609e-002
2.235187e+003;6.004896e-002
2.237116e+003;6.001385e-002
2.239044e+003;6.004820e-002
2.240973e+003;5.997820e-002
2.242901e+003;5.996401e-002
2.244830e+003;6.025774e-002
2.246758e+003;6.052405e-002
2.248687e+003;6.033483e-002
2.250615e+003;6.008686e-002
2.252544e+003;6.010105e-002
2.254473e+003;6.007160e-002
2.256401e+003;6.006399e-002
2.258330e+003;6.019558e-002
2.260258e+003;6.000258e-002
2.262187e+003;5.973941e-002
2.264115e+003;5.971325e-002
2.266044e+003;5.977351e-002
2.267972e+003;5.994986e-002
2.269901e+003;5.972549e-002
2.271830e+003;5.921075e-002
2.273758e+003;5.921250e-002
2.275687e+003;5.950021e-002
2.277615e+003;5.967443e-002
2.279544e+003;5.967307e-002
2.281472e+003;5.937080e-002
2.283401e+003;5.910064e-002
2.285329e+003;5.918816e-002
2.287258e+003;5.951450e-002
2.289187e+003;5.972233e-002
2.291115e+003;5.966394e-002
2.293043e+003;5.959423e-002
2.294972e+003;5.950416e-002
2.296901e+003;5.930182e-002
2.298829e+003;5.911230e-002
2.300758e+003;5.915270e-002
2.302686e+003;5.907942e-002
2.304615e+003;5.898377e-002
2.306543e+003;5.907016e-002
2.308472e+003;5.883190e-002
2.310400e+003;5.865009e-002
2.312329e+003;5.890240e-002
2.314258e+003;5.909248e-002
2.316186e+003;5.879962e-002
2.318115e+003;5.858414e-002
2.320043e+003;5.884829e-002
2.321972e+003;5.911989e-002
2.323900e+003;5.942905e-002
2.325829e+003;5.957625e-002
2.327757e+003;5.954368e-002
2.329686e+003;5.971808e-002
2.331615e+003;5.970888e-002
2.333543e+003;5.946544e-002
2.335472e+003;5.923004e-002
2.337400e+003;5.921960e-002
2.339329e+003;5.935135e-002
2.341257e+003;5.940868e-002
2.343186e+003;5.964844e-002
2.345114e+003;5.967181e-002
2.347043e+003;5.986911e-002
2.348971e+003;6.008321e-002
2.350900e+003;5.997131e-002
2.352829e+003;5.997489e-002
2.354757e+003;6.027548e-002
2.356686e+003;6.029478e-002
2.358614e+003;5.986459e-002
2.360543e+003;5.973119e-002
2.362471e+003;6.000205e-002
2.364400e+003;6.027053e-002
2.366328e+003;6.042979e-002
2.368257e+003;6.031591e-002
2.370186e+003;6.013172e-002
2.372114e+003;6.027114e-002
2.374042e+003;6.049575e-002
2.375971e+003;6.035665e-002
2.377900e+003;6.036811e-002
2.379828e+003;6.071401e-002
2.381757e+003;6.073531e-002
2.383685e+003;6.058892e-002
2.385614e+003;6.059395e-002
2.387542e+003;6.057178e-002
2.389471e+003;6.047580e-002
2.391399e+003;6.058877e-002
2.393328e+003;6.092585e-002
2.395257e+003;6.127433e-002
2.397185e+003;6.146178e-002
2.399114e+003;6.128326e-002
2.401042e+003;6.092947e-002
2.402971e+003;6.113943e-002
2.404899e+003;6.163660e-002
2.406828e+003;6.185375e-002
2.408756e+003;6.189826e-002
2.410685e+003;6.186682e-002
2.412614e+003;6.178097e-002
2.414542e+003;6.198398e-002
2.416471e+003;6.221823e-002
2.418399e+003;6.239539e-002
2.420328e+003;6.241027e-002
2.422256e+003;6.219162e-002
2.424185e+003;6.189402e-002
2.426113e+003;6.172536e-002
2.428042e+003;6.208056e-002
2.429970e+003;6.243066e-002
2.431899e+003;6.231766e-002
2.433828e+003;6.213140e-002
2.435756e+003;6.234145e-002
2.437685e+003;6.275898e-002
2.439613e+003;6.293314e-002
2.441542e+003;6.304438e-002
2.443470e+003;6.297355e-002
2.445399e+003;6.288354e-002
2.447327e+003;6.289695e-002
2.449256e+003;6.287611e-002
2.451185e+003;6.283368e-002
2.453113e+003;6.320041e-002
2.455042e+003;6.340492e-002
2.456970e+003;6.333981e-002
2.458899e+003;6.327830e-002
2.460827e+003;6.286711e-002
2.462756e+003;6.285077e-002
2.464684e+003;6.324878e-002
2.466613e+003;6.352882e-002
2.468542e+003;6.364205e-002
2.470470e+003;6.365330e-002
2.472398e+003;6.348617e-002
2.474327e+003;6.347617e-002
2.476256e+003;6.364512e-002
2.478184e+003;6.362844e-002
2.480113e+003;6.342781e-002
2.482041e+003;6.332483e-002
2.483970e+003;6.365284e-002
2.485898e+003;6.394784e-002
2.487827e+003;6.403615e-002
2.489755e+003;6.404129e-002
2.491684e+003;6.382163e-002
2.493613e+003;6.377554e-002
2.495541e+003;6.404882e-002
2.497470e+003;6.427547e-002
2.499398e+003;6.448030e-002
2.501327e+003;6.474914e-002
2.503255e+003;6.446915e-002
2.505184e+003;6.417114e-002
2.507112e+003;6.456790e-002
2.509041e+003;6.454899e-002
2.510969e+003;6.428950e-002
2.512898e+003;6.446119e-002
2.514827e+003;6.476525e-002
2.516755e+003;6.496722e-002
2.518684e+003;6.515417e-002
2.520612e+003;6.506040e-002
2.522541e+003;6.497096e-002
2.524469e+003;6.501983e-002
2.526398e+003;6.492624e-002
2.528326e+003;6.492836e-002
2.530255e+003;6.501094e-002
2.532184e+003;6.493121e-002
2.534112e+003;6.484799e-002
2.536041e+003;6.485876e-002
2.537969e+003;6.471840e-002
2.539898e+003;6.459589e-002
2.541826e+003;6.469429e-002
2.543755e+003;6.500302e-002
2.545683e+003;6.524518e-002
2.547612e+003;6.496788e-002
2.549541e+003;6.505924e-002
2.551469e+003;6.520283e-002
2.553397e+003;6.483275e-002
2.555326e+003;6.462403e-002
2.557255e+003;6.503242e-002
2.559183e+003;6.524099e-002
2.561112e+003;6.516644e-002
2.563040e+003;6.532381e-002
2.564969e+003;6.544939e-002
2.566897e+003;6.509585e-002
2.568826e+003;6.482299e-002
2.570754e+003;6.485830e-002
2.572683e+003;6.493483e-002
2.574612e+003;6.515567e-002
2.576540e+003;6.521819e-002
2.578469e+003;6.516529e-002
2.580397e+003;6.548313e-002
2.582326e+003;6.576875e-002
2.584254e+003;6.560077e-002
2.586183e+003;6.566328e-002
2.588111e+003;6.582345e-002
2.590040e+003;6.585345e-002
2.591969e+003;6.608090e-002
2.593897e+003;6.614491e-002
2.595826e+003;6.625608e-002
2.597754e+003;6.625048e-002
2.599683e+003;6.618341e-002
2.601611e+003;6.623647e-002
2.603540e+003;6.634285e-002
2.605468e+003;6.655004e-002
2.607397e+003;6.660616e-002
2.609325e+003;6.652119e-002
2.611254e+003;6.627117e-002
2.613183e+003;6.638269e-002
2.615111e+003;6.646366e-002
2.617040e+003;6.644531e-002
2.618968e+003;6.667995e-002
2.620897e+003;6.699476e-002
2.622825e+003;6.713427e-002
2.624754e+003;6.726079e-002
2.626682e+003;6.736378e-002
2.628611e+003;6.719213e-002
2.630540e+003;6.727363e-002
2.632468e+003;6.773009e-002
2.634396e+003;6.769098e-002
2.636325e+003;6.752141e-002
2.638254e+003;6.743842e-002
2.640182e+003;6.759913e-002
2.642111e+003;6.766325e-002
2.644039e+003;6.767905e-002
2.645968e+003;6.798785e-002
2.647896e+003;6.807306e-002
2.649825e+003;6.786162e-002
2.651753e+003;6.787797e-002
2.653682e+003;6.822836e-002
2.655611e+003;6.848001e-002
2.657539e+003;6.853242e-002
2.659468e+003;6.847303e-002
2.661396e+003;6.873841e-002
2.663325e+003;6.923919e-002
2.665253e+003;6.916529e-002
2.667182e+003;6.887720e-002
2.669110e+003;6.894384e-002
2.671039e+003;6.907240e-002
2.672968e+003;6.892488e-002
2.674896e+003;6.920360e-002
2.676825e+003;6.944221e-002
2.678753e+003;6.919136e-002
2.680682e+003;6.944474e-002
2.682610e+003;6.981281e-002
2.684539e+003;6.976686e-002
2.686467e+003;6.966388e-002
2.688396e+003;6.982405e-002
2.690324e+003;6.995311e-002
2.692253e+003;7.036603e-002
2.694182e+003;7.058178e-002
2.696110e+003;7.034682e-002
2.698039e+003;7.040780e-002
2.699967e+003;7.074514e-002
2.701896e+003;7.060447e-002
2.703824e+003;7.043710e-002
2.705753e+003;7.052518e-002
2.707681e+003;7.051782e-002
2.709610e+003;7.073301e-002
2.711539e+003;7.114987e-002
2.713467e+003;7.128327e-002
2.715396e+003;7.127526e-002
2.717324e+003;7.124180e-002
2.719253e+003;7.136156e-002
2.721181e+003;7.135128e-002
2.723110e+003;7.147951e-002
2.725038e+003;7.210416e-002
2.726967e+003;7.212431e-002
2.728896e+003;7.177644e-002
2.730824e+003;7.199727e-002
2.732752e+003;7.255676e-002
2.734681e+003;7.280941e-002
2.736610e+003;7.278594e-002
2.738538e+003;7.250249e-002
2.740467e+003;7.227883e-002
2.742395e+003;7.270982e-002
2.744324e+003;7.341629e-002
2.746252e+003;7.332476e-002
2.748181e+003;7.290530e-002
2.750109e+003;7.248793e-002
2.752038e+003;7.247861e-002
2.753967e+003;7.273740e-002
2.755895e+003;7.281642e-002
2.757824e+003;7.282450e-002
2.759752e+003;7.310142e-002
2.761681e+003;7.324647e-002
2.763609e+003;7.301693e-002
2.765538e+003;7.340170e-002
2.767466e+003;7.386095e-002
2.769395e+003;7.358819e-002
2.771323e+003;7.334641e-002
2.773252e+003;7.385530e-002
2.775181e+003;7.404005e-002
2.777109e+003;7.403781e-002
2.779038e+003;7.424289e-002
2.780966e+003;7.417327e-002
2.782895e+003;7.438444e-002
2.784823e+003;7.470650e-002
2.786752e+003;7.519164e-002
2.788680e+003;7.560200e-002
2.790609e+003;7.561647e-002
2.792538e+003;7.572608e-002
2.794466e+003;7.620434e-002
2.796395e+003;7.662187e-002
2.798323e+003;7.664222e-002
2.800252e+003;7.649892e-002
2.802180e+003;7.682366e-002
2.804109e+003;7.736007e-002
2.806037e+003;7.765678e-002
2.807966e+003;7.791499e-002
2.809895e+003;7.845759e-002
2.811823e+003;7.935812e-002
2.813751e+003;7.994957e-002
2.815680e+003;8.011666e-002
2.817609e+003;8.041170e-002
2.819537e+003;8.086047e-002
2.821466e+003;8.126628e-002
2.823394e+003;8.141480e-002
2.825323e+003;8.188486e-002
2.827251e+003;8.260707e-002
2.829180e+003;8.313053e-002
2.831108e+003;8.387157e-002
2.833037e+003;8.481628e-002
2.834966e+003;8.578820e-002
2.836894e+003;8.671767e-002
2.838823e+003;8.770140e-002
2.840751e+003;8.880857e-002
2.842680e+003;9.014960e-002
2.844608e+003;9.124243e-002
2.846537e+003;9.224987e-002
2.848465e+003;9.363385e-002
2.850394e+003;9.520279e-002
2.852323e+003;9.641515e-002
2.854251e+003;9.733214e-002
2.856180e+003;9.843013e-002
2.858108e+003;9.943066e-002
2.860037e+003;1.002592e-001
2.861965e+003;1.010728e-001
2.863894e+003;1.020728e-001
2.865822e+003;1.032353e-001
2.867751e+003;1.041421e-001
2.869679e+003;1.043758e-001
2.871608e+003;1.045417e-001
2.873536e+003;1.052243e-001
2.875465e+003;1.055945e-001
2.877394e+003;1.059893e-001
2.879322e+003;1.067081e-001
2.881251e+003;1.074303e-001
2.883179e+003;1.080347e-001
2.885108e+003;1.085748e-001
2.887036e+003;1.094034e-001
2.888965e+003;1.102015e-001
2.890893e+003;1.107097e-001
2.892822e+003;1.109002e-001
2.894750e+003;1.106928e-001
2.896679e+003;1.107344e-001
2.898608e+003;1.112000e-001
2.900536e+003;1.111599e-001
2.902465e+003;1.106494e-001
2.904393e+003;1.100155e-001
2.906322e+003;1.087960e-001
2.908250e+003;1.073939e-001
2.910179e+003;1.066026e-001
2.912107e+003;1.058906e-001
2.914036e+003;1.045644e-001
2.915965e+003;1.028446e-001
2.917893e+003;1.013983e-001
2.919822e+003;1.002814e-001
2.921750e+003;9.902380e-002
2.923679e+003;9.761219e-002
2.925607e+003;9.644130e-002
2.927536e+003;9.515984e-002
2.929464e+003;9.448208e-002
2.931393e+003;9.381656e-002
2.933322e+003;9.254573e-002
2.935250e+003;9.158371e-002
2.937178e+003;9.074075e-002
2.939107e+003;8.987484e-002
2.941036e+003;8.889866e-002
2.942964e+003;8.810695e-002
2.944893e+003;8.734026e-002
2.946821e+003;8.640982e-002
2.948750e+003;8.565269e-002
2.950678e+003;8.478241e-002
2.952607e+003;8.355854e-002
2.954535e+003;8.225013e-002
2.956464e+003;8.091037e-002
2.958393e+003;7.977447e-002
2.960321e+003;7.905760e-002
2.962250e+003;7.821798e-002
2.964178e+003;7.706899e-002
2.966107e+003;7.663871e-002
2.968035e+003;7.668164e-002
2.969964e+003;7.642325e-002
2.971892e+003;7.549538e-002
2.973821e+003;7.454585e-002
2.975750e+003;7.404406e-002
2.977678e+003;7.321709e-002
2.979607e+003;7.250927e-002
2.981535e+003;7.241178e-002
2.983464e+003;7.220530e-002
2.985392e+003;7.169709e-002
2.987321e+003;7.142600e-002
2.989249e+003;7.123204e-002
2.991178e+003;7.071726e-002
2.993106e+003;7.031503e-002
2.995035e+003;7.004023e-002
2.996964e+003;6.997994e-002
2.998892e+003;7.009299e-002
3.000821e+003;7.020783e-002
3.002749e+003;7.021481e-002
3.004678e+003;7.057998e-002
3.006606e+003;7.100801e-002
3.008535e+003;7.069066e-002
3.010463e+003;7.066407e-002
3.012392e+003;7.073668e-002
3.014321e+003;7.059904e-002
3.016249e+003;7.093755e-002
3.018177e+003;7.126760e-002
3.020106e+003;7.113691e-002
3.022035e+003;7.105484e-002
3.023963e+003;7.102624e-002
3.025892e+003;7.106089e-002
3.027820e+003;7.156987e-002
3.029749e+003;7.228720e-002
3.031677e+003;7.243527e-002
3.033606e+003;7.217470e-002
3.035534e+003;7.225616e-002
3.037463e+003;7.271315e-002
3.039392e+003;7.324357e-002
3.041320e+003;7.295139e-002
3.043249e+003;7.281297e-002
3.045177e+003;7.347067e-002
3.047106e+003;7.421120e-002
3.049034e+003;7.460380e-002
3.050963e+003;7.478088e-002
3.052891e+003;7.487024e-002
3.054820e+003;7.476226e-002
3.056749e+003;7.482682e-002
3.058677e+003;7.494910e-002
3.060606e+003;7.526020e-002
3.062534e+003;7.582853e-002
3.064463e+003;7.603817e-002
3.066391e+003;7.641479e-002
3.068320e+003;7.697269e-002
3.070248e+003;7.715388e-002
3.072177e+003;7.723240e-002
3.074105e+003;7.753373e-002
3.076034e+003;7.804036e-002
3.077963e+003;7.848498e-002
3.079891e+003;7.866608e-002
3.081820e+003;7.891277e-002
3.083748e+003;7.919304e-002
3.085677e+003;7.943518e-002
3.087605e+003;8.004864e-002
3.089534e+003;8.065835e-002
3.091462e+003;8.085927e-002
3.093391e+003;8.094350e-002
3.095320e+003;8.093628e-002
3.097248e+003;8.147200e-002
3.099177e+003;8.250905e-002
3.101105e+003;8.300062e-002
3.103034e+003;8.314100e-002
3.104962e+003;8.324747e-002
3.106891e+003;8.317595e-002
3.108819e+003;8.346698e-002
3.110748e+003;8.422155e-002
3.112677e+003;8.438091e-002
3.114605e+003;8.455393e-002
3.116533e+003;8.535855e-002
3.118462e+003;8.570242e-002
3.120391e+003;8.584904e-002
3.122319e+003;8.651669e-002
3.124248e+003;8.715349e-002
3.126176e+003;8.791611e-002
3.128105e+003;8.814766e-002
3.130033e+003;8.812712e-002
3.131962e+003;8.850581e-002
3.133890e+003;8.977693e-002
3.135819e+003;9.046925e-002
3.137748e+003;9.062602e-002
3.139676e+003;9.110595e-002
3.141605e+003;9.185566e-002
3.143533e+003;9.240811e-002
3.145462e+003;9.218833e-002
3.147390e+003;9.215482e-002
3.149319e+003;9.316187e-002
3.151247e+003;9.407901e-002
3.153176e+003;9.447327e-002
3.155104e+003;9.499429e-002
3.157033e+003;9.577244e-002
3.158962e+003;9.684396e-002
3.160890e+003;9.692306e-002
3.162819e+003;9.691697e-002
3.164747e+003;9.771609e-002
3.166676e+003;9.877162e-002
3.168604e+003;9.949536e-002
3.170533e+003;9.990291e-002
3.172461e+003;1.004952e-001
3.174390e+003;1.012447e-001
3.176319e+003;1.021673e-001
3.178247e+003;1.029518e-001
3.180176e+003;1.036266e-001
3.182104e+003;1.041939e-001
3.184033e+003;1.047935e-001
3.185961e+003;1.058073e-001
3.187890e+003;1.066123e-001
3.189818e+003;1.069984e-001
3.191747e+003;1.074702e-001
3.193676e+003;1.083140e-001
3.195604e+003;1.092665e-001
3.197532e+003;1.101349e-001
3.199461e+003;1.111276e-001
3.201390e+003;1.119794e-001
3.203318e+003;1.128388e-001
3.205247e+003;1.138472e-001
3.207175e+003;1.146821e-001
3.209104e+003;1.155842e-001
3.211032e+003;1.166578e-001
3.212961e+003;1.170932e-001
3.214889e+003;1.177316e-001
3.216818e+003;1.189530e-001
3.218747e+003;1.198149e-001
3.220675e+003;1.207266e-001
3.222604e+003;1.219154e-001
3.224532e+003;1.230809e-001
3.226461e+003;1.239278e-001
3.228389e+003;1.251195e-001
3.230318e+003;1.266997e-001
3.232246e+003;1.278000e-001
3.234175e+003;1.287377e-001
3.236104e+003;1.296696e-001
3.238032e+003;1.309306e-001
3.239961e+003;1.322385e-001
3.241889e+003;1.331858e-001
3.243818e+003;1.344116e-001
3.245746e+003;1.356940e-001
3.247675e+003;1.367586e-001
3.249603e+003;1.378265e-001
3.251532e+003;1.389223e-001
3.253460e+003;1.407026e-001
3.255389e+003;1.420730e-001
3.257318e+003;1.425408e-001
3.259246e+003;1.437568e-001
3.261175e+003;1.460553e-001
3.263103e+003;1.480729e-001
3.265032e+003;1.493873e-001
3.266960e+003;1.507864e-001
3.268889e+003;1.518309e-001
3.270817e+003;1.520170e-001
3.272746e+003;1.529642e-001
3.274675e+003;1.552449e-001
3.276603e+003;1.566342e-001
3.278531e+003;1.569242e-001
3.280460e+003;1.574290e-001
3.282389e+003;1.582083e-001
3.284317e+003;1.586863e-001
3.286246e+003;1.591245e-001
3.288174e+003;1.597545e-001
3.290103e+003;1.600005e-001
3.292031e+003;1.600524e-001
3.293960e+003;1.601728e-001
3.295888e+003;1.604967e-001
3.297817e+003;1.611682e-001
3.299746e+003;1.615018e-001
3.301674e+003;1.611347e-001
3.303603e+003;1.609920e-001
3.305531e+003;1.612373e-001
3.307460e+003;1.618255e-001
3.309388e+003;1.623051e-001
3.311317e+003;1.622719e-001
3.313245e+003;1.621033e-001
3.315174e+003;1.618834e-001
3.317103e+003;1.622007e-001
3.319031e+003;1.629615e-001
3.320960e+003;1.636225e-001
3.322888e+003;1.642938e-001
3.324817e+003;1.652019e-001
3.326745e+003;1.664683e-001
3.328674e+003;1.675164e-001
3.330602e+003;1.680739e-001
3.332531e+003;1.682512e-001
3.334459e+003;1.684472e-001
3.336388e+003;1.693048e-001
3.338317e+003;1.702531e-001
3.340245e+003;1.698946e-001
3.342174e+003;1.691801e-001
3.344102e+003;1.693805e-001
3.346031e+003;1.688739e-001
3.347959e+003;1.670977e-001
3.349888e+003;1.658123e-001
3.351816e+003;1.656113e-001
3.353745e+003;1.646598e-001
3.355674e+003;1.632304e-001
3.357602e+003;1.626467e-001
3.359531e+003;1.619578e-001
3.361459e+003;1.607480e-001
3.363388e+003;1.596918e-001
3.365316e+003;1.587362e-001
3.367245e+003;1.575409e-001
3.369173e+003;1.561624e-001
3.371102e+003;1.546074e-001
3.373031e+003;1.539833e-001
3.374959e+003;1.537868e-001
3.376887e+003;1.525557e-001
3.378816e+003;1.509913e-001
3.380745e+003;1.504283e-001
3.382673e+003;1.502301e-001
3.384602e+003;1.491111e-001
3.386530e+003;1.479441e-001
3.388459e+003;1.472077e-001
3.390387e+003;1.468239e-001
3.392316e+003;1.461951e-001
3.394244e+003;1.456372e-001
3.396173e+003;1.450423e-001
3.398102e+003;1.437884e-001
3.400030e+003;1.423230e-001
3.401959e+003;1.414999e-001
3.403887e+003;1.407131e-001
3.405816e+003;1.400123e-001
3.407744e+003;1.392207e-001
3.409673e+003;1.382149e-001
3.411601e+003;1.370904e-001
3.413530e+003;1.356951e-001
3.415458e+003;1.347813e-001
3.417387e+003;1.338435e-001
3.419316e+003;1.327392e-001
3.421244e+003;1.318823e-001
3.423173e+003;1.308535e-001
3.425101e+003;1.295725e-001
3.427030e+003;1.280669e-001
3.428958e+003;1.268096e-001
3.430887e+003;1.255787e-001
3.432815e+003;1.245574e-001
3.434744e+003;1.237145e-001
3.436673e+003;1.224903e-001
3.438601e+003;1.211691e-001
3.440530e+003;1.203567e-001
3.442458e+003;1.198546e-001
3.444387e+003;1.185699e-001
3.446315e+003;1.172421e-001
3.448244e+003;1.165037e-001
3.450172e+003;1.154790e-001
3.452101e+003;1.144801e-001
3.454030e+003;1.142531e-001
3.455958e+003;1.135805e-001
3.457886e+003;1.124279e-001
3.459815e+003;1.115297e-001
3.461744e+003;1.097587e-001
3.463672e+003;1.079009e-001
3.465601e+003;1.068617e-001
3.467529e+003;1.060735e-001
3.469458e+003;1.050447e-001
3.471386e+003;1.042561e-001
3.473315e+003;1.032566e-001
3.475243e+003;1.023563e-001
3.477172e+003;1.019676e-001
3.479101e+003;1.005724e-001
3.481029e+003;9.839684e-002
3.482958e+003;9.700181e-002
3.484886e+003;9.609973e-002
3.486815e+003;9.524206e-002
3.488743e+003;9.460327e-002
3.490672e+003;9.404749e-002
3.492600e+003;9.316639e-002
3.494529e+003;9.190814e-002
3.496458e+003;9.070542e-002
3.498386e+003;8.974641e-002
3.500315e+003;8.923420e-002
3.502243e+003;8.798886e-002
3.504172e+003;8.690393e-002
3.506100e+003;8.629550e-002
3.508029e+003;8.515492e-002
3.509957e+003;8.380381e-002
3.511886e+003;8.345594e-002
3.513814e+003;8.320718e-002
3.515743e+003;8.247852e-002
3.517672e+003;8.129337e-002
3.519600e+003;8.024447e-002
3.521529e+003;7.965389e-002
3.523457e+003;7.888062e-002
3.525386e+003;7.758939e-002
3.527314e+003;7.624858e-002
3.529243e+003;7.605344e-002
3.531171e+003;7.645332e-002
3.533100e+003;7.563315e-002
3.535029e+003;7.380852e-002
3.536957e+003;7.214188e-002
3.538885e+003;7.173813e-002
3.540814e+003;7.122962e-002
3.542743e+003;6.983706e-002
3.544671e+003;6.959130e-002
3.546600e+003;6.994023e-002
3.548528e+003;6.928027e-002
3.550457e+003;6.808574e-002
3.552385e+003;6.681835e-002
3.554314e+003;6.632251e-002
3.556242e+003;6.617774e-002
3.558171e+003;6.554864e-002
3.560100e+003;6.522524e-002
3.562028e+003;6.465130e-002
3.563957e+003;6.396389e-002
3.565885e+003;6.277724e-002
3.567814e+003;6.155394e-002
3.569742e+003;6.128639e-002
3.571671e+003;6.059887e-002
3.573599e+003;5.963327e-002
3.575528e+003;5.890293e-002
3.577457e+003;5.851089e-002
3.579385e+003;5.878475e-002
3.581314e+003;5.806114e-002
3.583242e+003;5.758215e-002
3.585171e+003;5.786269e-002
3.587099e+003;5.748009e-002
3.589028e+003;5.649158e-002
3.590956e+003;5.609145e-002
3.592885e+003;5.609194e-002
3.594813e+003;5.569169e-002
3.596742e+003;5.478824e-002
3.598671e+003;5.424782e-002
3.600599e+003;5.375130e-002
3.602528e+003;5.280337e-002
3.604456e+003;5.249550e-002
3.606385e+003;5.254202e-002
3.608313e+003;5.215619e-002
3.610242e+003;5.148587e-002
3.612170e+003;5.086486e-002
3.614099e+003;5.052869e-002
3.616028e+003;5.020613e-002
3.617956e+003;5.004976e-002
3.619885e+003;5.008356e-002
3.621813e+003;4.982394e-002
3.623742e+003;4.934188e-002
3.625670e+003;4.880159e-002
3.627599e+003;4.868152e-002
3.629527e+003;4.847283e-002
3.631456e+003;4.819807e-002
3.633385e+003;4.786898e-002
3.635313e+003;4.756133e-002
3.637241e+003;4.715376e-002
3.639170e+003;4.693062e-002
3.641099e+003;4.688636e-002
3.643027e+003;4.710855e-002
3.644956e+003;4.738185e-002
3.646884e+003;4.711889e-002
3.648813e+003;4.619744e-002
3.650741e+003;4.550939e-002
3.652670e+003;4.583381e-002
3.654598e+003;4.621432e-002
3.656527e+003;4.595623e-002
3.658456e+003;4.550401e-002
3.660384e+003;4.512965e-002
3.662313e+003;4.480902e-002
3.664241e+003;4.445511e-002
3.666170e+003;4.413677e-002
3.668098e+003;4.373818e-002
3.670027e+003;4.375057e-002
3.671955e+003;4.394362e-002
3.673884e+003;4.373147e-002
3.675813e+003;4.336998e-002
3.677741e+003;4.288329e-002
3.679669e+003;4.292393e-002
3.681598e+003;4.334619e-002
3.683527e+003;4.273933e-002
3.685455e+003;4.224516e-002
3.687384e+003;4.272580e-002
3.689312e+003;4.287704e-002
3.691241e+003;4.287561e-002
3.693169e+003;4.278785e-002
3.695098e+003;4.239455e-002
3.697026e+003;4.249737e-002
3.698955e+003;4.248684e-002
3.700884e+003;4.196680e-002
3.702812e+003;4.148969e-002
3.704741e+003;4.144220e-002
3.706669e+003;4.176017e-002
3.708598e+003;4.179191e-002
3.710526e+003;4.151565e-002
3.712455e+003;4.120984e-002
3.714383e+003;4.126428e-002
3.716312e+003;4.154227e-002
3.718240e+003;4.110817e-002
3.720169e+003;4.061764e-002
3.722098e+003;4.044279e-002
3.724026e+003;4.067182e-002
3.725955e+003;4.096975e-002
3.727883e+003;4.064158e-002
3.729812e+003;4.080975e-002
3.731740e+003;4.131609e-002
3.733669e+003;4.108887e-002
3.735597e+003;4.141570e-002
3.737526e+003;4.223253e-002
3.739455e+003;4.179621e-002
3.741383e+003;4.067095e-002
3.743312e+003;4.000140e-002
3.745240e+003;3.989035e-002
3.747169e+003;4.011222e-002
3.749097e+003;4.060906e-002
3.751026e+003;4.160495e-002
3.752954e+003;4.207506e-002
3.754883e+003;4.155966e-002
3.756812e+003;4.090279e-002
3.758740e+003;4.084517e-002
3.760668e+003;4.059749e-002
3.762597e+003;4.061884e-002
3.764526e+003;4.116533e-002
3.766454e+003;4.112577e-002
3.768383e+003;4.063110e-002
3.770311e+003;4.034751e-002
3.772240e+003;4.069172e-002
3.774168e+003;4.103333e-002
3.776097e+003;4.078048e-002
3.778025e+003;4.020228e-002
3.779954e+003;4.007407e-002
3.781883e+003;4.062954e-002
3.783811e+003;4.115833e-002
3.785740e+003;4.170753e-002
3.787668e+003;4.238699e-002
3.789597e+003;4.160130e-002
3.791525e+003;4.065042e-002
3.793454e+003;4.065919e-002
3.795382e+003;4.071439e-002
3.797311e+003;4.082285e-002
3.799240e+003;4.107270e-002
3.801168e+003;4.077830e-002
3.803097e+003;4.092697e-002
3.805025e+003;4.097376e-002
3.806954e+003;4.146068e-002
3.808882e+003;4.203213e-002
3.810811e+003;4.152061e-002
3.812739e+003;4.052572e-002
3.814668e+003;4.002774e-002
3.816596e+003;4.013457e-002
3.818525e+003;4.007672e-002
3.820454e+003;4.089442e-002
3.822382e+003;4.136252e-002
3.824311e+003;4.043191e-002
3.826239e+003;3.989667e-002
3.828168e+003;4.034486e-002
3.830096e+003;4.172924e-002
3.832025e+003;4.171556e-002
3.833953e+003;4.065883e-002
3.835882e+003;4.070308e-002
3.837811e+003;4.080341e-002
3.839739e+003;4.147850e-002
3.841667e+003;4.162770e-002
3.843596e+003;4.119017e-002
3.845525e+003;4.132028e-002
3.847453e+003;4.119713e-002
3.849382e+003;4.068561e-002
3.851310e+003;4.099094e-002
3.853239e+003;4.133993e-002
3.855167e+003;4.117436e-002
3.857096e+003;4.134762e-002
3.859024e+003;4.128060e-002
3.860953e+003;4.068099e-002
3.862882e+003;4.027407e-002
3.864810e+003;4.053099e-002
3.866739e+003;4.099764e-002
3.868667e+003;4.107073e-002
3.870596e+003;4.115939e-002
3.872524e+003;4.096975e-002
3.874453e+003;4.036544e-002
3.876381e+003;4.087673e-002
3.878310e+003;4.218144e-002
3.880239e+003;4.305255e-002
3.882167e+003;4.327165e-002
3.884096e+003;4.296874e-002
3.886024e+003;4.219945e-002
3.887953e+003;4.175007e-002
3.889881e+003;4.199610e-002
3.891810e+003;4.211686e-002
3.893738e+003;4.149298e-002
3.895667e+003;4.099986e-002
3.897595e+003;4.163762e-002
3.899524e+003;4.217867e-002
3.901453e+003;4.198205e-002
3.903381e+003;4.185652e-002
3.905310e+003;4.237928e-002
3.907238e+003;4.259198e-002
3.909167e+003;4.251922e-002
3.911095e+003;4.254399e-002
3.913024e+003;4.237391e-002
3.914952e+003;4.210061e-002
3.916881e+003;4.202078e-002
3.918810e+003;4.236471e-002
3.920738e+003;4.333623e-002
3.922667e+003;4.415932e-002
3.924595e+003;4.417381e-002
3.926524e+003;4.394205e-002
3.928452e+003;4.391902e-002
3.930381e+003;4.368868e-002
3.932309e+003;4.369366e-002
3.934238e+003;4.358646e-002
3.936167e+003;4.270690e-002
3.938095e+003;4.221080e-002
3.940023e+003;4.250135e-002
3.941952e+003;4.309847e-002
3.943881e+003;4.367142e-002
3.945809e+003;4.342191e-002
3.947738e+003;4.277205e-002
3.949666e+003;4.269041e-002
3.951595e+003;4.275297e-002
3.953523e+003;4.322666e-002
3.955452e+003;4.344739e-002
3.957380e+003;4.242955e-002
3.959309e+003;4.211262e-002
3.961238e+003;4.240909e-002
3.963166e+003;4.247866e-002
3.965095e+003;4.311534e-002
3.967023e+003;4.295944e-002
3.968952e+003;4.320734e-002
3.970880e+003;4.402627e-002
3.972809e+003;4.316939e-002
3.974737e+003;4.188900e-002
3.976666e+003;4.184393e-002
3.978594e+003;4.267239e-002
3.980523e+003;4.340437e-002
3.982452e+003;4.320119e-002
3.984380e+003;4.311497e-002
3.986309e+003;4.310999e-002
3.988237e+003;4.272833e-002
3.990166e+003;4.318567e-002
3.992094e+003;4.350141e-002
3.994023e+003;4.357024e-002
3.995951e+003;4.393237e-002
3.997880e+003;4.359661e-002
3.999809e+003;4.324767e-002
4.001737e+003;0.000000e+000
