3.992094e+002;0.000000e+000
4.011380e+002;0.000000e+000
4.030665e+002;0.000000e+000
4.049951e+002;0.000000e+000
4.069236e+002;0.000000e+000
4.088522e+002;0.000000e+000
4.107807e+002;0.000000e+000
4.127093e+002;0.000000e+000
4.146378e+002;0.000000e+000
4.165664e+002;0.000000e+000
4.184949e+002;0.000000e+000
4.204235e+002;0.000000e+000
4.223520e+002;0.000000e+000
4.242806e+002;0.000000e+000
4.262091e+002;0.000000e+000
4.281377e+002;0.000000e+000
4.300662e+002;0.000000e+000
4.319948e+002;0.000000e+000
4.339233e+002;0.000000e+000
4.358519e+002;0.000000e+000
4.377804e+002;0.000000e+000
4.397090e+002;0.000000e+000
4.416375e+002;0.000000e+000
4.435660e+002;0.000000e+000
4.454946e+002;0.000000e+000
4.474232e+002;0.000000e+000
4.493517e+002;0.000000e+000
4.512802e+002;0.000000e+000
4.532088e+002;0.000000e+000
4.551373e+002;0.000000e+000
4.570659e+002;0.000000e+000
4.589944e+002;0.000000e+000
4.609230e+002;0.000000e+000
4.628515e+002;0.000000e+000
4.647801e+002;0.000000e+000
4.667086e+002;0.000000e+000
4.686372e+002;0.000000e+000
4.705657e+002;0.000000e+000
4.724943e+002;0.000000e+000
4.744228e+002;0.000000e+000
4.763513e+002;0.000000e+000
4.782799e+002;0.000000e+000
4.802085e+002;0.000000e+000
4.821370e+002;0.000000e+000
4.840656e+002;0.000000e+000
4.859941e+002;0.000000e+000
4.879226e+002;0.000000e+000
4.898512e+002;0.000000e+000
4.917798e+002;0.000000e+000
4.937083e+002;0.000000e+000
4.956368e+002;0.000000e+000
4.975654e+002;0.000000e+000
4.994939e+002;0.000000e+000
5.014225e+002;0.000000e+000
5.033510e+002;0.000000e+000
5.052796e+002;0.000000e+000
5.072081e+002;0.000000e+000
5.091367e+002;0.000000e+000
5.110652e+002;0.000000e+000
5.129938e+002;0.000000e+000
5.149223e+002;0.000000e+000
5.168509e+002;0.000000e+000
5.187794e+002;0.000000e+000
5.207079e+002;0.000000e+000
5.226365e+002;0.000000e+000
5.245651e+002;0.000000e+000
5.264936e+002;0.000000e+000
5.284222e+002;0.000000e+000
5.303507e+002;0.000000e+000
5.322792e+002;0.000000e+000
5.342078e+002;0.000000e+000
5.361364e+002;0.000000e+000
5.380649e+002;0.000000e+000
5.399935e+002;0.000000e+000
5.419220e+002;0.000000e+000
5.438505e+002;0.000000e+000
5.457791e+002;0.000000e+000
5.477076e+002;0.000000e+000
5.496362e+002;0.000000e+000
5.515648e+002;0.000000e+000
5.534933e+002;0.000000e+000
5.554218e+002;0.000000e+000
5.573504e+002;0.000000e+000
5.592789e+002;0.000000e+000
5.612075e+002;0.000000e+000
5.631360e+002;0.000000e+000
5.650646e+002;0.000000e+000
5.669931e+002;0.000000e+000
5.689217e+002;0.000000e+000
5.708502e+002;0.000000e+000
5.727787e+002;0.000000e+000
5.747073e+002;0.000000e+000
5.766359e+002;0.000000e+000
5.785644e+002;0.000000e+000
5.804930e+002;0.000000e+000
5.824215e+002;0.000000e+000
5.843500e+002;0.000000e+000
5.862786e+002;0.000000e+000
5.882072e+002;0.000000e+000
5.901357e+002;0.000000e+000
5.920643e+002;0.000000e+000
5.939928e+002;0.000000e+000
5.959213e+002;0.000000e+000
5.978499e+002;0.000000e+000
5.997784e+002;2.653028e-001
6.017070e+002;2.616413e-001
6.036355e+002;2.582909e-001
6.055641e+002;2.620435e-001
6.074926e+002;2.694576e-001
6.094211e+002;2.650657e-001
6.113497e+002;2.593274e-001
6.132783e+002;2.633688e-001
6.152068e+002;2.629958e-001
6.171354e+002;2.635148e-001
6.190639e+002;2.615194e-001
6.209924e+002;2.551495e-001
6.229210e+002;2.489641e-001
6.248495e+002;2.437850e-001
6.267781e+002;2.377558e-001
6.287067e+002;2.347591e-001
6.306352e+002;2.304379e-001
6.325637e+002;2.282673e-001
6.344923e+002;2.289847e-001
6.364208e+002;2.252158e-001
6.383494e+002;2.241324e-001
6.402780e+002;2.242259e-001
6.422065e+002;2.208732e-001
6.441350e+002;2.176958e-001
6.460636e+002;2.187036e-001
6.479921e+002;2.194890e-001
6.499207e+002;2.191756e-001
6.518492e+002;2.216558e-001
6.537778e+002;2.267856e-001
6.557063e+002;2.320338e-001
6.576349e+002;2.330099e-001
6.595634e+002;2.344785e-001
6.614919e+002;2.374402e-001
6.634205e+002;2.387315e-001
6.653491e+002;2.386835e-001
6.672776e+002;2.364626e-001
6.692062e+002;2.327270e-001
6.711347e+002;2.294425e-001
6.730632e+002;2.251376e-001
6.749918e+002;2.174887e-001
6.769203e+002;2.099861e-001
6.788489e+002;2.048540e-001
6.807775e+002;2.006631e-001
6.827060e+002;1.977148e-001
6.846345e+002;1.968222e-001
6.865631e+002;1.952915e-001
6.884916e+002;1.938283e-001
6.904202e+002;1.927562e-001
6.923488e+002;1.913911e-001
6.942773e+002;1.899029e-001
6.962058e+002;1.885668e-001
6.981344e+002;1.891197e-001
7.000629e+002;1.897762e-001
7.019915e+002;1.889364e-001
7.039200e+002;1.861904e-001
7.058486e+002;1.835072e-001
7.077771e+002;1.817523e-001
7.097057e+002;1.799098e-001
7.116342e+002;1.778810e-001
7.135627e+002;1.761205e-001
7.154913e+002;1.732971e-001
7.174199e+002;1.693703e-001
7.193484e+002;1.661390e-001
7.212770e+002;1.643295e-001
7.232055e+002;1.614595e-001
7.251340e+002;1.579241e-001
7.270626e+002;1.544689e-001
7.289911e+002;1.518029e-001
7.309197e+002;1.495086e-001
7.328483e+002;1.479519e-001
7.347768e+002;1.467160e-001
7.367053e+002;1.453442e-001
7.386339e+002;1.441491e-001
7.405624e+002;1.425052e-001
7.424910e+002;1.410241e-001
7.444196e+002;1.385519e-001
7.463481e+002;1.372866e-001
7.482766e+002;1.375549e-001
7.502052e+002;1.358684e-001
7.521337e+002;1.341638e-001
7.540623e+002;1.330312e-001
7.559908e+002;1.319489e-001
7.579194e+002;1.313532e-001
7.598479e+002;1.304415e-001
7.617765e+002;1.284330e-001
7.637050e+002;1.270226e-001
7.656335e+002;1.260303e-001
7.675621e+002;1.249968e-001
7.694907e+002;1.248151e-001
7.714192e+002;1.244970e-001
7.733478e+002;1.233634e-001
7.752763e+002;1.224993e-001
7.772048e+002;1.218978e-001
7.791334e+002;1.211126e-001
7.810620e+002;1.209908e-001
7.829905e+002;1.208199e-001
7.849191e+002;1.195423e-001
7.868476e+002;1.188223e-001
7.887761e+002;1.194474e-001
7.907047e+002;1.200899e-001
7.926332e+002;1.203256e-001
7.945618e+002;1.200227e-001
7.964903e+002;1.194447e-001
7.984189e+002;1.188127e-001
8.003474e+002;1.188338e-001
8.022759e+002;1.192246e-001
8.042045e+002;1.193999e-001
8.061331e+002;1.190014e-001
8.080616e+002;1.192096e-001
8.099902e+002;1.199768e-001
8.119187e+002;1.195293e-001
8.138472e+002;1.181766e-001
8.157758e+002;1.172276e-001
8.177043e+002;1.168516e-001
8.196329e+002;1.170147e-001
8.215615e+002;1.170207e-001
8.234900e+002;1.162265e-001
8.254185e+002;1.154833e-001
8.273471e+002;1.157914e-001
8.292756e+002;1.157956e-001
8.312042e+002;1.150459e-001
8.331328e+002;1.149568e-001
8.350613e+002;1.152107e-001
8.369898e+002;1.153385e-001
8.389184e+002;1.155298e-001
8.408469e+002;1.162383e-001
8.427755e+002;1.165833e-001
8.447040e+002;1.162521e-001
8.466326e+002;1.162558e-001
8.485611e+002;1.163110e-001
8.504897e+002;1.168600e-001
8.524182e+002;1.178958e-001
8.543467e+002;1.187487e-001
8.562753e+002;1.192706e-001
8.582039e+002;1.201240e-001
8.601324e+002;1.216532e-001
8.620610e+002;1.229069e-001
8.639895e+002;1.244054e-001
8.659180e+002;1.264760e-001
8.678466e+002;1.281299e-001
8.697751e+002;1.298994e-001
8.717037e+002;1.323764e-001
8.736323e+002;1.349775e-001
8.755608e+002;1.370416e-001
8.774893e+002;1.384169e-001
8.794179e+002;1.400750e-001
8.813464e+002;1.427347e-001
8.832750e+002;1.455096e-001
8.852036e+002;1.481044e-001
8.871321e+002;1.510836e-001
8.890606e+002;1.542196e-001
8.909892e+002;1.566242e-001
8.929177e+002;1.584426e-001
8.948463e+002;1.597376e-001
8.967748e+002;1.601659e-001
8.987034e+002;1.594525e-001
9.006319e+002;1.582202e-001
9.025605e+002;1.568214e-001
9.044890e+002;1.547171e-001
9.064175e+002;1.527629e-001
9.083461e+002;1.511512e-001
9.102747e+002;1.492960e-001
9.122032e+002;1.479021e-001
9.141318e+002;1.468588e-001
9.160603e+002;1.461462e-001
9.179888e+002;1.459242e-001
9.199174e+002;1.460169e-001
9.218459e+002;1.469281e-001
9.237745e+002;1.484963e-001
9.257031e+002;1.495038e-001
9.276316e+002;1.505859e-001
9.295601e+002;1.523496e-001
9.314887e+002;1.543546e-001
9.334172e+002;1.562840e-001
9.353458e+002;1.582987e-001
9.372744e+002;1.600852e-001
9.392029e+002;1.619045e-001
9.411314e+002;1.640339e-001
9.430600e+002;1.661675e-001
9.449885e+002;1.683629e-001
9.469171e+002;1.713919e-001
9.488456e+002;1.750167e-001
9.507742e+002;1.788906e-001
9.527027e+002;1.827916e-001
9.546313e+002;1.870501e-001
9.565598e+002;1.920600e-001
9.584883e+002;1.973484e-001
9.604169e+002;2.028641e-001
9.623455e+002;2.086584e-001
9.642740e+002;2.148664e-001
9.662026e+002;2.210465e-001
9.681311e+002;2.275424e-001
9.700596e+002;2.355950e-001
9.719882e+002;2.450915e-001
9.739167e+002;2.560596e-001
9.758453e+002;2.692185e-001
9.777739e+002;2.839446e-001
9.797024e+002;2.989143e-001
9.816309e+002;3.125442e-001
9.835595e+002;3.233569e-001
9.854880e+002;3.303202e-001
9.874166e+002;3.340923e-001
9.893452e+002;3.372604e-001
9.912737e+002;3.419118e-001
9.932022e+002;3.482100e-001
9.951307e+002;3.547547e-001
9.970593e+002;3.611242e-001
9.989879e+002;3.667439e-001
1.000916e+003;3.708269e-001
1.002845e+003;3.741986e-001
1.004773e+003;3.769962e-001
1.006702e+003;3.792443e-001
1.008631e+003;3.810214e-001
1.010559e+003;3.843337e-001
1.012488e+003;3.895113e-001
1.014416e+003;3.949679e-001
1.016345e+003;4.002090e-001
1.018273e+003;4.048090e-001
1.020202e+003;4.097250e-001
1.022130e+003;4.151554e-001
1.024059e+003;4.205424e-001
1.025988e+003;4.249788e-001
1.027916e+003;4.276904e-001
1.029845e+003;4.299697e-001
1.031773e+003;4.289674e-001
1.033702e+003;4.242050e-001
1.035630e+003;4.172612e-001
1.037559e+003;4.097475e-001
1.039487e+003;4.031801e-001
1.041416e+003;3.990045e-001
1.043344e+003;3.978702e-001
1.045273e+003;3.996811e-001
1.047202e+003;4.035293e-001
1.049130e+003;4.072509e-001
1.051059e+003;4.095529e-001
1.052987e+003;4.095685e-001
1.054916e+003;4.073716e-001
1.056844e+003;4.024368e-001
1.058773e+003;3.929591e-001
1.060701e+003;3.787518e-001
1.062630e+003;3.623838e-001
1.064558e+003;3.458333e-001
1.066487e+003;3.302474e-001
1.068416e+003;3.168074e-001
1.070344e+003;3.058123e-001
1.072273e+003;2.972905e-001
1.074201e+003;2.892629e-001
1.076130e+003;2.820885e-001
1.078058e+003;2.767584e-001
1.079987e+003;2.719129e-001
1.081915e+003;2.676065e-001
1.083844e+003;2.652946e-001
1.085773e+003;2.642012e-001
1.087701e+003;2.635511e-001
1.089630e+003;2.634210e-001
1.091558e+003;2.641132e-001
1.093487e+003;2.651953e-001
1.095415e+003;2.663848e-001
1.097344e+003;2.677093e-001
1.099272e+003;2.694948e-001
1.101201e+003;2.707159e-001
1.103129e+003;2.709328e-001
1.105058e+003;2.694558e-001
1.106987e+003;2.661354e-001
1.108915e+003;2.618052e-001
1.110844e+003;2.557656e-001
1.112772e+003;2.465090e-001
1.114701e+003;2.358291e-001
1.116629e+003;2.251475e-001
1.118558e+003;2.154196e-001
1.120486e+003;2.077436e-001
1.122415e+003;2.014794e-001
1.124344e+003;1.950306e-001
1.126272e+003;1.877434e-001
1.128201e+003;1.802381e-001
1.130129e+003;1.739580e-001
1.132058e+003;1.692560e-001
1.133986e+003;1.657573e-001
1.135915e+003;1.630955e-001
1.137843e+003;1.614311e-001
1.139772e+003;1.613944e-001
1.141700e+003;1.623128e-001
1.143629e+003;1.636040e-001
1.145557e+003;1.654413e-001
1.147486e+003;1.675205e-001
1.149415e+003;1.689086e-001
1.151343e+003;1.700840e-001
1.153272e+003;1.714531e-001
1.155200e+003;1.726412e-001
1.157129e+003;1.730274e-001
1.159057e+003;1.721109e-001
1.160986e+003;1.699271e-001
1.162914e+003;1.659895e-001
1.164843e+003;1.602830e-001
1.166771e+003;1.535125e-001
1.168700e+003;1.458209e-001
1.170629e+003;1.378525e-001
1.172557e+003;1.305974e-001
1.174486e+003;1.242790e-001
1.176414e+003;1.196034e-001
1.178343e+003;1.162030e-001
1.180271e+003;1.132767e-001
1.182200e+003;1.111709e-001
1.184128e+003;1.101219e-001
1.186057e+003;1.099088e-001
1.187986e+003;1.107507e-001
1.189914e+003;1.124013e-001
1.191843e+003;1.141840e-001
1.193771e+003;1.163795e-001
1.195700e+003;1.186308e-001
1.197628e+003;1.205436e-001
1.199557e+003;1.218701e-001
1.201485e+003;1.224961e-001
1.203414e+003;1.222486e-001
1.205343e+003;1.212763e-001
1.207271e+003;1.189442e-001
1.209200e+003;1.154319e-001
1.211128e+003;1.122731e-001
1.213057e+003;1.101924e-001
1.214985e+003;1.091050e-001
1.216914e+003;1.096352e-001
1.218842e+003;1.109175e-001
1.220771e+003;1.118518e-001
1.222699e+003;1.132400e-001
1.224628e+003;1.151260e-001
1.226557e+003;1.168663e-001
1.228485e+003;1.181540e-001
1.230414e+003;1.196966e-001
1.232342e+003;1.211860e-001
1.234271e+003;1.221339e-001
1.236199e+003;1.226891e-001
1.238128e+003;1.228252e-001
1.240056e+003;1.228387e-001
1.241985e+003;1.232725e-001
1.243913e+003;1.242044e-001
1.245842e+003;1.253834e-001
1.247771e+003;1.258771e-001
1.249699e+003;1.255314e-001
1.251628e+003;1.252165e-001
1.253556e+003;1.251283e-001
1.255485e+003;1.255598e-001
1.257413e+003;1.265975e-001
1.259342e+003;1.271165e-001
1.261270e+003;1.269254e-001
1.263199e+003;1.263061e-001
1.265127e+003;1.260266e-001
1.267056e+003;1.263914e-001
1.268985e+003;1.268080e-001
1.270913e+003;1.272395e-001
1.272842e+003;1.276300e-001
1.274770e+003;1.276845e-001
1.276699e+003;1.276558e-001
1.278627e+003;1.274898e-001
1.280556e+003;1.269441e-001
1.282484e+003;1.261881e-001
1.284413e+003;1.252680e-001
1.286342e+003;1.244690e-001
1.288270e+003;1.243774e-001
1.290199e+003;1.250838e-001
1.292127e+003;1.259898e-001
1.294056e+003;1.268325e-001
1.295984e+003;1.280377e-001
1.297913e+003;1.295854e-001
1.299841e+003;1.316945e-001
1.301770e+003;1.347124e-001
1.303698e+003;1.381993e-001
1.305627e+003;1.418192e-001
1.307556e+003;1.458265e-001
1.309484e+003;1.498367e-001
1.311413e+003;1.530615e-001
1.313341e+003;1.548723e-001
1.315270e+003;1.551588e-001
1.317198e+003;1.536718e-001
1.319127e+003;1.508356e-001
1.321055e+003;1.477911e-001
1.322984e+003;1.454906e-001
1.324912e+003;1.440984e-001
1.326841e+003;1.434031e-001
1.328770e+003;1.435208e-001
1.330698e+003;1.441314e-001
1.332627e+003;1.448920e-001
1.334555e+003;1.453171e-001
1.336484e+003;1.447280e-001
1.338412e+003;1.431648e-001
1.340341e+003;1.411240e-001
1.342269e+003;1.388652e-001
1.344198e+003;1.365891e-001
1.346126e+003;1.344775e-001
1.348055e+003;1.330954e-001
1.349984e+003;1.327584e-001
1.351912e+003;1.333698e-001
1.353841e+003;1.346669e-001
1.355769e+003;1.359720e-001
1.357698e+003;1.368020e-001
1.359626e+003;1.372918e-001
1.361555e+003;1.372618e-001
1.363483e+003;1.367530e-001
1.365412e+003;1.361479e-001
1.367341e+003;1.355495e-001
1.369269e+003;1.349014e-001
1.371198e+003;1.334994e-001
1.373126e+003;1.310849e-001
1.375055e+003;1.282872e-001
1.376983e+003;1.253455e-001
1.378912e+003;1.222140e-001
1.380840e+003;1.193208e-001
1.382769e+003;1.166181e-001
1.384698e+003;1.140759e-001
1.386626e+003;1.123466e-001
1.388555e+003;1.110418e-001
1.390483e+003;1.100053e-001
1.392412e+003;1.092550e-001
1.394340e+003;1.089637e-001
1.396269e+003;1.090399e-001
1.398197e+003;1.090799e-001
1.400126e+003;1.090938e-001
1.402054e+003;1.094462e-001
1.403983e+003;1.098432e-001
1.405911e+003;1.100538e-001
1.407840e+003;1.102149e-001
1.409769e+003;1.110010e-001
1.411697e+003;1.119752e-001
1.413626e+003;1.130966e-001
1.415554e+003;1.143569e-001
1.417483e+003;1.155876e-001
1.419411e+003;1.170371e-001
1.421340e+003;1.184975e-001
1.423268e+003;1.196005e-001
1.425197e+003;1.202222e-001
1.427125e+003;1.203253e-001
1.429054e+003;1.197678e-001
1.430983e+003;1.186646e-001
1.432911e+003;1.172585e-001
1.434840e+003;1.154743e-001
1.436768e+003;1.134307e-001
1.438697e+003;1.119418e-001
1.440625e+003;1.107928e-001
1.442554e+003;1.100689e-001
1.444482e+003;1.095426e-001
1.446411e+003;1.089044e-001
1.448340e+003;1.083834e-001
1.450268e+003;1.078529e-001
1.452197e+003;1.070484e-001
1.454125e+003;1.060288e-001
1.456054e+003;1.047814e-001
1.457982e+003;1.032508e-001
1.459911e+003;1.019431e-001
1.461839e+003;1.005031e-001
1.463768e+003;9.870362e-002
1.465697e+003;9.697720e-002
1.467625e+003;9.537399e-002
1.469554e+003;9.349818e-002
1.471482e+003;9.181043e-002
1.473411e+003;9.039147e-002
1.475339e+003;8.914021e-002
1.477268e+003;8.786695e-002
1.479196e+003;8.653666e-002
1.481125e+003;8.526910e-002
1.483053e+003;8.393034e-002
1.484982e+003;8.231589e-002
1.486911e+003;8.059153e-002
1.488839e+003;7.907675e-002
1.490768e+003;7.811230e-002
1.492696e+003;7.748778e-002
1.494625e+003;7.675447e-002
1.496553e+003;7.646051e-002
1.498482e+003;7.638125e-002
1.500410e+003;7.629949e-002
1.502339e+003;7.627852e-002
1.504267e+003;7.606407e-002
1.506196e+003;7.555381e-002
1.508125e+003;7.521835e-002
1.510053e+003;7.526816e-002
1.511982e+003;7.494434e-002
1.513910e+003;7.461371e-002
1.515839e+003;7.443850e-002
1.517767e+003;7.413464e-002
1.519696e+003;7.377883e-002
1.521624e+003;7.362112e-002
1.523553e+003;7.351412e-002
1.525481e+003;7.335807e-002
1.527410e+003;7.321835e-002
1.529339e+003;7.309424e-002
1.531267e+003;7.323988e-002
1.533196e+003;7.340527e-002
1.535124e+003;7.334697e-002
1.537053e+003;7.311878e-002
1.538981e+003;7.287642e-002
1.540910e+003;7.270548e-002
1.542838e+003;7.292133e-002
1.544767e+003;7.334430e-002
1.546695e+003;7.357606e-002
1.548624e+003;7.363030e-002
1.550553e+003;7.344815e-002
1.552481e+003;7.338902e-002
1.554410e+003;7.373721e-002
1.556338e+003;7.398716e-002
1.558267e+003;7.391237e-002
1.560195e+003;7.409326e-002
1.562124e+003;7.431570e-002
1.564052e+003;7.449523e-002
1.565981e+003;7.465573e-002
1.567910e+003;7.477226e-002
1.569838e+003;7.500494e-002
1.571767e+003;7.537129e-002
1.573695e+003;7.561067e-002
1.575624e+003;7.582100e-002
1.577552e+003;7.600778e-002
1.579481e+003;7.610287e-002
1.581409e+003;7.634088e-002
1.583338e+003;7.666638e-002
1.585266e+003;7.698353e-002
1.587195e+003;7.751543e-002
1.589124e+003;7.801531e-002
1.591052e+003;7.828487e-002
1.592981e+003;7.821897e-002
1.594909e+003;7.831582e-002
1.596838e+003;7.883196e-002
1.598766e+003;7.920000e-002
1.600695e+003;7.941652e-002
1.602623e+003;7.959550e-002
1.604552e+003;7.994571e-002
1.606480e+003;8.024786e-002
1.608409e+003;8.035433e-002
1.610338e+003;8.047459e-002
1.612266e+003;8.057031e-002
1.614195e+003;8.051690e-002
1.616123e+003;8.032120e-002
1.618052e+003;8.029150e-002
1.619980e+003;8.055507e-002
1.621909e+003;8.073169e-002
1.623837e+003;8.099701e-002
1.625766e+003;8.114632e-002
1.627694e+003;8.116805e-002
1.629623e+003;8.123276e-002
1.631552e+003;8.132697e-002
1.633480e+003;8.140290e-002
1.635409e+003;8.124123e-002
1.637337e+003;8.114245e-002
1.639266e+003;8.134739e-002
1.641194e+003;8.136354e-002
1.643123e+003;8.110235e-002
1.645051e+003;8.098954e-002
1.646980e+003;8.084694e-002
1.648909e+003;8.039432e-002
1.650837e+003;7.995650e-002
1.652766e+003;7.989700e-002
1.654694e+003;8.009518e-002
1.656623e+003;7.995093e-002
1.658551e+003;7.940017e-002
1.660480e+003;7.875136e-002
1.662408e+003;7.820735e-002
1.664337e+003;7.785743e-002
1.666266e+003;7.769509e-002
1.668194e+003;7.729419e-002
1.670123e+003;7.675111e-002
1.672051e+003;7.631971e-002
1.673980e+003;7.608554e-002
1.675908e+003;7.571184e-002
1.677837e+003;7.517194e-002
1.679765e+003;7.474948e-002
1.681694e+003;7.440279e-002
1.683622e+003;7.389972e-002
1.685551e+003;7.335736e-002
1.687479e+003;7.336576e-002
1.689408e+003;7.332300e-002
1.691337e+003;7.285365e-002
1.693265e+003;7.248922e-002
1.695194e+003;7.211109e-002
1.697122e+003;7.182354e-002
1.699051e+003;7.160374e-002
1.700979e+003;7.114769e-002
1.702908e+003;7.103767e-002
1.704836e+003;7.132711e-002
1.706765e+003;7.138901e-002
1.708693e+003;7.090852e-002
1.710622e+003;7.064263e-002
1.712551e+003;7.066782e-002
1.714479e+003;7.049587e-002
1.716408e+003;7.003315e-002
1.718336e+003;6.987924e-002
1.720265e+003;7.017960e-002
1.722193e+003;7.027990e-002
1.724122e+003;7.014427e-002
1.726050e+003;6.989169e-002
1.727979e+003;6.955906e-002
1.729908e+003;6.940380e-002
1.731836e+003;6.927720e-002
1.733765e+003;6.901596e-002
1.735693e+003;6.893937e-002
1.737622e+003;6.898438e-002
1.739550e+003;6.877773e-002
1.741479e+003;6.833130e-002
1.743407e+003;6.779539e-002
1.745336e+003;6.759167e-002
1.747265e+003;6.749807e-002
1.749193e+003;6.724674e-002
1.751122e+003;6.695637e-002
1.753050e+003;6.701796e-002
1.754979e+003;6.737616e-002
1.756907e+003;6.740530e-002
1.758836e+003;6.747814e-002
1.760764e+003;6.758311e-002
1.762693e+003;6.748077e-002
1.764621e+003;6.738746e-002
1.766550e+003;6.744497e-002
1.768479e+003;6.762275e-002
1.770407e+003;6.748371e-002
1.772336e+003;6.717372e-002
1.774264e+003;6.710152e-002
1.776193e+003;6.710678e-002
1.778121e+003;6.697064e-002
1.780050e+003;6.664332e-002
1.781978e+003;6.669582e-002
1.783907e+003;6.680482e-002
1.785835e+003;6.665866e-002
1.787764e+003;6.666160e-002
1.789693e+003;6.690659e-002
1.791621e+003;6.713079e-002
1.793550e+003;6.708079e-002
1.795478e+003;6.692104e-002
1.797407e+003;6.665622e-002
1.799335e+003;6.659326e-002
1.801264e+003;6.668535e-002
1.803192e+003;6.657936e-002
1.805121e+003;6.644215e-002
1.807049e+003;6.633594e-002
1.808978e+003;6.622899e-002
1.810907e+003;6.631023e-002
1.812835e+003;6.652320e-002
1.814764e+003;6.669284e-002
1.816692e+003;6.664162e-002
1.818621e+003;6.642859e-002
1.820549e+003;6.634011e-002
1.822478e+003;6.639655e-002
1.824406e+003;6.652301e-002
1.826335e+003;6.662489e-002
1.828264e+003;6.638362e-002
1.830192e+003;6.608094e-002
1.832121e+003;6.576516e-002
1.834049e+003;6.571736e-002
1.835978e+003;6.584381e-002
1.837906e+003;6.594566e-002
1.839835e+003;6.589637e-002
1.841763e+003;6.584644e-002
1.843692e+003;6.576366e-002
1.845620e+003;6.572279e-002
1.847549e+003;6.573378e-002
1.849478e+003;6.557368e-002
1.851406e+003;6.535524e-002
1.853335e+003;6.539996e-002
1.855263e+003;6.531689e-002
1.857192e+003;6.493794e-002
1.859120e+003;6.484438e-002
1.861049e+003;6.502164e-002
1.862977e+003;6.518701e-002
1.864906e+003;6.517468e-002
1.866834e+003;6.518662e-002
1.868763e+003;6.511640e-002
1.870692e+003;6.496103e-002
1.872620e+003;6.480648e-002
1.874549e+003;6.493691e-002
1.876477e+003;6.505074e-002
1.878406e+003;6.505866e-002
1.880334e+003;6.513819e-002
1.882263e+003;6.517792e-002
1.884191e+003;6.501190e-002
1.886120e+003;6.491213e-002
1.888048e+003;6.490493e-002
1.889977e+003;6.493475e-002
1.891906e+003;6.496295e-002
1.893834e+003;6.487530e-002
1.895763e+003;6.461573e-002
1.897691e+003;6.450774e-002
1.899620e+003;6.445850e-002
1.901548e+003;6.436196e-002
1.903477e+003;6.436008e-002
1.905405e+003;6.458794e-002
1.907334e+003;6.479875e-002
1.909262e+003;6.473598e-002
1.911191e+003;6.461469e-002
1.913120e+003;6.469329e-002
1.915048e+003;6.472806e-002
1.916977e+003;6.455537e-002
1.918905e+003;6.443663e-002
1.920834e+003;6.459985e-002
1.922762e+003;6.482460e-002
1.924691e+003;6.483599e-002
1.926619e+003;6.478082e-002
1.928548e+003;6.469475e-002
1.930477e+003;6.475533e-002
1.932405e+003;6.501421e-002
1.934334e+003;6.514743e-002
1.936262e+003;6.498081e-002
1.938191e+003;6.473237e-002
1.940119e+003;6.483122e-002
1.942048e+003;6.520829e-002
1.943976e+003;6.551715e-002
1.945905e+003;6.542882e-002
1.947833e+003;6.521346e-002
1.949762e+003;6.532166e-002
1.951691e+003;6.554274e-002
1.953619e+003;6.544199e-002
1.955548e+003;6.530968e-002
1.957476e+003;6.542273e-002
1.959405e+003;6.562389e-002
1.961333e+003;6.551056e-002
1.963262e+003;6.523910e-002
1.965190e+003;6.509049e-002
1.967119e+003;6.529324e-002
1.969047e+003;6.568610e-002
1.970976e+003;6.558258e-002
1.972905e+003;6.536229e-002
1.974833e+003;6.535270e-002
1.976762e+003;6.546865e-002
1.978690e+003;6.572784e-002
1.980619e+003;6.585808e-002
1.982547e+003;6.577977e-002
1.984476e+003;6.573328e-002
1.986404e+003;6.566370e-002
1.988333e+003;6.567365e-002
1.990261e+003;6.577395e-002
1.992190e+003;6.575251e-002
1.994119e+003;6.575872e-002
1.996047e+003;6.600174e-002
1.997976e+003;6.605192e-002
1.999904e+003;6.586356e-002
2.001833e+003;6.592140e-002
2.003761e+003;6.602407e-002
2.005690e+003;6.605998e-002
2.007618e+003;6.630000e-002
2.009547e+003;6.672908e-002
2.011476e+003;6.686553e-002
2.013404e+003;6.704120e-002
2.015333e+003;6.726690e-002
2.017261e+003;6.724559e-002
2.019190e+003;6.694493e-002
2.021118e+003;6.691733e-002
2.023047e+003;6.708160e-002
2.024975e+003;6.705755e-002
2.026904e+003;6.702712e-002
2.028833e+003;6.708067e-002
2.030761e+003;6.706049e-002
2.032690e+003;6.691563e-002
2.034618e+003;6.691876e-002
2.036547e+003;6.715485e-002
2.038475e+003;6.717557e-002
2.040404e+003;6.702975e-002
2.042332e+003;6.705059e-002
2.044261e+003;6.707704e-002
2.046189e+003;6.715214e-002
2.048118e+003;6.719746e-002
2.050047e+003;6.730670e-002
2.051975e+003;6.736688e-002
2.053904e+003;6.719391e-002
2.055832e+003;6.702577e-002
2.057761e+003;6.707050e-002
2.059689e+003;6.724388e-002
2.061618e+003;6.724965e-002
2.063546e+003;6.703338e-002
2.065475e+003;6.705415e-002
2.067404e+003;6.690059e-002
2.069332e+003;6.655414e-002
2.071260e+003;6.668253e-002
2.073189e+003;6.716111e-002
2.075118e+003;6.726926e-002
2.077046e+003;6.700257e-002
2.078975e+003;6.686117e-002
2.080903e+003;6.692270e-002
2.082832e+003;6.701598e-002
2.084760e+003;6.685703e-002
2.086689e+003;6.677673e-002
2.088617e+003;6.709943e-002
2.090546e+003;6.731681e-002
2.092475e+003;6.707688e-002
2.094403e+003;6.674165e-002
2.096332e+003;6.672890e-002
2.098260e+003;6.684567e-002
2.100189e+003;6.692173e-002
2.102117e+003;6.695231e-002
2.104046e+003;6.691466e-002
2.105974e+003;6.703006e-002
2.107903e+003;6.708245e-002
2.109832e+003;6.693321e-002
2.111760e+003;6.658240e-002
2.113688e+003;6.654131e-002
2.115617e+003;6.672677e-002
2.117546e+003;6.669486e-002
2.119474e+003;6.666797e-002
2.121403e+003;6.675494e-002
2.123331e+003;6.679408e-002
2.125260e+003;6.688892e-002
2.127188e+003;6.694010e-002
2.129117e+003;6.709765e-002
2.131045e+003;6.742658e-002
2.132974e+003;6.757548e-002
2.134903e+003;6.757440e-002
2.136831e+003;6.745867e-002
2.138760e+003;6.718045e-002
2.140688e+003;6.727379e-002
2.142617e+003;6.740367e-002
2.144545e+003;6.709529e-002
2.146474e+003;6.688865e-002
2.148402e+003;6.693662e-002
2.150331e+003;6.695185e-002
2.152260e+003;6.690751e-002
2.154188e+003;6.686929e-002
2.156117e+003;6.693140e-002
2.158045e+003;6.706258e-002
2.159974e+003;6.712228e-002
2.161902e+003;6.699182e-002
2.163831e+003;6.686306e-002
2.165759e+003;6.684382e-002
2.167688e+003;6.671414e-002
2.169616e+003;6.651112e-002
2.171545e+003;6.646536e-002
2.173474e+003;6.652034e-002
2.175402e+003;6.652582e-002
2.177331e+003;6.654742e-002
2.179259e+003;6.642084e-002
2.181188e+003;6.634668e-002
2.183116e+003;6.596417e-002
2.185045e+003;6.573652e-002
2.186973e+003;6.573675e-002
2.188902e+003;6.585303e-002
2.190831e+003;6.600274e-002
2.192759e+003;6.589364e-002
2.194688e+003;6.574989e-002
2.196616e+003;6.584015e-002
2.198545e+003;6.589729e-002
2.200473e+003;6.560300e-002
2.202402e+003;6.538567e-002
2.204330e+003;6.544696e-002
2.206259e+003;6.536923e-002
2.208188e+003;6.517699e-002
2.210116e+003;6.534554e-002
2.212044e+003;6.562624e-002
2.213973e+003;6.552760e-002
2.215902e+003;6.549858e-002
2.217830e+003;6.562154e-002
2.219759e+003;6.537400e-002
2.221687e+003;6.536456e-002
2.223616e+003;6.571852e-002
2.225544e+003;6.584420e-002
2.227473e+003;6.561071e-002
2.229401e+003;6.561657e-002
2.231330e+003;6.572549e-002
2.233259e+003;6.537393e-002
2.235187e+003;6.526775e-002
2.237116e+003;6.563988e-002
2.239044e+003;6.555700e-002
2.240973e+003;6.533283e-002
2.242901e+003;6.548325e-002
2.244830e+003;6.560674e-002
2.246758e+003;6.553919e-002
2.248687e+003;6.546449e-002
2.250615e+003;6.535247e-002
2.252544e+003;6.528061e-002
2.254473e+003;6.512364e-002
2.256401e+003;6.498577e-002
2.258330e+003;6.503396e-002
2.260258e+003;6.528284e-002
2.262187e+003;6.534862e-002
2.264115e+003;6.502072e-002
2.266044e+003;6.474994e-002
2.267972e+003;6.497831e-002
2.269901e+003;6.503522e-002
2.271830e+003;6.481879e-002
2.273758e+003;6.482856e-002
2.275687e+003;6.475102e-002
2.277615e+003;6.457767e-002
2.279544e+003;6.460777e-002
2.281472e+003;6.466530e-002
2.283401e+003;6.424731e-002
2.285329e+003;6.397291e-002
2.287258e+003;6.438114e-002
2.289187e+003;6.473260e-002
2.291115e+003;6.472671e-002
2.293043e+003;6.455910e-002
2.294972e+003;6.438752e-002
2.296901e+003;6.438103e-002
2.298829e+003;6.429088e-002
2.300758e+003;6.418262e-002
2.302686e+003;6.416468e-002
2.304615e+003;6.421904e-002
2.306543e+003;6.424236e-002
2.308472e+003;6.406391e-002
2.310400e+003;6.398631e-002
2.312329e+003;6.406537e-002
2.314258e+003;6.438345e-002
2.316186e+003;6.443617e-002
2.318115e+003;6.434894e-002
2.320043e+003;6.439236e-002
2.321972e+003;6.435078e-002
2.323900e+003;6.473844e-002
2.325829e+003;6.499713e-002
2.327757e+003;6.467737e-002
2.329686e+003;6.458863e-002
2.331615e+003;6.473348e-002
2.333543e+003;6.478310e-002
2.335472e+003;6.465753e-002
2.337400e+003;6.474975e-002
2.339329e+003;6.497107e-002
2.341257e+003;6.492517e-002
2.343186e+003;6.508160e-002
2.345114e+003;6.512499e-002
2.347043e+003;6.519032e-002
2.348971e+003;6.532039e-002
2.350900e+003;6.516033e-002
2.352829e+003;6.505778e-002
2.354757e+003;6.512144e-002
2.356686e+003;6.525628e-002
2.358614e+003;6.517603e-002
2.360543e+003;6.519228e-002
2.362471e+003;6.568062e-002
2.364400e+003;6.591403e-002
2.366328e+003;6.573845e-002
2.368257e+003;6.575899e-002
2.370186e+003;6.582639e-002
2.372114e+003;6.602141e-002
2.374042e+003;6.609239e-002
2.375971e+003;6.592587e-002
2.377900e+003;6.595784e-002
2.379828e+003;6.614707e-002
2.381757e+003;6.627090e-002
2.383685e+003;6.603965e-002
2.385614e+003;6.586544e-002
2.387542e+003;6.613252e-002
2.389471e+003;6.628352e-002
2.391399e+003;6.608140e-002
2.393328e+003;6.609555e-002
2.395257e+003;6.641292e-002
2.397185e+003;6.664981e-002
2.399114e+003;6.645933e-002
2.401042e+003;6.619599e-002
2.402971e+003;6.625862e-002
2.404899e+003;6.668354e-002
2.406828e+003;6.693704e-002
2.408756e+003;6.684289e-002
2.410685e+003;6.677406e-002
2.412614e+003;6.683601e-002
2.414542e+003;6.698896e-002
2.416471e+003;6.730945e-002
2.418399e+003;6.748154e-002
2.420328e+003;6.746006e-002
2.422256e+003;6.747457e-002
2.424185e+003;6.729320e-002
2.426113e+003;6.716068e-002
2.428042e+003;6.734973e-002
2.429970e+003;6.750151e-002
2.431899e+003;6.734795e-002
2.433828e+003;6.736007e-002
2.435756e+003;6.766976e-002
2.437685e+003;6.813799e-002
2.439613e+003;6.853312e-002
2.441542e+003;6.858620e-002
2.443470e+003;6.844553e-002
2.445399e+003;6.821196e-002
2.447327e+003;6.812973e-002
2.449256e+003;6.813989e-002
2.451185e+003;6.810039e-002
2.453113e+003;6.825712e-002
2.455042e+003;6.845254e-002
2.456970e+003;6.851411e-002
2.458899e+003;6.851116e-002
2.460827e+003;6.861270e-002
2.462756e+003;6.884536e-002
2.464684e+003;6.904497e-002
2.466613e+003;6.905557e-002
2.468542e+003;6.895230e-002
2.470470e+003;6.904404e-002
2.472398e+003;6.901984e-002
2.474327e+003;6.887168e-002
2.476256e+003;6.903402e-002
2.478184e+003;6.914547e-002
2.480113e+003;6.887355e-002
2.482041e+003;6.864262e-002
2.483970e+003;6.881282e-002
2.485898e+003;6.914897e-002
2.487827e+003;6.943957e-002
2.489755e+003;6.959204e-002
2.491684e+003;6.956143e-002
2.493613e+003;6.935921e-002
2.495541e+003;6.928773e-002
2.497470e+003;6.920041e-002
2.499398e+003;6.929123e-002
2.501327e+003;6.951936e-002
2.503255e+003;6.964420e-002
2.505184e+003;6.962397e-002
2.507112e+003;6.982064e-002
2.509041e+003;6.993385e-002
2.510969e+003;6.992563e-002
2.512898e+003;7.007267e-002
2.514827e+003;7.033568e-002
2.516755e+003;7.036988e-002
2.518684e+003;7.037219e-002
2.520612e+003;7.032898e-002
2.522541e+003;7.051134e-002
2.524469e+003;7.060700e-002
2.526398e+003;7.029793e-002
2.528326e+003;7.024429e-002
2.530255e+003;7.032461e-002
2.532184e+003;7.030448e-002
2.534112e+003;7.037690e-002
2.536041e+003;7.024822e-002
2.537969e+003;7.009143e-002
2.539898e+003;7.007781e-002
2.541826e+003;7.009533e-002
2.543755e+003;7.014859e-002
2.545683e+003;7.028706e-002
2.547612e+003;7.042019e-002
2.549541e+003;7.047767e-002
2.551469e+003;7.065514e-002
2.553397e+003;7.060166e-002
2.555326e+003;7.031472e-002
2.557255e+003;7.036135e-002
2.559183e+003;7.071461e-002
2.561112e+003;7.078940e-002
2.563040e+003;7.076331e-002
2.564969e+003;7.062520e-002
2.566897e+003;7.052682e-002
2.568826e+003;7.052775e-002
2.570754e+003;7.011620e-002
2.572683e+003;7.009540e-002
2.574612e+003;7.066157e-002
2.576540e+003;7.066462e-002
2.578469e+003;7.062247e-002
2.580397e+003;7.118446e-002
2.582326e+003;7.128635e-002
2.584254e+003;7.059975e-002
2.586183e+003;7.034515e-002
2.588111e+003;7.045510e-002
2.590040e+003;7.067698e-002
2.591969e+003;7.082263e-002
2.593897e+003;7.091547e-002
2.595826e+003;7.117672e-002
2.597754e+003;7.129365e-002
2.599683e+003;7.127042e-002
2.601611e+003;7.122310e-002
2.603540e+003;7.114944e-002
2.605468e+003;7.132305e-002
2.607397e+003;7.137565e-002
2.609325e+003;7.126144e-002
2.611254e+003;7.135461e-002
2.613183e+003;7.166865e-002
2.615111e+003;7.159217e-002
2.617040e+003;7.141877e-002
2.618968e+003;7.164884e-002
2.620897e+003;7.185642e-002
2.622825e+003;7.188652e-002
2.624754e+003;7.195515e-002
2.626682e+003;7.191578e-002
2.628611e+003;7.218777e-002
2.630540e+003;7.264558e-002
2.632468e+003;7.271719e-002
2.634396e+003;7.243726e-002
2.636325e+003;7.209634e-002
2.638254e+003;7.196958e-002
2.640182e+003;7.227018e-002
2.642111e+003;7.270963e-002
2.644039e+003;7.294527e-002
2.645968e+003;7.301971e-002
2.647896e+003;7.289209e-002
2.649825e+003;7.262675e-002
2.651753e+003;7.258022e-002
2.653682e+003;7.282176e-002
2.655611e+003;7.302218e-002
2.657539e+003;7.326573e-002
2.659468e+003;7.327145e-002
2.661396e+003;7.314195e-002
2.663325e+003;7.331143e-002
2.665253e+003;7.354952e-002
2.667182e+003;7.368903e-002
2.669110e+003;7.345596e-002
2.671039e+003;7.336901e-002
2.672968e+003;7.350870e-002
2.674896e+003;7.366045e-002
2.676825e+003;7.376383e-002
2.678753e+003;7.378151e-002
2.680682e+003;7.400426e-002
2.682610e+003;7.403144e-002
2.684539e+003;7.402717e-002
2.686467e+003;7.406218e-002
2.688396e+003;7.415315e-002
2.690324e+003;7.436678e-002
2.692253e+003;7.464637e-002
2.694182e+003;7.472908e-002
2.696110e+003;7.479167e-002
2.698039e+003;7.494512e-002
2.699967e+003;7.493079e-002
2.701896e+003;7.476038e-002
2.703824e+003;7.457972e-002
2.705753e+003;7.472775e-002
2.707681e+003;7.523412e-002
2.709610e+003;7.547579e-002
2.711539e+003;7.546676e-002
2.713467e+003;7.546282e-002
2.715396e+003;7.549357e-002
2.717324e+003;7.557073e-002
2.719253e+003;7.580703e-002
2.721181e+003;7.580277e-002
2.723110e+003;7.577058e-002
2.725038e+003;7.619333e-002
2.726967e+003;7.617224e-002
2.728896e+003;7.614235e-002
2.730824e+003;7.654681e-002
2.732752e+003;7.664108e-002
2.734681e+003;7.627796e-002
2.736610e+003;7.624759e-002
2.738538e+003;7.639180e-002
2.740467e+003;7.638457e-002
2.742395e+003;7.642878e-002
2.744324e+003;7.695830e-002
2.746252e+003;7.729851e-002
2.748181e+003;7.690830e-002
2.750109e+003;7.640583e-002
2.752038e+003;7.630122e-002
2.753967e+003;7.651006e-002
2.755895e+003;7.695090e-002
2.757824e+003;7.735389e-002
2.759752e+003;7.736376e-002
2.761681e+003;7.716499e-002
2.763609e+003;7.701764e-002
2.765538e+003;7.732226e-002
2.767466e+003;7.782175e-002
2.769395e+003;7.768162e-002
2.771323e+003;7.754137e-002
2.773252e+003;7.792339e-002
2.775181e+003;7.819771e-002
2.777109e+003;7.839429e-002
2.779038e+003;7.857816e-002
2.780966e+003;7.856617e-002
2.782895e+003;7.844184e-002
2.784823e+003;7.876259e-002
2.786752e+003;7.951324e-002
2.788680e+003;7.971200e-002
2.790609e+003;7.955173e-002
2.792538e+003;7.953895e-002
2.794466e+003;7.976057e-002
2.796395e+003;8.020226e-002
2.798323e+003;8.031562e-002
2.800252e+003;8.042247e-002
2.802180e+003;8.084347e-002
2.804109e+003;8.099189e-002
2.806037e+003;8.090710e-002
2.807966e+003;8.125325e-002
2.809895e+003;8.182361e-002
2.811823e+003;8.234452e-002
2.813751e+003;8.266021e-002
2.815680e+003;8.314096e-002
2.817609e+003;8.361971e-002
2.819537e+003;8.390565e-002
2.821466e+003;8.423462e-002
2.823394e+003;8.458843e-002
2.825323e+003;8.486679e-002
2.827251e+003;8.521580e-002
2.829180e+003;8.550315e-002
2.831108e+003;8.587169e-002
2.833037e+003;8.649614e-002
2.834966e+003;8.743937e-002
2.836894e+003;8.870565e-002
2.838823e+003;8.984790e-002
2.840751e+003;9.055360e-002
2.842680e+003;9.102863e-002
2.844608e+003;9.164954e-002
2.846537e+003;9.238704e-002
2.848465e+003;9.352291e-002
2.850394e+003;9.483408e-002
2.852323e+003;9.583007e-002
2.854251e+003;9.709921e-002
2.856180e+003;9.824305e-002
2.858108e+003;9.874208e-002
2.860037e+003;9.954644e-002
2.861965e+003;1.007698e-001
2.863894e+003;1.019326e-001
2.865822e+003;1.025625e-001
2.867751e+003;1.030507e-001
2.869679e+003;1.037912e-001
2.871608e+003;1.044411e-001
2.873536e+003;1.051047e-001
2.875465e+003;1.056052e-001
2.877394e+003;1.059136e-001
2.879322e+003;1.065997e-001
2.881251e+003;1.073040e-001
2.883179e+003;1.072810e-001
2.885108e+003;1.069204e-001
2.887036e+003;1.071776e-001
2.888965e+003;1.078241e-001
2.890893e+003;1.084715e-001
2.892822e+003;1.087487e-001
2.894750e+003;1.087971e-001
2.896679e+003;1.088150e-001
2.898608e+003;1.089649e-001
2.900536e+003;1.087435e-001
2.902465e+003;1.082099e-001
2.904393e+003;1.074834e-001
2.906322e+003;1.064998e-001
2.908250e+003;1.054676e-001
2.910179e+003;1.046929e-001
2.912107e+003;1.037026e-001
2.914036e+003;1.020699e-001
2.915965e+003;1.004590e-001
2.917893e+003;9.941108e-002
2.919822e+003;9.827612e-002
2.921750e+003;9.713124e-002
2.923679e+003;9.603884e-002
2.925607e+003;9.547032e-002
2.927536e+003;9.486397e-002
2.929464e+003;9.363212e-002
2.931393e+003;9.257661e-002
2.933322e+003;9.176290e-002
2.935250e+003;9.074418e-002
2.937178e+003;8.994388e-002
2.939107e+003;8.969304e-002
2.941036e+003;8.929992e-002
2.942964e+003;8.827119e-002
2.944893e+003;8.744893e-002
2.946821e+003;8.680025e-002
2.948750e+003;8.609156e-002
2.950678e+003;8.531479e-002
2.952607e+003;8.469610e-002
2.954535e+003;8.382189e-002
2.956464e+003;8.277481e-002
2.958393e+003;8.200322e-002
2.960321e+003;8.131287e-002
2.962250e+003;8.033173e-002
2.964178e+003;7.952705e-002
2.966107e+003;7.889608e-002
2.968035e+003;7.846875e-002
2.969964e+003;7.866473e-002
2.971892e+003;7.837968e-002
2.973821e+003;7.753108e-002
2.975750e+003;7.683390e-002
2.977678e+003;7.647533e-002
2.979607e+003;7.600477e-002
2.981535e+003;7.575172e-002
2.983464e+003;7.561399e-002
2.985392e+003;7.532033e-002
2.987321e+003;7.510017e-002
2.989249e+003;7.491563e-002
2.991178e+003;7.427992e-002
2.993106e+003;7.405432e-002
2.995035e+003;7.415558e-002
2.996964e+003;7.406976e-002
2.998892e+003;7.412485e-002
3.000821e+003;7.418817e-002
3.002749e+003;7.445353e-002
3.004678e+003;7.488102e-002
3.006606e+003;7.480324e-002
3.008535e+003;7.451048e-002
3.010463e+003;7.477152e-002
3.012392e+003;7.512865e-002
3.014321e+003;7.516840e-002
3.016249e+003;7.530102e-002
3.018177e+003;7.537361e-002
3.020106e+003;7.518774e-002
3.022035e+003;7.487382e-002
3.023963e+003;7.503746e-002
3.025892e+003;7.534307e-002
3.027820e+003;7.561351e-002
3.029749e+003;7.607444e-002
3.031677e+003;7.610678e-002
3.033606e+003;7.572659e-002
3.035534e+003;7.626429e-002
3.037463e+003;7.675418e-002
3.039392e+003;7.665527e-002
3.041320e+003;7.678954e-002
3.043249e+003;7.699481e-002
3.045177e+003;7.723188e-002
3.047106e+003;7.785497e-002
3.049034e+003;7.802260e-002
3.050963e+003;7.826305e-002
3.052891e+003;7.898633e-002
3.054820e+003;7.915635e-002
3.056749e+003;7.887518e-002
3.058677e+003;7.887057e-002
3.060606e+003;7.928709e-002
3.062534e+003;7.984778e-002
3.064463e+003;8.003215e-002
3.066391e+003;8.001219e-002
3.068320e+003;8.016268e-002
3.070248e+003;8.094350e-002
3.072177e+003;8.150466e-002
3.074105e+003;8.166479e-002
3.076034e+003;8.165830e-002
3.077963e+003;8.148175e-002
3.079891e+003;8.144678e-002
3.081820e+003;8.187038e-002
3.083748e+003;8.221959e-002
3.085677e+003;8.245640e-002
3.087605e+003;8.313442e-002
3.089534e+003;8.362116e-002
3.091462e+003;8.395932e-002
3.093391e+003;8.408625e-002
3.095320e+003;8.407982e-002
3.097248e+003;8.453425e-002
3.099177e+003;8.488686e-002
3.101105e+003;8.515896e-002
3.103034e+003;8.580786e-002
3.104962e+003;8.612008e-002
3.106891e+003;8.622123e-002
3.108819e+003;8.663373e-002
3.110748e+003;8.737166e-002
3.112677e+003;8.782902e-002
3.114605e+003;8.760600e-002
3.116533e+003;8.754455e-002
3.118462e+003;8.797032e-002
3.120391e+003;8.864335e-002
3.122319e+003;8.926956e-002
3.124248e+003;8.948510e-002
3.126176e+003;9.013622e-002
3.128105e+003;9.038560e-002
3.130033e+003;9.036797e-002
3.131962e+003;9.065468e-002
3.133890e+003;9.146757e-002
3.135819e+003;9.204697e-002
3.137748e+003;9.250243e-002
3.139676e+003;9.291705e-002
3.141605e+003;9.317698e-002
3.143533e+003;9.361790e-002
3.145462e+003;9.408395e-002
3.147390e+003;9.425253e-002
3.149319e+003;9.491199e-002
3.151247e+003;9.563754e-002
3.153176e+003;9.609262e-002
3.155104e+003;9.657317e-002
3.157033e+003;9.685390e-002
3.158962e+003;9.756690e-002
3.160890e+003;9.836102e-002
3.162819e+003;9.887083e-002
3.164747e+003;9.941678e-002
3.166676e+003;9.989990e-002
3.168604e+003;1.003897e-001
3.170533e+003;1.004304e-001
3.172461e+003;1.002923e-001
3.174390e+003;1.010971e-001
3.176319e+003;1.021382e-001
3.178247e+003;1.027084e-001
3.180176e+003;1.034556e-001
3.182104e+003;1.039043e-001
3.184033e+003;1.042027e-001
3.185961e+003;1.045779e-001
3.187890e+003;1.054013e-001
3.189818e+003;1.058846e-001
3.191747e+003;1.065242e-001
3.193676e+003;1.077991e-001
3.195604e+003;1.085508e-001
3.197532e+003;1.086312e-001
3.199461e+003;1.092771e-001
3.201390e+003;1.100025e-001
3.203318e+003;1.108467e-001
3.205247e+003;1.118897e-001
3.207175e+003;1.129706e-001
3.209104e+003;1.136234e-001
3.211032e+003;1.140032e-001
3.212961e+003;1.143621e-001
3.214889e+003;1.150944e-001
3.216818e+003;1.158432e-001
3.218747e+003;1.171855e-001
3.220675e+003;1.185027e-001
3.222604e+003;1.190596e-001
3.224532e+003;1.196076e-001
3.226461e+003;1.203997e-001
3.228389e+003;1.217202e-001
3.230318e+003;1.230818e-001
3.232246e+003;1.237538e-001
3.234175e+003;1.240321e-001
3.236104e+003;1.243200e-001
3.238032e+003;1.249960e-001
3.239961e+003;1.263293e-001
3.241889e+003;1.276626e-001
3.243818e+003;1.289902e-001
3.245746e+003;1.296058e-001
3.247675e+003;1.301541e-001
3.249603e+003;1.313961e-001
3.251532e+003;1.326296e-001
3.253460e+003;1.337500e-001
3.255389e+003;1.346126e-001
3.257318e+003;1.350442e-001
3.259246e+003;1.358627e-001
3.261175e+003;1.370686e-001
3.263103e+003;1.380732e-001
3.265032e+003;1.392131e-001
3.266960e+003;1.407507e-001
3.268889e+003;1.416418e-001
3.270817e+003;1.416098e-001
3.272746e+003;1.422743e-001
3.274675e+003;1.439077e-001
3.276603e+003;1.448791e-001
3.278531e+003;1.454452e-001
3.280460e+003;1.455697e-001
3.282389e+003;1.464089e-001
3.284317e+003;1.470236e-001
3.286246e+003;1.471990e-001
3.288174e+003;1.477326e-001
3.290103e+003;1.484925e-001
3.292031e+003;1.488503e-001
3.293960e+003;1.488472e-001
3.295888e+003;1.494139e-001
3.297817e+003;1.503972e-001
3.299746e+003;1.510956e-001
3.301674e+003;1.505585e-001
3.303603e+003;1.501555e-001
3.305531e+003;1.500997e-001
3.307460e+003;1.500446e-001
3.309388e+003;1.508979e-001
3.311317e+003;1.518774e-001
3.313245e+003;1.514865e-001
3.315174e+003;1.513544e-001
3.317103e+003;1.514916e-001
3.319031e+003;1.511258e-001
3.320960e+003;1.516149e-001
3.322888e+003;1.523087e-001
3.324817e+003;1.530892e-001
3.326745e+003;1.540389e-001
3.328674e+003;1.547907e-001
3.330602e+003;1.550023e-001
3.332531e+003;1.548660e-001
3.334459e+003;1.551258e-001
3.336388e+003;1.556024e-001
3.338317e+003;1.558153e-001
3.340245e+003;1.558903e-001
3.342174e+003;1.557339e-001
3.344102e+003;1.550257e-001
3.346031e+003;1.543116e-001
3.347959e+003;1.536383e-001
3.349888e+003;1.529888e-001
3.351816e+003;1.521568e-001
3.353745e+003;1.515214e-001
3.355674e+003;1.514593e-001
3.357602e+003;1.509832e-001
3.359531e+003;1.498931e-001
3.361459e+003;1.491508e-001
3.363388e+003;1.485834e-001
3.365316e+003;1.476016e-001
3.367245e+003;1.467221e-001
3.369173e+003;1.460933e-001
3.371102e+003;1.454801e-001
3.373031e+003;1.450260e-001
3.374959e+003;1.440073e-001
3.376887e+003;1.425437e-001
3.378816e+003;1.420573e-001
3.380745e+003;1.422286e-001
3.382673e+003;1.419723e-001
3.384602e+003;1.409147e-001
3.386530e+003;1.394049e-001
3.388459e+003;1.383684e-001
3.390387e+003;1.380669e-001
3.392316e+003;1.380576e-001
3.394244e+003;1.378262e-001
3.396173e+003;1.372181e-001
3.398102e+003;1.363601e-001
3.400030e+003;1.359069e-001
3.401959e+003;1.351110e-001
3.403887e+003;1.340452e-001
3.405816e+003;1.334629e-001
3.407744e+003;1.325573e-001
3.409673e+003;1.310627e-001
3.411601e+003;1.303093e-001
3.413530e+003;1.296586e-001
3.415458e+003;1.285272e-001
3.417387e+003;1.270595e-001
3.419316e+003;1.262087e-001
3.421244e+003;1.263828e-001
3.423173e+003;1.261211e-001
3.425101e+003;1.253368e-001
3.427030e+003;1.240987e-001
3.428958e+003;1.228450e-001
3.430887e+003;1.218619e-001
3.432815e+003;1.210532e-001
3.434744e+003;1.201982e-001
3.436673e+003;1.190563e-001
3.438601e+003;1.180234e-001
3.440530e+003;1.175922e-001
3.442458e+003;1.170961e-001
3.444387e+003;1.161093e-001
3.446315e+003;1.151063e-001
3.448244e+003;1.143853e-001
3.450172e+003;1.130049e-001
3.452101e+003;1.115649e-001
3.454030e+003;1.110281e-001
3.455958e+003;1.102772e-001
3.457886e+003;1.091340e-001
3.459815e+003;1.081946e-001
3.461744e+003;1.069883e-001
3.463672e+003;1.059870e-001
3.465601e+003;1.055263e-001
3.467529e+003;1.051720e-001
3.469458e+003;1.043922e-001
3.471386e+003;1.031910e-001
3.473315e+003;1.014477e-001
3.475243e+003;1.004479e-001
3.477172e+003;1.001592e-001
3.479101e+003;9.897831e-002
3.481029e+003;9.735598e-002
3.482958e+003;9.672235e-002
3.484886e+003;9.627666e-002
3.486815e+003;9.544952e-002
3.488743e+003;9.395304e-002
3.490672e+003;9.260409e-002
3.492600e+003;9.194758e-002
3.494529e+003;9.120645e-002
3.496458e+003;9.057230e-002
3.498386e+003;9.029226e-002
3.500315e+003;8.952574e-002
3.502243e+003;8.767196e-002
3.504172e+003;8.637093e-002
3.506100e+003;8.587851e-002
3.508029e+003;8.463578e-002
3.509957e+003;8.420437e-002
3.511886e+003;8.438968e-002
3.513814e+003;8.325188e-002
3.515743e+003;8.172525e-002
3.517672e+003;8.112779e-002
3.519600e+003;8.071724e-002
3.521529e+003;7.997945e-002
3.523457e+003;7.942686e-002
3.525386e+003;7.843358e-002
3.527314e+003;7.687571e-002
3.529243e+003;7.653990e-002
3.531171e+003;7.646427e-002
3.533100e+003;7.567480e-002
3.535029e+003;7.445813e-002
3.536957e+003;7.330088e-002
3.538885e+003;7.283829e-002
3.540814e+003;7.203560e-002
3.542743e+003;7.099490e-002
3.544671e+003;7.050218e-002
3.546600e+003;7.048199e-002
3.548528e+003;6.996101e-002
3.550457e+003;6.885899e-002
3.552385e+003;6.796046e-002
3.554314e+003;6.823902e-002
3.556242e+003;6.808876e-002
3.558171e+003;6.704108e-002
3.560100e+003;6.636710e-002
3.562028e+003;6.601752e-002
3.563957e+003;6.505035e-002
3.565885e+003;6.389406e-002
3.567814e+003;6.273869e-002
3.569742e+003;6.218042e-002
3.571671e+003;6.168858e-002
3.573599e+003;6.112242e-002
3.575528e+003;6.078226e-002
3.577457e+003;6.020609e-002
3.579385e+003;5.985177e-002
3.581314e+003;5.928925e-002
3.583242e+003;5.941058e-002
3.585171e+003;5.967470e-002
3.587099e+003;5.895860e-002
3.589028e+003;5.793560e-002
3.590956e+003;5.780837e-002
3.592885e+003;5.757863e-002
3.594813e+003;5.712085e-002
3.596742e+003;5.671640e-002
3.598671e+003;5.581696e-002
3.600599e+003;5.481640e-002
3.602528e+003;5.442539e-002
3.604456e+003;5.465775e-002
3.606385e+003;5.458760e-002
3.608313e+003;5.441544e-002
3.610242e+003;5.402232e-002
3.612170e+003;5.360219e-002
3.614099e+003;5.365209e-002
3.616028e+003;5.338097e-002
3.617956e+003;5.237157e-002
3.619885e+003;5.183496e-002
3.621813e+003;5.175037e-002
3.623742e+003;5.151635e-002
3.625670e+003;5.145603e-002
3.627599e+003;5.116700e-002
3.629527e+003;5.074136e-002
3.631456e+003;5.074486e-002
3.633385e+003;5.085775e-002
3.635313e+003;5.029920e-002
3.637241e+003;4.965704e-002
3.639170e+003;5.003804e-002
3.641099e+003;5.036349e-002
3.643027e+003;4.999046e-002
3.644956e+003;4.963115e-002
3.646884e+003;4.924011e-002
3.648813e+003;4.868060e-002
3.650741e+003;4.880604e-002
3.652670e+003;4.948824e-002
3.654598e+003;4.956255e-002
3.656527e+003;4.909050e-002
3.658456e+003;4.852974e-002
3.660384e+003;4.813584e-002
3.662313e+003;4.785507e-002
3.664241e+003;4.787631e-002
3.666170e+003;4.769754e-002
3.668098e+003;4.708898e-002
3.670027e+003;4.688481e-002
3.671955e+003;4.716620e-002
3.673884e+003;4.687271e-002
3.675813e+003;4.591911e-002
3.677741e+003;4.497112e-002
3.679669e+003;4.540498e-002
3.681598e+003;4.614430e-002
3.683527e+003;4.530817e-002
3.685455e+003;4.519458e-002
3.687384e+003;4.573279e-002
3.689312e+003;4.554681e-002
3.691241e+003;4.545218e-002
3.693169e+003;4.509936e-002
3.695098e+003;4.485229e-002
3.697026e+003;4.529938e-002
3.698955e+003;4.565321e-002
3.700884e+003;4.571394e-002
3.702812e+003;4.552256e-002
3.704741e+003;4.478058e-002
3.706669e+003;4.407915e-002
3.708598e+003;4.414161e-002
3.710526e+003;4.415569e-002
3.712455e+003;4.377395e-002
3.714383e+003;4.405014e-002
3.716312e+003;4.440695e-002
3.718240e+003;4.386143e-002
3.720169e+003;4.325254e-002
3.722098e+003;4.322879e-002
3.724026e+003;4.398165e-002
3.725955e+003;4.435678e-002
3.727883e+003;4.369597e-002
3.729812e+003;4.373858e-002
3.731740e+003;4.387082e-002
3.733669e+003;4.342817e-002
3.735597e+003;4.345398e-002
3.737526e+003;4.416890e-002
3.739455e+003;4.403481e-002
3.741383e+003;4.343172e-002
3.743312e+003;4.336870e-002
3.745240e+003;4.357324e-002
3.747169e+003;4.385158e-002
3.749097e+003;4.397402e-002
3.751026e+003;4.427452e-002
3.752954e+003;4.439587e-002
3.754883e+003;4.430890e-002
3.756812e+003;4.376097e-002
3.758740e+003;4.388871e-002
3.760668e+003;4.384043e-002
3.762597e+003;4.338752e-002
3.764526e+003;4.352317e-002
3.766454e+003;4.320697e-002
3.768383e+003;4.306561e-002
3.770311e+003;4.340184e-002
3.772240e+003;4.387122e-002
3.774168e+003;4.391935e-002
3.776097e+003;4.351987e-002
3.778025e+003;4.286746e-002
3.779954e+003;4.253486e-002
3.781883e+003;4.312591e-002
3.783811e+003;4.363401e-002
3.785740e+003;4.377545e-002
3.787668e+003;4.389281e-002
3.789597e+003;4.383127e-002
3.791525e+003;4.350456e-002
3.793454e+003;4.374016e-002
3.795382e+003;4.403987e-002
3.797311e+003;4.369318e-002
3.799240e+003;4.340136e-002
3.801168e+003;4.294609e-002
3.803097e+003;4.304446e-002
3.805025e+003;4.301541e-002
3.806954e+003;4.307523e-002
3.808882e+003;4.389754e-002
3.810811e+003;4.438765e-002
3.812739e+003;4.422018e-002
3.814668e+003;4.374837e-002
3.816596e+003;4.331067e-002
3.818525e+003;4.314059e-002
3.820454e+003;4.340517e-002
3.822382e+003;4.358452e-002
3.824311e+003;4.343798e-002
3.826239e+003;4.347339e-002
3.828168e+003;4.377310e-002
3.830096e+003;4.402652e-002
3.832025e+003;4.352947e-002
3.833953e+003;4.307128e-002
3.835882e+003;4.304022e-002
3.837811e+003;4.307717e-002
3.839739e+003;4.353848e-002
3.841667e+003;4.397127e-002
3.843596e+003;4.456296e-002
3.845525e+003;4.481776e-002
3.847453e+003;4.413325e-002
3.849382e+003;4.330408e-002
3.851310e+003;4.323929e-002
3.853239e+003;4.320547e-002
3.855167e+003;4.323329e-002
3.857096e+003;4.398406e-002
3.859024e+003;4.388592e-002
3.860953e+003;4.313565e-002
3.862882e+003;4.324837e-002
3.864810e+003;4.381789e-002
3.866739e+003;4.411260e-002
3.868667e+003;4.398296e-002
3.870596e+003;4.405898e-002
3.872524e+003;4.423001e-002
3.874453e+003;4.394586e-002
3.876381e+003;4.365775e-002
3.878310e+003;4.458686e-002
3.880239e+003;4.511204e-002
3.882167e+003;4.533233e-002
3.884096e+003;4.590441e-002
3.886024e+003;4.573603e-002
3.887953e+003;4.533255e-002
3.889881e+003;4.537264e-002
3.891810e+003;4.504356e-002
3.893738e+003;4.444325e-002
3.895667e+003;4.489712e-002
3.897595e+003;4.600743e-002
3.899524e+003;4.596934e-002
3.901453e+003;4.488201e-002
3.903381e+003;4.461282e-002
3.905310e+003;4.571239e-002
3.907238e+003;4.595571e-002
3.909167e+003;4.564772e-002
3.911095e+003;4.575657e-002
3.913024e+003;4.537529e-002
3.914952e+003;4.491112e-002
3.916881e+003;4.509351e-002
3.918810e+003;4.522443e-002
3.920738e+003;4.530247e-002
3.922667e+003;4.560602e-002
3.924595e+003;4.596036e-002
3.926524e+003;4.669712e-002
3.928452e+003;4.716650e-002
3.930381e+003;4.683838e-002
3.932309e+003;4.622235e-002
3.934238e+003;4.537069e-002
3.936167e+003;4.474752e-002
3.938095e+003;4.496208e-002
3.940023e+003;4.476431e-002
3.941952e+003;4.439007e-002
3.943881e+003;4.489870e-002
3.945809e+003;4.556675e-002
3.947738e+003;4.524227e-002
3.949666e+003;4.478962e-002
3.951595e+003;4.532446e-002
3.953523e+003;4.617518e-002
3.955452e+003;4.606888e-002
3.957380e+003;4.502621e-002
3.959309e+003;4.516958e-002
3.961238e+003;4.605182e-002
3.963166e+003;4.592603e-002
3.965095e+003;4.539387e-002
3.967023e+003;4.561379e-002
3.968952e+003;4.663661e-002
3.970880e+003;4.676140e-002
3.972809e+003;4.624789e-002
3.974737e+003;4.598945e-002
3.976666e+003;4.587031e-002
3.978594e+003;4.585543e-002
3.980523e+003;4.620131e-002
3.982452e+003;4.616549e-002
3.984380e+003;4.569984e-002
3.986309e+003;4.531071e-002
3.988237e+003;4.514873e-002
3.990166e+003;4.570632e-002
3.992094e+003;4.636246e-002
3.994023e+003;4.661050e-002
3.995951e+003;4.706981e-002
3.997880e+003;4.639542e-002
3.999809e+003;4.602806e-002
4.001737e+003;0.000000e+000
