3.992094e+002;0.000000e+000
4.011380e+002;0.000000e+000
4.030665e+002;0.000000e+000
4.049951e+002;0.000000e+000
4.069236e+002;0.000000e+000
4.088522e+002;0.000000e+000
4.107807e+002;0.000000e+000
4.127093e+002;0.000000e+000
4.146378e+002;0.000000e+000
4.165664e+002;0.000000e+000
4.184949e+002;0.000000e+000
4.204235e+002;0.000000e+000
4.223520e+002;0.000000e+000
4.242806e+002;0.000000e+000
4.262091e+002;0.000000e+000
4.281377e+002;0.000000e+000
4.300662e+002;0.000000e+000
4.319948e+002;0.000000e+000
4.339233e+002;0.000000e+000
4.358519e+002;0.000000e+000
4.377804e+002;0.000000e+000
4.397090e+002;0.000000e+000
4.416375e+002;0.000000e+000
4.435660e+002;0.000000e+000
4.454946e+002;0.000000e+000
4.474232e+002;0.000000e+000
4.493517e+002;0.000000e+000
4.512802e+002;0.000000e+000
4.532088e+002;0.000000e+000
4.551373e+002;0.000000e+000
4.570659e+002;0.000000e+000
4.589944e+002;0.000000e+000
4.609230e+002;0.000000e+000
4.628515e+002;0.000000e+000
4.647801e+002;0.000000e+000
4.667086e+002;0.000000e+000
4.686372e+002;0.000000e+000
4.705657e+002;0.000000e+000
4.724943e+002;0.000000e+000
4.744228e+002;0.000000e+000
4.763513e+002;0.000000e+000
4.782799e+002;0.000000e+000
4.802085e+002;0.000000e+000
4.821370e+002;0.000000e+000
4.840656e+002;0.000000e+000
4.859941e+002;0.000000e+000
4.879226e+002;0.000000e+000
4.898512e+002;0.000000e+000
4.917798e+002;0.000000e+000
4.937083e+002;0.000000e+000
4.956368e+002;0.000000e+000
4.975654e+002;0.000000e+000
4.994939e+002;0.000000e+000
5.014225e+002;0.000000e+000
5.033510e+002;0.000000e+000
5.052796e+002;0.000000e+000
5.072081e+002;0.000000e+000
5.091367e+002;0.000000e+000
5.110652e+002;0.000000e+000
5.129938e+002;0.000000e+000
5.149223e+002;0.000000e+000
5.168509e+002;0.000000e+000
5.187794e+002;0.000000e+000
5.207079e+002;0.000000e+000
5.226365e+002;0.000000e+000
5.245651e+002;0.000000e+000
5.264936e+002;0.000000e+000
5.284222e+002;0.000000e+000
5.303507e+002;0.000000e+000
5.322792e+002;0.000000e+000
5.342078e+002;0.000000e+000
5.361364e+002;0.000000e+000
5.380649e+002;0.000000e+000
5.399935e+002;0.000000e+000
5.419220e+002;0.000000e+000
5.438505e+002;0.000000e+000
5.457791e+002;0.000000e+000
5.477076e+002;0.000000e+000
5.496362e+002;0.000000e+000
5.515648e+002;0.000000e+000
5.534933e+002;0.000000e+000
5.554218e+002;0.000000e+000
5.573504e+002;0.000000e+000
5.592789e+002;0.000000e+000
5.612075e+002;0.000000e+000
5.631360e+002;0.000000e+000
5.650646e+002;0.000000e+000
5.669931e+002;0.000000e+000
5.689217e+002;0.000000e+000
5.708502e+002;0.000000e+000
5.727787e+002;0.000000e+000
5.747073e+002;0.000000e+000
5.766359e+002;0.000000e+000
5.785644e+002;0.000000e+000
5.804930e+002;0.000000e+000
5.824215e+002;0.000000e+000
5.843500e+002;0.000000e+000
5.862786e+002;0.000000e+000
5.882072e+002;0.000000e+000
5.901357e+002;0.000000e+000
5.920643e+002;0.000000e+000
5.939928e+002;0.000000e+000
5.959213e+002;0.000000e+000
5.978499e+002;0.000000e+000
5.997784e+002;3.020234e-001
6.017070e+002;3.061901e-001
6.036355e+002;3.012172e-001
6.055641e+002;3.007417e-001
6.074926e+002;2.974761e-001
6.094211e+002;2.903664e-001
6.113497e+002;2.902464e-001
6.132783e+002;2.989470e-001
6.152068e+002;2.997183e-001
6.171354e+002;2.999986e-001
6.190639e+002;2.999412e-001
6.209924e+002;2.921034e-001
6.229210e+002;2.800251e-001
6.248495e+002;2.719950e-001
6.267781e+002;2.686615e-001
6.287067e+002;2.678097e-001
6.306352e+002;2.637530e-001
6.325637e+002;2.616658e-001
6.344923e+002;2.568746e-001
6.364208e+002;2.544714e-001
6.383494e+002;2.541477e-001
6.402780e+002;2.565266e-001
6.422065e+002;2.567698e-001
6.441350e+002;2.506206e-001
6.460636e+002;2.461256e-001
6.479921e+002;2.475153e-001
6.499207e+002;2.488752e-001
6.518492e+002;2.521730e-001
6.537778e+002;2.584143e-001
6.557063e+002;2.658867e-001
6.576349e+002;2.704173e-001
6.595634e+002;2.731830e-001
6.614919e+002;2.738193e-001
6.634205e+002;2.717806e-001
6.653491e+002;2.717054e-001
6.672776e+002;2.712172e-001
6.692062e+002;2.671816e-001
6.711347e+002;2.619380e-001
6.730632e+002;2.557187e-001
6.749918e+002;2.484985e-001
6.769203e+002;2.413304e-001
6.788489e+002;2.352585e-001
6.807775e+002;2.303824e-001
6.827060e+002;2.254515e-001
6.846345e+002;2.223237e-001
6.865631e+002;2.213623e-001
6.884916e+002;2.207000e-001
6.904202e+002;2.194179e-001
6.923488e+002;2.183595e-001
6.942773e+002;2.180819e-001
6.962058e+002;2.177398e-001
6.981344e+002;2.174534e-001
7.000629e+002;2.165771e-001
7.019915e+002;2.160468e-001
7.039200e+002;2.143672e-001
7.058486e+002;2.115915e-001
7.077771e+002;2.098933e-001
7.097057e+002;2.085657e-001
7.116342e+002;2.060151e-001
7.135627e+002;2.035635e-001
7.154913e+002;2.009193e-001
7.174199e+002;1.965040e-001
7.193484e+002;1.920308e-001
7.212770e+002;1.890193e-001
7.232055e+002;1.848245e-001
7.251340e+002;1.803634e-001
7.270626e+002;1.766411e-001
7.289911e+002;1.732754e-001
7.309197e+002;1.702588e-001
7.328483e+002;1.687930e-001
7.347768e+002;1.681387e-001
7.367053e+002;1.663639e-001
7.386339e+002;1.642486e-001
7.405624e+002;1.629767e-001
7.424910e+002;1.609790e-001
7.444196e+002;1.580947e-001
7.463481e+002;1.559156e-001
7.482766e+002;1.550847e-001
7.502052e+002;1.543275e-001
7.521337e+002;1.529290e-001
7.540623e+002;1.517921e-001
7.559908e+002;1.505605e-001
7.579194e+002;1.482715e-001
7.598479e+002;1.465919e-001
7.617765e+002;1.451914e-001
7.637050e+002;1.447871e-001
7.656335e+002;1.440782e-001
7.675621e+002;1.422579e-001
7.694907e+002;1.414011e-001
7.714192e+002;1.405675e-001
7.733478e+002;1.389897e-001
7.752763e+002;1.383702e-001
7.772048e+002;1.377334e-001
7.791334e+002;1.367810e-001
7.810620e+002;1.366267e-001
7.829905e+002;1.366098e-001
7.849191e+002;1.354274e-001
7.868476e+002;1.347351e-001
7.887761e+002;1.347364e-001
7.907047e+002;1.347449e-001
7.926332e+002;1.355640e-001
7.945618e+002;1.358993e-001
7.964903e+002;1.355512e-001
7.984189e+002;1.356560e-001
8.003474e+002;1.357250e-001
8.022759e+002;1.351008e-001
8.042045e+002;1.344380e-001
8.061331e+002;1.345622e-001
8.080616e+002;1.349922e-001
8.099902e+002;1.354398e-001
8.119187e+002;1.349509e-001
8.138472e+002;1.340845e-001
8.157758e+002;1.331274e-001
8.177043e+002;1.319099e-001
8.196329e+002;1.303061e-001
8.215615e+002;1.288333e-001
8.234900e+002;1.280109e-001
8.254185e+002;1.271374e-001
8.273471e+002;1.266097e-001
8.292756e+002;1.267267e-001
8.312042e+002;1.269440e-001
8.331328e+002;1.269354e-001
8.350613e+002;1.266995e-001
8.369898e+002;1.265341e-001
8.389184e+002;1.267633e-001
8.408469e+002;1.276926e-001
8.427755e+002;1.285544e-001
8.447040e+002;1.282891e-001
8.466326e+002;1.276471e-001
8.485611e+002;1.278663e-001
8.504897e+002;1.285477e-001
8.524182e+002;1.295973e-001
8.543467e+002;1.309281e-001
8.562753e+002;1.321306e-001
8.582039e+002;1.334748e-001
8.601324e+002;1.356718e-001
8.620610e+002;1.380512e-001
8.639895e+002;1.403645e-001
8.659180e+002;1.431822e-001
8.678466e+002;1.463836e-001
8.697751e+002;1.495963e-001
8.717037e+002;1.522962e-001
8.736323e+002;1.540841e-001
8.755608e+002;1.555012e-001
8.774893e+002;1.562514e-001
8.794179e+002;1.576641e-001
8.813464e+002;1.600624e-001
8.832750e+002;1.628335e-001
8.852036e+002;1.657957e-001
8.871321e+002;1.691358e-001
8.890606e+002;1.725489e-001
8.909892e+002;1.756936e-001
8.929177e+002;1.779763e-001
8.948463e+002;1.797180e-001
8.967748e+002;1.804095e-001
8.987034e+002;1.799677e-001
9.006319e+002;1.787463e-001
9.025605e+002;1.766498e-001
9.044890e+002;1.740607e-001
9.064175e+002;1.720824e-001
9.083461e+002;1.699180e-001
9.102747e+002;1.679839e-001
9.122032e+002;1.668423e-001
9.141318e+002;1.657987e-001
9.160603e+002;1.647541e-001
9.179888e+002;1.644315e-001
9.199174e+002;1.647387e-001
9.218459e+002;1.655642e-001
9.237745e+002;1.671498e-001
9.257031e+002;1.687444e-001
9.276316e+002;1.705721e-001
9.295601e+002;1.726323e-001
9.314887e+002;1.749911e-001
9.334172e+002;1.772787e-001
9.353458e+002;1.793652e-001
9.372744e+002;1.818319e-001
9.392029e+002;1.845633e-001
9.411314e+002;1.876190e-001
9.430600e+002;1.905772e-001
9.449885e+002;1.929134e-001
9.469171e+002;1.959070e-001
9.488456e+002;1.996584e-001
9.507742e+002;2.036658e-001
9.527027e+002;2.082346e-001
9.546313e+002;2.132828e-001
9.565598e+002;2.185875e-001
9.584883e+002;2.243661e-001
9.604169e+002;2.305589e-001
9.623455e+002;2.371959e-001
9.642740e+002;2.442026e-001
9.662026e+002;2.515574e-001
9.681311e+002;2.603258e-001
9.700596e+002;2.707677e-001
9.719882e+002;2.823947e-001
9.739167e+002;2.961695e-001
9.758453e+002;3.127226e-001
9.777739e+002;3.314761e-001
9.797024e+002;3.507162e-001
9.816309e+002;3.685346e-001
9.835595e+002;3.812245e-001
9.854880e+002;3.859156e-001
9.874166e+002;3.864227e-001
9.893452e+002;3.879013e-001
9.912737e+002;3.917093e-001
9.932022e+002;3.982634e-001
9.951307e+002;4.076072e-001
9.970593e+002;4.180026e-001
9.989879e+002;4.275055e-001
1.000916e+003;4.345297e-001
1.002845e+003;4.380403e-001
1.004773e+003;4.389862e-001
1.006702e+003;4.394428e-001
1.008631e+003;4.401747e-001
1.010559e+003;4.429427e-001
1.012488e+003;4.485921e-001
1.014416e+003;4.556338e-001
1.016345e+003;4.626948e-001
1.018273e+003;4.698439e-001
1.020202e+003;4.769640e-001
1.022130e+003;4.842742e-001
1.024059e+003;4.915182e-001
1.025988e+003;4.987063e-001
1.027916e+003;5.042832e-001
1.029845e+003;5.068545e-001
1.031773e+003;5.072122e-001
1.033702e+003;5.031169e-001
1.035630e+003;4.942933e-001
1.037559e+003;4.834549e-001
1.039487e+003;4.747893e-001
1.041416e+003;4.697793e-001
1.043344e+003;4.673926e-001
1.045273e+003;4.689736e-001
1.047202e+003;4.743266e-001
1.049130e+003;4.800055e-001
1.051059e+003;4.837417e-001
1.052987e+003;4.850132e-001
1.054916e+003;4.832982e-001
1.056844e+003;4.761231e-001
1.058773e+003;4.635694e-001
1.060701e+003;4.463711e-001
1.062630e+003;4.249622e-001
1.064558e+003;4.023221e-001
1.066487e+003;3.821181e-001
1.068416e+003;3.649642e-001
1.070344e+003;3.513916e-001
1.072273e+003;3.408470e-001
1.074201e+003;3.321847e-001
1.076130e+003;3.248412e-001
1.078058e+003;3.176870e-001
1.079987e+003;3.113500e-001
1.081915e+003;3.064513e-001
1.083844e+003;3.040047e-001
1.085773e+003;3.030980e-001
1.087701e+003;3.030687e-001
1.089630e+003;3.032699e-001
1.091558e+003;3.039564e-001
1.093487e+003;3.060015e-001
1.095415e+003;3.082572e-001
1.097344e+003;3.100260e-001
1.099272e+003;3.121276e-001
1.101201e+003;3.141400e-001
1.103129e+003;3.143242e-001
1.105058e+003;3.120889e-001
1.106987e+003;3.078897e-001
1.108915e+003;3.024933e-001
1.110844e+003;2.943557e-001
1.112772e+003;2.830608e-001
1.114701e+003;2.693932e-001
1.116629e+003;2.547567e-001
1.118558e+003;2.418857e-001
1.120486e+003;2.320015e-001
1.122415e+003;2.239323e-001
1.124344e+003;2.159739e-001
1.126272e+003;2.075745e-001
1.128201e+003;1.986880e-001
1.130129e+003;1.909512e-001
1.132058e+003;1.850022e-001
1.133986e+003;1.799786e-001
1.135915e+003;1.762931e-001
1.137843e+003;1.739901e-001
1.139772e+003;1.734817e-001
1.141700e+003;1.743284e-001
1.143629e+003;1.760903e-001
1.145557e+003;1.787153e-001
1.147486e+003;1.811013e-001
1.149415e+003;1.824961e-001
1.151343e+003;1.833556e-001
1.153272e+003;1.842236e-001
1.155200e+003;1.855199e-001
1.157129e+003;1.862420e-001
1.159057e+003;1.864940e-001
1.160986e+003;1.858314e-001
1.162914e+003;1.829334e-001
1.164843e+003;1.769229e-001
1.166771e+003;1.685398e-001
1.168700e+003;1.591848e-001
1.170629e+003;1.502858e-001
1.172557e+003;1.423487e-001
1.174486e+003;1.347791e-001
1.176414e+003;1.285907e-001
1.178343e+003;1.239617e-001
1.180271e+003;1.200325e-001
1.182200e+003;1.172666e-001
1.184128e+003;1.156859e-001
1.186057e+003;1.151974e-001
1.187986e+003;1.159903e-001
1.189914e+003;1.180717e-001
1.191843e+003;1.206448e-001
1.193771e+003;1.235986e-001
1.195700e+003;1.263614e-001
1.197628e+003;1.286763e-001
1.199557e+003;1.304910e-001
1.201485e+003;1.315754e-001
1.203414e+003;1.318636e-001
1.205343e+003;1.307853e-001
1.207271e+003;1.277656e-001
1.209200e+003;1.231317e-001
1.211128e+003;1.184778e-001
1.213057e+003;1.149270e-001
1.214985e+003;1.132704e-001
1.216914e+003;1.136767e-001
1.218842e+003;1.149606e-001
1.220771e+003;1.163330e-001
1.222699e+003;1.179911e-001
1.224628e+003;1.200935e-001
1.226557e+003;1.222556e-001
1.228485e+003;1.242353e-001
1.230414e+003;1.265250e-001
1.232342e+003;1.285515e-001
1.234271e+003;1.297965e-001
1.236199e+003;1.302662e-001
1.238128e+003;1.306008e-001
1.240056e+003;1.310836e-001
1.241985e+003;1.317013e-001
1.243913e+003;1.328596e-001
1.245842e+003;1.344164e-001
1.247771e+003;1.351653e-001
1.249699e+003;1.349254e-001
1.251628e+003;1.344066e-001
1.253556e+003;1.340644e-001
1.255485e+003;1.341025e-001
1.257413e+003;1.345896e-001
1.259342e+003;1.349500e-001
1.261270e+003;1.347646e-001
1.263199e+003;1.344707e-001
1.265127e+003;1.344812e-001
1.267056e+003;1.347587e-001
1.268985e+003;1.352654e-001
1.270913e+003;1.361867e-001
1.272842e+003;1.372117e-001
1.274770e+003;1.377177e-001
1.276699e+003;1.377230e-001
1.278627e+003;1.374584e-001
1.280556e+003;1.370483e-001
1.282484e+003;1.361932e-001
1.284413e+003;1.351968e-001
1.286342e+003;1.345520e-001
1.288270e+003;1.345567e-001
1.290199e+003;1.356111e-001
1.292127e+003;1.367093e-001
1.294056e+003;1.376925e-001
1.295984e+003;1.390281e-001
1.297913e+003;1.409392e-001
1.299841e+003;1.439443e-001
1.301770e+003;1.477205e-001
1.303698e+003;1.522169e-001
1.305627e+003;1.574435e-001
1.307556e+003;1.630600e-001
1.309484e+003;1.684590e-001
1.311413e+003;1.729983e-001
1.313341e+003;1.758438e-001
1.315270e+003;1.762467e-001
1.317198e+003;1.740875e-001
1.319127e+003;1.701679e-001
1.321055e+003;1.654827e-001
1.322984e+003;1.615606e-001
1.324912e+003;1.592144e-001
1.326841e+003;1.580857e-001
1.328770e+003;1.579973e-001
1.330698e+003;1.588881e-001
1.332627e+003;1.606448e-001
1.334555e+003;1.616521e-001
1.336484e+003;1.610469e-001
1.338412e+003;1.590714e-001
1.340341e+003;1.562736e-001
1.342269e+003;1.529282e-001
1.344198e+003;1.495018e-001
1.346126e+003;1.468983e-001
1.348055e+003;1.450734e-001
1.349984e+003;1.442968e-001
1.351912e+003;1.445002e-001
1.353841e+003;1.454899e-001
1.355769e+003;1.471701e-001
1.357698e+003;1.489261e-001
1.359626e+003;1.502667e-001
1.361555e+003;1.504826e-001
1.363483e+003;1.495200e-001
1.365412e+003;1.486314e-001
1.367341e+003;1.482286e-001
1.369269e+003;1.477072e-001
1.371198e+003;1.462274e-001
1.373126e+003;1.435116e-001
1.375055e+003;1.400214e-001
1.376983e+003;1.361883e-001
1.378912e+003;1.325014e-001
1.380840e+003;1.294177e-001
1.382769e+003;1.267858e-001
1.384698e+003;1.239845e-001
1.386626e+003;1.216822e-001
1.388555e+003;1.200470e-001
1.390483e+003;1.192438e-001
1.392412e+003;1.186964e-001
1.394340e+003;1.183709e-001
1.396269e+003;1.185163e-001
1.398197e+003;1.185841e-001
1.400126e+003;1.187825e-001
1.402054e+003;1.193222e-001
1.403983e+003;1.198374e-001
1.405911e+003;1.202165e-001
1.407840e+003;1.206333e-001
1.409769e+003;1.214426e-001
1.411697e+003;1.223764e-001
1.413626e+003;1.234750e-001
1.415554e+003;1.249140e-001
1.417483e+003;1.265253e-001
1.419411e+003;1.281935e-001
1.421340e+003;1.300409e-001
1.423268e+003;1.317673e-001
1.425197e+003;1.328250e-001
1.427125e+003;1.331127e-001
1.429054e+003;1.327968e-001
1.430983e+003;1.318460e-001
1.432911e+003;1.301322e-001
1.434840e+003;1.280822e-001
1.436768e+003;1.258341e-001
1.438697e+003;1.238607e-001
1.440625e+003;1.225074e-001
1.442554e+003;1.215148e-001
1.444482e+003;1.207102e-001
1.446411e+003;1.201665e-001
1.448340e+003;1.199031e-001
1.450268e+003;1.194214e-001
1.452197e+003;1.185901e-001
1.454125e+003;1.175952e-001
1.456054e+003;1.160303e-001
1.457982e+003;1.141962e-001
1.459911e+003;1.126280e-001
1.461839e+003;1.108755e-001
1.463768e+003;1.088006e-001
1.465697e+003;1.065728e-001
1.467625e+003;1.042460e-001
1.469554e+003;1.016856e-001
1.471482e+003;9.934414e-002
1.473411e+003;9.725483e-002
1.475339e+003;9.537110e-002
1.477268e+003;9.389397e-002
1.479196e+003;9.243602e-002
1.481125e+003;9.068852e-002
1.483053e+003;8.875869e-002
1.484982e+003;8.654054e-002
1.486911e+003;8.441708e-002
1.488839e+003;8.239243e-002
1.490768e+003;8.078852e-002
1.492696e+003;7.979060e-002
1.494625e+003;7.893125e-002
1.496553e+003;7.827539e-002
1.498482e+003;7.762793e-002
1.500410e+003;7.725227e-002
1.502339e+003;7.706990e-002
1.504267e+003;7.654998e-002
1.506196e+003;7.604495e-002
1.508125e+003;7.588346e-002
1.510053e+003;7.568210e-002
1.511982e+003;7.522804e-002
1.513910e+003;7.481793e-002
1.515839e+003;7.443316e-002
1.517767e+003;7.390884e-002
1.519696e+003;7.344604e-002
1.521624e+003;7.327110e-002
1.523553e+003;7.337502e-002
1.525481e+003;7.338385e-002
1.527410e+003;7.343889e-002
1.529339e+003;7.339824e-002
1.531267e+003;7.306331e-002
1.533196e+003;7.309161e-002
1.535124e+003;7.318788e-002
1.537053e+003;7.319270e-002
1.538981e+003;7.294770e-002
1.540910e+003;7.265370e-002
1.542838e+003;7.287242e-002
1.544767e+003;7.314651e-002
1.546695e+003;7.328463e-002
1.548624e+003;7.337235e-002
1.550553e+003;7.334556e-002
1.552481e+003;7.342202e-002
1.554410e+003;7.363984e-002
1.556338e+003;7.368444e-002
1.558267e+003;7.358555e-002
1.560195e+003;7.374922e-002
1.562124e+003;7.394831e-002
1.564052e+003;7.411341e-002
1.565981e+003;7.409000e-002
1.567910e+003;7.413354e-002
1.569838e+003;7.445302e-002
1.571767e+003;7.481733e-002
1.573695e+003;7.501010e-002
1.575624e+003;7.525492e-002
1.577552e+003;7.560536e-002
1.579481e+003;7.594277e-002
1.581409e+003;7.630004e-002
1.583338e+003;7.677273e-002
1.585266e+003;7.704284e-002
1.587195e+003;7.737567e-002
1.589124e+003;7.781101e-002
1.591052e+003;7.813936e-002
1.592981e+003;7.835067e-002
1.594909e+003;7.876744e-002
1.596838e+003;7.927870e-002
1.598766e+003;7.972124e-002
1.600695e+003;8.000550e-002
1.602623e+003;8.029206e-002
1.604552e+003;8.074031e-002
1.606480e+003;8.100843e-002
1.608409e+003;8.125953e-002
1.610338e+003;8.153028e-002
1.612266e+003;8.161120e-002
1.614195e+003;8.158217e-002
1.616123e+003;8.155775e-002
1.618052e+003;8.183113e-002
1.619980e+003;8.196096e-002
1.621909e+003;8.195848e-002
1.623837e+003;8.211906e-002
1.625766e+003;8.234381e-002
1.627694e+003;8.243237e-002
1.629623e+003;8.253181e-002
1.631552e+003;8.261909e-002
1.633480e+003;8.290589e-002
1.635409e+003;8.287594e-002
1.637337e+003;8.247676e-002
1.639266e+003;8.237989e-002
1.641194e+003;8.238286e-002
1.643123e+003;8.230148e-002
1.645051e+003;8.208852e-002
1.646980e+003;8.178497e-002
1.648909e+003;8.132233e-002
1.650837e+003;8.079143e-002
1.652766e+003;8.049441e-002
1.654694e+003;8.054522e-002
1.656623e+003;8.032327e-002
1.658551e+003;7.959256e-002
1.660480e+003;7.902309e-002
1.662408e+003;7.854863e-002
1.664337e+003;7.807935e-002
1.666266e+003;7.769383e-002
1.668194e+003;7.715119e-002
1.670123e+003;7.660112e-002
1.672051e+003;7.635988e-002
1.673980e+003;7.624163e-002
1.675908e+003;7.603414e-002
1.677837e+003;7.561411e-002
1.679765e+003;7.483894e-002
1.681694e+003;7.423235e-002
1.683622e+003;7.393519e-002
1.685551e+003;7.355505e-002
1.687479e+003;7.336623e-002
1.689408e+003;7.338494e-002
1.691337e+003;7.318882e-002
1.693265e+003;7.267015e-002
1.695194e+003;7.237463e-002
1.697122e+003;7.251772e-002
1.699051e+003;7.248883e-002
1.700979e+003;7.214767e-002
1.702908e+003;7.213910e-002
1.704836e+003;7.244870e-002
1.706765e+003;7.267477e-002
1.708693e+003;7.251760e-002
1.710622e+003;7.244561e-002
1.712551e+003;7.242779e-002
1.714479e+003;7.236426e-002
1.716408e+003;7.245164e-002
1.718336e+003;7.257631e-002
1.720265e+003;7.271346e-002
1.722193e+003;7.279789e-002
1.724122e+003;7.277803e-002
1.726050e+003;7.276142e-002
1.727979e+003;7.285851e-002
1.729908e+003;7.306503e-002
1.731836e+003;7.308601e-002
1.733765e+003;7.271304e-002
1.735693e+003;7.238258e-002
1.737622e+003;7.208277e-002
1.739550e+003;7.154576e-002
1.741479e+003;7.104243e-002
1.743407e+003;7.040963e-002
1.745336e+003;6.978647e-002
1.747265e+003;6.909675e-002
1.749193e+003;6.858511e-002
1.751122e+003;6.847551e-002
1.753050e+003;6.842869e-002
1.754979e+003;6.848707e-002
1.756907e+003;6.852629e-002
1.758836e+003;6.848459e-002
1.760764e+003;6.838040e-002
1.762693e+003;6.832370e-002
1.764621e+003;6.830474e-002
1.766550e+003;6.820986e-002
1.768479e+003;6.811450e-002
1.770407e+003;6.814729e-002
1.772336e+003;6.805039e-002
1.774264e+003;6.801094e-002
1.776193e+003;6.811539e-002
1.778121e+003;6.795488e-002
1.780050e+003;6.745023e-002
1.781978e+003;6.740743e-002
1.783907e+003;6.753728e-002
1.785835e+003;6.761083e-002
1.787764e+003;6.777056e-002
1.789693e+003;6.783330e-002
1.791621e+003;6.771274e-002
1.793550e+003;6.754777e-002
1.795478e+003;6.758562e-002
1.797407e+003;6.752357e-002
1.799335e+003;6.747662e-002
1.801264e+003;6.751312e-002
1.803192e+003;6.743234e-002
1.805121e+003;6.745294e-002
1.807049e+003;6.754904e-002
1.808978e+003;6.746474e-002
1.810907e+003;6.742743e-002
1.812835e+003;6.738003e-002
1.814764e+003;6.742229e-002
1.816692e+003;6.752915e-002
1.818621e+003;6.745553e-002
1.820549e+003;6.744222e-002
1.822478e+003;6.757382e-002
1.824406e+003;6.774504e-002
1.826335e+003;6.780700e-002
1.828264e+003;6.749435e-002
1.830192e+003;6.734033e-002
1.832121e+003;6.737159e-002
1.834049e+003;6.713199e-002
1.835978e+003;6.703195e-002
1.837906e+003;6.722048e-002
1.839835e+003;6.732810e-002
1.841763e+003;6.741598e-002
1.843692e+003;6.731173e-002
1.845620e+003;6.707224e-002
1.847549e+003;6.696743e-002
1.849478e+003;6.687953e-002
1.851406e+003;6.686747e-002
1.853335e+003;6.671765e-002
1.855263e+003;6.646543e-002
1.857192e+003;6.653069e-002
1.859120e+003;6.662470e-002
1.861049e+003;6.661373e-002
1.862977e+003;6.670930e-002
1.864906e+003;6.670158e-002
1.866834e+003;6.658442e-002
1.868763e+003;6.656236e-002
1.870692e+003;6.639370e-002
1.872620e+003;6.617577e-002
1.874549e+003;6.621537e-002
1.876477e+003;6.643084e-002
1.878406e+003;6.647354e-002
1.880334e+003;6.659504e-002
1.882263e+003;6.670146e-002
1.884191e+003;6.660489e-002
1.886120e+003;6.656159e-002
1.888048e+003;6.661427e-002
1.889977e+003;6.674670e-002
1.891906e+003;6.669300e-002
1.893834e+003;6.652722e-002
1.895763e+003;6.614629e-002
1.897691e+003;6.595113e-002
1.899620e+003;6.612341e-002
1.901548e+003;6.626777e-002
1.903477e+003;6.638875e-002
1.905405e+003;6.650838e-002
1.907334e+003;6.643721e-002
1.909262e+003;6.631587e-002
1.911191e+003;6.645080e-002
1.913120e+003;6.663814e-002
1.915048e+003;6.658179e-002
1.916977e+003;6.657963e-002
1.918905e+003;6.657646e-002
1.920834e+003;6.682530e-002
1.922762e+003;6.703396e-002
1.924691e+003;6.688792e-002
1.926619e+003;6.661872e-002
1.928548e+003;6.642466e-002
1.930477e+003;6.652660e-002
1.932405e+003;6.674891e-002
1.934334e+003;6.686682e-002
1.936262e+003;6.672464e-002
1.938191e+003;6.670158e-002
1.940119e+003;6.692251e-002
1.942048e+003;6.711300e-002
1.943976e+003;6.718412e-002
1.945905e+003;6.720938e-002
1.947833e+003;6.713210e-002
1.949762e+003;6.713582e-002
1.951691e+003;6.745329e-002
1.953619e+003;6.728160e-002
1.955548e+003;6.685340e-002
1.957476e+003;6.693805e-002
1.959405e+003;6.713741e-002
1.961333e+003;6.705388e-002
1.963262e+003;6.688599e-002
1.965190e+003;6.688447e-002
1.967119e+003;6.704912e-002
1.969047e+003;6.729340e-002
1.970976e+003;6.711733e-002
1.972905e+003;6.687272e-002
1.974833e+003;6.688846e-002
1.976762e+003;6.707236e-002
1.978690e+003;6.742731e-002
1.980619e+003;6.759124e-002
1.982547e+003;6.749102e-002
1.984476e+003;6.761184e-002
1.986404e+003;6.768997e-002
1.988333e+003;6.766445e-002
1.990261e+003;6.781599e-002
1.992190e+003;6.781789e-002
1.994119e+003;6.765733e-002
1.996047e+003;6.761315e-002
1.997976e+003;6.762132e-002
1.999904e+003;6.754985e-002
2.001833e+003;6.746157e-002
2.003761e+003;6.747155e-002
2.005690e+003;6.767321e-002
2.007618e+003;6.787413e-002
2.009547e+003;6.813528e-002
2.011476e+003;6.812280e-002
2.013404e+003;6.820040e-002
2.015333e+003;6.831133e-002
2.017261e+003;6.816373e-002
2.019190e+003;6.807822e-002
2.021118e+003;6.823158e-002
2.023047e+003;6.833564e-002
2.024975e+003;6.815551e-002
2.026904e+003;6.811055e-002
2.028833e+003;6.840449e-002
2.030761e+003;6.860513e-002
2.032690e+003;6.855919e-002
2.034618e+003;6.848405e-002
2.036547e+003;6.842605e-002
2.038475e+003;6.829834e-002
2.040404e+003;6.837117e-002
2.042332e+003;6.838874e-002
2.044261e+003;6.835376e-002
2.046189e+003;6.834243e-002
2.048118e+003;6.828008e-002
2.050047e+003;6.834263e-002
2.051975e+003;6.841988e-002
2.053904e+003;6.825871e-002
2.055832e+003;6.792132e-002
2.057761e+003;6.770418e-002
2.059689e+003;6.785984e-002
2.061618e+003;6.804935e-002
2.063546e+003;6.821983e-002
2.065475e+003;6.835333e-002
2.067404e+003;6.816729e-002
2.069332e+003;6.792244e-002
2.071260e+003;6.785546e-002
2.073189e+003;6.809388e-002
2.075118e+003;6.819451e-002
2.077046e+003;6.803694e-002
2.078975e+003;6.794856e-002
2.080903e+003;6.786015e-002
2.082832e+003;6.806005e-002
2.084760e+003;6.823700e-002
2.086689e+003;6.807903e-002
2.088617e+003;6.793334e-002
2.090546e+003;6.795224e-002
2.092475e+003;6.814931e-002
2.094403e+003;6.790265e-002
2.096332e+003;6.778516e-002
2.098260e+003;6.783772e-002
2.100189e+003;6.773768e-002
2.102117e+003;6.771564e-002
2.104046e+003;6.787739e-002
2.105974e+003;6.808148e-002
2.107903e+003;6.804520e-002
2.109832e+003;6.770948e-002
2.111760e+003;6.762457e-002
2.113688e+003;6.773090e-002
2.115617e+003;6.776301e-002
2.117546e+003;6.791415e-002
2.119474e+003;6.805787e-002
2.121403e+003;6.809624e-002
2.123331e+003;6.793384e-002
2.125260e+003;6.772107e-002
2.127188e+003;6.766306e-002
2.129117e+003;6.791233e-002
2.131045e+003;6.832622e-002
2.132974e+003;6.828593e-002
2.134903e+003;6.800532e-002
2.136831e+003;6.809198e-002
2.138760e+003;6.803474e-002
2.140688e+003;6.807695e-002
2.142617e+003;6.818660e-002
2.144545e+003;6.782959e-002
2.146474e+003;6.764180e-002
2.148402e+003;6.772842e-002
2.150331e+003;6.787433e-002
2.152260e+003;6.796607e-002
2.154188e+003;6.791295e-002
2.156117e+003;6.782622e-002
2.158045e+003;6.797583e-002
2.159974e+003;6.816373e-002
2.161902e+003;6.790257e-002
2.163831e+003;6.776065e-002
2.165759e+003;6.772010e-002
2.167688e+003;6.760409e-002
2.169616e+003;6.752559e-002
2.171545e+003;6.747380e-002
2.173474e+003;6.724686e-002
2.175402e+003;6.724075e-002
2.177331e+003;6.731309e-002
2.179259e+003;6.735639e-002
2.181188e+003;6.734934e-002
2.183116e+003;6.717233e-002
2.185045e+003;6.696554e-002
2.186973e+003;6.682275e-002
2.188902e+003;6.676920e-002
2.190831e+003;6.658600e-002
2.192759e+003;6.653509e-002
2.194688e+003;6.666461e-002
2.196616e+003;6.665329e-002
2.198545e+003;6.662806e-002
2.200473e+003;6.660875e-002
2.202402e+003;6.636547e-002
2.204330e+003;6.628919e-002
2.206259e+003;6.636964e-002
2.208188e+003;6.619827e-002
2.210116e+003;6.629263e-002
2.212044e+003;6.638030e-002
2.213973e+003;6.633721e-002
2.215902e+003;6.647856e-002
2.217830e+003;6.650042e-002
2.219759e+003;6.635273e-002
2.221687e+003;6.645439e-002
2.223616e+003;6.653637e-002
2.225544e+003;6.659689e-002
2.227473e+003;6.666823e-002
2.229401e+003;6.666476e-002
2.231330e+003;6.661373e-002
2.233259e+003;6.641562e-002
2.235187e+003;6.628560e-002
2.237116e+003;6.640694e-002
2.239044e+003;6.641597e-002
2.240973e+003;6.641948e-002
2.242901e+003;6.640419e-002
2.244830e+003;6.624099e-002
2.246758e+003;6.631571e-002
2.248687e+003;6.644639e-002
2.250615e+003;6.638087e-002
2.252544e+003;6.604744e-002
2.254473e+003;6.589513e-002
2.256401e+003;6.601825e-002
2.258330e+003;6.622957e-002
2.260258e+003;6.624593e-002
2.262187e+003;6.609228e-002
2.264115e+003;6.597856e-002
2.266044e+003;6.593787e-002
2.267972e+003;6.608198e-002
2.269901e+003;6.615224e-002
2.271830e+003;6.608645e-002
2.273758e+003;6.606404e-002
2.275687e+003;6.598137e-002
2.277615e+003;6.564609e-002
2.279544e+003;6.568768e-002
2.281472e+003;6.585164e-002
2.283401e+003;6.560944e-002
2.285329e+003;6.549188e-002
2.287258e+003;6.568016e-002
2.289187e+003;6.561156e-002
2.291115e+003;6.564251e-002
2.293043e+003;6.574172e-002
2.294972e+003;6.567473e-002
2.296901e+003;6.566544e-002
2.298829e+003;6.566136e-002
2.300758e+003;6.558678e-002
2.302686e+003;6.537982e-002
2.304615e+003;6.545582e-002
2.306543e+003;6.559984e-002
2.308472e+003;6.519505e-002
2.310400e+003;6.495218e-002
2.312329e+003;6.507922e-002
2.314258e+003;6.537905e-002
2.316186e+003;6.551064e-002
2.318115e+003;6.538217e-002
2.320043e+003;6.522589e-002
2.321972e+003;6.513649e-002
2.323900e+003;6.564598e-002
2.325829e+003;6.598245e-002
2.327757e+003;6.572434e-002
2.329686e+003;6.571354e-002
2.331615e+003;6.567750e-002
2.333543e+003;6.549966e-002
2.335472e+003;6.543656e-002
2.337400e+003;6.572045e-002
2.339329e+003;6.602611e-002
2.341257e+003;6.594697e-002
2.343186e+003;6.585252e-002
2.345114e+003;6.585769e-002
2.347043e+003;6.619877e-002
2.348971e+003;6.621486e-002
2.350900e+003;6.611261e-002
2.352829e+003;6.629271e-002
2.354757e+003;6.633057e-002
2.356686e+003;6.620687e-002
2.358614e+003;6.617315e-002
2.360543e+003;6.615706e-002
2.362471e+003;6.640987e-002
2.364400e+003;6.668226e-002
2.366328e+003;6.655178e-002
2.368257e+003;6.644817e-002
2.370186e+003;6.652142e-002
2.372114e+003;6.679887e-002
2.374042e+003;6.697006e-002
2.375971e+003;6.672685e-002
2.377900e+003;6.676464e-002
2.379828e+003;6.696035e-002
2.381757e+003;6.696082e-002
2.383685e+003;6.695591e-002
2.385614e+003;6.710058e-002
2.387542e+003;6.687118e-002
2.389471e+003;6.653985e-002
2.391399e+003;6.667612e-002
2.393328e+003;6.685077e-002
2.395257e+003;6.699781e-002
2.397185e+003;6.710465e-002
2.399114e+003;6.708036e-002
2.401042e+003;6.696151e-002
2.402971e+003;6.717809e-002
2.404899e+003;6.767552e-002
2.406828e+003;6.793527e-002
2.408756e+003;6.790575e-002
2.410685e+003;6.766643e-002
2.412614e+003;6.756736e-002
2.414542e+003;6.768416e-002
2.416471e+003;6.779259e-002
2.418399e+003;6.796084e-002
2.420328e+003;6.808148e-002
2.422256e+003;6.798606e-002
2.424185e+003;6.794438e-002
2.426113e+003;6.788843e-002
2.428042e+003;6.809186e-002
2.429970e+003;6.828543e-002
2.431899e+003;6.825545e-002
2.433828e+003;6.843148e-002
2.435756e+003;6.855752e-002
2.437685e+003;6.854445e-002
2.439613e+003;6.862392e-002
2.441542e+003;6.871104e-002
2.443470e+003;6.871264e-002
2.445399e+003;6.889495e-002
2.447327e+003;6.909431e-002
2.449256e+003;6.896643e-002
2.451185e+003;6.871376e-002
2.453113e+003;6.866715e-002
2.455042e+003;6.889413e-002
2.456970e+003;6.904323e-002
2.458899e+003;6.885488e-002
2.460827e+003;6.865461e-002
2.462756e+003;6.900147e-002
2.464684e+003;6.920402e-002
2.466613e+003;6.928315e-002
2.468542e+003;6.956132e-002
2.470470e+003;6.974550e-002
2.472398e+003;6.976943e-002
2.474327e+003;6.968337e-002
2.476256e+003;6.942448e-002
2.478184e+003;6.933644e-002
2.480113e+003;6.940018e-002
2.482041e+003;6.934320e-002
2.483970e+003;6.953565e-002
2.485898e+003;6.993672e-002
2.487827e+003;7.011277e-002
2.489755e+003;7.027771e-002
2.491684e+003;7.036988e-002
2.493613e+003;7.022922e-002
2.495541e+003;7.016437e-002
2.497470e+003;7.011394e-002
2.499398e+003;7.009673e-002
2.501327e+003;7.015666e-002
2.503255e+003;7.036825e-002
2.505184e+003;7.046816e-002
2.507112e+003;7.060739e-002
2.509041e+003;7.063234e-002
2.510969e+003;7.067019e-002
2.512898e+003;7.097363e-002
2.514827e+003;7.128611e-002
2.516755e+003;7.116178e-002
2.518684e+003;7.094445e-002
2.520612e+003;7.087287e-002
2.522541e+003;7.107517e-002
2.524469e+003;7.128236e-002
2.526398e+003;7.106764e-002
2.528326e+003;7.071870e-002
2.530255e+003;7.078901e-002
2.532184e+003;7.098296e-002
2.534112e+003;7.099494e-002
2.536041e+003;7.079283e-002
2.537969e+003;7.064037e-002
2.539898e+003;7.062961e-002
2.541826e+003;7.062836e-002
2.543755e+003;7.073024e-002
2.545683e+003;7.108492e-002
2.547612e+003;7.095460e-002
2.549541e+003;7.083976e-002
2.551469e+003;7.097024e-002
2.553397e+003;7.104918e-002
2.555326e+003;7.094921e-002
2.557255e+003;7.110982e-002
2.559183e+003;7.138979e-002
2.561112e+003;7.119058e-002
2.563040e+003;7.118847e-002
2.564969e+003;7.131040e-002
2.566897e+003;7.122185e-002
2.568826e+003;7.093876e-002
2.570754e+003;7.077942e-002
2.572683e+003;7.086623e-002
2.574612e+003;7.118598e-002
2.576540e+003;7.124711e-002
2.578469e+003;7.117438e-002
2.580397e+003;7.156710e-002
2.582326e+003;7.170007e-002
2.584254e+003;7.152763e-002
2.586183e+003;7.186209e-002
2.588111e+003;7.177851e-002
2.590040e+003;7.151794e-002
2.591969e+003;7.186018e-002
2.593897e+003;7.206947e-002
2.595826e+003;7.209074e-002
2.597754e+003;7.215150e-002
2.599683e+003;7.235190e-002
2.601611e+003;7.250265e-002
2.603540e+003;7.248855e-002
2.605468e+003;7.257438e-002
2.607397e+003;7.261566e-002
2.609325e+003;7.260904e-002
2.611254e+003;7.255030e-002
2.613183e+003;7.255074e-002
2.615111e+003;7.254838e-002
2.617040e+003;7.268080e-002
2.618968e+003;7.277693e-002
2.620897e+003;7.258657e-002
2.622825e+003;7.250868e-002
2.624754e+003;7.270697e-002
2.626682e+003;7.291451e-002
2.628611e+003;7.308357e-002
2.630540e+003;7.341872e-002
2.632468e+003;7.367325e-002
2.634396e+003;7.335564e-002
2.636325e+003;7.314976e-002
2.638254e+003;7.317886e-002
2.640182e+003;7.337333e-002
2.642111e+003;7.371290e-002
2.644039e+003;7.393102e-002
2.645968e+003;7.429124e-002
2.647896e+003;7.458436e-002
2.649825e+003;7.422520e-002
2.651753e+003;7.396006e-002
2.653682e+003;7.436477e-002
2.655611e+003;7.459530e-002
2.657539e+003;7.459991e-002
2.659468e+003;7.428299e-002
2.661396e+003;7.410610e-002
2.663325e+003;7.455242e-002
2.665253e+003;7.458295e-002
2.667182e+003;7.474381e-002
2.669110e+003;7.497946e-002
2.671039e+003;7.493292e-002
2.672968e+003;7.476833e-002
2.674896e+003;7.502037e-002
2.676825e+003;7.532419e-002
2.678753e+003;7.536581e-002
2.680682e+003;7.549124e-002
2.682610e+003;7.578182e-002
2.684539e+003;7.611132e-002
2.686467e+003;7.611140e-002
2.688396e+003;7.604957e-002
2.690324e+003;7.613896e-002
2.692253e+003;7.633421e-002
2.694182e+003;7.632745e-002
2.696110e+003;7.625130e-002
2.698039e+003;7.648208e-002
2.699967e+003;7.673280e-002
2.701896e+003;7.660092e-002
2.703824e+003;7.651895e-002
2.705753e+003;7.665638e-002
2.707681e+003;7.688572e-002
2.709610e+003;7.728528e-002
2.711539e+003;7.758075e-002
2.713467e+003;7.766296e-002
2.715396e+003;7.775854e-002
2.717324e+003;7.784482e-002
2.719253e+003;7.779397e-002
2.721181e+003;7.773948e-002
2.723110e+003;7.804421e-002
2.725038e+003;7.804215e-002
2.726967e+003;7.785401e-002
2.728896e+003;7.775806e-002
2.730824e+003;7.796217e-002
2.732752e+003;7.830428e-002
2.734681e+003;7.847577e-002
2.736610e+003;7.838643e-002
2.738538e+003;7.823940e-002
2.740467e+003;7.816078e-002
2.742395e+003;7.857852e-002
2.744324e+003;7.914549e-002
2.746252e+003;7.927500e-002
2.748181e+003;7.904360e-002
2.750109e+003;7.872006e-002
2.752038e+003;7.860044e-002
2.753967e+003;7.866707e-002
2.755895e+003;7.870917e-002
2.757824e+003;7.899635e-002
2.759752e+003;7.913598e-002
2.761681e+003;7.918700e-002
2.763609e+003;7.953509e-002
2.765538e+003;7.970002e-002
2.767466e+003;7.975373e-002
2.769395e+003;8.001036e-002
2.771323e+003;8.003622e-002
2.773252e+003;8.032618e-002
2.775181e+003;8.063904e-002
2.777109e+003;8.061136e-002
2.779038e+003;8.047467e-002
2.780966e+003;8.066913e-002
2.782895e+003;8.094095e-002
2.784823e+003;8.116805e-002
2.786752e+003;8.185229e-002
2.788680e+003;8.206286e-002
2.790609e+003;8.190802e-002
2.792538e+003;8.209900e-002
2.794466e+003;8.243161e-002
2.796395e+003;8.263985e-002
2.798323e+003;8.269323e-002
2.800252e+003;8.286539e-002
2.802180e+003;8.335339e-002
2.804109e+003;8.362550e-002
2.806037e+003;8.381353e-002
2.807966e+003;8.417646e-002
2.809895e+003;8.494153e-002
2.811823e+003;8.593828e-002
2.813751e+003;8.638673e-002
2.815680e+003;8.650617e-002
2.817609e+003;8.678192e-002
2.819537e+003;8.743248e-002
2.821466e+003;8.821724e-002
2.823394e+003;8.870996e-002
2.825323e+003;8.938397e-002
2.827251e+003;8.996426e-002
2.829180e+003;9.030678e-002
2.831108e+003;9.096403e-002
2.833037e+003;9.177388e-002
2.834966e+003;9.281632e-002
2.836894e+003;9.412053e-002
2.838823e+003;9.534143e-002
2.840751e+003;9.661460e-002
2.842680e+003;9.810378e-002
2.844608e+003;9.962258e-002
2.846537e+003;1.015862e-001
2.848465e+003;1.039099e-001
2.850394e+003;1.057341e-001
2.852323e+003;1.070437e-001
2.854251e+003;1.079582e-001
2.856180e+003;1.084753e-001
2.858108e+003;1.089033e-001
2.860037e+003;1.098076e-001
2.861965e+003;1.110416e-001
2.863894e+003;1.121058e-001
2.865822e+003;1.131708e-001
2.867751e+003;1.141258e-001
2.869679e+003;1.144724e-001
2.871608e+003;1.146571e-001
2.873536e+003;1.152870e-001
2.875465e+003;1.157365e-001
2.877394e+003;1.160344e-001
2.879322e+003;1.166778e-001
2.881251e+003;1.176670e-001
2.883179e+003;1.183910e-001
2.885108e+003;1.188005e-001
2.887036e+003;1.193724e-001
2.888965e+003;1.203157e-001
2.890893e+003;1.212598e-001
2.892822e+003;1.219108e-001
2.894750e+003;1.221023e-001
2.896679e+003;1.223495e-001
2.898608e+003;1.227851e-001
2.900536e+003;1.224228e-001
2.902465e+003;1.219486e-001
2.904393e+003;1.211957e-001
2.906322e+003;1.201818e-001
2.908250e+003;1.194343e-001
2.910179e+003;1.186548e-001
2.912107e+003;1.181005e-001
2.914036e+003;1.176049e-001
2.915965e+003;1.165997e-001
2.917893e+003;1.158292e-001
2.919822e+003;1.148305e-001
2.921750e+003;1.130158e-001
2.923679e+003;1.113484e-001
2.925607e+003;1.096935e-001
2.927536e+003;1.077079e-001
2.929464e+003;1.062135e-001
2.931393e+003;1.048995e-001
2.933322e+003;1.034900e-001
2.935250e+003;1.022591e-001
2.937178e+003;1.011332e-001
2.939107e+003;9.978632e-002
2.941036e+003;9.837352e-002
2.942964e+003;9.754255e-002
2.944893e+003;9.666596e-002
2.946821e+003;9.543119e-002
2.948750e+003;9.441268e-002
2.950678e+003;9.319238e-002
2.952607e+003;9.194921e-002
2.954535e+003;9.091171e-002
2.956464e+003;8.979815e-002
2.958393e+003;8.856802e-002
2.960321e+003;8.739686e-002
2.962250e+003;8.658491e-002
2.964178e+003;8.562190e-002
2.966107e+003;8.450780e-002
2.968035e+003;8.373775e-002
2.969964e+003;8.356982e-002
2.971892e+003;8.295815e-002
2.973821e+003;8.174921e-002
2.975750e+003;8.073061e-002
2.977678e+003;7.995045e-002
2.979607e+003;7.939357e-002
2.981535e+003;7.906888e-002
2.983464e+003;7.905024e-002
2.985392e+003;7.881046e-002
2.987321e+003;7.814638e-002
2.989249e+003;7.800539e-002
2.991178e+003;7.791784e-002
2.993106e+003;7.742810e-002
2.995035e+003;7.692709e-002
2.996964e+003;7.666223e-002
2.998892e+003;7.694987e-002
3.000821e+003;7.708336e-002
3.002749e+003;7.686503e-002
3.004678e+003;7.706690e-002
3.006606e+003;7.735865e-002
3.008535e+003;7.755361e-002
3.010463e+003;7.790396e-002
3.012392e+003;7.819660e-002
3.014321e+003;7.786968e-002
3.016249e+003;7.771253e-002
3.018177e+003;7.788597e-002
3.020106e+003;7.805452e-002
3.022035e+003;7.820481e-002
3.023963e+003;7.824321e-002
3.025892e+003;7.834201e-002
3.027820e+003;7.866286e-002
3.029749e+003;7.895414e-002
3.031677e+003;7.915737e-002
3.033606e+003;7.937531e-002
3.035534e+003;7.962380e-002
3.037463e+003;7.970862e-002
3.039392e+003;8.004864e-002
3.041320e+003;8.033962e-002
3.043249e+003;8.047499e-002
3.045177e+003;8.039368e-002
3.047106e+003;8.073903e-002
3.049034e+003;8.149475e-002
3.050963e+003;8.215217e-002
3.052891e+003;8.230969e-002
3.054820e+003;8.226315e-002
3.056749e+003;8.251919e-002
3.058677e+003;8.272851e-002
3.060606e+003;8.299838e-002
3.062534e+003;8.381173e-002
3.064463e+003;8.406369e-002
3.066391e+003;8.393974e-002
3.068320e+003;8.404845e-002
3.070248e+003;8.450080e-002
3.072177e+003;8.531084e-002
3.074105e+003;8.584944e-002
3.076034e+003;8.607315e-002
3.077963e+003;8.595544e-002
3.079891e+003;8.594745e-002
3.081820e+003;8.639123e-002
3.083748e+003;8.699966e-002
3.085677e+003;8.746729e-002
3.087605e+003;8.792967e-002
3.089534e+003;8.852442e-002
3.091462e+003;8.912752e-002
3.093391e+003;8.921056e-002
3.095320e+003;8.865676e-002
3.097248e+003;8.880036e-002
3.099177e+003;8.957423e-002
3.101105e+003;9.041110e-002
3.103034e+003;9.101927e-002
3.104962e+003;9.141690e-002
3.106891e+003;9.174011e-002
3.108819e+003;9.226318e-002
3.110748e+003;9.284344e-002
3.112677e+003;9.336152e-002
3.114605e+003;9.360845e-002
3.116533e+003;9.395435e-002
3.118462e+003;9.410378e-002
3.120391e+003;9.475388e-002
3.122319e+003;9.572696e-002
3.124248e+003;9.626169e-002
3.126176e+003;9.680151e-002
3.128105e+003;9.694282e-002
3.130033e+003;9.696771e-002
3.131962e+003;9.765974e-002
3.133890e+003;9.885152e-002
3.135819e+003;9.985808e-002
3.137748e+003;1.004428e-001
3.139676e+003;1.009506e-001
3.141605e+003;1.016430e-001
3.143533e+003;1.022536e-001
3.145462e+003;1.023823e-001
3.147390e+003;1.020952e-001
3.149319e+003;1.029405e-001
3.151247e+003;1.041071e-001
3.153176e+003;1.045270e-001
3.155104e+003;1.050299e-001
3.157033e+003;1.056093e-001
3.158962e+003;1.063435e-001
3.160890e+003;1.071024e-001
3.162819e+003;1.081845e-001
3.164747e+003;1.089691e-001
3.166676e+003;1.092298e-001
3.168604e+003;1.094405e-001
3.170533e+003;1.100023e-001
3.172461e+003;1.109593e-001
3.174390e+003;1.117697e-001
3.176319e+003;1.126736e-001
3.178247e+003;1.138393e-001
3.180176e+003;1.150404e-001
3.182104e+003;1.155097e-001
3.184033e+003;1.158177e-001
3.185961e+003;1.168317e-001
3.187890e+003;1.177224e-001
3.189818e+003;1.182224e-001
3.191747e+003;1.188827e-001
3.193676e+003;1.198796e-001
3.195604e+003;1.211918e-001
3.197532e+003;1.221829e-001
3.199461e+003;1.230302e-001
3.201390e+003;1.240168e-001
3.203318e+003;1.246591e-001
3.205247e+003;1.254102e-001
3.207175e+003;1.266573e-001
3.209104e+003;1.279864e-001
3.211032e+003;1.289659e-001
3.212961e+003;1.295727e-001
3.214889e+003;1.302198e-001
3.216818e+003;1.309033e-001
3.218747e+003;1.318005e-001
3.220675e+003;1.333473e-001
3.222604e+003;1.351481e-001
3.224532e+003;1.360814e-001
3.226461e+003;1.370928e-001
3.228389e+003;1.387323e-001
3.230318e+003;1.404346e-001
3.232246e+003;1.411005e-001
3.234175e+003;1.416654e-001
3.236104e+003;1.430039e-001
3.238032e+003;1.441275e-001
3.239961e+003;1.453276e-001
3.241889e+003;1.468018e-001
3.243818e+003;1.480886e-001
3.245746e+003;1.491549e-001
3.247675e+003;1.497739e-001
3.249603e+003;1.510070e-001
3.251532e+003;1.528424e-001
3.253460e+003;1.542881e-001
3.255389e+003;1.554441e-001
3.257318e+003;1.566549e-001
3.259246e+003;1.580343e-001
3.261175e+003;1.597480e-001
3.263103e+003;1.611264e-001
3.265032e+003;1.628338e-001
3.266960e+003;1.646619e-001
3.268889e+003;1.655832e-001
3.270817e+003;1.658037e-001
3.272746e+003;1.666839e-001
3.274675e+003;1.682267e-001
3.276603e+003;1.690426e-001
3.278531e+003;1.699823e-001
3.280460e+003;1.712209e-001
3.282389e+003;1.715750e-001
3.284317e+003;1.720202e-001
3.286246e+003;1.727798e-001
3.288174e+003;1.734484e-001
3.290103e+003;1.740136e-001
3.292031e+003;1.744125e-001
3.293960e+003;1.743461e-001
3.295888e+003;1.749222e-001
3.297817e+003;1.756900e-001
3.299746e+003;1.754600e-001
3.301674e+003;1.750137e-001
3.303603e+003;1.751680e-001
3.305531e+003;1.756011e-001
3.307460e+003;1.758205e-001
3.309388e+003;1.760028e-001
3.311317e+003;1.768986e-001
3.313245e+003;1.771023e-001
3.315174e+003;1.769069e-001
3.317103e+003;1.775013e-001
3.319031e+003;1.782646e-001
3.320960e+003;1.788525e-001
3.322888e+003;1.789809e-001
3.324817e+003;1.791926e-001
3.326745e+003;1.802157e-001
3.328674e+003;1.811312e-001
3.330602e+003;1.814415e-001
3.332531e+003;1.819927e-001
3.334459e+003;1.819917e-001
3.336388e+003;1.816632e-001
3.338317e+003;1.819373e-001
3.340245e+003;1.820028e-001
3.342174e+003;1.813033e-001
3.344102e+003;1.809935e-001
3.346031e+003;1.810945e-001
3.347959e+003;1.801163e-001
3.349888e+003;1.792578e-001
3.351816e+003;1.786050e-001
3.353745e+003;1.769038e-001
3.355674e+003;1.755666e-001
3.357602e+003;1.747830e-001
3.359531e+003;1.733810e-001
3.361459e+003;1.723850e-001
3.363388e+003;1.717087e-001
3.365316e+003;1.709254e-001
3.367245e+003;1.704082e-001
3.369173e+003;1.693062e-001
3.371102e+003;1.681549e-001
3.373031e+003;1.677012e-001
3.374959e+003;1.665204e-001
3.376887e+003;1.647726e-001
3.378816e+003;1.639294e-001
3.380745e+003;1.634425e-001
3.382673e+003;1.630750e-001
3.384602e+003;1.622865e-001
3.386530e+003;1.606693e-001
3.388459e+003;1.595256e-001
3.390387e+003;1.592506e-001
3.392316e+003;1.588576e-001
3.394244e+003;1.582096e-001
3.396173e+003;1.573226e-001
3.398102e+003;1.565279e-001
3.400030e+003;1.554735e-001
3.401959e+003;1.545691e-001
3.403887e+003;1.538759e-001
3.405816e+003;1.529046e-001
3.407744e+003;1.513942e-001
3.409673e+003;1.499020e-001
3.411601e+003;1.491716e-001
3.413530e+003;1.481455e-001
3.415458e+003;1.470740e-001
3.417387e+003;1.459972e-001
3.419316e+003;1.446489e-001
3.421244e+003;1.438910e-001
3.423173e+003;1.429452e-001
3.425101e+003;1.414675e-001
3.427030e+003;1.399688e-001
3.428958e+003;1.382354e-001
3.430887e+003;1.370291e-001
3.432815e+003;1.363475e-001
3.434744e+003;1.354821e-001
3.436673e+003;1.346242e-001
3.438601e+003;1.333657e-001
3.440530e+003;1.317730e-001
3.442458e+003;1.306536e-001
3.444387e+003;1.298235e-001
3.446315e+003;1.287334e-001
3.448244e+003;1.281870e-001
3.450172e+003;1.271109e-001
3.452101e+003;1.249557e-001
3.454030e+003;1.235955e-001
3.455958e+003;1.227630e-001
3.457886e+003;1.218491e-001
3.459815e+003;1.205622e-001
3.461744e+003;1.187841e-001
3.463672e+003;1.174303e-001
3.465601e+003;1.163608e-001
3.467529e+003;1.156198e-001
3.469458e+003;1.147556e-001
3.471386e+003;1.137519e-001
3.473315e+003;1.122837e-001
3.475243e+003;1.111806e-001
3.477172e+003;1.109071e-001
3.479101e+003;1.098524e-001
3.481029e+003;1.080097e-001
3.482958e+003;1.069971e-001
3.484886e+003;1.061581e-001
3.486815e+003;1.046201e-001
3.488743e+003;1.033677e-001
3.490672e+003;1.026020e-001
3.492600e+003;1.017730e-001
3.494529e+003;1.004234e-001
3.496458e+003;9.944373e-002
3.498386e+003;9.879416e-002
3.500315e+003;9.763518e-002
3.502243e+003;9.607451e-002
3.504172e+003;9.485197e-002
3.506100e+003;9.384005e-002
3.508029e+003;9.283769e-002
3.509957e+003;9.163334e-002
3.511886e+003;9.089827e-002
3.513814e+003;9.028010e-002
3.515743e+003;8.945200e-002
3.517672e+003;8.871272e-002
3.519600e+003;8.793312e-002
3.521529e+003;8.679228e-002
3.523457e+003;8.571057e-002
3.525386e+003;8.470588e-002
3.527314e+003;8.341233e-002
3.529243e+003;8.236556e-002
3.531171e+003;8.189178e-002
3.533100e+003;8.108146e-002
3.535029e+003;7.939086e-002
3.536957e+003;7.798120e-002
3.538885e+003;7.750533e-002
3.540814e+003;7.709487e-002
3.542743e+003;7.621951e-002
3.544671e+003;7.531966e-002
3.546600e+003;7.499518e-002
3.548528e+003;7.430139e-002
3.550457e+003;7.322929e-002
3.552385e+003;7.224924e-002
3.554314e+003;7.249118e-002
3.556242e+003;7.232829e-002
3.558171e+003;7.115744e-002
3.560100e+003;7.015522e-002
3.562028e+003;6.953257e-002
3.563957e+003;6.856466e-002
3.565885e+003;6.750821e-002
3.567814e+003;6.666758e-002
3.569742e+003;6.623504e-002
3.571671e+003;6.566132e-002
3.573599e+003;6.498343e-002
3.575528e+003;6.386934e-002
3.577457e+003;6.250805e-002
3.579385e+003;6.237638e-002
3.581314e+003;6.237355e-002
3.583242e+003;6.196376e-002
3.585171e+003;6.162401e-002
3.587099e+003;6.095276e-002
3.589028e+003;5.967459e-002
3.590956e+003;5.898324e-002
3.592885e+003;5.925458e-002
3.594813e+003;5.899550e-002
3.596742e+003;5.838723e-002
3.598671e+003;5.775814e-002
3.600599e+003;5.697341e-002
3.602528e+003;5.642140e-002
3.604456e+003;5.632248e-002
3.606385e+003;5.629302e-002
3.608313e+003;5.618734e-002
3.610242e+003;5.536452e-002
3.612170e+003;5.433996e-002
3.614099e+003;5.428187e-002
3.616028e+003;5.456983e-002
3.617956e+003;5.444173e-002
3.619885e+003;5.376687e-002
3.621813e+003;5.290520e-002
3.623742e+003;5.238035e-002
3.625670e+003;5.189720e-002
3.627599e+003;5.160217e-002
3.629527e+003;5.130100e-002
3.631456e+003;5.155012e-002
3.633385e+003;5.179964e-002
3.635313e+003;5.143123e-002
3.637241e+003;5.093051e-002
3.639170e+003;5.105671e-002
3.641099e+003;5.117710e-002
3.643027e+003;5.049445e-002
3.644956e+003;5.016191e-002
3.646884e+003;5.050152e-002
3.648813e+003;5.033619e-002
3.650741e+003;4.990793e-002
3.652670e+003;4.989730e-002
3.654598e+003;5.009888e-002
3.656527e+003;5.022826e-002
3.658456e+003;5.003057e-002
3.660384e+003;4.945192e-002
3.662313e+003;4.850080e-002
3.664241e+003;4.835289e-002
3.666170e+003;4.789991e-002
3.668098e+003;4.750052e-002
3.670027e+003;4.806747e-002
3.671955e+003;4.878253e-002
3.673884e+003;4.868293e-002
3.675813e+003;4.814839e-002
3.677741e+003;4.766082e-002
3.679669e+003;4.722903e-002
3.681598e+003;4.713274e-002
3.683527e+003;4.683144e-002
3.685455e+003;4.694971e-002
3.687384e+003;4.699445e-002
3.689312e+003;4.667306e-002
3.691241e+003;4.674450e-002
3.693169e+003;4.674645e-002
3.695098e+003;4.668970e-002
3.697026e+003;4.684986e-002
3.698955e+003;4.725098e-002
3.700884e+003;4.765029e-002
3.702812e+003;4.723853e-002
3.704741e+003;4.617665e-002
3.706669e+003;4.591446e-002
3.708598e+003;4.654145e-002
3.710526e+003;4.637570e-002
3.712455e+003;4.567415e-002
3.714383e+003;4.590684e-002
3.716312e+003;4.651338e-002
3.718240e+003;4.623872e-002
3.720169e+003;4.554177e-002
3.722098e+003;4.530383e-002
3.724026e+003;4.555435e-002
3.725955e+003;4.559112e-002
3.727883e+003;4.550725e-002
3.729812e+003;4.549548e-002
3.731740e+003;4.557275e-002
3.733669e+003;4.555961e-002
3.735597e+003;4.557724e-002
3.737526e+003;4.561287e-002
3.739455e+003;4.589767e-002
3.741383e+003;4.595737e-002
3.743312e+003;4.560120e-002
3.745240e+003;4.528816e-002
3.747169e+003;4.547727e-002
3.749097e+003;4.547407e-002
3.751026e+003;4.559156e-002
3.752954e+003;4.651866e-002
3.754883e+003;4.653285e-002
3.756812e+003;4.578580e-002
3.758740e+003;4.612565e-002
3.760668e+003;4.594975e-002
3.762597e+003;4.576169e-002
3.764526e+003;4.595089e-002
3.766454e+003;4.560451e-002
3.768383e+003;4.547856e-002
3.770311e+003;4.554320e-002
3.772240e+003;4.605329e-002
3.774168e+003;4.649244e-002
3.776097e+003;4.584682e-002
3.778025e+003;4.464198e-002
3.779954e+003;4.417715e-002
3.781883e+003;4.531711e-002
3.783811e+003;4.647444e-002
3.785740e+003;4.701793e-002
3.787668e+003;4.720476e-002
3.789597e+003;4.665355e-002
3.791525e+003;4.596507e-002
3.793454e+003;4.541760e-002
3.795382e+003;4.559178e-002
3.797311e+003;4.612812e-002
3.799240e+003;4.607691e-002
3.801168e+003;4.576883e-002
3.803097e+003;4.570080e-002
3.805025e+003;4.570996e-002
3.806954e+003;4.592997e-002
3.808882e+003;4.641658e-002
3.810811e+003;4.624417e-002
3.812739e+003;4.551285e-002
3.814668e+003;4.549114e-002
3.816596e+003;4.576677e-002
3.818525e+003;4.530879e-002
3.820454e+003;4.560083e-002
3.822382e+003;4.636537e-002
3.824311e+003;4.634982e-002
3.826239e+003;4.576338e-002
3.828168e+003;4.544563e-002
3.830096e+003;4.577836e-002
3.832025e+003;4.632191e-002
3.833953e+003;4.635664e-002
3.835882e+003;4.611685e-002
3.837811e+003;4.571423e-002
3.839739e+003;4.618848e-002
3.841667e+003;4.700822e-002
3.843596e+003;4.715745e-002
3.845525e+003;4.686861e-002
3.847453e+003;4.643911e-002
3.849382e+003;4.629913e-002
3.851310e+003;4.583057e-002
3.853239e+003;4.562225e-002
3.855167e+003;4.660736e-002
3.857096e+003;4.709725e-002
3.859024e+003;4.643034e-002
3.860953e+003;4.546303e-002
3.862882e+003;4.528963e-002
3.864810e+003;4.584880e-002
3.866739e+003;4.636689e-002
3.868667e+003;4.641456e-002
3.870596e+003;4.658029e-002
3.872524e+003;4.689345e-002
3.874453e+003;4.659205e-002
3.876381e+003;4.604880e-002
3.878310e+003;4.636526e-002
3.880239e+003;4.672439e-002
3.882167e+003;4.698585e-002
3.884096e+003;4.784179e-002
3.886024e+003;4.807761e-002
3.887953e+003;4.750181e-002
3.889881e+003;4.733817e-002
3.891810e+003;4.729542e-002
3.893738e+003;4.750056e-002
3.895667e+003;4.782141e-002
3.897595e+003;4.709345e-002
3.899524e+003;4.651563e-002
3.901453e+003;4.678409e-002
3.903381e+003;4.752381e-002
3.905310e+003;4.817533e-002
3.907238e+003;4.796636e-002
3.909167e+003;4.774758e-002
3.911095e+003;4.733566e-002
3.913024e+003;4.705216e-002
3.914952e+003;4.733518e-002
3.916881e+003;4.786621e-002
3.918810e+003;4.830904e-002
3.920738e+003;4.850339e-002
3.922667e+003;4.912289e-002
3.924595e+003;4.963925e-002
3.926524e+003;4.903089e-002
3.928452e+003;4.844126e-002
3.930381e+003;4.813202e-002
3.932309e+003;4.804082e-002
3.934238e+003;4.822580e-002
3.936167e+003;4.777188e-002
3.938095e+003;4.716484e-002
3.940023e+003;4.670376e-002
3.941952e+003;4.765816e-002
3.943881e+003;4.843330e-002
3.945809e+003;4.758488e-002
3.947738e+003;4.729113e-002
3.949666e+003;4.784594e-002
3.951595e+003;4.835130e-002
3.953523e+003;4.845012e-002
3.955452e+003;4.842689e-002
3.957380e+003;4.768198e-002
3.959309e+003;4.759800e-002
3.961238e+003;4.819511e-002
3.963166e+003;4.727037e-002
3.965095e+003;4.674844e-002
3.967023e+003;4.779814e-002
3.968952e+003;4.928309e-002
3.970880e+003;4.912174e-002
3.972809e+003;4.806617e-002
3.974737e+003;4.771115e-002
3.976666e+003;4.803120e-002
3.978594e+003;4.827419e-002
3.980523e+003;4.801144e-002
3.982452e+003;4.722349e-002
3.984380e+003;4.718929e-002
3.986309e+003;4.756565e-002
3.988237e+003;4.769610e-002
3.990166e+003;4.813754e-002
3.992094e+003;4.837582e-002
3.994023e+003;4.869983e-002
3.995951e+003;4.893308e-002
3.997880e+003;4.760891e-002
3.999809e+003;4.703606e-002
4.001737e+003;0.000000e+000
