3.992094e+002;0.000000e+000
4.011380e+002;0.000000e+000
4.030665e+002;0.000000e+000
4.049951e+002;0.000000e+000
4.069236e+002;0.000000e+000
4.088522e+002;0.000000e+000
4.107807e+002;0.000000e+000
4.127093e+002;0.000000e+000
4.146378e+002;0.000000e+000
4.165664e+002;0.000000e+000
4.184949e+002;0.000000e+000
4.204235e+002;0.000000e+000
4.223520e+002;0.000000e+000
4.242806e+002;0.000000e+000
4.262091e+002;0.000000e+000
4.281377e+002;0.000000e+000
4.300662e+002;0.000000e+000
4.319948e+002;0.000000e+000
4.339233e+002;0.000000e+000
4.358519e+002;0.000000e+000
4.377804e+002;0.000000e+000
4.397090e+002;0.000000e+000
4.416375e+002;0.000000e+000
4.435660e+002;0.000000e+000
4.454946e+002;0.000000e+000
4.474232e+002;0.000000e+000
4.493517e+002;0.000000e+000
4.512802e+002;0.000000e+000
4.532088e+002;0.000000e+000
4.551373e+002;0.000000e+000
4.570659e+002;0.000000e+000
4.589944e+002;0.000000e+000
4.609230e+002;0.000000e+000
4.628515e+002;0.000000e+000
4.647801e+002;0.000000e+000
4.667086e+002;0.000000e+000
4.686372e+002;0.000000e+000
4.705657e+002;0.000000e+000
4.724943e+002;0.000000e+000
4.744228e+002;0.000000e+000
4.763513e+002;0.000000e+000
4.782799e+002;0.000000e+000
4.802085e+002;0.000000e+000
4.821370e+002;0.000000e+000
4.840656e+002;0.000000e+000
4.859941e+002;0.000000e+000
4.879226e+002;0.000000e+000
4.898512e+002;0.000000e+000
4.917798e+002;0.000000e+000
4.937083e+002;0.000000e+000
4.956368e+002;0.000000e+000
4.975654e+002;0.000000e+000
4.994939e+002;0.000000e+000
5.014225e+002;0.000000e+000
5.033510e+002;0.000000e+000
5.052796e+002;0.000000e+000
5.072081e+002;0.000000e+000
5.091367e+002;0.000000e+000
5.110652e+002;0.000000e+000
5.129938e+002;0.000000e+000
5.149223e+002;0.000000e+000
5.168509e+002;0.000000e+000
5.187794e+002;0.000000e+000
5.207079e+002;0.000000e+000
5.226365e+002;0.000000e+000
5.245651e+002;0.000000e+000
5.264936e+002;0.000000e+000
5.284222e+002;0.000000e+000
5.303507e+002;0.000000e+000
5.322792e+002;0.000000e+000
5.342078e+002;0.000000e+000
5.361364e+002;0.000000e+000
5.380649e+002;0.000000e+000
5.399935e+002;0.000000e+000
5.419220e+002;0.000000e+000
5.438505e+002;0.000000e+000
5.457791e+002;0.000000e+000
5.477076e+002;0.000000e+000
5.496362e+002;0.000000e+000
5.515648e+002;0.000000e+000
5.534933e+002;0.000000e+000
5.554218e+002;0.000000e+000
5.573504e+002;0.000000e+000
5.592789e+002;0.000000e+000
5.612075e+002;0.000000e+000
5.631360e+002;0.000000e+000
5.650646e+002;0.000000e+000
5.669931e+002;0.000000e+000
5.689217e+002;0.000000e+000
5.708502e+002;0.000000e+000
5.727787e+002;0.000000e+000
5.747073e+002;0.000000e+000
5.766359e+002;0.000000e+000
5.785644e+002;0.000000e+000
5.804930e+002;0.000000e+000
5.824215e+002;0.000000e+000
5.843500e+002;0.000000e+000
5.862786e+002;0.000000e+000
5.882072e+002;0.000000e+000
5.901357e+002;0.000000e+000
5.920643e+002;0.000000e+000
5.939928e+002;0.000000e+000
5.959213e+002;0.000000e+000
5.978499e+002;0.000000e+000
5.997784e+002;2.190982e-001
6.017070e+002;2.135091e-001
6.036355e+002;2.080761e-001
6.055641e+002;2.100043e-001
6.074926e+002;2.164002e-001
6.094211e+002;2.210073e-001
6.113497e+002;2.201008e-001
6.132783e+002;2.187809e-001
6.152068e+002;2.199909e-001
6.171354e+002;2.188085e-001
6.190639e+002;2.140955e-001
6.209924e+002;2.054271e-001
6.229210e+002;2.016024e-001
6.248495e+002;2.018218e-001
6.267781e+002;1.997667e-001
6.287067e+002;1.961162e-001
6.306352e+002;1.901024e-001
6.325637e+002;1.875736e-001
6.344923e+002;1.890703e-001
6.364208e+002;1.917394e-001
6.383494e+002;1.885978e-001
6.402780e+002;1.840888e-001
6.422065e+002;1.851791e-001
6.441350e+002;1.869584e-001
6.460636e+002;1.874782e-001
6.479921e+002;1.842220e-001
6.499207e+002;1.810740e-001
6.518492e+002;1.816108e-001
6.537778e+002;1.840430e-001
6.557063e+002;1.881286e-001
6.576349e+002;1.942603e-001
6.595634e+002;1.987225e-001
6.614919e+002;1.995979e-001
6.634205e+002;1.983232e-001
6.653491e+002;1.969778e-001
6.672776e+002;1.961525e-001
6.692062e+002;1.950642e-001
6.711347e+002;1.930610e-001
6.730632e+002;1.899080e-001
6.749918e+002;1.856502e-001
6.769203e+002;1.794139e-001
6.788489e+002;1.740673e-001
6.807775e+002;1.695780e-001
6.827060e+002;1.658931e-001
6.846345e+002;1.646741e-001
6.865631e+002;1.644028e-001
6.884916e+002;1.631796e-001
6.904202e+002;1.632008e-001
6.923488e+002;1.646835e-001
6.942773e+002;1.636046e-001
6.962058e+002;1.625379e-001
6.981344e+002;1.617592e-001
7.000629e+002;1.607659e-001
7.019915e+002;1.605848e-001
7.039200e+002;1.597914e-001
7.058486e+002;1.580927e-001
7.077771e+002;1.568082e-001
7.097057e+002;1.555353e-001
7.116342e+002;1.545301e-001
7.135627e+002;1.523573e-001
7.154913e+002;1.484091e-001
7.174199e+002;1.459415e-001
7.193484e+002;1.437058e-001
7.212770e+002;1.403775e-001
7.232055e+002;1.372597e-001
7.251340e+002;1.340041e-001
7.270626e+002;1.317287e-001
7.289911e+002;1.297908e-001
7.309197e+002;1.277199e-001
7.328483e+002;1.255936e-001
7.347768e+002;1.228567e-001
7.367053e+002;1.213418e-001
7.386339e+002;1.195636e-001
7.405624e+002;1.181941e-001
7.424910e+002;1.177865e-001
7.444196e+002;1.167710e-001
7.463481e+002;1.149230e-001
7.482766e+002;1.131714e-001
7.502052e+002;1.123465e-001
7.521337e+002;1.114225e-001
7.540623e+002;1.110035e-001
7.559908e+002;1.100706e-001
7.579194e+002;1.078798e-001
7.598479e+002;1.069037e-001
7.617765e+002;1.065937e-001
7.637050e+002;1.053997e-001
7.656335e+002;1.040289e-001
7.675621e+002;1.038043e-001
7.694907e+002;1.033735e-001
7.714192e+002;1.020414e-001
7.733478e+002;1.013379e-001
7.752763e+002;1.005988e-001
7.772048e+002;9.974375e-002
7.791334e+002;9.876625e-002
7.810620e+002;9.801868e-002
7.829905e+002;9.781452e-002
7.849191e+002;9.734707e-002
7.868476e+002;9.620495e-002
7.887761e+002;9.525151e-002
7.907047e+002;9.422248e-002
7.926332e+002;9.394686e-002
7.945618e+002;9.408864e-002
7.964903e+002;9.378181e-002
7.984189e+002;9.338835e-002
8.003474e+002;9.292834e-002
8.022759e+002;9.259186e-002
8.042045e+002;9.243216e-002
8.061331e+002;9.215875e-002
8.080616e+002;9.159189e-002
8.099902e+002;9.081589e-002
8.119187e+002;9.100869e-002
8.138472e+002;9.191183e-002
8.157758e+002;9.194110e-002
8.177043e+002;9.154378e-002
8.196329e+002;9.120195e-002
8.215615e+002;9.084900e-002
8.234900e+002;9.106549e-002
8.254185e+002;9.178104e-002
8.273471e+002;9.177408e-002
8.292756e+002;9.160203e-002
8.312042e+002;9.207825e-002
8.331328e+002;9.229437e-002
8.350613e+002;9.222102e-002
8.369898e+002;9.155478e-002
8.389184e+002;9.153098e-002
8.408469e+002;9.151936e-002
8.427755e+002;9.084137e-002
8.447040e+002;9.065758e-002
8.466326e+002;9.043497e-002
8.485611e+002;9.053985e-002
8.504897e+002;9.074450e-002
8.524182e+002;9.075728e-002
8.543467e+002;9.098405e-002
8.562753e+002;9.109606e-002
8.582039e+002;9.104355e-002
8.601324e+002;9.091706e-002
8.620610e+002;9.133822e-002
8.639895e+002;9.229572e-002
8.659180e+002;9.362711e-002
8.678466e+002;9.506378e-002
8.697751e+002;9.616844e-002
8.717037e+002;9.773517e-002
8.736323e+002;9.968230e-002
8.755608e+002;1.018407e-001
8.774893e+002;1.041541e-001
8.794179e+002;1.068885e-001
8.813464e+002;1.099107e-001
8.832750e+002;1.127045e-001
8.852036e+002;1.153888e-001
8.871321e+002;1.180572e-001
8.890606e+002;1.210290e-001
8.909892e+002;1.239732e-001
8.929177e+002;1.260303e-001
8.948463e+002;1.275319e-001
8.967748e+002;1.286436e-001
8.987034e+002;1.291270e-001
9.006319e+002;1.292883e-001
9.025605e+002;1.286152e-001
9.044890e+002;1.270372e-001
9.064175e+002;1.252289e-001
9.083461e+002;1.236871e-001
9.102747e+002;1.218882e-001
9.122032e+002;1.196669e-001
9.141318e+002;1.177396e-001
9.160603e+002;1.164598e-001
9.179888e+002;1.159300e-001
9.199174e+002;1.159791e-001
9.218459e+002;1.158480e-001
9.237745e+002;1.160965e-001
9.257031e+002;1.174478e-001
9.276316e+002;1.186440e-001
9.295601e+002;1.192461e-001
9.314887e+002;1.203700e-001
9.334172e+002;1.216934e-001
9.353458e+002;1.225445e-001
9.372744e+002;1.235252e-001
9.392029e+002;1.247282e-001
9.411314e+002;1.262647e-001
9.430600e+002;1.281894e-001
9.449885e+002;1.302071e-001
9.469171e+002;1.323200e-001
9.488456e+002;1.354327e-001
9.507742e+002;1.388867e-001
9.527027e+002;1.423798e-001
9.546313e+002;1.462940e-001
9.565598e+002;1.502485e-001
9.584883e+002;1.544107e-001
9.604169e+002;1.584392e-001
9.623455e+002;1.628998e-001
9.642740e+002;1.679446e-001
9.662026e+002;1.726042e-001
9.681311e+002;1.777643e-001
9.700596e+002;1.839886e-001
9.719882e+002;1.912640e-001
9.739167e+002;1.996710e-001
9.758453e+002;2.099140e-001
9.777739e+002;2.210644e-001
9.797024e+002;2.321400e-001
9.816309e+002;2.428924e-001
9.835595e+002;2.511607e-001
9.854880e+002;2.557383e-001
9.874166e+002;2.583429e-001
9.893452e+002;2.612386e-001
9.912737e+002;2.651634e-001
9.932022e+002;2.694260e-001
9.951307e+002;2.739567e-001
9.970593e+002;2.783673e-001
9.989879e+002;2.826687e-001
1.000916e+003;2.857002e-001
1.002845e+003;2.872220e-001
1.004773e+003;2.880411e-001
1.006702e+003;2.891798e-001
1.008631e+003;2.912813e-001
1.010559e+003;2.941023e-001
1.012488e+003;2.978904e-001
1.014416e+003;3.017363e-001
1.016345e+003;3.053381e-001
1.018273e+003;3.088651e-001
1.020202e+003;3.126675e-001
1.022130e+003;3.164572e-001
1.024059e+003;3.200620e-001
1.025988e+003;3.232498e-001
1.027916e+003;3.258371e-001
1.029845e+003;3.281381e-001
1.031773e+003;3.292280e-001
1.033702e+003;3.274529e-001
1.035630e+003;3.232155e-001
1.037559e+003;3.176388e-001
1.039487e+003;3.121008e-001
1.041416e+003;3.073893e-001
1.043344e+003;3.051650e-001
1.045273e+003;3.060929e-001
1.047202e+003;3.086222e-001
1.049130e+003;3.119597e-001
1.051059e+003;3.152576e-001
1.052987e+003;3.177191e-001
1.054916e+003;3.185741e-001
1.056844e+003;3.160403e-001
1.058773e+003;3.106319e-001
1.060701e+003;3.020836e-001
1.062630e+003;2.904805e-001
1.064558e+003;2.780344e-001
1.066487e+003;2.664701e-001
1.068416e+003;2.565972e-001
1.070344e+003;2.479456e-001
1.072273e+003;2.413957e-001
1.074201e+003;2.359530e-001
1.076130e+003;2.308334e-001
1.078058e+003;2.258980e-001
1.079987e+003;2.213194e-001
1.081915e+003;2.177394e-001
1.083844e+003;2.151791e-001
1.085773e+003;2.134513e-001
1.087701e+003;2.124992e-001
1.089630e+003;2.126382e-001
1.091558e+003;2.132884e-001
1.093487e+003;2.138955e-001
1.095415e+003;2.155395e-001
1.097344e+003;2.173232e-001
1.099272e+003;2.188971e-001
1.101201e+003;2.204609e-001
1.103129e+003;2.200734e-001
1.105058e+003;2.181714e-001
1.106987e+003;2.165520e-001
1.108915e+003;2.145979e-001
1.110844e+003;2.111708e-001
1.112772e+003;2.059500e-001
1.114701e+003;1.982604e-001
1.116629e+003;1.895479e-001
1.118558e+003;1.821881e-001
1.120486e+003;1.755321e-001
1.122415e+003;1.694772e-001
1.124344e+003;1.637925e-001
1.126272e+003;1.576360e-001
1.128201e+003;1.521571e-001
1.130129e+003;1.470605e-001
1.132058e+003;1.425223e-001
1.133986e+003;1.387962e-001
1.135915e+003;1.363038e-001
1.137843e+003;1.348457e-001
1.139772e+003;1.340532e-001
1.141700e+003;1.346976e-001
1.143629e+003;1.360018e-001
1.145557e+003;1.376248e-001
1.147486e+003;1.392016e-001
1.149415e+003;1.404030e-001
1.151343e+003;1.419529e-001
1.153272e+003;1.435163e-001
1.155200e+003;1.454282e-001
1.157129e+003;1.471270e-001
1.159057e+003;1.476190e-001
1.160986e+003;1.469107e-001
1.162914e+003;1.447201e-001
1.164843e+003;1.402257e-001
1.166771e+003;1.338949e-001
1.168700e+003;1.265710e-001
1.170629e+003;1.194839e-001
1.172557e+003;1.131284e-001
1.174486e+003;1.076212e-001
1.176414e+003;1.031994e-001
1.178343e+003;9.977681e-002
1.180271e+003;9.703847e-002
1.182200e+003;9.478318e-002
1.184128e+003;9.323210e-002
1.186057e+003;9.229400e-002
1.187986e+003;9.261040e-002
1.189914e+003;9.380916e-002
1.191843e+003;9.534044e-002
1.193771e+003;9.718280e-002
1.195700e+003;9.910113e-002
1.197628e+003;1.011896e-001
1.199557e+003;1.028031e-001
1.201485e+003;1.035281e-001
1.203414e+003;1.034213e-001
1.205343e+003;1.025874e-001
1.207271e+003;1.004956e-001
1.209200e+003;9.730411e-002
1.211128e+003;9.424812e-002
1.213057e+003;9.199335e-002
1.214985e+003;9.091367e-002
1.216914e+003;9.085460e-002
1.218842e+003;9.166407e-002
1.220771e+003;9.298695e-002
1.222699e+003;9.427978e-002
1.224628e+003;9.598184e-002
1.226557e+003;9.783863e-002
1.228485e+003;9.930657e-002
1.230414e+003;1.006926e-001
1.232342e+003;1.018124e-001
1.234271e+003;1.027367e-001
1.236199e+003;1.032581e-001
1.238128e+003;1.031646e-001
1.240056e+003;1.032330e-001
1.241985e+003;1.036936e-001
1.243913e+003;1.044841e-001
1.245842e+003;1.058193e-001
1.247771e+003;1.062340e-001
1.249699e+003;1.056818e-001
1.251628e+003;1.053148e-001
1.253556e+003;1.052973e-001
1.255485e+003;1.052660e-001
1.257413e+003;1.052982e-001
1.259342e+003;1.054737e-001
1.261270e+003;1.059529e-001
1.263199e+003;1.061733e-001
1.265127e+003;1.057436e-001
1.267056e+003;1.054704e-001
1.268985e+003;1.057213e-001
1.270913e+003;1.062740e-001
1.272842e+003;1.071196e-001
1.274770e+003;1.078279e-001
1.276699e+003;1.079679e-001
1.278627e+003;1.080715e-001
1.280556e+003;1.079832e-001
1.282484e+003;1.073221e-001
1.284413e+003;1.066366e-001
1.286342e+003;1.061297e-001
1.288270e+003;1.057037e-001
1.290199e+003;1.059946e-001
1.292127e+003;1.066286e-001
1.294056e+003;1.071398e-001
1.295984e+003;1.077049e-001
1.297913e+003;1.088070e-001
1.299841e+003;1.105247e-001
1.301770e+003;1.128458e-001
1.303698e+003;1.159033e-001
1.305627e+003;1.193769e-001
1.307556e+003;1.226444e-001
1.309484e+003;1.256214e-001
1.311413e+003;1.284348e-001
1.313341e+003;1.303037e-001
1.315270e+003;1.305471e-001
1.317198e+003;1.295094e-001
1.319127e+003;1.275372e-001
1.321055e+003;1.249748e-001
1.322984e+003;1.226693e-001
1.324912e+003;1.210962e-001
1.326841e+003;1.202193e-001
1.328770e+003;1.201895e-001
1.330698e+003;1.207785e-001
1.332627e+003;1.214310e-001
1.334555e+003;1.216166e-001
1.336484e+003;1.213044e-001
1.338412e+003;1.203580e-001
1.340341e+003;1.189459e-001
1.342269e+003;1.169652e-001
1.344198e+003;1.146606e-001
1.346126e+003;1.126970e-001
1.348055e+003;1.115181e-001
1.349984e+003;1.108617e-001
1.351912e+003;1.109611e-001
1.353841e+003;1.121140e-001
1.355769e+003;1.132909e-001
1.357698e+003;1.140591e-001
1.359626e+003;1.144099e-001
1.361555e+003;1.141398e-001
1.363483e+003;1.131732e-001
1.365412e+003;1.124892e-001
1.367341e+003;1.123356e-001
1.369269e+003;1.120778e-001
1.371198e+003;1.111002e-001
1.373126e+003;1.092713e-001
1.375055e+003;1.069756e-001
1.376983e+003;1.044854e-001
1.378912e+003;1.020929e-001
1.380840e+003;9.999708e-002
1.382769e+003;9.800269e-002
1.384698e+003;9.615104e-002
1.386626e+003;9.436464e-002
1.388555e+003;9.311950e-002
1.390483e+003;9.264977e-002
1.392412e+003;9.228183e-002
1.394340e+003;9.184350e-002
1.396269e+003;9.190663e-002
1.398197e+003;9.195912e-002
1.400126e+003;9.207043e-002
1.402054e+003;9.259018e-002
1.403983e+003;9.316089e-002
1.405911e+003;9.337837e-002
1.407840e+003;9.375484e-002
1.409769e+003;9.425388e-002
1.411697e+003;9.481619e-002
1.413626e+003;9.570610e-002
1.415554e+003;9.669904e-002
1.417483e+003;9.770335e-002
1.419411e+003;9.903866e-002
1.421340e+003;1.007237e-001
1.423268e+003;1.021622e-001
1.425197e+003;1.030073e-001
1.427125e+003;1.034992e-001
1.429054e+003;1.035632e-001
1.430983e+003;1.028602e-001
1.432911e+003;1.015108e-001
1.434840e+003;1.000889e-001
1.436768e+003;9.871072e-002
1.438697e+003;9.755557e-002
1.440625e+003;9.634135e-002
1.442554e+003;9.550752e-002
1.444482e+003;9.497067e-002
1.446411e+003;9.426195e-002
1.448340e+003;9.367187e-002
1.450268e+003;9.337368e-002
1.452197e+003;9.279026e-002
1.454125e+003;9.179507e-002
1.456054e+003;9.070554e-002
1.457982e+003;8.937502e-002
1.459911e+003;8.797932e-002
1.461839e+003;8.663519e-002
1.463768e+003;8.511030e-002
1.465697e+003;8.356095e-002
1.467625e+003;8.211674e-002
1.469554e+003;8.059584e-002
1.471482e+003;7.897695e-002
1.473411e+003;7.734764e-002
1.475339e+003;7.566562e-002
1.477268e+003;7.426750e-002
1.479196e+003;7.327448e-002
1.481125e+003;7.234837e-002
1.483053e+003;7.078788e-002
1.484982e+003;6.848525e-002
1.486911e+003;6.632772e-002
1.488839e+003;6.442557e-002
1.490768e+003;6.270546e-002
1.492696e+003;6.160487e-002
1.494625e+003;6.085010e-002
1.496553e+003;6.012757e-002
1.498482e+003;5.946153e-002
1.500410e+003;5.911067e-002
1.502339e+003;5.889053e-002
1.504267e+003;5.838345e-002
1.506196e+003;5.787408e-002
1.508125e+003;5.783339e-002
1.510053e+003;5.767182e-002
1.511982e+003;5.738857e-002
1.513910e+003;5.726584e-002
1.515839e+003;5.692456e-002
1.517767e+003;5.643913e-002
1.519696e+003;5.620012e-002
1.521624e+003;5.607701e-002
1.523553e+003;5.619677e-002
1.525481e+003;5.604862e-002
1.527410e+003;5.566815e-002
1.529339e+003;5.566634e-002
1.531267e+003;5.586918e-002
1.533196e+003;5.559934e-002
1.535124e+003;5.535733e-002
1.537053e+003;5.530781e-002
1.538981e+003;5.486793e-002
1.540910e+003;5.469762e-002
1.542838e+003;5.522310e-002
1.544767e+003;5.538982e-002
1.546695e+003;5.528925e-002
1.548624e+003;5.529185e-002
1.550553e+003;5.539863e-002
1.552481e+003;5.544595e-002
1.554410e+003;5.527435e-002
1.556338e+003;5.538142e-002
1.558267e+003;5.552535e-002
1.560195e+003;5.553167e-002
1.562124e+003;5.580407e-002
1.564052e+003;5.604848e-002
1.565981e+003;5.625455e-002
1.567910e+003;5.661206e-002
1.569838e+003;5.688075e-002
1.571767e+003;5.706809e-002
1.573695e+003;5.727011e-002
1.575624e+003;5.755446e-002
1.577552e+003;5.826434e-002
1.579481e+003;5.898517e-002
1.581409e+003;5.925538e-002
1.583338e+003;5.983112e-002
1.585266e+003;6.057471e-002
1.587195e+003;6.109237e-002
1.589124e+003;6.171925e-002
1.591052e+003;6.220520e-002
1.592981e+003;6.288239e-002
1.594909e+003;6.369304e-002
1.596838e+003;6.416607e-002
1.598766e+003;6.471106e-002
1.600695e+003;6.552621e-002
1.602623e+003;6.654606e-002
1.604552e+003;6.737720e-002
1.606480e+003;6.775293e-002
1.608409e+003;6.802268e-002
1.610338e+003;6.863513e-002
1.612266e+003;6.915235e-002
1.614195e+003;6.948879e-002
1.616123e+003;6.964408e-002
1.618052e+003;7.008591e-002
1.619980e+003;7.070708e-002
1.621909e+003;7.094613e-002
1.623837e+003;7.091718e-002
1.625766e+003;7.123879e-002
1.627694e+003;7.139940e-002
1.629623e+003;7.152580e-002
1.631552e+003;7.178586e-002
1.633480e+003;7.174294e-002
1.635409e+003;7.162402e-002
1.637337e+003;7.157053e-002
1.639266e+003;7.147618e-002
1.641194e+003;7.133387e-002
1.643123e+003;7.139858e-002
1.645051e+003;7.115116e-002
1.646980e+003;7.060080e-002
1.648909e+003;7.022929e-002
1.650837e+003;6.953211e-002
1.652766e+003;6.868958e-002
1.654694e+003;6.852815e-002
1.656623e+003;6.813830e-002
1.658551e+003;6.743754e-002
1.660480e+003;6.683844e-002
1.662408e+003;6.632822e-002
1.664337e+003;6.591716e-002
1.666266e+003;6.506532e-002
1.668194e+003;6.380440e-002
1.670123e+003;6.295095e-002
1.672051e+003;6.238701e-002
1.673980e+003;6.149232e-002
1.675908e+003;6.059650e-002
1.677837e+003;6.013960e-002
1.679765e+003;5.963517e-002
1.681694e+003;5.879343e-002
1.683622e+003;5.762623e-002
1.685551e+003;5.650524e-002
1.687479e+003;5.594926e-002
1.689408e+003;5.529317e-002
1.691337e+003;5.458835e-002
1.693265e+003;5.390980e-002
1.695194e+003;5.292459e-002
1.697122e+003;5.225955e-002
1.699051e+003;5.177642e-002
1.700979e+003;5.143458e-002
1.702908e+003;5.120070e-002
1.704836e+003;5.059663e-002
1.706765e+003;5.001399e-002
1.708693e+003;4.939519e-002
1.710622e+003;4.903489e-002
1.712551e+003;4.893972e-002
1.714479e+003;4.872875e-002
1.716408e+003;4.846457e-002
1.718336e+003;4.838074e-002
1.720265e+003;4.847813e-002
1.722193e+003;4.835111e-002
1.724122e+003;4.812751e-002
1.726050e+003;4.808623e-002
1.727979e+003;4.807254e-002
1.729908e+003;4.824964e-002
1.731836e+003;4.816826e-002
1.733765e+003;4.787035e-002
1.735693e+003;4.766094e-002
1.737622e+003;4.710781e-002
1.739550e+003;4.645630e-002
1.741479e+003;4.604781e-002
1.743407e+003;4.570304e-002
1.745336e+003;4.537945e-002
1.747265e+003;4.453168e-002
1.749193e+003;4.379048e-002
1.751122e+003;4.351057e-002
1.753050e+003;4.315899e-002
1.754979e+003;4.262074e-002
1.756907e+003;4.232121e-002
1.758836e+003;4.224633e-002
1.760764e+003;4.202585e-002
1.762693e+003;4.149713e-002
1.764621e+003;4.115873e-002
1.766550e+003;4.105278e-002
1.768479e+003;4.082547e-002
1.770407e+003;4.063860e-002
1.772336e+003;4.052368e-002
1.774264e+003;4.057781e-002
1.776193e+003;4.044951e-002
1.778121e+003;3.998959e-002
1.780050e+003;3.965919e-002
1.781978e+003;3.974719e-002
1.783907e+003;3.995410e-002
1.785835e+003;3.969894e-002
1.787764e+003;3.918715e-002
1.789693e+003;3.899362e-002
1.791621e+003;3.901385e-002
1.793550e+003;3.921866e-002
1.795478e+003;3.938693e-002
1.797407e+003;3.912848e-002
1.799335e+003;3.884533e-002
1.801264e+003;3.871556e-002
1.803192e+003;3.864721e-002
1.805121e+003;3.855298e-002
1.807049e+003;3.845363e-002
1.808978e+003;3.846160e-002
1.810907e+003;3.858778e-002
1.812835e+003;3.855548e-002
1.814764e+003;3.833310e-002
1.816692e+003;3.800305e-002
1.818621e+003;3.800941e-002
1.820549e+003;3.832517e-002
1.822478e+003;3.826766e-002
1.824406e+003;3.799418e-002
1.826335e+003;3.797397e-002
1.828264e+003;3.791973e-002
1.830192e+003;3.788763e-002
1.832121e+003;3.796713e-002
1.834049e+003;3.781073e-002
1.835978e+003;3.752836e-002
1.837906e+003;3.747266e-002
1.839835e+003;3.750976e-002
1.841763e+003;3.731925e-002
1.843692e+003;3.713222e-002
1.845620e+003;3.723069e-002
1.847549e+003;3.713821e-002
1.849478e+003;3.690498e-002
1.851406e+003;3.678505e-002
1.853335e+003;3.657597e-002
1.855263e+003;3.632228e-002
1.857192e+003;3.623476e-002
1.859120e+003;3.624218e-002
1.861049e+003;3.613846e-002
1.862977e+003;3.614533e-002
1.864906e+003;3.641960e-002
1.866834e+003;3.649448e-002
1.868763e+003;3.639899e-002
1.870692e+003;3.652411e-002
1.872620e+003;3.643253e-002
1.874549e+003;3.621639e-002
1.876477e+003;3.596291e-002
1.878406e+003;3.576661e-002
1.880334e+003;3.578222e-002
1.882263e+003;3.582867e-002
1.884191e+003;3.589431e-002
1.886120e+003;3.613158e-002
1.888048e+003;3.605622e-002
1.889977e+003;3.574782e-002
1.891906e+003;3.571998e-002
1.893834e+003;3.599038e-002
1.895763e+003;3.605337e-002
1.897691e+003;3.580265e-002
1.899620e+003;3.563221e-002
1.901548e+003;3.557614e-002
1.903477e+003;3.576794e-002
1.905405e+003;3.604553e-002
1.907334e+003;3.614267e-002
1.909262e+003;3.596018e-002
1.911191e+003;3.578859e-002
1.913120e+003;3.589560e-002
1.915048e+003;3.597813e-002
1.916977e+003;3.600186e-002
1.918905e+003;3.604563e-002
1.920834e+003;3.617368e-002
1.922762e+003;3.614609e-002
1.924691e+003;3.625719e-002
1.926619e+003;3.648118e-002
1.928548e+003;3.661609e-002
1.930477e+003;3.667136e-002
1.932405e+003;3.675551e-002
1.934334e+003;3.676943e-002
1.936262e+003;3.656256e-002
1.938191e+003;3.650255e-002
1.940119e+003;3.671560e-002
1.942048e+003;3.694707e-002
1.943976e+003;3.709851e-002
1.945905e+003;3.719286e-002
1.947833e+003;3.733330e-002
1.949762e+003;3.742502e-002
1.951691e+003;3.730748e-002
1.953619e+003;3.727755e-002
1.955548e+003;3.743058e-002
1.957476e+003;3.741126e-002
1.959405e+003;3.742831e-002
1.961333e+003;3.763946e-002
1.963262e+003;3.790664e-002
1.965190e+003;3.787280e-002
1.967119e+003;3.770389e-002
1.969047e+003;3.771661e-002
1.970976e+003;3.755123e-002
1.972905e+003;3.769699e-002
1.974833e+003;3.790053e-002
1.976762e+003;3.791821e-002
1.978690e+003;3.803917e-002
1.980619e+003;3.809965e-002
1.982547e+003;3.807368e-002
1.984476e+003;3.808048e-002
1.986404e+003;3.817909e-002
1.988333e+003;3.825232e-002
1.990261e+003;3.824136e-002
1.992190e+003;3.831084e-002
1.994119e+003;3.839756e-002
1.996047e+003;3.841153e-002
1.997976e+003;3.840994e-002
1.999904e+003;3.846902e-002
2.001833e+003;3.844230e-002
2.003761e+003;3.866358e-002
2.005690e+003;3.894585e-002
2.007618e+003;3.892009e-002
2.009547e+003;3.877667e-002
2.011476e+003;3.878319e-002
2.013404e+003;3.910883e-002
2.015333e+003;3.927956e-002
2.017261e+003;3.913874e-002
2.019190e+003;3.918487e-002
2.021118e+003;3.935914e-002
2.023047e+003;3.947938e-002
2.024975e+003;3.978899e-002
2.026904e+003;4.023038e-002
2.028833e+003;4.018738e-002
2.030761e+003;3.997182e-002
2.032690e+003;3.994839e-002
2.034618e+003;4.002156e-002
2.036547e+003;4.021733e-002
2.038475e+003;4.047006e-002
2.040404e+003;4.064235e-002
2.042332e+003;4.054147e-002
2.044261e+003;4.045421e-002
2.046189e+003;4.058559e-002
2.048118e+003;4.072422e-002
2.050047e+003;4.065468e-002
2.051975e+003;4.045155e-002
2.053904e+003;4.044526e-002
2.055832e+003;4.057173e-002
2.057761e+003;4.063336e-002
2.059689e+003;4.066734e-002
2.061618e+003;4.067520e-002
2.063546e+003;4.057198e-002
2.065475e+003;4.042773e-002
2.067404e+003;4.046435e-002
2.069332e+003;4.029367e-002
2.071260e+003;4.010190e-002
2.073189e+003;4.022856e-002
2.075118e+003;4.034308e-002
2.077046e+003;4.027960e-002
2.078975e+003;4.029847e-002
2.080903e+003;4.041242e-002
2.082832e+003;4.027477e-002
2.084760e+003;4.027306e-002
2.086689e+003;4.046039e-002
2.088617e+003;4.028549e-002
2.090546e+003;4.020246e-002
2.092475e+003;4.057213e-002
2.094403e+003;4.090723e-002
2.096332e+003;4.090050e-002
2.098260e+003;4.061349e-002
2.100189e+003;4.057504e-002
2.102117e+003;4.073703e-002
2.104046e+003;4.076141e-002
2.105974e+003;4.059880e-002
2.107903e+003;4.058570e-002
2.109832e+003;4.102492e-002
2.111760e+003;4.116500e-002
2.113688e+003;4.075326e-002
2.115617e+003;4.074740e-002
2.117546e+003;4.109484e-002
2.119474e+003;4.113910e-002
2.121403e+003;4.128242e-002
2.123331e+003;4.128242e-002
2.125260e+003;4.115188e-002
2.127188e+003;4.128257e-002
2.129117e+003;4.161308e-002
2.131045e+003;4.172286e-002
2.132974e+003;4.164791e-002
2.134903e+003;4.178425e-002
2.136831e+003;4.171002e-002
2.138760e+003;4.156855e-002
2.140688e+003;4.146283e-002
2.142617e+003;4.144668e-002
2.144545e+003;4.164772e-002
2.146474e+003;4.165877e-002
2.148402e+003;4.131445e-002
2.150331e+003;4.115625e-002
2.152260e+003;4.106010e-002
2.154188e+003;4.088295e-002
2.156117e+003;4.088230e-002
2.158045e+003;4.073878e-002
2.159974e+003;4.039035e-002
2.161902e+003;4.028774e-002
2.163831e+003;4.044879e-002
2.165759e+003;4.033552e-002
2.167688e+003;4.006611e-002
2.169616e+003;4.011873e-002
2.171545e+003;4.014482e-002
2.173474e+003;3.958103e-002
2.175402e+003;3.931866e-002
2.177331e+003;3.923680e-002
2.179259e+003;3.889012e-002
2.181188e+003;3.860914e-002
2.183116e+003;3.873697e-002
2.185045e+003;3.875895e-002
2.186973e+003;3.851043e-002
2.188902e+003;3.845823e-002
2.190831e+003;3.843122e-002
2.192759e+003;3.832390e-002
2.194688e+003;3.822949e-002
2.196616e+003;3.806203e-002
2.198545e+003;3.821310e-002
2.200473e+003;3.827056e-002
2.202402e+003;3.812588e-002
2.204330e+003;3.794088e-002
2.206259e+003;3.781991e-002
2.208188e+003;3.775962e-002
2.210116e+003;3.765767e-002
2.212044e+003;3.771343e-002
2.213973e+003;3.773298e-002
2.215902e+003;3.773768e-002
2.217830e+003;3.775156e-002
2.219759e+003;3.779266e-002
2.221687e+003;3.797744e-002
2.223616e+003;3.804004e-002
2.225544e+003;3.808858e-002
2.227473e+003;3.785946e-002
2.229401e+003;3.771365e-002
2.231330e+003;3.780856e-002
2.233259e+003;3.782852e-002
2.235187e+003;3.778966e-002
2.237116e+003;3.813705e-002
2.239044e+003;3.843991e-002
2.240973e+003;3.803639e-002
2.242901e+003;3.760907e-002
2.244830e+003;3.752327e-002
2.246758e+003;3.752970e-002
2.248687e+003;3.739306e-002
2.250615e+003;3.719474e-002
2.252544e+003;3.740061e-002
2.254473e+003;3.771329e-002
2.256401e+003;3.764036e-002
2.258330e+003;3.746475e-002
2.260258e+003;3.735659e-002
2.262187e+003;3.732311e-002
2.264115e+003;3.723906e-002
2.266044e+003;3.695389e-002
2.267972e+003;3.669425e-002
2.269901e+003;3.650623e-002
2.271830e+003;3.644907e-002
2.273758e+003;3.660091e-002
2.275687e+003;3.679006e-002
2.277615e+003;3.663848e-002
2.279544e+003;3.625708e-002
2.281472e+003;3.620068e-002
2.283401e+003;3.626076e-002
2.285329e+003;3.632895e-002
2.287258e+003;3.634534e-002
2.289187e+003;3.630078e-002
2.291115e+003;3.642435e-002
2.293043e+003;3.644450e-002
2.294972e+003;3.637701e-002
2.296901e+003;3.623547e-002
2.298829e+003;3.609006e-002
2.300758e+003;3.611916e-002
2.302686e+003;3.612067e-002
2.304615e+003;3.612697e-002
2.306543e+003;3.609917e-002
2.308472e+003;3.616381e-002
2.310400e+003;3.637215e-002
2.312329e+003;3.637359e-002
2.314258e+003;3.611048e-002
2.316186e+003;3.600017e-002
2.318115e+003;3.610936e-002
2.320043e+003;3.636761e-002
2.321972e+003;3.626134e-002
2.323900e+003;3.600045e-002
2.325829e+003;3.580248e-002
2.327757e+003;3.581244e-002
2.329686e+003;3.619391e-002
2.331615e+003;3.643113e-002
2.333543e+003;3.623508e-002
2.335472e+003;3.628580e-002
2.337400e+003;3.680164e-002
2.339329e+003;3.694798e-002
2.341257e+003;3.676626e-002
2.343186e+003;3.670290e-002
2.345114e+003;3.673265e-002
2.347043e+003;3.694769e-002
2.348971e+003;3.722307e-002
2.350900e+003;3.765287e-002
2.352829e+003;3.784927e-002
2.354757e+003;3.767860e-002
2.356686e+003;3.745056e-002
2.358614e+003;3.750011e-002
2.360543e+003;3.774451e-002
2.362471e+003;3.804981e-002
2.364400e+003;3.791456e-002
2.366328e+003;3.776396e-002
2.368257e+003;3.769330e-002
2.370186e+003;3.784677e-002
2.372114e+003;3.827899e-002
2.374042e+003;3.836766e-002
2.375971e+003;3.835618e-002
2.377900e+003;3.861787e-002
2.379828e+003;3.885460e-002
2.381757e+003;3.903694e-002
2.383685e+003;3.921388e-002
2.385614e+003;3.926092e-002
2.387542e+003;3.910901e-002
2.389471e+003;3.907809e-002
2.391399e+003;3.924782e-002
2.393328e+003;3.913468e-002
2.395257e+003;3.904709e-002
2.397185e+003;3.910883e-002
2.399114e+003;3.925889e-002
2.401042e+003;3.939633e-002
2.402971e+003;3.952003e-002
2.404899e+003;3.942793e-002
2.406828e+003;3.933915e-002
2.408756e+003;3.958960e-002
2.410685e+003;3.977609e-002
2.412614e+003;3.989438e-002
2.414542e+003;4.018702e-002
2.416471e+003;4.062554e-002
2.418399e+003;4.074682e-002
2.420328e+003;4.061637e-002
2.422256e+003;4.067459e-002
2.424185e+003;4.088008e-002
2.426113e+003;4.089074e-002
2.428042e+003;4.108330e-002
2.429970e+003;4.130425e-002
2.431899e+003;4.134393e-002
2.433828e+003;4.137302e-002
2.435756e+003;4.150216e-002
2.437685e+003;4.156885e-002
2.439613e+003;4.164029e-002
2.441542e+003;4.182894e-002
2.443470e+003;4.213106e-002
2.445399e+003;4.222172e-002
2.447327e+003;4.227372e-002
2.449256e+003;4.238421e-002
2.451185e+003;4.257005e-002
2.453113e+003;4.278196e-002
2.455042e+003;4.289430e-002
2.456970e+003;4.285587e-002
2.458899e+003;4.273370e-002
2.460827e+003;4.288435e-002
2.462756e+003;4.323402e-002
2.464684e+003;4.357507e-002
2.466613e+003;4.370132e-002
2.468542e+003;4.360437e-002
2.470470e+003;4.356119e-002
2.472398e+003;4.354163e-002
2.474327e+003;4.382727e-002
2.476256e+003;4.424344e-002
2.478184e+003;4.441983e-002
2.480113e+003;4.429286e-002
2.482041e+003;4.425511e-002
2.483970e+003;4.451105e-002
2.485898e+003;4.476802e-002
2.487827e+003;4.470576e-002
2.489755e+003;4.481512e-002
2.491684e+003;4.486640e-002
2.493613e+003;4.491523e-002
2.495541e+003;4.522491e-002
2.497470e+003;4.532093e-002
2.499398e+003;4.538195e-002
2.501327e+003;4.542889e-002
2.503255e+003;4.549743e-002
2.505184e+003;4.562568e-002
2.507112e+003;4.586648e-002
2.509041e+003;4.621200e-002
2.510969e+003;4.619036e-002
2.512898e+003;4.622328e-002
2.514827e+003;4.678837e-002
2.516755e+003;4.710855e-002
2.518684e+003;4.720794e-002
2.520612e+003;4.708532e-002
2.522541e+003;4.692512e-002
2.524469e+003;4.675940e-002
2.526398e+003;4.664444e-002
2.528326e+003;4.666159e-002
2.530255e+003;4.691482e-002
2.532184e+003;4.716613e-002
2.534112e+003;4.693084e-002
2.536041e+003;4.688548e-002
2.537969e+003;4.721359e-002
2.539898e+003;4.740295e-002
2.541826e+003;4.736167e-002
2.543755e+003;4.732417e-002
2.545683e+003;4.745447e-002
2.547612e+003;4.746567e-002
2.549541e+003;4.741703e-002
2.551469e+003;4.749642e-002
2.553397e+003;4.759664e-002
2.555326e+003;4.771078e-002
2.557255e+003;4.772206e-002
2.559183e+003;4.766134e-002
2.561112e+003;4.791789e-002
2.563040e+003;4.787017e-002
2.564969e+003;4.749453e-002
2.566897e+003;4.732099e-002
2.568826e+003;4.737275e-002
2.570754e+003;4.762895e-002
2.572683e+003;4.785877e-002
2.574612e+003;4.790406e-002
2.576540e+003;4.790361e-002
2.578469e+003;4.805725e-002
2.580397e+003;4.799242e-002
2.582326e+003;4.799649e-002
2.584254e+003;4.830112e-002
2.586183e+003;4.842111e-002
2.588111e+003;4.826812e-002
2.590040e+003;4.829145e-002
2.591969e+003;4.848706e-002
2.593897e+003;4.858954e-002
2.595826e+003;4.880819e-002
2.597754e+003;4.907614e-002
2.599683e+003;4.890137e-002
2.601611e+003;4.893267e-002
2.603540e+003;4.930205e-002
2.605468e+003;4.956470e-002
2.607397e+003;4.970314e-002
2.609325e+003;4.985055e-002
2.611254e+003;4.982502e-002
2.613183e+003;4.957874e-002
2.615111e+003;4.973097e-002
2.617040e+003;4.997819e-002
2.618968e+003;5.004741e-002
2.620897e+003;5.027286e-002
2.622825e+003;5.061472e-002
2.624754e+003;5.081961e-002
2.626682e+003;5.087481e-002
2.628611e+003;5.093081e-002
2.630540e+003;5.092093e-002
2.632468e+003;5.098788e-002
2.634396e+003;5.142377e-002
2.636325e+003;5.192506e-002
2.638254e+003;5.214330e-002
2.640182e+003;5.214812e-002
2.642111e+003;5.203912e-002
2.644039e+003;5.206403e-002
2.645968e+003;5.240558e-002
2.647896e+003;5.271399e-002
2.649825e+003;5.291467e-002
2.651753e+003;5.302045e-002
2.653682e+003;5.311967e-002
2.655611e+003;5.301888e-002
2.657539e+003;5.312607e-002
2.659468e+003;5.354207e-002
2.661396e+003;5.391513e-002
2.663325e+003;5.423310e-002
2.665253e+003;5.419035e-002
2.667182e+003;5.413926e-002
2.669110e+003;5.418362e-002
2.671039e+003;5.411959e-002
2.672968e+003;5.419654e-002
2.674896e+003;5.447580e-002
2.676825e+003;5.505866e-002
2.678753e+003;5.543111e-002
2.680682e+003;5.539208e-002
2.682610e+003;5.553149e-002
2.684539e+003;5.553333e-002
2.686467e+003;5.572951e-002
2.688396e+003;5.618874e-002
2.690324e+003;5.649268e-002
2.692253e+003;5.655189e-002
2.694182e+003;5.645007e-002
2.696110e+003;5.650377e-002
2.698039e+003;5.673313e-002
2.699967e+003;5.694451e-002
2.701896e+003;5.737628e-002
2.703824e+003;5.753066e-002
2.705753e+003;5.758616e-002
2.707681e+003;5.750354e-002
2.709610e+003;5.738736e-002
2.711539e+003;5.799763e-002
2.713467e+003;5.841392e-002
2.715396e+003;5.836097e-002
2.717324e+003;5.839235e-002
2.719253e+003;5.892066e-002
2.721181e+003;5.915406e-002
2.723110e+003;5.898965e-002
2.725038e+003;5.907638e-002
2.726967e+003;5.939633e-002
2.728896e+003;5.950975e-002
2.730824e+003;5.961917e-002
2.732752e+003;5.986672e-002
2.734681e+003;5.985219e-002
2.736610e+003;6.004832e-002
2.738538e+003;6.037766e-002
2.740467e+003;6.040466e-002
2.742395e+003;6.009622e-002
2.744324e+003;5.987969e-002
2.746252e+003;5.991437e-002
2.748181e+003;5.993917e-002
2.750109e+003;6.010977e-002
2.752038e+003;6.047728e-002
2.753967e+003;6.077441e-002
2.755895e+003;6.099665e-002
2.757824e+003;6.120256e-002
2.759752e+003;6.116095e-002
2.761681e+003;6.073729e-002
2.763609e+003;6.082582e-002
2.765538e+003;6.135381e-002
2.767466e+003;6.130962e-002
2.769395e+003;6.128734e-002
2.771323e+003;6.171398e-002
2.773252e+003;6.204088e-002
2.775181e+003;6.212961e-002
2.777109e+003;6.236991e-002
2.779038e+003;6.257693e-002
2.780966e+003;6.276564e-002
2.782895e+003;6.340507e-002
2.784823e+003;6.386343e-002
2.786752e+003;6.381138e-002
2.788680e+003;6.350700e-002
2.790609e+003;6.344043e-002
2.792538e+003;6.393452e-002
2.794466e+003;6.413930e-002
2.796395e+003;6.433764e-002
2.798323e+003;6.467102e-002
2.800252e+003;6.476840e-002
2.802180e+003;6.517415e-002
2.804109e+003;6.582947e-002
2.806037e+003;6.626511e-002
2.807966e+003;6.667469e-002
2.809895e+003;6.710406e-002
2.811823e+003;6.764076e-002
2.813751e+003;6.798258e-002
2.815680e+003;6.837668e-002
2.817609e+003;6.922672e-002
2.819537e+003;6.983398e-002
2.821466e+003;6.993649e-002
2.823394e+003;7.004016e-002
2.825323e+003;7.034608e-002
2.827251e+003;7.095109e-002
2.829180e+003;7.130700e-002
2.831108e+003;7.168651e-002
2.833037e+003;7.252434e-002
2.834966e+003;7.366453e-002
2.836894e+003;7.415728e-002
2.838823e+003;7.478596e-002
2.840751e+003;7.635739e-002
2.842680e+003;7.758713e-002
2.844608e+003;7.859023e-002
2.846537e+003;7.959554e-002
2.848465e+003;8.077937e-002
2.850394e+003;8.214059e-002
2.852323e+003;8.326232e-002
2.854251e+003;8.359072e-002
2.856180e+003;8.389902e-002
2.858108e+003;8.452366e-002
2.860037e+003;8.532515e-002
2.861965e+003;8.582865e-002
2.863894e+003;8.617645e-002
2.865822e+003;8.714089e-002
2.867751e+003;8.802469e-002
2.869679e+003;8.819439e-002
2.871608e+003;8.842169e-002
2.873536e+003;8.883011e-002
2.875465e+003;8.902424e-002
2.877394e+003;8.938307e-002
2.879322e+003;9.006560e-002
2.881251e+003;9.081417e-002
2.883179e+003;9.115127e-002
2.885108e+003;9.135805e-002
2.887036e+003;9.182954e-002
2.888965e+003;9.221344e-002
2.890893e+003;9.246139e-002
2.892822e+003;9.263689e-002
2.894750e+003;9.306153e-002
2.896679e+003;9.330858e-002
2.898608e+003;9.335215e-002
2.900536e+003;9.324606e-002
2.902465e+003;9.334628e-002
2.904393e+003;9.308214e-002
2.906322e+003;9.254667e-002
2.908250e+003;9.188809e-002
2.910179e+003;9.145416e-002
2.912107e+003;9.143125e-002
2.914036e+003;9.130669e-002
2.915965e+003;9.087793e-002
2.917893e+003;9.031514e-002
2.919822e+003;8.923819e-002
2.921750e+003;8.813199e-002
2.923679e+003;8.727723e-002
2.925607e+003;8.574565e-002
2.927536e+003;8.437773e-002
2.929464e+003;8.358987e-002
2.931393e+003;8.305775e-002
2.933322e+003;8.280656e-002
2.935250e+003;8.225442e-002
2.937178e+003;8.135279e-002
2.939107e+003;8.113514e-002
2.941036e+003;8.107515e-002
2.942964e+003;8.003192e-002
2.944893e+003;7.902381e-002
2.946821e+003;7.866631e-002
2.948750e+003;7.835416e-002
2.950678e+003;7.759897e-002
2.952607e+003;7.644399e-002
2.954535e+003;7.512952e-002
2.956464e+003;7.442297e-002
2.958393e+003;7.427564e-002
2.960321e+003;7.334089e-002
2.962250e+003;7.207268e-002
2.964178e+003;7.146978e-002
2.966107e+003;7.158768e-002
2.968035e+003;7.121096e-002
2.969964e+003;7.047132e-002
2.971892e+003;7.011515e-002
2.973821e+003;6.942390e-002
2.975750e+003;6.822486e-002
2.977678e+003;6.715732e-002
2.979607e+003;6.634548e-002
2.981535e+003;6.572226e-002
2.983464e+003;6.507572e-002
2.985392e+003;6.424082e-002
2.987321e+003;6.355590e-002
2.989249e+003;6.341051e-002
2.991178e+003;6.324778e-002
2.993106e+003;6.272081e-002
2.995035e+003;6.273655e-002
2.996964e+003;6.298347e-002
2.998892e+003;6.280348e-002
3.000821e+003;6.247580e-002
3.002749e+003;6.240893e-002
3.004678e+003;6.232734e-002
3.006606e+003;6.215993e-002
3.008535e+003;6.210070e-002
3.010463e+003;6.227425e-002
3.012392e+003;6.243207e-002
3.014321e+003;6.234673e-002
3.016249e+003;6.234210e-002
3.018177e+003;6.238961e-002
3.020106e+003;6.240373e-002
3.022035e+003;6.260055e-002
3.023963e+003;6.304055e-002
3.025892e+003;6.298424e-002
3.027820e+003;6.310929e-002
3.029749e+003;6.378448e-002
3.031677e+003;6.435950e-002
3.033606e+003;6.468102e-002
3.035534e+003;6.469156e-002
3.037463e+003;6.489104e-002
3.039392e+003;6.508634e-002
3.041320e+003;6.518943e-002
3.043249e+003;6.565307e-002
3.045177e+003;6.610061e-002
3.047106e+003;6.625944e-002
3.049034e+003;6.651301e-002
3.050963e+003;6.697006e-002
3.052891e+003;6.688641e-002
3.054820e+003;6.653247e-002
3.056749e+003;6.719418e-002
3.058677e+003;6.788099e-002
3.060606e+003;6.818645e-002
3.062534e+003;6.826755e-002
3.064463e+003;6.849933e-002
3.066391e+003;6.874423e-002
3.068320e+003;6.899106e-002
3.070248e+003;6.925175e-002
3.072177e+003;6.960717e-002
3.074105e+003;7.026474e-002
3.076034e+003;7.063542e-002
3.077963e+003;7.071231e-002
3.079891e+003;7.115854e-002
3.081820e+003;7.180060e-002
3.083748e+003;7.191444e-002
3.085677e+003;7.214016e-002
3.087605e+003;7.256895e-002
3.089534e+003;7.316772e-002
3.091462e+003;7.364380e-002
3.093391e+003;7.403710e-002
3.095320e+003;7.419375e-002
3.097248e+003;7.426883e-002
3.099177e+003;7.482567e-002
3.101105e+003;7.531068e-002
3.103034e+003;7.532057e-002
3.104962e+003;7.559127e-002
3.106891e+003;7.606374e-002
3.108819e+003;7.649635e-002
3.110748e+003;7.666476e-002
3.112677e+003;7.679752e-002
3.114605e+003;7.747618e-002
3.116533e+003;7.805892e-002
3.118462e+003;7.805686e-002
3.120391e+003;7.822298e-002
3.122319e+003;7.850102e-002
3.124248e+003;7.879549e-002
3.126176e+003;7.911018e-002
3.128105e+003;7.948368e-002
3.130033e+003;7.967873e-002
3.131962e+003;8.008849e-002
3.133890e+003;8.086970e-002
3.135819e+003;8.177989e-002
3.137748e+003;8.231185e-002
3.139676e+003;8.239111e-002
3.141605e+003;8.259088e-002
3.143533e+003;8.308434e-002
3.145462e+003;8.348079e-002
3.147390e+003;8.377255e-002
3.149319e+003;8.406775e-002
3.151247e+003;8.435471e-002
3.153176e+003;8.459467e-002
3.155104e+003;8.513957e-002
3.157033e+003;8.588372e-002
3.158962e+003;8.641864e-002
3.160890e+003;8.688066e-002
3.162819e+003;8.735169e-002
3.164747e+003;8.733224e-002
3.166676e+003;8.762639e-002
3.168604e+003;8.828593e-002
3.170533e+003;8.821249e-002
3.172461e+003;8.869276e-002
3.174390e+003;8.955742e-002
3.176319e+003;8.992244e-002
3.178247e+003;9.053238e-002
3.180176e+003;9.157225e-002
3.182104e+003;9.246111e-002
3.184033e+003;9.272163e-002
3.185961e+003;9.322286e-002
3.187890e+003;9.387694e-002
3.189818e+003;9.418914e-002
3.191747e+003;9.410699e-002
3.193676e+003;9.410967e-002
3.195604e+003;9.459079e-002
3.197532e+003;9.500860e-002
3.199461e+003;9.514178e-002
3.201390e+003;9.577083e-002
3.203318e+003;9.716012e-002
3.205247e+003;9.813285e-002
3.207175e+003;9.842805e-002
3.209104e+003;9.829088e-002
3.211032e+003;9.871846e-002
3.212961e+003;1.002058e-001
3.214889e+003;1.009153e-001
3.216818e+003;1.011761e-001
3.218747e+003;1.013296e-001
3.220675e+003;1.014629e-001
3.222604e+003;1.021667e-001
3.224532e+003;1.030226e-001
3.226461e+003;1.031352e-001
3.228389e+003;1.040782e-001
3.230318e+003;1.051456e-001
3.232246e+003;1.052464e-001
3.234175e+003;1.056500e-001
3.236104e+003;1.068548e-001
3.238032e+003;1.078758e-001
3.239961e+003;1.084907e-001
3.241889e+003;1.090879e-001
3.243818e+003;1.097558e-001
3.245746e+003;1.103391e-001
3.247675e+003;1.113119e-001
3.249603e+003;1.121526e-001
3.251532e+003;1.126973e-001
3.253460e+003;1.135091e-001
3.255389e+003;1.147442e-001
3.257318e+003;1.158301e-001
3.259246e+003;1.163848e-001
3.261175e+003;1.171063e-001
3.263103e+003;1.175819e-001
3.265032e+003;1.184001e-001
3.266960e+003;1.185608e-001
3.268889e+003;1.186022e-001
3.270817e+003;1.194347e-001
3.272746e+003;1.198226e-001
3.274675e+003;1.201627e-001
3.276603e+003;1.209216e-001
3.278531e+003;1.215041e-001
3.280460e+003;1.218883e-001
3.282389e+003;1.223310e-001
3.284317e+003;1.232200e-001
3.286246e+003;1.233461e-001
3.288174e+003;1.227976e-001
3.290103e+003;1.225108e-001
3.292031e+003;1.226104e-001
3.293960e+003;1.235945e-001
3.295888e+003;1.240332e-001
3.297817e+003;1.234504e-001
3.299746e+003;1.224310e-001
3.301674e+003;1.225123e-001
3.303603e+003;1.231473e-001
3.305531e+003;1.235655e-001
3.307460e+003;1.238313e-001
3.309388e+003;1.238552e-001
3.311317e+003;1.238590e-001
3.313245e+003;1.234741e-001
3.315174e+003;1.233509e-001
3.317103e+003;1.238249e-001
3.319031e+003;1.248058e-001
3.320960e+003;1.253845e-001
3.322888e+003;1.256914e-001
3.324817e+003;1.261192e-001
3.326745e+003;1.262478e-001
3.328674e+003;1.266177e-001
3.330602e+003;1.269297e-001
3.332531e+003;1.268295e-001
3.334459e+003;1.268195e-001
3.336388e+003;1.264967e-001
3.338317e+003;1.261557e-001
3.340245e+003;1.264601e-001
3.342174e+003;1.264062e-001
3.344102e+003;1.256972e-001
3.346031e+003;1.255792e-001
3.347959e+003;1.250980e-001
3.349888e+003;1.241521e-001
3.351816e+003;1.228306e-001
3.353745e+003;1.223872e-001
3.355674e+003;1.220764e-001
3.357602e+003;1.212095e-001
3.359531e+003;1.207937e-001
3.361459e+003;1.203195e-001
3.363388e+003;1.190852e-001
3.365316e+003;1.184962e-001
3.367245e+003;1.185843e-001
3.369173e+003;1.183140e-001
3.371102e+003;1.175722e-001
3.373031e+003;1.169596e-001
3.374959e+003;1.165154e-001
3.376887e+003;1.164340e-001
3.378816e+003;1.161337e-001
3.380745e+003;1.154037e-001
3.382673e+003;1.146124e-001
3.384602e+003;1.137157e-001
3.386530e+003;1.129194e-001
3.388459e+003;1.125546e-001
3.390387e+003;1.123772e-001
3.392316e+003;1.123614e-001
3.394244e+003;1.121059e-001
3.396173e+003;1.115827e-001
3.398102e+003;1.104566e-001
3.400030e+003;1.093079e-001
3.401959e+003;1.089297e-001
3.403887e+003;1.085883e-001
3.405816e+003;1.083105e-001
3.407744e+003;1.078623e-001
3.409673e+003;1.073363e-001
3.411601e+003;1.068992e-001
3.413530e+003;1.064168e-001
3.415458e+003;1.056295e-001
3.417387e+003;1.045566e-001
3.419316e+003;1.038512e-001
3.421244e+003;1.032148e-001
3.423173e+003;1.024147e-001
3.425101e+003;1.019133e-001
3.427030e+003;1.011140e-001
3.428958e+003;1.005706e-001
3.430887e+003;1.002784e-001
3.432815e+003;9.931086e-002
3.434744e+003;9.803479e-002
3.436673e+003;9.741431e-002
3.438601e+003;9.699074e-002
3.440530e+003;9.659701e-002
3.442458e+003;9.616712e-002
3.444387e+003;9.558085e-002
3.446315e+003;9.469672e-002
3.448244e+003;9.412494e-002
3.450172e+003;9.379452e-002
3.452101e+003;9.302479e-002
3.454030e+003;9.220742e-002
3.455958e+003;9.183208e-002
3.457886e+003;9.154321e-002
3.459815e+003;9.084749e-002
3.461744e+003;9.003931e-002
3.463672e+003;8.913440e-002
3.465601e+003;8.809173e-002
3.467529e+003;8.684342e-002
3.469458e+003;8.635363e-002
3.471386e+003;8.624454e-002
3.473315e+003;8.623735e-002
3.475243e+003;8.618595e-002
3.477172e+003;8.502982e-002
3.479101e+003;8.345264e-002
3.481029e+003;8.257056e-002
3.482958e+003;8.171381e-002
3.484886e+003;8.101948e-002
3.486815e+003;8.041011e-002
3.488743e+003;8.022808e-002
3.490672e+003;7.983284e-002
3.492600e+003;7.929119e-002
3.494529e+003;7.846752e-002
3.496458e+003;7.746358e-002
3.498386e+003;7.716286e-002
3.500315e+003;7.673968e-002
3.502243e+003;7.561076e-002
3.504172e+003;7.480352e-002
3.506100e+003;7.443245e-002
3.508029e+003;7.379945e-002
3.509957e+003;7.353182e-002
3.511886e+003;7.335716e-002
3.513814e+003;7.239808e-002
3.515743e+003;7.181115e-002
3.517672e+003;7.118414e-002
3.519600e+003;7.066840e-002
3.521529e+003;7.040901e-002
3.523457e+003;6.997363e-002
3.525386e+003;6.923302e-002
3.527314e+003;6.809473e-002
3.529243e+003;6.750701e-002
3.531171e+003;6.705771e-002
3.533100e+003;6.626496e-002
3.535029e+003;6.570818e-002
3.536957e+003;6.540659e-002
3.538885e+003;6.509303e-002
3.540814e+003;6.453980e-002
3.542743e+003;6.382723e-002
3.544671e+003;6.329478e-002
3.546600e+003;6.264770e-002
3.548528e+003;6.175198e-002
3.550457e+003;6.140289e-002
3.552385e+003;6.111998e-002
3.554314e+003;6.020243e-002
3.556242e+003;5.953962e-002
3.558171e+003;5.925454e-002
3.560100e+003;5.858869e-002
3.562028e+003;5.769165e-002
3.563957e+003;5.699415e-002
3.565885e+003;5.642181e-002
3.567814e+003;5.649728e-002
3.569742e+003;5.622249e-002
3.571671e+003;5.509041e-002
3.573599e+003;5.402986e-002
3.575528e+003;5.369982e-002
3.577457e+003;5.350875e-002
3.579385e+003;5.311903e-002
3.581314e+003;5.225002e-002
3.583242e+003;5.157448e-002
3.585171e+003;5.157206e-002
3.587099e+003;5.137446e-002
3.589028e+003;5.058807e-002
3.590956e+003;4.961362e-002
3.592885e+003;4.856953e-002
3.594813e+003;4.810859e-002
3.596742e+003;4.821236e-002
3.598671e+003;4.809438e-002
3.600599e+003;4.719948e-002
3.602528e+003;4.637234e-002
3.604456e+003;4.566443e-002
3.606385e+003;4.517719e-002
3.608313e+003;4.498630e-002
3.610242e+003;4.429616e-002
3.612170e+003;4.300755e-002
3.614099e+003;4.268270e-002
3.616028e+003;4.214033e-002
3.617956e+003;4.114700e-002
3.619885e+003;4.077270e-002
3.621813e+003;4.055380e-002
3.623742e+003;4.009699e-002
3.625670e+003;3.919513e-002
3.627599e+003;3.785378e-002
3.629527e+003;3.706989e-002
3.631456e+003;3.669375e-002
3.633385e+003;3.626040e-002
3.635313e+003;3.583148e-002
3.637241e+003;3.541200e-002
3.639170e+003;3.466631e-002
3.641099e+003;3.418242e-002
3.643027e+003;3.418568e-002
3.644956e+003;3.391824e-002
3.646884e+003;3.298591e-002
3.648813e+003;3.213121e-002
3.650741e+003;3.178876e-002
3.652670e+003;3.185023e-002
3.654598e+003;3.116829e-002
3.656527e+003;2.988572e-002
3.658456e+003;2.952886e-002
3.660384e+003;2.923379e-002
3.662313e+003;2.915061e-002
3.664241e+003;2.902658e-002
3.666170e+003;2.828320e-002
3.668098e+003;2.769546e-002
3.670027e+003;2.760058e-002
3.671955e+003;2.761583e-002
3.673884e+003;2.724171e-002
3.675813e+003;2.654537e-002
3.677741e+003;2.667462e-002
3.679669e+003;2.672117e-002
3.681598e+003;2.631589e-002
3.683527e+003;2.615915e-002
3.685455e+003;2.603917e-002
3.687384e+003;2.517341e-002
3.689312e+003;2.470727e-002
3.691241e+003;2.521263e-002
3.693169e+003;2.541223e-002
3.695098e+003;2.539182e-002
3.697026e+003;2.554740e-002
3.698955e+003;2.542589e-002
3.700884e+003;2.456756e-002
3.702812e+003;2.434970e-002
3.704741e+003;2.397793e-002
3.706669e+003;2.365763e-002
3.708598e+003;2.404814e-002
3.710526e+003;2.400976e-002
3.712455e+003;2.350661e-002
3.714383e+003;2.317403e-002
3.716312e+003;2.317473e-002
3.718240e+003;2.319728e-002
3.720169e+003;2.388246e-002
3.722098e+003;2.419150e-002
3.724026e+003;2.345446e-002
3.725955e+003;2.321615e-002
3.727883e+003;2.355813e-002
3.729812e+003;2.345642e-002
3.731740e+003;2.329561e-002
3.733669e+003;2.311344e-002
3.735597e+003;2.325621e-002
3.737526e+003;2.314856e-002
3.739455e+003;2.257411e-002
3.741383e+003;2.249161e-002
3.743312e+003;2.272956e-002
3.745240e+003;2.272041e-002
3.747169e+003;2.242444e-002
3.749097e+003;2.175277e-002
3.751026e+003;2.201119e-002
3.752954e+003;2.287493e-002
3.754883e+003;2.336350e-002
3.756812e+003;2.274352e-002
3.758740e+003;2.197951e-002
3.760668e+003;2.178587e-002
3.762597e+003;2.185430e-002
3.764526e+003;2.248313e-002
3.766454e+003;2.235275e-002
3.768383e+003;2.180740e-002
3.770311e+003;2.194650e-002
3.772240e+003;2.253066e-002
3.774168e+003;2.309582e-002
3.776097e+003;2.282963e-002
3.778025e+003;2.255795e-002
3.779954e+003;2.312553e-002
3.781883e+003;2.385214e-002
3.783811e+003;2.405669e-002
3.785740e+003;2.386072e-002
3.787668e+003;2.347149e-002
3.789597e+003;2.344988e-002
3.791525e+003;2.335218e-002
3.793454e+003;2.298332e-002
3.795382e+003;2.342410e-002
3.797311e+003;2.376313e-002
3.799240e+003;2.325268e-002
3.801168e+003;2.286515e-002
3.803097e+003;2.275854e-002
3.805025e+003;2.309163e-002
3.806954e+003;2.296774e-002
3.808882e+003;2.289487e-002
3.810811e+003;2.290158e-002
3.812739e+003;2.314814e-002
3.814668e+003;2.351853e-002
3.816596e+003;2.341826e-002
3.818525e+003;2.278891e-002
3.820454e+003;2.274220e-002
3.822382e+003;2.298157e-002
3.824311e+003;2.275431e-002
3.826239e+003;2.296375e-002
3.828168e+003;2.337267e-002
3.830096e+003;2.362373e-002
3.832025e+003;2.349800e-002
3.833953e+003;2.325673e-002
3.835882e+003;2.323852e-002
3.837811e+003;2.361099e-002
3.839739e+003;2.419564e-002
3.841667e+003;2.384209e-002
3.843596e+003;2.319249e-002
3.845525e+003;2.322321e-002
3.847453e+003;2.363352e-002
3.849382e+003;2.412001e-002
3.851310e+003;2.421988e-002
3.853239e+003;2.404016e-002
3.855167e+003;2.398535e-002
3.857096e+003;2.353060e-002
3.859024e+003;2.365546e-002
3.860953e+003;2.484355e-002
3.862882e+003;2.497030e-002
3.864810e+003;2.461960e-002
3.866739e+003;2.459915e-002
3.868667e+003;2.421473e-002
3.870596e+003;2.392454e-002
3.872524e+003;2.416162e-002
3.874453e+003;2.427744e-002
3.876381e+003;2.469580e-002
3.878310e+003;2.518991e-002
3.880239e+003;2.503867e-002
3.882167e+003;2.437515e-002
3.884096e+003;2.406649e-002
3.886024e+003;2.468847e-002
3.887953e+003;2.534549e-002
3.889881e+003;2.496700e-002
3.891810e+003;2.460063e-002
3.893738e+003;2.523008e-002
3.895667e+003;2.564714e-002
3.897595e+003;2.561326e-002
3.899524e+003;2.535040e-002
3.901453e+003;2.518513e-002
3.903381e+003;2.515652e-002
3.905310e+003;2.519163e-002
3.907238e+003;2.552139e-002
3.909167e+003;2.583675e-002
3.911095e+003;2.518794e-002
3.913024e+003;2.513601e-002
3.914952e+003;2.580833e-002
3.916881e+003;2.614831e-002
3.918810e+003;2.637239e-002
3.920738e+003;2.665172e-002
3.922667e+003;2.608877e-002
3.924595e+003;2.573372e-002
3.926524e+003;2.625777e-002
3.928452e+003;2.626572e-002
3.930381e+003;2.616052e-002
3.932309e+003;2.667332e-002
3.934238e+003;2.676211e-002
3.936167e+003;2.626220e-002
3.938095e+003;2.592115e-002
3.940023e+003;2.593388e-002
3.941952e+003;2.619445e-002
3.943881e+003;2.607720e-002
3.945809e+003;2.634736e-002
3.947738e+003;2.680994e-002
3.949666e+003;2.651733e-002
3.951595e+003;2.614332e-002
3.953523e+003;2.669453e-002
3.955452e+003;2.710228e-002
3.957380e+003;2.676134e-002
3.959309e+003;2.629987e-002
3.961238e+003;2.597271e-002
3.963166e+003;2.623630e-002
3.965095e+003;2.723758e-002
3.967023e+003;2.762526e-002
3.968952e+003;2.732251e-002
3.970880e+003;2.686654e-002
3.972809e+003;2.685523e-002
3.974737e+003;2.660448e-002
3.976666e+003;2.658831e-002
3.978594e+003;2.715455e-002
3.980523e+003;2.742517e-002
3.982452e+003;2.800303e-002
3.984380e+003;2.800808e-002
3.986309e+003;2.753847e-002
3.988237e+003;2.715060e-002
3.990166e+003;2.678220e-002
3.992094e+003;2.703619e-002
3.994023e+003;2.763744e-002
3.995951e+003;2.740561e-002
3.997880e+003;2.634021e-002
3.999809e+003;2.604993e-002
4.001737e+003;0.000000e+000
