3.992094e+002;0.000000e+000
4.011380e+002;0.000000e+000
4.030665e+002;0.000000e+000
4.049951e+002;0.000000e+000
4.069236e+002;0.000000e+000
4.088522e+002;0.000000e+000
4.107807e+002;0.000000e+000
4.127093e+002;0.000000e+000
4.146378e+002;0.000000e+000
4.165664e+002;0.000000e+000
4.184949e+002;0.000000e+000
4.204235e+002;0.000000e+000
4.223520e+002;0.000000e+000
4.242806e+002;0.000000e+000
4.262091e+002;0.000000e+000
4.281377e+002;0.000000e+000
4.300662e+002;0.000000e+000
4.319948e+002;0.000000e+000
4.339233e+002;0.000000e+000
4.358519e+002;0.000000e+000
4.377804e+002;0.000000e+000
4.397090e+002;0.000000e+000
4.416375e+002;0.000000e+000
4.435660e+002;0.000000e+000
4.454946e+002;0.000000e+000
4.474232e+002;0.000000e+000
4.493517e+002;0.000000e+000
4.512802e+002;0.000000e+000
4.532088e+002;0.000000e+000
4.551373e+002;0.000000e+000
4.570659e+002;0.000000e+000
4.589944e+002;0.000000e+000
4.609230e+002;0.000000e+000
4.628515e+002;0.000000e+000
4.647801e+002;0.000000e+000
4.667086e+002;0.000000e+000
4.686372e+002;0.000000e+000
4.705657e+002;0.000000e+000
4.724943e+002;0.000000e+000
4.744228e+002;0.000000e+000
4.763513e+002;0.000000e+000
4.782799e+002;0.000000e+000
4.802085e+002;0.000000e+000
4.821370e+002;0.000000e+000
4.840656e+002;0.000000e+000
4.859941e+002;0.000000e+000
4.879226e+002;0.000000e+000
4.898512e+002;0.000000e+000
4.917798e+002;0.000000e+000
4.937083e+002;0.000000e+000
4.956368e+002;0.000000e+000
4.975654e+002;0.000000e+000
4.994939e+002;0.000000e+000
5.014225e+002;0.000000e+000
5.033510e+002;0.000000e+000
5.052796e+002;0.000000e+000
5.072081e+002;0.000000e+000
5.091367e+002;0.000000e+000
5.110652e+002;0.000000e+000
5.129938e+002;0.000000e+000
5.149223e+002;0.000000e+000
5.168509e+002;0.000000e+000
5.187794e+002;0.000000e+000
5.207079e+002;0.000000e+000
5.226365e+002;0.000000e+000
5.245651e+002;0.000000e+000
5.264936e+002;0.000000e+000
5.284222e+002;0.000000e+000
5.303507e+002;0.000000e+000
5.322792e+002;0.000000e+000
5.342078e+002;0.000000e+000
5.361364e+002;0.000000e+000
5.380649e+002;0.000000e+000
5.399935e+002;0.000000e+000
5.419220e+002;0.000000e+000
5.438505e+002;0.000000e+000
5.457791e+002;0.000000e+000
5.477076e+002;0.000000e+000
5.496362e+002;0.000000e+000
5.515648e+002;0.000000e+000
5.534933e+002;0.000000e+000
5.554218e+002;0.000000e+000
5.573504e+002;0.000000e+000
5.592789e+002;0.000000e+000
5.612075e+002;0.000000e+000
5.631360e+002;0.000000e+000
5.650646e+002;0.000000e+000
5.669931e+002;0.000000e+000
5.689217e+002;0.000000e+000
5.708502e+002;0.000000e+000
5.727787e+002;0.000000e+000
5.747073e+002;0.000000e+000
5.766359e+002;0.000000e+000
5.785644e+002;0.000000e+000
5.804930e+002;0.000000e+000
5.824215e+002;0.000000e+000
5.843500e+002;0.000000e+000
5.862786e+002;0.000000e+000
5.882072e+002;0.000000e+000
5.901357e+002;0.000000e+000
5.920643e+002;0.000000e+000
5.939928e+002;0.000000e+000
5.959213e+002;0.000000e+000
5.978499e+002;0.000000e+000
5.997784e+002;1.999855e-001
6.017070e+002;2.051901e-001
6.036355e+002;1.999777e-001
6.055641e+002;2.002925e-001
6.074926e+002;1.997636e-001
6.094211e+002;2.031872e-001
6.113497e+002;2.060406e-001
6.132783e+002;2.059778e-001
6.152068e+002;2.034698e-001
6.171354e+002;1.983902e-001
6.190639e+002;1.962243e-001
6.209924e+002;1.947621e-001
6.229210e+002;1.936569e-001
6.248495e+002;1.953741e-001
6.267781e+002;1.951068e-001
6.287067e+002;1.927388e-001
6.306352e+002;1.894386e-001
6.325637e+002;1.853719e-001
6.344923e+002;1.841207e-001
6.364208e+002;1.839100e-001
6.383494e+002;1.798594e-001
6.402780e+002;1.800770e-001
6.422065e+002;1.804148e-001
6.441350e+002;1.773737e-001
6.460636e+002;1.741752e-001
6.479921e+002;1.756833e-001
6.499207e+002;1.782793e-001
6.518492e+002;1.793329e-001
6.537778e+002;1.812860e-001
6.557063e+002;1.856056e-001
6.576349e+002;1.893932e-001
6.595634e+002;1.912453e-001
6.614919e+002;1.917530e-001
6.634205e+002;1.939193e-001
6.653491e+002;1.945640e-001
6.672776e+002;1.924598e-001
6.692062e+002;1.876573e-001
6.711347e+002;1.828137e-001
6.730632e+002;1.799280e-001
6.749918e+002;1.774973e-001
6.769203e+002;1.728035e-001
6.788489e+002;1.673461e-001
6.807775e+002;1.633169e-001
6.827060e+002;1.619725e-001
6.846345e+002;1.614783e-001
6.865631e+002;1.594314e-001
6.884916e+002;1.581331e-001
6.904202e+002;1.573459e-001
6.923488e+002;1.567816e-001
6.942773e+002;1.574330e-001
6.962058e+002;1.579955e-001
6.981344e+002;1.573416e-001
7.000629e+002;1.567534e-001
7.019915e+002;1.564816e-001
7.039200e+002;1.556769e-001
7.058486e+002;1.544639e-001
7.077771e+002;1.532521e-001
7.097057e+002;1.522615e-001
7.116342e+002;1.504516e-001
7.135627e+002;1.467712e-001
7.154913e+002;1.439204e-001
7.174199e+002;1.425937e-001
7.193484e+002;1.407836e-001
7.212770e+002;1.386026e-001
7.232055e+002;1.366367e-001
7.251340e+002;1.352412e-001
7.270626e+002;1.331285e-001
7.289911e+002;1.306113e-001
7.309197e+002;1.291844e-001
7.328483e+002;1.275851e-001
7.347768e+002;1.260157e-001
7.367053e+002;1.248816e-001
7.386339e+002;1.233402e-001
7.405624e+002;1.221450e-001
7.424910e+002;1.211666e-001
7.444196e+002;1.198433e-001
7.463481e+002;1.191753e-001
7.482766e+002;1.189577e-001
7.502052e+002;1.181411e-001
7.521337e+002;1.164799e-001
7.540623e+002;1.154949e-001
7.559908e+002;1.148036e-001
7.579194e+002;1.142468e-001
7.598479e+002;1.132973e-001
7.617765e+002;1.122664e-001
7.637050e+002;1.118415e-001
7.656335e+002;1.110410e-001
7.675621e+002;1.103378e-001
7.694907e+002;1.097529e-001
7.714192e+002;1.097335e-001
7.733478e+002;1.092428e-001
7.752763e+002;1.076833e-001
7.772048e+002;1.072149e-001
7.791334e+002;1.085483e-001
7.810620e+002;1.082787e-001
7.829905e+002;1.070963e-001
7.849191e+002;1.060848e-001
7.868476e+002;1.050621e-001
7.887761e+002;1.041461e-001
7.907047e+002;1.024288e-001
7.926332e+002;1.013055e-001
7.945618e+002;1.004522e-001
7.964903e+002;9.882923e-002
7.984189e+002;9.809007e-002
8.003474e+002;9.820487e-002
8.022759e+002;9.791455e-002
8.042045e+002;9.781170e-002
8.061331e+002;9.777393e-002
8.080616e+002;9.718926e-002
8.099902e+002;9.692091e-002
8.119187e+002;9.722652e-002
8.138472e+002;9.674591e-002
8.157758e+002;9.590465e-002
8.177043e+002;9.509405e-002
8.196329e+002;9.439868e-002
8.215615e+002;9.413275e-002
8.234900e+002;9.420598e-002
8.254185e+002;9.454020e-002
8.273471e+002;9.456496e-002
8.292756e+002;9.418564e-002
8.312042e+002;9.421964e-002
8.331328e+002;9.373111e-002
8.350613e+002;9.292834e-002
8.369898e+002;9.263553e-002
8.389184e+002;9.287442e-002
8.408469e+002;9.253245e-002
8.427755e+002;9.208096e-002
8.447040e+002;9.258920e-002
8.466326e+002;9.411967e-002
8.485611e+002;9.447557e-002
8.504897e+002;9.342072e-002
8.524182e+002;9.323502e-002
8.543467e+002;9.375229e-002
8.562753e+002;9.369370e-002
8.582039e+002;9.445474e-002
8.601324e+002;9.613049e-002
8.620610e+002;9.688048e-002
8.639895e+002;9.706602e-002
8.659180e+002;9.827483e-002
8.678466e+002;1.000106e-001
8.697751e+002;1.012916e-001
8.717037e+002;1.025568e-001
8.736323e+002;1.038515e-001
8.755608e+002;1.048841e-001
8.774893e+002;1.063933e-001
8.794179e+002;1.080690e-001
8.813464e+002;1.095106e-001
8.832750e+002;1.114493e-001
8.852036e+002;1.135289e-001
8.871321e+002;1.151020e-001
8.890606e+002;1.168516e-001
8.909892e+002;1.191867e-001
8.929177e+002;1.209998e-001
8.948463e+002;1.216456e-001
8.967748e+002;1.217675e-001
8.987034e+002;1.214179e-001
9.006319e+002;1.206651e-001
9.025605e+002;1.195909e-001
9.044890e+002;1.180891e-001
9.064175e+002;1.165762e-001
9.083461e+002;1.149748e-001
9.102747e+002;1.133580e-001
9.122032e+002;1.120534e-001
9.141318e+002;1.103137e-001
9.160603e+002;1.092251e-001
9.179888e+002;1.087398e-001
9.199174e+002;1.085286e-001
9.218459e+002;1.083987e-001
9.237745e+002;1.088985e-001
9.257031e+002;1.095467e-001
9.276316e+002;1.102373e-001
9.295601e+002;1.109442e-001
9.314887e+002;1.114443e-001
9.334172e+002;1.124983e-001
9.353458e+002;1.137036e-001
9.372744e+002;1.144994e-001
9.392029e+002;1.155743e-001
9.411314e+002;1.167284e-001
9.430600e+002;1.177688e-001
9.449885e+002;1.194591e-001
9.469171e+002;1.215304e-001
9.488456e+002;1.231723e-001
9.507742e+002;1.253611e-001
9.527027e+002;1.284097e-001
9.546313e+002;1.313633e-001
9.565598e+002;1.343815e-001
9.584883e+002;1.374006e-001
9.604169e+002;1.406367e-001
9.623455e+002;1.442508e-001
9.642740e+002;1.484345e-001
9.662026e+002;1.524423e-001
9.681311e+002;1.566509e-001
9.700596e+002;1.618618e-001
9.719882e+002;1.680557e-001
9.739167e+002;1.751663e-001
9.758453e+002;1.829826e-001
9.777739e+002;1.924673e-001
9.797024e+002;2.030575e-001
9.816309e+002;2.121240e-001
9.835595e+002;2.178633e-001
9.854880e+002;2.205201e-001
9.874166e+002;2.213548e-001
9.893452e+002;2.222344e-001
9.912737e+002;2.252224e-001
9.932022e+002;2.292853e-001
9.951307e+002;2.338163e-001
9.970593e+002;2.392270e-001
9.989879e+002;2.440339e-001
1.000916e+003;2.464843e-001
1.002845e+003;2.473295e-001
1.004773e+003;2.475216e-001
1.006702e+003;2.473575e-001
1.008631e+003;2.475816e-001
1.010559e+003;2.492697e-001
1.012488e+003;2.523696e-001
1.014416e+003;2.563081e-001
1.016345e+003;2.599953e-001
1.018273e+003;2.631759e-001
1.020202e+003;2.667182e-001
1.022130e+003;2.698734e-001
1.024059e+003;2.730843e-001
1.025988e+003;2.764532e-001
1.027916e+003;2.790239e-001
1.029845e+003;2.806862e-001
1.031773e+003;2.811683e-001
1.033702e+003;2.788304e-001
1.035630e+003;2.748931e-001
1.037559e+003;2.705705e-001
1.039487e+003;2.662061e-001
1.041416e+003;2.639265e-001
1.043344e+003;2.632711e-001
1.045273e+003;2.628906e-001
1.047202e+003;2.644119e-001
1.049130e+003;2.680333e-001
1.051059e+003;2.712964e-001
1.052987e+003;2.727007e-001
1.054916e+003;2.731670e-001
1.056844e+003;2.723204e-001
1.058773e+003;2.683536e-001
1.060701e+003;2.611296e-001
1.062630e+003;2.520420e-001
1.064558e+003;2.425237e-001
1.066487e+003;2.331112e-001
1.068416e+003;2.251816e-001
1.070344e+003;2.192666e-001
1.072273e+003;2.143625e-001
1.074201e+003;2.094989e-001
1.076130e+003;2.048295e-001
1.078058e+003;2.005200e-001
1.079987e+003;1.971734e-001
1.081915e+003;1.946581e-001
1.083844e+003;1.926233e-001
1.085773e+003;1.913367e-001
1.087701e+003;1.908617e-001
1.089630e+003;1.904910e-001
1.091558e+003;1.902463e-001
1.093487e+003;1.910563e-001
1.095415e+003;1.931314e-001
1.097344e+003;1.953432e-001
1.099272e+003;1.968864e-001
1.101201e+003;1.977321e-001
1.103129e+003;1.976866e-001
1.105058e+003;1.964227e-001
1.106987e+003;1.946004e-001
1.108915e+003;1.923662e-001
1.110844e+003;1.887256e-001
1.112772e+003;1.828432e-001
1.114701e+003;1.752903e-001
1.116629e+003;1.676988e-001
1.118558e+003;1.613695e-001
1.120486e+003;1.563011e-001
1.122415e+003;1.523046e-001
1.124344e+003;1.481663e-001
1.126272e+003;1.431657e-001
1.128201e+003;1.382222e-001
1.130129e+003;1.340621e-001
1.132058e+003;1.310558e-001
1.133986e+003;1.284373e-001
1.135915e+003;1.259541e-001
1.137843e+003;1.246504e-001
1.139772e+003;1.244283e-001
1.141700e+003;1.251100e-001
1.143629e+003;1.266504e-001
1.145557e+003;1.283116e-001
1.147486e+003;1.295510e-001
1.149415e+003;1.308732e-001
1.151343e+003;1.326414e-001
1.153272e+003;1.342500e-001
1.155200e+003;1.357987e-001
1.157129e+003;1.375103e-001
1.159057e+003;1.391907e-001
1.160986e+003;1.398771e-001
1.162914e+003;1.388525e-001
1.164843e+003;1.357307e-001
1.166771e+003;1.314710e-001
1.168700e+003;1.263946e-001
1.170629e+003;1.202514e-001
1.172557e+003;1.143900e-001
1.174486e+003;1.094660e-001
1.176414e+003;1.054383e-001
1.178343e+003;1.026828e-001
1.180271e+003;1.003437e-001
1.182200e+003;9.801428e-002
1.184128e+003;9.640584e-002
1.186057e+003;9.589014e-002
1.187986e+003;9.620789e-002
1.189914e+003;9.719456e-002
1.191843e+003;9.889667e-002
1.193771e+003;1.008961e-001
1.195700e+003;1.027373e-001
1.197628e+003;1.044052e-001
1.199557e+003;1.054485e-001
1.201485e+003;1.058887e-001
1.203414e+003;1.055572e-001
1.205343e+003;1.045142e-001
1.207271e+003;1.030487e-001
1.209200e+003;1.009629e-001
1.211128e+003;9.835748e-002
1.213057e+003;9.617026e-002
1.214985e+003;9.518798e-002
1.216914e+003;9.539933e-002
1.218842e+003;9.634044e-002
1.220771e+003;9.724558e-002
1.222699e+003;9.827334e-002
1.224628e+003;9.944261e-002
1.226557e+003;1.007420e-001
1.228485e+003;1.024179e-001
1.230414e+003;1.040912e-001
1.232342e+003;1.051230e-001
1.234271e+003;1.054944e-001
1.236199e+003;1.058329e-001
1.238128e+003;1.061185e-001
1.240056e+003;1.062104e-001
1.241985e+003;1.065108e-001
1.243913e+003;1.071166e-001
1.245842e+003;1.081167e-001
1.247771e+003;1.086446e-001
1.249699e+003;1.082356e-001
1.251628e+003;1.078516e-001
1.253556e+003;1.075808e-001
1.255485e+003;1.070400e-001
1.257413e+003;1.070495e-001
1.259342e+003;1.072252e-001
1.261270e+003;1.067862e-001
1.263199e+003;1.062727e-001
1.265127e+003;1.064535e-001
1.267056e+003;1.071623e-001
1.268985e+003;1.079089e-001
1.270913e+003;1.087734e-001
1.272842e+003;1.097366e-001
1.274770e+003;1.101951e-001
1.276699e+003;1.103613e-001
1.278627e+003;1.107097e-001
1.280556e+003;1.104703e-001
1.282484e+003;1.095816e-001
1.284413e+003;1.089383e-001
1.286342e+003;1.088284e-001
1.288270e+003;1.090041e-001
1.290199e+003;1.094052e-001
1.292127e+003;1.102266e-001
1.294056e+003;1.109993e-001
1.295984e+003;1.118277e-001
1.297913e+003;1.131346e-001
1.299841e+003;1.149863e-001
1.301770e+003;1.172386e-001
1.303698e+003;1.200074e-001
1.305627e+003;1.232113e-001
1.307556e+003;1.266953e-001
1.309484e+003;1.301149e-001
1.311413e+003;1.329464e-001
1.313341e+003;1.349274e-001
1.315270e+003;1.352897e-001
1.317198e+003;1.338412e-001
1.319127e+003;1.313333e-001
1.321055e+003;1.285553e-001
1.322984e+003;1.260014e-001
1.324912e+003;1.240401e-001
1.326841e+003;1.227512e-001
1.328770e+003;1.222516e-001
1.330698e+003;1.223008e-001
1.332627e+003;1.227070e-001
1.334555e+003;1.227454e-001
1.336484e+003;1.217658e-001
1.338412e+003;1.202228e-001
1.340341e+003;1.184326e-001
1.342269e+003;1.163871e-001
1.344198e+003;1.140995e-001
1.346126e+003;1.120208e-001
1.348055e+003;1.106768e-001
1.349984e+003;1.104013e-001
1.351912e+003;1.108818e-001
1.353841e+003;1.113981e-001
1.355769e+003;1.120340e-001
1.357698e+003;1.126517e-001
1.359626e+003;1.133395e-001
1.361555e+003;1.136101e-001
1.363483e+003;1.133137e-001
1.365412e+003;1.130650e-001
1.367341e+003;1.127439e-001
1.369269e+003;1.120677e-001
1.371198e+003;1.110256e-001
1.373126e+003;1.093658e-001
1.375055e+003;1.072683e-001
1.376983e+003;1.051652e-001
1.378912e+003;1.029856e-001
1.380840e+003;1.010056e-001
1.382769e+003;9.925564e-002
1.384698e+003;9.752703e-002
1.386626e+003;9.604322e-002
1.388555e+003;9.490655e-002
1.390483e+003;9.432469e-002
1.392412e+003;9.356385e-002
1.394340e+003;9.314295e-002
1.396269e+003;9.323932e-002
1.398197e+003;9.333893e-002
1.400126e+003;9.338202e-002
1.402054e+003;9.325506e-002
1.403983e+003;9.345466e-002
1.405911e+003;9.387558e-002
1.407840e+003;9.404910e-002
1.409769e+003;9.426314e-002
1.411697e+003;9.488858e-002
1.413626e+003;9.542897e-002
1.415554e+003;9.594920e-002
1.417483e+003;9.698163e-002
1.419411e+003;9.811822e-002
1.421340e+003;9.924115e-002
1.423268e+003;1.005853e-001
1.425197e+003;1.016448e-001
1.427125e+003;1.021669e-001
1.429054e+003;1.021324e-001
1.430983e+003;1.016041e-001
1.432911e+003;1.007382e-001
1.434840e+003;9.946711e-002
1.436768e+003;9.807250e-002
1.438697e+003;9.692410e-002
1.440625e+003;9.598462e-002
1.442554e+003;9.536656e-002
1.444482e+003;9.519120e-002
1.446411e+003;9.490750e-002
1.448340e+003;9.449604e-002
1.450268e+003;9.424186e-002
1.452197e+003;9.390737e-002
1.454125e+003;9.328947e-002
1.456054e+003;9.221897e-002
1.457982e+003;9.124243e-002
1.459911e+003;9.010454e-002
1.461839e+003;8.900277e-002
1.463768e+003;8.796585e-002
1.465697e+003;8.655385e-002
1.467625e+003;8.511905e-002
1.469554e+003;8.367174e-002
1.471482e+003;8.209332e-002
1.473411e+003;8.078740e-002
1.475339e+003;7.957811e-002
1.477268e+003;7.850567e-002
1.479196e+003;7.786551e-002
1.481125e+003;7.691518e-002
1.483053e+003;7.561000e-002
1.484982e+003;7.407730e-002
1.486911e+003;7.235459e-002
1.488839e+003;7.073769e-002
1.490768e+003;6.930895e-002
1.492696e+003;6.806303e-002
1.494625e+003;6.730942e-002
1.496553e+003;6.674214e-002
1.498482e+003;6.628267e-002
1.500410e+003;6.589194e-002
1.502339e+003;6.535774e-002
1.504267e+003;6.514354e-002
1.506196e+003;6.522328e-002
1.508125e+003;6.508519e-002
1.510053e+003;6.464419e-002
1.511982e+003;6.416695e-002
1.513910e+003;6.377017e-002
1.515839e+003;6.338026e-002
1.517767e+003;6.301147e-002
1.519696e+003;6.262037e-002
1.521624e+003;6.257866e-002
1.523553e+003;6.239825e-002
1.525481e+003;6.200847e-002
1.527410e+003;6.195145e-002
1.529339e+003;6.193376e-002
1.531267e+003;6.204643e-002
1.533196e+003;6.213905e-002
1.535124e+003;6.181203e-002
1.537053e+003;6.157754e-002
1.538981e+003;6.159518e-002
1.540910e+003;6.142567e-002
1.542838e+003;6.130382e-002
1.544767e+003;6.136755e-002
1.546695e+003;6.150729e-002
1.548624e+003;6.159185e-002
1.550553e+003;6.153485e-002
1.552481e+003;6.149446e-002
1.554410e+003;6.137747e-002
1.556338e+003;6.136797e-002
1.558267e+003;6.150125e-002
1.560195e+003;6.163317e-002
1.562124e+003;6.165474e-002
1.564052e+003;6.167002e-002
1.565981e+003;6.198944e-002
1.567910e+003;6.240579e-002
1.569838e+003;6.261471e-002
1.571767e+003;6.262845e-002
1.573695e+003;6.300332e-002
1.575624e+003;6.357516e-002
1.577552e+003;6.387951e-002
1.579481e+003;6.396040e-002
1.581409e+003;6.420624e-002
1.583338e+003;6.462169e-002
1.585266e+003;6.501202e-002
1.587195e+003;6.537427e-002
1.589124e+003;6.575309e-002
1.591052e+003;6.617616e-002
1.592981e+003;6.667983e-002
1.594909e+003;6.724884e-002
1.596838e+003;6.798421e-002
1.598766e+003;6.867118e-002
1.600695e+003;6.930161e-002
1.602623e+003;7.016963e-002
1.604552e+003;7.095721e-002
1.606480e+003;7.155681e-002
1.608409e+003;7.213338e-002
1.610338e+003;7.276659e-002
1.612266e+003;7.344078e-002
1.614195e+003;7.390986e-002
1.616123e+003;7.427741e-002
1.618052e+003;7.483355e-002
1.619980e+003;7.514267e-002
1.621909e+003;7.504991e-002
1.623837e+003;7.495808e-002
1.625766e+003;7.479871e-002
1.627694e+003;7.459585e-002
1.629623e+003;7.454349e-002
1.631552e+003;7.428028e-002
1.633480e+003;7.407333e-002
1.635409e+003;7.415700e-002
1.637337e+003;7.401243e-002
1.639266e+003;7.352845e-002
1.641194e+003;7.303779e-002
1.643123e+003;7.296495e-002
1.645051e+003;7.281795e-002
1.646980e+003;7.240090e-002
1.648909e+003;7.191308e-002
1.650837e+003;7.148759e-002
1.652766e+003;7.108145e-002
1.654694e+003;7.050347e-002
1.656623e+003;6.987721e-002
1.658551e+003;6.915238e-002
1.660480e+003;6.847896e-002
1.662408e+003;6.796708e-002
1.664337e+003;6.725205e-002
1.666266e+003;6.651656e-002
1.668194e+003;6.588206e-002
1.670123e+003;6.511836e-002
1.672051e+003;6.420767e-002
1.673980e+003;6.320053e-002
1.675908e+003;6.255991e-002
1.677837e+003;6.228500e-002
1.679765e+003;6.175588e-002
1.681694e+003;6.080250e-002
1.683622e+003;5.986208e-002
1.685551e+003;5.921292e-002
1.687479e+003;5.878038e-002
1.689408e+003;5.814049e-002
1.691337e+003;5.738562e-002
1.693265e+003;5.666173e-002
1.695194e+003;5.615729e-002
1.697122e+003;5.572842e-002
1.699051e+003;5.526314e-002
1.700979e+003;5.481658e-002
1.702908e+003;5.455671e-002
1.704836e+003;5.408255e-002
1.706765e+003;5.355144e-002
1.708693e+003;5.315476e-002
1.710622e+003;5.275765e-002
1.712551e+003;5.249707e-002
1.714479e+003;5.220189e-002
1.716408e+003;5.193865e-002
1.718336e+003;5.189272e-002
1.720265e+003;5.185863e-002
1.722193e+003;5.166844e-002
1.724122e+003;5.167188e-002
1.726050e+003;5.175209e-002
1.727979e+003;5.183167e-002
1.729908e+003;5.198149e-002
1.731836e+003;5.181465e-002
1.733765e+003;5.147271e-002
1.735693e+003;5.143015e-002
1.737622e+003;5.152673e-002
1.739550e+003;5.133225e-002
1.741479e+003;5.108768e-002
1.743407e+003;5.073138e-002
1.745336e+003;5.006946e-002
1.747265e+003;4.934935e-002
1.749193e+003;4.878925e-002
1.751122e+003;4.865306e-002
1.753050e+003;4.836533e-002
1.754979e+003;4.772088e-002
1.756907e+003;4.723853e-002
1.758836e+003;4.715398e-002
1.760764e+003;4.701564e-002
1.762693e+003;4.673737e-002
1.764621e+003;4.643775e-002
1.766550e+003;4.636405e-002
1.768479e+003;4.641518e-002
1.770407e+003;4.608862e-002
1.772336e+003;4.560690e-002
1.774264e+003;4.554284e-002
1.776193e+003;4.566174e-002
1.778121e+003;4.557581e-002
1.780050e+003;4.550843e-002
1.781978e+003;4.551204e-002
1.783907e+003;4.527492e-002
1.785835e+003;4.522274e-002
1.787764e+003;4.502507e-002
1.789693e+003;4.445654e-002
1.791621e+003;4.427107e-002
1.793550e+003;4.434199e-002
1.795478e+003;4.447592e-002
1.797407e+003;4.454607e-002
1.799335e+003;4.427767e-002
1.801264e+003;4.394876e-002
1.803192e+003;4.390344e-002
1.805121e+003;4.388028e-002
1.807049e+003;4.379095e-002
1.808978e+003;4.368293e-002
1.810907e+003;4.333257e-002
1.812835e+003;4.299804e-002
1.814764e+003;4.316357e-002
1.816692e+003;4.343725e-002
1.818621e+003;4.338247e-002
1.820549e+003;4.303477e-002
1.822478e+003;4.275706e-002
1.824406e+003;4.289569e-002
1.826335e+003;4.291003e-002
1.828264e+003;4.259501e-002
1.830192e+003;4.246389e-002
1.832121e+003;4.239780e-002
1.834049e+003;4.230163e-002
1.835978e+003;4.231485e-002
1.837906e+003;4.222771e-002
1.839835e+003;4.204206e-002
1.841763e+003;4.194687e-002
1.843692e+003;4.180519e-002
1.845620e+003;4.160579e-002
1.847549e+003;4.155160e-002
1.849478e+003;4.156826e-002
1.851406e+003;4.150114e-002
1.853335e+003;4.127841e-002
1.855263e+003;4.109674e-002
1.857192e+003;4.106068e-002
1.859120e+003;4.081757e-002
1.861049e+003;4.048214e-002
1.862977e+003;4.062699e-002
1.864906e+003;4.103551e-002
1.866834e+003;4.118813e-002
1.868763e+003;4.102077e-002
1.870692e+003;4.088645e-002
1.872620e+003;4.086708e-002
1.874549e+003;4.062110e-002
1.876477e+003;4.027916e-002
1.878406e+003;4.033853e-002
1.880334e+003;4.065188e-002
1.882263e+003;4.057748e-002
1.884191e+003;4.024357e-002
1.886120e+003;4.020308e-002
1.888048e+003;4.023543e-002
1.889977e+003;4.026091e-002
1.891906e+003;4.025488e-002
1.893834e+003;4.025295e-002
1.895763e+003;4.034341e-002
1.897691e+003;4.041930e-002
1.899620e+003;4.028473e-002
1.901548e+003;4.016168e-002
1.903477e+003;4.014366e-002
1.905405e+003;4.024361e-002
1.907334e+003;4.016256e-002
1.909262e+003;4.007686e-002
1.911191e+003;4.003697e-002
1.913120e+003;4.014377e-002
1.915048e+003;4.042130e-002
1.916977e+003;4.050444e-002
1.918905e+003;4.066814e-002
1.920834e+003;4.088295e-002
1.922762e+003;4.077543e-002
1.924691e+003;4.067935e-002
1.926619e+003;4.061433e-002
1.928548e+003;4.048836e-002
1.930477e+003;4.051760e-002
1.932405e+003;4.040613e-002
1.934334e+003;4.053419e-002
1.936262e+003;4.082081e-002
1.938191e+003;4.094991e-002
1.940119e+003;4.102554e-002
1.942048e+003;4.113968e-002
1.943976e+003;4.134291e-002
1.945905e+003;4.134838e-002
1.947833e+003;4.125404e-002
1.949762e+003;4.128760e-002
1.951691e+003;4.144522e-002
1.953619e+003;4.164094e-002
1.955548e+003;4.178625e-002
1.957476e+003;4.193085e-002
1.959405e+003;4.196746e-002
1.961333e+003;4.187695e-002
1.963262e+003;4.186185e-002
1.965190e+003;4.187936e-002
1.967119e+003;4.181741e-002
1.969047e+003;4.193114e-002
1.970976e+003;4.215223e-002
1.972905e+003;4.232632e-002
1.974833e+003;4.241626e-002
1.976762e+003;4.238455e-002
1.978690e+003;4.250858e-002
1.980619e+003;4.250581e-002
1.982547e+003;4.252693e-002
1.984476e+003;4.295202e-002
1.986404e+003;4.308650e-002
1.988333e+003;4.310817e-002
1.990261e+003;4.330042e-002
1.992190e+003;4.328812e-002
1.994119e+003;4.310930e-002
1.996047e+003;4.298282e-002
1.997976e+003;4.316785e-002
1.999904e+003;4.331671e-002
2.001833e+003;4.341454e-002
2.003761e+003;4.347427e-002
2.005690e+003;4.349632e-002
2.007618e+003;4.351123e-002
2.009547e+003;4.366087e-002
2.011476e+003;4.386539e-002
2.013404e+003;4.372711e-002
2.015333e+003;4.372961e-002
2.017261e+003;4.409158e-002
2.019190e+003;4.441323e-002
2.021118e+003;4.455334e-002
2.023047e+003;4.465039e-002
2.024975e+003;4.505341e-002
2.026904e+003;4.535793e-002
2.028833e+003;4.513605e-002
2.030761e+003;4.519208e-002
2.032690e+003;4.510645e-002
2.034618e+003;4.505749e-002
2.036547e+003;4.536352e-002
2.038475e+003;4.557239e-002
2.040404e+003;4.558725e-002
2.042332e+003;4.576570e-002
2.044261e+003;4.596397e-002
2.046189e+003;4.599269e-002
2.048118e+003;4.592330e-002
2.050047e+003;4.572108e-002
2.051975e+003;4.548131e-002
2.053904e+003;4.547550e-002
2.055832e+003;4.561632e-002
2.057761e+003;4.566049e-002
2.059689e+003;4.566506e-002
2.061618e+003;4.563966e-002
2.063546e+003;4.578521e-002
2.065475e+003;4.593932e-002
2.067404e+003;4.585138e-002
2.069332e+003;4.577711e-002
2.071260e+003;4.569123e-002
2.073189e+003;4.575764e-002
2.075118e+003;4.580399e-002
2.077046e+003;4.552760e-002
2.078975e+003;4.555873e-002
2.080903e+003;4.557441e-002
2.082832e+003;4.531905e-002
2.084760e+003;4.560665e-002
2.086689e+003;4.597682e-002
2.088617e+003;4.599686e-002
2.090546e+003;4.576688e-002
2.092475e+003;4.554861e-002
2.094403e+003;4.558250e-002
2.096332e+003;4.540008e-002
2.098260e+003;4.526698e-002
2.100189e+003;4.565644e-002
2.102117e+003;4.591542e-002
2.104046e+003;4.580513e-002
2.105974e+003;4.593619e-002
2.107903e+003;4.620861e-002
2.109832e+003;4.612617e-002
2.111760e+003;4.593170e-002
2.113688e+003;4.589980e-002
2.115617e+003;4.624376e-002
2.117546e+003;4.661375e-002
2.119474e+003;4.676579e-002
2.121403e+003;4.667963e-002
2.123331e+003;4.652363e-002
2.125260e+003;4.653463e-002
2.127188e+003;4.665429e-002
2.129117e+003;4.662828e-002
2.131045e+003;4.668565e-002
2.132974e+003;4.696248e-002
2.134903e+003;4.698360e-002
2.136831e+003;4.659785e-002
2.138760e+003;4.643292e-002
2.140688e+003;4.644693e-002
2.142617e+003;4.612518e-002
2.144545e+003;4.597387e-002
2.146474e+003;4.618907e-002
2.148402e+003;4.638879e-002
2.150331e+003;4.622095e-002
2.152260e+003;4.610292e-002
2.154188e+003;4.632626e-002
2.156117e+003;4.633481e-002
2.158045e+003;4.614574e-002
2.159974e+003;4.599001e-002
2.161902e+003;4.584740e-002
2.163831e+003;4.556234e-002
2.165759e+003;4.534267e-002
2.167688e+003;4.538493e-002
2.169616e+003;4.529986e-002
2.171545e+003;4.486996e-002
2.173474e+003;4.452654e-002
2.175402e+003;4.449056e-002
2.177331e+003;4.467121e-002
2.179259e+003;4.481313e-002
2.181188e+003;4.449805e-002
2.183116e+003;4.446755e-002
2.185045e+003;4.455822e-002
2.186973e+003;4.426255e-002
2.188902e+003;4.408425e-002
2.190831e+003;4.397182e-002
2.192759e+003;4.375409e-002
2.194688e+003;4.387690e-002
2.196616e+003;4.398989e-002
2.198545e+003;4.389769e-002
2.200473e+003;4.393838e-002
2.202402e+003;4.389571e-002
2.204330e+003;4.363603e-002
2.206259e+003;4.331730e-002
2.208188e+003;4.322355e-002
2.210116e+003;4.349207e-002
2.212044e+003;4.357694e-002
2.213973e+003;4.352496e-002
2.215902e+003;4.366303e-002
2.217830e+003;4.374225e-002
2.219759e+003;4.373609e-002
2.221687e+003;4.360635e-002
2.223616e+003;4.356129e-002
2.225544e+003;4.343970e-002
2.227473e+003;4.343436e-002
2.229401e+003;4.339587e-002
2.231330e+003;4.338642e-002
2.233259e+003;4.340316e-002
2.235187e+003;4.339587e-002
2.237116e+003;4.354858e-002
2.239044e+003;4.361324e-002
2.240973e+003;4.346596e-002
2.242901e+003;4.339924e-002
2.244830e+003;4.335922e-002
2.246758e+003;4.331236e-002
2.248687e+003;4.313425e-002
2.250615e+003;4.288125e-002
2.252544e+003;4.294939e-002
2.254473e+003;4.312192e-002
2.256401e+003;4.301077e-002
2.258330e+003;4.270778e-002
2.260258e+003;4.247508e-002
2.262187e+003;4.233680e-002
2.264115e+003;4.225247e-002
2.266044e+003;4.235072e-002
2.267972e+003;4.234298e-002
2.269901e+003;4.225908e-002
2.271830e+003;4.219346e-002
2.273758e+003;4.224655e-002
2.275687e+003;4.209324e-002
2.277615e+003;4.170586e-002
2.279544e+003;4.149079e-002
2.281472e+003;4.145488e-002
2.283401e+003;4.138628e-002
2.285329e+003;4.135840e-002
2.287258e+003;4.150825e-002
2.289187e+003;4.159747e-002
2.291115e+003;4.136660e-002
2.293043e+003;4.130341e-002
2.294972e+003;4.130454e-002
2.296901e+003;4.125943e-002
2.298829e+003;4.147526e-002
2.300758e+003;4.153534e-002
2.302686e+003;4.147872e-002
2.304615e+003;4.157953e-002
2.306543e+003;4.167052e-002
2.308472e+003;4.158362e-002
2.310400e+003;4.152309e-002
2.312329e+003;4.131015e-002
2.314258e+003;4.121669e-002
2.316186e+003;4.152138e-002
2.318115e+003;4.148831e-002
2.320043e+003;4.131781e-002
2.321972e+003;4.131788e-002
2.323900e+003;4.154836e-002
2.325829e+003;4.184411e-002
2.327757e+003;4.198800e-002
2.329686e+003;4.228746e-002
2.331615e+003;4.243847e-002
2.333543e+003;4.233962e-002
2.335472e+003;4.227106e-002
2.337400e+003;4.247570e-002
2.339329e+003;4.251527e-002
2.341257e+003;4.250343e-002
2.343186e+003;4.280990e-002
2.345114e+003;4.294072e-002
2.347043e+003;4.298403e-002
2.348971e+003;4.312064e-002
2.350900e+003;4.310549e-002
2.352829e+003;4.297042e-002
2.354757e+003;4.288395e-002
2.356686e+003;4.300371e-002
2.358614e+003;4.326946e-002
2.360543e+003;4.362614e-002
2.362471e+003;4.390334e-002
2.364400e+003;4.390029e-002
2.366328e+003;4.399294e-002
2.368257e+003;4.414707e-002
2.370186e+003;4.398549e-002
2.372114e+003;4.387463e-002
2.374042e+003;4.397387e-002
2.375971e+003;4.404640e-002
2.377900e+003;4.399528e-002
2.379828e+003;4.395942e-002
2.381757e+003;4.400298e-002
2.383685e+003;4.405506e-002
2.385614e+003;4.413453e-002
2.387542e+003;4.446267e-002
2.389471e+003;4.468968e-002
2.391399e+003;4.475506e-002
2.393328e+003;4.493007e-002
2.395257e+003;4.515932e-002
2.397185e+003;4.506617e-002
2.399114e+003;4.497649e-002
2.401042e+003;4.511792e-002
2.402971e+003;4.549986e-002
2.404899e+003;4.561397e-002
2.406828e+003;4.565030e-002
2.408756e+003;4.587793e-002
2.410685e+003;4.593037e-002
2.412614e+003;4.587255e-002
2.414542e+003;4.643513e-002
2.416471e+003;4.667919e-002
2.418399e+003;4.654020e-002
2.420328e+003;4.666809e-002
2.422256e+003;4.679941e-002
2.424185e+003;4.683930e-002
2.426113e+003;4.716040e-002
2.428042e+003;4.735908e-002
2.429970e+003;4.739656e-002
2.431899e+003;4.750433e-002
2.433828e+003;4.757800e-002
2.435756e+003;4.764034e-002
2.437685e+003;4.769078e-002
2.439613e+003;4.757523e-002
2.441542e+003;4.753933e-002
2.443470e+003;4.802261e-002
2.445399e+003;4.835915e-002
2.447327e+003;4.819840e-002
2.449256e+003;4.803823e-002
2.451185e+003;4.837070e-002
2.453113e+003;4.873846e-002
2.455042e+003;4.880634e-002
2.456970e+003;4.904268e-002
2.458899e+003;4.925128e-002
2.460827e+003;4.907662e-002
2.462756e+003;4.870721e-002
2.464684e+003;4.873523e-002
2.466613e+003;4.897050e-002
2.468542e+003;4.907466e-002
2.470470e+003;4.954743e-002
2.472398e+003;5.004522e-002
2.474327e+003;5.043818e-002
2.476256e+003;5.055144e-002
2.478184e+003;5.025248e-002
2.480113e+003;5.003317e-002
2.482041e+003;5.037767e-002
2.483970e+003;5.059640e-002
2.485898e+003;5.061688e-002
2.487827e+003;5.079171e-002
2.489755e+003;5.078005e-002
2.491684e+003;5.085380e-002
2.493613e+003;5.101363e-002
2.495541e+003;5.100857e-002
2.497470e+003;5.108075e-002
2.499398e+003;5.124507e-002
2.501327e+003;5.147121e-002
2.503255e+003;5.173197e-002
2.505184e+003;5.172585e-002
2.507112e+003;5.170655e-002
2.509041e+003;5.180782e-002
2.510969e+003;5.194885e-002
2.512898e+003;5.227618e-002
2.514827e+003;5.247613e-002
2.516755e+003;5.241272e-002
2.518684e+003;5.241642e-002
2.520612e+003;5.244742e-002
2.522541e+003;5.257186e-002
2.524469e+003;5.256950e-002
2.526398e+003;5.260911e-002
2.528326e+003;5.265167e-002
2.530255e+003;5.245998e-002
2.532184e+003;5.253730e-002
2.534112e+003;5.287421e-002
2.536041e+003;5.304295e-002
2.537969e+003;5.312955e-002
2.539898e+003;5.297530e-002
2.541826e+003;5.249344e-002
2.543755e+003;5.270187e-002
2.545683e+003;5.316472e-002
2.547612e+003;5.303299e-002
2.549541e+003;5.291759e-002
2.551469e+003;5.316446e-002
2.553397e+003;5.322378e-002
2.555326e+003;5.341506e-002
2.557255e+003;5.381750e-002
2.559183e+003;5.381213e-002
2.561112e+003;5.385429e-002
2.563040e+003;5.396788e-002
2.564969e+003;5.389600e-002
2.566897e+003;5.391555e-002
2.568826e+003;5.381082e-002
2.570754e+003;5.359949e-002
2.572683e+003;5.367061e-002
2.574612e+003;5.382031e-002
2.576540e+003;5.397553e-002
2.578469e+003;5.411355e-002
2.580397e+003;5.424275e-002
2.582326e+003;5.412901e-002
2.584254e+003;5.385658e-002
2.586183e+003;5.400131e-002
2.588111e+003;5.429711e-002
2.590040e+003;5.430917e-002
2.591969e+003;5.438017e-002
2.593897e+003;5.446032e-002
2.595826e+003;5.449454e-002
2.597754e+003;5.477891e-002
2.599683e+003;5.500018e-002
2.601611e+003;5.520143e-002
2.603540e+003;5.551627e-002
2.605468e+003;5.557983e-002
2.607397e+003;5.540085e-002
2.609325e+003;5.535944e-002
2.611254e+003;5.551759e-002
2.613183e+003;5.563844e-002
2.615111e+003;5.571746e-002
2.617040e+003;5.588143e-002
2.618968e+003;5.625277e-002
2.620897e+003;5.637439e-002
2.622825e+003;5.637416e-002
2.624754e+003;5.653751e-002
2.626682e+003;5.672735e-002
2.628611e+003;5.677451e-002
2.630540e+003;5.682341e-002
2.632468e+003;5.711948e-002
2.634396e+003;5.719840e-002
2.636325e+003;5.712659e-002
2.638254e+003;5.723681e-002
2.640182e+003;5.737345e-002
2.642111e+003;5.755351e-002
2.644039e+003;5.783429e-002
2.645968e+003;5.792712e-002
2.647896e+003;5.749965e-002
2.649825e+003;5.742272e-002
2.651753e+003;5.780640e-002
2.653682e+003;5.782059e-002
2.655611e+003;5.778664e-002
2.657539e+003;5.806829e-002
2.659468e+003;5.828067e-002
2.661396e+003;5.850979e-002
2.663325e+003;5.850334e-002
2.665253e+003;5.858752e-002
2.667182e+003;5.882177e-002
2.669110e+003;5.894555e-002
2.671039e+003;5.901527e-002
2.672968e+003;5.877833e-002
2.674896e+003;5.871472e-002
2.676825e+003;5.913341e-002
2.678753e+003;5.935386e-002
2.680682e+003;5.925059e-002
2.682610e+003;5.920301e-002
2.684539e+003;5.923270e-002
2.686467e+003;5.942198e-002
2.688396e+003;5.975861e-002
2.690324e+003;6.011220e-002
2.692253e+003;6.032839e-002
2.694182e+003;6.042115e-002
2.696110e+003;6.051457e-002
2.698039e+003;6.047511e-002
2.699967e+003;6.030426e-002
2.701896e+003;6.065997e-002
2.703824e+003;6.106887e-002
2.705753e+003;6.106697e-002
2.707681e+003;6.096885e-002
2.709610e+003;6.094560e-002
2.711539e+003;6.109481e-002
2.713467e+003;6.152175e-002
2.715396e+003;6.197224e-002
2.717324e+003;6.207391e-002
2.719253e+003;6.212999e-002
2.721181e+003;6.212108e-002
2.723110e+003;6.190464e-002
2.725038e+003;6.194687e-002
2.726967e+003;6.220477e-002
2.728896e+003;6.219365e-002
2.730824e+003;6.235545e-002
2.732752e+003;6.228611e-002
2.734681e+003;6.213951e-002
2.736610e+003;6.215817e-002
2.738538e+003;6.206913e-002
2.740467e+003;6.215809e-002
2.742395e+003;6.229047e-002
2.744324e+003;6.220424e-002
2.746252e+003;6.222898e-002
2.748181e+003;6.243280e-002
2.750109e+003;6.263059e-002
2.752038e+003;6.291147e-002
2.753967e+003;6.290710e-002
2.755895e+003;6.281603e-002
2.757824e+003;6.288339e-002
2.759752e+003;6.284250e-002
2.761681e+003;6.299952e-002
2.763609e+003;6.317668e-002
2.765538e+003;6.312151e-002
2.767466e+003;6.321064e-002
2.769395e+003;6.324831e-002
2.771323e+003;6.330252e-002
2.773252e+003;6.353814e-002
2.775181e+003;6.391137e-002
2.777109e+003;6.420636e-002
2.779038e+003;6.421251e-002
2.780966e+003;6.422653e-002
2.782895e+003;6.420175e-002
2.784823e+003;6.415516e-002
2.786752e+003;6.433061e-002
2.788680e+003;6.468821e-002
2.790609e+003;6.496511e-002
2.792538e+003;6.510389e-002
2.794466e+003;6.518193e-002
2.796395e+003;6.528369e-002
2.798323e+003;6.556012e-002
2.800252e+003;6.591249e-002
2.802180e+003;6.604876e-002
2.804109e+003;6.618734e-002
2.806037e+003;6.656024e-002
2.807966e+003;6.699754e-002
2.809895e+003;6.717948e-002
2.811823e+003;6.739272e-002
2.813751e+003;6.784295e-002
2.815680e+003;6.801877e-002
2.817609e+003;6.801094e-002
2.819537e+003;6.840743e-002
2.821466e+003;6.901079e-002
2.823394e+003;6.925361e-002
2.825323e+003;6.952857e-002
2.827251e+003;7.027280e-002
2.829180e+003;7.087618e-002
2.831108e+003;7.136811e-002
2.833037e+003;7.191327e-002
2.834966e+003;7.238524e-002
2.836894e+003;7.287003e-002
2.838823e+003;7.350431e-002
2.840751e+003;7.433583e-002
2.842680e+003;7.503963e-002
2.844608e+003;7.605076e-002
2.846537e+003;7.757061e-002
2.848465e+003;7.893749e-002
2.850394e+003;8.003677e-002
2.852323e+003;8.066003e-002
2.854251e+003;8.102288e-002
2.856180e+003;8.184566e-002
2.858108e+003;8.255412e-002
2.860037e+003;8.306160e-002
2.861965e+003;8.391510e-002
2.863894e+003;8.495107e-002
2.865822e+003;8.565132e-002
2.867751e+003;8.588514e-002
2.869679e+003;8.608077e-002
2.871608e+003;8.620583e-002
2.873536e+003;8.659247e-002
2.875465e+003;8.702473e-002
2.877394e+003;8.696088e-002
2.879322e+003;8.699974e-002
2.881251e+003;8.780083e-002
2.883179e+003;8.865314e-002
2.885108e+003;8.884466e-002
2.887036e+003;8.905535e-002
2.888965e+003;8.957778e-002
2.890893e+003;8.993768e-002
2.892822e+003;9.028483e-002
2.894750e+003;9.061312e-002
2.896679e+003;9.072118e-002
2.898608e+003;9.083010e-002
2.900536e+003;9.060977e-002
2.902465e+003;9.004048e-002
2.904393e+003;8.986555e-002
2.906322e+003;8.945590e-002
2.908250e+003;8.871923e-002
2.910179e+003;8.826811e-002
2.912107e+003;8.774580e-002
2.914036e+003;8.717604e-002
2.915965e+003;8.680142e-002
2.917893e+003;8.615185e-002
2.919822e+003;8.550283e-002
2.921750e+003;8.520737e-002
2.923679e+003;8.456992e-002
2.925607e+003;8.335741e-002
2.927536e+003;8.198634e-002
2.929464e+003;8.106636e-002
2.931393e+003;8.099345e-002
2.933322e+003;8.029266e-002
2.935250e+003;7.918819e-002
2.937178e+003;7.830016e-002
2.939107e+003;7.731941e-002
2.941036e+003;7.644652e-002
2.942964e+003;7.618029e-002
2.944893e+003;7.586594e-002
2.946821e+003;7.516544e-002
2.948750e+003;7.451639e-002
2.950678e+003;7.380797e-002
2.952607e+003;7.279264e-002
2.954535e+003;7.206208e-002
2.956464e+003;7.140752e-002
2.958393e+003;7.105414e-002
2.960321e+003;7.068060e-002
2.962250e+003;6.958830e-002
2.964178e+003;6.882754e-002
2.966107e+003;6.830819e-002
2.968035e+003;6.754204e-002
2.969964e+003;6.695173e-002
2.971892e+003;6.676440e-002
2.973821e+003;6.612669e-002
2.975750e+003;6.594627e-002
2.977678e+003;6.553723e-002
2.979607e+003;6.465264e-002
2.981535e+003;6.406391e-002
2.983464e+003;6.373022e-002
2.985392e+003;6.357691e-002
2.987321e+003;6.328611e-002
2.989249e+003;6.280765e-002
2.991178e+003;6.258854e-002
2.993106e+003;6.234122e-002
2.995035e+003;6.225739e-002
2.996964e+003;6.233885e-002
2.998892e+003;6.235293e-002
3.000821e+003;6.207062e-002
3.002749e+003;6.158479e-002
3.004678e+003;6.117506e-002
3.006606e+003;6.118719e-002
3.008535e+003;6.151122e-002
3.010463e+003;6.148312e-002
3.012392e+003;6.145579e-002
3.014321e+003;6.169202e-002
3.016249e+003;6.219850e-002
3.018177e+003;6.253967e-002
3.020106e+003;6.236452e-002
3.022035e+003;6.249310e-002
3.023963e+003;6.313208e-002
3.025892e+003;6.319711e-002
3.027820e+003;6.318301e-002
3.029749e+003;6.351835e-002
3.031677e+003;6.355352e-002
3.033606e+003;6.327178e-002
3.035534e+003;6.312036e-002
3.037463e+003;6.337781e-002
3.039392e+003;6.380352e-002
3.041320e+003;6.387161e-002
3.043249e+003;6.396703e-002
3.045177e+003;6.407493e-002
3.047106e+003;6.414571e-002
3.049034e+003;6.435716e-002
3.050963e+003;6.468741e-002
3.052891e+003;6.500182e-002
3.054820e+003;6.515674e-002
3.056749e+003;6.551684e-002
3.058677e+003;6.614590e-002
3.060606e+003;6.630178e-002
3.062534e+003;6.601597e-002
3.064463e+003;6.590813e-002
3.066391e+003;6.601346e-002
3.068320e+003;6.608471e-002
3.070248e+003;6.633420e-002
3.072177e+003;6.654035e-002
3.074105e+003;6.664108e-002
3.076034e+003;6.709034e-002
3.077963e+003;6.765481e-002
3.079891e+003;6.790710e-002
3.081820e+003;6.779953e-002
3.083748e+003;6.799033e-002
3.085677e+003;6.818237e-002
3.087605e+003;6.833557e-002
3.089534e+003;6.897564e-002
3.091462e+003;6.942211e-002
3.093391e+003;6.948557e-002
3.095320e+003;6.962308e-002
3.097248e+003;6.974674e-002
3.099177e+003;6.998927e-002
3.101105e+003;7.043052e-002
3.103034e+003;7.094602e-002
3.104962e+003;7.118540e-002
3.106891e+003;7.120979e-002
3.108819e+003;7.090825e-002
3.110748e+003;7.106709e-002
3.112677e+003;7.190553e-002
3.114605e+003;7.250727e-002
3.116533e+003;7.255175e-002
3.118462e+003;7.239973e-002
3.120391e+003;7.259518e-002
3.122319e+003;7.299270e-002
3.124248e+003;7.329287e-002
3.126176e+003;7.406017e-002
3.128105e+003;7.452370e-002
3.130033e+003;7.489095e-002
3.131962e+003;7.504826e-002
3.133890e+003;7.491512e-002
3.135819e+003;7.506287e-002
3.137748e+003;7.529744e-002
3.139676e+003;7.564546e-002
3.141605e+003;7.608980e-002
3.143533e+003;7.611617e-002
3.145462e+003;7.609588e-002
3.147390e+003;7.653441e-002
3.149319e+003;7.728117e-002
3.151247e+003;7.731383e-002
3.153176e+003;7.765777e-002
3.155104e+003;7.828182e-002
3.157033e+003;7.897496e-002
3.158962e+003;7.922553e-002
3.160890e+003;7.945614e-002
3.162819e+003;8.008204e-002
3.164747e+003;8.068983e-002
3.166676e+003;8.123671e-002
3.168604e+003;8.147804e-002
3.170533e+003;8.117560e-002
3.172461e+003;8.127259e-002
3.174390e+003;8.186013e-002
3.176319e+003;8.231457e-002
3.178247e+003;8.279053e-002
3.180176e+003;8.358079e-002
3.182104e+003;8.379119e-002
3.184033e+003;8.389758e-002
3.185961e+003;8.461444e-002
3.187890e+003;8.534290e-002
3.189818e+003;8.563885e-002
3.191747e+003;8.640166e-002
3.193676e+003;8.678503e-002
3.195604e+003;8.631834e-002
3.197532e+003;8.632355e-002
3.199461e+003;8.734938e-002
3.201390e+003;8.817035e-002
3.203318e+003;8.891513e-002
3.205247e+003;8.963683e-002
3.207175e+003;9.009630e-002
3.209104e+003;9.050757e-002
3.211032e+003;9.123634e-002
3.212961e+003;9.165781e-002
3.214889e+003;9.230842e-002
3.216818e+003;9.342730e-002
3.218747e+003;9.462185e-002
3.220675e+003;9.511109e-002
3.222604e+003;9.544729e-002
3.224532e+003;9.587792e-002
3.226461e+003;9.607319e-002
3.228389e+003;9.600863e-002
3.230318e+003;9.638317e-002
3.232246e+003;9.736676e-002
3.234175e+003;9.819415e-002
3.236104e+003;9.896766e-002
3.238032e+003;9.965404e-002
3.239961e+003;9.987997e-002
3.241889e+003;1.005858e-001
3.243818e+003;1.018208e-001
3.245746e+003;1.024094e-001
3.247675e+003;1.021681e-001
3.249603e+003;1.027888e-001
3.251532e+003;1.044457e-001
3.253460e+003;1.051973e-001
3.255389e+003;1.053225e-001
3.257318e+003;1.055324e-001
3.259246e+003;1.062051e-001
3.261175e+003;1.072098e-001
3.263103e+003;1.087428e-001
3.265032e+003;1.092125e-001
3.266960e+003;1.095547e-001
3.268889e+003;1.104857e-001
3.270817e+003;1.115645e-001
3.272746e+003;1.124419e-001
3.274675e+003;1.128287e-001
3.276603e+003;1.133051e-001
3.278531e+003;1.139483e-001
3.280460e+003;1.144653e-001
3.282389e+003;1.144238e-001
3.284317e+003;1.144716e-001
3.286246e+003;1.151159e-001
3.288174e+003;1.155683e-001
3.290103e+003;1.153462e-001
3.292031e+003;1.153127e-001
3.293960e+003;1.153785e-001
3.295888e+003;1.150661e-001
3.297817e+003;1.151352e-001
3.299746e+003;1.160109e-001
3.301674e+003;1.166094e-001
3.303603e+003;1.157760e-001
3.305531e+003;1.152317e-001
3.307460e+003;1.156676e-001
3.309388e+003;1.160847e-001
3.311317e+003;1.165807e-001
3.313245e+003;1.170753e-001
3.315174e+003;1.173091e-001
3.317103e+003;1.174076e-001
3.319031e+003;1.176965e-001
3.320960e+003;1.181990e-001
3.322888e+003;1.183174e-001
3.324817e+003;1.183647e-001
3.326745e+003;1.182011e-001
3.328674e+003;1.183257e-001
3.330602e+003;1.189149e-001
3.332531e+003;1.196171e-001
3.334459e+003;1.198923e-001
3.336388e+003;1.199929e-001
3.338317e+003;1.199091e-001
3.340245e+003;1.202508e-001
3.342174e+003;1.204728e-001
3.344102e+003;1.201058e-001
3.346031e+003;1.196066e-001
3.347959e+003;1.191256e-001
3.349888e+003;1.192032e-001
3.351816e+003;1.188050e-001
3.353745e+003;1.176509e-001
3.355674e+003;1.171671e-001
3.357602e+003;1.170418e-001
3.359531e+003;1.167546e-001
3.361459e+003;1.166969e-001
3.363388e+003;1.157749e-001
3.365316e+003;1.143482e-001
3.367245e+003;1.138550e-001
3.369173e+003;1.135793e-001
3.371102e+003;1.132084e-001
3.373031e+003;1.128127e-001
3.374959e+003;1.125378e-001
3.376887e+003;1.120577e-001
3.378816e+003;1.111657e-001
3.380745e+003;1.103199e-001
3.382673e+003;1.104139e-001
3.384602e+003;1.105515e-001
3.386530e+003;1.097467e-001
3.388459e+003;1.087628e-001
3.390387e+003;1.083794e-001
3.392316e+003;1.078482e-001
3.394244e+003;1.075404e-001
3.396173e+003;1.073903e-001
3.398102e+003;1.069331e-001
3.400030e+003;1.064099e-001
3.401959e+003;1.058307e-001
3.403887e+003;1.050918e-001
3.405816e+003;1.046172e-001
3.407744e+003;1.044571e-001
3.409673e+003;1.039330e-001
3.411601e+003;1.029237e-001
3.413530e+003;1.022915e-001
3.415458e+003;1.017168e-001
3.417387e+003;1.010836e-001
3.419316e+003;1.004778e-001
3.421244e+003;9.986179e-002
3.423173e+003;9.949557e-002
3.425101e+003;9.863712e-002
3.427030e+003;9.755947e-002
3.428958e+003;9.759323e-002
3.430887e+003;9.712535e-002
3.432815e+003;9.575505e-002
3.434744e+003;9.530012e-002
3.436673e+003;9.547346e-002
3.438601e+003;9.493096e-002
3.440530e+003;9.426356e-002
3.442458e+003;9.336735e-002
3.444387e+003;9.218144e-002
3.446315e+003;9.161837e-002
3.448244e+003;9.096024e-002
3.450172e+003;8.977802e-002
3.452101e+003;8.910738e-002
3.454030e+003;8.869248e-002
3.455958e+003;8.806925e-002
3.457886e+003;8.761686e-002
3.459815e+003;8.718686e-002
3.461744e+003;8.677188e-002
3.463672e+003;8.649343e-002
3.465601e+003;8.598065e-002
3.467529e+003;8.576962e-002
3.469458e+003;8.511018e-002
3.471386e+003;8.401343e-002
3.473315e+003;8.307657e-002
3.475243e+003;8.221822e-002
3.477172e+003;8.115423e-002
3.479101e+003;8.027926e-002
3.481029e+003;7.957723e-002
3.482958e+003;7.913324e-002
3.484886e+003;7.845172e-002
3.486815e+003;7.786044e-002
3.488743e+003;7.749060e-002
3.490672e+003;7.703856e-002
3.492600e+003;7.653235e-002
3.494529e+003;7.591633e-002
3.496458e+003;7.524861e-002
3.498386e+003;7.436064e-002
3.500315e+003;7.347303e-002
3.502243e+003;7.310851e-002
3.504172e+003;7.244983e-002
3.506100e+003;7.128998e-002
3.508029e+003;7.055047e-002
3.509957e+003;7.071309e-002
3.511886e+003;7.116064e-002
3.513814e+003;7.062158e-002
3.515743e+003;6.977880e-002
3.517672e+003;6.867060e-002
3.519600e+003;6.774569e-002
3.521529e+003;6.764103e-002
3.523457e+003;6.775747e-002
3.525386e+003;6.659713e-002
3.527314e+003;6.582438e-002
3.529243e+003;6.562732e-002
3.531171e+003;6.496992e-002
3.533100e+003;6.446980e-002
3.535029e+003;6.399487e-002
3.536957e+003;6.336911e-002
3.538885e+003;6.243104e-002
3.540814e+003;6.201153e-002
3.542743e+003;6.187232e-002
3.544671e+003;6.129516e-002
3.546600e+003;6.050070e-002
3.548528e+003;6.021709e-002
3.550457e+003;5.985314e-002
3.552385e+003;5.952046e-002
3.554314e+003;5.925853e-002
3.556242e+003;5.820034e-002
3.558171e+003;5.748992e-002
3.560100e+003;5.690874e-002
3.562028e+003;5.669145e-002
3.563957e+003;5.623369e-002
3.565885e+003;5.560601e-002
3.567814e+003;5.564653e-002
3.569742e+003;5.565271e-002
3.571671e+003;5.509150e-002
3.573599e+003;5.464802e-002
3.575528e+003;5.417259e-002
3.577457e+003;5.366015e-002
3.579385e+003;5.303985e-002
3.581314e+003;5.247056e-002
3.583242e+003;5.212799e-002
3.585171e+003;5.198287e-002
3.587099e+003;5.141631e-002
3.589028e+003;5.131908e-002
3.590956e+003;5.128273e-002
3.592885e+003;5.068699e-002
3.594813e+003;5.005366e-002
3.596742e+003;4.864302e-002
3.598671e+003;4.748758e-002
3.600599e+003;4.779914e-002
3.602528e+003;4.817193e-002
3.604456e+003;4.792093e-002
3.606385e+003;4.745350e-002
3.608313e+003;4.693387e-002
3.610242e+003;4.642193e-002
3.612170e+003;4.604891e-002
3.614099e+003;4.600422e-002
3.616028e+003;4.600905e-002
3.617956e+003;4.565442e-002
3.619885e+003;4.488797e-002
3.621813e+003;4.405946e-002
3.623742e+003;4.369758e-002
3.625670e+003;4.345431e-002
3.627599e+003;4.284486e-002
3.629527e+003;4.242934e-002
3.631456e+003;4.188764e-002
3.633385e+003;4.104498e-002
3.635313e+003;4.051135e-002
3.637241e+003;4.032726e-002
3.639170e+003;3.988457e-002
3.641099e+003;3.924608e-002
3.643027e+003;3.878500e-002
3.644956e+003;3.854346e-002
3.646884e+003;3.781185e-002
3.648813e+003;3.741805e-002
3.650741e+003;3.709479e-002
3.652670e+003;3.665030e-002
3.654598e+003;3.640929e-002
3.656527e+003;3.606104e-002
3.658456e+003;3.552508e-002
3.660384e+003;3.519776e-002
3.662313e+003;3.487282e-002
3.664241e+003;3.421956e-002
3.666170e+003;3.360581e-002
3.668098e+003;3.313554e-002
3.670027e+003;3.265511e-002
3.671955e+003;3.248104e-002
3.673884e+003;3.235880e-002
3.675813e+003;3.192465e-002
3.677741e+003;3.156583e-002
3.679669e+003;3.173875e-002
3.681598e+003;3.153259e-002
3.683527e+003;3.158097e-002
3.685455e+003;3.156405e-002
3.687384e+003;3.130472e-002
3.689312e+003;3.085889e-002
3.691241e+003;3.027214e-002
3.693169e+003;2.955490e-002
3.695098e+003;2.956667e-002
3.697026e+003;3.005535e-002
3.698955e+003;2.932857e-002
3.700884e+003;2.875676e-002
3.702812e+003;2.939940e-002
3.704741e+003;2.930336e-002
3.706669e+003;2.868165e-002
3.708598e+003;2.818323e-002
3.710526e+003;2.792447e-002
3.712455e+003;2.821018e-002
3.714383e+003;2.826788e-002
3.716312e+003;2.799130e-002
3.718240e+003;2.797122e-002
3.720169e+003;2.789250e-002
3.722098e+003;2.762371e-002
3.724026e+003;2.784123e-002
3.725955e+003;2.821537e-002
3.727883e+003;2.798211e-002
3.729812e+003;2.736521e-002
3.731740e+003;2.704377e-002
3.733669e+003;2.728507e-002
3.735597e+003;2.769631e-002
3.737526e+003;2.746343e-002
3.739455e+003;2.743403e-002
3.741383e+003;2.742672e-002
3.743312e+003;2.722270e-002
3.745240e+003;2.727618e-002
3.747169e+003;2.750928e-002
3.749097e+003;2.757745e-002
3.751026e+003;2.788080e-002
3.752954e+003;2.779001e-002
3.754883e+003;2.731164e-002
3.756812e+003;2.738571e-002
3.758740e+003;2.757420e-002
3.760668e+003;2.734767e-002
3.762597e+003;2.762604e-002
3.764526e+003;2.797649e-002
3.766454e+003;2.783523e-002
3.768383e+003;2.775031e-002
3.770311e+003;2.771111e-002
3.772240e+003;2.735268e-002
3.774168e+003;2.768038e-002
3.776097e+003;2.808503e-002
3.778025e+003;2.778228e-002
3.779954e+003;2.720062e-002
3.781883e+003;2.739707e-002
3.783811e+003;2.750024e-002
3.785740e+003;2.772177e-002
3.787668e+003;2.812953e-002
3.789597e+003;2.782361e-002
3.791525e+003;2.743364e-002
3.793454e+003;2.726817e-002
3.795382e+003;2.756262e-002
3.797311e+003;2.760340e-002
3.799240e+003;2.752277e-002
3.801168e+003;2.739467e-002
3.803097e+003;2.715469e-002
3.805025e+003;2.695520e-002
3.806954e+003;2.701366e-002
3.808882e+003;2.768003e-002
3.810811e+003;2.873333e-002
3.812739e+003;2.931722e-002
3.814668e+003;2.895942e-002
3.816596e+003;2.834236e-002
3.818525e+003;2.833101e-002
3.820454e+003;2.806007e-002
3.822382e+003;2.793324e-002
3.824311e+003;2.831860e-002
3.826239e+003;2.888051e-002
3.828168e+003;2.904535e-002
3.830096e+003;2.904436e-002
3.832025e+003;2.867857e-002
3.833953e+003;2.849267e-002
3.835882e+003;2.862926e-002
3.837811e+003;2.821403e-002
3.839739e+003;2.756919e-002
3.841667e+003;2.798607e-002
3.843596e+003;2.869648e-002
3.845525e+003;2.805506e-002
3.847453e+003;2.805414e-002
3.849382e+003;2.909647e-002
3.851310e+003;2.867789e-002
3.853239e+003;2.843936e-002
3.855167e+003;2.858074e-002
3.857096e+003;2.850123e-002
3.859024e+003;2.869552e-002
3.860953e+003;2.866377e-002
3.862882e+003;2.865917e-002
3.864810e+003;2.918382e-002
3.866739e+003;2.964258e-002
3.868667e+003;2.959430e-002
3.870596e+003;2.952599e-002
3.872524e+003;2.967486e-002
3.874453e+003;2.942340e-002
3.876381e+003;2.900408e-002
3.878310e+003;2.914806e-002
3.880239e+003;2.907299e-002
3.882167e+003;2.928362e-002
3.884096e+003;3.012584e-002
3.886024e+003;3.034729e-002
3.887953e+003;3.001650e-002
3.889881e+003;3.005968e-002
3.891810e+003;2.981626e-002
3.893738e+003;2.977414e-002
3.895667e+003;3.040617e-002
3.897595e+003;3.092731e-002
3.899524e+003;3.058236e-002
3.901453e+003;3.066566e-002
3.903381e+003;3.096990e-002
3.905310e+003;3.049836e-002
3.907238e+003;3.080017e-002
3.909167e+003;3.135654e-002
3.911095e+003;3.130629e-002
3.913024e+003;3.136936e-002
3.914952e+003;3.117829e-002
3.916881e+003;3.108417e-002
3.918810e+003;3.095108e-002
3.920738e+003;3.092770e-002
3.922667e+003;3.131648e-002
3.924595e+003;3.146450e-002
3.926524e+003;3.152689e-002
3.928452e+003;3.174442e-002
3.930381e+003;3.192041e-002
3.932309e+003;3.155272e-002
3.934238e+003;3.160281e-002
3.936167e+003;3.240531e-002
3.938095e+003;3.227416e-002
3.940023e+003;3.198767e-002
3.941952e+003;3.198218e-002
3.943881e+003;3.254253e-002
3.945809e+003;3.317556e-002
3.947738e+003;3.265272e-002
3.949666e+003;3.202226e-002
3.951595e+003;3.234159e-002
3.953523e+003;3.289401e-002
3.955452e+003;3.235223e-002
3.957380e+003;3.146771e-002
3.959309e+003;3.196356e-002
3.961238e+003;3.308867e-002
3.963166e+003;3.277444e-002
3.965095e+003;3.235215e-002
3.967023e+003;3.252946e-002
3.968952e+003;3.299528e-002
3.970880e+003;3.303575e-002
3.972809e+003;3.304129e-002
3.974737e+003;3.278933e-002
3.976666e+003;3.258421e-002
3.978594e+003;3.275150e-002
3.980523e+003;3.385350e-002
3.982452e+003;3.408425e-002
3.984380e+003;3.337099e-002
3.986309e+003;3.294301e-002
3.988237e+003;3.261250e-002
3.990166e+003;3.301401e-002
3.992094e+003;3.346768e-002
3.994023e+003;3.340630e-002
3.995951e+003;3.343897e-002
3.997880e+003;3.314120e-002
3.999809e+003;3.261635e-002
4.001737e+003;0.000000e+000
