3.992094e+002;0.000000e+000
4.011380e+002;0.000000e+000
4.030665e+002;0.000000e+000
4.049951e+002;0.000000e+000
4.069236e+002;0.000000e+000
4.088522e+002;0.000000e+000
4.107807e+002;0.000000e+000
4.127093e+002;0.000000e+000
4.146378e+002;0.000000e+000
4.165664e+002;0.000000e+000
4.184949e+002;0.000000e+000
4.204235e+002;0.000000e+000
4.223520e+002;0.000000e+000
4.242806e+002;0.000000e+000
4.262091e+002;0.000000e+000
4.281377e+002;0.000000e+000
4.300662e+002;0.000000e+000
4.319948e+002;0.000000e+000
4.339233e+002;0.000000e+000
4.358519e+002;0.000000e+000
4.377804e+002;0.000000e+000
4.397090e+002;0.000000e+000
4.416375e+002;0.000000e+000
4.435660e+002;0.000000e+000
4.454946e+002;0.000000e+000
4.474232e+002;0.000000e+000
4.493517e+002;0.000000e+000
4.512802e+002;0.000000e+000
4.532088e+002;0.000000e+000
4.551373e+002;0.000000e+000
4.570659e+002;0.000000e+000
4.589944e+002;0.000000e+000
4.609230e+002;0.000000e+000
4.628515e+002;0.000000e+000
4.647801e+002;0.000000e+000
4.667086e+002;0.000000e+000
4.686372e+002;0.000000e+000
4.705657e+002;0.000000e+000
4.724943e+002;0.000000e+000
4.744228e+002;0.000000e+000
4.763513e+002;0.000000e+000
4.782799e+002;0.000000e+000
4.802085e+002;0.000000e+000
4.821370e+002;0.000000e+000
4.840656e+002;0.000000e+000
4.859941e+002;0.000000e+000
4.879226e+002;0.000000e+000
4.898512e+002;0.000000e+000
4.917798e+002;0.000000e+000
4.937083e+002;0.000000e+000
4.956368e+002;0.000000e+000
4.975654e+002;0.000000e+000
4.994939e+002;0.000000e+000
5.014225e+002;0.000000e+000
5.033510e+002;0.000000e+000
5.052796e+002;0.000000e+000
5.072081e+002;0.000000e+000
5.091367e+002;0.000000e+000
5.110652e+002;0.000000e+000
5.129938e+002;0.000000e+000
5.149223e+002;0.000000e+000
5.168509e+002;0.000000e+000
5.187794e+002;0.000000e+000
5.207079e+002;0.000000e+000
5.226365e+002;0.000000e+000
5.245651e+002;0.000000e+000
5.264936e+002;0.000000e+000
5.284222e+002;0.000000e+000
5.303507e+002;0.000000e+000
5.322792e+002;0.000000e+000
5.342078e+002;0.000000e+000
5.361364e+002;0.000000e+000
5.380649e+002;0.000000e+000
5.399935e+002;0.000000e+000
5.419220e+002;0.000000e+000
5.438505e+002;0.000000e+000
5.457791e+002;0.000000e+000
5.477076e+002;0.000000e+000
5.496362e+002;0.000000e+000
5.515648e+002;0.000000e+000
5.534933e+002;0.000000e+000
5.554218e+002;0.000000e+000
5.573504e+002;0.000000e+000
5.592789e+002;0.000000e+000
5.612075e+002;0.000000e+000
5.631360e+002;0.000000e+000
5.650646e+002;0.000000e+000
5.669931e+002;0.000000e+000
5.689217e+002;0.000000e+000
5.708502e+002;0.000000e+000
5.727787e+002;0.000000e+000
5.747073e+002;0.000000e+000
5.766359e+002;0.000000e+000
5.785644e+002;0.000000e+000
5.804930e+002;0.000000e+000
5.824215e+002;0.000000e+000
5.843500e+002;0.000000e+000
5.862786e+002;0.000000e+000
5.882072e+002;0.000000e+000
5.901357e+002;0.000000e+000
5.920643e+002;0.000000e+000
5.939928e+002;0.000000e+000
5.959213e+002;0.000000e+000
5.978499e+002;0.000000e+000
5.997784e+002;2.384506e-001
6.017070e+002;2.376739e-001
6.036355e+002;2.320187e-001
6.055641e+002;2.305126e-001
6.074926e+002;2.356279e-001
6.094211e+002;2.391120e-001
6.113497e+002;2.371596e-001
6.132783e+002;2.330759e-001
6.152068e+002;2.298886e-001
6.171354e+002;2.260528e-001
6.190639e+002;2.233470e-001
6.209924e+002;2.236868e-001
6.229210e+002;2.225168e-001
6.248495e+002;2.202959e-001
6.267781e+002;2.155408e-001
6.287067e+002;2.143266e-001
6.306352e+002;2.194413e-001
6.325637e+002;2.171110e-001
6.344923e+002;2.104417e-001
6.364208e+002;2.082523e-001
6.383494e+002;2.067376e-001
6.402780e+002;2.077947e-001
6.422065e+002;2.112886e-001
6.441350e+002;2.091949e-001
6.460636e+002;2.049501e-001
6.479921e+002;2.026265e-001
6.499207e+002;1.999866e-001
6.518492e+002;2.020633e-001
6.537778e+002;2.078565e-001
6.557063e+002;2.140526e-001
6.576349e+002;2.169940e-001
6.595634e+002;2.193648e-001
6.614919e+002;2.199960e-001
6.634205e+002;2.180293e-001
6.653491e+002;2.187487e-001
6.672776e+002;2.194171e-001
6.692062e+002;2.165142e-001
6.711347e+002;2.114720e-001
6.730632e+002;2.058564e-001
6.749918e+002;2.009055e-001
6.769203e+002;1.982287e-001
6.788489e+002;1.938578e-001
6.807775e+002;1.902113e-001
6.827060e+002;1.901350e-001
6.846345e+002;1.888165e-001
6.865631e+002;1.867457e-001
6.884916e+002;1.847696e-001
6.904202e+002;1.835741e-001
6.923488e+002;1.844761e-001
6.942773e+002;1.848417e-001
6.962058e+002;1.841223e-001
6.981344e+002;1.840738e-001
7.000629e+002;1.841086e-001
7.019915e+002;1.833099e-001
7.039200e+002;1.815546e-001
7.058486e+002;1.795755e-001
7.077771e+002;1.779547e-001
7.097057e+002;1.769007e-001
7.116342e+002;1.756811e-001
7.135627e+002;1.729128e-001
7.154913e+002;1.706968e-001
7.174199e+002;1.684534e-001
7.193484e+002;1.648782e-001
7.212770e+002;1.625692e-001
7.232055e+002;1.613760e-001
7.251340e+002;1.595614e-001
7.270626e+002;1.575072e-001
7.289911e+002;1.544364e-001
7.309197e+002;1.514686e-001
7.328483e+002;1.498202e-001
7.347768e+002;1.485772e-001
7.367053e+002;1.468651e-001
7.386339e+002;1.449437e-001
7.405624e+002;1.438693e-001
7.424910e+002;1.428321e-001
7.444196e+002;1.421300e-001
7.463481e+002;1.430607e-001
7.482766e+002;1.419574e-001
7.502052e+002;1.395085e-001
7.521337e+002;1.379251e-001
7.540623e+002;1.369954e-001
7.559908e+002;1.361589e-001
7.579194e+002;1.348374e-001
7.598479e+002;1.339561e-001
7.617765e+002;1.339010e-001
7.637050e+002;1.332041e-001
7.656335e+002;1.317671e-001
7.675621e+002;1.313547e-001
7.694907e+002;1.312349e-001
7.714192e+002;1.302361e-001
7.733478e+002;1.292806e-001
7.752763e+002;1.284884e-001
7.772048e+002;1.278737e-001
7.791334e+002;1.290060e-001
7.810620e+002;1.300445e-001
7.829905e+002;1.295487e-001
7.849191e+002;1.280826e-001
7.868476e+002;1.252172e-001
7.887761e+002;1.224790e-001
7.907047e+002;1.206192e-001
7.926332e+002;1.195914e-001
7.945618e+002;1.182498e-001
7.964903e+002;1.160866e-001
7.984189e+002;1.156222e-001
8.003474e+002;1.153717e-001
8.022759e+002;1.148674e-001
8.042045e+002;1.148665e-001
8.061331e+002;1.138173e-001
8.080616e+002;1.133573e-001
8.099902e+002;1.135046e-001
8.119187e+002;1.136129e-001
8.138472e+002;1.127299e-001
8.157758e+002;1.119536e-001
8.177043e+002;1.123087e-001
8.196329e+002;1.121840e-001
8.215615e+002;1.118385e-001
8.234900e+002;1.116192e-001
8.254185e+002;1.120221e-001
8.273471e+002;1.125965e-001
8.292756e+002;1.124172e-001
8.312042e+002;1.124233e-001
8.331328e+002;1.120660e-001
8.350613e+002;1.112876e-001
8.369898e+002;1.108655e-001
8.389184e+002;1.112170e-001
8.408469e+002;1.114317e-001
8.427755e+002;1.119138e-001
8.447040e+002;1.123883e-001
8.466326e+002;1.124215e-001
8.485611e+002;1.121053e-001
8.504897e+002;1.121572e-001
8.524182e+002;1.127378e-001
8.543467e+002;1.130143e-001
8.562753e+002;1.129890e-001
8.582039e+002;1.140467e-001
8.601324e+002;1.159211e-001
8.620610e+002;1.167713e-001
8.639895e+002;1.171921e-001
8.659180e+002;1.184802e-001
8.678466e+002;1.206028e-001
8.697751e+002;1.229523e-001
8.717037e+002;1.252333e-001
8.736323e+002;1.271545e-001
8.755608e+002;1.287257e-001
8.774893e+002;1.308991e-001
8.794179e+002;1.328996e-001
8.813464e+002;1.347772e-001
8.832750e+002;1.372718e-001
8.852036e+002;1.400080e-001
8.871321e+002;1.422059e-001
8.890606e+002;1.437254e-001
8.909892e+002;1.459385e-001
8.929177e+002;1.483495e-001
8.948463e+002;1.495125e-001
8.967748e+002;1.495997e-001
8.987034e+002;1.497275e-001
9.006319e+002;1.496179e-001
9.025605e+002;1.484480e-001
9.044890e+002;1.466330e-001
9.064175e+002;1.450286e-001
9.083461e+002;1.434308e-001
9.102747e+002;1.419377e-001
9.122032e+002;1.409771e-001
9.141318e+002;1.398825e-001
9.160603e+002;1.386330e-001
9.179888e+002;1.379283e-001
9.199174e+002;1.378324e-001
9.218459e+002;1.382080e-001
9.237745e+002;1.390433e-001
9.257031e+002;1.400785e-001
9.276316e+002;1.413617e-001
9.295601e+002;1.428637e-001
9.314887e+002;1.443016e-001
9.334172e+002;1.456680e-001
9.353458e+002;1.471696e-001
9.372744e+002;1.490775e-001
9.392029e+002;1.512156e-001
9.411314e+002;1.530871e-001
9.430600e+002;1.549816e-001
9.449885e+002;1.570838e-001
9.469171e+002;1.595168e-001
9.488456e+002;1.624178e-001
9.507742e+002;1.653528e-001
9.527027e+002;1.685285e-001
9.546313e+002;1.720040e-001
9.565598e+002;1.757517e-001
9.584883e+002;1.799121e-001
9.604169e+002;1.845906e-001
9.623455e+002;1.894222e-001
9.642740e+002;1.944573e-001
9.662026e+002;1.995257e-001
9.681311e+002;2.056499e-001
9.700596e+002;2.128670e-001
9.719882e+002;2.201895e-001
9.739167e+002;2.281737e-001
9.758453e+002;2.375393e-001
9.777739e+002;2.482143e-001
9.797024e+002;2.590720e-001
9.816309e+002;2.683057e-001
9.835595e+002;2.747731e-001
9.854880e+002;2.788795e-001
9.874166e+002;2.819167e-001
9.893452e+002;2.850425e-001
9.912737e+002;2.892826e-001
9.932022e+002;2.946457e-001
9.951307e+002;2.997530e-001
9.970593e+002;3.039388e-001
9.989879e+002;3.070997e-001
1.000916e+003;3.091495e-001
1.002845e+003;3.103365e-001
1.004773e+003;3.110629e-001
1.006702e+003;3.118419e-001
1.008631e+003;3.133890e-001
1.010559e+003;3.159217e-001
1.012488e+003;3.191235e-001
1.014416e+003;3.226552e-001
1.016345e+003;3.253804e-001
1.018273e+003;3.276721e-001
1.020202e+003;3.313012e-001
1.022130e+003;3.340901e-001
1.024059e+003;3.362285e-001
1.025988e+003;3.392314e-001
1.027916e+003;3.415878e-001
1.029845e+003;3.419426e-001
1.031773e+003;3.401635e-001
1.033702e+003;3.363921e-001
1.035630e+003;3.320788e-001
1.037559e+003;3.278227e-001
1.039487e+003;3.244396e-001
1.041416e+003;3.230236e-001
1.043344e+003;3.227517e-001
1.045273e+003;3.225563e-001
1.047202e+003;3.233045e-001
1.049130e+003;3.251212e-001
1.051059e+003;3.258846e-001
1.052987e+003;3.244758e-001
1.054916e+003;3.216416e-001
1.056844e+003;3.178396e-001
1.058773e+003;3.120387e-001
1.060701e+003;3.032885e-001
1.062630e+003;2.931560e-001
1.064558e+003;2.828384e-001
1.066487e+003;2.732668e-001
1.068416e+003;2.651278e-001
1.070344e+003;2.574829e-001
1.072273e+003;2.513340e-001
1.074201e+003;2.474336e-001
1.076130e+003;2.436887e-001
1.078058e+003;2.390684e-001
1.079987e+003;2.348516e-001
1.081915e+003;2.318423e-001
1.083844e+003;2.304742e-001
1.085773e+003;2.294789e-001
1.087701e+003;2.279643e-001
1.089630e+003;2.273470e-001
1.091558e+003;2.276531e-001
1.093487e+003;2.280419e-001
1.095415e+003;2.284528e-001
1.097344e+003;2.292011e-001
1.099272e+003;2.295768e-001
1.101201e+003;2.294995e-001
1.103129e+003;2.287415e-001
1.105058e+003;2.265190e-001
1.106987e+003;2.231160e-001
1.108915e+003;2.198934e-001
1.110844e+003;2.162453e-001
1.112772e+003;2.109746e-001
1.114701e+003;2.039549e-001
1.116629e+003;1.961520e-001
1.118558e+003;1.896456e-001
1.120486e+003;1.840340e-001
1.122415e+003;1.789988e-001
1.124344e+003;1.739797e-001
1.126272e+003;1.685738e-001
1.128201e+003;1.632003e-001
1.130129e+003;1.591876e-001
1.132058e+003;1.556877e-001
1.133986e+003;1.524775e-001
1.135915e+003;1.504229e-001
1.137843e+003;1.493191e-001
1.139772e+003;1.494025e-001
1.141700e+003;1.504502e-001
1.143629e+003;1.518094e-001
1.145557e+003;1.529950e-001
1.147486e+003;1.539455e-001
1.149415e+003;1.549569e-001
1.151343e+003;1.561228e-001
1.153272e+003;1.570443e-001
1.155200e+003;1.578795e-001
1.157129e+003;1.583080e-001
1.159057e+003;1.579137e-001
1.160986e+003;1.562181e-001
1.162914e+003;1.528909e-001
1.164843e+003;1.485914e-001
1.166771e+003;1.440675e-001
1.168700e+003;1.388814e-001
1.170629e+003;1.333412e-001
1.172557e+003;1.281789e-001
1.174486e+003;1.235727e-001
1.176414e+003;1.200114e-001
1.178343e+003;1.170309e-001
1.180271e+003;1.143754e-001
1.182200e+003;1.122687e-001
1.184128e+003;1.108545e-001
1.186057e+003;1.102938e-001
1.187986e+003;1.110602e-001
1.189914e+003;1.124301e-001
1.191843e+003;1.142686e-001
1.193771e+003;1.165486e-001
1.195700e+003;1.185763e-001
1.197628e+003;1.205707e-001
1.199557e+003;1.221626e-001
1.201485e+003;1.227530e-001
1.203414e+003;1.225674e-001
1.205343e+003;1.216667e-001
1.207271e+003;1.199448e-001
1.209200e+003;1.174490e-001
1.211128e+003;1.148938e-001
1.213057e+003;1.127051e-001
1.214985e+003;1.114137e-001
1.216914e+003;1.116941e-001
1.218842e+003;1.128842e-001
1.220771e+003;1.139849e-001
1.222699e+003;1.156860e-001
1.224628e+003;1.175106e-001
1.226557e+003;1.189560e-001
1.228485e+003;1.206911e-001
1.230414e+003;1.222860e-001
1.232342e+003;1.233899e-001
1.234271e+003;1.241648e-001
1.236199e+003;1.246016e-001
1.238128e+003;1.249093e-001
1.240056e+003;1.253924e-001
1.241985e+003;1.257693e-001
1.243913e+003;1.262535e-001
1.245842e+003;1.272179e-001
1.247771e+003;1.278306e-001
1.249699e+003;1.276567e-001
1.251628e+003;1.272441e-001
1.253556e+003;1.268078e-001
1.255485e+003;1.261515e-001
1.257413e+003;1.256367e-001
1.259342e+003;1.249731e-001
1.261270e+003;1.239314e-001
1.263199e+003;1.231915e-001
1.265127e+003;1.236038e-001
1.267056e+003;1.248729e-001
1.268985e+003;1.263904e-001
1.270913e+003;1.277859e-001
1.272842e+003;1.290565e-001
1.274770e+003;1.297988e-001
1.276699e+003;1.297942e-001
1.278627e+003;1.298241e-001
1.280556e+003;1.296134e-001
1.282484e+003;1.287735e-001
1.284413e+003;1.281763e-001
1.286342e+003;1.281945e-001
1.288270e+003;1.283475e-001
1.290199e+003;1.287119e-001
1.292127e+003;1.294943e-001
1.294056e+003;1.305623e-001
1.295984e+003;1.319824e-001
1.297913e+003;1.337491e-001
1.299841e+003;1.359228e-001
1.301770e+003;1.387802e-001
1.303698e+003;1.420573e-001
1.305627e+003;1.456739e-001
1.307556e+003;1.496045e-001
1.309484e+003;1.534618e-001
1.311413e+003;1.570249e-001
1.313341e+003;1.594958e-001
1.315270e+003;1.603845e-001
1.317198e+003;1.596259e-001
1.319127e+003;1.577389e-001
1.321055e+003;1.553985e-001
1.322984e+003;1.527985e-001
1.324912e+003;1.505553e-001
1.326841e+003;1.487751e-001
1.328770e+003;1.474256e-001
1.330698e+003;1.469349e-001
1.332627e+003;1.469845e-001
1.334555e+003;1.464427e-001
1.336484e+003;1.451465e-001
1.338412e+003;1.437794e-001
1.340341e+003;1.421233e-001
1.342269e+003;1.399954e-001
1.344198e+003;1.376380e-001
1.346126e+003;1.356711e-001
1.348055e+003;1.345657e-001
1.349984e+003;1.343212e-001
1.351912e+003;1.344905e-001
1.353841e+003;1.350226e-001
1.355769e+003;1.361040e-001
1.357698e+003;1.369559e-001
1.359626e+003;1.374679e-001
1.361555e+003;1.373254e-001
1.363483e+003;1.369722e-001
1.365412e+003;1.369004e-001
1.367341e+003;1.366525e-001
1.369269e+003;1.357924e-001
1.371198e+003;1.345163e-001
1.373126e+003;1.329548e-001
1.375055e+003;1.308911e-001
1.376983e+003;1.285478e-001
1.378912e+003;1.264876e-001
1.380840e+003;1.246986e-001
1.382769e+003;1.225561e-001
1.384698e+003;1.203810e-001
1.386626e+003;1.188955e-001
1.388555e+003;1.176140e-001
1.390483e+003;1.165005e-001
1.392412e+003;1.156382e-001
1.394340e+003;1.153788e-001
1.396269e+003;1.152856e-001
1.398197e+003;1.151051e-001
1.400126e+003;1.153866e-001
1.402054e+003;1.158178e-001
1.403983e+003;1.160677e-001
1.405911e+003;1.161182e-001
1.407840e+003;1.164411e-001
1.409769e+003;1.170152e-001
1.411697e+003;1.177740e-001
1.413626e+003;1.184295e-001
1.415554e+003;1.189700e-001
1.417483e+003;1.202510e-001
1.419411e+003;1.216937e-001
1.421340e+003;1.226620e-001
1.423268e+003;1.235213e-001
1.425197e+003;1.240798e-001
1.427125e+003;1.242949e-001
1.429054e+003;1.241044e-001
1.430983e+003;1.236453e-001
1.432911e+003;1.226357e-001
1.434840e+003;1.212115e-001
1.436768e+003;1.199553e-001
1.438697e+003;1.188819e-001
1.440625e+003;1.181298e-001
1.442554e+003;1.177215e-001
1.444482e+003;1.174672e-001
1.446411e+003;1.170545e-001
1.448340e+003;1.165913e-001
1.450268e+003;1.162532e-001
1.452197e+003;1.160281e-001
1.454125e+003;1.154410e-001
1.456054e+003;1.143337e-001
1.457982e+003;1.131904e-001
1.459911e+003;1.119780e-001
1.461839e+003;1.107043e-001
1.463768e+003;1.094323e-001
1.465697e+003;1.078650e-001
1.467625e+003;1.059405e-001
1.469554e+003;1.040051e-001
1.471482e+003;1.019066e-001
1.473411e+003;9.981229e-002
1.475339e+003;9.769073e-002
1.477268e+003;9.580272e-002
1.479196e+003;9.450078e-002
1.481125e+003;9.315678e-002
1.483053e+003;9.153740e-002
1.484982e+003;8.982158e-002
1.486911e+003;8.822219e-002
1.488839e+003;8.666738e-002
1.490768e+003;8.517060e-002
1.492696e+003;8.414923e-002
1.494625e+003;8.358622e-002
1.496553e+003;8.322065e-002
1.498482e+003;8.278275e-002
1.500410e+003;8.243177e-002
1.502339e+003;8.223023e-002
1.504267e+003;8.226988e-002
1.506196e+003;8.250689e-002
1.508125e+003;8.268053e-002
1.510053e+003;8.270647e-002
1.511982e+003;8.274326e-002
1.513910e+003;8.248469e-002
1.515839e+003;8.212762e-002
1.517767e+003;8.166359e-002
1.519696e+003;8.108174e-002
1.521624e+003;8.106425e-002
1.523553e+003;8.118019e-002
1.525481e+003;8.102012e-002
1.527410e+003;8.126520e-002
1.529339e+003;8.137216e-002
1.531267e+003;8.126324e-002
1.533196e+003;8.138216e-002
1.535124e+003;8.141165e-002
1.537053e+003;8.111996e-002
1.538981e+003;8.094406e-002
1.540910e+003;8.100671e-002
1.542838e+003;8.101625e-002
1.544767e+003;8.094686e-002
1.546695e+003;8.086953e-002
1.548624e+003;8.075196e-002
1.550553e+003;8.045585e-002
1.552481e+003;8.010953e-002
1.554410e+003;7.987490e-002
1.556338e+003;7.962296e-002
1.558267e+003;7.939830e-002
1.560195e+003;7.908753e-002
1.562124e+003;7.888130e-002
1.564052e+003;7.882877e-002
1.565981e+003;7.902572e-002
1.567910e+003;7.928303e-002
1.569838e+003;7.960641e-002
1.571767e+003;7.980847e-002
1.573695e+003;8.011793e-002
1.575624e+003;8.056014e-002
1.577552e+003;8.068189e-002
1.579481e+003;8.090893e-002
1.581409e+003;8.133297e-002
1.583338e+003;8.186086e-002
1.585266e+003;8.241534e-002
1.587195e+003;8.303645e-002
1.589124e+003;8.381245e-002
1.591052e+003;8.457112e-002
1.592981e+003;8.520508e-002
1.594909e+003;8.578008e-002
1.596838e+003;8.671686e-002
1.598766e+003;8.820538e-002
1.600695e+003;8.967780e-002
1.602623e+003;9.122971e-002
1.604552e+003;9.319370e-002
1.606480e+003;9.501334e-002
1.608409e+003;9.655372e-002
1.610338e+003;9.792062e-002
1.612266e+003;9.920434e-002
1.614195e+003;1.004663e-001
1.616123e+003;1.016940e-001
1.618052e+003;1.027654e-001
1.619980e+003;1.034463e-001
1.621909e+003;1.038299e-001
1.623837e+003;1.039544e-001
1.625766e+003;1.040061e-001
1.627694e+003;1.042730e-001
1.629623e+003;1.045324e-001
1.631552e+003;1.045841e-001
1.633480e+003;1.044316e-001
1.635409e+003;1.043046e-001
1.637337e+003;1.043411e-001
1.639266e+003;1.043423e-001
1.641194e+003;1.040551e-001
1.643123e+003;1.038074e-001
1.645051e+003;1.037891e-001
1.646980e+003;1.033428e-001
1.648909e+003;1.023846e-001
1.650837e+003;1.017493e-001
1.652766e+003;1.010414e-001
1.654694e+003;9.988005e-002
1.656623e+003;9.870274e-002
1.658551e+003;9.763090e-002
1.660480e+003;9.652165e-002
1.662408e+003;9.528761e-002
1.664337e+003;9.402005e-002
1.666266e+003;9.268008e-002
1.668194e+003;9.151629e-002
1.670123e+003;9.023678e-002
1.672051e+003;8.854213e-002
1.673980e+003;8.692659e-002
1.675908e+003;8.576228e-002
1.677837e+003;8.475904e-002
1.679765e+003;8.354569e-002
1.681694e+003;8.213615e-002
1.683622e+003;8.057370e-002
1.685551e+003;7.936286e-002
1.687479e+003;7.845918e-002
1.689408e+003;7.731553e-002
1.691337e+003;7.607516e-002
1.693265e+003;7.490335e-002
1.695194e+003;7.389344e-002
1.697122e+003;7.306723e-002
1.699051e+003;7.195272e-002
1.700979e+003;7.092959e-002
1.702908e+003;7.030455e-002
1.704836e+003;6.938320e-002
1.706765e+003;6.843606e-002
1.708693e+003;6.759964e-002
1.710622e+003;6.701602e-002
1.712551e+003;6.661574e-002
1.714479e+003;6.632100e-002
1.716408e+003;6.610408e-002
1.718336e+003;6.602916e-002
1.720265e+003;6.595079e-002
1.722193e+003;6.583919e-002
1.724122e+003;6.589433e-002
1.726050e+003;6.603140e-002
1.727979e+003;6.627206e-002
1.729908e+003;6.644925e-002
1.731836e+003;6.648597e-002
1.733765e+003;6.642725e-002
1.735693e+003;6.621999e-002
1.737622e+003;6.613255e-002
1.739550e+003;6.571154e-002
1.741479e+003;6.479571e-002
1.743407e+003;6.403595e-002
1.745336e+003;6.343559e-002
1.747265e+003;6.243938e-002
1.749193e+003;6.119562e-002
1.751122e+003;6.033331e-002
1.753050e+003;5.958306e-002
1.754979e+003;5.871529e-002
1.756907e+003;5.805068e-002
1.758836e+003;5.776049e-002
1.760764e+003;5.727461e-002
1.762693e+003;5.668835e-002
1.764621e+003;5.619986e-002
1.766550e+003;5.597410e-002
1.768479e+003;5.605688e-002
1.770407e+003;5.595412e-002
1.772336e+003;5.570292e-002
1.774264e+003;5.547531e-002
1.776193e+003;5.523969e-002
1.778121e+003;5.507740e-002
1.780050e+003;5.494606e-002
1.781978e+003;5.471164e-002
1.783907e+003;5.442794e-002
1.785835e+003;5.425671e-002
1.787764e+003;5.405872e-002
1.789693e+003;5.382623e-002
1.791621e+003;5.372580e-002
1.793550e+003;5.369746e-002
1.795478e+003;5.371257e-002
1.797407e+003;5.363979e-002
1.799335e+003;5.338812e-002
1.801264e+003;5.324895e-002
1.803192e+003;5.335350e-002
1.805121e+003;5.314435e-002
1.807049e+003;5.292111e-002
1.808978e+003;5.295011e-002
1.810907e+003;5.266484e-002
1.812835e+003;5.242121e-002
1.814764e+003;5.232364e-002
1.816692e+003;5.216232e-002
1.818621e+003;5.215843e-002
1.820549e+003;5.222820e-002
1.822478e+003;5.209055e-002
1.824406e+003;5.190120e-002
1.826335e+003;5.176769e-002
1.828264e+003;5.145767e-002
1.830192e+003;5.140225e-002
1.832121e+003;5.153530e-002
1.834049e+003;5.150270e-002
1.835978e+003;5.135234e-002
1.837906e+003;5.114773e-002
1.839835e+003;5.089094e-002
1.841763e+003;5.079905e-002
1.843692e+003;5.081175e-002
1.845620e+003;5.069652e-002
1.847549e+003;5.053227e-002
1.849478e+003;5.037175e-002
1.851406e+003;5.015908e-002
1.853335e+003;5.036018e-002
1.855263e+003;5.056577e-002
1.857192e+003;5.039899e-002
1.859120e+003;5.026859e-002
1.861049e+003;5.010899e-002
1.862977e+003;5.004887e-002
1.864906e+003;5.027149e-002
1.866834e+003;5.039252e-002
1.868763e+003;5.043676e-002
1.870692e+003;5.040011e-002
1.872620e+003;5.027190e-002
1.874549e+003;5.029336e-002
1.876477e+003;5.023820e-002
1.878406e+003;5.009170e-002
1.880334e+003;5.018634e-002
1.882263e+003;5.023626e-002
1.884191e+003;5.006560e-002
1.886120e+003;4.996848e-002
1.888048e+003;5.006151e-002
1.889977e+003;5.010981e-002
1.891906e+003;4.996822e-002
1.893834e+003;4.983461e-002
1.895763e+003;4.991934e-002
1.897691e+003;4.993819e-002
1.899620e+003;4.982632e-002
1.901548e+003;4.987541e-002
1.903477e+003;4.977942e-002
1.905405e+003;4.978671e-002
1.907334e+003;4.982751e-002
1.909262e+003;4.972254e-002
1.911191e+003;4.979102e-002
1.913120e+003;4.985750e-002
1.915048e+003;5.002422e-002
1.916977e+003;5.026025e-002
1.918905e+003;5.050941e-002
1.920834e+003;5.054347e-002
1.922762e+003;5.036934e-002
1.924691e+003;5.038437e-002
1.926619e+003;5.050606e-002
1.928548e+003;5.041153e-002
1.930477e+003;5.049404e-002
1.932405e+003;5.055650e-002
1.934334e+003;5.045031e-002
1.936262e+003;5.054336e-002
1.938191e+003;5.073090e-002
1.940119e+003;5.087284e-002
1.942048e+003;5.105064e-002
1.943976e+003;5.131401e-002
1.945905e+003;5.135902e-002
1.947833e+003;5.128030e-002
1.949762e+003;5.132430e-002
1.951691e+003;5.161549e-002
1.953619e+003;5.195322e-002
1.955548e+003;5.202996e-002
1.957476e+003;5.201600e-002
1.959405e+003;5.201110e-002
1.961333e+003;5.209291e-002
1.963262e+003;5.212025e-002
1.965190e+003;5.195706e-002
1.967119e+003;5.196349e-002
1.969047e+003;5.221784e-002
1.970976e+003;5.239810e-002
1.972905e+003;5.252624e-002
1.974833e+003;5.256251e-002
1.976762e+003;5.266708e-002
1.978690e+003;5.290666e-002
1.980619e+003;5.280424e-002
1.982547e+003;5.271044e-002
1.984476e+003;5.308503e-002
1.986404e+003;5.331435e-002
1.988333e+003;5.338512e-002
1.990261e+003;5.352786e-002
1.992190e+003;5.366210e-002
1.994119e+003;5.368249e-002
1.996047e+003;5.360036e-002
1.997976e+003;5.372741e-002
1.999904e+003;5.384979e-002
2.001833e+003;5.398833e-002
2.003761e+003;5.415183e-002
2.005690e+003;5.429873e-002
2.007618e+003;5.431623e-002
2.009547e+003;5.416253e-002
2.011476e+003;5.430939e-002
2.013404e+003;5.460142e-002
2.015333e+003;5.466774e-002
2.017261e+003;5.485376e-002
2.019190e+003;5.523160e-002
2.021118e+003;5.531074e-002
2.023047e+003;5.520545e-002
2.024975e+003;5.545125e-002
2.026904e+003;5.575822e-002
2.028833e+003;5.572028e-002
2.030761e+003;5.566499e-002
2.032690e+003;5.578953e-002
2.034618e+003;5.605778e-002
2.036547e+003;5.627080e-002
2.038475e+003;5.631595e-002
2.040404e+003;5.620212e-002
2.042332e+003;5.628796e-002
2.044261e+003;5.640227e-002
2.046189e+003;5.657163e-002
2.048118e+003;5.681390e-002
2.050047e+003;5.671969e-002
2.051975e+003;5.649622e-002
2.053904e+003;5.667283e-002
2.055832e+003;5.674219e-002
2.057761e+003;5.661323e-002
2.059689e+003;5.657325e-002
2.061618e+003;5.654325e-002
2.063546e+003;5.666672e-002
2.065475e+003;5.666113e-002
2.067404e+003;5.650177e-002
2.069332e+003;5.672289e-002
2.071260e+003;5.682927e-002
2.073189e+003;5.660405e-002
2.075118e+003;5.646173e-002
2.077046e+003;5.633542e-002
2.078975e+003;5.636137e-002
2.080903e+003;5.637533e-002
2.082832e+003;5.614801e-002
2.084760e+003;5.601104e-002
2.086689e+003;5.613711e-002
2.088617e+003;5.632780e-002
2.090546e+003;5.638959e-002
2.092475e+003;5.643966e-002
2.094403e+003;5.655842e-002
2.096332e+003;5.640989e-002
2.098260e+003;5.643144e-002
2.100189e+003;5.667404e-002
2.102117e+003;5.676447e-002
2.104046e+003;5.690975e-002
2.105974e+003;5.713812e-002
2.107903e+003;5.723246e-002
2.109832e+003;5.713823e-002
2.111760e+003;5.714575e-002
2.113688e+003;5.730376e-002
2.115617e+003;5.759229e-002
2.117546e+003;5.796904e-002
2.119474e+003;5.810269e-002
2.121403e+003;5.802709e-002
2.123331e+003;5.797680e-002
2.125260e+003;5.806137e-002
2.127188e+003;5.822739e-002
2.129117e+003;5.817856e-002
2.131045e+003;5.827453e-002
2.132974e+003;5.848128e-002
2.134903e+003;5.840289e-002
2.136831e+003;5.804311e-002
2.138760e+003;5.775882e-002
2.140688e+003;5.768484e-002
2.142617e+003;5.760144e-002
2.144545e+003;5.740377e-002
2.146474e+003;5.743225e-002
2.148402e+003;5.772427e-002
2.150331e+003;5.771106e-002
2.152260e+003;5.743505e-002
2.154188e+003;5.737069e-002
2.156117e+003;5.728675e-002
2.158045e+003;5.691153e-002
2.159974e+003;5.639178e-002
2.161902e+003;5.627548e-002
2.163831e+003;5.629445e-002
2.165759e+003;5.618278e-002
2.167688e+003;5.605477e-002
2.169616e+003;5.598635e-002
2.171545e+003;5.570356e-002
2.173474e+003;5.550543e-002
2.175402e+003;5.546221e-002
2.177331e+003;5.537220e-002
2.179259e+003;5.521302e-002
2.181188e+003;5.498337e-002
2.183116e+003;5.494727e-002
2.185045e+003;5.487662e-002
2.186973e+003;5.465380e-002
2.188902e+003;5.456671e-002
2.190831e+003;5.440601e-002
2.192759e+003;5.421351e-002
2.194688e+003;5.416673e-002
2.196616e+003;5.425991e-002
2.198545e+003;5.446295e-002
2.200473e+003;5.433526e-002
2.202402e+003;5.421163e-002
2.204330e+003;5.410961e-002
2.206259e+003;5.384030e-002
2.208188e+003;5.380602e-002
2.210116e+003;5.395527e-002
2.212044e+003;5.404018e-002
2.213973e+003;5.404288e-002
2.215902e+003;5.403898e-002
2.217830e+003;5.398720e-002
2.219759e+003;5.405407e-002
2.221687e+003;5.415540e-002
2.223616e+003;5.394593e-002
2.225544e+003;5.374721e-002
2.227473e+003;5.392320e-002
2.229401e+003;5.394019e-002
2.231330e+003;5.389502e-002
2.233259e+003;5.380512e-002
2.235187e+003;5.349679e-002
2.237116e+003;5.338160e-002
2.239044e+003;5.353851e-002
2.240973e+003;5.364107e-002
2.242901e+003;5.352947e-002
2.244830e+003;5.335470e-002
2.246758e+003;5.332784e-002
2.248687e+003;5.335740e-002
2.250615e+003;5.332612e-002
2.252544e+003;5.330660e-002
2.254473e+003;5.326078e-002
2.256401e+003;5.304962e-002
2.258330e+003;5.288903e-002
2.260258e+003;5.275365e-002
2.262187e+003;5.259374e-002
2.264115e+003;5.245295e-002
2.266044e+003;5.234805e-002
2.267972e+003;5.229827e-002
2.269901e+003;5.238506e-002
2.271830e+003;5.224935e-002
2.273758e+003;5.213366e-002
2.275687e+003;5.203919e-002
2.277615e+003;5.191121e-002
2.279544e+003;5.185087e-002
2.281472e+003;5.174974e-002
2.283401e+003;5.163437e-002
2.285329e+003;5.154583e-002
2.287258e+003;5.180386e-002
2.289187e+003;5.195086e-002
2.291115e+003;5.164023e-002
2.293043e+003;5.159892e-002
2.294972e+003;5.164613e-002
2.296901e+003;5.160228e-002
2.298829e+003;5.171002e-002
2.300758e+003;5.173783e-002
2.302686e+003;5.147401e-002
2.304615e+003;5.134410e-002
2.306543e+003;5.157049e-002
2.308472e+003;5.171999e-002
2.310400e+003;5.166968e-002
2.312329e+003;5.170599e-002
2.314258e+003;5.178411e-002
2.316186e+003;5.186883e-002
2.318115e+003;5.170592e-002
2.320043e+003;5.152546e-002
2.321972e+003;5.160433e-002
2.323900e+003;5.184347e-002
2.325829e+003;5.201678e-002
2.327757e+003;5.207905e-002
2.329686e+003;5.207755e-002
2.331615e+003;5.210385e-002
2.333543e+003;5.242110e-002
2.335472e+003;5.268485e-002
2.337400e+003;5.279675e-002
2.339329e+003;5.281086e-002
2.341257e+003;5.266977e-002
2.343186e+003;5.268507e-002
2.345114e+003;5.298620e-002
2.347043e+003;5.318090e-002
2.348971e+003;5.317195e-002
2.350900e+003;5.326277e-002
2.352829e+003;5.328292e-002
2.354757e+003;5.324595e-002
2.356686e+003;5.345463e-002
2.358614e+003;5.358671e-002
2.360543e+003;5.380752e-002
2.362471e+003;5.409914e-002
2.364400e+003;5.406945e-002
2.366328e+003;5.408371e-002
2.368257e+003;5.397118e-002
2.370186e+003;5.402724e-002
2.372114e+003;5.435092e-002
2.374042e+003;5.447610e-002
2.375971e+003;5.461029e-002
2.377900e+003;5.480696e-002
2.379828e+003;5.473065e-002
2.381757e+003;5.484045e-002
2.383685e+003;5.498179e-002
2.385614e+003;5.508040e-002
2.387542e+003;5.549873e-002
2.389471e+003;5.561471e-002
2.391399e+003;5.548709e-002
2.393328e+003;5.561588e-002
2.395257e+003;5.596295e-002
2.397185e+003;5.612082e-002
2.399114e+003;5.629325e-002
2.401042e+003;5.656427e-002
2.402971e+003;5.684000e-002
2.404899e+003;5.682610e-002
2.406828e+003;5.690186e-002
2.408756e+003;5.729544e-002
2.410685e+003;5.720551e-002
2.412614e+003;5.681903e-002
2.414542e+003;5.710788e-002
2.416471e+003;5.754239e-002
2.418399e+003;5.766717e-002
2.420328e+003;5.785016e-002
2.422256e+003;5.808257e-002
2.424185e+003;5.814413e-002
2.426113e+003;5.830697e-002
2.428042e+003;5.844542e-002
2.429970e+003;5.849220e-002
2.431899e+003;5.876771e-002
2.433828e+003;5.908071e-002
2.435756e+003;5.926218e-002
2.437685e+003;5.934030e-002
2.439613e+003;5.931485e-002
2.441542e+003;5.939592e-002
2.443470e+003;5.969956e-002
2.445399e+003;5.990924e-002
2.447327e+003;6.003097e-002
2.449256e+003;6.004451e-002
2.451185e+003;6.044259e-002
2.453113e+003;6.084934e-002
2.455042e+003;6.075695e-002
2.456970e+003;6.050581e-002
2.458899e+003;6.054435e-002
2.460827e+003;6.081187e-002
2.462756e+003;6.092665e-002
2.464684e+003;6.104706e-002
2.466613e+003;6.110026e-002
2.468542e+003;6.122580e-002
2.470470e+003;6.147980e-002
2.472398e+003;6.175706e-002
2.474327e+003;6.216620e-002
2.476256e+003;6.246727e-002
2.478184e+003;6.234413e-002
2.480113e+003;6.211302e-002
2.482041e+003;6.230860e-002
2.483970e+003;6.263163e-002
2.485898e+003;6.291847e-002
2.487827e+003;6.308239e-002
2.489755e+003;6.307438e-002
2.491684e+003;6.341646e-002
2.493613e+003;6.374611e-002
2.495541e+003;6.357040e-002
2.497470e+003;6.363561e-002
2.499398e+003;6.367931e-002
2.501327e+003;6.376974e-002
2.503255e+003;6.397867e-002
2.505184e+003;6.405520e-002
2.507112e+003;6.419457e-002
2.509041e+003;6.430268e-002
2.510969e+003;6.430029e-002
2.512898e+003;6.461558e-002
2.514827e+003;6.501260e-002
2.516755e+003;6.499289e-002
2.518684e+003;6.508800e-002
2.520612e+003;6.512056e-002
2.522541e+003;6.493106e-002
2.524469e+003;6.490759e-002
2.526398e+003;6.516013e-002
2.528326e+003;6.556035e-002
2.530255e+003;6.572553e-002
2.532184e+003;6.562100e-002
2.534112e+003;6.573802e-002
2.536041e+003;6.589475e-002
2.537969e+003;6.586899e-002
2.539898e+003;6.565049e-002
2.541826e+003;6.551345e-002
2.543755e+003;6.575695e-002
2.545683e+003;6.591168e-002
2.547612e+003;6.589151e-002
2.549541e+003;6.591156e-002
2.551469e+003;6.607812e-002
2.553397e+003;6.611461e-002
2.555326e+003;6.607492e-002
2.557255e+003;6.630614e-002
2.559183e+003;6.638667e-002
2.561112e+003;6.636825e-002
2.563040e+003;6.667732e-002
2.564969e+003;6.678028e-002
2.566897e+003;6.667813e-002
2.568826e+003;6.648632e-002
2.570754e+003;6.632282e-002
2.572683e+003;6.668265e-002
2.574612e+003;6.699437e-002
2.576540e+003;6.703304e-002
2.578469e+003;6.699913e-002
2.580397e+003;6.697868e-002
2.582326e+003;6.703562e-002
2.584254e+003;6.719642e-002
2.586183e+003;6.749006e-002
2.588111e+003;6.758628e-002
2.590040e+003;6.740251e-002
2.591969e+003;6.766786e-002
2.593897e+003;6.782266e-002
2.595826e+003;6.759774e-002
2.597754e+003;6.790617e-002
2.599683e+003;6.809853e-002
2.601611e+003;6.839677e-002
2.603540e+003;6.902000e-002
2.605468e+003;6.911905e-002
2.607397e+003;6.878321e-002
2.609325e+003;6.861670e-002
2.611254e+003;6.880064e-002
2.613183e+003;6.905367e-002
2.615111e+003;6.943471e-002
2.617040e+003;6.951263e-002
2.618968e+003;6.921646e-002
2.620897e+003;6.938172e-002
2.622825e+003;6.966991e-002
2.624754e+003;6.969648e-002
2.626682e+003;6.994525e-002
2.628611e+003;7.008267e-002
2.630540e+003;7.002345e-002
2.632468e+003;7.014614e-002
2.634396e+003;7.011823e-002
2.636325e+003;7.021967e-002
2.638254e+003;7.059347e-002
2.640182e+003;7.081405e-002
2.642111e+003;7.101028e-002
2.644039e+003;7.113773e-002
2.645968e+003;7.129104e-002
2.647896e+003;7.122599e-002
2.649825e+003;7.127421e-002
2.651753e+003;7.155115e-002
2.653682e+003;7.141694e-002
2.655611e+003;7.132251e-002
2.657539e+003;7.169279e-002
2.659468e+003;7.201885e-002
2.661396e+003;7.210538e-002
2.663325e+003;7.203067e-002
2.665253e+003;7.209618e-002
2.667182e+003;7.243856e-002
2.669110e+003;7.235945e-002
2.671039e+003;7.250790e-002
2.672968e+003;7.290506e-002
2.674896e+003;7.314494e-002
2.676825e+003;7.334457e-002
2.678753e+003;7.315212e-002
2.680682e+003;7.311463e-002
2.682610e+003;7.342379e-002
2.684539e+003;7.364557e-002
2.686467e+003;7.358916e-002
2.688396e+003;7.347393e-002
2.690324e+003;7.361861e-002
2.692253e+003;7.384124e-002
2.694182e+003;7.426510e-002
2.696110e+003;7.451221e-002
2.698039e+003;7.446030e-002
2.699967e+003;7.454880e-002
2.701896e+003;7.505622e-002
2.703824e+003;7.537598e-002
2.705753e+003;7.545079e-002
2.707681e+003;7.541961e-002
2.709610e+003;7.543889e-002
2.711539e+003;7.578158e-002
2.713467e+003;7.587469e-002
2.715396e+003;7.568979e-002
2.717324e+003;7.589190e-002
2.719253e+003;7.617208e-002
2.721181e+003;7.604662e-002
2.723110e+003;7.599407e-002
2.725038e+003;7.640903e-002
2.726967e+003;7.661203e-002
2.728896e+003;7.627231e-002
2.730824e+003;7.665981e-002
2.732752e+003;7.679471e-002
2.734681e+003;7.687472e-002
2.736610e+003;7.686634e-002
2.738538e+003;7.668587e-002
2.740467e+003;7.698622e-002
2.742395e+003;7.732800e-002
2.744324e+003;7.717062e-002
2.746252e+003;7.691834e-002
2.748181e+003;7.693480e-002
2.750109e+003;7.687864e-002
2.752038e+003;7.715977e-002
2.753967e+003;7.750038e-002
2.755895e+003;7.721221e-002
2.757824e+003;7.702789e-002
2.759752e+003;7.736079e-002
2.761681e+003;7.770841e-002
2.763609e+003;7.764917e-002
2.765538e+003;7.762326e-002
2.767466e+003;7.787907e-002
2.769395e+003;7.814162e-002
2.771323e+003;7.818438e-002
2.773252e+003;7.847910e-002
2.775181e+003;7.865956e-002
2.777109e+003;7.912664e-002
2.779038e+003;7.938935e-002
2.780966e+003;7.907639e-002
2.782895e+003;7.892275e-002
2.784823e+003;7.907198e-002
2.786752e+003;7.907636e-002
2.788680e+003;7.942715e-002
2.790609e+003;7.998276e-002
2.792538e+003;8.011614e-002
2.794466e+003;8.036944e-002
2.796395e+003;8.074182e-002
2.798323e+003;8.088482e-002
2.800252e+003;8.111740e-002
2.802180e+003;8.154415e-002
2.804109e+003;8.188754e-002
2.806037e+003;8.200843e-002
2.807966e+003;8.221610e-002
2.809895e+003;8.268818e-002
2.811823e+003;8.324799e-002
2.813751e+003;8.378059e-002
2.815680e+003;8.422831e-002
2.817609e+003;8.453360e-002
2.819537e+003;8.500894e-002
2.821466e+003;8.560298e-002
2.823394e+003;8.575340e-002
2.825323e+003;8.621779e-002
2.827251e+003;8.695137e-002
2.829180e+003;8.768838e-002
2.831108e+003;8.837848e-002
2.833037e+003;8.872199e-002
2.834966e+003;8.943652e-002
2.836894e+003;9.049324e-002
2.838823e+003;9.187560e-002
2.840751e+003;9.324285e-002
2.842680e+003;9.441561e-002
2.844608e+003;9.626003e-002
2.846537e+003;9.864336e-002
2.848465e+003;1.010823e-001
2.850394e+003;1.032881e-001
2.852323e+003;1.043853e-001
2.854251e+003;1.050566e-001
2.856180e+003;1.054258e-001
2.858108e+003;1.054695e-001
2.860037e+003;1.053173e-001
2.861965e+003;1.054978e-001
2.863894e+003;1.061190e-001
2.865822e+003;1.066915e-001
2.867751e+003;1.072724e-001
2.869679e+003;1.076415e-001
2.871608e+003;1.078788e-001
2.873536e+003;1.082962e-001
2.875465e+003;1.084842e-001
2.877394e+003;1.085921e-001
2.879322e+003;1.085335e-001
2.881251e+003;1.086566e-001
2.883179e+003;1.093705e-001
2.885108e+003;1.102128e-001
2.887036e+003;1.107724e-001
2.888965e+003;1.110649e-001
2.890893e+003;1.114696e-001
2.892822e+003;1.123181e-001
2.894750e+003;1.126940e-001
2.896679e+003;1.125224e-001
2.898608e+003;1.126141e-001
2.900536e+003;1.129611e-001
2.902465e+003;1.129764e-001
2.904393e+003;1.130767e-001
2.906322e+003;1.127893e-001
2.908250e+003;1.127278e-001
2.910179e+003;1.132301e-001
2.912107e+003;1.132034e-001
2.914036e+003;1.129522e-001
2.915965e+003;1.131973e-001
2.917893e+003;1.133820e-001
2.919822e+003;1.133637e-001
2.921750e+003;1.129860e-001
2.923679e+003;1.119666e-001
2.925607e+003;1.106551e-001
2.927536e+003;1.089669e-001
2.929464e+003;1.072721e-001
2.931393e+003;1.060497e-001
2.933322e+003;1.044959e-001
2.935250e+003;1.028897e-001
2.937178e+003;1.018456e-001
2.939107e+003;1.005455e-001
2.941036e+003;9.924936e-002
2.942964e+003;9.808563e-002
2.944893e+003;9.710157e-002
2.946821e+003;9.645681e-002
2.948750e+003;9.563469e-002
2.950678e+003;9.439754e-002
2.952607e+003;9.313071e-002
2.954535e+003;9.188407e-002
2.956464e+003;9.046386e-002
2.958393e+003;8.967952e-002
2.960321e+003;8.898182e-002
2.962250e+003;8.774921e-002
2.964178e+003;8.641265e-002
2.966107e+003;8.553733e-002
2.968035e+003;8.465905e-002
2.969964e+003;8.405521e-002
2.971892e+003;8.348104e-002
2.973821e+003;8.239263e-002
2.975750e+003;8.175489e-002
2.977678e+003;8.081705e-002
2.979607e+003;7.959192e-002
2.981535e+003;7.925805e-002
2.983464e+003;7.913814e-002
2.985392e+003;7.897524e-002
2.987321e+003;7.834472e-002
2.989249e+003;7.741678e-002
2.991178e+003;7.698017e-002
2.993106e+003;7.704683e-002
2.995035e+003;7.692716e-002
2.996964e+003;7.676182e-002
2.998892e+003;7.699378e-002
3.000821e+003;7.705736e-002
3.002749e+003;7.681464e-002
3.004678e+003;7.618357e-002
3.006606e+003;7.581910e-002
3.008535e+003;7.608151e-002
3.010463e+003;7.627934e-002
3.012392e+003;7.623732e-002
3.014321e+003;7.627559e-002
3.016249e+003;7.666926e-002
3.018177e+003;7.700589e-002
3.020106e+003;7.695062e-002
3.022035e+003;7.713544e-002
3.023963e+003;7.759735e-002
3.025892e+003;7.783967e-002
3.027820e+003;7.837614e-002
3.029749e+003;7.892863e-002
3.031677e+003;7.861716e-002
3.033606e+003;7.824194e-002
3.035534e+003;7.858622e-002
3.037463e+003;7.926562e-002
3.039392e+003;7.944962e-002
3.041320e+003;7.953262e-002
3.043249e+003;8.007658e-002
3.045177e+003;8.015260e-002
3.047106e+003;7.994599e-002
3.049034e+003;8.015571e-002
3.050963e+003;8.050334e-002
3.052891e+003;8.093844e-002
3.054820e+003;8.166146e-002
3.056749e+003;8.181017e-002
3.058677e+003;8.173821e-002
3.060606e+003;8.215325e-002
3.062534e+003;8.257665e-002
3.064463e+003;8.284611e-002
3.066391e+003;8.311464e-002
3.068320e+003;8.345943e-002
3.070248e+003;8.373265e-002
3.072177e+003;8.372120e-002
3.074105e+003;8.367977e-002
3.076034e+003;8.429854e-002
3.077963e+003;8.529390e-002
3.079891e+003;8.552853e-002
3.081820e+003;8.514956e-002
3.083748e+003;8.498226e-002
3.085677e+003;8.522692e-002
3.087605e+003;8.584747e-002
3.089534e+003;8.636899e-002
3.091462e+003;8.664202e-002
3.093391e+003;8.682631e-002
3.095320e+003;8.748695e-002
3.097248e+003;8.845626e-002
3.099177e+003;8.853831e-002
3.101105e+003;8.824038e-002
3.103034e+003;8.853742e-002
3.104962e+003;8.903099e-002
3.106891e+003;8.933118e-002
3.108819e+003;8.962242e-002
3.110748e+003;8.990166e-002
3.112677e+003;9.035455e-002
3.114605e+003;9.094014e-002
3.116533e+003;9.132620e-002
3.118462e+003;9.120678e-002
3.120391e+003;9.156325e-002
3.122319e+003;9.221447e-002
3.124248e+003;9.282108e-002
3.126176e+003;9.349924e-002
3.128105e+003;9.397903e-002
3.130033e+003;9.440985e-002
3.131962e+003;9.497314e-002
3.133890e+003;9.525386e-002
3.135819e+003;9.518356e-002
3.137748e+003;9.571668e-002
3.139676e+003;9.640936e-002
3.141605e+003;9.670240e-002
3.143533e+003;9.690450e-002
3.145462e+003;9.724314e-002
3.147390e+003;9.777443e-002
3.149319e+003;9.874021e-002
3.151247e+003;9.893321e-002
3.153176e+003;9.885186e-002
3.155104e+003;9.931457e-002
3.157033e+003;1.004623e-001
3.158962e+003;1.013785e-001
3.160890e+003;1.015856e-001
3.162819e+003;1.019905e-001
3.164747e+003;1.025390e-001
3.166676e+003;1.033135e-001
3.168604e+003;1.039954e-001
3.170533e+003;1.042079e-001
3.172461e+003;1.048311e-001
3.174390e+003;1.053008e-001
3.176319e+003;1.055150e-001
3.178247e+003;1.058047e-001
3.180176e+003;1.063418e-001
3.182104e+003;1.070329e-001
3.184033e+003;1.077726e-001
3.185961e+003;1.089293e-001
3.187890e+003;1.100126e-001
3.189818e+003;1.101195e-001
3.191747e+003;1.105008e-001
3.193676e+003;1.110327e-001
3.195604e+003;1.111233e-001
3.197532e+003;1.119296e-001
3.199461e+003;1.132436e-001
3.201390e+003;1.140733e-001
3.203318e+003;1.148437e-001
3.205247e+003;1.157063e-001
3.207175e+003;1.160844e-001
3.209104e+003;1.161967e-001
3.211032e+003;1.165879e-001
3.212961e+003;1.177562e-001
3.214889e+003;1.192082e-001
3.216818e+003;1.195976e-001
3.218747e+003;1.203115e-001
3.220675e+003;1.211768e-001
3.222604e+003;1.216033e-001
3.224532e+003;1.222385e-001
3.226461e+003;1.233287e-001
3.228389e+003;1.240026e-001
3.230318e+003;1.247172e-001
3.232246e+003;1.255691e-001
3.234175e+003;1.264381e-001
3.236104e+003;1.271398e-001
3.238032e+003;1.277655e-001
3.239961e+003;1.288033e-001
3.241889e+003;1.299173e-001
3.243818e+003;1.306225e-001
3.245746e+003;1.314989e-001
3.247675e+003;1.323359e-001
3.249603e+003;1.326257e-001
3.251532e+003;1.333171e-001
3.253460e+003;1.345240e-001
3.255389e+003;1.355893e-001
3.257318e+003;1.362792e-001
3.259246e+003;1.370755e-001
3.261175e+003;1.376389e-001
3.263103e+003;1.384574e-001
3.265032e+003;1.393097e-001
3.266960e+003;1.401076e-001
3.268889e+003;1.409394e-001
3.270817e+003;1.417298e-001
3.272746e+003;1.424929e-001
3.274675e+003;1.429514e-001
3.276603e+003;1.432719e-001
3.278531e+003;1.438055e-001
3.280460e+003;1.441251e-001
3.282389e+003;1.439346e-001
3.284317e+003;1.443539e-001
3.286246e+003;1.450739e-001
3.288174e+003;1.451177e-001
3.290103e+003;1.449843e-001
3.292031e+003;1.451989e-001
3.293960e+003;1.452126e-001
3.295888e+003;1.454348e-001
3.297817e+003;1.457656e-001
3.299746e+003;1.462018e-001
3.301674e+003;1.466975e-001
3.303603e+003;1.464955e-001
3.305531e+003;1.458636e-001
3.307460e+003;1.459904e-001
3.309388e+003;1.465635e-001
3.311317e+003;1.460741e-001
3.313245e+003;1.455514e-001
3.315174e+003;1.458989e-001
3.317103e+003;1.465785e-001
3.319031e+003;1.474010e-001
3.320960e+003;1.478683e-001
3.322888e+003;1.473393e-001
3.324817e+003;1.471524e-001
3.326745e+003;1.470934e-001
3.328674e+003;1.472567e-001
3.330602e+003;1.477041e-001
3.332531e+003;1.484819e-001
3.334459e+003;1.487832e-001
3.336388e+003;1.486306e-001
3.338317e+003;1.482915e-001
3.340245e+003;1.476707e-001
3.342174e+003;1.472619e-001
3.344102e+003;1.468663e-001
3.346031e+003;1.459691e-001
3.347959e+003;1.449971e-001
3.349888e+003;1.443458e-001
3.351816e+003;1.439348e-001
3.353745e+003;1.433092e-001
3.355674e+003;1.427706e-001
3.357602e+003;1.424519e-001
3.359531e+003;1.419232e-001
3.361459e+003;1.412277e-001
3.363388e+003;1.404301e-001
3.365316e+003;1.398421e-001
3.367245e+003;1.396981e-001
3.369173e+003;1.393038e-001
3.371102e+003;1.378549e-001
3.373031e+003;1.365712e-001
3.374959e+003;1.361130e-001
3.376887e+003;1.358552e-001
3.378816e+003;1.357868e-001
3.380745e+003;1.353549e-001
3.382673e+003;1.349434e-001
3.384602e+003;1.345783e-001
3.386530e+003;1.335674e-001
3.388459e+003;1.324695e-001
3.390387e+003;1.317472e-001
3.392316e+003;1.310460e-001
3.394244e+003;1.303366e-001
3.396173e+003;1.301278e-001
3.398102e+003;1.296368e-001
3.400030e+003;1.288057e-001
3.401959e+003;1.285197e-001
3.403887e+003;1.280594e-001
3.405816e+003;1.272420e-001
3.407744e+003;1.267959e-001
3.409673e+003;1.256092e-001
3.411601e+003;1.246890e-001
3.413530e+003;1.245300e-001
3.415458e+003;1.235926e-001
3.417387e+003;1.223258e-001
3.419316e+003;1.218310e-001
3.421244e+003;1.212558e-001
3.423173e+003;1.205712e-001
3.425101e+003;1.195164e-001
3.427030e+003;1.182008e-001
3.428958e+003;1.178026e-001
3.430887e+003;1.178223e-001
3.432815e+003;1.170260e-001
3.434744e+003;1.157881e-001
3.436673e+003;1.150016e-001
3.438601e+003;1.142416e-001
3.440530e+003;1.132499e-001
3.442458e+003;1.122650e-001
3.444387e+003;1.111310e-001
3.446315e+003;1.102909e-001
3.448244e+003;1.092515e-001
3.450172e+003;1.086480e-001
3.452101e+003;1.081051e-001
3.454030e+003;1.070554e-001
3.455958e+003;1.063438e-001
3.457886e+003;1.060384e-001
3.459815e+003;1.050758e-001
3.461744e+003;1.041876e-001
3.463672e+003;1.037903e-001
3.465601e+003;1.029699e-001
3.467529e+003;1.018786e-001
3.469458e+003;1.012258e-001
3.471386e+003;1.001051e-001
3.473315e+003;9.883031e-002
3.475243e+003;9.824879e-002
3.477172e+003;9.754997e-002
3.479101e+003;9.635884e-002
3.481029e+003;9.578446e-002
3.482958e+003;9.515044e-002
3.484886e+003;9.412333e-002
3.486815e+003;9.319045e-002
3.488743e+003;9.237388e-002
3.490672e+003;9.174023e-002
3.492600e+003;9.131336e-002
3.494529e+003;9.105422e-002
3.496458e+003;8.988861e-002
3.498386e+003;8.846584e-002
3.500315e+003;8.792650e-002
3.502243e+003;8.724242e-002
3.504172e+003;8.578929e-002
3.506100e+003;8.474410e-002
3.508029e+003;8.449572e-002
3.509957e+003;8.440115e-002
3.511886e+003;8.374659e-002
3.513814e+003;8.260722e-002
3.515743e+003;8.180693e-002
3.517672e+003;8.087588e-002
3.519600e+003;8.022881e-002
3.521529e+003;7.965652e-002
3.523457e+003;7.892151e-002
3.525386e+003;7.786503e-002
3.527314e+003;7.692222e-002
3.529243e+003;7.605510e-002
3.531171e+003;7.520488e-002
3.533100e+003;7.466227e-002
3.535029e+003;7.419898e-002
3.536957e+003;7.353241e-002
3.538885e+003;7.268950e-002
3.540814e+003;7.228407e-002
3.542743e+003;7.197103e-002
3.544671e+003;7.105714e-002
3.546600e+003;7.036614e-002
3.548528e+003;7.013485e-002
3.550457e+003;6.885553e-002
3.552385e+003;6.781421e-002
3.554314e+003;6.737403e-002
3.556242e+003;6.694883e-002
3.558171e+003;6.653606e-002
3.560100e+003;6.554096e-002
3.562028e+003;6.518239e-002
3.563957e+003;6.479487e-002
3.565885e+003;6.413258e-002
3.567814e+003;6.325330e-002
3.569742e+003;6.239982e-002
3.571671e+003;6.176409e-002
3.573599e+003;6.092959e-002
3.575528e+003;6.028606e-002
3.577457e+003;6.047031e-002
3.579385e+003;6.032577e-002
3.581314e+003;5.957055e-002
3.583242e+003;5.900589e-002
3.585171e+003;5.847984e-002
3.587099e+003;5.763088e-002
3.589028e+003;5.731105e-002
3.590956e+003;5.675469e-002
3.592885e+003;5.574820e-002
3.594813e+003;5.479072e-002
3.596742e+003;5.436252e-002
3.598671e+003;5.420686e-002
3.600599e+003;5.391296e-002
3.602528e+003;5.321824e-002
3.604456e+003;5.262556e-002
3.606385e+003;5.253869e-002
3.608313e+003;5.219666e-002
3.610242e+003;5.116051e-002
3.612170e+003;5.042136e-002
3.614099e+003;5.018649e-002
3.616028e+003;4.981528e-002
3.617956e+003;4.909818e-002
3.619885e+003;4.851080e-002
3.621813e+003;4.860336e-002
3.623742e+003;4.848161e-002
3.625670e+003;4.800614e-002
3.627599e+003;4.758906e-002
3.629527e+003;4.712424e-002
3.631456e+003;4.611829e-002
3.633385e+003;4.515347e-002
3.635313e+003;4.439051e-002
3.637241e+003;4.381698e-002
3.639170e+003;4.348288e-002
3.641099e+003;4.295059e-002
3.643027e+003;4.241348e-002
3.644956e+003;4.169554e-002
3.646884e+003;4.079410e-002
3.648813e+003;4.034773e-002
3.650741e+003;3.998432e-002
3.652670e+003;3.926650e-002
3.654598e+003;3.855548e-002
3.656527e+003;3.811148e-002
3.658456e+003;3.772326e-002
3.660384e+003;3.735099e-002
3.662313e+003;3.659929e-002
3.664241e+003;3.591637e-002
3.666170e+003;3.539370e-002
3.668098e+003;3.440527e-002
3.670027e+003;3.392895e-002
3.671955e+003;3.415184e-002
3.673884e+003;3.417260e-002
3.675813e+003;3.350114e-002
3.677741e+003;3.328841e-002
3.679669e+003;3.308713e-002
3.681598e+003;3.280091e-002
3.683527e+003;3.258460e-002
3.685455e+003;3.162334e-002
3.687384e+003;3.091045e-002
3.689312e+003;3.071502e-002
3.691241e+003;3.051037e-002
3.693169e+003;3.032394e-002
3.695098e+003;3.025456e-002
3.697026e+003;3.082169e-002
3.698955e+003;3.112425e-002
3.700884e+003;3.050248e-002
3.702812e+003;3.010371e-002
3.704741e+003;2.968998e-002
3.706669e+003;2.920157e-002
3.708598e+003;2.854334e-002
3.710526e+003;2.800222e-002
3.712455e+003;2.846055e-002
3.714383e+003;2.904850e-002
3.716312e+003;2.864445e-002
3.718240e+003;2.847519e-002
3.720169e+003;2.825696e-002
3.722098e+003;2.790946e-002
3.724026e+003;2.755945e-002
3.725955e+003;2.747991e-002
3.727883e+003;2.823242e-002
3.729812e+003;2.813417e-002
3.731740e+003;2.734823e-002
3.733669e+003;2.736874e-002
3.735597e+003;2.721607e-002
3.737526e+003;2.668896e-002
3.739455e+003;2.683267e-002
3.741383e+003;2.735628e-002
3.743312e+003;2.748605e-002
3.745240e+003;2.732568e-002
3.747169e+003;2.759736e-002
3.749097e+003;2.787243e-002
3.751026e+003;2.797366e-002
3.752954e+003;2.798091e-002
3.754883e+003;2.783187e-002
3.756812e+003;2.727279e-002
3.758740e+003;2.719635e-002
3.760668e+003;2.773685e-002
3.762597e+003;2.794066e-002
3.764526e+003;2.763310e-002
3.766454e+003;2.723180e-002
3.768383e+003;2.643711e-002
3.770311e+003;2.604800e-002
3.772240e+003;2.636468e-002
3.774168e+003;2.699303e-002
3.776097e+003;2.747709e-002
3.778025e+003;2.687377e-002
3.779954e+003;2.567059e-002
3.781883e+003;2.533769e-002
3.783811e+003;2.590923e-002
3.785740e+003;2.674174e-002
3.787668e+003;2.707248e-002
3.789597e+003;2.676976e-002
3.791525e+003;2.653523e-002
3.793454e+003;2.634141e-002
3.795382e+003;2.668530e-002
3.797311e+003;2.700904e-002
3.799240e+003;2.686351e-002
3.801168e+003;2.672381e-002
3.803097e+003;2.684529e-002
3.805025e+003;2.689072e-002
3.806954e+003;2.678484e-002
3.808882e+003;2.716933e-002
3.810811e+003;2.724023e-002
3.812739e+003;2.693771e-002
3.814668e+003;2.726630e-002
3.816596e+003;2.753583e-002
3.818525e+003;2.734555e-002
3.820454e+003;2.709635e-002
3.822382e+003;2.698841e-002
3.824311e+003;2.735120e-002
3.826239e+003;2.755482e-002
3.828168e+003;2.768935e-002
3.830096e+003;2.813173e-002
3.832025e+003;2.767222e-002
3.833953e+003;2.763218e-002
3.835882e+003;2.771199e-002
3.837811e+003;2.721547e-002
3.839739e+003;2.706923e-002
3.841667e+003;2.774296e-002
3.843596e+003;2.795702e-002
3.845525e+003;2.760023e-002
3.847453e+003;2.733285e-002
3.849382e+003;2.747045e-002
3.851310e+003;2.781047e-002
3.853239e+003;2.806241e-002
3.855167e+003;2.803586e-002
3.857096e+003;2.808132e-002
3.859024e+003;2.796416e-002
3.860953e+003;2.801236e-002
3.862882e+003;2.803236e-002
3.864810e+003;2.823263e-002
3.866739e+003;2.864657e-002
3.868667e+003;2.871287e-002
3.870596e+003;2.887233e-002
3.872524e+003;2.927572e-002
3.874453e+003;2.955255e-002
3.876381e+003;2.902902e-002
3.878310e+003;2.892563e-002
3.880239e+003;2.899119e-002
3.882167e+003;2.925994e-002
3.884096e+003;2.983610e-002
3.886024e+003;2.972879e-002
3.887953e+003;2.935579e-002
3.889881e+003;2.922748e-002
3.891810e+003;2.959647e-002
3.893738e+003;2.936753e-002
3.895667e+003;2.947053e-002
3.897595e+003;3.045159e-002
3.899524e+003;3.034789e-002
3.901453e+003;3.053049e-002
3.903381e+003;3.094909e-002
3.905310e+003;3.029744e-002
3.907238e+003;3.055410e-002
3.909167e+003;3.109311e-002
3.911095e+003;3.064981e-002
3.913024e+003;3.061354e-002
3.914952e+003;3.111788e-002
3.916881e+003;3.159558e-002
3.918810e+003;3.111297e-002
3.920738e+003;3.030827e-002
3.922667e+003;3.025747e-002
3.924595e+003;3.074024e-002
3.926524e+003;3.153251e-002
3.928452e+003;3.205612e-002
3.930381e+003;3.196752e-002
3.932309e+003;3.094272e-002
3.934238e+003;3.113618e-002
3.936167e+003;3.235358e-002
3.938095e+003;3.208376e-002
3.940023e+003;3.141374e-002
3.941952e+003;3.104374e-002
3.943881e+003;3.134995e-002
3.945809e+003;3.137616e-002
3.947738e+003;3.129312e-002
3.949666e+003;3.161479e-002
3.951595e+003;3.159102e-002
3.953523e+003;3.177108e-002
3.955452e+003;3.178085e-002
3.957380e+003;3.130401e-002
3.959309e+003;3.128375e-002
3.961238e+003;3.219904e-002
3.963166e+003;3.300818e-002
3.965095e+003;3.312339e-002
3.967023e+003;3.231432e-002
3.968952e+003;3.175946e-002
3.970880e+003;3.256989e-002
3.972809e+003;3.306717e-002
3.974737e+003;3.244990e-002
3.976666e+003;3.261539e-002
3.978594e+003;3.351853e-002
3.980523e+003;3.401770e-002
3.982452e+003;3.310808e-002
3.984380e+003;3.244669e-002
3.986309e+003;3.247911e-002
3.988237e+003;3.247190e-002
3.990166e+003;3.314620e-002
3.992094e+003;3.361787e-002
3.994023e+003;3.327475e-002
3.995951e+003;3.305030e-002
3.997880e+003;3.287081e-002
3.999809e+003;3.259578e-002
4.001737e+003;0.000000e+000
