3.992094e+002;0.000000e+000
4.011380e+002;0.000000e+000
4.030665e+002;0.000000e+000
4.049951e+002;0.000000e+000
4.069236e+002;0.000000e+000
4.088522e+002;0.000000e+000
4.107807e+002;0.000000e+000
4.127093e+002;0.000000e+000
4.146378e+002;0.000000e+000
4.165664e+002;0.000000e+000
4.184949e+002;0.000000e+000
4.204235e+002;0.000000e+000
4.223520e+002;0.000000e+000
4.242806e+002;0.000000e+000
4.262091e+002;0.000000e+000
4.281377e+002;0.000000e+000
4.300662e+002;0.000000e+000
4.319948e+002;0.000000e+000
4.339233e+002;0.000000e+000
4.358519e+002;0.000000e+000
4.377804e+002;0.000000e+000
4.397090e+002;0.000000e+000
4.416375e+002;0.000000e+000
4.435660e+002;0.000000e+000
4.454946e+002;0.000000e+000
4.474232e+002;0.000000e+000
4.493517e+002;0.000000e+000
4.512802e+002;0.000000e+000
4.532088e+002;0.000000e+000
4.551373e+002;0.000000e+000
4.570659e+002;0.000000e+000
4.589944e+002;0.000000e+000
4.609230e+002;0.000000e+000
4.628515e+002;0.000000e+000
4.647801e+002;0.000000e+000
4.667086e+002;0.000000e+000
4.686372e+002;0.000000e+000
4.705657e+002;0.000000e+000
4.724943e+002;0.000000e+000
4.744228e+002;0.000000e+000
4.763513e+002;0.000000e+000
4.782799e+002;0.000000e+000
4.802085e+002;0.000000e+000
4.821370e+002;0.000000e+000
4.840656e+002;0.000000e+000
4.859941e+002;0.000000e+000
4.879226e+002;0.000000e+000
4.898512e+002;0.000000e+000
4.917798e+002;0.000000e+000
4.937083e+002;0.000000e+000
4.956368e+002;0.000000e+000
4.975654e+002;0.000000e+000
4.994939e+002;0.000000e+000
5.014225e+002;0.000000e+000
5.033510e+002;0.000000e+000
5.052796e+002;0.000000e+000
5.072081e+002;0.000000e+000
5.091367e+002;0.000000e+000
5.110652e+002;0.000000e+000
5.129938e+002;0.000000e+000
5.149223e+002;0.000000e+000
5.168509e+002;0.000000e+000
5.187794e+002;0.000000e+000
5.207079e+002;0.000000e+000
5.226365e+002;0.000000e+000
5.245651e+002;0.000000e+000
5.264936e+002;0.000000e+000
5.284222e+002;0.000000e+000
5.303507e+002;0.000000e+000
5.322792e+002;0.000000e+000
5.342078e+002;0.000000e+000
5.361364e+002;0.000000e+000
5.380649e+002;0.000000e+000
5.399935e+002;0.000000e+000
5.419220e+002;0.000000e+000
5.438505e+002;0.000000e+000
5.457791e+002;0.000000e+000
5.477076e+002;0.000000e+000
5.496362e+002;0.000000e+000
5.515648e+002;0.000000e+000
5.534933e+002;0.000000e+000
5.554218e+002;0.000000e+000
5.573504e+002;0.000000e+000
5.592789e+002;0.000000e+000
5.612075e+002;0.000000e+000
5.631360e+002;0.000000e+000
5.650646e+002;0.000000e+000
5.669931e+002;0.000000e+000
5.689217e+002;0.000000e+000
5.708502e+002;0.000000e+000
5.727787e+002;0.000000e+000
5.747073e+002;0.000000e+000
5.766359e+002;0.000000e+000
5.785644e+002;0.000000e+000
5.804930e+002;0.000000e+000
5.824215e+002;0.000000e+000
5.843500e+002;0.000000e+000
5.862786e+002;0.000000e+000
5.882072e+002;0.000000e+000
5.901357e+002;0.000000e+000
5.920643e+002;0.000000e+000
5.939928e+002;0.000000e+000
5.959213e+002;0.000000e+000
5.978499e+002;0.000000e+000
5.997784e+002;3.124464e-001
6.017070e+002;3.158298e-001
6.036355e+002;3.174711e-001
6.055641e+002;3.114960e-001
6.074926e+002;3.044780e-001
6.094211e+002;3.066033e-001
6.113497e+002;3.149274e-001
6.132783e+002;3.137102e-001
6.152068e+002;3.075013e-001
6.171354e+002;3.062672e-001
6.190639e+002;3.036648e-001
6.209924e+002;2.956612e-001
6.229210e+002;2.862729e-001
6.248495e+002;2.825410e-001
6.267781e+002;2.810120e-001
6.287067e+002;2.775896e-001
6.306352e+002;2.747149e-001
6.325637e+002;2.694736e-001
6.344923e+002;2.655049e-001
6.364208e+002;2.645104e-001
6.383494e+002;2.635894e-001
6.402780e+002;2.590384e-001
6.422065e+002;2.511981e-001
6.441350e+002;2.494776e-001
6.460636e+002;2.508934e-001
6.479921e+002;2.521106e-001
6.499207e+002;2.523542e-001
6.518492e+002;2.528869e-001
6.537778e+002;2.568140e-001
6.557063e+002;2.662127e-001
6.576349e+002;2.722356e-001
6.595634e+002;2.740375e-001
6.614919e+002;2.762419e-001
6.634205e+002;2.744173e-001
6.653491e+002;2.736938e-001
6.672776e+002;2.724607e-001
6.692062e+002;2.674826e-001
6.711347e+002;2.609588e-001
6.730632e+002;2.529169e-001
6.749918e+002;2.458166e-001
6.769203e+002;2.404151e-001
6.788489e+002;2.353241e-001
6.807775e+002;2.321494e-001
6.827060e+002;2.298843e-001
6.846345e+002;2.269651e-001
6.865631e+002;2.253723e-001
6.884916e+002;2.249471e-001
6.904202e+002;2.261208e-001
6.923488e+002;2.257958e-001
6.942773e+002;2.247967e-001
6.962058e+002;2.244761e-001
6.981344e+002;2.235310e-001
7.000629e+002;2.229940e-001
7.019915e+002;2.233765e-001
7.039200e+002;2.242418e-001
7.058486e+002;2.221445e-001
7.077771e+002;2.186247e-001
7.097057e+002;2.157951e-001
7.116342e+002;2.117470e-001
7.135627e+002;2.073179e-001
7.154913e+002;2.033369e-001
7.174199e+002;1.979144e-001
7.193484e+002;1.923673e-001
7.212770e+002;1.886307e-001
7.232055e+002;1.843730e-001
7.251340e+002;1.791697e-001
7.270626e+002;1.736825e-001
7.289911e+002;1.691014e-001
7.309197e+002;1.655310e-001
7.328483e+002;1.624543e-001
7.347768e+002;1.591740e-001
7.367053e+002;1.560840e-001
7.386339e+002;1.544645e-001
7.405624e+002;1.541710e-001
7.424910e+002;1.527530e-001
7.444196e+002;1.517193e-001
7.463481e+002;1.495880e-001
7.482766e+002;1.468357e-001
7.502052e+002;1.457205e-001
7.521337e+002;1.445986e-001
7.540623e+002;1.424813e-001
7.559908e+002;1.406487e-001
7.579194e+002;1.394357e-001
7.598479e+002;1.384982e-001
7.617765e+002;1.375679e-001
7.637050e+002;1.371717e-001
7.656335e+002;1.363661e-001
7.675621e+002;1.354103e-001
7.694907e+002;1.349781e-001
7.714192e+002;1.345360e-001
7.733478e+002;1.332360e-001
7.752763e+002;1.321370e-001
7.772048e+002;1.321003e-001
7.791334e+002;1.325734e-001
7.810620e+002;1.325707e-001
7.829905e+002;1.327795e-001
7.849191e+002;1.349082e-001
7.868476e+002;1.373513e-001
7.887761e+002;1.394122e-001
7.907047e+002;1.411360e-001
7.926332e+002;1.428170e-001
7.945618e+002;1.448298e-001
7.964903e+002;1.461586e-001
7.984189e+002;1.468218e-001
8.003474e+002;1.474689e-001
8.022759e+002;1.477100e-001
8.042045e+002;1.469648e-001
8.061331e+002;1.462154e-001
8.080616e+002;1.463045e-001
8.099902e+002;1.456429e-001
8.119187e+002;1.439605e-001
8.138472e+002;1.422836e-001
8.157758e+002;1.415234e-001
8.177043e+002;1.413821e-001
8.196329e+002;1.407220e-001
8.215615e+002;1.397631e-001
8.234900e+002;1.382147e-001
8.254185e+002;1.354668e-001
8.273471e+002;1.331985e-001
8.292756e+002;1.306170e-001
8.312042e+002;1.277680e-001
8.331328e+002;1.260010e-001
8.350613e+002;1.248427e-001
8.369898e+002;1.237926e-001
8.389184e+002;1.228102e-001
8.408469e+002;1.223396e-001
8.427755e+002;1.226639e-001
8.447040e+002;1.232920e-001
8.466326e+002;1.242164e-001
8.485611e+002;1.244687e-001
8.504897e+002;1.242894e-001
8.524182e+002;1.246071e-001
8.543467e+002;1.254178e-001
8.562753e+002;1.262905e-001
8.582039e+002;1.272574e-001
8.601324e+002;1.289432e-001
8.620610e+002;1.305201e-001
8.639895e+002;1.309676e-001
8.659180e+002;1.316791e-001
8.678466e+002;1.340259e-001
8.697751e+002;1.361509e-001
8.717037e+002;1.378162e-001
8.736323e+002;1.403738e-001
8.755608e+002;1.430234e-001
8.774893e+002;1.452194e-001
8.794179e+002;1.478001e-001
8.813464e+002;1.508600e-001
8.832750e+002;1.538544e-001
8.852036e+002;1.570218e-001
8.871321e+002;1.603902e-001
8.890606e+002;1.640969e-001
8.909892e+002;1.676711e-001
8.929177e+002;1.701916e-001
8.948463e+002;1.722694e-001
8.967748e+002;1.730973e-001
8.987034e+002;1.730694e-001
9.006319e+002;1.723106e-001
9.025605e+002;1.708000e-001
9.044890e+002;1.690500e-001
9.064175e+002;1.669457e-001
9.083461e+002;1.651906e-001
9.102747e+002;1.637428e-001
9.122032e+002;1.623943e-001
9.141318e+002;1.608746e-001
9.160603e+002;1.596579e-001
9.179888e+002;1.592760e-001
9.199174e+002;1.593947e-001
9.218459e+002;1.603020e-001
9.237745e+002;1.616299e-001
9.257031e+002;1.630280e-001
9.276316e+002;1.645911e-001
9.295601e+002;1.666191e-001
9.314887e+002;1.690949e-001
9.334172e+002;1.714928e-001
9.353458e+002;1.734774e-001
9.372744e+002;1.756419e-001
9.392029e+002;1.777484e-001
9.411314e+002;1.802792e-001
9.430600e+002;1.834163e-001
9.449885e+002;1.868502e-001
9.469171e+002;1.906335e-001
9.488456e+002;1.955436e-001
9.507742e+002;2.010072e-001
9.527027e+002;2.064941e-001
9.546313e+002;2.124385e-001
9.565598e+002;2.190403e-001
9.584883e+002;2.257386e-001
9.604169e+002;2.324602e-001
9.623455e+002;2.396691e-001
9.642740e+002;2.479697e-001
9.662026e+002;2.571129e-001
9.681311e+002;2.666233e-001
9.700596e+002;2.772020e-001
9.719882e+002;2.897610e-001
9.739167e+002;3.048004e-001
9.758453e+002;3.223851e-001
9.777739e+002;3.429193e-001
9.797024e+002;3.652622e-001
9.816309e+002;3.843642e-001
9.835595e+002;3.960254e-001
9.854880e+002;4.001562e-001
9.874166e+002;4.007349e-001
9.893452e+002;4.027621e-001
9.912737e+002;4.084260e-001
9.932022e+002;4.166976e-001
9.951307e+002;4.265483e-001
9.970593e+002;4.365922e-001
9.989879e+002;4.443375e-001
1.000916e+003;4.493432e-001
1.002845e+003;4.524939e-001
1.004773e+003;4.545212e-001
1.006702e+003;4.570621e-001
1.008631e+003;4.598729e-001
1.010559e+003;4.627764e-001
1.012488e+003;4.668854e-001
1.014416e+003;4.720184e-001
1.016345e+003;4.769486e-001
1.018273e+003;4.827470e-001
1.020202e+003;4.894166e-001
1.022130e+003;4.975347e-001
1.024059e+003;5.065646e-001
1.025988e+003;5.147980e-001
1.027916e+003;5.213922e-001
1.029845e+003;5.250748e-001
1.031773e+003;5.244383e-001
1.033702e+003;5.176898e-001
1.035630e+003;5.045505e-001
1.037559e+003;4.880758e-001
1.039487e+003;4.742006e-001
1.041416e+003;4.673942e-001
1.043344e+003;4.675411e-001
1.045273e+003;4.721264e-001
1.047202e+003;4.812985e-001
1.049130e+003;4.932142e-001
1.051059e+003;5.026817e-001
1.052987e+003;5.074595e-001
1.054916e+003;5.067065e-001
1.056844e+003;4.994564e-001
1.058773e+003;4.838558e-001
1.060701e+003;4.596379e-001
1.062630e+003;4.302826e-001
1.064558e+003;4.025491e-001
1.066487e+003;3.792632e-001
1.068416e+003;3.600558e-001
1.070344e+003;3.451111e-001
1.072273e+003;3.348617e-001
1.074201e+003;3.272751e-001
1.076130e+003;3.197075e-001
1.078058e+003;3.126536e-001
1.079987e+003;3.067535e-001
1.081915e+003;3.026276e-001
1.083844e+003;3.010666e-001
1.085773e+003;3.008528e-001
1.087701e+003;3.013412e-001
1.089630e+003;3.030539e-001
1.091558e+003;3.054061e-001
1.093487e+003;3.089161e-001
1.095415e+003;3.133169e-001
1.097344e+003;3.179377e-001
1.099272e+003;3.229440e-001
1.101201e+003;3.262738e-001
1.103129e+003;3.263854e-001
1.105058e+003;3.244452e-001
1.106987e+003;3.215117e-001
1.108915e+003;3.175364e-001
1.110844e+003;3.120130e-001
1.112772e+003;3.023444e-001
1.114701e+003;2.886113e-001
1.116629e+003;2.727491e-001
1.118558e+003;2.573804e-001
1.120486e+003;2.453839e-001
1.122415e+003;2.356492e-001
1.124344e+003;2.263980e-001
1.126272e+003;2.169878e-001
1.128201e+003;2.073810e-001
1.130129e+003;1.987271e-001
1.132058e+003;1.917069e-001
1.133986e+003;1.871228e-001
1.135915e+003;1.834756e-001
1.137843e+003;1.802399e-001
1.139772e+003;1.791528e-001
1.141700e+003;1.809196e-001
1.143629e+003;1.845163e-001
1.145557e+003;1.886025e-001
1.147486e+003;1.918069e-001
1.149415e+003;1.938629e-001
1.151343e+003;1.955101e-001
1.153272e+003;1.981340e-001
1.155200e+003;2.003271e-001
1.157129e+003;2.017163e-001
1.159057e+003;2.017813e-001
1.160986e+003;1.987641e-001
1.162914e+003;1.922671e-001
1.164843e+003;1.827837e-001
1.166771e+003;1.715832e-001
1.168700e+003;1.606084e-001
1.170629e+003;1.510228e-001
1.172557e+003;1.425144e-001
1.174486e+003;1.352625e-001
1.176414e+003;1.303751e-001
1.178343e+003;1.268118e-001
1.180271e+003;1.234090e-001
1.182200e+003;1.210585e-001
1.184128e+003;1.196585e-001
1.186057e+003;1.192454e-001
1.187986e+003;1.200958e-001
1.189914e+003;1.218631e-001
1.191843e+003;1.246341e-001
1.193771e+003;1.276486e-001
1.195700e+003;1.301087e-001
1.197628e+003;1.326201e-001
1.199557e+003;1.347999e-001
1.201485e+003;1.362465e-001
1.203414e+003;1.368506e-001
1.205343e+003;1.364244e-001
1.207271e+003;1.340514e-001
1.209200e+003;1.295068e-001
1.211128e+003;1.239116e-001
1.213057e+003;1.194553e-001
1.214985e+003;1.171733e-001
1.216914e+003;1.165666e-001
1.218842e+003;1.175070e-001
1.220771e+003;1.193851e-001
1.222699e+003;1.217471e-001
1.224628e+003;1.241617e-001
1.226557e+003;1.262223e-001
1.228485e+003;1.282905e-001
1.230414e+003;1.309312e-001
1.232342e+003;1.334170e-001
1.234271e+003;1.351633e-001
1.236199e+003;1.358822e-001
1.238128e+003;1.358414e-001
1.240056e+003;1.365341e-001
1.241985e+003;1.382279e-001
1.243913e+003;1.401833e-001
1.245842e+003;1.425362e-001
1.247771e+003;1.448036e-001
1.249699e+003;1.463661e-001
1.251628e+003;1.477890e-001
1.253556e+003;1.500484e-001
1.255485e+003;1.530583e-001
1.257413e+003;1.566148e-001
1.259342e+003;1.600068e-001
1.261270e+003;1.619272e-001
1.263199e+003;1.617356e-001
1.265127e+003;1.594432e-001
1.267056e+003;1.560647e-001
1.268985e+003;1.533615e-001
1.270913e+003;1.521807e-001
1.272842e+003;1.521606e-001
1.274770e+003;1.525425e-001
1.276699e+003;1.524770e-001
1.278627e+003;1.518949e-001
1.280556e+003;1.508344e-001
1.282484e+003;1.488778e-001
1.284413e+003;1.465886e-001
1.286342e+003;1.449237e-001
1.288270e+003;1.440023e-001
1.290199e+003;1.439164e-001
1.292127e+003;1.443372e-001
1.294056e+003;1.449171e-001
1.295984e+003;1.460353e-001
1.297913e+003;1.480094e-001
1.299841e+003;1.508907e-001
1.301770e+003;1.550168e-001
1.303698e+003;1.600071e-001
1.305627e+003;1.651376e-001
1.307556e+003;1.706047e-001
1.309484e+003;1.764935e-001
1.311413e+003;1.817586e-001
1.313341e+003;1.849915e-001
1.315270e+003;1.858047e-001
1.317198e+003;1.841392e-001
1.319127e+003;1.802601e-001
1.321055e+003;1.753198e-001
1.322984e+003;1.708750e-001
1.324912e+003;1.678143e-001
1.326841e+003;1.661368e-001
1.328770e+003;1.662624e-001
1.330698e+003;1.680924e-001
1.332627e+003;1.702666e-001
1.334555e+003;1.713781e-001
1.336484e+003;1.706454e-001
1.338412e+003;1.686782e-001
1.340341e+003;1.659068e-001
1.342269e+003;1.620735e-001
1.344198e+003;1.581389e-001
1.346126e+003;1.546104e-001
1.348055e+003;1.521762e-001
1.349984e+003;1.516608e-001
1.351912e+003;1.524893e-001
1.353841e+003;1.538967e-001
1.355769e+003;1.555512e-001
1.357698e+003;1.570911e-001
1.359626e+003;1.579785e-001
1.361555e+003;1.577199e-001
1.363483e+003;1.563994e-001
1.365412e+003;1.548461e-001
1.367341e+003;1.541355e-001
1.369269e+003;1.538674e-001
1.371198e+003;1.524232e-001
1.373126e+003;1.493090e-001
1.375055e+003;1.451908e-001
1.376983e+003;1.410331e-001
1.378912e+003;1.371019e-001
1.380840e+003;1.330785e-001
1.382769e+003;1.291660e-001
1.384698e+003;1.259398e-001
1.386626e+003;1.236406e-001
1.388555e+003;1.220127e-001
1.390483e+003;1.208975e-001
1.392412e+003;1.202354e-001
1.394340e+003;1.201286e-001
1.396269e+003;1.202899e-001
1.398197e+003;1.204733e-001
1.400126e+003;1.209478e-001
1.402054e+003;1.215358e-001
1.403983e+003;1.221303e-001
1.405911e+003;1.225831e-001
1.407840e+003;1.229070e-001
1.409769e+003;1.236640e-001
1.411697e+003;1.247735e-001
1.413626e+003;1.261870e-001
1.415554e+003;1.280254e-001
1.417483e+003;1.303229e-001
1.419411e+003;1.331555e-001
1.421340e+003;1.362526e-001
1.423268e+003;1.387540e-001
1.425197e+003;1.404630e-001
1.427125e+003;1.413696e-001
1.429054e+003;1.414575e-001
1.430983e+003;1.404093e-001
1.432911e+003;1.380294e-001
1.434840e+003;1.350688e-001
1.436768e+003;1.325647e-001
1.438697e+003;1.307137e-001
1.440625e+003;1.291444e-001
1.442554e+003;1.279928e-001
1.444482e+003;1.275929e-001
1.446411e+003;1.272654e-001
1.448340e+003;1.269652e-001
1.450268e+003;1.270411e-001
1.452197e+003;1.268405e-001
1.454125e+003;1.260358e-001
1.456054e+003;1.244484e-001
1.457982e+003;1.226563e-001
1.459911e+003;1.208348e-001
1.461839e+003;1.185355e-001
1.463768e+003;1.162047e-001
1.465697e+003;1.138072e-001
1.467625e+003;1.115179e-001
1.469554e+003;1.092926e-001
1.471482e+003;1.069629e-001
1.473411e+003;1.046185e-001
1.475339e+003;1.026936e-001
1.477268e+003;1.014064e-001
1.479196e+003;1.004574e-001
1.481125e+003;9.931266e-002
1.483053e+003;9.731879e-002
1.484982e+003;9.452994e-002
1.486911e+003;9.197488e-002
1.488839e+003;8.992337e-002
1.490768e+003;8.822917e-002
1.492696e+003;8.730436e-002
1.494625e+003;8.656153e-002
1.496553e+003;8.581250e-002
1.498482e+003;8.530068e-002
1.500410e+003;8.475574e-002
1.502339e+003;8.417461e-002
1.504267e+003;8.370874e-002
1.506196e+003;8.328041e-002
1.508125e+003;8.273946e-002
1.510053e+003;8.211069e-002
1.511982e+003;8.163791e-002
1.513910e+003;8.153160e-002
1.515839e+003;8.116657e-002
1.517767e+003;8.052811e-002
1.519696e+003;7.998753e-002
1.521624e+003;7.958846e-002
1.523553e+003;7.947493e-002
1.525481e+003;7.933203e-002
1.527410e+003;7.936958e-002
1.529339e+003;7.948865e-002
1.531267e+003;7.934138e-002
1.533196e+003;7.917956e-002
1.535124e+003;7.936986e-002
1.537053e+003;7.956263e-002
1.538981e+003;7.944091e-002
1.540910e+003;7.952522e-002
1.542838e+003;8.002374e-002
1.544767e+003;8.004224e-002
1.546695e+003;7.991114e-002
1.548624e+003;7.999530e-002
1.550553e+003;8.011742e-002
1.552481e+003;8.010068e-002
1.554410e+003;8.000849e-002
1.556338e+003;8.002722e-002
1.558267e+003;7.970890e-002
1.560195e+003;7.927011e-002
1.562124e+003;7.920636e-002
1.564052e+003;7.943271e-002
1.565981e+003;7.958078e-002
1.567910e+003;7.977256e-002
1.569838e+003;7.999399e-002
1.571767e+003;8.035322e-002
1.573695e+003;8.054478e-002
1.575624e+003;8.035692e-002
1.577552e+003;8.030765e-002
1.579481e+003;8.034484e-002
1.581409e+003;8.029585e-002
1.583338e+003;8.056277e-002
1.585266e+003;8.104556e-002
1.587195e+003;8.129641e-002
1.589124e+003;8.131427e-002
1.591052e+003;8.131706e-002
1.592981e+003;8.118942e-002
1.594909e+003;8.117204e-002
1.596838e+003;8.118431e-002
1.598766e+003;8.120643e-002
1.600695e+003;8.123320e-002
1.602623e+003;8.126856e-002
1.604552e+003;8.157102e-002
1.606480e+003;8.192243e-002
1.608409e+003;8.217022e-002
1.610338e+003;8.262590e-002
1.612266e+003;8.314485e-002
1.614195e+003;8.352135e-002
1.616123e+003;8.375832e-002
1.618052e+003;8.408617e-002
1.619980e+003;8.451066e-002
1.621909e+003;8.497312e-002
1.623837e+003;8.539610e-002
1.625766e+003;8.562404e-002
1.627694e+003;8.587052e-002
1.629623e+003;8.615342e-002
1.631552e+003;8.615176e-002
1.633480e+003;8.595771e-002
1.635409e+003;8.590952e-002
1.637337e+003;8.625549e-002
1.639266e+003;8.636745e-002
1.641194e+003;8.616861e-002
1.643123e+003;8.616259e-002
1.645051e+003;8.619027e-002
1.646980e+003;8.612098e-002
1.648909e+003;8.614465e-002
1.650837e+003;8.617027e-002
1.652766e+003;8.612950e-002
1.654694e+003;8.591098e-002
1.656623e+003;8.565027e-002
1.658551e+003;8.550429e-002
1.660480e+003;8.542905e-002
1.662408e+003;8.524971e-002
1.664337e+003;8.524402e-002
1.666266e+003;8.515754e-002
1.668194e+003;8.451368e-002
1.670123e+003;8.362807e-002
1.672051e+003;8.290437e-002
1.673980e+003;8.212850e-002
1.675908e+003;8.108350e-002
1.677837e+003;8.013814e-002
1.679765e+003;7.934567e-002
1.681694e+003;7.863113e-002
1.683622e+003;7.793251e-002
1.685551e+003;7.726517e-002
1.687479e+003;7.663831e-002
1.689408e+003;7.578111e-002
1.691337e+003;7.497438e-002
1.693265e+003;7.442694e-002
1.695194e+003;7.400323e-002
1.697122e+003;7.373269e-002
1.699051e+003;7.355031e-002
1.700979e+003;7.313455e-002
1.702908e+003;7.273623e-002
1.704836e+003;7.262698e-002
1.706765e+003;7.254846e-002
1.708693e+003;7.254611e-002
1.710622e+003;7.247751e-002
1.712551e+003;7.210694e-002
1.714479e+003;7.174963e-002
1.716408e+003;7.129681e-002
1.718336e+003;7.080173e-002
1.720265e+003;7.079872e-002
1.722193e+003;7.091188e-002
1.724122e+003;7.048199e-002
1.726050e+003;6.992660e-002
1.727979e+003;6.964746e-002
1.729908e+003;6.962199e-002
1.731836e+003;6.958146e-002
1.733765e+003;6.920473e-002
1.735693e+003;6.893478e-002
1.737622e+003;6.880134e-002
1.739550e+003;6.844711e-002
1.741479e+003;6.784780e-002
1.743407e+003;6.725913e-002
1.745336e+003;6.683134e-002
1.747265e+003;6.656487e-002
1.749193e+003;6.657190e-002
1.751122e+003;6.633358e-002
1.753050e+003;6.585865e-002
1.754979e+003;6.546056e-002
1.756907e+003;6.537542e-002
1.758836e+003;6.540775e-002
1.760764e+003;6.516587e-002
1.762693e+003;6.495564e-002
1.764621e+003;6.491259e-002
1.766550e+003;6.487057e-002
1.768479e+003;6.483368e-002
1.770407e+003;6.494240e-002
1.772336e+003;6.479675e-002
1.774264e+003;6.449571e-002
1.776193e+003;6.424658e-002
1.778121e+003;6.408841e-002
1.780050e+003;6.411007e-002
1.781978e+003;6.395567e-002
1.783907e+003;6.369231e-002
1.785835e+003;6.359828e-002
1.787764e+003;6.355536e-002
1.789693e+003;6.339027e-002
1.791621e+003;6.319466e-002
1.793550e+003;6.294797e-002
1.795478e+003;6.281397e-002
1.797407e+003;6.281335e-002
1.799335e+003;6.279857e-002
1.801264e+003;6.291361e-002
1.803192e+003;6.292100e-002
1.805121e+003;6.283031e-002
1.807049e+003;6.277265e-002
1.808978e+003;6.260438e-002
1.810907e+003;6.230940e-002
1.812835e+003;6.221720e-002
1.814764e+003;6.218879e-002
1.816692e+003;6.211011e-002
1.818621e+003;6.214085e-002
1.820549e+003;6.210736e-002
1.822478e+003;6.223938e-002
1.824406e+003;6.243192e-002
1.826335e+003;6.230466e-002
1.828264e+003;6.197270e-002
1.830192e+003;6.175897e-002
1.832121e+003;6.163756e-002
1.834049e+003;6.168870e-002
1.835978e+003;6.162011e-002
1.837906e+003;6.131176e-002
1.839835e+003;6.110633e-002
1.841763e+003;6.110503e-002
1.843692e+003;6.107841e-002
1.845620e+003;6.104409e-002
1.847549e+003;6.083284e-002
1.849478e+003;6.065796e-002
1.851406e+003;6.061940e-002
1.853335e+003;6.045973e-002
1.855263e+003;6.020552e-002
1.857192e+003;6.026018e-002
1.859120e+003;6.031473e-002
1.861049e+003;6.030582e-002
1.862977e+003;6.036765e-002
1.864906e+003;6.037527e-002
1.866834e+003;6.040013e-002
1.868763e+003;6.031084e-002
1.870692e+003;6.001320e-002
1.872620e+003;5.979526e-002
1.874549e+003;5.983751e-002
1.876477e+003;6.003934e-002
1.878406e+003;6.023151e-002
1.880334e+003;6.027369e-002
1.882263e+003;6.008420e-002
1.884191e+003;6.015353e-002
1.886120e+003;6.006829e-002
1.888048e+003;5.984280e-002
1.889977e+003;5.976473e-002
1.891906e+003;5.975530e-002
1.893834e+003;5.976241e-002
1.895763e+003;5.980302e-002
1.897691e+003;5.972439e-002
1.899620e+003;5.946339e-002
1.901548e+003;5.938695e-002
1.903477e+003;5.944470e-002
1.905405e+003;5.936119e-002
1.907334e+003;5.957891e-002
1.909262e+003;5.975397e-002
1.911191e+003;5.978823e-002
1.913120e+003;5.977534e-002
1.915048e+003;5.981047e-002
1.916977e+003;6.008309e-002
1.918905e+003;6.026855e-002
1.920834e+003;6.007419e-002
1.922762e+003;5.974184e-002
1.924691e+003;5.963809e-002
1.926619e+003;5.979241e-002
1.928548e+003;5.994754e-002
1.930477e+003;6.034633e-002
1.932405e+003;6.053658e-002
1.934334e+003;6.028389e-002
1.936262e+003;6.016723e-002
1.938191e+003;6.029801e-002
1.940119e+003;6.045523e-002
1.942048e+003;6.074316e-002
1.943976e+003;6.102090e-002
1.945905e+003;6.123823e-002
1.947833e+003;6.127124e-002
1.949762e+003;6.137930e-002
1.951691e+003;6.164577e-002
1.953619e+003;6.160522e-002
1.955548e+003;6.129199e-002
1.957476e+003;6.116865e-002
1.959405e+003;6.115748e-002
1.961333e+003;6.133725e-002
1.963262e+003;6.157876e-002
1.965190e+003;6.156364e-002
1.967119e+003;6.150526e-002
1.969047e+003;6.163099e-002
1.970976e+003;6.180225e-002
1.972905e+003;6.176898e-002
1.974833e+003;6.164386e-002
1.976762e+003;6.173296e-002
1.978690e+003;6.188134e-002
1.980619e+003;6.175133e-002
1.982547e+003;6.185826e-002
1.984476e+003;6.231621e-002
1.986404e+003;6.249436e-002
1.988333e+003;6.252076e-002
1.990261e+003;6.268866e-002
1.992190e+003;6.261207e-002
1.994119e+003;6.259909e-002
1.996047e+003;6.279371e-002
1.997976e+003;6.281059e-002
1.999904e+003;6.283679e-002
2.001833e+003;6.308270e-002
2.003761e+003;6.323590e-002
2.005690e+003;6.322616e-002
2.007618e+003;6.335040e-002
2.009547e+003;6.354773e-002
2.011476e+003;6.367712e-002
2.013404e+003;6.375359e-002
2.015333e+003;6.365694e-002
2.017261e+003;6.372996e-002
2.019190e+003;6.404916e-002
2.021118e+003;6.432369e-002
2.023047e+003;6.447934e-002
2.024975e+003;6.450928e-002
2.026904e+003;6.464784e-002
2.028833e+003;6.493425e-002
2.030761e+003;6.527056e-002
2.032690e+003;6.552170e-002
2.034618e+003;6.547986e-002
2.036547e+003;6.549076e-002
2.038475e+003;6.562886e-002
2.040404e+003;6.576558e-002
2.042332e+003;6.597601e-002
2.044261e+003;6.595811e-002
2.046189e+003;6.573316e-002
2.048118e+003;6.562975e-002
2.050047e+003;6.567939e-002
2.051975e+003;6.562948e-002
2.053904e+003;6.544492e-002
2.055832e+003;6.543910e-002
2.057761e+003;6.561668e-002
2.059689e+003;6.558508e-002
2.061618e+003;6.529212e-002
2.063546e+003;6.523190e-002
2.065475e+003;6.540952e-002
2.067404e+003;6.516255e-002
2.069332e+003;6.508445e-002
2.071260e+003;6.529301e-002
2.073189e+003;6.513819e-002
2.075118e+003;6.498323e-002
2.077046e+003;6.506170e-002
2.078975e+003;6.518909e-002
2.080903e+003;6.508949e-002
2.082832e+003;6.512810e-002
2.084760e+003;6.524619e-002
2.086689e+003;6.518211e-002
2.088617e+003;6.514612e-002
2.090546e+003;6.510767e-002
2.092475e+003;6.514000e-002
2.094403e+003;6.529605e-002
2.096332e+003;6.553792e-002
2.098260e+003;6.561861e-002
2.100189e+003;6.536953e-002
2.102117e+003;6.532066e-002
2.104046e+003;6.523921e-002
2.105974e+003;6.537739e-002
2.107903e+003;6.562936e-002
2.109832e+003;6.546048e-002
2.111760e+003;6.542431e-002
2.113688e+003;6.570472e-002
2.115617e+003;6.573108e-002
2.117546e+003;6.582905e-002
2.119474e+003;6.620286e-002
2.121403e+003;6.649490e-002
2.123331e+003;6.656418e-002
2.125260e+003;6.663653e-002
2.127188e+003;6.664781e-002
2.129117e+003;6.652872e-002
2.131045e+003;6.644960e-002
2.132974e+003;6.652525e-002
2.134903e+003;6.681865e-002
2.136831e+003;6.687497e-002
2.138760e+003;6.667940e-002
2.140688e+003;6.680165e-002
2.142617e+003;6.674852e-002
2.144545e+003;6.618175e-002
2.146474e+003;6.596410e-002
2.148402e+003;6.635787e-002
2.150331e+003;6.617813e-002
2.152260e+003;6.570873e-002
2.154188e+003;6.563206e-002
2.156117e+003;6.583656e-002
2.158045e+003;6.577210e-002
2.159974e+003;6.561445e-002
2.161902e+003;6.561954e-002
2.163831e+003;6.540574e-002
2.165759e+003;6.537019e-002
2.167688e+003;6.510443e-002
2.169616e+003;6.474909e-002
2.171545e+003;6.466468e-002
2.173474e+003;6.445224e-002
2.175402e+003;6.409686e-002
2.177331e+003;6.393766e-002
2.179259e+003;6.368057e-002
2.181188e+003;6.331827e-002
2.183116e+003;6.321409e-002
2.185045e+003;6.307572e-002
2.186973e+003;6.307384e-002
2.188902e+003;6.299350e-002
2.190831e+003;6.283996e-002
2.192759e+003;6.289400e-002
2.194688e+003;6.272162e-002
2.196616e+003;6.281875e-002
2.198545e+003;6.285214e-002
2.200473e+003;6.267802e-002
2.202402e+003;6.234715e-002
2.204330e+003;6.218287e-002
2.206259e+003;6.222198e-002
2.208188e+003;6.212127e-002
2.210116e+003;6.222068e-002
2.212044e+003;6.256006e-002
2.213973e+003;6.256320e-002
2.215902e+003;6.231629e-002
2.217830e+003;6.243873e-002
2.219759e+003;6.260350e-002
2.221687e+003;6.276224e-002
2.223616e+003;6.260568e-002
2.225544e+003;6.241440e-002
2.227473e+003;6.255769e-002
2.229401e+003;6.263469e-002
2.231330e+003;6.262635e-002
2.233259e+003;6.256538e-002
2.235187e+003;6.257946e-002
2.237116e+003;6.279187e-002
2.239044e+003;6.287060e-002
2.240973e+003;6.281791e-002
2.242901e+003;6.271519e-002
2.244830e+003;6.241781e-002
2.246758e+003;6.227150e-002
2.248687e+003;6.245931e-002
2.250615e+003;6.240223e-002
2.252544e+003;6.210067e-002
2.254473e+003;6.199907e-002
2.256401e+003;6.209428e-002
2.258330e+003;6.215457e-002
2.260258e+003;6.197423e-002
2.262187e+003;6.178609e-002
2.264115e+003;6.162996e-002
2.266044e+003;6.140888e-002
2.267972e+003;6.124514e-002
2.269901e+003;6.114836e-002
2.271830e+003;6.100912e-002
2.273758e+003;6.085525e-002
2.275687e+003;6.086764e-002
2.277615e+003;6.068527e-002
2.279544e+003;6.043288e-002
2.281472e+003;6.022200e-002
2.283401e+003;6.012404e-002
2.285329e+003;6.018413e-002
2.287258e+003;6.024929e-002
2.289187e+003;6.042080e-002
2.291115e+003;6.059361e-002
2.293043e+003;6.071195e-002
2.294972e+003;6.070086e-002
2.296901e+003;6.079091e-002
2.298829e+003;6.079933e-002
2.300758e+003;6.055098e-002
2.302686e+003;6.039293e-002
2.304615e+003;6.011726e-002
2.306543e+003;6.000414e-002
2.308472e+003;6.021180e-002
2.310400e+003;6.018965e-002
2.312329e+003;6.020468e-002
2.314258e+003;6.043794e-002
2.316186e+003;6.067849e-002
2.318115e+003;6.084835e-002
2.320043e+003;6.090103e-002
2.321972e+003;6.085224e-002
2.323900e+003;6.078508e-002
2.325829e+003;6.083276e-002
2.327757e+003;6.089867e-002
2.329686e+003;6.091937e-002
2.331615e+003;6.091536e-002
2.333543e+003;6.109427e-002
2.335472e+003;6.143427e-002
2.337400e+003;6.147053e-002
2.339329e+003;6.137606e-002
2.341257e+003;6.151645e-002
2.343186e+003;6.168224e-002
2.345114e+003;6.178980e-002
2.347043e+003;6.213167e-002
2.348971e+003;6.227655e-002
2.350900e+003;6.215220e-002
2.352829e+003;6.216329e-002
2.354757e+003;6.222121e-002
2.356686e+003;6.203041e-002
2.358614e+003;6.195493e-002
2.360543e+003;6.208343e-002
2.362471e+003;6.216535e-002
2.364400e+003;6.262822e-002
2.366328e+003;6.288366e-002
2.368257e+003;6.289381e-002
2.370186e+003;6.306277e-002
2.372114e+003;6.323372e-002
2.374042e+003;6.326266e-002
2.375971e+003;6.323467e-002
2.377900e+003;6.337930e-002
2.379828e+003;6.330352e-002
2.381757e+003;6.361751e-002
2.383685e+003;6.381238e-002
2.385614e+003;6.385541e-002
2.387542e+003;6.419464e-002
2.389471e+003;6.440062e-002
2.391399e+003;6.450732e-002
2.393328e+003;6.470910e-002
2.395257e+003;6.477844e-002
2.397185e+003;6.464273e-002
2.399114e+003;6.433864e-002
2.401042e+003;6.434928e-002
2.402971e+003;6.464837e-002
2.404899e+003;6.466972e-002
2.406828e+003;6.465857e-002
2.408756e+003;6.492132e-002
2.410685e+003;6.539346e-002
2.412614e+003;6.559268e-002
2.414542e+003;6.559730e-002
2.416471e+003;6.571061e-002
2.418399e+003;6.570761e-002
2.420328e+003;6.569041e-002
2.422256e+003;6.592710e-002
2.424185e+003;6.642269e-002
2.426113e+003;6.693584e-002
2.428042e+003;6.690021e-002
2.429970e+003;6.666522e-002
2.431899e+003;6.676355e-002
2.433828e+003;6.713706e-002
2.435756e+003;6.733046e-002
2.437685e+003;6.737438e-002
2.439613e+003;6.740959e-002
2.441542e+003;6.743149e-002
2.443470e+003;6.753623e-002
2.445399e+003;6.789738e-002
2.447327e+003;6.833068e-002
2.449256e+003;6.846589e-002
2.451185e+003;6.852792e-002
2.453113e+003;6.854996e-002
2.455042e+003;6.850460e-002
2.456970e+003;6.850810e-002
2.458899e+003;6.853440e-002
2.460827e+003;6.865977e-002
2.462756e+003;6.883003e-002
2.464684e+003;6.865935e-002
2.466613e+003;6.888590e-002
2.468542e+003;6.928692e-002
2.470470e+003;6.930561e-002
2.472398e+003;6.931063e-002
2.474327e+003;6.925718e-002
2.476256e+003;6.945501e-002
2.478184e+003;6.991294e-002
2.480113e+003;7.032056e-002
2.482041e+003;7.023124e-002
2.483970e+003;7.019923e-002
2.485898e+003;7.017633e-002
2.487827e+003;7.019062e-002
2.489755e+003;7.055312e-002
2.491684e+003;7.082146e-002
2.493613e+003;7.097262e-002
2.495541e+003;7.097594e-002
2.497470e+003;7.094921e-002
2.499398e+003;7.091434e-002
2.501327e+003;7.088520e-002
2.503255e+003;7.116795e-002
2.505184e+003;7.160253e-002
2.507112e+003;7.184086e-002
2.509041e+003;7.153873e-002
2.510969e+003;7.142525e-002
2.512898e+003;7.178934e-002
2.514827e+003;7.222784e-002
2.516755e+003;7.248937e-002
2.518684e+003;7.251455e-002
2.520612e+003;7.239617e-002
2.522541e+003;7.261574e-002
2.524469e+003;7.278692e-002
2.526398e+003;7.274183e-002
2.528326e+003;7.277415e-002
2.530255e+003;7.319274e-002
2.532184e+003;7.343610e-002
2.534112e+003;7.354795e-002
2.536041e+003;7.326428e-002
2.537969e+003;7.275613e-002
2.539898e+003;7.273737e-002
2.541826e+003;7.300901e-002
2.543755e+003;7.306025e-002
2.545683e+003;7.290738e-002
2.547612e+003;7.293105e-002
2.549541e+003;7.319105e-002
2.551469e+003;7.339863e-002
2.553397e+003;7.353857e-002
2.555326e+003;7.358814e-002
2.557255e+003;7.362861e-002
2.559183e+003;7.365896e-002
2.561112e+003;7.350352e-002
2.563040e+003;7.327393e-002
2.564969e+003;7.357343e-002
2.566897e+003;7.383475e-002
2.568826e+003;7.382627e-002
2.570754e+003;7.379431e-002
2.572683e+003;7.366877e-002
2.574612e+003;7.355768e-002
2.576540e+003;7.339848e-002
2.578469e+003;7.336066e-002
2.580397e+003;7.358100e-002
2.582326e+003;7.397605e-002
2.584254e+003;7.404248e-002
2.586183e+003;7.391622e-002
2.588111e+003;7.415228e-002
2.590040e+003;7.438125e-002
2.591969e+003;7.457869e-002
2.593897e+003;7.494701e-002
2.595826e+003;7.489902e-002
2.597754e+003;7.466684e-002
2.599683e+003;7.468957e-002
2.601611e+003;7.472739e-002
2.603540e+003;7.483020e-002
2.605468e+003;7.515237e-002
2.607397e+003;7.537779e-002
2.609325e+003;7.534552e-002
2.611254e+003;7.552066e-002
2.613183e+003;7.557282e-002
2.615111e+003;7.529476e-002
2.617040e+003;7.502069e-002
2.618968e+003;7.526465e-002
2.620897e+003;7.562961e-002
2.622825e+003;7.595038e-002
2.624754e+003;7.627800e-002
2.626682e+003;7.643076e-002
2.628611e+003;7.658685e-002
2.630540e+003;7.682402e-002
2.632468e+003;7.666262e-002
2.634396e+003;7.691628e-002
2.636325e+003;7.732753e-002
2.638254e+003;7.721978e-002
2.640182e+003;7.695774e-002
2.642111e+003;7.682777e-002
2.644039e+003;7.716396e-002
2.645968e+003;7.762655e-002
2.647896e+003;7.759525e-002
2.649825e+003;7.770294e-002
2.651753e+003;7.818505e-002
2.653682e+003;7.846140e-002
2.655611e+003;7.829139e-002
2.657539e+003;7.823334e-002
2.659468e+003;7.846009e-002
2.661396e+003;7.833459e-002
2.663325e+003;7.812195e-002
2.665253e+003;7.834269e-002
2.667182e+003;7.854882e-002
2.669110e+003;7.872796e-002
2.671039e+003;7.881992e-002
2.672968e+003;7.890320e-002
2.674896e+003;7.900310e-002
2.676825e+003;7.922203e-002
2.678753e+003;7.963394e-002
2.680682e+003;8.000765e-002
2.682610e+003;7.993524e-002
2.684539e+003;7.980266e-002
2.686467e+003;7.999554e-002
2.688396e+003;8.027424e-002
2.690324e+003;8.045334e-002
2.692253e+003;8.040277e-002
2.694182e+003;8.031271e-002
2.696110e+003;8.045477e-002
2.698039e+003;8.053445e-002
2.699967e+003;8.078907e-002
2.701896e+003;8.108912e-002
2.703824e+003;8.113853e-002
2.705753e+003;8.112367e-002
2.707681e+003;8.143083e-002
2.709610e+003;8.212466e-002
2.711539e+003;8.244691e-002
2.713467e+003;8.230011e-002
2.715396e+003;8.200034e-002
2.717324e+003;8.212386e-002
2.719253e+003;8.225109e-002
2.721181e+003;8.223680e-002
2.723110e+003;8.274298e-002
2.725038e+003;8.308872e-002
2.726967e+003;8.300383e-002
2.728896e+003;8.289558e-002
2.730824e+003;8.261644e-002
2.732752e+003;8.261468e-002
2.734681e+003;8.288913e-002
2.736610e+003;8.293135e-002
2.738538e+003;8.258951e-002
2.740467e+003;8.264735e-002
2.742395e+003;8.324245e-002
2.744324e+003;8.357871e-002
2.746252e+003;8.362032e-002
2.748181e+003;8.362843e-002
2.750109e+003;8.352866e-002
2.752038e+003;8.352838e-002
2.753967e+003;8.339619e-002
2.755895e+003;8.322334e-002
2.757824e+003;8.340884e-002
2.759752e+003;8.393592e-002
2.761681e+003;8.426785e-002
2.763609e+003;8.433037e-002
2.765538e+003;8.444916e-002
2.767466e+003;8.456339e-002
2.769395e+003;8.472252e-002
2.771323e+003;8.482603e-002
2.773252e+003;8.503171e-002
2.775181e+003;8.549037e-002
2.777109e+003;8.557235e-002
2.779038e+003;8.549210e-002
2.780966e+003;8.574036e-002
2.782895e+003;8.588215e-002
2.784823e+003;8.603877e-002
2.786752e+003;8.659021e-002
2.788680e+003;8.702359e-002
2.790609e+003;8.718734e-002
2.792538e+003;8.758796e-002
2.794466e+003;8.776482e-002
2.796395e+003;8.772228e-002
2.798323e+003;8.790792e-002
2.800252e+003;8.835756e-002
2.802180e+003;8.894111e-002
2.804109e+003;8.917467e-002
2.806037e+003;8.945522e-002
2.807966e+003;9.005443e-002
2.809895e+003;9.034802e-002
2.811823e+003;9.026044e-002
2.813751e+003;9.065092e-002
2.815680e+003;9.115450e-002
2.817609e+003;9.178390e-002
2.819537e+003;9.257759e-002
2.821466e+003;9.321333e-002
2.823394e+003;9.378893e-002
2.825323e+003;9.435154e-002
2.827251e+003;9.514301e-002
2.829180e+003;9.604814e-002
2.831108e+003;9.690136e-002
2.833037e+003;9.750451e-002
2.834966e+003;9.810049e-002
2.836894e+003;9.909531e-002
2.838823e+003;1.005905e-001
2.840751e+003;1.020367e-001
2.842680e+003;1.035055e-001
2.844608e+003;1.051578e-001
2.846537e+003;1.070863e-001
2.848465e+003;1.093339e-001
2.850394e+003;1.111488e-001
2.852323e+003;1.122519e-001
2.854251e+003;1.129015e-001
2.856180e+003;1.132441e-001
2.858108e+003;1.138891e-001
2.860037e+003;1.148964e-001
2.861965e+003;1.159578e-001
2.863894e+003;1.171431e-001
2.865822e+003;1.177542e-001
2.867751e+003;1.183626e-001
2.869679e+003;1.193221e-001
2.871608e+003;1.197961e-001
2.873536e+003;1.201706e-001
2.875465e+003;1.205670e-001
2.877394e+003;1.209135e-001
2.879322e+003;1.215224e-001
2.881251e+003;1.222858e-001
2.883179e+003;1.231899e-001
2.885108e+003;1.236250e-001
2.887036e+003;1.237536e-001
2.888965e+003;1.242864e-001
2.890893e+003;1.253476e-001
2.892822e+003;1.260289e-001
2.894750e+003;1.262486e-001
2.896679e+003;1.266791e-001
2.898608e+003;1.274499e-001
2.900536e+003;1.271726e-001
2.902465e+003;1.265310e-001
2.904393e+003;1.265539e-001
2.906322e+003;1.260986e-001
2.908250e+003;1.251400e-001
2.910179e+003;1.240623e-001
2.912107e+003;1.228052e-001
2.914036e+003;1.216397e-001
2.915965e+003;1.206203e-001
2.917893e+003;1.190968e-001
2.919822e+003;1.170418e-001
2.921750e+003;1.153677e-001
2.923679e+003;1.138018e-001
2.925607e+003;1.121571e-001
2.927536e+003;1.106360e-001
2.929464e+003;1.093359e-001
2.931393e+003;1.082295e-001
2.933322e+003;1.069204e-001
2.935250e+003;1.055360e-001
2.937178e+003;1.042767e-001
2.939107e+003;1.035212e-001
2.941036e+003;1.026413e-001
2.942964e+003;1.017672e-001
2.944893e+003;1.014563e-001
2.946821e+003;1.008661e-001
2.948750e+003;9.948336e-002
2.950678e+003;9.857579e-002
2.952607e+003;9.804003e-002
2.954535e+003;9.708197e-002
2.956464e+003;9.573860e-002
2.958393e+003;9.499083e-002
2.960321e+003;9.455729e-002
2.962250e+003;9.381438e-002
2.964178e+003;9.299076e-002
2.966107e+003;9.211000e-002
2.968035e+003;9.129463e-002
2.969964e+003;9.004465e-002
2.971892e+003;8.811884e-002
2.973821e+003;8.662871e-002
2.975750e+003;8.566912e-002
2.977678e+003;8.453461e-002
2.979607e+003;8.368053e-002
2.981535e+003;8.329158e-002
2.983464e+003;8.274463e-002
2.985392e+003;8.206738e-002
2.987321e+003;8.129936e-002
2.989249e+003;8.066386e-002
2.991178e+003;8.065361e-002
2.993106e+003;8.063226e-002
2.995035e+003;8.056401e-002
2.996964e+003;8.089201e-002
2.998892e+003;8.067635e-002
3.000821e+003;8.008937e-002
3.002749e+003;8.018360e-002
3.004678e+003;8.080256e-002
3.006606e+003;8.079358e-002
3.008535e+003;8.076122e-002
3.010463e+003;8.088211e-002
3.012392e+003;8.082364e-002
3.014321e+003;8.142604e-002
3.016249e+003;8.163671e-002
3.018177e+003;8.122081e-002
3.020106e+003;8.114680e-002
3.022035e+003;8.141576e-002
3.023963e+003;8.177277e-002
3.025892e+003;8.206182e-002
3.027820e+003;8.273035e-002
3.029749e+003;8.320533e-002
3.031677e+003;8.297063e-002
3.033606e+003;8.318121e-002
3.035534e+003;8.337748e-002
3.037463e+003;8.350332e-002
3.039392e+003;8.380096e-002
3.041320e+003;8.408195e-002
3.043249e+003;8.414384e-002
3.045177e+003;8.469243e-002
3.047106e+003;8.548036e-002
3.049034e+003;8.569773e-002
3.050963e+003;8.578444e-002
3.052891e+003;8.621944e-002
3.054820e+003;8.698068e-002
3.056749e+003;8.727086e-002
3.058677e+003;8.737364e-002
3.060606e+003;8.776449e-002
3.062534e+003;8.771019e-002
3.064463e+003;8.756194e-002
3.066391e+003;8.783855e-002
3.068320e+003;8.821525e-002
3.070248e+003;8.851991e-002
3.072177e+003;8.914705e-002
3.074105e+003;8.976450e-002
3.076034e+003;9.045745e-002
3.077963e+003;9.083859e-002
3.079891e+003;9.113689e-002
3.081820e+003;9.106868e-002
3.083748e+003;9.091224e-002
3.085677e+003;9.133662e-002
3.087605e+003;9.149326e-002
3.089534e+003;9.171686e-002
3.091462e+003;9.210414e-002
3.093391e+003;9.240327e-002
3.095320e+003;9.303066e-002
3.097248e+003;9.336370e-002
3.099177e+003;9.346411e-002
3.101105e+003;9.428447e-002
3.103034e+003;9.492906e-002
3.104962e+003;9.537572e-002
3.106891e+003;9.574348e-002
3.108819e+003;9.609555e-002
3.110748e+003;9.654929e-002
3.112677e+003;9.682383e-002
3.114605e+003;9.715585e-002
3.116533e+003;9.737824e-002
3.118462e+003;9.754948e-002
3.120391e+003;9.800353e-002
3.122319e+003;9.866627e-002
3.124248e+003;9.939142e-002
3.126176e+003;1.001870e-001
3.128105e+003;1.010205e-001
3.130033e+003;1.017109e-001
3.131962e+003;1.018962e-001
3.133890e+003;1.020839e-001
3.135819e+003;1.026972e-001
3.137748e+003;1.036584e-001
3.139676e+003;1.043067e-001
3.141605e+003;1.041487e-001
3.143533e+003;1.042206e-001
3.145462e+003;1.051050e-001
3.147390e+003;1.060304e-001
3.149319e+003;1.066601e-001
3.151247e+003;1.069491e-001
3.153176e+003;1.071219e-001
3.155104e+003;1.080773e-001
3.157033e+003;1.093828e-001
3.158962e+003;1.099645e-001
3.160890e+003;1.102855e-001
3.162819e+003;1.105695e-001
3.164747e+003;1.109608e-001
3.166676e+003;1.120298e-001
3.168604e+003;1.128416e-001
3.170533e+003;1.138124e-001
3.172461e+003;1.146864e-001
3.174390e+003;1.148749e-001
3.176319e+003;1.156237e-001
3.178247e+003;1.168718e-001
3.180176e+003;1.177121e-001
3.182104e+003;1.181416e-001
3.184033e+003;1.186321e-001
3.185961e+003;1.196295e-001
3.187890e+003;1.203919e-001
3.189818e+003;1.211312e-001
3.191747e+003;1.223773e-001
3.193676e+003;1.236940e-001
3.195604e+003;1.243102e-001
3.197532e+003;1.249111e-001
3.199461e+003;1.257903e-001
3.201390e+003;1.264250e-001
3.203318e+003;1.273006e-001
3.205247e+003;1.282628e-001
3.207175e+003;1.294322e-001
3.209104e+003;1.310200e-001
3.211032e+003;1.325141e-001
3.212961e+003;1.331267e-001
3.214889e+003;1.334066e-001
3.216818e+003;1.342022e-001
3.218747e+003;1.355976e-001
3.220675e+003;1.369621e-001
3.222604e+003;1.384182e-001
3.224532e+003;1.400191e-001
3.226461e+003;1.417806e-001
3.228389e+003;1.434488e-001
3.230318e+003;1.441741e-001
3.232246e+003;1.443456e-001
3.234175e+003;1.455245e-001
3.236104e+003;1.474391e-001
3.238032e+003;1.488103e-001
3.239961e+003;1.503446e-001
3.241889e+003;1.518872e-001
3.243818e+003;1.531637e-001
3.245746e+003;1.548230e-001
3.247675e+003;1.566847e-001
3.249603e+003;1.586834e-001
3.251532e+003;1.604936e-001
3.253460e+003;1.615403e-001
3.255389e+003;1.629073e-001
3.257318e+003;1.648368e-001
3.259246e+003;1.669185e-001
3.261175e+003;1.688305e-001
3.263103e+003;1.699317e-001
3.265032e+003;1.713066e-001
3.266960e+003;1.725205e-001
3.268889e+003;1.733015e-001
3.270817e+003;1.745223e-001
3.272746e+003;1.760284e-001
3.274675e+003;1.768074e-001
3.276603e+003;1.772046e-001
3.278531e+003;1.776965e-001
3.280460e+003;1.778761e-001
3.282389e+003;1.787267e-001
3.284317e+003;1.792902e-001
3.286246e+003;1.796519e-001
3.288174e+003;1.797968e-001
3.290103e+003;1.797969e-001
3.292031e+003;1.804634e-001
3.293960e+003;1.807151e-001
3.295888e+003;1.806715e-001
3.297817e+003;1.806499e-001
3.299746e+003;1.798555e-001
3.301674e+003;1.800187e-001
3.303603e+003;1.806522e-001
3.305531e+003;1.806652e-001
3.307460e+003;1.811791e-001
3.309388e+003;1.816472e-001
3.311317e+003;1.821323e-001
3.313245e+003;1.826802e-001
3.315174e+003;1.836193e-001
3.317103e+003;1.849996e-001
3.319031e+003;1.852522e-001
3.320960e+003;1.852663e-001
3.322888e+003;1.865532e-001
3.324817e+003;1.882500e-001
3.326745e+003;1.893602e-001
3.328674e+003;1.896526e-001
3.330602e+003;1.905583e-001
3.332531e+003;1.905066e-001
3.334459e+003;1.891833e-001
3.336388e+003;1.880668e-001
3.338317e+003;1.872982e-001
3.340245e+003;1.867232e-001
3.342174e+003;1.852985e-001
3.344102e+003;1.835873e-001
3.346031e+003;1.822662e-001
3.347959e+003;1.807316e-001
3.349888e+003;1.791436e-001
3.351816e+003;1.779944e-001
3.353745e+003;1.766389e-001
3.355674e+003;1.744543e-001
3.357602e+003;1.727031e-001
3.359531e+003;1.710603e-001
3.361459e+003;1.694025e-001
3.363388e+003;1.679335e-001
3.365316e+003;1.667997e-001
3.367245e+003;1.658315e-001
3.369173e+003;1.647439e-001
3.371102e+003;1.636376e-001
3.373031e+003;1.629289e-001
3.374959e+003;1.622858e-001
3.376887e+003;1.609588e-001
3.378816e+003;1.592151e-001
3.380745e+003;1.577175e-001
3.382673e+003;1.568404e-001
3.384602e+003;1.563199e-001
3.386530e+003;1.551289e-001
3.388459e+003;1.537539e-001
3.390387e+003;1.534659e-001
3.392316e+003;1.531370e-001
3.394244e+003;1.519750e-001
3.396173e+003;1.511184e-001
3.398102e+003;1.505834e-001
3.400030e+003;1.499525e-001
3.401959e+003;1.491159e-001
3.403887e+003;1.484995e-001
3.405816e+003;1.481524e-001
3.407744e+003;1.472014e-001
3.409673e+003;1.457928e-001
3.411601e+003;1.440529e-001
3.413530e+003;1.429357e-001
3.415458e+003;1.419753e-001
3.417387e+003;1.401201e-001
3.419316e+003;1.384235e-001
3.421244e+003;1.376657e-001
3.423173e+003;1.368445e-001
3.425101e+003;1.353550e-001
3.427030e+003;1.336397e-001
3.428958e+003;1.323269e-001
3.430887e+003;1.316932e-001
3.432815e+003;1.301383e-001
3.434744e+003;1.287813e-001
3.436673e+003;1.280206e-001
3.438601e+003;1.270875e-001
3.440530e+003;1.256067e-001
3.442458e+003;1.245638e-001
3.444387e+003;1.230373e-001
3.446315e+003;1.214711e-001
3.448244e+003;1.205412e-001
3.450172e+003;1.196649e-001
3.452101e+003;1.187054e-001
3.454030e+003;1.172999e-001
3.455958e+003;1.164074e-001
3.457886e+003;1.158974e-001
3.459815e+003;1.145363e-001
3.461744e+003;1.123385e-001
3.463672e+003;1.107111e-001
3.465601e+003;1.096539e-001
3.467529e+003;1.087763e-001
3.469458e+003;1.076105e-001
3.471386e+003;1.065408e-001
3.473315e+003;1.053310e-001
3.475243e+003;1.038713e-001
3.477172e+003;1.027218e-001
3.479101e+003;1.016214e-001
3.481029e+003;1.006282e-001
3.482958e+003;1.000107e-001
3.484886e+003;9.943228e-002
3.486815e+003;9.777559e-002
3.488743e+003;9.583982e-002
3.490672e+003;9.508271e-002
3.492600e+003;9.448484e-002
3.494529e+003;9.298990e-002
3.496458e+003;9.194671e-002
3.498386e+003;9.183085e-002
3.500315e+003;9.063835e-002
3.502243e+003;8.883592e-002
3.504172e+003;8.777500e-002
3.506100e+003;8.642086e-002
3.508029e+003;8.502494e-002
3.509957e+003;8.436091e-002
3.511886e+003;8.398754e-002
3.513814e+003;8.300348e-002
3.515743e+003;8.184285e-002
3.517672e+003;8.121758e-002
3.519600e+003;8.090103e-002
3.521529e+003;8.031642e-002
3.523457e+003;7.885929e-002
3.525386e+003;7.812294e-002
3.527314e+003;7.759573e-002
3.529243e+003;7.635779e-002
3.531171e+003;7.545241e-002
3.533100e+003;7.481946e-002
3.535029e+003;7.379222e-002
3.536957e+003;7.264707e-002
3.538885e+003;7.196825e-002
3.540814e+003;7.140791e-002
3.542743e+003;7.057971e-002
3.544671e+003;7.008594e-002
3.546600e+003;6.946231e-002
3.548528e+003;6.885154e-002
3.550457e+003;6.831067e-002
3.552385e+003;6.758756e-002
3.554314e+003;6.648910e-002
3.556242e+003;6.545601e-002
3.558171e+003;6.466387e-002
3.560100e+003;6.391340e-002
3.562028e+003;6.319182e-002
3.563957e+003;6.270110e-002
3.565885e+003;6.251433e-002
3.567814e+003;6.195470e-002
3.569742e+003;6.086508e-002
3.571671e+003;5.970386e-002
3.573599e+003;5.931029e-002
3.575528e+003;5.971743e-002
3.577457e+003;5.949333e-002
3.579385e+003;5.895045e-002
3.581314e+003;5.858179e-002
3.583242e+003;5.792353e-002
3.585171e+003;5.705611e-002
3.587099e+003;5.623754e-002
3.589028e+003;5.564322e-002
3.590956e+003;5.555732e-002
3.592885e+003;5.540849e-002
3.594813e+003;5.483380e-002
3.596742e+003;5.396540e-002
3.598671e+003;5.369971e-002
3.600599e+003;5.311083e-002
3.602528e+003;5.285202e-002
3.604456e+003;5.293870e-002
3.606385e+003;5.220110e-002
3.608313e+003;5.128623e-002
3.610242e+003;5.057225e-002
3.612170e+003;5.046501e-002
3.614099e+003;5.045972e-002
3.616028e+003;4.965269e-002
3.617956e+003;4.887575e-002
3.619885e+003;4.847312e-002
3.621813e+003;4.801562e-002
3.623742e+003;4.796936e-002
3.625670e+003;4.833596e-002
3.627599e+003;4.818033e-002
3.629527e+003;4.747306e-002
3.631456e+003;4.683974e-002
3.633385e+003;4.570871e-002
3.635313e+003;4.493496e-002
3.637241e+003;4.522168e-002
3.639170e+003;4.522035e-002
3.641099e+003;4.423427e-002
3.643027e+003;4.352599e-002
3.644956e+003;4.371946e-002
3.646884e+003;4.368538e-002
3.648813e+003;4.333564e-002
3.650741e+003;4.271144e-002
3.652670e+003;4.210152e-002
3.654598e+003;4.172205e-002
3.656527e+003;4.118922e-002
3.658456e+003;4.103180e-002
3.660384e+003;4.117053e-002
3.662313e+003;4.052524e-002
3.664241e+003;3.903774e-002
3.666170e+003;3.877761e-002
3.668098e+003;3.911895e-002
3.670027e+003;3.877283e-002
3.671955e+003;3.842615e-002
3.673884e+003;3.827555e-002
3.675813e+003;3.736952e-002
3.677741e+003;3.702136e-002
3.679669e+003;3.681639e-002
3.681598e+003;3.640774e-002
3.683527e+003;3.622698e-002
3.685455e+003;3.647026e-002
3.687384e+003;3.630600e-002
3.689312e+003;3.585566e-002
3.691241e+003;3.560966e-002
3.693169e+003;3.531341e-002
3.695098e+003;3.511642e-002
3.697026e+003;3.517099e-002
3.698955e+003;3.500514e-002
3.700884e+003;3.467736e-002
3.702812e+003;3.439684e-002
3.704741e+003;3.432781e-002
3.706669e+003;3.471817e-002
3.708598e+003;3.515853e-002
3.710526e+003;3.505123e-002
3.712455e+003;3.470309e-002
3.714383e+003;3.415765e-002
3.716312e+003;3.398075e-002
3.718240e+003;3.398699e-002
3.720169e+003;3.373857e-002
3.722098e+003;3.376060e-002
3.724026e+003;3.404622e-002
3.725955e+003;3.413912e-002
3.727883e+003;3.435642e-002
3.729812e+003;3.434570e-002
3.731740e+003;3.419350e-002
3.733669e+003;3.403422e-002
3.735597e+003;3.340015e-002
3.737526e+003;3.283222e-002
3.739455e+003;3.267219e-002
3.741383e+003;3.244798e-002
3.743312e+003;3.273038e-002
3.745240e+003;3.328344e-002
3.747169e+003;3.370842e-002
3.749097e+003;3.377378e-002
3.751026e+003;3.338201e-002
3.752954e+003;3.317760e-002
3.754883e+003;3.295760e-002
3.756812e+003;3.265757e-002
3.758740e+003;3.269766e-002
3.760668e+003;3.251243e-002
3.762597e+003;3.249932e-002
3.764526e+003;3.286092e-002
3.766454e+003;3.310912e-002
3.768383e+003;3.301623e-002
3.770311e+003;3.333771e-002
3.772240e+003;3.379501e-002
3.774168e+003;3.314155e-002
3.776097e+003;3.260946e-002
3.778025e+003;3.295467e-002
3.779954e+003;3.294491e-002
3.781883e+003;3.264447e-002
3.783811e+003;3.264986e-002
3.785740e+003;3.233599e-002
3.787668e+003;3.215280e-002
3.789597e+003;3.293204e-002
3.791525e+003;3.343672e-002
3.793454e+003;3.345633e-002
3.795382e+003;3.327231e-002
3.797311e+003;3.327239e-002
3.799240e+003;3.336698e-002
3.801168e+003;3.323304e-002
3.803097e+003;3.306778e-002
3.805025e+003;3.331804e-002
3.806954e+003;3.356507e-002
3.808882e+003;3.392884e-002
3.810811e+003;3.424093e-002
3.812739e+003;3.454187e-002
3.814668e+003;3.477800e-002
3.816596e+003;3.396624e-002
3.818525e+003;3.259685e-002
3.820454e+003;3.268969e-002
3.822382e+003;3.336176e-002
3.824311e+003;3.344030e-002
3.826239e+003;3.325393e-002
3.828168e+003;3.384351e-002
3.830096e+003;3.452737e-002
3.832025e+003;3.394933e-002
3.833953e+003;3.301447e-002
3.835882e+003;3.328197e-002
3.837811e+003;3.441054e-002
3.839739e+003;3.529181e-002
3.841667e+003;3.524300e-002
3.843596e+003;3.487005e-002
3.845525e+003;3.471059e-002
3.847453e+003;3.491820e-002
3.849382e+003;3.519306e-002
3.851310e+003;3.488154e-002
3.853239e+003;3.476666e-002
3.855167e+003;3.545737e-002
3.857096e+003;3.643509e-002
3.859024e+003;3.586610e-002
3.860953e+003;3.508011e-002
3.862882e+003;3.465744e-002
3.864810e+003;3.457631e-002
3.866739e+003;3.493910e-002
3.868667e+003;3.492926e-002
3.870596e+003;3.500539e-002
3.872524e+003;3.564699e-002
3.874453e+003;3.578204e-002
3.876381e+003;3.550714e-002
3.878310e+003;3.594725e-002
3.880239e+003;3.654407e-002
3.882167e+003;3.613957e-002
3.884096e+003;3.591850e-002
3.886024e+003;3.578484e-002
3.887953e+003;3.552921e-002
3.889881e+003;3.572343e-002
3.891810e+003;3.648947e-002
3.893738e+003;3.625708e-002
3.895667e+003;3.562987e-002
3.897595e+003;3.586984e-002
3.899524e+003;3.608135e-002
3.901453e+003;3.684340e-002
3.903381e+003;3.691432e-002
3.905310e+003;3.666097e-002
3.907238e+003;3.728816e-002
3.909167e+003;3.724130e-002
3.911095e+003;3.687348e-002
3.913024e+003;3.727303e-002
3.914952e+003;3.798945e-002
3.916881e+003;3.779736e-002
3.918810e+003;3.705496e-002
3.920738e+003;3.699867e-002
3.922667e+003;3.669108e-002
3.924595e+003;3.696645e-002
3.926524e+003;3.742885e-002
3.928452e+003;3.746461e-002
3.930381e+003;3.722953e-002
3.932309e+003;3.708743e-002
3.934238e+003;3.770353e-002
3.936167e+003;3.808916e-002
3.938095e+003;3.737977e-002
3.940023e+003;3.699617e-002
3.941952e+003;3.732264e-002
3.943881e+003;3.749040e-002
3.945809e+003;3.805212e-002
3.947738e+003;3.840541e-002
3.949666e+003;3.880844e-002
3.951595e+003;3.898315e-002
3.953523e+003;3.880312e-002
3.955452e+003;3.885496e-002
3.957380e+003;3.881112e-002
3.959309e+003;3.888428e-002
3.961238e+003;3.919991e-002
3.963166e+003;3.899192e-002
3.965095e+003;3.856591e-002
3.967023e+003;3.853035e-002
3.968952e+003;3.786337e-002
3.970880e+003;3.830982e-002
3.972809e+003;3.905354e-002
3.974737e+003;3.900591e-002
3.976666e+003;3.893070e-002
3.978594e+003;3.902567e-002
3.980523e+003;3.973804e-002
3.982452e+003;4.073110e-002
3.984380e+003;4.026775e-002
3.986309e+003;3.959044e-002
3.988237e+003;4.052604e-002
3.990166e+003;4.048476e-002
3.992094e+003;3.931754e-002
3.994023e+003;3.874964e-002
3.995951e+003;3.851713e-002
3.997880e+003;3.855747e-002
3.999809e+003;3.966612e-002
4.001737e+003;0.000000e+000
