3.992094e+002;0.000000e+000
4.011380e+002;0.000000e+000
4.030665e+002;0.000000e+000
4.049951e+002;0.000000e+000
4.069236e+002;0.000000e+000
4.088522e+002;0.000000e+000
4.107807e+002;0.000000e+000
4.127093e+002;0.000000e+000
4.146378e+002;0.000000e+000
4.165664e+002;0.000000e+000
4.184949e+002;0.000000e+000
4.204235e+002;0.000000e+000
4.223520e+002;0.000000e+000
4.242806e+002;0.000000e+000
4.262091e+002;0.000000e+000
4.281377e+002;0.000000e+000
4.300662e+002;0.000000e+000
4.319948e+002;0.000000e+000
4.339233e+002;0.000000e+000
4.358519e+002;0.000000e+000
4.377804e+002;0.000000e+000
4.397090e+002;0.000000e+000
4.416375e+002;0.000000e+000
4.435660e+002;0.000000e+000
4.454946e+002;0.000000e+000
4.474232e+002;0.000000e+000
4.493517e+002;0.000000e+000
4.512802e+002;0.000000e+000
4.532088e+002;0.000000e+000
4.551373e+002;0.000000e+000
4.570659e+002;0.000000e+000
4.589944e+002;0.000000e+000
4.609230e+002;0.000000e+000
4.628515e+002;0.000000e+000
4.647801e+002;0.000000e+000
4.667086e+002;0.000000e+000
4.686372e+002;0.000000e+000
4.705657e+002;0.000000e+000
4.724943e+002;0.000000e+000
4.744228e+002;0.000000e+000
4.763513e+002;0.000000e+000
4.782799e+002;0.000000e+000
4.802085e+002;0.000000e+000
4.821370e+002;0.000000e+000
4.840656e+002;0.000000e+000
4.859941e+002;0.000000e+000
4.879226e+002;0.000000e+000
4.898512e+002;0.000000e+000
4.917798e+002;0.000000e+000
4.937083e+002;0.000000e+000
4.956368e+002;0.000000e+000
4.975654e+002;0.000000e+000
4.994939e+002;0.000000e+000
5.014225e+002;0.000000e+000
5.033510e+002;0.000000e+000
5.052796e+002;0.000000e+000
5.072081e+002;0.000000e+000
5.091367e+002;0.000000e+000
5.110652e+002;0.000000e+000
5.129938e+002;0.000000e+000
5.149223e+002;0.000000e+000
5.168509e+002;0.000000e+000
5.187794e+002;0.000000e+000
5.207079e+002;0.000000e+000
5.226365e+002;0.000000e+000
5.245651e+002;0.000000e+000
5.264936e+002;0.000000e+000
5.284222e+002;0.000000e+000
5.303507e+002;0.000000e+000
5.322792e+002;0.000000e+000
5.342078e+002;0.000000e+000
5.361364e+002;0.000000e+000
5.380649e+002;0.000000e+000
5.399935e+002;0.000000e+000
5.419220e+002;0.000000e+000
5.438505e+002;0.000000e+000
5.457791e+002;0.000000e+000
5.477076e+002;0.000000e+000
5.496362e+002;0.000000e+000
5.515648e+002;0.000000e+000
5.534933e+002;0.000000e+000
5.554218e+002;0.000000e+000
5.573504e+002;0.000000e+000
5.592789e+002;0.000000e+000
5.612075e+002;0.000000e+000
5.631360e+002;0.000000e+000
5.650646e+002;0.000000e+000
5.669931e+002;0.000000e+000
5.689217e+002;0.000000e+000
5.708502e+002;0.000000e+000
5.727787e+002;0.000000e+000
5.747073e+002;0.000000e+000
5.766359e+002;0.000000e+000
5.785644e+002;0.000000e+000
5.804930e+002;0.000000e+000
5.824215e+002;0.000000e+000
5.843500e+002;0.000000e+000
5.862786e+002;0.000000e+000
5.882072e+002;0.000000e+000
5.901357e+002;0.000000e+000
5.920643e+002;0.000000e+000
5.939928e+002;0.000000e+000
5.959213e+002;0.000000e+000
5.978499e+002;0.000000e+000
5.997784e+002;3.030637e-001
6.017070e+002;3.021669e-001
6.036355e+002;3.020645e-001
6.055641e+002;3.011121e-001
6.074926e+002;2.997615e-001
6.094211e+002;3.044688e-001
6.113497e+002;3.050952e-001
6.132783e+002;3.002682e-001
6.152068e+002;2.986383e-001
6.171354e+002;2.981701e-001
6.190639e+002;2.925452e-001
6.209924e+002;2.879221e-001
6.229210e+002;2.792274e-001
6.248495e+002;2.681767e-001
6.267781e+002;2.642815e-001
6.287067e+002;2.624876e-001
6.306352e+002;2.611722e-001
6.325637e+002;2.585576e-001
6.344923e+002;2.560936e-001
6.364208e+002;2.542908e-001
6.383494e+002;2.527167e-001
6.402780e+002;2.515783e-001
6.422065e+002;2.467975e-001
6.441350e+002;2.422655e-001
6.460636e+002;2.423988e-001
6.479921e+002;2.438713e-001
6.499207e+002;2.464210e-001
6.518492e+002;2.475706e-001
6.537778e+002;2.523318e-001
6.557063e+002;2.596660e-001
6.576349e+002;2.652067e-001
6.595634e+002;2.714449e-001
6.614919e+002;2.752014e-001
6.634205e+002;2.738309e-001
6.653491e+002;2.706836e-001
6.672776e+002;2.677780e-001
6.692062e+002;2.622095e-001
6.711347e+002;2.552580e-001
6.730632e+002;2.499271e-001
6.749918e+002;2.432660e-001
6.769203e+002;2.365213e-001
6.788489e+002;2.312675e-001
6.807775e+002;2.267322e-001
6.827060e+002;2.244512e-001
6.846345e+002;2.221620e-001
6.865631e+002;2.204110e-001
6.884916e+002;2.203605e-001
6.904202e+002;2.204270e-001
6.923488e+002;2.198505e-001
6.942773e+002;2.205567e-001
6.962058e+002;2.221255e-001
6.981344e+002;2.225119e-001
7.000629e+002;2.215375e-001
7.019915e+002;2.207237e-001
7.039200e+002;2.206225e-001
7.058486e+002;2.185112e-001
7.077771e+002;2.145003e-001
7.097057e+002;2.107596e-001
7.116342e+002;2.076178e-001
7.135627e+002;2.042016e-001
7.154913e+002;2.002160e-001
7.174199e+002;1.946154e-001
7.193484e+002;1.897379e-001
7.212770e+002;1.868713e-001
7.232055e+002;1.819173e-001
7.251340e+002;1.766147e-001
7.270626e+002;1.712158e-001
7.289911e+002;1.666466e-001
7.309197e+002;1.632136e-001
7.328483e+002;1.612398e-001
7.347768e+002;1.590092e-001
7.367053e+002;1.563760e-001
7.386339e+002;1.548041e-001
7.405624e+002;1.541414e-001
7.424910e+002;1.525546e-001
7.444196e+002;1.502424e-001
7.463481e+002;1.487610e-001
7.482766e+002;1.476758e-001
7.502052e+002;1.462074e-001
7.521337e+002;1.438478e-001
7.540623e+002;1.418947e-001
7.559908e+002;1.409476e-001
7.579194e+002;1.400166e-001
7.598479e+002;1.388758e-001
7.617765e+002;1.374162e-001
7.637050e+002;1.374676e-001
7.656335e+002;1.373777e-001
7.675621e+002;1.357463e-001
7.694907e+002;1.345921e-001
7.714192e+002;1.338983e-001
7.733478e+002;1.337532e-001
7.752763e+002;1.333884e-001
7.772048e+002;1.325029e-001
7.791334e+002;1.324489e-001
7.810620e+002;1.330791e-001
7.829905e+002;1.335659e-001
7.849191e+002;1.346636e-001
7.868476e+002;1.361417e-001
7.887761e+002;1.379585e-001
7.907047e+002;1.398338e-001
7.926332e+002;1.415359e-001
7.945618e+002;1.441617e-001
7.964903e+002;1.462849e-001
7.984189e+002;1.467757e-001
8.003474e+002;1.470110e-001
8.022759e+002;1.471007e-001
8.042045e+002;1.467970e-001
8.061331e+002;1.464055e-001
8.080616e+002;1.463185e-001
8.099902e+002;1.460281e-001
8.119187e+002;1.446701e-001
8.138472e+002;1.438044e-001
8.157758e+002;1.433295e-001
8.177043e+002;1.425026e-001
8.196329e+002;1.421478e-001
8.215615e+002;1.411694e-001
8.234900e+002;1.390844e-001
8.254185e+002;1.365513e-001
8.273471e+002;1.347160e-001
8.292756e+002;1.328729e-001
8.312042e+002;1.307457e-001
8.331328e+002;1.292532e-001
8.350613e+002;1.279314e-001
8.369898e+002;1.266851e-001
8.389184e+002;1.261135e-001
8.408469e+002;1.255603e-001
8.427755e+002;1.257523e-001
8.447040e+002;1.262814e-001
8.466326e+002;1.269592e-001
8.485611e+002;1.268519e-001
8.504897e+002;1.263273e-001
8.524182e+002;1.267622e-001
8.543467e+002;1.277294e-001
8.562753e+002;1.289179e-001
8.582039e+002;1.299057e-001
8.601324e+002;1.305948e-001
8.620610e+002;1.318056e-001
8.639895e+002;1.328150e-001
8.659180e+002;1.339764e-001
8.678466e+002;1.353410e-001
8.697751e+002;1.365142e-001
8.717037e+002;1.384665e-001
8.736323e+002;1.412003e-001
8.755608e+002;1.438147e-001
8.774893e+002;1.460078e-001
8.794179e+002;1.486710e-001
8.813464e+002;1.514885e-001
8.832750e+002;1.538987e-001
8.852036e+002;1.568678e-001
8.871321e+002;1.605258e-001
8.890606e+002;1.635966e-001
8.909892e+002;1.661093e-001
8.929177e+002;1.687138e-001
8.948463e+002;1.705582e-001
8.967748e+002;1.713582e-001
8.987034e+002;1.713767e-001
9.006319e+002;1.708232e-001
9.025605e+002;1.695812e-001
9.044890e+002;1.677775e-001
9.064175e+002;1.659802e-001
9.083461e+002;1.642154e-001
9.102747e+002;1.620189e-001
9.122032e+002;1.606330e-001
9.141318e+002;1.597438e-001
9.160603e+002;1.587290e-001
9.179888e+002;1.580942e-001
9.199174e+002;1.579321e-001
9.218459e+002;1.584816e-001
9.237745e+002;1.595777e-001
9.257031e+002;1.607440e-001
9.276316e+002;1.621932e-001
9.295601e+002;1.643273e-001
9.314887e+002;1.666087e-001
9.334172e+002;1.682115e-001
9.353458e+002;1.695217e-001
9.372744e+002;1.711206e-001
9.392029e+002;1.732586e-001
9.411314e+002;1.760620e-001
9.430600e+002;1.790959e-001
9.449885e+002;1.825454e-001
9.469171e+002;1.857944e-001
9.488456e+002;1.896625e-001
9.507742e+002;1.945455e-001
9.527027e+002;1.996762e-001
9.546313e+002;2.050796e-001
9.565598e+002;2.109480e-001
9.584883e+002;2.171063e-001
9.604169e+002;2.239117e-001
9.623455e+002;2.309656e-001
9.642740e+002;2.382069e-001
9.662026e+002;2.457245e-001
9.681311e+002;2.543620e-001
9.700596e+002;2.647473e-001
9.719882e+002;2.767496e-001
9.739167e+002;2.908777e-001
9.758453e+002;3.074940e-001
9.777739e+002;3.268675e-001
9.797024e+002;3.474379e-001
9.816309e+002;3.639509e-001
9.835595e+002;3.729927e-001
9.854880e+002;3.759061e-001
9.874166e+002;3.766718e-001
9.893452e+002;3.794686e-001
9.912737e+002;3.857493e-001
9.932022e+002;3.946091e-001
9.951307e+002;4.053455e-001
9.970593e+002;4.162400e-001
9.989879e+002;4.240170e-001
1.000916e+003;4.285164e-001
1.002845e+003;4.307407e-001
1.004773e+003;4.317739e-001
1.006702e+003;4.330957e-001
1.008631e+003;4.354568e-001
1.010559e+003;4.395938e-001
1.012488e+003;4.463378e-001
1.014416e+003;4.546508e-001
1.016345e+003;4.621647e-001
1.018273e+003;4.689371e-001
1.020202e+003;4.761557e-001
1.022130e+003;4.843533e-001
1.024059e+003;4.929402e-001
1.025988e+003;5.013844e-001
1.027916e+003;5.067108e-001
1.029845e+003;5.092632e-001
1.031773e+003;5.084885e-001
1.033702e+003;5.020356e-001
1.035630e+003;4.912104e-001
1.037559e+003;4.780631e-001
1.039487e+003;4.661491e-001
1.041416e+003;4.592417e-001
1.043344e+003;4.584748e-001
1.045273e+003;4.637573e-001
1.047202e+003;4.720031e-001
1.049130e+003;4.802140e-001
1.051059e+003;4.870482e-001
1.052987e+003;4.910201e-001
1.054916e+003;4.907204e-001
1.056844e+003;4.836693e-001
1.058773e+003;4.690030e-001
1.060701e+003;4.472653e-001
1.062630e+003;4.199477e-001
1.064558e+003;3.942977e-001
1.066487e+003;3.737491e-001
1.068416e+003;3.569936e-001
1.070344e+003;3.441417e-001
1.072273e+003;3.351744e-001
1.074201e+003;3.282527e-001
1.076130e+003;3.217189e-001
1.078058e+003;3.150432e-001
1.079987e+003;3.091329e-001
1.081915e+003;3.048333e-001
1.083844e+003;3.030809e-001
1.085773e+003;3.028043e-001
1.087701e+003;3.034735e-001
1.089630e+003;3.050244e-001
1.091558e+003;3.072000e-001
1.093487e+003;3.102907e-001
1.095415e+003;3.140612e-001
1.097344e+003;3.179526e-001
1.099272e+003;3.216828e-001
1.101201e+003;3.237656e-001
1.103129e+003;3.231462e-001
1.105058e+003;3.208890e-001
1.106987e+003;3.173129e-001
1.108915e+003;3.126266e-001
1.110844e+003;3.069186e-001
1.112772e+003;2.969515e-001
1.114701e+003;2.820722e-001
1.116629e+003;2.651290e-001
1.118558e+003;2.504033e-001
1.120486e+003;2.397739e-001
1.122415e+003;2.311279e-001
1.124344e+003;2.219015e-001
1.126272e+003;2.121439e-001
1.128201e+003;2.030049e-001
1.130129e+003;1.955268e-001
1.132058e+003;1.891407e-001
1.133986e+003;1.840715e-001
1.135915e+003;1.801874e-001
1.137843e+003;1.775052e-001
1.139772e+003;1.769723e-001
1.141700e+003;1.789078e-001
1.143629e+003;1.820291e-001
1.145557e+003;1.853641e-001
1.147486e+003;1.883883e-001
1.149415e+003;1.904170e-001
1.151343e+003;1.920104e-001
1.153272e+003;1.944246e-001
1.155200e+003;1.971416e-001
1.157129e+003;1.994804e-001
1.159057e+003;2.002532e-001
1.160986e+003;1.985909e-001
1.162914e+003;1.937657e-001
1.164843e+003;1.855413e-001
1.166771e+003;1.749388e-001
1.168700e+003;1.638726e-001
1.170629e+003;1.539117e-001
1.172557e+003;1.454484e-001
1.174486e+003;1.384191e-001
1.176414e+003;1.331446e-001
1.178343e+003;1.291707e-001
1.180271e+003;1.259099e-001
1.182200e+003;1.234505e-001
1.184128e+003;1.218233e-001
1.186057e+003;1.216146e-001
1.187986e+003;1.225090e-001
1.189914e+003;1.239746e-001
1.191843e+003;1.260566e-001
1.193771e+003;1.284988e-001
1.195700e+003;1.315897e-001
1.197628e+003;1.343549e-001
1.199557e+003;1.363208e-001
1.201485e+003;1.376475e-001
1.203414e+003;1.377514e-001
1.205343e+003;1.368318e-001
1.207271e+003;1.344132e-001
1.209200e+003;1.298186e-001
1.211128e+003;1.244307e-001
1.213057e+003;1.202229e-001
1.214985e+003;1.183519e-001
1.216914e+003;1.182613e-001
1.218842e+003;1.193126e-001
1.220771e+003;1.212400e-001
1.222699e+003;1.232006e-001
1.224628e+003;1.252670e-001
1.226557e+003;1.275062e-001
1.228485e+003;1.296466e-001
1.230414e+003;1.318944e-001
1.232342e+003;1.341597e-001
1.234271e+003;1.357837e-001
1.236199e+003;1.363371e-001
1.238128e+003;1.363460e-001
1.240056e+003;1.368284e-001
1.241985e+003;1.382607e-001
1.243913e+003;1.403429e-001
1.245842e+003;1.426614e-001
1.247771e+003;1.441740e-001
1.249699e+003;1.447823e-001
1.251628e+003;1.458922e-001
1.253556e+003;1.478795e-001
1.255485e+003;1.505359e-001
1.257413e+003;1.539304e-001
1.259342e+003;1.571293e-001
1.261270e+003;1.585944e-001
1.263199e+003;1.578743e-001
1.265127e+003;1.557885e-001
1.267056e+003;1.531195e-001
1.268985e+003;1.510465e-001
1.270913e+003;1.501051e-001
1.272842e+003;1.500050e-001
1.274770e+003;1.504266e-001
1.276699e+003;1.506085e-001
1.278627e+003;1.500366e-001
1.280556e+003;1.484948e-001
1.282484e+003;1.466148e-001
1.284413e+003;1.451562e-001
1.286342e+003;1.439789e-001
1.288270e+003;1.432317e-001
1.290199e+003;1.434795e-001
1.292127e+003;1.441039e-001
1.294056e+003;1.446389e-001
1.295984e+003;1.459294e-001
1.297913e+003;1.481540e-001
1.299841e+003;1.511919e-001
1.301770e+003;1.552600e-001
1.303698e+003;1.602475e-001
1.305627e+003;1.655732e-001
1.307556e+003;1.712055e-001
1.309484e+003;1.767123e-001
1.311413e+003;1.814436e-001
1.313341e+003;1.843379e-001
1.315270e+003;1.845838e-001
1.317198e+003;1.821743e-001
1.319127e+003;1.778634e-001
1.321055e+003;1.728733e-001
1.322984e+003;1.683746e-001
1.324912e+003;1.654876e-001
1.326841e+003;1.641589e-001
1.328770e+003;1.647318e-001
1.330698e+003;1.669195e-001
1.332627e+003;1.689512e-001
1.334555e+003;1.695565e-001
1.336484e+003;1.684670e-001
1.338412e+003;1.663092e-001
1.340341e+003;1.635225e-001
1.342269e+003;1.597089e-001
1.344198e+003;1.556187e-001
1.346126e+003;1.520674e-001
1.348055e+003;1.498028e-001
1.349984e+003;1.492077e-001
1.351912e+003;1.496600e-001
1.353841e+003;1.509783e-001
1.355769e+003;1.524890e-001
1.357698e+003;1.540034e-001
1.359626e+003;1.550911e-001
1.361555e+003;1.545387e-001
1.363483e+003;1.528653e-001
1.365412e+003;1.516759e-001
1.367341e+003;1.513344e-001
1.369269e+003;1.510269e-001
1.371198e+003;1.494991e-001
1.373126e+003;1.463843e-001
1.375055e+003;1.424661e-001
1.376983e+003;1.384593e-001
1.378912e+003;1.345781e-001
1.380840e+003;1.309565e-001
1.382769e+003;1.278113e-001
1.384698e+003;1.252751e-001
1.386626e+003;1.233849e-001
1.388555e+003;1.218678e-001
1.390483e+003;1.208085e-001
1.392412e+003;1.203585e-001
1.394340e+003;1.203350e-001
1.396269e+003;1.207097e-001
1.398197e+003;1.210092e-001
1.400126e+003;1.214151e-001
1.402054e+003;1.219371e-001
1.403983e+003;1.223198e-001
1.405911e+003;1.225188e-001
1.407840e+003;1.228549e-001
1.409769e+003;1.234148e-001
1.411697e+003;1.243794e-001
1.413626e+003;1.259674e-001
1.415554e+003;1.278423e-001
1.417483e+003;1.299047e-001
1.419411e+003;1.322715e-001
1.421340e+003;1.348247e-001
1.423268e+003;1.369204e-001
1.425197e+003;1.382357e-001
1.427125e+003;1.390880e-001
1.429054e+003;1.391362e-001
1.430983e+003;1.380134e-001
1.432911e+003;1.361203e-001
1.434840e+003;1.338068e-001
1.436768e+003;1.316564e-001
1.438697e+003;1.301247e-001
1.440625e+003;1.290891e-001
1.442554e+003;1.283753e-001
1.444482e+003;1.278905e-001
1.446411e+003;1.274763e-001
1.448340e+003;1.272953e-001
1.450268e+003;1.273937e-001
1.452197e+003;1.272122e-001
1.454125e+003;1.262082e-001
1.456054e+003;1.244412e-001
1.457982e+003;1.226134e-001
1.459911e+003;1.206682e-001
1.461839e+003;1.183860e-001
1.463768e+003;1.158498e-001
1.465697e+003;1.134582e-001
1.467625e+003;1.115761e-001
1.469554e+003;1.095622e-001
1.471482e+003;1.071593e-001
1.473411e+003;1.049557e-001
1.475339e+003;1.032405e-001
1.477268e+003;1.020683e-001
1.479196e+003;1.013476e-001
1.481125e+003;1.001497e-001
1.483053e+003;9.782693e-002
1.484982e+003;9.508032e-002
1.486911e+003;9.269312e-002
1.488839e+003;9.072282e-002
1.490768e+003;8.892668e-002
1.492696e+003;8.773652e-002
1.494625e+003;8.717462e-002
1.496553e+003;8.676452e-002
1.498482e+003;8.628411e-002
1.500410e+003;8.573140e-002
1.502339e+003;8.526305e-002
1.504267e+003;8.480608e-002
1.506196e+003;8.433125e-002
1.508125e+003;8.373084e-002
1.510053e+003;8.312495e-002
1.511982e+003;8.269813e-002
1.513910e+003;8.259869e-002
1.515839e+003;8.224117e-002
1.517767e+003;8.168942e-002
1.519696e+003;8.143567e-002
1.521624e+003;8.103258e-002
1.523553e+003;8.077642e-002
1.525481e+003;8.073440e-002
1.527410e+003;8.069917e-002
1.529339e+003;8.073608e-002
1.531267e+003;8.080097e-002
1.533196e+003;8.099521e-002
1.535124e+003;8.100858e-002
1.537053e+003;8.076301e-002
1.538981e+003;8.057602e-002
1.540910e+003;8.070635e-002
1.542838e+003;8.100823e-002
1.544767e+003;8.089225e-002
1.546695e+003;8.089384e-002
1.548624e+003;8.096027e-002
1.550553e+003;8.087029e-002
1.552481e+003;8.089364e-002
1.554410e+003;8.090949e-002
1.556338e+003;8.099081e-002
1.558267e+003;8.080212e-002
1.560195e+003;8.042645e-002
1.562124e+003;8.050689e-002
1.564052e+003;8.056855e-002
1.565981e+003;8.058367e-002
1.567910e+003;8.069685e-002
1.569838e+003;8.077231e-002
1.571767e+003;8.114536e-002
1.573695e+003;8.133480e-002
1.575624e+003;8.102927e-002
1.577552e+003;8.091105e-002
1.579481e+003;8.103538e-002
1.581409e+003;8.114763e-002
1.583338e+003;8.132201e-002
1.585266e+003;8.156039e-002
1.587195e+003;8.181765e-002
1.589124e+003;8.199998e-002
1.591052e+003;8.200882e-002
1.592981e+003;8.204032e-002
1.594909e+003;8.221230e-002
1.596838e+003;8.242007e-002
1.598766e+003;8.257340e-002
1.600695e+003;8.269749e-002
1.602623e+003;8.287297e-002
1.604552e+003;8.320247e-002
1.606480e+003;8.367680e-002
1.608409e+003;8.400162e-002
1.610338e+003;8.447149e-002
1.612266e+003;8.475006e-002
1.614195e+003;8.491228e-002
1.616123e+003;8.518770e-002
1.618052e+003;8.575755e-002
1.619980e+003;8.616344e-002
1.621909e+003;8.653145e-002
1.623837e+003;8.700630e-002
1.625766e+003;8.732264e-002
1.627694e+003;8.772706e-002
1.629623e+003;8.805013e-002
1.631552e+003;8.802339e-002
1.633480e+003;8.797819e-002
1.635409e+003;8.824119e-002
1.637337e+003;8.853831e-002
1.639266e+003;8.855843e-002
1.641194e+003;8.841474e-002
1.643123e+003;8.834457e-002
1.645051e+003;8.840983e-002
1.646980e+003;8.833835e-002
1.648909e+003;8.805776e-002
1.650837e+003;8.801475e-002
1.652766e+003;8.812972e-002
1.654694e+003;8.810249e-002
1.656623e+003;8.779962e-002
1.658551e+003;8.741578e-002
1.660480e+003;8.729205e-002
1.662408e+003;8.716288e-002
1.664337e+003;8.712441e-002
1.666266e+003;8.694558e-002
1.668194e+003;8.617152e-002
1.670123e+003;8.540574e-002
1.672051e+003;8.488230e-002
1.673980e+003;8.410897e-002
1.675908e+003;8.328949e-002
1.677837e+003;8.248946e-002
1.679765e+003;8.161796e-002
1.681694e+003;8.086853e-002
1.683622e+003;8.009889e-002
1.685551e+003;7.944437e-002
1.687479e+003;7.899726e-002
1.689408e+003;7.822758e-002
1.691337e+003;7.739587e-002
1.693265e+003;7.688101e-002
1.695194e+003;7.642452e-002
1.697122e+003;7.616422e-002
1.699051e+003;7.591601e-002
1.700979e+003;7.553075e-002
1.702908e+003;7.521898e-002
1.704836e+003;7.510699e-002
1.706765e+003;7.525712e-002
1.708693e+003;7.519235e-002
1.710622e+003;7.481217e-002
1.712551e+003;7.460588e-002
1.714479e+003;7.446159e-002
1.716408e+003;7.394749e-002
1.718336e+003;7.357146e-002
1.720265e+003;7.367423e-002
1.722193e+003;7.366586e-002
1.724122e+003;7.315765e-002
1.726050e+003;7.264896e-002
1.727979e+003;7.249188e-002
1.729908e+003;7.262440e-002
1.731836e+003;7.253394e-002
1.733765e+003;7.203794e-002
1.735693e+003;7.183578e-002
1.737622e+003;7.162609e-002
1.739550e+003;7.105761e-002
1.741479e+003;7.057752e-002
1.743407e+003;7.025165e-002
1.745336e+003;6.969905e-002
1.747265e+003;6.917489e-002
1.749193e+003;6.892966e-002
1.751122e+003;6.859051e-002
1.753050e+003;6.836617e-002
1.754979e+003;6.820676e-002
1.756907e+003;6.800393e-002
1.758836e+003;6.779949e-002
1.760764e+003;6.774895e-002
1.762693e+003;6.765644e-002
1.764621e+003;6.738893e-002
1.766550e+003;6.701540e-002
1.768479e+003;6.671425e-002
1.770407e+003;6.682724e-002
1.772336e+003;6.686078e-002
1.774264e+003;6.666561e-002
1.776193e+003;6.646396e-002
1.778121e+003;6.630834e-002
1.780050e+003;6.625450e-002
1.781978e+003;6.610138e-002
1.783907e+003;6.600799e-002
1.785835e+003;6.601188e-002
1.787764e+003;6.586487e-002
1.789693e+003;6.555831e-002
1.791621e+003;6.528123e-002
1.793550e+003;6.497669e-002
1.795478e+003;6.487188e-002
1.797407e+003;6.486811e-002
1.799335e+003;6.481510e-002
1.801264e+003;6.484033e-002
1.803192e+003;6.470983e-002
1.805121e+003;6.459554e-002
1.807049e+003;6.446542e-002
1.808978e+003;6.426837e-002
1.810907e+003;6.406745e-002
1.812835e+003;6.397060e-002
1.814764e+003;6.393552e-002
1.816692e+003;6.390673e-002
1.818621e+003;6.396650e-002
1.820549e+003;6.406330e-002
1.822478e+003;6.422023e-002
1.824406e+003;6.412478e-002
1.826335e+003;6.376725e-002
1.828264e+003;6.345177e-002
1.830192e+003;6.342378e-002
1.832121e+003;6.333077e-002
1.834049e+003;6.325307e-002
1.835978e+003;6.317539e-002
1.837906e+003;6.299071e-002
1.839835e+003;6.291775e-002
1.841763e+003;6.289381e-002
1.843692e+003;6.285827e-002
1.845620e+003;6.259381e-002
1.847549e+003;6.230252e-002
1.849478e+003;6.228221e-002
1.851406e+003;6.216352e-002
1.853335e+003;6.194595e-002
1.855263e+003;6.175504e-002
1.857192e+003;6.178537e-002
1.859120e+003;6.180642e-002
1.861049e+003;6.168408e-002
1.862977e+003;6.168415e-002
1.864906e+003;6.173800e-002
1.866834e+003;6.173533e-002
1.868763e+003;6.160197e-002
1.870692e+003;6.134839e-002
1.872620e+003;6.127181e-002
1.874549e+003;6.131661e-002
1.876477e+003;6.124098e-002
1.878406e+003;6.118589e-002
1.880334e+003;6.126590e-002
1.882263e+003;6.120077e-002
1.884191e+003;6.107273e-002
1.886120e+003;6.097351e-002
1.888048e+003;6.096626e-002
1.889977e+003;6.097271e-002
1.891906e+003;6.100378e-002
1.893834e+003;6.086081e-002
1.895763e+003;6.073374e-002
1.897691e+003;6.084778e-002
1.899620e+003;6.097499e-002
1.901548e+003;6.091838e-002
1.903477e+003;6.076599e-002
1.905405e+003;6.077540e-002
1.907334e+003;6.083485e-002
1.909262e+003;6.093317e-002
1.911191e+003;6.110656e-002
1.913120e+003;6.110106e-002
1.915048e+003;6.101141e-002
1.916977e+003;6.106373e-002
1.918905e+003;6.124861e-002
1.920834e+003;6.128860e-002
1.922762e+003;6.110434e-002
1.924691e+003;6.077490e-002
1.926619e+003;6.080874e-002
1.928548e+003;6.121165e-002
1.930477e+003;6.156727e-002
1.932405e+003;6.150389e-002
1.934334e+003;6.122690e-002
1.936262e+003;6.123301e-002
1.938191e+003;6.143048e-002
1.940119e+003;6.165433e-002
1.942048e+003;6.194492e-002
1.943976e+003;6.222565e-002
1.945905e+003;6.204937e-002
1.947833e+003;6.192062e-002
1.949762e+003;6.215255e-002
1.951691e+003;6.246417e-002
1.953619e+003;6.258650e-002
1.955548e+003;6.257387e-002
1.957476e+003;6.263301e-002
1.959405e+003;6.260801e-002
1.961333e+003;6.261896e-002
1.963262e+003;6.272924e-002
1.965190e+003;6.268942e-002
1.967119e+003;6.273318e-002
1.969047e+003;6.273770e-002
1.970976e+003;6.281845e-002
1.972905e+003;6.309737e-002
1.974833e+003;6.311779e-002
1.976762e+003;6.319738e-002
1.978690e+003;6.330241e-002
1.980619e+003;6.329420e-002
1.982547e+003;6.342098e-002
1.984476e+003;6.367954e-002
1.986404e+003;6.370505e-002
1.988333e+003;6.364075e-002
1.990261e+003;6.360611e-002
1.992190e+003;6.349315e-002
1.994119e+003;6.368852e-002
1.996047e+003;6.402063e-002
1.997976e+003;6.411541e-002
1.999904e+003;6.399380e-002
2.001833e+003;6.402985e-002
2.003761e+003;6.412517e-002
2.005690e+003;6.418455e-002
2.007618e+003;6.438114e-002
2.009547e+003;6.457698e-002
2.011476e+003;6.469656e-002
2.013404e+003;6.475602e-002
2.015333e+003;6.493806e-002
2.017261e+003;6.516349e-002
2.019190e+003;6.527460e-002
2.021118e+003;6.536984e-002
2.023047e+003;6.558131e-002
2.024975e+003;6.573421e-002
2.026904e+003;6.563275e-002
2.028833e+003;6.556910e-002
2.030761e+003;6.579739e-002
2.032690e+003;6.599414e-002
2.034618e+003;6.587165e-002
2.036547e+003;6.603479e-002
2.038475e+003;6.623805e-002
2.040404e+003;6.639007e-002
2.042332e+003;6.655317e-002
2.044261e+003;6.642095e-002
2.046189e+003;6.631093e-002
2.048118e+003;6.631116e-002
2.050047e+003;6.627600e-002
2.051975e+003;6.613487e-002
2.053904e+003;6.610616e-002
2.055832e+003;6.625986e-002
2.057761e+003;6.639010e-002
2.059689e+003;6.615350e-002
2.061618e+003;6.598245e-002
2.063546e+003;6.599757e-002
2.065475e+003;6.614463e-002
2.067404e+003;6.600162e-002
2.069332e+003;6.574912e-002
2.071260e+003;6.582396e-002
2.073189e+003;6.577962e-002
2.075118e+003;6.553379e-002
2.077046e+003;6.567885e-002
2.078975e+003;6.603221e-002
2.080903e+003;6.582245e-002
2.082832e+003;6.551118e-002
2.084760e+003;6.540097e-002
2.086689e+003;6.548298e-002
2.088617e+003;6.577796e-002
2.090546e+003;6.575891e-002
2.092475e+003;6.574434e-002
2.094403e+003;6.598230e-002
2.096332e+003;6.633671e-002
2.098260e+003;6.636590e-002
2.100189e+003;6.620926e-002
2.102117e+003;6.628360e-002
2.104046e+003;6.630553e-002
2.105974e+003;6.625056e-002
2.107903e+003;6.629680e-002
2.109832e+003;6.625450e-002
2.111760e+003;6.631015e-002
2.113688e+003;6.646192e-002
2.115617e+003;6.655784e-002
2.117546e+003;6.674574e-002
2.119474e+003;6.674555e-002
2.121403e+003;6.672491e-002
2.123331e+003;6.700141e-002
2.125260e+003;6.723746e-002
2.127188e+003;6.704336e-002
2.129117e+003;6.700272e-002
2.131045e+003;6.716780e-002
2.132974e+003;6.708740e-002
2.134903e+003;6.696515e-002
2.136831e+003;6.694671e-002
2.138760e+003;6.706177e-002
2.140688e+003;6.738123e-002
2.142617e+003;6.745081e-002
2.144545e+003;6.697214e-002
2.146474e+003;6.678801e-002
2.148402e+003;6.695231e-002
2.150331e+003;6.663718e-002
2.152260e+003;6.633362e-002
2.154188e+003;6.643037e-002
2.156117e+003;6.643910e-002
2.158045e+003;6.619047e-002
2.159974e+003;6.594489e-002
2.161902e+003;6.576412e-002
2.163831e+003;6.555996e-002
2.165759e+003;6.545363e-002
2.167688e+003;6.522319e-002
2.169616e+003;6.509747e-002
2.171545e+003;6.500336e-002
2.173474e+003;6.486880e-002
2.175402e+003;6.465391e-002
2.177331e+003;6.434871e-002
2.179259e+003;6.416891e-002
2.181188e+003;6.391383e-002
2.183116e+003;6.364428e-002
2.185045e+003;6.351107e-002
2.186973e+003;6.357232e-002
2.188902e+003;6.362756e-002
2.190831e+003;6.343643e-002
2.192759e+003;6.313074e-002
2.194688e+003;6.297573e-002
2.196616e+003;6.317458e-002
2.198545e+003;6.321302e-002
2.200473e+003;6.304051e-002
2.202402e+003;6.282059e-002
2.204330e+003;6.303108e-002
2.206259e+003;6.330654e-002
2.208188e+003;6.304649e-002
2.210116e+003;6.268621e-002
2.212044e+003;6.290986e-002
2.213973e+003;6.318171e-002
2.215902e+003;6.306916e-002
2.217830e+003;6.302305e-002
2.219759e+003;6.310634e-002
2.221687e+003;6.319071e-002
2.223616e+003;6.307089e-002
2.225544e+003;6.275098e-002
2.227473e+003;6.291966e-002
2.229401e+003;6.317105e-002
2.231330e+003;6.304963e-002
2.233259e+003;6.299542e-002
2.235187e+003;6.307699e-002
2.237116e+003;6.291281e-002
2.239044e+003;6.276576e-002
2.240973e+003;6.276897e-002
2.242901e+003;6.281585e-002
2.244830e+003;6.279141e-002
2.246758e+003;6.260231e-002
2.248687e+003;6.271925e-002
2.250615e+003;6.269605e-002
2.252544e+003;6.253722e-002
2.254473e+003;6.244669e-002
2.256401e+003;6.226542e-002
2.258330e+003;6.202196e-002
2.260258e+003;6.180183e-002
2.262187e+003;6.184733e-002
2.264115e+003;6.193957e-002
2.266044e+003;6.184336e-002
2.267972e+003;6.156814e-002
2.269901e+003;6.136476e-002
2.271830e+003;6.122305e-002
2.273758e+003;6.119028e-002
2.275687e+003;6.127715e-002
2.277615e+003;6.121859e-002
2.279544e+003;6.100805e-002
2.281472e+003;6.073496e-002
2.283401e+003;6.068383e-002
2.285329e+003;6.074289e-002
2.287258e+003;6.049065e-002
2.289187e+003;6.043429e-002
2.291115e+003;6.062473e-002
2.293043e+003;6.104866e-002
2.294972e+003;6.127414e-002
2.296901e+003;6.116209e-002
2.298829e+003;6.095017e-002
2.300758e+003;6.050543e-002
2.302686e+003;6.039282e-002
2.304615e+003;6.021572e-002
2.306543e+003;6.006034e-002
2.308472e+003;6.025298e-002
2.310400e+003;6.032512e-002
2.312329e+003;6.038314e-002
2.314258e+003;6.054790e-002
2.316186e+003;6.069606e-002
2.318115e+003;6.085959e-002
2.320043e+003;6.068546e-002
2.321972e+003;6.073691e-002
2.323900e+003;6.083276e-002
2.325829e+003;6.080528e-002
2.327757e+003;6.091071e-002
2.329686e+003;6.084480e-002
2.331615e+003;6.067903e-002
2.333543e+003;6.079777e-002
2.335472e+003;6.105274e-002
2.337400e+003;6.118261e-002
2.339329e+003;6.144778e-002
2.341257e+003;6.167525e-002
2.343186e+003;6.158670e-002
2.345114e+003;6.170890e-002
2.347043e+003;6.232837e-002
2.348971e+003;6.250729e-002
2.350900e+003;6.223227e-002
2.352829e+003;6.220955e-002
2.354757e+003;6.226274e-002
2.356686e+003;6.215106e-002
2.358614e+003;6.216157e-002
2.360543e+003;6.215645e-002
2.362471e+003;6.218978e-002
2.364400e+003;6.256948e-002
2.366328e+003;6.284180e-002
2.368257e+003;6.279548e-002
2.370186e+003;6.286482e-002
2.372114e+003;6.315622e-002
2.374042e+003;6.341347e-002
2.375971e+003;6.341780e-002
2.377900e+003;6.336781e-002
2.379828e+003;6.324536e-002
2.381757e+003;6.331433e-002
2.383685e+003;6.348176e-002
2.385614e+003;6.384470e-002
2.387542e+003;6.411414e-002
2.389471e+003;6.418946e-002
2.391399e+003;6.436692e-002
2.393328e+003;6.442030e-002
2.395257e+003;6.452427e-002
2.397185e+003;6.456690e-002
2.399114e+003;6.454442e-002
2.401042e+003;6.432308e-002
2.402971e+003;6.415340e-002
2.404899e+003;6.448933e-002
2.406828e+003;6.463657e-002
2.408756e+003;6.488393e-002
2.410685e+003;6.541364e-002
2.412614e+003;6.551037e-002
2.414542e+003;6.557222e-002
2.416471e+003;6.568402e-002
2.418399e+003;6.547974e-002
2.420328e+003;6.564613e-002
2.422256e+003;6.629078e-002
2.424185e+003;6.652123e-002
2.426113e+003;6.657658e-002
2.428042e+003;6.695185e-002
2.429970e+003;6.700914e-002
2.431899e+003;6.680397e-002
2.433828e+003;6.699758e-002
2.435756e+003;6.737450e-002
2.437685e+003;6.748080e-002
2.439613e+003;6.748645e-002
2.441542e+003;6.768347e-002
2.443470e+003;6.785666e-002
2.445399e+003;6.796313e-002
2.447327e+003;6.813411e-002
2.449256e+003;6.815322e-002
2.451185e+003;6.815082e-002
2.453113e+003;6.819536e-002
2.455042e+003;6.841221e-002
2.456970e+003;6.859439e-002
2.458899e+003;6.845115e-002
2.460827e+003;6.833231e-002
2.462756e+003;6.826898e-002
2.464684e+003;6.830008e-002
2.466613e+003;6.885212e-002
2.468542e+003;6.919599e-002
2.470470e+003;6.899867e-002
2.472398e+003;6.902368e-002
2.474327e+003;6.922167e-002
2.476256e+003;6.935988e-002
2.478184e+003;6.949610e-002
2.480113e+003;6.961207e-002
2.482041e+003;6.978133e-002
2.483970e+003;7.024775e-002
2.485898e+003;7.028051e-002
2.487827e+003;7.019463e-002
2.489755e+003;7.034242e-002
2.491684e+003;7.045853e-002
2.493613e+003;7.049797e-002
2.495541e+003;7.060489e-002
2.497470e+003;7.078675e-002
2.499398e+003;7.082501e-002
2.501327e+003;7.078686e-002
2.503255e+003;7.086241e-002
2.505184e+003;7.090907e-002
2.507112e+003;7.109429e-002
2.509041e+003;7.111868e-002
2.510969e+003;7.140631e-002
2.512898e+003;7.197048e-002
2.514827e+003;7.229111e-002
2.516755e+003;7.212408e-002
2.518684e+003;7.189240e-002
2.520612e+003;7.182726e-002
2.522541e+003;7.209063e-002
2.524469e+003;7.254940e-002
2.526398e+003;7.259146e-002
2.528326e+003;7.239456e-002
2.530255e+003;7.242686e-002
2.532184e+003;7.248041e-002
2.534112e+003;7.242658e-002
2.536041e+003;7.232770e-002
2.537969e+003;7.229518e-002
2.539898e+003;7.249635e-002
2.541826e+003;7.271131e-002
2.543755e+003;7.274868e-002
2.545683e+003;7.247497e-002
2.547612e+003;7.241307e-002
2.549541e+003;7.261343e-002
2.551469e+003;7.281137e-002
2.553397e+003;7.284119e-002
2.555326e+003;7.279558e-002
2.557255e+003;7.288010e-002
2.559183e+003;7.292223e-002
2.561112e+003;7.275452e-002
2.563040e+003;7.277560e-002
2.564969e+003;7.344929e-002
2.566897e+003;7.371978e-002
2.568826e+003;7.360051e-002
2.570754e+003;7.362500e-002
2.572683e+003;7.326353e-002
2.574612e+003;7.302853e-002
2.576540e+003;7.295970e-002
2.578469e+003;7.281811e-002
2.580397e+003;7.295907e-002
2.582326e+003;7.346185e-002
2.584254e+003;7.391276e-002
2.586183e+003;7.380003e-002
2.588111e+003;7.363772e-002
2.590040e+003;7.373061e-002
2.591969e+003;7.374640e-002
2.593897e+003;7.391512e-002
2.595826e+003;7.429981e-002
2.597754e+003;7.430406e-002
2.599683e+003;7.409059e-002
2.601611e+003;7.431126e-002
2.603540e+003;7.464197e-002
2.605468e+003;7.466596e-002
2.607397e+003;7.458818e-002
2.609325e+003;7.451131e-002
2.611254e+003;7.469292e-002
2.613183e+003;7.505219e-002
2.615111e+003;7.507823e-002
2.617040e+003;7.495001e-002
2.618968e+003;7.513558e-002
2.620897e+003;7.556260e-002
2.622825e+003;7.579551e-002
2.624754e+003;7.563891e-002
2.626682e+003;7.554490e-002
2.628611e+003;7.565702e-002
2.630540e+003;7.588729e-002
2.632468e+003;7.600193e-002
2.634396e+003;7.623859e-002
2.636325e+003;7.626899e-002
2.638254e+003;7.607938e-002
2.640182e+003;7.615890e-002
2.642111e+003;7.626860e-002
2.644039e+003;7.663210e-002
2.645968e+003;7.700213e-002
2.647896e+003;7.693432e-002
2.649825e+003;7.693970e-002
2.651753e+003;7.730813e-002
2.653682e+003;7.732143e-002
2.655611e+003;7.732792e-002
2.657539e+003;7.766858e-002
2.659468e+003;7.783935e-002
2.661396e+003;7.732238e-002
2.663325e+003;7.689580e-002
2.665253e+003;7.713713e-002
2.667182e+003;7.760666e-002
2.669110e+003;7.785179e-002
2.671039e+003;7.773717e-002
2.672968e+003;7.781097e-002
2.674896e+003;7.806289e-002
2.676825e+003;7.831622e-002
2.678753e+003;7.846097e-002
2.680682e+003;7.852028e-002
2.682610e+003;7.838579e-002
2.684539e+003;7.842647e-002
2.686467e+003;7.880891e-002
2.688396e+003;7.911981e-002
2.690324e+003;7.936019e-002
2.692253e+003;7.932698e-002
2.694182e+003;7.933784e-002
2.696110e+003;7.958519e-002
2.698039e+003;7.972817e-002
2.699967e+003;7.973701e-002
2.701896e+003;7.997137e-002
2.703824e+003;8.036585e-002
2.705753e+003;8.018197e-002
2.707681e+003;8.002825e-002
2.709610e+003;8.036705e-002
2.711539e+003;8.054414e-002
2.713467e+003;8.056217e-002
2.715396e+003;8.067459e-002
2.717324e+003;8.079194e-002
2.719253e+003;8.076980e-002
2.721181e+003;8.100579e-002
2.723110e+003;8.139922e-002
2.725038e+003;8.137940e-002
2.726967e+003;8.151309e-002
2.728896e+003;8.155003e-002
2.730824e+003;8.122581e-002
2.732752e+003;8.134519e-002
2.734681e+003;8.157338e-002
2.736610e+003;8.168758e-002
2.738538e+003;8.158033e-002
2.740467e+003;8.158278e-002
2.742395e+003;8.157786e-002
2.744324e+003;8.164031e-002
2.746252e+003;8.179225e-002
2.748181e+003;8.185201e-002
2.750109e+003;8.189474e-002
2.752038e+003;8.227773e-002
2.753967e+003;8.228374e-002
2.755895e+003;8.191007e-002
2.757824e+003;8.187301e-002
2.759752e+003;8.210564e-002
2.761681e+003;8.237500e-002
2.763609e+003;8.249988e-002
2.765538e+003;8.272558e-002
2.767466e+003;8.288596e-002
2.769395e+003;8.288099e-002
2.771323e+003;8.286034e-002
2.773252e+003;8.304307e-002
2.775181e+003;8.346353e-002
2.777109e+003;8.375873e-002
2.779038e+003;8.403036e-002
2.780966e+003;8.429142e-002
2.782895e+003;8.423547e-002
2.784823e+003;8.434023e-002
2.786752e+003;8.463320e-002
2.788680e+003;8.505545e-002
2.790609e+003;8.528423e-002
2.792538e+003;8.566113e-002
2.794466e+003;8.586559e-002
2.796395e+003;8.555347e-002
2.798323e+003;8.532987e-002
2.800252e+003;8.581294e-002
2.802180e+003;8.668830e-002
2.804109e+003;8.706573e-002
2.806037e+003;8.704805e-002
2.807966e+003;8.748131e-002
2.809895e+003;8.823636e-002
2.811823e+003;8.868915e-002
2.813751e+003;8.908965e-002
2.815680e+003;8.936676e-002
2.817609e+003;8.966420e-002
2.819537e+003;9.009328e-002
2.821466e+003;9.052683e-002
2.823394e+003;9.107914e-002
2.825323e+003;9.183487e-002
2.827251e+003;9.268541e-002
2.829180e+003;9.342746e-002
2.831108e+003;9.413230e-002
2.833037e+003;9.458065e-002
2.834966e+003;9.526926e-002
2.836894e+003;9.635463e-002
2.838823e+003;9.770492e-002
2.840751e+003;9.876733e-002
2.842680e+003;9.990703e-002
2.844608e+003;1.015164e-001
2.846537e+003;1.032017e-001
2.848465e+003;1.054285e-001
2.850394e+003;1.072291e-001
2.852323e+003;1.085267e-001
2.854251e+003;1.096634e-001
2.856180e+003;1.099592e-001
2.858108e+003;1.101860e-001
2.860037e+003;1.112301e-001
2.861965e+003;1.122085e-001
2.863894e+003;1.126478e-001
2.865822e+003;1.131791e-001
2.867751e+003;1.141215e-001
2.869679e+003;1.148708e-001
2.871608e+003;1.150885e-001
2.873536e+003;1.152274e-001
2.875465e+003;1.154823e-001
2.877394e+003;1.157561e-001
2.879322e+003;1.160027e-001
2.881251e+003;1.168705e-001
2.883179e+003;1.182953e-001
2.885108e+003;1.189141e-001
2.887036e+003;1.189842e-001
2.888965e+003;1.196871e-001
2.890893e+003;1.208588e-001
2.892822e+003;1.215578e-001
2.894750e+003;1.217877e-001
2.896679e+003;1.224228e-001
2.898608e+003;1.229591e-001
2.900536e+003;1.226072e-001
2.902465e+003;1.220236e-001
2.904393e+003;1.217971e-001
2.906322e+003;1.212312e-001
2.908250e+003;1.201338e-001
2.910179e+003;1.189073e-001
2.912107e+003;1.176695e-001
2.914036e+003;1.164205e-001
2.915965e+003;1.153440e-001
2.917893e+003;1.138706e-001
2.919822e+003;1.123223e-001
2.921750e+003;1.110355e-001
2.923679e+003;1.093645e-001
2.925607e+003;1.079533e-001
2.927536e+003;1.069398e-001
2.929464e+003;1.056000e-001
2.931393e+003;1.040933e-001
2.933322e+003;1.027886e-001
2.935250e+003;1.017223e-001
2.937178e+003;1.005518e-001
2.939107e+003;1.000556e-001
2.941036e+003;9.958257e-002
2.942964e+003;9.906646e-002
2.944893e+003;9.869542e-002
2.946821e+003;9.767222e-002
2.948750e+003;9.631562e-002
2.950678e+003;9.516809e-002
2.952607e+003;9.388854e-002
2.954535e+003;9.250928e-002
2.956464e+003;9.189705e-002
2.958393e+003;9.137580e-002
2.960321e+003;9.066501e-002
2.962250e+003;9.030474e-002
2.964178e+003;8.996214e-002
2.966107e+003;8.900004e-002
2.968035e+003;8.815408e-002
2.969964e+003;8.714522e-002
2.971892e+003;8.538871e-002
2.973821e+003;8.405299e-002
2.975750e+003;8.298715e-002
2.977678e+003;8.175817e-002
2.979607e+003;8.089276e-002
2.981535e+003;8.077554e-002
2.983464e+003;8.073165e-002
2.985392e+003;8.042893e-002
2.987321e+003;7.998734e-002
2.989249e+003;7.936238e-002
2.991178e+003;7.905079e-002
2.993106e+003;7.894472e-002
2.995035e+003;7.869110e-002
2.996964e+003;7.838535e-002
2.998892e+003;7.834991e-002
3.000821e+003;7.850229e-002
3.002749e+003;7.872073e-002
3.004678e+003;7.904778e-002
3.006606e+003;7.926016e-002
3.008535e+003;7.938987e-002
3.010463e+003;7.975090e-002
3.012392e+003;7.960744e-002
3.014321e+003;7.955952e-002
3.016249e+003;7.975293e-002
3.018177e+003;7.967156e-002
3.020106e+003;7.968848e-002
3.022035e+003;7.957301e-002
3.023963e+003;7.965676e-002
3.025892e+003;8.011013e-002
3.027820e+003;8.078173e-002
3.029749e+003;8.110882e-002
3.031677e+003;8.111984e-002
3.033606e+003;8.145057e-002
3.035534e+003;8.169477e-002
3.037463e+003;8.166019e-002
3.039392e+003;8.166490e-002
3.041320e+003;8.176901e-002
3.043249e+003;8.204269e-002
3.045177e+003;8.259296e-002
3.047106e+003;8.296878e-002
3.049034e+003;8.305763e-002
3.050963e+003;8.305947e-002
3.052891e+003;8.326741e-002
3.054820e+003;8.378979e-002
3.056749e+003;8.416596e-002
3.058677e+003;8.413032e-002
3.060606e+003;8.451311e-002
3.062534e+003;8.495785e-002
3.064463e+003;8.495434e-002
3.066391e+003;8.468684e-002
3.068320e+003;8.503574e-002
3.070248e+003;8.594349e-002
3.072177e+003;8.658891e-002
3.074105e+003;8.688831e-002
3.076034e+003;8.707954e-002
3.077963e+003;8.715652e-002
3.079891e+003;8.703954e-002
3.081820e+003;8.714968e-002
3.083748e+003;8.750162e-002
3.085677e+003;8.790398e-002
3.087605e+003;8.793031e-002
3.089534e+003;8.812773e-002
3.091462e+003;8.856058e-002
3.093391e+003;8.913464e-002
3.095320e+003;8.972763e-002
3.097248e+003;9.026983e-002
3.099177e+003;9.041693e-002
3.101105e+003;9.047198e-002
3.103034e+003;9.071270e-002
3.104962e+003;9.140827e-002
3.106891e+003;9.201732e-002
3.108819e+003;9.241356e-002
3.110748e+003;9.257042e-002
3.112677e+003;9.251830e-002
3.114605e+003;9.249312e-002
3.116533e+003;9.261417e-002
3.118462e+003;9.303202e-002
3.120391e+003;9.338403e-002
3.122319e+003;9.389573e-002
3.124248e+003;9.491529e-002
3.126176e+003;9.577901e-002
3.128105e+003;9.646513e-002
3.130033e+003;9.701556e-002
3.131962e+003;9.687216e-002
3.133890e+003;9.670421e-002
3.135819e+003;9.705653e-002
3.137748e+003;9.782423e-002
3.139676e+003;9.838512e-002
3.141605e+003;9.872528e-002
3.143533e+003;9.903329e-002
3.145462e+003;9.951785e-002
3.147390e+003;1.005053e-001
3.149319e+003;1.010844e-001
3.151247e+003;1.015517e-001
3.153176e+003;1.018273e-001
3.155104e+003;1.022772e-001
3.157033e+003;1.030658e-001
3.158962e+003;1.036985e-001
3.160890e+003;1.037920e-001
3.162819e+003;1.040339e-001
3.164747e+003;1.048829e-001
3.166676e+003;1.057249e-001
3.168604e+003;1.064341e-001
3.170533e+003;1.070933e-001
3.172461e+003;1.076801e-001
3.174390e+003;1.082526e-001
3.176319e+003;1.088392e-001
3.178247e+003;1.094873e-001
3.180176e+003;1.102760e-001
3.182104e+003;1.109825e-001
3.184033e+003;1.114320e-001
3.185961e+003;1.117800e-001
3.187890e+003;1.125452e-001
3.189818e+003;1.134642e-001
3.191747e+003;1.142327e-001
3.193676e+003;1.154127e-001
3.195604e+003;1.160889e-001
3.197532e+003;1.162916e-001
3.199461e+003;1.169331e-001
3.201390e+003;1.179489e-001
3.203318e+003;1.186797e-001
3.205247e+003;1.191233e-001
3.207175e+003;1.199751e-001
3.209104e+003;1.209394e-001
3.211032e+003;1.219726e-001
3.212961e+003;1.229664e-001
3.214889e+003;1.237177e-001
3.216818e+003;1.246619e-001
3.218747e+003;1.258047e-001
3.220675e+003;1.268543e-001
3.222604e+003;1.275520e-001
3.224532e+003;1.288697e-001
3.226461e+003;1.304304e-001
3.228389e+003;1.310644e-001
3.230318e+003;1.318657e-001
3.232246e+003;1.329682e-001
3.234175e+003;1.343131e-001
3.236104e+003;1.352845e-001
3.238032e+003;1.358605e-001
3.239961e+003;1.375947e-001
3.241889e+003;1.397301e-001
3.243818e+003;1.408380e-001
3.245746e+003;1.417961e-001
3.247675e+003;1.434093e-001
3.249603e+003;1.450676e-001
3.251532e+003;1.466284e-001
3.253460e+003;1.477221e-001
3.255389e+003;1.493398e-001
3.257318e+003;1.515167e-001
3.259246e+003;1.533055e-001
3.261175e+003;1.545452e-001
3.263103e+003;1.553788e-001
3.265032e+003;1.571687e-001
3.266960e+003;1.589524e-001
3.268889e+003;1.601892e-001
3.270817e+003;1.613891e-001
3.272746e+003;1.627820e-001
3.274675e+003;1.632835e-001
3.276603e+003;1.638606e-001
3.278531e+003;1.649604e-001
3.280460e+003;1.652639e-001
3.282389e+003;1.657856e-001
3.284317e+003;1.661666e-001
3.286246e+003;1.665951e-001
3.288174e+003;1.672395e-001
3.290103e+003;1.674289e-001
3.292031e+003;1.677157e-001
3.293960e+003;1.682999e-001
3.295888e+003;1.682510e-001
3.297817e+003;1.675322e-001
3.299746e+003;1.674668e-001
3.301674e+003;1.676401e-001
3.303603e+003;1.679861e-001
3.305531e+003;1.685540e-001
3.307460e+003;1.681809e-001
3.309388e+003;1.677639e-001
3.311317e+003;1.681070e-001
3.313245e+003;1.690565e-001
3.315174e+003;1.699879e-001
3.317103e+003;1.708236e-001
3.319031e+003;1.708847e-001
3.320960e+003;1.709981e-001
3.322888e+003;1.719248e-001
3.324817e+003;1.733026e-001
3.326745e+003;1.743597e-001
3.328674e+003;1.747927e-001
3.330602e+003;1.758192e-001
3.332531e+003;1.775296e-001
3.334459e+003;1.775076e-001
3.336388e+003;1.760466e-001
3.338317e+003;1.753754e-001
3.340245e+003;1.755158e-001
3.342174e+003;1.752622e-001
3.344102e+003;1.743251e-001
3.346031e+003;1.730940e-001
3.347959e+003;1.716394e-001
3.349888e+003;1.700080e-001
3.351816e+003;1.690380e-001
3.353745e+003;1.682964e-001
3.355674e+003;1.672855e-001
3.357602e+003;1.657465e-001
3.359531e+003;1.634327e-001
3.361459e+003;1.620304e-001
3.363388e+003;1.608685e-001
3.365316e+003;1.595970e-001
3.367245e+003;1.588956e-001
3.369173e+003;1.582825e-001
3.371102e+003;1.576715e-001
3.373031e+003;1.565599e-001
3.374959e+003;1.549293e-001
3.376887e+003;1.537109e-001
3.378816e+003;1.531768e-001
3.380745e+003;1.529001e-001
3.382673e+003;1.518080e-001
3.384602e+003;1.503049e-001
3.386530e+003;1.494749e-001
3.388459e+003;1.490709e-001
3.390387e+003;1.490432e-001
3.392316e+003;1.487498e-001
3.394244e+003;1.480503e-001
3.396173e+003;1.470598e-001
3.398102e+003;1.461793e-001
3.400030e+003;1.458268e-001
3.401959e+003;1.450645e-001
3.403887e+003;1.442071e-001
3.405816e+003;1.436796e-001
3.407744e+003;1.427977e-001
3.409673e+003;1.412374e-001
3.411601e+003;1.390048e-001
3.413530e+003;1.374777e-001
3.415458e+003;1.368831e-001
3.417387e+003;1.358313e-001
3.419316e+003;1.347409e-001
3.421244e+003;1.335431e-001
3.423173e+003;1.321676e-001
3.425101e+003;1.309960e-001
3.427030e+003;1.297871e-001
3.428958e+003;1.284015e-001
3.430887e+003;1.269783e-001
3.432815e+003;1.257103e-001
3.434744e+003;1.245849e-001
3.436673e+003;1.238889e-001
3.438601e+003;1.233729e-001
3.440530e+003;1.222825e-001
3.442458e+003;1.212317e-001
3.444387e+003;1.203007e-001
3.446315e+003;1.191745e-001
3.448244e+003;1.175526e-001
3.450172e+003;1.163361e-001
3.452101e+003;1.156328e-001
3.454030e+003;1.145577e-001
3.455958e+003;1.133140e-001
3.457886e+003;1.123601e-001
3.459815e+003;1.111650e-001
3.461744e+003;1.101396e-001
3.463672e+003;1.092886e-001
3.465601e+003;1.081250e-001
3.467529e+003;1.073748e-001
3.469458e+003;1.060917e-001
3.471386e+003;1.039527e-001
3.473315e+003;1.026632e-001
3.475243e+003;1.020502e-001
3.477172e+003;1.012307e-001
3.479101e+003;1.002875e-001
3.481029e+003;9.921413e-002
3.482958e+003;9.810444e-002
3.484886e+003;9.754064e-002
3.486815e+003;9.657189e-002
3.488743e+003;9.550389e-002
3.490672e+003;9.467879e-002
3.492600e+003;9.307065e-002
3.494529e+003;9.130996e-002
3.496458e+003;9.043346e-002
3.498386e+003;9.016240e-002
3.500315e+003;8.931811e-002
3.502243e+003;8.807737e-002
3.504172e+003;8.700642e-002
3.506100e+003;8.616178e-002
3.508029e+003;8.593493e-002
3.509957e+003;8.549670e-002
3.511886e+003;8.488790e-002
3.513814e+003;8.385558e-002
3.515743e+003;8.216157e-002
3.517672e+003;8.105475e-002
3.519600e+003;8.110067e-002
3.521529e+003;8.050091e-002
3.523457e+003;7.896916e-002
3.525386e+003;7.841699e-002
3.527314e+003;7.808553e-002
3.529243e+003;7.700743e-002
3.531171e+003;7.611621e-002
3.533100e+003;7.528849e-002
3.535029e+003;7.441676e-002
3.536957e+003;7.367655e-002
3.538885e+003;7.312804e-002
3.540814e+003;7.256577e-002
3.542743e+003;7.159171e-002
3.544671e+003;7.115580e-002
3.546600e+003;7.061117e-002
3.548528e+003;6.955011e-002
3.550457e+003;6.876267e-002
3.552385e+003;6.826092e-002
3.554314e+003;6.769101e-002
3.556242e+003;6.723514e-002
3.558171e+003;6.663498e-002
3.560100e+003;6.569130e-002
3.562028e+003;6.497977e-002
3.563957e+003;6.452377e-002
3.565885e+003;6.422380e-002
3.567814e+003;6.345634e-002
3.569742e+003;6.240885e-002
3.571671e+003;6.187347e-002
3.573599e+003;6.123327e-002
3.575528e+003;6.081492e-002
3.577457e+003;6.076999e-002
3.579385e+003;6.052961e-002
3.581314e+003;6.004101e-002
3.583242e+003;5.948163e-002
3.585171e+003;5.907927e-002
3.587099e+003;5.863151e-002
3.589028e+003;5.792008e-002
3.590956e+003;5.739538e-002
3.592885e+003;5.721643e-002
3.594813e+003;5.640559e-002
3.596742e+003;5.545611e-002
3.598671e+003;5.509805e-002
3.600599e+003;5.492230e-002
3.602528e+003;5.495419e-002
3.604456e+003;5.489234e-002
3.606385e+003;5.405399e-002
3.608313e+003;5.310151e-002
3.610242e+003;5.259078e-002
3.612170e+003;5.237126e-002
3.614099e+003;5.225417e-002
3.616028e+003;5.139315e-002
3.617956e+003;5.067470e-002
3.619885e+003;5.022893e-002
3.621813e+003;4.968635e-002
3.623742e+003;4.999317e-002
3.625670e+003;5.053476e-002
3.627599e+003;5.039442e-002
3.629527e+003;4.938632e-002
3.631456e+003;4.871933e-002
3.633385e+003;4.799678e-002
3.635313e+003;4.712746e-002
3.637241e+003;4.686086e-002
3.639170e+003;4.666159e-002
3.641099e+003;4.602578e-002
3.643027e+003;4.536216e-002
3.644956e+003;4.503389e-002
3.646884e+003;4.453539e-002
3.648813e+003;4.420947e-002
3.650741e+003;4.437377e-002
3.652670e+003;4.409070e-002
3.654598e+003;4.353910e-002
3.656527e+003;4.306060e-002
3.658456e+003;4.271656e-002
3.660384e+003;4.269243e-002
3.662313e+003;4.245783e-002
3.664241e+003;4.131154e-002
3.666170e+003;4.080844e-002
3.668098e+003;4.077936e-002
3.670027e+003;4.009616e-002
3.671955e+003;3.953081e-002
3.673884e+003;3.950664e-002
3.675813e+003;3.910419e-002
3.677741e+003;3.881536e-002
3.679669e+003;3.811976e-002
3.681598e+003;3.739393e-002
3.683527e+003;3.722159e-002
3.685455e+003;3.736031e-002
3.687384e+003;3.705928e-002
3.689312e+003;3.683338e-002
3.691241e+003;3.723509e-002
3.693169e+003;3.747725e-002
3.695098e+003;3.745475e-002
3.697026e+003;3.721185e-002
3.698955e+003;3.737566e-002
3.700884e+003;3.711053e-002
3.702812e+003;3.614829e-002
3.704741e+003;3.572782e-002
3.706669e+003;3.573386e-002
3.708598e+003;3.602177e-002
3.710526e+003;3.595863e-002
3.712455e+003;3.568832e-002
3.714383e+003;3.568217e-002
3.716312e+003;3.547977e-002
3.718240e+003;3.522328e-002
3.720169e+003;3.562879e-002
3.722098e+003;3.634357e-002
3.724026e+003;3.620681e-002
3.725955e+003;3.575293e-002
3.727883e+003;3.586933e-002
3.729812e+003;3.583137e-002
3.731740e+003;3.550394e-002
3.733669e+003;3.531786e-002
3.735597e+003;3.475270e-002
3.737526e+003;3.395718e-002
3.739455e+003;3.396735e-002
3.741383e+003;3.402544e-002
3.743312e+003;3.386833e-002
3.745240e+003;3.425534e-002
3.747169e+003;3.494054e-002
3.749097e+003;3.462759e-002
3.751026e+003;3.405841e-002
3.752954e+003;3.391343e-002
3.754883e+003;3.407468e-002
3.756812e+003;3.396377e-002
3.758740e+003;3.421383e-002
3.760668e+003;3.508599e-002
3.762597e+003;3.515799e-002
3.764526e+003;3.470743e-002
3.766454e+003;3.468490e-002
3.768383e+003;3.459037e-002
3.770311e+003;3.424057e-002
3.772240e+003;3.431945e-002
3.774168e+003;3.467711e-002
3.776097e+003;3.495163e-002
3.778025e+003;3.522834e-002
3.779954e+003;3.503147e-002
3.781883e+003;3.480241e-002
3.783811e+003;3.485472e-002
3.785740e+003;3.472771e-002
3.787668e+003;3.443931e-002
3.789597e+003;3.447973e-002
3.791525e+003;3.443899e-002
3.793454e+003;3.427022e-002
3.795382e+003;3.449893e-002
3.797311e+003;3.534953e-002
3.799240e+003;3.550598e-002
3.801168e+003;3.473321e-002
3.803097e+003;3.414166e-002
3.805025e+003;3.414772e-002
3.806954e+003;3.449279e-002
3.808882e+003;3.506983e-002
3.810811e+003;3.560718e-002
3.812739e+003;3.557287e-002
3.814668e+003;3.544414e-002
3.816596e+003;3.448985e-002
3.818525e+003;3.352859e-002
3.820454e+003;3.404769e-002
3.822382e+003;3.495515e-002
3.824311e+003;3.502562e-002
3.826239e+003;3.480073e-002
3.828168e+003;3.483802e-002
3.830096e+003;3.493497e-002
3.832025e+003;3.512278e-002
3.833953e+003;3.486847e-002
3.835882e+003;3.450983e-002
3.837811e+003;3.461409e-002
3.839739e+003;3.517175e-002
3.841667e+003;3.525486e-002
3.843596e+003;3.538044e-002
3.845525e+003;3.598037e-002
3.847453e+003;3.650313e-002
3.849382e+003;3.641812e-002
3.851310e+003;3.558089e-002
3.853239e+003;3.509878e-002
3.855167e+003;3.540222e-002
3.857096e+003;3.635269e-002
3.859024e+003;3.644756e-002
3.860953e+003;3.590885e-002
3.862882e+003;3.558553e-002
3.864810e+003;3.550519e-002
3.866739e+003;3.591029e-002
3.868667e+003;3.612275e-002
3.870596e+003;3.664511e-002
3.872524e+003;3.717199e-002
3.874453e+003;3.702785e-002
3.876381e+003;3.727347e-002
3.878310e+003;3.778474e-002
3.880239e+003;3.822689e-002
3.882167e+003;3.811716e-002
3.884096e+003;3.810247e-002
3.886024e+003;3.739021e-002
3.887953e+003;3.674596e-002
3.889881e+003;3.652198e-002
3.891810e+003;3.687875e-002
3.893738e+003;3.768373e-002
3.895667e+003;3.762663e-002
3.897595e+003;3.740530e-002
3.899524e+003;3.727914e-002
3.901453e+003;3.766400e-002
3.903381e+003;3.728344e-002
3.905310e+003;3.680470e-002
3.907238e+003;3.758848e-002
3.909167e+003;3.765059e-002
3.911095e+003;3.778109e-002
3.913024e+003;3.875479e-002
3.914952e+003;3.962271e-002
3.916881e+003;3.999809e-002
3.918810e+003;3.974501e-002
3.920738e+003;3.900424e-002
3.922667e+003;3.812692e-002
3.924595e+003;3.782338e-002
3.926524e+003;3.805545e-002
3.928452e+003;3.885428e-002
3.930381e+003;3.904430e-002
3.932309e+003;3.830526e-002
3.934238e+003;3.853017e-002
3.936167e+003;3.910071e-002
3.938095e+003;3.896126e-002
3.940023e+003;3.843918e-002
3.941952e+003;3.887913e-002
3.943881e+003;3.907834e-002
3.945809e+003;3.923451e-002
3.947738e+003;3.931721e-002
3.949666e+003;3.983460e-002
3.951595e+003;4.041293e-002
3.953523e+003;4.026840e-002
3.955452e+003;4.028920e-002
3.957380e+003;4.030021e-002
3.959309e+003;4.031119e-002
3.961238e+003;4.056336e-002
3.963166e+003;4.002334e-002
3.965095e+003;3.954627e-002
3.967023e+003;3.989137e-002
3.968952e+003;3.962594e-002
3.970880e+003;3.992780e-002
3.972809e+003;4.059130e-002
3.974737e+003;4.052622e-002
3.976666e+003;4.013410e-002
3.978594e+003;4.005463e-002
3.980523e+003;4.086177e-002
3.982452e+003;4.115127e-002
3.984380e+003;4.040722e-002
3.986309e+003;4.011095e-002
3.988237e+003;4.127131e-002
3.990166e+003;4.128512e-002
3.992094e+003;4.046330e-002
3.994023e+003;4.013846e-002
3.995951e+003;4.027273e-002
3.997880e+003;4.002381e-002
3.999809e+003;4.038035e-002
4.001737e+003;0.000000e+000
