3.992094e+002;0.000000e+000
4.011380e+002;0.000000e+000
4.030665e+002;0.000000e+000
4.049951e+002;0.000000e+000
4.069236e+002;0.000000e+000
4.088522e+002;0.000000e+000
4.107807e+002;0.000000e+000
4.127093e+002;0.000000e+000
4.146378e+002;0.000000e+000
4.165664e+002;0.000000e+000
4.184949e+002;0.000000e+000
4.204235e+002;0.000000e+000
4.223520e+002;0.000000e+000
4.242806e+002;0.000000e+000
4.262091e+002;0.000000e+000
4.281377e+002;0.000000e+000
4.300662e+002;0.000000e+000
4.319948e+002;0.000000e+000
4.339233e+002;0.000000e+000
4.358519e+002;0.000000e+000
4.377804e+002;0.000000e+000
4.397090e+002;0.000000e+000
4.416375e+002;0.000000e+000
4.435660e+002;0.000000e+000
4.454946e+002;0.000000e+000
4.474232e+002;0.000000e+000
4.493517e+002;0.000000e+000
4.512802e+002;0.000000e+000
4.532088e+002;0.000000e+000
4.551373e+002;0.000000e+000
4.570659e+002;0.000000e+000
4.589944e+002;0.000000e+000
4.609230e+002;0.000000e+000
4.628515e+002;0.000000e+000
4.647801e+002;0.000000e+000
4.667086e+002;0.000000e+000
4.686372e+002;0.000000e+000
4.705657e+002;0.000000e+000
4.724943e+002;0.000000e+000
4.744228e+002;0.000000e+000
4.763513e+002;0.000000e+000
4.782799e+002;0.000000e+000
4.802085e+002;0.000000e+000
4.821370e+002;0.000000e+000
4.840656e+002;0.000000e+000
4.859941e+002;0.000000e+000
4.879226e+002;0.000000e+000
4.898512e+002;0.000000e+000
4.917798e+002;0.000000e+000
4.937083e+002;0.000000e+000
4.956368e+002;0.000000e+000
4.975654e+002;0.000000e+000
4.994939e+002;0.000000e+000
5.014225e+002;0.000000e+000
5.033510e+002;0.000000e+000
5.052796e+002;0.000000e+000
5.072081e+002;0.000000e+000
5.091367e+002;0.000000e+000
5.110652e+002;0.000000e+000
5.129938e+002;0.000000e+000
5.149223e+002;0.000000e+000
5.168509e+002;0.000000e+000
5.187794e+002;0.000000e+000
5.207079e+002;0.000000e+000
5.226365e+002;0.000000e+000
5.245651e+002;0.000000e+000
5.264936e+002;0.000000e+000
5.284222e+002;0.000000e+000
5.303507e+002;0.000000e+000
5.322792e+002;0.000000e+000
5.342078e+002;0.000000e+000
5.361364e+002;0.000000e+000
5.380649e+002;0.000000e+000
5.399935e+002;0.000000e+000
5.419220e+002;0.000000e+000
5.438505e+002;0.000000e+000
5.457791e+002;0.000000e+000
5.477076e+002;0.000000e+000
5.496362e+002;0.000000e+000
5.515648e+002;0.000000e+000
5.534933e+002;0.000000e+000
5.554218e+002;0.000000e+000
5.573504e+002;0.000000e+000
5.592789e+002;0.000000e+000
5.612075e+002;0.000000e+000
5.631360e+002;0.000000e+000
5.650646e+002;0.000000e+000
5.669931e+002;0.000000e+000
5.689217e+002;0.000000e+000
5.708502e+002;0.000000e+000
5.727787e+002;0.000000e+000
5.747073e+002;0.000000e+000
5.766359e+002;0.000000e+000
5.785644e+002;0.000000e+000
5.804930e+002;0.000000e+000
5.824215e+002;0.000000e+000
5.843500e+002;0.000000e+000
5.862786e+002;0.000000e+000
5.882072e+002;0.000000e+000
5.901357e+002;0.000000e+000
5.920643e+002;0.000000e+000
5.939928e+002;0.000000e+000
5.959213e+002;0.000000e+000
5.978499e+002;0.000000e+000
5.997784e+002;2.909932e-001
6.017070e+002;2.930882e-001
6.036355e+002;2.921848e-001
6.055641e+002;2.935053e-001
6.074926e+002;2.916899e-001
6.094211e+002;2.931980e-001
6.113497e+002;2.932688e-001
6.132783e+002;2.886629e-001
6.152068e+002;2.874097e-001
6.171354e+002;2.916669e-001
6.190639e+002;2.903209e-001
6.209924e+002;2.868342e-001
6.229210e+002;2.793955e-001
6.248495e+002;2.685335e-001
6.267781e+002;2.658812e-001
6.287067e+002;2.660246e-001
6.306352e+002;2.667746e-001
6.325637e+002;2.643025e-001
6.344923e+002;2.569109e-001
6.364208e+002;2.556163e-001
6.383494e+002;2.566959e-001
6.402780e+002;2.525973e-001
6.422065e+002;2.464113e-001
6.441350e+002;2.476929e-001
6.460636e+002;2.487511e-001
6.479921e+002;2.454913e-001
6.499207e+002;2.435210e-001
6.518492e+002;2.431656e-001
6.537778e+002;2.479764e-001
6.557063e+002;2.566606e-001
6.576349e+002;2.612092e-001
6.595634e+002;2.636013e-001
6.614919e+002;2.679755e-001
6.634205e+002;2.679224e-001
6.653491e+002;2.670073e-001
6.672776e+002;2.638699e-001
6.692062e+002;2.565170e-001
6.711347e+002;2.494751e-001
6.730632e+002;2.444731e-001
6.749918e+002;2.380162e-001
6.769203e+002;2.296450e-001
6.788489e+002;2.214802e-001
6.807775e+002;2.162852e-001
6.827060e+002;2.134437e-001
6.846345e+002;2.115385e-001
6.865631e+002;2.103682e-001
6.884916e+002;2.088750e-001
6.904202e+002;2.081217e-001
6.923488e+002;2.078689e-001
6.942773e+002;2.073719e-001
6.962058e+002;2.081260e-001
6.981344e+002;2.085257e-001
7.000629e+002;2.073335e-001
7.019915e+002;2.055752e-001
7.039200e+002;2.052466e-001
7.058486e+002;2.049078e-001
7.077771e+002;2.014231e-001
7.097057e+002;1.971777e-001
7.116342e+002;1.935605e-001
7.135627e+002;1.902684e-001
7.154913e+002;1.862816e-001
7.174199e+002;1.811619e-001
7.193484e+002;1.763555e-001
7.212770e+002;1.720441e-001
7.232055e+002;1.662547e-001
7.251340e+002;1.601780e-001
7.270626e+002;1.546079e-001
7.289911e+002;1.497660e-001
7.309197e+002;1.459230e-001
7.328483e+002;1.433563e-001
7.347768e+002;1.400167e-001
7.367053e+002;1.364816e-001
7.386339e+002;1.341054e-001
7.405624e+002;1.327063e-001
7.424910e+002;1.305304e-001
7.444196e+002;1.283991e-001
7.463481e+002;1.267323e-001
7.482766e+002;1.246325e-001
7.502052e+002;1.233982e-001
7.521337e+002;1.214584e-001
7.540623e+002;1.191313e-001
7.559908e+002;1.182305e-001
7.579194e+002;1.163292e-001
7.598479e+002;1.141892e-001
7.617765e+002;1.130619e-001
7.637050e+002;1.125821e-001
7.656335e+002;1.116913e-001
7.675621e+002;1.098442e-001
7.694907e+002;1.080421e-001
7.714192e+002;1.070161e-001
7.733478e+002;1.066737e-001
7.752763e+002;1.060151e-001
7.772048e+002;1.053921e-001
7.791334e+002;1.052328e-001
7.810620e+002;1.053821e-001
7.829905e+002;1.062585e-001
7.849191e+002;1.087553e-001
7.868476e+002;1.116970e-001
7.887761e+002;1.144870e-001
7.907047e+002;1.168386e-001
7.926332e+002;1.196037e-001
7.945618e+002;1.224133e-001
7.964903e+002;1.241837e-001
7.984189e+002;1.256431e-001
8.003474e+002;1.262600e-001
8.022759e+002;1.258760e-001
8.042045e+002;1.256516e-001
8.061331e+002;1.254626e-001
8.080616e+002;1.255762e-001
8.099902e+002;1.243597e-001
8.119187e+002;1.219507e-001
8.138472e+002;1.201485e-001
8.157758e+002;1.185229e-001
8.177043e+002;1.167278e-001
8.196329e+002;1.146626e-001
8.215615e+002;1.123936e-001
8.234900e+002;1.102256e-001
8.254185e+002;1.067828e-001
8.273471e+002;1.027155e-001
8.292756e+002;9.821123e-002
8.312042e+002;9.380834e-002
8.331328e+002;9.074230e-002
8.350613e+002;8.806612e-002
8.369898e+002;8.571820e-002
8.389184e+002;8.405742e-002
8.408469e+002;8.297624e-002
8.427755e+002;8.209280e-002
8.447040e+002;8.156122e-002
8.466326e+002;8.144894e-002
8.485611e+002;8.114428e-002
8.504897e+002;8.007000e-002
8.524182e+002;7.960425e-002
8.543467e+002;8.025455e-002
8.562753e+002;8.116333e-002
8.582039e+002;8.187778e-002
8.601324e+002;8.245697e-002
8.620610e+002;8.311363e-002
8.639895e+002;8.408312e-002
8.659180e+002;8.514223e-002
8.678466e+002;8.627429e-002
8.697751e+002;8.770805e-002
8.717037e+002;8.956931e-002
8.736323e+002;9.214441e-002
8.755608e+002;9.497994e-002
8.774893e+002;9.778028e-002
8.794179e+002;1.011680e-001
8.813464e+002;1.045544e-001
8.832750e+002;1.078058e-001
8.852036e+002;1.122584e-001
8.871321e+002;1.173785e-001
8.890606e+002;1.221997e-001
8.909892e+002;1.263356e-001
8.929177e+002;1.296825e-001
8.948463e+002;1.325956e-001
8.967748e+002;1.344998e-001
8.987034e+002;1.349941e-001
9.006319e+002;1.345575e-001
9.025605e+002;1.328874e-001
9.044890e+002;1.302585e-001
9.064175e+002;1.275786e-001
9.083461e+002;1.243872e-001
9.102747e+002;1.208509e-001
9.122032e+002;1.177785e-001
9.141318e+002;1.147954e-001
9.160603e+002;1.121620e-001
9.179888e+002;1.102105e-001
9.199174e+002;1.087935e-001
9.218459e+002;1.084147e-001
9.237745e+002;1.088258e-001
9.257031e+002;1.099930e-001
9.276316e+002;1.117278e-001
9.295601e+002;1.135334e-001
9.314887e+002;1.153597e-001
9.334172e+002;1.170451e-001
9.353458e+002;1.182735e-001
9.372744e+002;1.198698e-001
9.392029e+002;1.220042e-001
9.411314e+002;1.241169e-001
9.430600e+002;1.267878e-001
9.449885e+002;1.305082e-001
9.469171e+002;1.345932e-001
9.488456e+002;1.392201e-001
9.507742e+002;1.451191e-001
9.527027e+002;1.516133e-001
9.546313e+002;1.584783e-001
9.565598e+002;1.657383e-001
9.584883e+002;1.737402e-001
9.604169e+002;1.826004e-001
9.623455e+002;1.920251e-001
9.642740e+002;2.016908e-001
9.662026e+002;2.116492e-001
9.681311e+002;2.224882e-001
9.700596e+002;2.347287e-001
9.719882e+002;2.489271e-001
9.739167e+002;2.661023e-001
9.758453e+002;2.865304e-001
9.777739e+002;3.105037e-001
9.797024e+002;3.369827e-001
9.816309e+002;3.614258e-001
9.835595e+002;3.786055e-001
9.854880e+002;3.869693e-001
9.874166e+002;3.899059e-001
9.893452e+002;3.930103e-001
9.912737e+002;3.999126e-001
9.932022e+002;4.105520e-001
9.951307e+002;4.240806e-001
9.970593e+002;4.382728e-001
9.989879e+002;4.494994e-001
1.000916e+003;4.555509e-001
1.002845e+003;4.582502e-001
1.004773e+003;4.607209e-001
1.006702e+003;4.637131e-001
1.008631e+003;4.679804e-001
1.010559e+003;4.739759e-001
1.012488e+003;4.815570e-001
1.014416e+003;4.905313e-001
1.016345e+003;4.995911e-001
1.018273e+003;5.072875e-001
1.020202e+003;5.141661e-001
1.022130e+003;5.208631e-001
1.024059e+003;5.284151e-001
1.025988e+003;5.360045e-001
1.027916e+003;5.424227e-001
1.029845e+003;5.475893e-001
1.031773e+003;5.491973e-001
1.033702e+003;5.460669e-001
1.035630e+003;5.376384e-001
1.037559e+003;5.242107e-001
1.039487e+003;5.106283e-001
1.041416e+003;5.011929e-001
1.043344e+003;4.968368e-001
1.045273e+003;4.973154e-001
1.047202e+003;5.014387e-001
1.049130e+003;5.084943e-001
1.051059e+003;5.171721e-001
1.052987e+003;5.237125e-001
1.054916e+003;5.250025e-001
1.056844e+003;5.206036e-001
1.058773e+003;5.105221e-001
1.060701e+003;4.939112e-001
1.062630e+003;4.701201e-001
1.064558e+003;4.440759e-001
1.066487e+003;4.209267e-001
1.068416e+003;4.024567e-001
1.070344e+003;3.878442e-001
1.072273e+003;3.755774e-001
1.074201e+003;3.657424e-001
1.076130e+003;3.577475e-001
1.078058e+003;3.494831e-001
1.079987e+003;3.407662e-001
1.081915e+003;3.336502e-001
1.083844e+003;3.299049e-001
1.085773e+003;3.277642e-001
1.087701e+003;3.259217e-001
1.089630e+003;3.249281e-001
1.091558e+003;3.250413e-001
1.093487e+003;3.259448e-001
1.095415e+003;3.277213e-001
1.097344e+003;3.302155e-001
1.099272e+003;3.324797e-001
1.101201e+003;3.328574e-001
1.103129e+003;3.310699e-001
1.105058e+003;3.278365e-001
1.106987e+003;3.237667e-001
1.108915e+003;3.188649e-001
1.110844e+003;3.129230e-001
1.112772e+003;3.044024e-001
1.114701e+003;2.925346e-001
1.116629e+003;2.780356e-001
1.118558e+003;2.640043e-001
1.120486e+003;2.526992e-001
1.122415e+003;2.434346e-001
1.124344e+003;2.343938e-001
1.126272e+003;2.239635e-001
1.128201e+003;2.129527e-001
1.130129e+003;2.038025e-001
1.132058e+003;1.966025e-001
1.133986e+003;1.908806e-001
1.135915e+003;1.859684e-001
1.137843e+003;1.818642e-001
1.139772e+003;1.797986e-001
1.141700e+003;1.796744e-001
1.143629e+003;1.811015e-001
1.145557e+003;1.835889e-001
1.147486e+003;1.859861e-001
1.149415e+003;1.879059e-001
1.151343e+003;1.900353e-001
1.153272e+003;1.935013e-001
1.155200e+003;1.972311e-001
1.157129e+003;2.007699e-001
1.159057e+003;2.037462e-001
1.160986e+003;2.052748e-001
1.162914e+003;2.036898e-001
1.164843e+003;1.977242e-001
1.166771e+003;1.877973e-001
1.168700e+003;1.761508e-001
1.170629e+003;1.643952e-001
1.172557e+003;1.531202e-001
1.174486e+003;1.431901e-001
1.176414e+003;1.353079e-001
1.178343e+003;1.290383e-001
1.180271e+003;1.239322e-001
1.182200e+003;1.202108e-001
1.184128e+003;1.173299e-001
1.186057e+003;1.158612e-001
1.187986e+003;1.156741e-001
1.189914e+003;1.162218e-001
1.191843e+003;1.182124e-001
1.193771e+003;1.210766e-001
1.195700e+003;1.236584e-001
1.197628e+003;1.258851e-001
1.199557e+003;1.278023e-001
1.201485e+003;1.291580e-001
1.203414e+003;1.292959e-001
1.205343e+003;1.280428e-001
1.207271e+003;1.250829e-001
1.209200e+003;1.202615e-001
1.211128e+003;1.144274e-001
1.213057e+003;1.092070e-001
1.214985e+003;1.060488e-001
1.216914e+003;1.051588e-001
1.218842e+003;1.060485e-001
1.220771e+003;1.078741e-001
1.222699e+003;1.100597e-001
1.224628e+003;1.124963e-001
1.226557e+003;1.148294e-001
1.228485e+003;1.169697e-001
1.230414e+003;1.194565e-001
1.232342e+003;1.220150e-001
1.234271e+003;1.238643e-001
1.236199e+003;1.248265e-001
1.238128e+003;1.253813e-001
1.240056e+003;1.260458e-001
1.241985e+003;1.273427e-001
1.243913e+003;1.292783e-001
1.245842e+003;1.315283e-001
1.247771e+003;1.338780e-001
1.249699e+003;1.360821e-001
1.251628e+003;1.384770e-001
1.253556e+003;1.418783e-001
1.255485e+003;1.461225e-001
1.257413e+003;1.507004e-001
1.259342e+003;1.545944e-001
1.261270e+003;1.565704e-001
1.263199e+003;1.558595e-001
1.265127e+003;1.527459e-001
1.267056e+003;1.485340e-001
1.268985e+003;1.446562e-001
1.270913e+003;1.419913e-001
1.272842e+003;1.407837e-001
1.274770e+003;1.404670e-001
1.276699e+003;1.400739e-001
1.278627e+003;1.392096e-001
1.280556e+003;1.378881e-001
1.282484e+003;1.362148e-001
1.284413e+003;1.343283e-001
1.286342e+003;1.327574e-001
1.288270e+003;1.318584e-001
1.290199e+003;1.319193e-001
1.292127e+003;1.323607e-001
1.294056e+003;1.327935e-001
1.295984e+003;1.337630e-001
1.297913e+003;1.356937e-001
1.299841e+003;1.386356e-001
1.301770e+003;1.424733e-001
1.303698e+003;1.472960e-001
1.305627e+003;1.525010e-001
1.307556e+003;1.580426e-001
1.309484e+003;1.640683e-001
1.311413e+003;1.694423e-001
1.313341e+003;1.727712e-001
1.315270e+003;1.739420e-001
1.317198e+003;1.728984e-001
1.319127e+003;1.697973e-001
1.321055e+003;1.652592e-001
1.322984e+003;1.608933e-001
1.324912e+003;1.578594e-001
1.326841e+003;1.560924e-001
1.328770e+003;1.557628e-001
1.330698e+003;1.571862e-001
1.332627e+003;1.589650e-001
1.334555e+003;1.598896e-001
1.336484e+003;1.595471e-001
1.338412e+003;1.577385e-001
1.340341e+003;1.548937e-001
1.342269e+003;1.514404e-001
1.344198e+003;1.478482e-001
1.346126e+003;1.443990e-001
1.348055e+003;1.419323e-001
1.349984e+003;1.409777e-001
1.351912e+003;1.412749e-001
1.353841e+003;1.426589e-001
1.355769e+003;1.444838e-001
1.357698e+003;1.460113e-001
1.359626e+003;1.472964e-001
1.361555e+003;1.476114e-001
1.363483e+003;1.464522e-001
1.365412e+003;1.446836e-001
1.367341e+003;1.435510e-001
1.369269e+003;1.431280e-001
1.371198e+003;1.420588e-001
1.373126e+003;1.394544e-001
1.375055e+003;1.357758e-001
1.376983e+003;1.318329e-001
1.378912e+003;1.279787e-001
1.380840e+003;1.240119e-001
1.382769e+003;1.202403e-001
1.384698e+003;1.169536e-001
1.386626e+003;1.141877e-001
1.388555e+003;1.121054e-001
1.390483e+003;1.107106e-001
1.392412e+003;1.098191e-001
1.394340e+003;1.095923e-001
1.396269e+003;1.099021e-001
1.398197e+003;1.102711e-001
1.400126e+003;1.105766e-001
1.402054e+003;1.108791e-001
1.403983e+003;1.114786e-001
1.405911e+003;1.121155e-001
1.407840e+003;1.124000e-001
1.409769e+003;1.128782e-001
1.411697e+003;1.137431e-001
1.413626e+003;1.150556e-001
1.415554e+003;1.165752e-001
1.417483e+003;1.184755e-001
1.419411e+003;1.207101e-001
1.421340e+003;1.230683e-001
1.423268e+003;1.255014e-001
1.425197e+003;1.275074e-001
1.427125e+003;1.288859e-001
1.429054e+003;1.294291e-001
1.430983e+003;1.290926e-001
1.432911e+003;1.276415e-001
1.434840e+003;1.253980e-001
1.436768e+003;1.231020e-001
1.438697e+003;1.211303e-001
1.440625e+003;1.193749e-001
1.442554e+003;1.180902e-001
1.444482e+003;1.173928e-001
1.446411e+003;1.166935e-001
1.448340e+003;1.159952e-001
1.450268e+003;1.156776e-001
1.452197e+003;1.153500e-001
1.454125e+003;1.143894e-001
1.456054e+003;1.128354e-001
1.457982e+003;1.109633e-001
1.459911e+003;1.088286e-001
1.461839e+003;1.063152e-001
1.463768e+003;1.035418e-001
1.465697e+003;1.007303e-001
1.467625e+003;9.802707e-002
1.469554e+003;9.503669e-002
1.471482e+003;9.179565e-002
1.473411e+003;8.881812e-002
1.475339e+003;8.642757e-002
1.477268e+003;8.452636e-002
1.479196e+003;8.300572e-002
1.481125e+003;8.128282e-002
1.483053e+003;7.846176e-002
1.484982e+003;7.474951e-002
1.486911e+003;7.114480e-002
1.488839e+003;6.810342e-002
1.490768e+003;6.555468e-002
1.492696e+003;6.366150e-002
1.494625e+003;6.222737e-002
1.496553e+003;6.098014e-002
1.498482e+003;5.970185e-002
1.500410e+003;5.859370e-002
1.502339e+003;5.765078e-002
1.504267e+003;5.657552e-002
1.506196e+003;5.556771e-002
1.508125e+003;5.452437e-002
1.510053e+003;5.359949e-002
1.511982e+003;5.282837e-002
1.513910e+003;5.223339e-002
1.515839e+003;5.169554e-002
1.517767e+003;5.096620e-002
1.519696e+003;5.026836e-002
1.521624e+003;4.951724e-002
1.523553e+003;4.890623e-002
1.525481e+003;4.864183e-002
1.527410e+003;4.864724e-002
1.529339e+003;4.852999e-002
1.531267e+003;4.818137e-002
1.533196e+003;4.800548e-002
1.535124e+003;4.803172e-002
1.537053e+003;4.810175e-002
1.538981e+003;4.793580e-002
1.540910e+003;4.801173e-002
1.542838e+003;4.822739e-002
1.544767e+003;4.801396e-002
1.546695e+003;4.813524e-002
1.548624e+003;4.847361e-002
1.550553e+003;4.851114e-002
1.552481e+003;4.834170e-002
1.554410e+003;4.824624e-002
1.556338e+003;4.827875e-002
1.558267e+003;4.791068e-002
1.560195e+003;4.757793e-002
1.562124e+003;4.775428e-002
1.564052e+003;4.785637e-002
1.565981e+003;4.784912e-002
1.567910e+003;4.802054e-002
1.569838e+003;4.836389e-002
1.571767e+003;4.903222e-002
1.573695e+003;4.912975e-002
1.575624e+003;4.854415e-002
1.577552e+003;4.841008e-002
1.579481e+003;4.852144e-002
1.581409e+003;4.862593e-002
1.583338e+003;4.888809e-002
1.585266e+003;4.923506e-002
1.587195e+003;4.958639e-002
1.589124e+003;4.994276e-002
1.591052e+003;5.022056e-002
1.592981e+003;5.029627e-002
1.594909e+003;5.040085e-002
1.596838e+003;5.035315e-002
1.598766e+003;5.022741e-002
1.600695e+003;5.027026e-002
1.602623e+003;5.033071e-002
1.604552e+003;5.065564e-002
1.606480e+003;5.115094e-002
1.608409e+003;5.164631e-002
1.610338e+003;5.227263e-002
1.612266e+003;5.300327e-002
1.614195e+003;5.369142e-002
1.616123e+003;5.409028e-002
1.618052e+003;5.462198e-002
1.619980e+003;5.529170e-002
1.621909e+003;5.589903e-002
1.623837e+003;5.655921e-002
1.625766e+003;5.713335e-002
1.627694e+003;5.745554e-002
1.629623e+003;5.764026e-002
1.631552e+003;5.776919e-002
1.633480e+003;5.791815e-002
1.635409e+003;5.795537e-002
1.637337e+003;5.807973e-002
1.639266e+003;5.824725e-002
1.641194e+003;5.815019e-002
1.643123e+003;5.805788e-002
1.645051e+003;5.800759e-002
1.646980e+003;5.796877e-002
1.648909e+003;5.812806e-002
1.650837e+003;5.827237e-002
1.652766e+003;5.831735e-002
1.654694e+003;5.837935e-002
1.656623e+003;5.844894e-002
1.658551e+003;5.848253e-002
1.660480e+003;5.854539e-002
1.662408e+003;5.828544e-002
1.664337e+003;5.793201e-002
1.666266e+003;5.746394e-002
1.668194e+003;5.670575e-002
1.670123e+003;5.572752e-002
1.672051e+003;5.467857e-002
1.673980e+003;5.326862e-002
1.675908e+003;5.180416e-002
1.677837e+003;5.047893e-002
1.679765e+003;4.906628e-002
1.681694e+003;4.766445e-002
1.683622e+003;4.614765e-002
1.685551e+003;4.485879e-002
1.687479e+003;4.399906e-002
1.689408e+003;4.306016e-002
1.691337e+003;4.199107e-002
1.693265e+003;4.092741e-002
1.695194e+003;3.991189e-002
1.697122e+003;3.942807e-002
1.699051e+003;3.911648e-002
1.700979e+003;3.853878e-002
1.702908e+003;3.811495e-002
1.704836e+003;3.798171e-002
1.706765e+003;3.792403e-002
1.708693e+003;3.791174e-002
1.710622e+003;3.766089e-002
1.712551e+003;3.728271e-002
1.714479e+003;3.703594e-002
1.716408e+003;3.656029e-002
1.718336e+003;3.598984e-002
1.720265e+003;3.572541e-002
1.722193e+003;3.563250e-002
1.724122e+003;3.521674e-002
1.726050e+003;3.474656e-002
1.727979e+003;3.444307e-002
1.729908e+003;3.400057e-002
1.731836e+003;3.350139e-002
1.733765e+003;3.299807e-002
1.735693e+003;3.282968e-002
1.737622e+003;3.261375e-002
1.739550e+003;3.188150e-002
1.741479e+003;3.097880e-002
1.743407e+003;3.011824e-002
1.745336e+003;2.940599e-002
1.747265e+003;2.876487e-002
1.749193e+003;2.825172e-002
1.751122e+003;2.784311e-002
1.753050e+003;2.746279e-002
1.754979e+003;2.697741e-002
1.756907e+003;2.663280e-002
1.758836e+003;2.640278e-002
1.760764e+003;2.623140e-002
1.762693e+003;2.613311e-002
1.764621e+003;2.594303e-002
1.766550e+003;2.569952e-002
1.768479e+003;2.542660e-002
1.770407e+003;2.531359e-002
1.772336e+003;2.527549e-002
1.774264e+003;2.524550e-002
1.776193e+003;2.509336e-002
1.778121e+003;2.498132e-002
1.780050e+003;2.488446e-002
1.781978e+003;2.472235e-002
1.783907e+003;2.463727e-002
1.785835e+003;2.457100e-002
1.787764e+003;2.428470e-002
1.789693e+003;2.404114e-002
1.791621e+003;2.395636e-002
1.793550e+003;2.381808e-002
1.795478e+003;2.364290e-002
1.797407e+003;2.349153e-002
1.799335e+003;2.347695e-002
1.801264e+003;2.358703e-002
1.803192e+003;2.346383e-002
1.805121e+003;2.329812e-002
1.807049e+003;2.334899e-002
1.808978e+003;2.326803e-002
1.810907e+003;2.300823e-002
1.812835e+003;2.279419e-002
1.814764e+003;2.275281e-002
1.816692e+003;2.276803e-002
1.818621e+003;2.290200e-002
1.820549e+003;2.279422e-002
1.822478e+003;2.268232e-002
1.824406e+003;2.262092e-002
1.826335e+003;2.247769e-002
1.828264e+003;2.216445e-002
1.830192e+003;2.205166e-002
1.832121e+003;2.200513e-002
1.834049e+003;2.193068e-002
1.835978e+003;2.179893e-002
1.837906e+003;2.168718e-002
1.839835e+003;2.166308e-002
1.841763e+003;2.157664e-002
1.843692e+003;2.139958e-002
1.845620e+003;2.119127e-002
1.847549e+003;2.097972e-002
1.849478e+003;2.090882e-002
1.851406e+003;2.097527e-002
1.853335e+003;2.093344e-002
1.855263e+003;2.072675e-002
1.857192e+003;2.054172e-002
1.859120e+003;2.037042e-002
1.861049e+003;2.050973e-002
1.862977e+003;2.058925e-002
1.864906e+003;2.046436e-002
1.866834e+003;2.048757e-002
1.868763e+003;2.052967e-002
1.870692e+003;2.050803e-002
1.872620e+003;2.047645e-002
1.874549e+003;2.046610e-002
1.876477e+003;2.038473e-002
1.878406e+003;2.019527e-002
1.880334e+003;2.011822e-002
1.882263e+003;2.016389e-002
1.884191e+003;2.036553e-002
1.886120e+003;2.026963e-002
1.888048e+003;2.007158e-002
1.889977e+003;1.995378e-002
1.891906e+003;1.992537e-002
1.893834e+003;1.995173e-002
1.895763e+003;2.005593e-002
1.897691e+003;2.006130e-002
1.899620e+003;1.983120e-002
1.901548e+003;1.969551e-002
1.903477e+003;1.971128e-002
1.905405e+003;1.957927e-002
1.907334e+003;1.969485e-002
1.909262e+003;1.993286e-002
1.911191e+003;2.004888e-002
1.913120e+003;1.989273e-002
1.915048e+003;1.974454e-002
1.916977e+003;1.990313e-002
1.918905e+003;2.013502e-002
1.920834e+003;2.004618e-002
1.922762e+003;1.996981e-002
1.924691e+003;1.992953e-002
1.926619e+003;1.989439e-002
1.928548e+003;2.018829e-002
1.930477e+003;2.055979e-002
1.932405e+003;2.052696e-002
1.934334e+003;2.023540e-002
1.936262e+003;2.017469e-002
1.938191e+003;2.027164e-002
1.940119e+003;2.051932e-002
1.942048e+003;2.082070e-002
1.943976e+003;2.099815e-002
1.945905e+003;2.090225e-002
1.947833e+003;2.079643e-002
1.949762e+003;2.089690e-002
1.951691e+003;2.115923e-002
1.953619e+003;2.123601e-002
1.955548e+003;2.130710e-002
1.957476e+003;2.131765e-002
1.959405e+003;2.114055e-002
1.961333e+003;2.112889e-002
1.963262e+003;2.127279e-002
1.965190e+003;2.119614e-002
1.967119e+003;2.123166e-002
1.969047e+003;2.136651e-002
1.970976e+003;2.155742e-002
1.972905e+003;2.167597e-002
1.974833e+003;2.151700e-002
1.976762e+003;2.145642e-002
1.978690e+003;2.160750e-002
1.980619e+003;2.158504e-002
1.982547e+003;2.156867e-002
1.984476e+003;2.190531e-002
1.986404e+003;2.205285e-002
1.988333e+003;2.196337e-002
1.990261e+003;2.185332e-002
1.992190e+003;2.183928e-002
1.994119e+003;2.192148e-002
1.996047e+003;2.207150e-002
1.997976e+003;2.219472e-002
1.999904e+003;2.230032e-002
2.001833e+003;2.238687e-002
2.003761e+003;2.229212e-002
2.005690e+003;2.229369e-002
2.007618e+003;2.249433e-002
2.009547e+003;2.257268e-002
2.011476e+003;2.261592e-002
2.013404e+003;2.271608e-002
2.015333e+003;2.279572e-002
2.017261e+003;2.296431e-002
2.019190e+003;2.328313e-002
2.021118e+003;2.350961e-002
2.023047e+003;2.353473e-002
2.024975e+003;2.362551e-002
2.026904e+003;2.356488e-002
2.028833e+003;2.362075e-002
2.030761e+003;2.400363e-002
2.032690e+003;2.431963e-002
2.034618e+003;2.432289e-002
2.036547e+003;2.434830e-002
2.038475e+003;2.444489e-002
2.040404e+003;2.447935e-002
2.042332e+003;2.449502e-002
2.044261e+003;2.451427e-002
2.046189e+003;2.460182e-002
2.048118e+003;2.455855e-002
2.050047e+003;2.454912e-002
2.051975e+003;2.441752e-002
2.053904e+003;2.436418e-002
2.055832e+003;2.450505e-002
2.057761e+003;2.462535e-002
2.059689e+003;2.451956e-002
2.061618e+003;2.437861e-002
2.063546e+003;2.436740e-002
2.065475e+003;2.446533e-002
2.067404e+003;2.438527e-002
2.069332e+003;2.422769e-002
2.071260e+003;2.417609e-002
2.073189e+003;2.402482e-002
2.075118e+003;2.391746e-002
2.077046e+003;2.399740e-002
2.078975e+003;2.422408e-002
2.080903e+003;2.423775e-002
2.082832e+003;2.405325e-002
2.084760e+003;2.387297e-002
2.086689e+003;2.383709e-002
2.088617e+003;2.386107e-002
2.090546e+003;2.376544e-002
2.092475e+003;2.389079e-002
2.094403e+003;2.398518e-002
2.096332e+003;2.396018e-002
2.098260e+003;2.392296e-002
2.100189e+003;2.398689e-002
2.102117e+003;2.415710e-002
2.104046e+003;2.410008e-002
2.105974e+003;2.408110e-002
2.107903e+003;2.434368e-002
2.109832e+003;2.441850e-002
2.111760e+003;2.456654e-002
2.113688e+003;2.460694e-002
2.115617e+003;2.454677e-002
2.117546e+003;2.472523e-002
2.119474e+003;2.484545e-002
2.121403e+003;2.482535e-002
2.123331e+003;2.498585e-002
2.125260e+003;2.529459e-002
2.127188e+003;2.527240e-002
2.129117e+003;2.499718e-002
2.131045e+003;2.483166e-002
2.132974e+003;2.495405e-002
2.134903e+003;2.532402e-002
2.136831e+003;2.564008e-002
2.138760e+003;2.549019e-002
2.140688e+003;2.523194e-002
2.142617e+003;2.502972e-002
2.144545e+003;2.467728e-002
2.146474e+003;2.456455e-002
2.148402e+003;2.474175e-002
2.150331e+003;2.467536e-002
2.152260e+003;2.441868e-002
2.154188e+003;2.423719e-002
2.156117e+003;2.436383e-002
2.158045e+003;2.419868e-002
2.159974e+003;2.396375e-002
2.161902e+003;2.376796e-002
2.163831e+003;2.353420e-002
2.165759e+003;2.366298e-002
2.167688e+003;2.367358e-002
2.169616e+003;2.340414e-002
2.171545e+003;2.326467e-002
2.173474e+003;2.300243e-002
2.175402e+003;2.259495e-002
2.177331e+003;2.233723e-002
2.179259e+003;2.226046e-002
2.181188e+003;2.204148e-002
2.183116e+003;2.184088e-002
2.185045e+003;2.175922e-002
2.186973e+003;2.177813e-002
2.188902e+003;2.159872e-002
2.190831e+003;2.128932e-002
2.192759e+003;2.132029e-002
2.194688e+003;2.128574e-002
2.196616e+003;2.128421e-002
2.198545e+003;2.124962e-002
2.200473e+003;2.105748e-002
2.202402e+003;2.086245e-002
2.204330e+003;2.101645e-002
2.206259e+003;2.128522e-002
2.208188e+003;2.099840e-002
2.210116e+003;2.056816e-002
2.212044e+003;2.060054e-002
2.213973e+003;2.084746e-002
2.215902e+003;2.087291e-002
2.217830e+003;2.081312e-002
2.219759e+003;2.089711e-002
2.221687e+003;2.098337e-002
2.223616e+003;2.094133e-002
2.225544e+003;2.080797e-002
2.227473e+003;2.076915e-002
2.229401e+003;2.074965e-002
2.231330e+003;2.084339e-002
2.233259e+003;2.095058e-002
2.235187e+003;2.088682e-002
2.237116e+003;2.085817e-002
2.239044e+003;2.096769e-002
2.240973e+003;2.097298e-002
2.242901e+003;2.086297e-002
2.244830e+003;2.077794e-002
2.246758e+003;2.063831e-002
2.248687e+003;2.066861e-002
2.250615e+003;2.048798e-002
2.252544e+003;2.030452e-002
2.254473e+003;2.039536e-002
2.256401e+003;2.035435e-002
2.258330e+003;2.029626e-002
2.260258e+003;2.008997e-002
2.262187e+003;2.001117e-002
2.264115e+003;2.015459e-002
2.266044e+003;2.001196e-002
2.267972e+003;1.978490e-002
2.269901e+003;1.956683e-002
2.271830e+003;1.940250e-002
2.273758e+003;1.954416e-002
2.275687e+003;1.973892e-002
2.277615e+003;1.966926e-002
2.279544e+003;1.925828e-002
2.281472e+003;1.885402e-002
2.283401e+003;1.869629e-002
2.285329e+003;1.892704e-002
2.287258e+003;1.921665e-002
2.289187e+003;1.914105e-002
2.291115e+003;1.898249e-002
2.293043e+003;1.914974e-002
2.294972e+003;1.942855e-002
2.296901e+003;1.937575e-002
2.298829e+003;1.912298e-002
2.300758e+003;1.873918e-002
2.302686e+003;1.848260e-002
2.304615e+003;1.852454e-002
2.306543e+003;1.867930e-002
2.308472e+003;1.870203e-002
2.310400e+003;1.868473e-002
2.312329e+003;1.871967e-002
2.314258e+003;1.886852e-002
2.316186e+003;1.909732e-002
2.318115e+003;1.935545e-002
2.320043e+003;1.923289e-002
2.321972e+003;1.903157e-002
2.323900e+003;1.916882e-002
2.325829e+003;1.927214e-002
2.327757e+003;1.922555e-002
2.329686e+003;1.911571e-002
2.331615e+003;1.902316e-002
2.333543e+003;1.927733e-002
2.335472e+003;1.956281e-002
2.337400e+003;1.976090e-002
2.339329e+003;2.004094e-002
2.341257e+003;2.007408e-002
2.343186e+003;1.989786e-002
2.345114e+003;2.007248e-002
2.347043e+003;2.043095e-002
2.348971e+003;2.066656e-002
2.350900e+003;2.059234e-002
2.352829e+003;2.050716e-002
2.354757e+003;2.077471e-002
2.356686e+003;2.083592e-002
2.358614e+003;2.070148e-002
2.360543e+003;2.051341e-002
2.362471e+003;2.046381e-002
2.364400e+003;2.111439e-002
2.366328e+003;2.159033e-002
2.368257e+003;2.154464e-002
2.370186e+003;2.149482e-002
2.372114e+003;2.152814e-002
2.374042e+003;2.184670e-002
2.375971e+003;2.209897e-002
2.377900e+003;2.222516e-002
2.379828e+003;2.212812e-002
2.381757e+003;2.211620e-002
2.383685e+003;2.246949e-002
2.385614e+003;2.272086e-002
2.387542e+003;2.276671e-002
2.389471e+003;2.267907e-002
2.391399e+003;2.262210e-002
2.393328e+003;2.289693e-002
2.395257e+003;2.334172e-002
2.397185e+003;2.340763e-002
2.399114e+003;2.311780e-002
2.401042e+003;2.324167e-002
2.402971e+003;2.353693e-002
2.404899e+003;2.354515e-002
2.406828e+003;2.353777e-002
2.408756e+003;2.385606e-002
2.410685e+003;2.415185e-002
2.412614e+003;2.419269e-002
2.414542e+003;2.436232e-002
2.416471e+003;2.472989e-002
2.418399e+003;2.488222e-002
2.420328e+003;2.495149e-002
2.422256e+003;2.530369e-002
2.424185e+003;2.552143e-002
2.426113e+003;2.563431e-002
2.428042e+003;2.567990e-002
2.429970e+003;2.572813e-002
2.431899e+003;2.608624e-002
2.433828e+003;2.642535e-002
2.435756e+003;2.678026e-002
2.437685e+003;2.725470e-002
2.439613e+003;2.719039e-002
2.441542e+003;2.700678e-002
2.443470e+003;2.704814e-002
2.445399e+003;2.733585e-002
2.447327e+003;2.769239e-002
2.449256e+003;2.792359e-002
2.451185e+003;2.789197e-002
2.453113e+003;2.784138e-002
2.455042e+003;2.796769e-002
2.456970e+003;2.811380e-002
2.458899e+003;2.839613e-002
2.460827e+003;2.852781e-002
2.462756e+003;2.859147e-002
2.464684e+003;2.870363e-002
2.466613e+003;2.911731e-002
2.468542e+003;2.951815e-002
2.470470e+003;2.947400e-002
2.472398e+003;2.957518e-002
2.474327e+003;2.949872e-002
2.476256e+003;2.943007e-002
2.478184e+003;2.975558e-002
2.480113e+003;3.011962e-002
2.482041e+003;3.035173e-002
2.483970e+003;3.054109e-002
2.485898e+003;3.061400e-002
2.487827e+003;3.061613e-002
2.489755e+003;3.092240e-002
2.491684e+003;3.132029e-002
2.493613e+003;3.158272e-002
2.495541e+003;3.173853e-002
2.497470e+003;3.187907e-002
2.499398e+003;3.185900e-002
2.501327e+003;3.188193e-002
2.503255e+003;3.210246e-002
2.505184e+003;3.239774e-002
2.507112e+003;3.244844e-002
2.509041e+003;3.241438e-002
2.510969e+003;3.264443e-002
2.512898e+003;3.306113e-002
2.514827e+003;3.355801e-002
2.516755e+003;3.376160e-002
2.518684e+003;3.370523e-002
2.520612e+003;3.366746e-002
2.522541e+003;3.397327e-002
2.524469e+003;3.445946e-002
2.526398e+003;3.471637e-002
2.528326e+003;3.473267e-002
2.530255e+003;3.476404e-002
2.532184e+003;3.489493e-002
2.534112e+003;3.506768e-002
2.536041e+003;3.501121e-002
2.537969e+003;3.496388e-002
2.539898e+003;3.490215e-002
2.541826e+003;3.494226e-002
2.543755e+003;3.508804e-002
2.545683e+003;3.491141e-002
2.547612e+003;3.507687e-002
2.549541e+003;3.558513e-002
2.551469e+003;3.595575e-002
2.553397e+003;3.597756e-002
2.555326e+003;3.581928e-002
2.557255e+003;3.583932e-002
2.559183e+003;3.594131e-002
2.561112e+003;3.586401e-002
2.563040e+003;3.601899e-002
2.564969e+003;3.651430e-002
2.566897e+003;3.680186e-002
2.568826e+003;3.668906e-002
2.570754e+003;3.657518e-002
2.572683e+003;3.639401e-002
2.574612e+003;3.617349e-002
2.576540e+003;3.621253e-002
2.578469e+003;3.639935e-002
2.580397e+003;3.664216e-002
2.582326e+003;3.694025e-002
2.584254e+003;3.705073e-002
2.586183e+003;3.684264e-002
2.588111e+003;3.704377e-002
2.590040e+003;3.773082e-002
2.591969e+003;3.813380e-002
2.593897e+003;3.825960e-002
2.595826e+003;3.859738e-002
2.597754e+003;3.865887e-002
2.599683e+003;3.854820e-002
2.601611e+003;3.869759e-002
2.603540e+003;3.877370e-002
2.605468e+003;3.876457e-002
2.607397e+003;3.901352e-002
2.609325e+003;3.934601e-002
2.611254e+003;3.979211e-002
2.613183e+003;4.013112e-002
2.615111e+003;4.012610e-002
2.617040e+003;4.023685e-002
2.618968e+003;4.048359e-002
2.620897e+003;4.064773e-002
2.622825e+003;4.076869e-002
2.624754e+003;4.116689e-002
2.626682e+003;4.146206e-002
2.628611e+003;4.140487e-002
2.630540e+003;4.149495e-002
2.632468e+003;4.189002e-002
2.634396e+003;4.246876e-002
2.636325e+003;4.273121e-002
2.638254e+003;4.270668e-002
2.640182e+003;4.278328e-002
2.642111e+003;4.291347e-002
2.644039e+003;4.344282e-002
2.645968e+003;4.397171e-002
2.647896e+003;4.381379e-002
2.649825e+003;4.407746e-002
2.651753e+003;4.453678e-002
2.653682e+003;4.451332e-002
2.655611e+003;4.466265e-002
2.657539e+003;4.496414e-002
2.659468e+003;4.507550e-002
2.661396e+003;4.525389e-002
2.663325e+003;4.531163e-002
2.665253e+003;4.532748e-002
2.667182e+003;4.552532e-002
2.669110e+003;4.607404e-002
2.671039e+003;4.647437e-002
2.672968e+003;4.662787e-002
2.674896e+003;4.666716e-002
2.676825e+003;4.694871e-002
2.678753e+003;4.738114e-002
2.680682e+003;4.768852e-002
2.682610e+003;4.781997e-002
2.684539e+003;4.811947e-002
2.686467e+003;4.869932e-002
2.688396e+003;4.920144e-002
2.690324e+003;4.962093e-002
2.692253e+003;4.974464e-002
2.694182e+003;4.946614e-002
2.696110e+003;4.947636e-002
2.698039e+003;4.982138e-002
2.699967e+003;5.038031e-002
2.701896e+003;5.069146e-002
2.703824e+003;5.099947e-002
2.705753e+003;5.134164e-002
2.707681e+003;5.150266e-002
2.709610e+003;5.203889e-002
2.711539e+003;5.272757e-002
2.713467e+003;5.305212e-002
2.715396e+003;5.295648e-002
2.717324e+003;5.302569e-002
2.719253e+003;5.327712e-002
2.721181e+003;5.343473e-002
2.723110e+003;5.371827e-002
2.725038e+003;5.431889e-002
2.726967e+003;5.463975e-002
2.728896e+003;5.465223e-002
2.730824e+003;5.462059e-002
2.732752e+003;5.481951e-002
2.734681e+003;5.490155e-002
2.736610e+003;5.508436e-002
2.738538e+003;5.552233e-002
2.740467e+003;5.590155e-002
2.742395e+003;5.595903e-002
2.744324e+003;5.613655e-002
2.746252e+003;5.622056e-002
2.748181e+003;5.599450e-002
2.750109e+003;5.583689e-002
2.752038e+003;5.599276e-002
2.753967e+003;5.626133e-002
2.755895e+003;5.646067e-002
2.757824e+003;5.647136e-002
2.759752e+003;5.676507e-002
2.761681e+003;5.733287e-002
2.763609e+003;5.747775e-002
2.765538e+003;5.766501e-002
2.767466e+003;5.784910e-002
2.769395e+003;5.790550e-002
2.771323e+003;5.830178e-002
2.773252e+003;5.885975e-002
2.775181e+003;5.957971e-002
2.777109e+003;5.970090e-002
2.779038e+003;5.965478e-002
2.780966e+003;6.005947e-002
2.782895e+003;6.034774e-002
2.784823e+003;6.072879e-002
2.786752e+003;6.137308e-002
2.788680e+003;6.201306e-002
2.790609e+003;6.207418e-002
2.792538e+003;6.224404e-002
2.794466e+003;6.270240e-002
2.796395e+003;6.300186e-002
2.798323e+003;6.337478e-002
2.800252e+003;6.388899e-002
2.802180e+003;6.458497e-002
2.804109e+003;6.504343e-002
2.806037e+003;6.533637e-002
2.807966e+003;6.608213e-002
2.809895e+003;6.692491e-002
2.811823e+003;6.750596e-002
2.813751e+003;6.829691e-002
2.815680e+003;6.908805e-002
2.817609e+003;6.991640e-002
2.819537e+003;7.070602e-002
2.821466e+003;7.135054e-002
2.823394e+003;7.219958e-002
2.825323e+003;7.328797e-002
2.827251e+003;7.450765e-002
2.829180e+003;7.570443e-002
2.831108e+003;7.685763e-002
2.833037e+003;7.769874e-002
2.834966e+003;7.887757e-002
2.836894e+003;8.070140e-002
2.838823e+003;8.269484e-002
2.840751e+003;8.456690e-002
2.842680e+003;8.658244e-002
2.844608e+003;8.867935e-002
2.846537e+003;9.087421e-002
2.848465e+003;9.386776e-002
2.850394e+003;9.672140e-002
2.852323e+003;9.820130e-002
2.854251e+003;9.941670e-002
2.856180e+003;1.007944e-001
2.858108e+003;1.019346e-001
2.860037e+003;1.028423e-001
2.861965e+003;1.040824e-001
2.863894e+003;1.054318e-001
2.865822e+003;1.064786e-001
2.867751e+003;1.077745e-001
2.869679e+003;1.088728e-001
2.871608e+003;1.093268e-001
2.873536e+003;1.097382e-001
2.875465e+003;1.106340e-001
2.877394e+003;1.115517e-001
2.879322e+003;1.121589e-001
2.881251e+003;1.125039e-001
2.883179e+003;1.132846e-001
2.885108e+003;1.140807e-001
2.887036e+003;1.148352e-001
2.888965e+003;1.155359e-001
2.890893e+003;1.163211e-001
2.892822e+003;1.169247e-001
2.894750e+003;1.174480e-001
2.896679e+003;1.181296e-001
2.898608e+003;1.186864e-001
2.900536e+003;1.184142e-001
2.902465e+003;1.176681e-001
2.904393e+003;1.173819e-001
2.906322e+003;1.171701e-001
2.908250e+003;1.164337e-001
2.910179e+003;1.154020e-001
2.912107e+003;1.146769e-001
2.914036e+003;1.133271e-001
2.915965e+003;1.115797e-001
2.917893e+003;1.098710e-001
2.919822e+003;1.081513e-001
2.921750e+003;1.066279e-001
2.923679e+003;1.051138e-001
2.925607e+003;1.037281e-001
2.927536e+003;1.023844e-001
2.929464e+003;1.004813e-001
2.931393e+003;9.832740e-002
2.933322e+003;9.696212e-002
2.935250e+003;9.587593e-002
2.937178e+003;9.464669e-002
2.939107e+003;9.375426e-002
2.941036e+003;9.271376e-002
2.942964e+003;9.167852e-002
2.944893e+003;9.125821e-002
2.946821e+003;9.054863e-002
2.948750e+003;8.896665e-002
2.950678e+003;8.727487e-002
2.952607e+003;8.600819e-002
2.954535e+003;8.457454e-002
2.956464e+003;8.276888e-002
2.958393e+003;8.123808e-002
2.960321e+003;8.013762e-002
2.962250e+003;7.953998e-002
2.964178e+003;7.870691e-002
2.966107e+003;7.744984e-002
2.968035e+003;7.620052e-002
2.969964e+003;7.456371e-002
2.971892e+003;7.240529e-002
2.973821e+003;7.038044e-002
2.975750e+003;6.846926e-002
2.977678e+003;6.638134e-002
2.979607e+003;6.445335e-002
2.981535e+003;6.315251e-002
2.983464e+003;6.246735e-002
2.985392e+003;6.191767e-002
2.987321e+003;6.069781e-002
2.989249e+003;5.938182e-002
2.991178e+003;5.889682e-002
2.993106e+003;5.882617e-002
2.995035e+003;5.833565e-002
2.996964e+003;5.818348e-002
2.998892e+003;5.795071e-002
3.000821e+003;5.745396e-002
3.002749e+003;5.731314e-002
3.004678e+003;5.764265e-002
3.006606e+003;5.745951e-002
3.008535e+003;5.745350e-002
3.010463e+003;5.787745e-002
3.012392e+003;5.792792e-002
3.014321e+003;5.795707e-002
3.016249e+003;5.788199e-002
3.018177e+003;5.808663e-002
3.020106e+003;5.880329e-002
3.022035e+003;5.898039e-002
3.023963e+003;5.883903e-002
3.025892e+003;5.928963e-002
3.027820e+003;5.981036e-002
3.029749e+003;6.029478e-002
3.031677e+003;6.064527e-002
3.033606e+003;6.106407e-002
3.035534e+003;6.132267e-002
3.037463e+003;6.157440e-002
3.039392e+003;6.202216e-002
3.041320e+003;6.256427e-002
3.043249e+003;6.312883e-002
3.045177e+003;6.366565e-002
3.047106e+003;6.442975e-002
3.049034e+003;6.491812e-002
3.050963e+003;6.503865e-002
3.052891e+003;6.577858e-002
3.054820e+003;6.654359e-002
3.056749e+003;6.670285e-002
3.058677e+003;6.689217e-002
3.060606e+003;6.731232e-002
3.062534e+003;6.742542e-002
3.064463e+003;6.788928e-002
3.066391e+003;6.864841e-002
3.068320e+003;6.942379e-002
3.070248e+003;6.985500e-002
3.072177e+003;7.045425e-002
3.074105e+003;7.109000e-002
3.076034e+003;7.155303e-002
3.077963e+003;7.187714e-002
3.079891e+003;7.241569e-002
3.081820e+003;7.325090e-002
3.083748e+003;7.374490e-002
3.085677e+003;7.426125e-002
3.087605e+003;7.453039e-002
3.089534e+003;7.506192e-002
3.091462e+003;7.581993e-002
3.093391e+003;7.663289e-002
3.095320e+003;7.712337e-002
3.097248e+003;7.759061e-002
3.099177e+003;7.838821e-002
3.101105e+003;7.904682e-002
3.103034e+003;7.935359e-002
3.104962e+003;7.970846e-002
3.106891e+003;8.025336e-002
3.108819e+003;8.058116e-002
3.110748e+003;8.094103e-002
3.112677e+003;8.185218e-002
3.114605e+003;8.257969e-002
3.116533e+003;8.309723e-002
3.118462e+003;8.376479e-002
3.120391e+003;8.450869e-002
3.122319e+003;8.530354e-002
3.124248e+003;8.629724e-002
3.126176e+003;8.715713e-002
3.128105e+003;8.804920e-002
3.130033e+003;8.885235e-002
3.131962e+003;8.891749e-002
3.133890e+003;8.883564e-002
3.135819e+003;8.966453e-002
3.137748e+003;9.102124e-002
3.139676e+003;9.207277e-002
3.141605e+003;9.283170e-002
3.143533e+003;9.353139e-002
3.145462e+003;9.433783e-002
3.147390e+003;9.517618e-002
3.149319e+003;9.565435e-002
3.151247e+003;9.634048e-002
3.153176e+003;9.696606e-002
3.155104e+003;9.763061e-002
3.157033e+003;9.844422e-002
3.158962e+003;9.928754e-002
3.160890e+003;9.985936e-002
3.162819e+003;1.001672e-001
3.164747e+003;1.009331e-001
3.166676e+003;1.022064e-001
3.168604e+003;1.031882e-001
3.170533e+003;1.039969e-001
3.172461e+003;1.047514e-001
3.174390e+003;1.054136e-001
3.176319e+003;1.061402e-001
3.178247e+003;1.071967e-001
3.180176e+003;1.081717e-001
3.182104e+003;1.086731e-001
3.184033e+003;1.092801e-001
3.185961e+003;1.102029e-001
3.187890e+003;1.114154e-001
3.189818e+003;1.125201e-001
3.191747e+003;1.131955e-001
3.193676e+003;1.143253e-001
3.195604e+003;1.150405e-001
3.197532e+003;1.152968e-001
3.199461e+003;1.160692e-001
3.201390e+003;1.173878e-001
3.203318e+003;1.186587e-001
3.205247e+003;1.192621e-001
3.207175e+003;1.203685e-001
3.209104e+003;1.218976e-001
3.211032e+003;1.228248e-001
3.212961e+003;1.232611e-001
3.214889e+003;1.238398e-001
3.216818e+003;1.248338e-001
3.218747e+003;1.259677e-001
3.220675e+003;1.277640e-001
3.222604e+003;1.298254e-001
3.224532e+003;1.311553e-001
3.226461e+003;1.318259e-001
3.228389e+003;1.329922e-001
3.230318e+003;1.340214e-001
3.232246e+003;1.343480e-001
3.234175e+003;1.352166e-001
3.236104e+003;1.364277e-001
3.238032e+003;1.371022e-001
3.239961e+003;1.382777e-001
3.241889e+003;1.404902e-001
3.243818e+003;1.426860e-001
3.245746e+003;1.441860e-001
3.247675e+003;1.454759e-001
3.249603e+003;1.472349e-001
3.251532e+003;1.489948e-001
3.253460e+003;1.497673e-001
3.255389e+003;1.511959e-001
3.257318e+003;1.536908e-001
3.259246e+003;1.556631e-001
3.261175e+003;1.566602e-001
3.263103e+003;1.573401e-001
3.265032e+003;1.592884e-001
3.266960e+003;1.605969e-001
3.268889e+003;1.611900e-001
3.270817e+003;1.627578e-001
3.272746e+003;1.638317e-001
3.274675e+003;1.643781e-001
3.276603e+003;1.657818e-001
3.278531e+003;1.669191e-001
3.280460e+003;1.672859e-001
3.282389e+003;1.677323e-001
3.284317e+003;1.680233e-001
3.286246e+003;1.684329e-001
3.288174e+003;1.690783e-001
3.290103e+003;1.694919e-001
3.292031e+003;1.700171e-001
3.293960e+003;1.698020e-001
3.295888e+003;1.696083e-001
3.297817e+003;1.697177e-001
3.299746e+003;1.695374e-001
3.301674e+003;1.695290e-001
3.303603e+003;1.700792e-001
3.305531e+003;1.705597e-001
3.307460e+003;1.709222e-001
3.309388e+003;1.712099e-001
3.311317e+003;1.713423e-001
3.313245e+003;1.718653e-001
3.315174e+003;1.725357e-001
3.317103e+003;1.731504e-001
3.319031e+003;1.735728e-001
3.320960e+003;1.734533e-001
3.322888e+003;1.737493e-001
3.324817e+003;1.752018e-001
3.326745e+003;1.767608e-001
3.328674e+003;1.772362e-001
3.330602e+003;1.778965e-001
3.332531e+003;1.785196e-001
3.334459e+003;1.783734e-001
3.336388e+003;1.776996e-001
3.338317e+003;1.771172e-001
3.340245e+003;1.765958e-001
3.342174e+003;1.758772e-001
3.344102e+003;1.750433e-001
3.346031e+003;1.741507e-001
3.347959e+003;1.726720e-001
3.349888e+003;1.709597e-001
3.351816e+003;1.700355e-001
3.353745e+003;1.699227e-001
3.355674e+003;1.688671e-001
3.357602e+003;1.669923e-001
3.359531e+003;1.652865e-001
3.361459e+003;1.638936e-001
3.363388e+003;1.626219e-001
3.365316e+003;1.616471e-001
3.367245e+003;1.607116e-001
3.369173e+003;1.599136e-001
3.371102e+003;1.597099e-001
3.373031e+003;1.592030e-001
3.374959e+003;1.581061e-001
3.376887e+003;1.572421e-001
3.378816e+003;1.568756e-001
3.380745e+003;1.559296e-001
3.382673e+003;1.546811e-001
3.384602e+003;1.540378e-001
3.386530e+003;1.529205e-001
3.388459e+003;1.520517e-001
3.390387e+003;1.514680e-001
3.392316e+003;1.507036e-001
3.394244e+003;1.506966e-001
3.396173e+003;1.508062e-001
3.398102e+003;1.499176e-001
3.400030e+003;1.488862e-001
3.401959e+003;1.481610e-001
3.403887e+003;1.473349e-001
3.405816e+003;1.459181e-001
3.407744e+003;1.447023e-001
3.409673e+003;1.441177e-001
3.411601e+003;1.428669e-001
3.413530e+003;1.420255e-001
3.415458e+003;1.409947e-001
3.417387e+003;1.391612e-001
3.419316e+003;1.377878e-001
3.421244e+003;1.368959e-001
3.423173e+003;1.359272e-001
3.425101e+003;1.344117e-001
3.427030e+003;1.324546e-001
3.428958e+003;1.313470e-001
3.430887e+003;1.304669e-001
3.432815e+003;1.293541e-001
3.434744e+003;1.284653e-001
3.436673e+003;1.272713e-001
3.438601e+003;1.258146e-001
3.440530e+003;1.245380e-001
3.442458e+003;1.235378e-001
3.444387e+003;1.229118e-001
3.446315e+003;1.216208e-001
3.448244e+003;1.198955e-001
3.450172e+003;1.190420e-001
3.452101e+003;1.181085e-001
3.454030e+003;1.166587e-001
3.455958e+003;1.156583e-001
3.457886e+003;1.152355e-001
3.459815e+003;1.141897e-001
3.461744e+003;1.122090e-001
3.463672e+003;1.106408e-001
3.465601e+003;1.098951e-001
3.467529e+003;1.090738e-001
3.469458e+003;1.075795e-001
3.471386e+003;1.063237e-001
3.473315e+003;1.049818e-001
3.475243e+003;1.036485e-001
3.477172e+003;1.026337e-001
3.479101e+003;1.013403e-001
3.481029e+003;1.002175e-001
3.482958e+003;9.892496e-002
3.484886e+003;9.744761e-002
3.486815e+003;9.630255e-002
3.488743e+003;9.525695e-002
3.490672e+003;9.395295e-002
3.492600e+003;9.260622e-002
3.494529e+003;9.170295e-002
3.496458e+003;9.073441e-002
3.498386e+003;8.981718e-002
3.500315e+003;8.861165e-002
3.502243e+003;8.729845e-002
3.504172e+003;8.626264e-002
3.506100e+003;8.505911e-002
3.508029e+003;8.396707e-002
3.509957e+003;8.284073e-002
3.511886e+003;8.218587e-002
3.513814e+003;8.112783e-002
3.515743e+003;8.032515e-002
3.517672e+003;7.937256e-002
3.519600e+003;7.794107e-002
3.521529e+003;7.659606e-002
3.523457e+003;7.511100e-002
3.525386e+003;7.438400e-002
3.527314e+003;7.372189e-002
3.529243e+003;7.246228e-002
3.531171e+003;7.133692e-002
3.533100e+003;7.019619e-002
3.535029e+003;6.913549e-002
3.536957e+003;6.803970e-002
3.538885e+003;6.686032e-002
3.540814e+003;6.557830e-002
3.542743e+003;6.476387e-002
3.544671e+003;6.413945e-002
3.546600e+003;6.320267e-002
3.548528e+003;6.214846e-002
3.550457e+003;6.106075e-002
3.552385e+003;6.011114e-002
3.554314e+003;5.882386e-002
3.556242e+003;5.737666e-002
3.558171e+003;5.625662e-002
3.560100e+003;5.549839e-002
3.562028e+003;5.440391e-002
3.563957e+003;5.312611e-002
3.565885e+003;5.230828e-002
3.567814e+003;5.143559e-002
3.569742e+003;5.032763e-002
3.571671e+003;4.906787e-002
3.573599e+003;4.809334e-002
3.575528e+003;4.762241e-002
3.577457e+003;4.711136e-002
3.579385e+003;4.558339e-002
3.581314e+003;4.417447e-002
3.583242e+003;4.341788e-002
3.585171e+003;4.228921e-002
3.587099e+003;4.089380e-002
3.589028e+003;4.007937e-002
3.590956e+003;3.976193e-002
3.592885e+003;3.855877e-002
3.594813e+003;3.678018e-002
3.596742e+003;3.565739e-002
3.598671e+003;3.491705e-002
3.600599e+003;3.373653e-002
3.602528e+003;3.257092e-002
3.604456e+003;3.187073e-002
3.606385e+003;3.093037e-002
3.608313e+003;2.997180e-002
3.610242e+003;2.849692e-002
3.612170e+003;2.743434e-002
3.614099e+003;2.686778e-002
3.616028e+003;2.541430e-002
3.617956e+003;2.367904e-002
3.619885e+003;2.293340e-002
3.621813e+003;2.226227e-002
3.623742e+003;2.171407e-002
3.625670e+003;2.141695e-002
3.627599e+003;2.096804e-002
3.629527e+003;1.999985e-002
3.631456e+003;1.872600e-002
3.633385e+003;1.760712e-002
3.635313e+003;1.668619e-002
3.637241e+003;1.565089e-002
3.639170e+003;1.471778e-002
3.641099e+003;1.377197e-002
3.643027e+003;1.307881e-002
3.644956e+003;1.261643e-002
3.646884e+003;1.206113e-002
3.648813e+003;1.168594e-002
3.650741e+003;1.126265e-002
3.652670e+003;1.031933e-002
3.654598e+003;9.739807e-003
3.656527e+003;1.003610e-002
3.658456e+003;9.906386e-003
3.660384e+003;8.849666e-003
3.662313e+003;8.070936e-003
3.664241e+003;7.351594e-003
3.666170e+003;7.297374e-003
3.668098e+003;7.618038e-003
3.670027e+003;6.771605e-003
3.671955e+003;5.879393e-003
3.673884e+003;5.982816e-003
3.675813e+003;5.463835e-003
3.677741e+003;4.807822e-003
3.679669e+003;4.057136e-003
3.681598e+003;3.503439e-003
3.683527e+003;3.053308e-003
3.685455e+003;3.038159e-003
3.687384e+003;3.571585e-003
3.689312e+003;3.799418e-003
3.691241e+003;3.441983e-003
3.693169e+003;3.384375e-003
3.695098e+003;3.626110e-003
3.697026e+003;3.433199e-003
3.698955e+003;3.351751e-003
3.700884e+003;3.176252e-003
3.702812e+003;2.926695e-003
3.704741e+003;2.535948e-003
3.706669e+003;2.184279e-003
3.708598e+003;2.230270e-003
3.710526e+003;2.517851e-003
3.712455e+003;2.576510e-003
3.714383e+003;2.202461e-003
3.716312e+003;1.427339e-003
3.718240e+003;1.376812e-003
3.720169e+003;1.732218e-003
3.722098e+003;1.710296e-003
3.724026e+003;1.615935e-003
3.725955e+003;1.649160e-003
3.727883e+003;1.834225e-003
3.729812e+003;1.819152e-003
3.731740e+003;1.612343e-003
3.733669e+003;1.491901e-003
3.735597e+003;1.107060e-003
3.737526e+003;5.583692e-004
3.739455e+003;1.426655e-004
3.741383e+003;1.005403e-004
3.743312e+003;1.430301e-004
3.745240e+003;5.737634e-004
3.747169e+003;1.092643e-003
3.749097e+003;8.174235e-004
3.751026e+003;-1.040396e-005
3.752954e+003;-1.360933e-004
3.754883e+003;4.136766e-004
3.756812e+003;3.916221e-004
3.758740e+003;3.564366e-004
3.760668e+003;6.513733e-004
3.762597e+003;1.035679e-003
3.764526e+003;9.728439e-004
3.766454e+003;4.941107e-004
3.768383e+003;2.267291e-004
3.770311e+003;7.445634e-004
3.772240e+003;1.445457e-003
3.774168e+003;1.108189e-003
3.776097e+003;5.076118e-004
3.778025e+003;3.517940e-004
3.779954e+003;3.677894e-006
3.781883e+003;-2.159471e-004
3.783811e+003;3.766322e-004
3.785740e+003;3.962982e-004
3.787668e+003;3.411495e-004
3.789597e+003;7.464552e-004
3.791525e+003;5.305348e-004
3.793454e+003;1.849273e-004
3.795382e+003;9.715987e-005
3.797311e+003;4.434935e-004
3.799240e+003;5.202176e-004
3.801168e+003;-1.243343e-004
3.803097e+003;-1.115480e-004
3.805025e+003;4.578886e-004
3.806954e+003;7.328139e-004
3.808882e+003;6.352795e-004
3.810811e+003;4.787856e-004
3.812739e+003;1.093872e-003
3.814668e+003;1.446786e-003
3.816596e+003;5.241985e-004
3.818525e+003;-1.006496e-004
3.820454e+003;-2.760182e-004
3.822382e+003;8.387035e-005
3.824311e+003;5.128531e-004
3.826239e+003;4.766295e-004
3.828168e+003;5.231701e-004
3.830096e+003;7.440323e-004
3.832025e+003;6.921581e-004
3.833953e+003;1.683242e-005
3.835882e+003;-3.182683e-004
3.837811e+003;1.889714e-004
3.839739e+003;4.019693e-004
3.841667e+003;4.965986e-004
3.843596e+003;6.643815e-004
3.845525e+003;1.429666e-003
3.847453e+003;1.887301e-003
3.849382e+003;1.369233e-003
3.851310e+003;1.082113e-003
3.853239e+003;7.714488e-004
3.855167e+003;9.446177e-004
3.857096e+003;1.600703e-003
3.859024e+003;1.382762e-003
3.860953e+003;1.380335e-003
3.862882e+003;1.154100e-003
3.864810e+003;7.132986e-004
3.866739e+003;8.566966e-004
3.868667e+003;1.154731e-003
3.870596e+003;1.619659e-003
3.872524e+003;2.516251e-003
3.874453e+003;2.855682e-003
3.876381e+003;2.497955e-003
3.878310e+003;2.162267e-003
3.880239e+003;1.715719e-003
3.882167e+003;1.622420e-003
3.884096e+003;1.947007e-003
3.886024e+003;1.661400e-003
3.887953e+003;1.316487e-003
3.889881e+003;1.723004e-003
3.891810e+003;2.466831e-003
3.893738e+003;2.482826e-003
3.895667e+003;2.451536e-003
3.897595e+003;2.873859e-003
3.899524e+003;3.347511e-003
3.901453e+003;3.100092e-003
3.903381e+003;2.275900e-003
3.905310e+003;2.231269e-003
3.907238e+003;3.138170e-003
3.909167e+003;2.960788e-003
3.911095e+003;2.244358e-003
3.913024e+003;2.868623e-003
3.914952e+003;4.379097e-003
3.916881e+003;5.060106e-003
3.918810e+003;4.160494e-003
3.920738e+003;3.319831e-003
3.922667e+003;3.053408e-003
3.924595e+003;3.036857e-003
3.926524e+003;3.068223e-003
3.928452e+003;3.291252e-003
3.930381e+003;3.289115e-003
3.932309e+003;3.068023e-003
3.934238e+003;3.236936e-003
3.936167e+003;3.474213e-003
3.938095e+003;3.075464e-003
3.940023e+003;2.651945e-003
3.941952e+003;2.832736e-003
3.943881e+003;2.952382e-003
3.945809e+003;3.313154e-003
3.947738e+003;3.923310e-003
3.949666e+003;4.582440e-003
3.951595e+003;5.343797e-003
3.953523e+003;5.184525e-003
3.955452e+003;4.508310e-003
3.957380e+003;4.193713e-003
3.959309e+003;4.129785e-003
3.961238e+003;3.944608e-003
3.963166e+003;3.743268e-003
3.965095e+003;4.081317e-003
3.967023e+003;4.577953e-003
3.968952e+003;4.410560e-003
3.970880e+003;4.650756e-003
3.972809e+003;5.108112e-003
3.974737e+003;5.290498e-003
3.976666e+003;5.392607e-003
3.978594e+003;5.184927e-003
3.980523e+003;5.303144e-003
3.982452e+003;5.894540e-003
3.984380e+003;5.889066e-003
3.986309e+003;5.654495e-003
3.988237e+003;6.115430e-003
3.990166e+003;5.864011e-003
3.992094e+003;4.859252e-003
3.994023e+003;4.417790e-003
3.995951e+003;4.458461e-003
3.997880e+003;4.633040e-003
3.999809e+003;5.319512e-003
4.001737e+003;0.000000e+000
