3.992094e+002;0.000000e+000
4.011380e+002;0.000000e+000
4.030665e+002;0.000000e+000
4.049951e+002;0.000000e+000
4.069236e+002;0.000000e+000
4.088522e+002;0.000000e+000
4.107807e+002;0.000000e+000
4.127093e+002;0.000000e+000
4.146378e+002;0.000000e+000
4.165664e+002;0.000000e+000
4.184949e+002;0.000000e+000
4.204235e+002;0.000000e+000
4.223520e+002;0.000000e+000
4.242806e+002;0.000000e+000
4.262091e+002;0.000000e+000
4.281377e+002;0.000000e+000
4.300662e+002;0.000000e+000
4.319948e+002;0.000000e+000
4.339233e+002;0.000000e+000
4.358519e+002;0.000000e+000
4.377804e+002;0.000000e+000
4.397090e+002;0.000000e+000
4.416375e+002;0.000000e+000
4.435660e+002;0.000000e+000
4.454946e+002;0.000000e+000
4.474232e+002;0.000000e+000
4.493517e+002;0.000000e+000
4.512802e+002;0.000000e+000
4.532088e+002;0.000000e+000
4.551373e+002;0.000000e+000
4.570659e+002;0.000000e+000
4.589944e+002;0.000000e+000
4.609230e+002;0.000000e+000
4.628515e+002;0.000000e+000
4.647801e+002;0.000000e+000
4.667086e+002;0.000000e+000
4.686372e+002;0.000000e+000
4.705657e+002;0.000000e+000
4.724943e+002;0.000000e+000
4.744228e+002;0.000000e+000
4.763513e+002;0.000000e+000
4.782799e+002;0.000000e+000
4.802085e+002;0.000000e+000
4.821370e+002;0.000000e+000
4.840656e+002;0.000000e+000
4.859941e+002;0.000000e+000
4.879226e+002;0.000000e+000
4.898512e+002;0.000000e+000
4.917798e+002;0.000000e+000
4.937083e+002;0.000000e+000
4.956368e+002;0.000000e+000
4.975654e+002;0.000000e+000
4.994939e+002;0.000000e+000
5.014225e+002;0.000000e+000
5.033510e+002;0.000000e+000
5.052796e+002;0.000000e+000
5.072081e+002;0.000000e+000
5.091367e+002;0.000000e+000
5.110652e+002;0.000000e+000
5.129938e+002;0.000000e+000
5.149223e+002;0.000000e+000
5.168509e+002;0.000000e+000
5.187794e+002;0.000000e+000
5.207079e+002;0.000000e+000
5.226365e+002;0.000000e+000
5.245651e+002;0.000000e+000
5.264936e+002;0.000000e+000
5.284222e+002;0.000000e+000
5.303507e+002;0.000000e+000
5.322792e+002;0.000000e+000
5.342078e+002;0.000000e+000
5.361364e+002;0.000000e+000
5.380649e+002;0.000000e+000
5.399935e+002;0.000000e+000
5.419220e+002;0.000000e+000
5.438505e+002;0.000000e+000
5.457791e+002;0.000000e+000
5.477076e+002;0.000000e+000
5.496362e+002;0.000000e+000
5.515648e+002;0.000000e+000
5.534933e+002;0.000000e+000
5.554218e+002;0.000000e+000
5.573504e+002;0.000000e+000
5.592789e+002;0.000000e+000
5.612075e+002;0.000000e+000
5.631360e+002;0.000000e+000
5.650646e+002;0.000000e+000
5.669931e+002;0.000000e+000
5.689217e+002;0.000000e+000
5.708502e+002;0.000000e+000
5.727787e+002;0.000000e+000
5.747073e+002;0.000000e+000
5.766359e+002;0.000000e+000
5.785644e+002;0.000000e+000
5.804930e+002;0.000000e+000
5.824215e+002;0.000000e+000
5.843500e+002;0.000000e+000
5.862786e+002;0.000000e+000
5.882072e+002;0.000000e+000
5.901357e+002;0.000000e+000
5.920643e+002;0.000000e+000
5.939928e+002;0.000000e+000
5.959213e+002;0.000000e+000
5.978499e+002;0.000000e+000
5.997784e+002;2.281258e-001
6.017070e+002;2.305339e-001
6.036355e+002;2.335224e-001
6.055641e+002;2.343974e-001
6.074926e+002;2.285071e-001
6.094211e+002;2.238106e-001
6.113497e+002;2.217945e-001
6.132783e+002;2.223426e-001
6.152068e+002;2.211482e-001
6.171354e+002;2.235681e-001
6.190639e+002;2.215447e-001
6.209924e+002;2.174904e-001
6.229210e+002;2.124692e-001
6.248495e+002;2.083777e-001
6.267781e+002;2.082530e-001
6.287067e+002;2.074428e-001
6.306352e+002;2.010220e-001
6.325637e+002;1.968669e-001
6.344923e+002;1.931517e-001
6.364208e+002;1.928624e-001
6.383494e+002;1.982840e-001
6.402780e+002;1.998478e-001
6.422065e+002;1.973486e-001
6.441350e+002;1.940382e-001
6.460636e+002;1.881751e-001
6.479921e+002;1.851035e-001
6.499207e+002;1.844178e-001
6.518492e+002;1.865988e-001
6.537778e+002;1.904743e-001
6.557063e+002;1.945411e-001
6.576349e+002;1.979217e-001
6.595634e+002;1.988724e-001
6.614919e+002;1.980023e-001
6.634205e+002;1.988514e-001
6.653491e+002;2.006284e-001
6.672776e+002;1.988271e-001
6.692062e+002;1.961558e-001
6.711347e+002;1.950216e-001
6.730632e+002;1.932241e-001
6.749918e+002;1.886981e-001
6.769203e+002;1.816944e-001
6.788489e+002;1.742267e-001
6.807775e+002;1.693408e-001
6.827060e+002;1.689619e-001
6.846345e+002;1.690763e-001
6.865631e+002;1.664845e-001
6.884916e+002;1.647150e-001
6.904202e+002;1.643898e-001
6.923488e+002;1.635611e-001
6.942773e+002;1.623403e-001
6.962058e+002;1.613450e-001
6.981344e+002;1.619788e-001
7.000629e+002;1.616982e-001
7.019915e+002;1.604997e-001
7.039200e+002;1.603543e-001
7.058486e+002;1.596769e-001
7.077771e+002;1.577977e-001
7.097057e+002;1.565021e-001
7.116342e+002;1.551109e-001
7.135627e+002;1.541951e-001
7.154913e+002;1.525450e-001
7.174199e+002;1.498235e-001
7.193484e+002;1.477166e-001
7.212770e+002;1.464494e-001
7.232055e+002;1.439120e-001
7.251340e+002;1.405210e-001
7.270626e+002;1.371439e-001
7.289911e+002;1.350764e-001
7.309197e+002;1.332719e-001
7.328483e+002;1.308504e-001
7.347768e+002;1.291841e-001
7.367053e+002;1.280513e-001
7.386339e+002;1.263354e-001
7.405624e+002;1.243846e-001
7.424910e+002;1.232394e-001
7.444196e+002;1.221550e-001
7.463481e+002;1.207139e-001
7.482766e+002;1.205863e-001
7.502052e+002;1.193899e-001
7.521337e+002;1.178659e-001
7.540623e+002;1.166475e-001
7.559908e+002;1.154765e-001
7.579194e+002;1.142105e-001
7.598479e+002;1.127986e-001
7.617765e+002;1.118883e-001
7.637050e+002;1.121826e-001
7.656335e+002;1.112778e-001
7.675621e+002;1.092321e-001
7.694907e+002;1.085240e-001
7.714192e+002;1.083064e-001
7.733478e+002;1.076541e-001
7.752763e+002;1.071136e-001
7.772048e+002;1.060846e-001
7.791334e+002;1.052691e-001
7.810620e+002;1.056030e-001
7.829905e+002;1.055787e-001
7.849191e+002;1.047213e-001
7.868476e+002;1.038010e-001
7.887761e+002;1.038491e-001
7.907047e+002;1.042791e-001
7.926332e+002;1.041090e-001
7.945618e+002;1.040194e-001
7.964903e+002;1.036607e-001
7.984189e+002;1.030350e-001
8.003474e+002;1.029891e-001
8.022759e+002;1.031709e-001
8.042045e+002;1.036181e-001
8.061331e+002;1.034362e-001
8.080616e+002;1.029884e-001
8.099902e+002;1.025179e-001
8.119187e+002;1.012680e-001
8.138472e+002;1.010237e-001
8.157758e+002;1.016101e-001
8.177043e+002;1.012130e-001
8.196329e+002;1.007557e-001
8.215615e+002;1.008489e-001
8.234900e+002;9.991358e-002
8.254185e+002;9.883817e-002
8.273471e+002;9.924190e-002
8.292756e+002;9.985223e-002
8.312042e+002;9.993894e-002
8.331328e+002;1.000611e-001
8.350613e+002;1.002069e-001
8.369898e+002;1.000508e-001
8.389184e+002;1.001201e-001
8.408469e+002;1.008461e-001
8.427755e+002;1.009739e-001
8.447040e+002;1.006266e-001
8.466326e+002;1.008828e-001
8.485611e+002;1.013352e-001
8.504897e+002;1.019279e-001
8.524182e+002;1.028394e-001
8.543467e+002;1.035955e-001
8.562753e+002;1.043108e-001
8.582039e+002;1.053691e-001
8.601324e+002;1.069379e-001
8.620610e+002;1.078626e-001
8.639895e+002;1.091068e-001
8.659180e+002;1.109625e-001
8.678466e+002;1.124386e-001
8.697751e+002;1.140606e-001
8.717037e+002;1.159940e-001
8.736323e+002;1.175668e-001
8.755608e+002;1.185812e-001
8.774893e+002;1.196693e-001
8.794179e+002;1.213668e-001
8.813464e+002;1.237277e-001
8.832750e+002;1.260137e-001
8.852036e+002;1.282159e-001
8.871321e+002;1.312972e-001
8.890606e+002;1.342682e-001
8.909892e+002;1.361944e-001
8.929177e+002;1.373228e-001
8.948463e+002;1.386627e-001
8.967748e+002;1.397833e-001
8.987034e+002;1.394763e-001
9.006319e+002;1.384427e-001
9.025605e+002;1.371015e-001
9.044890e+002;1.355622e-001
9.064175e+002;1.342315e-001
9.083461e+002;1.326449e-001
9.102747e+002;1.308378e-001
9.122032e+002;1.296706e-001
9.141318e+002;1.289943e-001
9.160603e+002;1.280785e-001
9.179888e+002;1.275384e-001
9.199174e+002;1.279469e-001
9.218459e+002;1.288273e-001
9.237745e+002;1.297095e-001
9.257031e+002;1.308513e-001
9.276316e+002;1.319737e-001
9.295601e+002;1.332497e-001
9.314887e+002;1.346848e-001
9.334172e+002;1.360046e-001
9.353458e+002;1.377472e-001
9.372744e+002;1.398792e-001
9.392029e+002;1.416063e-001
9.411314e+002;1.435518e-001
9.430600e+002;1.456544e-001
9.449885e+002;1.476207e-001
9.469171e+002;1.497596e-001
9.488456e+002;1.525104e-001
9.507742e+002;1.556118e-001
9.527027e+002;1.588464e-001
9.546313e+002;1.624225e-001
9.565598e+002;1.666647e-001
9.584883e+002;1.713800e-001
9.604169e+002;1.760549e-001
9.623455e+002;1.809673e-001
9.642740e+002;1.861980e-001
9.662026e+002;1.915128e-001
9.681311e+002;1.973124e-001
9.700596e+002;2.041007e-001
9.719882e+002;2.120877e-001
9.739167e+002;2.209917e-001
9.758453e+002;2.308253e-001
9.777739e+002;2.422577e-001
9.797024e+002;2.549102e-001
9.816309e+002;2.670790e-001
9.835595e+002;2.767983e-001
9.854880e+002;2.826889e-001
9.874166e+002;2.860807e-001
9.893452e+002;2.889034e-001
9.912737e+002;2.923103e-001
9.932022e+002;2.971754e-001
9.951307e+002;3.020091e-001
9.970593e+002;3.068112e-001
9.989879e+002;3.122795e-001
1.000916e+003;3.171426e-001
1.002845e+003;3.201560e-001
1.004773e+003;3.219682e-001
1.006702e+003;3.235757e-001
1.008631e+003;3.254093e-001
1.010559e+003;3.288518e-001
1.012488e+003;3.329019e-001
1.014416e+003;3.364826e-001
1.016345e+003;3.403660e-001
1.018273e+003;3.447080e-001
1.020202e+003;3.485484e-001
1.022130e+003;3.530124e-001
1.024059e+003;3.576918e-001
1.025988e+003;3.616514e-001
1.027916e+003;3.644711e-001
1.029845e+003;3.658059e-001
1.031773e+003;3.650756e-001
1.033702e+003;3.624166e-001
1.035630e+003;3.573330e-001
1.037559e+003;3.506905e-001
1.039487e+003;3.445583e-001
1.041416e+003;3.402488e-001
1.043344e+003;3.382357e-001
1.045273e+003;3.384949e-001
1.047202e+003;3.409402e-001
1.049130e+003;3.443264e-001
1.051059e+003;3.464945e-001
1.052987e+003;3.466771e-001
1.054916e+003;3.456746e-001
1.056844e+003;3.426739e-001
1.058773e+003;3.358729e-001
1.060701e+003;3.257153e-001
1.062630e+003;3.141213e-001
1.064558e+003;3.016833e-001
1.066487e+003;2.894607e-001
1.068416e+003;2.789494e-001
1.070344e+003;2.704495e-001
1.072273e+003;2.640600e-001
1.074201e+003;2.587076e-001
1.076130e+003;2.532264e-001
1.078058e+003;2.484497e-001
1.079987e+003;2.445827e-001
1.081915e+003;2.409040e-001
1.083844e+003;2.384199e-001
1.085773e+003;2.373057e-001
1.087701e+003;2.369273e-001
1.089630e+003;2.365883e-001
1.091558e+003;2.362997e-001
1.093487e+003;2.365760e-001
1.095415e+003;2.373332e-001
1.097344e+003;2.382685e-001
1.099272e+003;2.395340e-001
1.101201e+003;2.401467e-001
1.103129e+003;2.396466e-001
1.105058e+003;2.380915e-001
1.106987e+003;2.355603e-001
1.108915e+003;2.318133e-001
1.110844e+003;2.264622e-001
1.112772e+003;2.190849e-001
1.114701e+003;2.109339e-001
1.116629e+003;2.020192e-001
1.118558e+003;1.935395e-001
1.120486e+003;1.868697e-001
1.122415e+003;1.815006e-001
1.124344e+003;1.759624e-001
1.126272e+003;1.700262e-001
1.128201e+003;1.639467e-001
1.130129e+003;1.586515e-001
1.132058e+003;1.547077e-001
1.133986e+003;1.512719e-001
1.135915e+003;1.485334e-001
1.137843e+003;1.468211e-001
1.139772e+003;1.468436e-001
1.141700e+003;1.479852e-001
1.143629e+003;1.496489e-001
1.145557e+003;1.515133e-001
1.147486e+003;1.535718e-001
1.149415e+003;1.555813e-001
1.151343e+003;1.571260e-001
1.153272e+003;1.586968e-001
1.155200e+003;1.604962e-001
1.157129e+003;1.617252e-001
1.159057e+003;1.620435e-001
1.160986e+003;1.614387e-001
1.162914e+003;1.591045e-001
1.164843e+003;1.552908e-001
1.166771e+003;1.500939e-001
1.168700e+003;1.433203e-001
1.170629e+003;1.364330e-001
1.172557e+003;1.304928e-001
1.174486e+003;1.248019e-001
1.176414e+003;1.198922e-001
1.178343e+003;1.158989e-001
1.180271e+003;1.125650e-001
1.182200e+003;1.100994e-001
1.184128e+003;1.085495e-001
1.186057e+003;1.080431e-001
1.187986e+003;1.082022e-001
1.189914e+003;1.092582e-001
1.191843e+003;1.109208e-001
1.193771e+003;1.128947e-001
1.195700e+003;1.147376e-001
1.197628e+003;1.162737e-001
1.199557e+003;1.173134e-001
1.201485e+003;1.175963e-001
1.203414e+003;1.172276e-001
1.205343e+003;1.161688e-001
1.207271e+003;1.137073e-001
1.209200e+003;1.103174e-001
1.211128e+003;1.072224e-001
1.213057e+003;1.053188e-001
1.214985e+003;1.045474e-001
1.216914e+003;1.049231e-001
1.218842e+003;1.058706e-001
1.220771e+003;1.069482e-001
1.222699e+003;1.082734e-001
1.224628e+003;1.100106e-001
1.226557e+003;1.116938e-001
1.228485e+003;1.130320e-001
1.230414e+003;1.143811e-001
1.232342e+003;1.155065e-001
1.234271e+003;1.161034e-001
1.236199e+003;1.165884e-001
1.238128e+003;1.170367e-001
1.240056e+003;1.172939e-001
1.241985e+003;1.178912e-001
1.243913e+003;1.190399e-001
1.245842e+003;1.201374e-001
1.247771e+003;1.203583e-001
1.249699e+003;1.203152e-001
1.251628e+003;1.204879e-001
1.253556e+003;1.203132e-001
1.255485e+003;1.205586e-001
1.257413e+003;1.211048e-001
1.259342e+003;1.210413e-001
1.261270e+003;1.206576e-001
1.263199e+003;1.201584e-001
1.265127e+003;1.196160e-001
1.267056e+003;1.197604e-001
1.268985e+003;1.200628e-001
1.270913e+003;1.200520e-001
1.272842e+003;1.200757e-001
1.274770e+003;1.203168e-001
1.276699e+003;1.205447e-001
1.278627e+003;1.205214e-001
1.280556e+003;1.199587e-001
1.282484e+003;1.191934e-001
1.284413e+003;1.182949e-001
1.286342e+003;1.174450e-001
1.288270e+003;1.174126e-001
1.290199e+003;1.178930e-001
1.292127e+003;1.185447e-001
1.294056e+003;1.197821e-001
1.295984e+003;1.210228e-001
1.297913e+003;1.222513e-001
1.299841e+003;1.241686e-001
1.301770e+003;1.265279e-001
1.303698e+003;1.293441e-001
1.305627e+003;1.323953e-001
1.307556e+003;1.356980e-001
1.309484e+003;1.389863e-001
1.311413e+003;1.416289e-001
1.313341e+003;1.431457e-001
1.315270e+003;1.432822e-001
1.317198e+003;1.421497e-001
1.319127e+003;1.398566e-001
1.321055e+003;1.370243e-001
1.322984e+003;1.347738e-001
1.324912e+003;1.332940e-001
1.326841e+003;1.323162e-001
1.328770e+003;1.320717e-001
1.330698e+003;1.326644e-001
1.332627e+003;1.335250e-001
1.334555e+003;1.335498e-001
1.336484e+003;1.329255e-001
1.338412e+003;1.318280e-001
1.340341e+003;1.301223e-001
1.342269e+003;1.282150e-001
1.344198e+003;1.263775e-001
1.346126e+003;1.247561e-001
1.348055e+003;1.234458e-001
1.349984e+003;1.229521e-001
1.351912e+003;1.234328e-001
1.353841e+003;1.243888e-001
1.355769e+003;1.253635e-001
1.357698e+003;1.262421e-001
1.359626e+003;1.271828e-001
1.361555e+003;1.274717e-001
1.363483e+003;1.269121e-001
1.365412e+003;1.263330e-001
1.367341e+003;1.259070e-001
1.369269e+003;1.254030e-001
1.371198e+003;1.244277e-001
1.373126e+003;1.226916e-001
1.375055e+003;1.204288e-001
1.376983e+003;1.178650e-001
1.378912e+003;1.152171e-001
1.380840e+003;1.127134e-001
1.382769e+003;1.104212e-001
1.384698e+003;1.084698e-001
1.386626e+003;1.068624e-001
1.388555e+003;1.057025e-001
1.390483e+003;1.049296e-001
1.392412e+003;1.042026e-001
1.394340e+003;1.036268e-001
1.396269e+003;1.033344e-001
1.398197e+003;1.033210e-001
1.400126e+003;1.035299e-001
1.402054e+003;1.038105e-001
1.403983e+003;1.042532e-001
1.405911e+003;1.047080e-001
1.407840e+003;1.052139e-001
1.409769e+003;1.057921e-001
1.411697e+003;1.067170e-001
1.413626e+003;1.078393e-001
1.415554e+003;1.088161e-001
1.417483e+003;1.098552e-001
1.419411e+003;1.109371e-001
1.421340e+003;1.119367e-001
1.423268e+003;1.130164e-001
1.425197e+003;1.138056e-001
1.427125e+003;1.140253e-001
1.429054e+003;1.137048e-001
1.430983e+003;1.130196e-001
1.432911e+003;1.120489e-001
1.434840e+003;1.106421e-001
1.436768e+003;1.089495e-001
1.438697e+003;1.077413e-001
1.440625e+003;1.068895e-001
1.442554e+003;1.063186e-001
1.444482e+003;1.059358e-001
1.446411e+003;1.053483e-001
1.448340e+003;1.048950e-001
1.450268e+003;1.047287e-001
1.452197e+003;1.042661e-001
1.454125e+003;1.034898e-001
1.456054e+003;1.026574e-001
1.457982e+003;1.017464e-001
1.459911e+003;1.010403e-001
1.461839e+003;1.001711e-001
1.463768e+003;9.897319e-002
1.465697e+003;9.736469e-002
1.467625e+003;9.544279e-002
1.469554e+003;9.299729e-002
1.471482e+003;9.061418e-002
1.473411e+003;8.840553e-002
1.475339e+003;8.592810e-002
1.477268e+003;8.372557e-002
1.479196e+003;8.198057e-002
1.481125e+003;8.035465e-002
1.483053e+003;7.867112e-002
1.484982e+003;7.697428e-002
1.486911e+003;7.558106e-002
1.488839e+003;7.427517e-002
1.490768e+003;7.319097e-002
1.492696e+003;7.269768e-002
1.494625e+003;7.231209e-002
1.496553e+003;7.182937e-002
1.498482e+003;7.150006e-002
1.500410e+003;7.134133e-002
1.502339e+003;7.144771e-002
1.504267e+003;7.143229e-002
1.506196e+003;7.124391e-002
1.508125e+003;7.131033e-002
1.510053e+003;7.135086e-002
1.511982e+003;7.094102e-002
1.513910e+003;7.078554e-002
1.515839e+003;7.073984e-002
1.517767e+003;7.045998e-002
1.519696e+003;7.003509e-002
1.521624e+003;6.963190e-002
1.523553e+003;6.963579e-002
1.525481e+003;6.968341e-002
1.527410e+003;6.957041e-002
1.529339e+003;6.938685e-002
1.531267e+003;6.929135e-002
1.533196e+003;6.932606e-002
1.535124e+003;6.933383e-002
1.537053e+003;6.940069e-002
1.538981e+003;6.951594e-002
1.540910e+003;6.951220e-002
1.542838e+003;6.965532e-002
1.544767e+003;7.000274e-002
1.546695e+003;6.999671e-002
1.548624e+003;6.993170e-002
1.550553e+003;6.988652e-002
1.552481e+003;6.993999e-002
1.554410e+003;7.022742e-002
1.556338e+003;7.028589e-002
1.558267e+003;7.021995e-002
1.560195e+003;7.058735e-002
1.562124e+003;7.087209e-002
1.564052e+003;7.113945e-002
1.565981e+003;7.134160e-002
1.567910e+003;7.124376e-002
1.569838e+003;7.142229e-002
1.571767e+003;7.166724e-002
1.573695e+003;7.163496e-002
1.575624e+003;7.200442e-002
1.577552e+003;7.256126e-002
1.579481e+003;7.295550e-002
1.581409e+003;7.331833e-002
1.583338e+003;7.374938e-002
1.585266e+003;7.414843e-002
1.587195e+003;7.458814e-002
1.589124e+003;7.511538e-002
1.591052e+003;7.544102e-002
1.592981e+003;7.538288e-002
1.594909e+003;7.547827e-002
1.596838e+003;7.596645e-002
1.598766e+003;7.655425e-002
1.600695e+003;7.704984e-002
1.602623e+003;7.744723e-002
1.604552e+003;7.766320e-002
1.606480e+003;7.764224e-002
1.608409e+003;7.778236e-002
1.610338e+003;7.817863e-002
1.612266e+003;7.837587e-002
1.614195e+003;7.850185e-002
1.616123e+003;7.843969e-002
1.618052e+003;7.834361e-002
1.619980e+003;7.840873e-002
1.621909e+003;7.882758e-002
1.623837e+003;7.936501e-002
1.625766e+003;7.965779e-002
1.627694e+003;7.977439e-002
1.629623e+003;7.967717e-002
1.631552e+003;7.958097e-002
1.633480e+003;7.970273e-002
1.635409e+003;7.964537e-002
1.637337e+003;7.951622e-002
1.639266e+003;7.969752e-002
1.641194e+003;7.977901e-002
1.643123e+003;7.956199e-002
1.645051e+003;7.946311e-002
1.646980e+003;7.927714e-002
1.648909e+003;7.903649e-002
1.650837e+003;7.884058e-002
1.652766e+003;7.857642e-002
1.654694e+003;7.851083e-002
1.656623e+003;7.832618e-002
1.658551e+003;7.772453e-002
1.660480e+003;7.716496e-002
1.662408e+003;7.684035e-002
1.664337e+003;7.650398e-002
1.666266e+003;7.606951e-002
1.668194e+003;7.560204e-002
1.670123e+003;7.521237e-002
1.672051e+003;7.487737e-002
1.673980e+003;7.448594e-002
1.675908e+003;7.402615e-002
1.677837e+003;7.364761e-002
1.679765e+003;7.316164e-002
1.681694e+003;7.273313e-002
1.683622e+003;7.248260e-002
1.685551e+003;7.213824e-002
1.687479e+003;7.185204e-002
1.689408e+003;7.172313e-002
1.691337e+003;7.144486e-002
1.693265e+003;7.134422e-002
1.695194e+003;7.146966e-002
1.697122e+003;7.147876e-002
1.699051e+003;7.133934e-002
1.700979e+003;7.116123e-002
1.702908e+003;7.141834e-002
1.704836e+003;7.208547e-002
1.706765e+003;7.259216e-002
1.708693e+003;7.264879e-002
1.710622e+003;7.287211e-002
1.712551e+003;7.322694e-002
1.714479e+003;7.355486e-002
1.716408e+003;7.399879e-002
1.718336e+003;7.441577e-002
1.720265e+003;7.507603e-002
1.722193e+003;7.616877e-002
1.724122e+003;7.729859e-002
1.726050e+003;7.825559e-002
1.727979e+003;7.896157e-002
1.729908e+003;7.939727e-002
1.731836e+003;7.960974e-002
1.733765e+003;7.898752e-002
1.735693e+003;7.769477e-002
1.737622e+003;7.601508e-002
1.739550e+003;7.381005e-002
1.741479e+003;7.135808e-002
1.743407e+003;6.883379e-002
1.745336e+003;6.667387e-002
1.747265e+003;6.493898e-002
1.749193e+003;6.349519e-002
1.751122e+003;6.243980e-002
1.753050e+003;6.173456e-002
1.754979e+003;6.137034e-002
1.756907e+003;6.100290e-002
1.758836e+003;6.070444e-002
1.760764e+003;6.053373e-002
1.762693e+003;6.027434e-002
1.764621e+003;6.003306e-002
1.766550e+003;6.000822e-002
1.768479e+003;5.995268e-002
1.770407e+003;5.970572e-002
1.772336e+003;5.926871e-002
1.774264e+003;5.897329e-002
1.776193e+003;5.888779e-002
1.778121e+003;5.863632e-002
1.780050e+003;5.829670e-002
1.781978e+003;5.809890e-002
1.783907e+003;5.797388e-002
1.785835e+003;5.781276e-002
1.787764e+003;5.780473e-002
1.789693e+003;5.802527e-002
1.791621e+003;5.791421e-002
1.793550e+003;5.760213e-002
1.795478e+003;5.751406e-002
1.797407e+003;5.739617e-002
1.799335e+003;5.718037e-002
1.801264e+003;5.714651e-002
1.803192e+003;5.697375e-002
1.805121e+003;5.682765e-002
1.807049e+003;5.678894e-002
1.808978e+003;5.660515e-002
1.810907e+003;5.653732e-002
1.812835e+003;5.661141e-002
1.814764e+003;5.661545e-002
1.816692e+003;5.660100e-002
1.818621e+003;5.635481e-002
1.820549e+003;5.631078e-002
1.822478e+003;5.654480e-002
1.824406e+003;5.666875e-002
1.826335e+003;5.646724e-002
1.828264e+003;5.611004e-002
1.830192e+003;5.579955e-002
1.832121e+003;5.559912e-002
1.834049e+003;5.553521e-002
1.835978e+003;5.549289e-002
1.837906e+003;5.554877e-002
1.839835e+003;5.557581e-002
1.841763e+003;5.546831e-002
1.843692e+003;5.511486e-002
1.845620e+003;5.488737e-002
1.847549e+003;5.495994e-002
1.849478e+003;5.506502e-002
1.851406e+003;5.504068e-002
1.853335e+003;5.490226e-002
1.855263e+003;5.470187e-002
1.857192e+003;5.454108e-002
1.859120e+003;5.454819e-002
1.861049e+003;5.444849e-002
1.862977e+003;5.446276e-002
1.864906e+003;5.458711e-002
1.866834e+003;5.456907e-002
1.868763e+003;5.455187e-002
1.870692e+003;5.429396e-002
1.872620e+003;5.388302e-002
1.874549e+003;5.392425e-002
1.876477e+003;5.433793e-002
1.878406e+003;5.432952e-002
1.880334e+003;5.411223e-002
1.882263e+003;5.424016e-002
1.884191e+003;5.418652e-002
1.886120e+003;5.401511e-002
1.888048e+003;5.407129e-002
1.889977e+003;5.400435e-002
1.891906e+003;5.393715e-002
1.893834e+003;5.397910e-002
1.895763e+003;5.386036e-002
1.897691e+003;5.371501e-002
1.899620e+003;5.367391e-002
1.901548e+003;5.373581e-002
1.903477e+003;5.378524e-002
1.905405e+003;5.391637e-002
1.907334e+003;5.402675e-002
1.909262e+003;5.408615e-002
1.911191e+003;5.410814e-002
1.913120e+003;5.423002e-002
1.915048e+003;5.436301e-002
1.916977e+003;5.421444e-002
1.918905e+003;5.412451e-002
1.920834e+003;5.430410e-002
1.922762e+003;5.436816e-002
1.924691e+003;5.434405e-002
1.926619e+003;5.434037e-002
1.928548e+003;5.430770e-002
1.930477e+003;5.426974e-002
1.932405e+003;5.424384e-002
1.934334e+003;5.438806e-002
1.936262e+003;5.441285e-002
1.938191e+003;5.429659e-002
1.940119e+003;5.447456e-002
1.942048e+003;5.469540e-002
1.943976e+003;5.487338e-002
1.945905e+003;5.489301e-002
1.947833e+003;5.485756e-002
1.949762e+003;5.495475e-002
1.951691e+003;5.499093e-002
1.953619e+003;5.496577e-002
1.955548e+003;5.495671e-002
1.957476e+003;5.504753e-002
1.959405e+003;5.502933e-002
1.961333e+003;5.488734e-002
1.963262e+003;5.503888e-002
1.965190e+003;5.511802e-002
1.967119e+003;5.506592e-002
1.969047e+003;5.519608e-002
1.970976e+003;5.517197e-002
1.972905e+003;5.507834e-002
1.974833e+003;5.517257e-002
1.976762e+003;5.548001e-002
1.978690e+003;5.575140e-002
1.980619e+003;5.578320e-002
1.982547e+003;5.567459e-002
1.984476e+003;5.567060e-002
1.986404e+003;5.567874e-002
1.988333e+003;5.568254e-002
1.990261e+003;5.566883e-002
1.992190e+003;5.562725e-002
1.994119e+003;5.591395e-002
1.996047e+003;5.633025e-002
1.997976e+003;5.624459e-002
1.999904e+003;5.587167e-002
2.001833e+003;5.571256e-002
2.003761e+003;5.582438e-002
2.005690e+003;5.601918e-002
2.007618e+003;5.620929e-002
2.009547e+003;5.652404e-002
2.011476e+003;5.684574e-002
2.013404e+003;5.704040e-002
2.015333e+003;5.705011e-002
2.017261e+003;5.693601e-002
2.019190e+003;5.685348e-002
2.021118e+003;5.702615e-002
2.023047e+003;5.733665e-002
2.024975e+003;5.742555e-002
2.026904e+003;5.745195e-002
2.028833e+003;5.758272e-002
2.030761e+003;5.773286e-002
2.032690e+003;5.754530e-002
2.034618e+003;5.752087e-002
2.036547e+003;5.763368e-002
2.038475e+003;5.748316e-002
2.040404e+003;5.744980e-002
2.042332e+003;5.771818e-002
2.044261e+003;5.787033e-002
2.046189e+003;5.795079e-002
2.048118e+003;5.790645e-002
2.050047e+003;5.766527e-002
2.051975e+003;5.768238e-002
2.053904e+003;5.772540e-002
2.055832e+003;5.753418e-002
2.057761e+003;5.741289e-002
2.059689e+003;5.763247e-002
2.061618e+003;5.770959e-002
2.063546e+003;5.762112e-002
2.065475e+003;5.766792e-002
2.067404e+003;5.761049e-002
2.069332e+003;5.747268e-002
2.071260e+003;5.742503e-002
2.073189e+003;5.745018e-002
2.075118e+003;5.748501e-002
2.077046e+003;5.736297e-002
2.078975e+003;5.730644e-002
2.080903e+003;5.753040e-002
2.082832e+003;5.772052e-002
2.084760e+003;5.765241e-002
2.086689e+003;5.749469e-002
2.088617e+003;5.741508e-002
2.090546e+003;5.760485e-002
2.092475e+003;5.785863e-002
2.094403e+003;5.766312e-002
2.096332e+003;5.739072e-002
2.098260e+003;5.751591e-002
2.100189e+003;5.770092e-002
2.102117e+003;5.779118e-002
2.104046e+003;5.797642e-002
2.105974e+003;5.803209e-002
2.107903e+003;5.788707e-002
2.109832e+003;5.772677e-002
2.111760e+003;5.766769e-002
2.113688e+003;5.765619e-002
2.115617e+003;5.763103e-002
2.117546e+003;5.787900e-002
2.119474e+003;5.805356e-002
2.121403e+003;5.778055e-002
2.123331e+003;5.760095e-002
2.125260e+003;5.772363e-002
2.127188e+003;5.794143e-002
2.129117e+003;5.814534e-002
2.131045e+003;5.838352e-002
2.132974e+003;5.842472e-002
2.134903e+003;5.819663e-002
2.136831e+003;5.822433e-002
2.138760e+003;5.825066e-002
2.140688e+003;5.816359e-002
2.142617e+003;5.817901e-002
2.144545e+003;5.794552e-002
2.146474e+003;5.774384e-002
2.148402e+003;5.780023e-002
2.150331e+003;5.790459e-002
2.152260e+003;5.788745e-002
2.154188e+003;5.783467e-002
2.156117e+003;5.779009e-002
2.158045e+003;5.784338e-002
2.159974e+003;5.797816e-002
2.161902e+003;5.791535e-002
2.163831e+003;5.768756e-002
2.165759e+003;5.745702e-002
2.167688e+003;5.731336e-002
2.169616e+003;5.705366e-002
2.171545e+003;5.688215e-002
2.173474e+003;5.686167e-002
2.175402e+003;5.673011e-002
2.177331e+003;5.669801e-002
2.179259e+003;5.689729e-002
2.181188e+003;5.701176e-002
2.183116e+003;5.651418e-002
2.185045e+003;5.610099e-002
2.186973e+003;5.599140e-002
2.188902e+003;5.615322e-002
2.190831e+003;5.642476e-002
2.192759e+003;5.610880e-002
2.194688e+003;5.591979e-002
2.196616e+003;5.611373e-002
2.198545e+003;5.633742e-002
2.200473e+003;5.625986e-002
2.202402e+003;5.585694e-002
2.204330e+003;5.580674e-002
2.206259e+003;5.585520e-002
2.208188e+003;5.567459e-002
2.210116e+003;5.563264e-002
2.212044e+003;5.591693e-002
2.213973e+003;5.600667e-002
2.215902e+003;5.593140e-002
2.217830e+003;5.572164e-002
2.219759e+003;5.539332e-002
2.221687e+003;5.576097e-002
2.223616e+003;5.630215e-002
2.225544e+003;5.627355e-002
2.227473e+003;5.610710e-002
2.229401e+003;5.620397e-002
2.231330e+003;5.624036e-002
2.233259e+003;5.582434e-002
2.235187e+003;5.562356e-002
2.237116e+003;5.595563e-002
2.239044e+003;5.615355e-002
2.240973e+003;5.623195e-002
2.242901e+003;5.609349e-002
2.244830e+003;5.603826e-002
2.246758e+003;5.625390e-002
2.248687e+003;5.624335e-002
2.250615e+003;5.594188e-002
2.252544e+003;5.582050e-002
2.254473e+003;5.580591e-002
2.256401e+003;5.556048e-002
2.258330e+003;5.536001e-002
2.260258e+003;5.538711e-002
2.262187e+003;5.544982e-002
2.264115e+003;5.522950e-002
2.266044e+003;5.523450e-002
2.267972e+003;5.526385e-002
2.269901e+003;5.506103e-002
2.271830e+003;5.490215e-002
2.273758e+003;5.495517e-002
2.275687e+003;5.488655e-002
2.277615e+003;5.459383e-002
2.279544e+003;5.444594e-002
2.281472e+003;5.444286e-002
2.283401e+003;5.432321e-002
2.285329e+003;5.438709e-002
2.287258e+003;5.473107e-002
2.289187e+003;5.483241e-002
2.291115e+003;5.469804e-002
2.293043e+003;5.464501e-002
2.294972e+003;5.439369e-002
2.296901e+003;5.422822e-002
2.298829e+003;5.435813e-002
2.300758e+003;5.445690e-002
2.302686e+003;5.427428e-002
2.304615e+003;5.426614e-002
2.306543e+003;5.436343e-002
2.308472e+003;5.417619e-002
2.310400e+003;5.416756e-002
2.312329e+003;5.439317e-002
2.314258e+003;5.445119e-002
2.316186e+003;5.436707e-002
2.318115e+003;5.424114e-002
2.320043e+003;5.431589e-002
2.321972e+003;5.448977e-002
2.323900e+003;5.486384e-002
2.325829e+003;5.513115e-002
2.327757e+003;5.488263e-002
2.329686e+003;5.488553e-002
2.331615e+003;5.495486e-002
2.333543e+003;5.489425e-002
2.335472e+003;5.486651e-002
2.337400e+003;5.502512e-002
2.339329e+003;5.531804e-002
2.341257e+003;5.520590e-002
2.343186e+003;5.517637e-002
2.345114e+003;5.547437e-002
2.347043e+003;5.558620e-002
2.348971e+003;5.554941e-002
2.350900e+003;5.555397e-002
2.352829e+003;5.554670e-002
2.354757e+003;5.568774e-002
2.356686e+003;5.589477e-002
2.358614e+003;5.583105e-002
2.360543e+003;5.563915e-002
2.362471e+003;5.587246e-002
2.364400e+003;5.626816e-002
2.366328e+003;5.648724e-002
2.368257e+003;5.652268e-002
2.370186e+003;5.657291e-002
2.372114e+003;5.683573e-002
2.374042e+003;5.687474e-002
2.375971e+003;5.666800e-002
2.377900e+003;5.668627e-002
2.379828e+003;5.677073e-002
2.381757e+003;5.686039e-002
2.383685e+003;5.679596e-002
2.385614e+003;5.689174e-002
2.387542e+003;5.683595e-002
2.389471e+003;5.661836e-002
2.391399e+003;5.670239e-002
2.393328e+003;5.687108e-002
2.395257e+003;5.711423e-002
2.397185e+003;5.730852e-002
2.399114e+003;5.709863e-002
2.401042e+003;5.705362e-002
2.402971e+003;5.742325e-002
2.404899e+003;5.789112e-002
2.406828e+003;5.802470e-002
2.408756e+003;5.789464e-002
2.410685e+003;5.779417e-002
2.412614e+003;5.780534e-002
2.414542e+003;5.828408e-002
2.416471e+003;5.864679e-002
2.418399e+003;5.862059e-002
2.420328e+003;5.865297e-002
2.422256e+003;5.864979e-002
2.424185e+003;5.861042e-002
2.426113e+003;5.840577e-002
2.428042e+003;5.844891e-002
2.429970e+003;5.882515e-002
2.431899e+003;5.904119e-002
2.433828e+003;5.896346e-002
2.435756e+003;5.901231e-002
2.437685e+003;5.950325e-002
2.439613e+003;5.977591e-002
2.441542e+003;5.969736e-002
2.443470e+003;5.961411e-002
2.445399e+003;5.960697e-002
2.447327e+003;5.941985e-002
2.449256e+003;5.936716e-002
2.451185e+003;5.945937e-002
2.453113e+003;5.982865e-002
2.455042e+003;6.024845e-002
2.456970e+003;6.018386e-002
2.458899e+003;6.004158e-002
2.460827e+003;5.984120e-002
2.462756e+003;5.981507e-002
2.464684e+003;6.002294e-002
2.466613e+003;6.050931e-002
2.468542e+003;6.078412e-002
2.470470e+003;6.081050e-002
2.472398e+003;6.077284e-002
2.474327e+003;6.073904e-002
2.476256e+003;6.063300e-002
2.478184e+003;6.078138e-002
2.480113e+003;6.087011e-002
2.482041e+003;6.056740e-002
2.483970e+003;6.051601e-002
2.485898e+003;6.075726e-002
2.487827e+003;6.101591e-002
2.489755e+003;6.119741e-002
2.491684e+003;6.132775e-002
2.493613e+003;6.130955e-002
2.495541e+003;6.125556e-002
2.497470e+003;6.145411e-002
2.499398e+003;6.156295e-002
2.501327e+003;6.160782e-002
2.503255e+003;6.137904e-002
2.505184e+003;6.131642e-002
2.507112e+003;6.170859e-002
2.509041e+003;6.178445e-002
2.510969e+003;6.160758e-002
2.512898e+003;6.168621e-002
2.514827e+003;6.201249e-002
2.516755e+003;6.205751e-002
2.518684e+003;6.199552e-002
2.520612e+003;6.187786e-002
2.522541e+003;6.197373e-002
2.524469e+003;6.226848e-002
2.526398e+003;6.229181e-002
2.528326e+003;6.213523e-002
2.530255e+003;6.225930e-002
2.532184e+003;6.241195e-002
2.534112e+003;6.224255e-002
2.536041e+003;6.209711e-002
2.537969e+003;6.221319e-002
2.539898e+003;6.208752e-002
2.541826e+003;6.199965e-002
2.543755e+003;6.221208e-002
2.545683e+003;6.244328e-002
2.547612e+003;6.238992e-002
2.549541e+003;6.246639e-002
2.551469e+003;6.237370e-002
2.553397e+003;6.223188e-002
2.555326e+003;6.232172e-002
2.557255e+003;6.246540e-002
2.559183e+003;6.267243e-002
2.561112e+003;6.265368e-002
2.563040e+003;6.264912e-002
2.564969e+003;6.284701e-002
2.566897e+003;6.273694e-002
2.568826e+003;6.229338e-002
2.570754e+003;6.188710e-002
2.572683e+003;6.216604e-002
2.574612e+003;6.290445e-002
2.576540e+003;6.301963e-002
2.578469e+003;6.284218e-002
2.580397e+003;6.307039e-002
2.582326e+003;6.321191e-002
2.584254e+003;6.285965e-002
2.586183e+003;6.289703e-002
2.588111e+003;6.306016e-002
2.590040e+003;6.319715e-002
2.591969e+003;6.338069e-002
2.593897e+003;6.341435e-002
2.595826e+003;6.368820e-002
2.597754e+003;6.385441e-002
2.599683e+003;6.347007e-002
2.601611e+003;6.321547e-002
2.603540e+003;6.335825e-002
2.605468e+003;6.357834e-002
2.607397e+003;6.372412e-002
2.609325e+003;6.388043e-002
2.611254e+003;6.399722e-002
2.613183e+003;6.381902e-002
2.615111e+003;6.362356e-002
2.617040e+003;6.368015e-002
2.618968e+003;6.417099e-002
2.620897e+003;6.444051e-002
2.622825e+003;6.438452e-002
2.624754e+003;6.449013e-002
2.626682e+003;6.457486e-002
2.628611e+003;6.462150e-002
2.630540e+003;6.487731e-002
2.632468e+003;6.504931e-002
2.634396e+003;6.485873e-002
2.636325e+003;6.438025e-002
2.638254e+003;6.433199e-002
2.640182e+003;6.496222e-002
2.642111e+003;6.530502e-002
2.644039e+003;6.536206e-002
2.645968e+003;6.567866e-002
2.647896e+003;6.561788e-002
2.649825e+003;6.539214e-002
2.651753e+003;6.544996e-002
2.653682e+003;6.585064e-002
2.655611e+003;6.607596e-002
2.657539e+003;6.581983e-002
2.659468e+003;6.571852e-002
2.661396e+003;6.597065e-002
2.663325e+003;6.627414e-002
2.665253e+003;6.610655e-002
2.667182e+003;6.591577e-002
2.669110e+003;6.629186e-002
2.671039e+003;6.635135e-002
2.672968e+003;6.629564e-002
2.674896e+003;6.646995e-002
2.676825e+003;6.652331e-002
2.678753e+003;6.643315e-002
2.680682e+003;6.675582e-002
2.682610e+003;6.697404e-002
2.684539e+003;6.701448e-002
2.686467e+003;6.698513e-002
2.688396e+003;6.715222e-002
2.690324e+003;6.726880e-002
2.692253e+003;6.733271e-002
2.694182e+003;6.734122e-002
2.696110e+003;6.732593e-002
2.698039e+003;6.732540e-002
2.699967e+003;6.756283e-002
2.701896e+003;6.762043e-002
2.703824e+003;6.752253e-002
2.705753e+003;6.764877e-002
2.707681e+003;6.785670e-002
2.709610e+003;6.796580e-002
2.711539e+003;6.809764e-002
2.713467e+003;6.825960e-002
2.715396e+003;6.835112e-002
2.717324e+003;6.829888e-002
2.719253e+003;6.831304e-002
2.721181e+003;6.812047e-002
2.723110e+003;6.815772e-002
2.725038e+003;6.859093e-002
2.726967e+003;6.856979e-002
2.728896e+003;6.853444e-002
2.730824e+003;6.876512e-002
2.732752e+003;6.881050e-002
2.734681e+003;6.890842e-002
2.736610e+003;6.891630e-002
2.738538e+003;6.890151e-002
2.740467e+003;6.890787e-002
2.742395e+003;6.905694e-002
2.744324e+003;6.949917e-002
2.746252e+003;6.964669e-002
2.748181e+003;6.968788e-002
2.750109e+003;6.956493e-002
2.752038e+003;6.941259e-002
2.753967e+003;6.952814e-002
2.755895e+003;6.967641e-002
2.757824e+003;6.962362e-002
2.759752e+003;6.957508e-002
2.761681e+003;6.982787e-002
2.763609e+003;7.013731e-002
2.765538e+003;7.067285e-002
2.767466e+003;7.104785e-002
2.769395e+003;7.079252e-002
2.771323e+003;7.038430e-002
2.773252e+003;7.082571e-002
2.775181e+003;7.106171e-002
2.777109e+003;7.109078e-002
2.779038e+003;7.104512e-002
2.780966e+003;7.096221e-002
2.782895e+003;7.121471e-002
2.784823e+003;7.152416e-002
2.786752e+003;7.219532e-002
2.788680e+003;7.258806e-002
2.790609e+003;7.269330e-002
2.792538e+003;7.286654e-002
2.794466e+003;7.300564e-002
2.796395e+003;7.307036e-002
2.798323e+003;7.320815e-002
2.800252e+003;7.318305e-002
2.802180e+003;7.351267e-002
2.804109e+003;7.408221e-002
2.806037e+003;7.445215e-002
2.807966e+003;7.494855e-002
2.809895e+003;7.545698e-002
2.811823e+003;7.586404e-002
2.813751e+003;7.631181e-002
2.815680e+003;7.652093e-002
2.817609e+003;7.651425e-002
2.819537e+003;7.688397e-002
2.821466e+003;7.764719e-002
2.823394e+003;7.824294e-002
2.825323e+003;7.890804e-002
2.827251e+003;7.964955e-002
2.829180e+003;7.983965e-002
2.831108e+003;8.021940e-002
2.833037e+003;8.130727e-002
2.834966e+003;8.274118e-002
2.836894e+003;8.426692e-002
2.838823e+003;8.547911e-002
2.840751e+003;8.701472e-002
2.842680e+003;8.925475e-002
2.844608e+003;9.155466e-002
2.846537e+003;9.422565e-002
2.848465e+003;9.738749e-002
2.850394e+003;9.971419e-002
2.852323e+003;1.005323e-001
2.854251e+003;1.004865e-001
2.856180e+003;1.003189e-001
2.858108e+003;1.000103e-001
2.860037e+003;1.001070e-001
2.861965e+003;1.003881e-001
2.863894e+003;1.003550e-001
2.865822e+003;1.005859e-001
2.867751e+003;1.009369e-001
2.869679e+003;1.012789e-001
2.871608e+003;1.011395e-001
2.873536e+003;1.010746e-001
2.875465e+003;1.012376e-001
2.877394e+003;1.013460e-001
2.879322e+003;1.016482e-001
2.881251e+003;1.024592e-001
2.883179e+003;1.033332e-001
2.885108e+003;1.040571e-001
2.887036e+003;1.044645e-001
2.888965e+003;1.049144e-001
2.890893e+003;1.062050e-001
2.892822e+003;1.068682e-001
2.894750e+003;1.069846e-001
2.896679e+003;1.072072e-001
2.898608e+003;1.075626e-001
2.900536e+003;1.081230e-001
2.902465e+003;1.079859e-001
2.904393e+003;1.072149e-001
2.906322e+003;1.070149e-001
2.908250e+003;1.072803e-001
2.910179e+003;1.074219e-001
2.912107e+003;1.076366e-001
2.914036e+003;1.078046e-001
2.915965e+003;1.078675e-001
2.917893e+003;1.081286e-001
2.919822e+003;1.081623e-001
2.921750e+003;1.071090e-001
2.923679e+003;1.055018e-001
2.925607e+003;1.039701e-001
2.927536e+003;1.023252e-001
2.929464e+003;1.007716e-001
2.931393e+003;9.911100e-002
2.933322e+003;9.752629e-002
2.935250e+003;9.598449e-002
2.937178e+003;9.439362e-002
2.939107e+003;9.310086e-002
2.941036e+003;9.162041e-002
2.942964e+003;9.017949e-002
2.944893e+003;8.899943e-002
2.946821e+003;8.775339e-002
2.948750e+003;8.659619e-002
2.950678e+003;8.545043e-002
2.952607e+003;8.431476e-002
2.954535e+003;8.313210e-002
2.956464e+003;8.185174e-002
2.958393e+003;8.075583e-002
2.960321e+003;7.955073e-002
2.962250e+003;7.813881e-002
2.964178e+003;7.700486e-002
2.966107e+003;7.613678e-002
2.968035e+003;7.548694e-002
2.969964e+003;7.505637e-002
2.971892e+003;7.428822e-002
2.973821e+003;7.351710e-002
2.975750e+003;7.279860e-002
2.977678e+003;7.199312e-002
2.979607e+003;7.168858e-002
2.981535e+003;7.135613e-002
2.983464e+003;7.055134e-002
2.985392e+003;6.983814e-002
2.987321e+003;6.935774e-002
2.989249e+003;6.920127e-002
2.991178e+003;6.885973e-002
2.993106e+003;6.835411e-002
2.995035e+003;6.808861e-002
2.996964e+003;6.772308e-002
2.998892e+003;6.778198e-002
3.000821e+003;6.787568e-002
3.002749e+003;6.808109e-002
3.004678e+003;6.875937e-002
3.006606e+003;6.911552e-002
3.008535e+003;6.872234e-002
3.010463e+003;6.882071e-002
3.012392e+003;6.891001e-002
3.014321e+003;6.859873e-002
3.016249e+003;6.858049e-002
3.018177e+003;6.852548e-002
3.020106e+003;6.882875e-002
3.022035e+003;6.891226e-002
3.023963e+003;6.877474e-002
3.025892e+003;6.893843e-002
3.027820e+003;6.898481e-002
3.029749e+003;6.929477e-002
3.031677e+003;6.969002e-002
3.033606e+003;6.967003e-002
3.035534e+003;7.008003e-002
3.037463e+003;7.053036e-002
3.039392e+003;7.048071e-002
3.041320e+003;7.046434e-002
3.043249e+003;7.080215e-002
3.045177e+003;7.092889e-002
3.047106e+003;7.109398e-002
3.049034e+003;7.130899e-002
3.050963e+003;7.156471e-002
3.052891e+003;7.180884e-002
3.054820e+003;7.193020e-002
3.056749e+003;7.211754e-002
3.058677e+003;7.215714e-002
3.060606e+003;7.223234e-002
3.062534e+003;7.285518e-002
3.064463e+003;7.312004e-002
3.066391e+003;7.340452e-002
3.068320e+003;7.345878e-002
3.070248e+003;7.336607e-002
3.072177e+003;7.407486e-002
3.074105e+003;7.457767e-002
3.076034e+003;7.460541e-002
3.077963e+003;7.484701e-002
3.079891e+003;7.481454e-002
3.081820e+003;7.473113e-002
3.083748e+003;7.525015e-002
3.085677e+003;7.565548e-002
3.087605e+003;7.585690e-002
3.089534e+003;7.624960e-002
3.091462e+003;7.656831e-002
3.093391e+003;7.671532e-002
3.095320e+003;7.669255e-002
3.097248e+003;7.702741e-002
3.099177e+003;7.755654e-002
3.101105e+003;7.778862e-002
3.103034e+003;7.850515e-002
3.104962e+003;7.905445e-002
3.106891e+003;7.903644e-002
3.108819e+003;7.934938e-002
3.110748e+003;7.986438e-002
3.112677e+003;8.011167e-002
3.114605e+003;8.021330e-002
3.116533e+003;8.066146e-002
3.118462e+003;8.110083e-002
3.120391e+003;8.170913e-002
3.122319e+003;8.201423e-002
3.124248e+003;8.198341e-002
3.126176e+003;8.248065e-002
3.128105e+003;8.258078e-002
3.130033e+003;8.266815e-002
3.131962e+003;8.322038e-002
3.133890e+003;8.410177e-002
3.135819e+003;8.480693e-002
3.137748e+003;8.511058e-002
3.139676e+003;8.492992e-002
3.141605e+003;8.522169e-002
3.143533e+003;8.582307e-002
3.145462e+003;8.606393e-002
3.147390e+003;8.631757e-002
3.149319e+003;8.714943e-002
3.151247e+003;8.780899e-002
3.153176e+003;8.799925e-002
3.155104e+003;8.870036e-002
3.157033e+003;8.951005e-002
3.158962e+003;8.967581e-002
3.160890e+003;8.966595e-002
3.162819e+003;9.023584e-002
3.164747e+003;9.081025e-002
3.166676e+003;9.151870e-002
3.168604e+003;9.225815e-002
3.170533e+003;9.228478e-002
3.172461e+003;9.220140e-002
3.174390e+003;9.306896e-002
3.176319e+003;9.409308e-002
3.178247e+003;9.449811e-002
3.180176e+003;9.511752e-002
3.182104e+003;9.569681e-002
3.184033e+003;9.624205e-002
3.185961e+003;9.696821e-002
3.187890e+003;9.790937e-002
3.189818e+003;9.865059e-002
3.191747e+003;9.922716e-002
3.193676e+003;9.936426e-002
3.195604e+003;9.946082e-002
3.197532e+003;1.001345e-001
3.199461e+003;1.006345e-001
3.201390e+003;1.009374e-001
3.203318e+003;1.013617e-001
3.205247e+003;1.021032e-001
3.207175e+003;1.030270e-001
3.209104e+003;1.039376e-001
3.211032e+003;1.047020e-001
3.212961e+003;1.054441e-001
3.214889e+003;1.060288e-001
3.216818e+003;1.062846e-001
3.218747e+003;1.068856e-001
3.220675e+003;1.079734e-001
3.222604e+003;1.089407e-001
3.224532e+003;1.094206e-001
3.226461e+003;1.098628e-001
3.228389e+003;1.110382e-001
3.230318e+003;1.122452e-001
3.232246e+003;1.129967e-001
3.234175e+003;1.133978e-001
3.236104e+003;1.133688e-001
3.238032e+003;1.140637e-001
3.239961e+003;1.151667e-001
3.241889e+003;1.160274e-001
3.243818e+003;1.171359e-001
3.245746e+003;1.182860e-001
3.247675e+003;1.190207e-001
3.249603e+003;1.200211e-001
3.251532e+003;1.210847e-001
3.253460e+003;1.216183e-001
3.255389e+003;1.221300e-001
3.257318e+003;1.226011e-001
3.259246e+003;1.229431e-001
3.261175e+003;1.239654e-001
3.263103e+003;1.249603e-001
3.265032e+003;1.262385e-001
3.266960e+003;1.275643e-001
3.268889e+003;1.282505e-001
3.270817e+003;1.283685e-001
3.272746e+003;1.286785e-001
3.274675e+003;1.301889e-001
3.276603e+003;1.310944e-001
3.278531e+003;1.314741e-001
3.280460e+003;1.320078e-001
3.282389e+003;1.320562e-001
3.284317e+003;1.322905e-001
3.286246e+003;1.331664e-001
3.288174e+003;1.338138e-001
3.290103e+003;1.339089e-001
3.292031e+003;1.343052e-001
3.293960e+003;1.343926e-001
3.295888e+003;1.345450e-001
3.297817e+003;1.351810e-001
3.299746e+003;1.355791e-001
3.301674e+003;1.355941e-001
3.303603e+003;1.355237e-001
3.305531e+003;1.350273e-001
3.307460e+003;1.352674e-001
3.309388e+003;1.360839e-001
3.311317e+003;1.365374e-001
3.313245e+003;1.360961e-001
3.315174e+003;1.359778e-001
3.317103e+003;1.363084e-001
3.319031e+003;1.364681e-001
3.320960e+003;1.369436e-001
3.322888e+003;1.374182e-001
3.324817e+003;1.381815e-001
3.326745e+003;1.390379e-001
3.328674e+003;1.389849e-001
3.330602e+003;1.393711e-001
3.332531e+003;1.400292e-001
3.334459e+003;1.399677e-001
3.336388e+003;1.396379e-001
3.338317e+003;1.395154e-001
3.340245e+003;1.391741e-001
3.342174e+003;1.392132e-001
3.344102e+003;1.397607e-001
3.346031e+003;1.391958e-001
3.347959e+003;1.377445e-001
3.349888e+003;1.371996e-001
3.351816e+003;1.370408e-001
3.353745e+003;1.363873e-001
3.355674e+003;1.360210e-001
3.357602e+003;1.354920e-001
3.359531e+003;1.347827e-001
3.361459e+003;1.343116e-001
3.363388e+003;1.338137e-001
3.365316e+003;1.335449e-001
3.367245e+003;1.334074e-001
3.369173e+003;1.328988e-001
3.371102e+003;1.313039e-001
3.373031e+003;1.301446e-001
3.374959e+003;1.292117e-001
3.376887e+003;1.283351e-001
3.378816e+003;1.282209e-001
3.380745e+003;1.281927e-001
3.382673e+003;1.277068e-001
3.384602e+003;1.273099e-001
3.386530e+003;1.270086e-001
3.388459e+003;1.265484e-001
3.390387e+003;1.259114e-001
3.392316e+003;1.252930e-001
3.394244e+003;1.245827e-001
3.396173e+003;1.239593e-001
3.398102e+003;1.235410e-001
3.400030e+003;1.231407e-001
3.401959e+003;1.226085e-001
3.403887e+003;1.219532e-001
3.405816e+003;1.213057e-001
3.407744e+003;1.204024e-001
3.409673e+003;1.194694e-001
3.411601e+003;1.189915e-001
3.413530e+003;1.182624e-001
3.415458e+003;1.166515e-001
3.417387e+003;1.159122e-001
3.419316e+003;1.161570e-001
3.421244e+003;1.158338e-001
3.423173e+003;1.154012e-001
3.425101e+003;1.150147e-001
3.427030e+003;1.141425e-001
3.428958e+003;1.133267e-001
3.430887e+003;1.122239e-001
3.432815e+003;1.110098e-001
3.434744e+003;1.103468e-001
3.436673e+003;1.094209e-001
3.438601e+003;1.083951e-001
3.440530e+003;1.077404e-001
3.442458e+003;1.074720e-001
3.444387e+003;1.065801e-001
3.446315e+003;1.056906e-001
3.448244e+003;1.055591e-001
3.450172e+003;1.047930e-001
3.452101e+003;1.034906e-001
3.454030e+003;1.030356e-001
3.455958e+003;1.020763e-001
3.457886e+003;1.010633e-001
3.459815e+003;1.006558e-001
3.461744e+003;9.935309e-002
3.463672e+003;9.816392e-002
3.465601e+003;9.751459e-002
3.467529e+003;9.700077e-002
3.469458e+003;9.631293e-002
3.471386e+003;9.564237e-002
3.473315e+003;9.445050e-002
3.475243e+003;9.384572e-002
3.477172e+003;9.336632e-002
3.479101e+003;9.213822e-002
3.481029e+003;9.119660e-002
3.482958e+003;9.084966e-002
3.484886e+003;8.982557e-002
3.486815e+003;8.876698e-002
3.488743e+003;8.795867e-002
3.490672e+003;8.714656e-002
3.492600e+003;8.664748e-002
3.494529e+003;8.580628e-002
3.496458e+003;8.489233e-002
3.498386e+003;8.404447e-002
3.500315e+003;8.312238e-002
3.502243e+003;8.171945e-002
3.504172e+003;8.088239e-002
3.506100e+003;8.055104e-002
3.508029e+003;7.982189e-002
3.509957e+003;7.896546e-002
3.511886e+003;7.875358e-002
3.513814e+003;7.861179e-002
3.515743e+003;7.755916e-002
3.517672e+003;7.681330e-002
3.519600e+003;7.597296e-002
3.521529e+003;7.504866e-002
3.523457e+003;7.439642e-002
3.525386e+003;7.380299e-002
3.527314e+003;7.261774e-002
3.529243e+003;7.205159e-002
3.531171e+003;7.189313e-002
3.533100e+003;7.102620e-002
3.535029e+003;7.023261e-002
3.536957e+003;6.894244e-002
3.538885e+003;6.829295e-002
3.540814e+003;6.842458e-002
3.542743e+003;6.749295e-002
3.544671e+003;6.692339e-002
3.546600e+003;6.694837e-002
3.548528e+003;6.622474e-002
3.550457e+003;6.522866e-002
3.552385e+003;6.422172e-002
3.554314e+003;6.415005e-002
3.556242e+003;6.340921e-002
3.558171e+003;6.204230e-002
3.560100e+003;6.170917e-002
3.562028e+003;6.160614e-002
3.563957e+003;6.121126e-002
3.565885e+003;6.043623e-002
3.567814e+003;5.947167e-002
3.569742e+003;5.878869e-002
3.571671e+003;5.806496e-002
3.573599e+003;5.776166e-002
3.575528e+003;5.724410e-002
3.577457e+003;5.639216e-002
3.579385e+003;5.636850e-002
3.581314e+003;5.598914e-002
3.583242e+003;5.522882e-002
3.585171e+003;5.540024e-002
3.587099e+003;5.518141e-002
3.589028e+003;5.444485e-002
3.590956e+003;5.427999e-002
3.592885e+003;5.420476e-002
3.594813e+003;5.358892e-002
3.596742e+003;5.292043e-002
3.598671e+003;5.230690e-002
3.600599e+003;5.153258e-002
3.602528e+003;5.101740e-002
3.604456e+003;5.069332e-002
3.606385e+003;5.043602e-002
3.608313e+003;5.042206e-002
3.610242e+003;5.017895e-002
3.612170e+003;4.945241e-002
3.614099e+003;4.941383e-002
3.616028e+003;4.985839e-002
3.617956e+003;4.929578e-002
3.619885e+003;4.821651e-002
3.621813e+003;4.777151e-002
3.623742e+003;4.806181e-002
3.625670e+003;4.772454e-002
3.627599e+003;4.702063e-002
3.629527e+003;4.690987e-002
3.631456e+003;4.692926e-002
3.633385e+003;4.681734e-002
3.635313e+003;4.624078e-002
3.637241e+003;4.558453e-002
3.639170e+003;4.536841e-002
3.641099e+003;4.553526e-002
3.643027e+003;4.590238e-002
3.644956e+003;4.570816e-002
3.646884e+003;4.504882e-002
3.648813e+003;4.390814e-002
3.650741e+003;4.300279e-002
3.652670e+003;4.339774e-002
3.654598e+003;4.410618e-002
3.656527e+003;4.393527e-002
3.658456e+003;4.325814e-002
3.660384e+003;4.251695e-002
3.662313e+003;4.202643e-002
3.664241e+003;4.207086e-002
3.666170e+003;4.184145e-002
3.668098e+003;4.148168e-002
3.670027e+003;4.084819e-002
3.671955e+003;4.080957e-002
3.673884e+003;4.103879e-002
3.675813e+003;4.076127e-002
3.677741e+003;3.985810e-002
3.679669e+003;3.969832e-002
3.681598e+003;3.997818e-002
3.683527e+003;3.908410e-002
3.685455e+003;3.898184e-002
3.687384e+003;3.963868e-002
3.689312e+003;3.934380e-002
3.691241e+003;3.887863e-002
3.693169e+003;3.841938e-002
3.695098e+003;3.812175e-002
3.697026e+003;3.860882e-002
3.698955e+003;3.932787e-002
3.700884e+003;3.989184e-002
3.702812e+003;3.951193e-002
3.704741e+003;3.848567e-002
3.706669e+003;3.799187e-002
3.708598e+003;3.803917e-002
3.710526e+003;3.799505e-002
3.712455e+003;3.756774e-002
3.714383e+003;3.752309e-002
3.716312e+003;3.762129e-002
3.718240e+003;3.706574e-002
3.720169e+003;3.679287e-002
3.722098e+003;3.685812e-002
3.724026e+003;3.717239e-002
3.725955e+003;3.716517e-002
3.727883e+003;3.690938e-002
3.729812e+003;3.683345e-002
3.731740e+003;3.690530e-002
3.733669e+003;3.672890e-002
3.735597e+003;3.714702e-002
3.737526e+003;3.739291e-002
3.739455e+003;3.693116e-002
3.741383e+003;3.666761e-002
3.743312e+003;3.642479e-002
3.745240e+003;3.599606e-002
3.747169e+003;3.563005e-002
3.749097e+003;3.592019e-002
3.751026e+003;3.687118e-002
3.752954e+003;3.719661e-002
3.754883e+003;3.659252e-002
3.756812e+003;3.608765e-002
3.758740e+003;3.646230e-002
3.760668e+003;3.671899e-002
3.762597e+003;3.660621e-002
3.764526e+003;3.692092e-002
3.766454e+003;3.689862e-002
3.768383e+003;3.662337e-002
3.770311e+003;3.629671e-002
3.772240e+003;3.656242e-002
3.774168e+003;3.670276e-002
3.776097e+003;3.636198e-002
3.778025e+003;3.568890e-002
3.779954e+003;3.538163e-002
3.781883e+003;3.587714e-002
3.783811e+003;3.663971e-002
3.785740e+003;3.734135e-002
3.787668e+003;3.763726e-002
3.789597e+003;3.739357e-002
3.791525e+003;3.681264e-002
3.793454e+003;3.659616e-002
3.795382e+003;3.692889e-002
3.797311e+003;3.699942e-002
3.799240e+003;3.689639e-002
3.801168e+003;3.676799e-002
3.803097e+003;3.660957e-002
3.805025e+003;3.632066e-002
3.806954e+003;3.664504e-002
3.808882e+003;3.714835e-002
3.810811e+003;3.757872e-002
3.812739e+003;3.739086e-002
3.814668e+003;3.713265e-002
3.816596e+003;3.738248e-002
3.818525e+003;3.709126e-002
3.820454e+003;3.681062e-002
3.822382e+003;3.681711e-002
3.824311e+003;3.677322e-002
3.826239e+003;3.663293e-002
3.828168e+003;3.635918e-002
3.830096e+003;3.728394e-002
3.832025e+003;3.770483e-002
3.833953e+003;3.704207e-002
3.835882e+003;3.697316e-002
3.837811e+003;3.679295e-002
3.839739e+003;3.718380e-002
3.841667e+003;3.784276e-002
3.843596e+003;3.750889e-002
3.845525e+003;3.663087e-002
3.847453e+003;3.654054e-002
3.849382e+003;3.704777e-002
3.851310e+003;3.725361e-002
3.853239e+003;3.723701e-002
3.855167e+003;3.729109e-002
3.857096e+003;3.743878e-002
3.859024e+003;3.757399e-002
3.860953e+003;3.733460e-002
3.862882e+003;3.714005e-002
3.864810e+003;3.702028e-002
3.866739e+003;3.707026e-002
3.868667e+003;3.739071e-002
3.870596e+003;3.774932e-002
3.872524e+003;3.819273e-002
3.874453e+003;3.801588e-002
3.876381e+003;3.775651e-002
3.878310e+003;3.822428e-002
3.880239e+003;3.867973e-002
3.882167e+003;3.880985e-002
3.884096e+003;3.936310e-002
3.886024e+003;3.936996e-002
3.887953e+003;3.889544e-002
3.889881e+003;3.892969e-002
3.891810e+003;3.893987e-002
3.893738e+003;3.903571e-002
3.895667e+003;3.917928e-002
3.897595e+003;3.901628e-002
3.899524e+003;3.880101e-002
3.901453e+003;3.879417e-002
3.903381e+003;3.874475e-002
3.905310e+003;3.950870e-002
3.907238e+003;3.992525e-002
3.909167e+003;3.955828e-002
3.911095e+003;3.940660e-002
3.913024e+003;3.908265e-002
3.914952e+003;3.880087e-002
3.916881e+003;3.910521e-002
3.918810e+003;3.964612e-002
3.920738e+003;4.017582e-002
3.922667e+003;4.062863e-002
3.924595e+003;4.030559e-002
3.926524e+003;4.056235e-002
3.928452e+003;4.111255e-002
3.930381e+003;4.050727e-002
3.932309e+003;4.007326e-002
3.934238e+003;3.998505e-002
3.936167e+003;3.915503e-002
3.938095e+003;3.907055e-002
3.940023e+003;3.928797e-002
3.941952e+003;4.000881e-002
3.943881e+003;4.108075e-002
3.945809e+003;4.088445e-002
3.947738e+003;4.019759e-002
3.949666e+003;3.997993e-002
3.951595e+003;4.075971e-002
3.953523e+003;4.135789e-002
3.955452e+003;4.055809e-002
3.957380e+003;3.956183e-002
3.959309e+003;3.998312e-002
3.961238e+003;4.064609e-002
3.963166e+003;4.052913e-002
3.965095e+003;4.075141e-002
3.967023e+003;4.123786e-002
3.968952e+003;4.114380e-002
3.970880e+003;4.064806e-002
3.972809e+003;4.042584e-002
3.974737e+003;4.010252e-002
3.976666e+003;3.983122e-002
3.978594e+003;4.009768e-002
3.980523e+003;4.059989e-002
3.982452e+003;4.026822e-002
3.984380e+003;3.956928e-002
3.986309e+003;3.949684e-002
3.988237e+003;4.008849e-002
3.990166e+003;4.096123e-002
3.992094e+003;4.158314e-002
3.994023e+003;4.182153e-002
3.995951e+003;4.196147e-002
3.997880e+003;4.122773e-002
3.999809e+003;4.068932e-002
4.001737e+003;0.000000e+000
