3.992094e+002;0.000000e+000
4.011380e+002;0.000000e+000
4.030665e+002;0.000000e+000
4.049951e+002;0.000000e+000
4.069236e+002;0.000000e+000
4.088522e+002;0.000000e+000
4.107807e+002;0.000000e+000
4.127093e+002;0.000000e+000
4.146378e+002;0.000000e+000
4.165664e+002;0.000000e+000
4.184949e+002;0.000000e+000
4.204235e+002;0.000000e+000
4.223520e+002;0.000000e+000
4.242806e+002;0.000000e+000
4.262091e+002;0.000000e+000
4.281377e+002;0.000000e+000
4.300662e+002;0.000000e+000
4.319948e+002;0.000000e+000
4.339233e+002;0.000000e+000
4.358519e+002;0.000000e+000
4.377804e+002;0.000000e+000
4.397090e+002;0.000000e+000
4.416375e+002;0.000000e+000
4.435660e+002;0.000000e+000
4.454946e+002;0.000000e+000
4.474232e+002;0.000000e+000
4.493517e+002;0.000000e+000
4.512802e+002;0.000000e+000
4.532088e+002;0.000000e+000
4.551373e+002;0.000000e+000
4.570659e+002;0.000000e+000
4.589944e+002;0.000000e+000
4.609230e+002;0.000000e+000
4.628515e+002;0.000000e+000
4.647801e+002;0.000000e+000
4.667086e+002;0.000000e+000
4.686372e+002;0.000000e+000
4.705657e+002;0.000000e+000
4.724943e+002;0.000000e+000
4.744228e+002;0.000000e+000
4.763513e+002;0.000000e+000
4.782799e+002;0.000000e+000
4.802085e+002;0.000000e+000
4.821370e+002;0.000000e+000
4.840656e+002;0.000000e+000
4.859941e+002;0.000000e+000
4.879226e+002;0.000000e+000
4.898512e+002;0.000000e+000
4.917798e+002;0.000000e+000
4.937083e+002;0.000000e+000
4.956368e+002;0.000000e+000
4.975654e+002;0.000000e+000
4.994939e+002;0.000000e+000
5.014225e+002;0.000000e+000
5.033510e+002;0.000000e+000
5.052796e+002;0.000000e+000
5.072081e+002;0.000000e+000
5.091367e+002;0.000000e+000
5.110652e+002;0.000000e+000
5.129938e+002;0.000000e+000
5.149223e+002;0.000000e+000
5.168509e+002;0.000000e+000
5.187794e+002;0.000000e+000
5.207079e+002;0.000000e+000
5.226365e+002;0.000000e+000
5.245651e+002;0.000000e+000
5.264936e+002;0.000000e+000
5.284222e+002;0.000000e+000
5.303507e+002;0.000000e+000
5.322792e+002;0.000000e+000
5.342078e+002;0.000000e+000
5.361364e+002;0.000000e+000
5.380649e+002;0.000000e+000
5.399935e+002;0.000000e+000
5.419220e+002;0.000000e+000
5.438505e+002;0.000000e+000
5.457791e+002;0.000000e+000
5.477076e+002;0.000000e+000
5.496362e+002;0.000000e+000
5.515648e+002;0.000000e+000
5.534933e+002;0.000000e+000
5.554218e+002;0.000000e+000
5.573504e+002;0.000000e+000
5.592789e+002;0.000000e+000
5.612075e+002;0.000000e+000
5.631360e+002;0.000000e+000
5.650646e+002;0.000000e+000
5.669931e+002;0.000000e+000
5.689217e+002;0.000000e+000
5.708502e+002;0.000000e+000
5.727787e+002;0.000000e+000
5.747073e+002;0.000000e+000
5.766359e+002;0.000000e+000
5.785644e+002;0.000000e+000
5.804930e+002;0.000000e+000
5.824215e+002;0.000000e+000
5.843500e+002;0.000000e+000
5.862786e+002;0.000000e+000
5.882072e+002;0.000000e+000
5.901357e+002;0.000000e+000
5.920643e+002;0.000000e+000
5.939928e+002;0.000000e+000
5.959213e+002;0.000000e+000
5.978499e+002;0.000000e+000
5.997784e+002;2.558006e-001
6.017070e+002;2.617070e-001
6.036355e+002;2.646659e-001
6.055641e+002;2.639044e-001
6.074926e+002;2.607768e-001
6.094211e+002;2.552991e-001
6.113497e+002;2.532154e-001
6.132783e+002;2.605485e-001
6.152068e+002;2.621326e-001
6.171354e+002;2.564058e-001
6.190639e+002;2.517447e-001
6.209924e+002;2.507817e-001
6.229210e+002;2.508883e-001
6.248495e+002;2.458861e-001
6.267781e+002;2.362367e-001
6.287067e+002;2.317822e-001
6.306352e+002;2.340123e-001
6.325637e+002;2.367123e-001
6.344923e+002;2.332619e-001
6.364208e+002;2.242356e-001
6.383494e+002;2.174471e-001
6.402780e+002;2.185141e-001
6.422065e+002;2.174242e-001
6.441350e+002;2.145979e-001
6.460636e+002;2.130366e-001
6.479921e+002;2.136942e-001
6.499207e+002;2.142780e-001
6.518492e+002;2.141176e-001
6.537778e+002;2.195236e-001
6.557063e+002;2.269776e-001
6.576349e+002;2.321004e-001
6.595634e+002;2.350810e-001
6.614919e+002;2.358977e-001
6.634205e+002;2.390627e-001
6.653491e+002;2.421818e-001
6.672776e+002;2.394368e-001
6.692062e+002;2.345810e-001
6.711347e+002;2.304073e-001
6.730632e+002;2.245161e-001
6.749918e+002;2.165842e-001
6.769203e+002;2.093323e-001
6.788489e+002;2.039011e-001
6.807775e+002;1.996000e-001
6.827060e+002;1.975718e-001
6.846345e+002;1.961651e-001
6.865631e+002;1.938904e-001
6.884916e+002;1.919173e-001
6.904202e+002;1.896818e-001
6.923488e+002;1.879508e-001
6.942773e+002;1.888659e-001
6.962058e+002;1.894439e-001
6.981344e+002;1.893618e-001
7.000629e+002;1.891277e-001
7.019915e+002;1.876674e-001
7.039200e+002;1.860142e-001
7.058486e+002;1.845663e-001
7.077771e+002;1.826290e-001
7.097057e+002;1.808124e-001
7.116342e+002;1.795547e-001
7.135627e+002;1.763108e-001
7.154913e+002;1.731259e-001
7.174199e+002;1.708245e-001
7.193484e+002;1.674104e-001
7.212770e+002;1.643657e-001
7.232055e+002;1.617060e-001
7.251340e+002;1.595015e-001
7.270626e+002;1.580517e-001
7.289911e+002;1.550304e-001
7.309197e+002;1.518968e-001
7.328483e+002;1.500265e-001
7.347768e+002;1.480939e-001
7.367053e+002;1.451146e-001
7.386339e+002;1.426040e-001
7.405624e+002;1.411604e-001
7.424910e+002;1.404545e-001
7.444196e+002;1.396298e-001
7.463481e+002;1.385568e-001
7.482766e+002;1.375333e-001
7.502052e+002;1.367527e-001
7.521337e+002;1.349671e-001
7.540623e+002;1.326456e-001
7.559908e+002;1.310288e-001
7.579194e+002;1.301377e-001
7.598479e+002;1.295211e-001
7.617765e+002;1.289232e-001
7.637050e+002;1.276251e-001
7.656335e+002;1.261928e-001
7.675621e+002;1.254758e-001
7.694907e+002;1.252940e-001
7.714192e+002;1.245262e-001
7.733478e+002;1.232789e-001
7.752763e+002;1.225246e-001
7.772048e+002;1.218264e-001
7.791334e+002;1.217427e-001
7.810620e+002;1.215452e-001
7.829905e+002;1.209985e-001
7.849191e+002;1.205003e-001
7.868476e+002;1.191780e-001
7.887761e+002;1.176840e-001
7.907047e+002;1.162214e-001
7.926332e+002;1.155805e-001
7.945618e+002;1.149616e-001
7.964903e+002;1.124369e-001
7.984189e+002;1.113559e-001
8.003474e+002;1.127037e-001
8.022759e+002;1.129502e-001
8.042045e+002;1.125136e-001
8.061331e+002;1.115963e-001
8.080616e+002;1.111928e-001
8.099902e+002;1.114323e-001
8.119187e+002;1.116583e-001
8.138472e+002;1.109795e-001
8.157758e+002;1.099667e-001
8.177043e+002;1.095393e-001
8.196329e+002;1.088714e-001
8.215615e+002;1.083264e-001
8.234900e+002;1.081388e-001
8.254185e+002;1.081935e-001
8.273471e+002;1.078603e-001
8.292756e+002;1.074049e-001
8.312042e+002;1.077361e-001
8.331328e+002;1.079607e-001
8.350613e+002;1.072959e-001
8.369898e+002;1.071852e-001
8.389184e+002;1.076736e-001
8.408469e+002;1.073278e-001
8.427755e+002;1.071694e-001
8.447040e+002;1.080389e-001
8.466326e+002;1.087960e-001
8.485611e+002;1.090641e-001
8.504897e+002;1.089392e-001
8.524182e+002;1.091367e-001
8.543467e+002;1.095403e-001
8.562753e+002;1.097884e-001
8.582039e+002;1.109759e-001
8.601324e+002;1.126863e-001
8.620610e+002;1.136189e-001
8.639895e+002;1.149660e-001
8.659180e+002;1.172836e-001
8.678466e+002;1.194759e-001
8.697751e+002;1.217642e-001
8.717037e+002;1.242150e-001
8.736323e+002;1.265592e-001
8.755608e+002;1.286053e-001
8.774893e+002;1.309294e-001
8.794179e+002;1.328174e-001
8.813464e+002;1.351231e-001
8.832750e+002;1.380225e-001
8.852036e+002;1.410220e-001
8.871321e+002;1.442560e-001
8.890606e+002;1.472614e-001
8.909892e+002;1.499200e-001
8.929177e+002;1.523518e-001
8.948463e+002;1.533530e-001
8.967748e+002;1.536691e-001
8.987034e+002;1.539778e-001
9.006319e+002;1.536592e-001
9.025605e+002;1.522209e-001
9.044890e+002;1.498337e-001
9.064175e+002;1.473029e-001
9.083461e+002;1.450500e-001
9.102747e+002;1.435558e-001
9.122032e+002;1.419825e-001
9.141318e+002;1.398365e-001
9.160603e+002;1.388403e-001
9.179888e+002;1.385538e-001
9.199174e+002;1.383336e-001
9.218459e+002;1.386656e-001
9.237745e+002;1.396478e-001
9.257031e+002;1.409239e-001
9.276316e+002;1.423243e-001
9.295601e+002;1.439668e-001
9.314887e+002;1.453771e-001
9.334172e+002;1.468035e-001
9.353458e+002;1.485513e-001
9.372744e+002;1.505415e-001
9.392029e+002;1.526607e-001
9.411314e+002;1.550319e-001
9.430600e+002;1.574321e-001
9.449885e+002;1.599953e-001
9.469171e+002;1.629701e-001
9.488456e+002;1.662003e-001
9.507742e+002;1.695281e-001
9.527027e+002;1.735028e-001
9.546313e+002;1.779131e-001
9.565598e+002;1.828393e-001
9.584883e+002;1.884126e-001
9.604169e+002;1.941904e-001
9.623455e+002;1.999785e-001
9.642740e+002;2.059020e-001
9.662026e+002;2.120374e-001
9.681311e+002;2.192822e-001
9.700596e+002;2.274449e-001
9.719882e+002;2.367730e-001
9.739167e+002;2.479376e-001
9.758453e+002;2.606209e-001
9.777739e+002;2.752661e-001
9.797024e+002;2.922494e-001
9.816309e+002;3.089496e-001
9.835595e+002;3.216074e-001
9.854880e+002;3.293289e-001
9.874166e+002;3.326326e-001
9.893452e+002;3.341959e-001
9.912737e+002;3.370853e-001
9.932022e+002;3.420422e-001
9.951307e+002;3.482978e-001
9.970593e+002;3.556277e-001
9.989879e+002;3.627884e-001
1.000916e+003;3.681148e-001
1.002845e+003;3.721863e-001
1.004773e+003;3.745263e-001
1.006702e+003;3.755031e-001
1.008631e+003;3.769570e-001
1.010559e+003;3.798573e-001
1.012488e+003;3.843671e-001
1.014416e+003;3.895147e-001
1.016345e+003;3.940137e-001
1.018273e+003;3.982419e-001
1.020202e+003;4.029701e-001
1.022130e+003;4.080071e-001
1.024059e+003;4.138087e-001
1.025988e+003;4.200403e-001
1.027916e+003;4.250803e-001
1.029845e+003;4.282179e-001
1.031773e+003;4.289257e-001
1.033702e+003;4.257764e-001
1.035630e+003;4.187934e-001
1.037559e+003;4.108293e-001
1.039487e+003;4.032138e-001
1.041416e+003;3.973179e-001
1.043344e+003;3.946102e-001
1.045273e+003;3.947762e-001
1.047202e+003;3.970983e-001
1.049130e+003;4.013553e-001
1.051059e+003;4.066132e-001
1.052987e+003;4.097538e-001
1.054916e+003;4.097109e-001
1.056844e+003;4.071325e-001
1.058773e+003;3.998204e-001
1.060701e+003;3.865400e-001
1.062630e+003;3.694292e-001
1.064558e+003;3.518721e-001
1.066487e+003;3.356176e-001
1.068416e+003;3.214503e-001
1.070344e+003;3.096797e-001
1.072273e+003;2.999826e-001
1.074201e+003;2.920644e-001
1.076130e+003;2.851730e-001
1.078058e+003;2.782113e-001
1.079987e+003;2.720900e-001
1.081915e+003;2.669712e-001
1.083844e+003;2.633728e-001
1.085773e+003;2.616368e-001
1.087701e+003;2.606438e-001
1.089630e+003;2.600462e-001
1.091558e+003;2.594250e-001
1.093487e+003;2.604297e-001
1.095415e+003;2.621088e-001
1.097344e+003;2.633478e-001
1.099272e+003;2.649650e-001
1.101201e+003;2.662051e-001
1.103129e+003;2.663662e-001
1.105058e+003;2.649451e-001
1.106987e+003;2.622552e-001
1.108915e+003;2.592382e-001
1.110844e+003;2.543462e-001
1.112772e+003;2.462437e-001
1.114701e+003;2.358765e-001
1.116629e+003;2.246841e-001
1.118558e+003;2.154774e-001
1.120486e+003;2.077593e-001
1.122415e+003;2.005540e-001
1.124344e+003;1.942138e-001
1.126272e+003;1.873060e-001
1.128201e+003;1.797244e-001
1.130129e+003;1.731450e-001
1.132058e+003;1.679996e-001
1.133986e+003;1.636596e-001
1.135915e+003;1.603505e-001
1.137843e+003;1.581884e-001
1.139772e+003;1.570402e-001
1.141700e+003;1.576308e-001
1.143629e+003;1.594392e-001
1.145557e+003;1.611459e-001
1.147486e+003;1.625171e-001
1.149415e+003;1.642440e-001
1.151343e+003;1.662794e-001
1.153272e+003;1.681150e-001
1.155200e+003;1.699632e-001
1.157129e+003;1.714925e-001
1.159057e+003;1.721018e-001
1.160986e+003;1.717480e-001
1.162914e+003;1.700746e-001
1.164843e+003;1.658569e-001
1.166771e+003;1.591700e-001
1.168700e+003;1.506925e-001
1.170629e+003;1.422419e-001
1.172557e+003;1.345534e-001
1.174486e+003;1.272053e-001
1.176414e+003;1.215017e-001
1.178343e+003;1.173957e-001
1.180271e+003;1.139317e-001
1.182200e+003;1.111479e-001
1.184128e+003;1.094089e-001
1.186057e+003;1.089746e-001
1.187986e+003;1.094305e-001
1.189914e+003;1.105757e-001
1.191843e+003;1.129209e-001
1.193771e+003;1.156625e-001
1.195700e+003;1.181941e-001
1.197628e+003;1.203888e-001
1.199557e+003;1.217189e-001
1.201485e+003;1.220900e-001
1.203414e+003;1.217268e-001
1.205343e+003;1.206447e-001
1.207271e+003;1.188526e-001
1.209200e+003;1.156437e-001
1.211128e+003;1.118816e-001
1.213057e+003;1.090084e-001
1.214985e+003;1.077040e-001
1.216914e+003;1.079059e-001
1.218842e+003;1.088241e-001
1.220771e+003;1.100251e-001
1.222699e+003;1.117337e-001
1.224628e+003;1.137889e-001
1.226557e+003;1.158197e-001
1.228485e+003;1.176716e-001
1.230414e+003;1.191965e-001
1.232342e+003;1.204575e-001
1.234271e+003;1.215010e-001
1.236199e+003;1.218457e-001
1.238128e+003;1.217772e-001
1.240056e+003;1.219348e-001
1.241985e+003;1.223974e-001
1.243913e+003;1.231807e-001
1.245842e+003;1.242802e-001
1.247771e+003;1.252124e-001
1.249699e+003;1.254200e-001
1.251628e+003;1.252289e-001
1.253556e+003;1.250328e-001
1.255485e+003;1.246333e-001
1.257413e+003;1.243600e-001
1.259342e+003;1.241169e-001
1.261270e+003;1.235546e-001
1.263199e+003;1.232013e-001
1.265127e+003;1.233202e-001
1.267056e+003;1.239946e-001
1.268985e+003;1.250732e-001
1.270913e+003;1.256242e-001
1.272842e+003;1.264122e-001
1.274770e+003;1.273249e-001
1.276699e+003;1.274130e-001
1.278627e+003;1.275932e-001
1.280556e+003;1.276345e-001
1.282484e+003;1.264970e-001
1.284413e+003;1.251484e-001
1.286342e+003;1.245387e-001
1.288270e+003;1.245023e-001
1.290199e+003;1.251718e-001
1.292127e+003;1.263189e-001
1.294056e+003;1.273931e-001
1.295984e+003;1.285199e-001
1.297913e+003;1.300561e-001
1.299841e+003;1.324179e-001
1.301770e+003;1.352919e-001
1.303698e+003;1.387587e-001
1.305627e+003;1.429220e-001
1.307556e+003;1.472703e-001
1.309484e+003;1.518951e-001
1.311413e+003;1.563331e-001
1.313341e+003;1.593175e-001
1.315270e+003;1.604211e-001
1.317198e+003;1.599140e-001
1.319127e+003;1.579964e-001
1.321055e+003;1.552172e-001
1.322984e+003;1.522763e-001
1.324912e+003;1.495146e-001
1.326841e+003;1.476045e-001
1.328770e+003;1.466992e-001
1.330698e+003;1.467248e-001
1.332627e+003;1.473593e-001
1.334555e+003;1.474334e-001
1.336484e+003;1.467435e-001
1.338412e+003;1.454401e-001
1.340341e+003;1.432709e-001
1.342269e+003;1.407851e-001
1.344198e+003;1.382417e-001
1.346126e+003;1.357450e-001
1.348055e+003;1.340684e-001
1.349984e+003;1.337642e-001
1.351912e+003;1.342416e-001
1.353841e+003;1.349589e-001
1.355769e+003;1.361294e-001
1.357698e+003;1.371887e-001
1.359626e+003;1.382183e-001
1.361555e+003;1.385919e-001
1.363483e+003;1.380108e-001
1.365412e+003;1.372536e-001
1.367341e+003;1.364636e-001
1.369269e+003;1.355727e-001
1.371198e+003;1.342387e-001
1.373126e+003;1.321232e-001
1.375055e+003;1.293606e-001
1.376983e+003;1.261632e-001
1.378912e+003;1.230068e-001
1.380840e+003;1.204658e-001
1.382769e+003;1.181253e-001
1.384698e+003;1.156785e-001
1.386626e+003;1.137557e-001
1.388555e+003;1.123426e-001
1.390483e+003;1.111649e-001
1.392412e+003;1.102168e-001
1.394340e+003;1.096939e-001
1.396269e+003;1.094245e-001
1.398197e+003;1.095220e-001
1.400126e+003;1.096428e-001
1.402054e+003;1.096891e-001
1.403983e+003;1.097815e-001
1.405911e+003;1.101612e-001
1.407840e+003;1.106332e-001
1.409769e+003;1.108452e-001
1.411697e+003;1.114000e-001
1.413626e+003;1.121786e-001
1.415554e+003;1.130791e-001
1.417483e+003;1.145905e-001
1.419411e+003;1.163737e-001
1.421340e+003;1.178731e-001
1.423268e+003;1.190861e-001
1.425197e+003;1.200261e-001
1.427125e+003;1.208653e-001
1.429054e+003;1.209658e-001
1.430983e+003;1.201959e-001
1.432911e+003;1.189188e-001
1.434840e+003;1.170780e-001
1.436768e+003;1.149733e-001
1.438697e+003;1.132129e-001
1.440625e+003;1.119893e-001
1.442554e+003;1.111065e-001
1.444482e+003;1.104140e-001
1.446411e+003;1.096098e-001
1.448340e+003;1.090423e-001
1.450268e+003;1.085308e-001
1.452197e+003;1.078025e-001
1.454125e+003;1.070896e-001
1.456054e+003;1.061414e-001
1.457982e+003;1.048926e-001
1.459911e+003;1.033135e-001
1.461839e+003;1.017065e-001
1.463768e+003;1.001877e-001
1.465697e+003;9.844326e-002
1.467625e+003;9.648453e-002
1.469554e+003;9.455874e-002
1.471482e+003;9.292538e-002
1.473411e+003;9.117739e-002
1.475339e+003;8.927815e-002
1.477268e+003;8.787640e-002
1.479196e+003;8.679948e-002
1.481125e+003;8.536322e-002
1.483053e+003;8.362305e-002
1.484982e+003;8.162020e-002
1.486911e+003;7.970639e-002
1.488839e+003;7.809644e-002
1.490768e+003;7.638477e-002
1.492696e+003;7.483087e-002
1.494625e+003;7.384465e-002
1.496553e+003;7.309432e-002
1.498482e+003;7.261637e-002
1.500410e+003;7.225644e-002
1.502339e+003;7.163993e-002
1.504267e+003;7.137956e-002
1.506196e+003;7.128057e-002
1.508125e+003;7.086187e-002
1.510053e+003;7.041407e-002
1.511982e+003;6.993548e-002
1.513910e+003;6.930534e-002
1.515839e+003;6.889840e-002
1.517767e+003;6.858306e-002
1.519696e+003;6.813706e-002
1.521624e+003;6.791931e-002
1.523553e+003;6.776452e-002
1.525481e+003;6.745069e-002
1.527410e+003;6.741664e-002
1.529339e+003;6.737581e-002
1.531267e+003;6.712940e-002
1.533196e+003;6.708492e-002
1.535124e+003;6.723057e-002
1.537053e+003;6.711478e-002
1.538981e+003;6.691211e-002
1.540910e+003;6.670958e-002
1.542838e+003;6.639991e-002
1.544767e+003;6.631139e-002
1.546695e+003;6.653097e-002
1.548624e+003;6.664653e-002
1.550553e+003;6.659500e-002
1.552481e+003;6.667032e-002
1.554410e+003;6.659967e-002
1.556338e+003;6.643420e-002
1.558267e+003;6.660601e-002
1.560195e+003;6.667995e-002
1.562124e+003;6.657171e-002
1.564052e+003;6.658708e-002
1.565981e+003;6.688521e-002
1.567910e+003;6.712294e-002
1.569838e+003;6.716850e-002
1.571767e+003;6.724930e-002
1.573695e+003;6.762608e-002
1.575624e+003;6.806229e-002
1.577552e+003;6.837741e-002
1.579481e+003;6.858123e-002
1.581409e+003;6.884253e-002
1.583338e+003;6.924906e-002
1.585266e+003;6.957322e-002
1.587195e+003;7.007115e-002
1.589124e+003;7.074346e-002
1.591052e+003;7.092810e-002
1.592981e+003;7.109050e-002
1.594909e+003;7.165489e-002
1.596838e+003;7.261997e-002
1.598766e+003;7.357220e-002
1.600695e+003;7.424600e-002
1.602623e+003;7.506685e-002
1.604552e+003;7.595871e-002
1.606480e+003;7.680088e-002
1.608409e+003;7.753219e-002
1.610338e+003;7.824667e-002
1.612266e+003;7.883152e-002
1.614195e+003;7.937921e-002
1.616123e+003;7.985678e-002
1.618052e+003;8.028241e-002
1.619980e+003;8.067519e-002
1.621909e+003;8.082706e-002
1.623837e+003;8.085485e-002
1.625766e+003;8.073220e-002
1.627694e+003;8.064351e-002
1.629623e+003;8.044229e-002
1.631552e+003;8.004757e-002
1.633480e+003;8.006578e-002
1.635409e+003;8.008303e-002
1.637337e+003;7.986132e-002
1.639266e+003;7.958778e-002
1.641194e+003;7.924315e-002
1.643123e+003;7.921805e-002
1.645051e+003;7.918135e-002
1.646980e+003;7.862125e-002
1.648909e+003;7.794234e-002
1.650837e+003;7.762599e-002
1.652766e+003;7.736906e-002
1.654694e+003;7.682426e-002
1.656623e+003;7.626276e-002
1.658551e+003;7.558812e-002
1.660480e+003;7.499990e-002
1.662408e+003;7.459573e-002
1.664337e+003;7.393578e-002
1.666266e+003;7.336199e-002
1.668194e+003;7.273842e-002
1.670123e+003;7.170828e-002
1.672051e+003;7.077489e-002
1.673980e+003;7.006589e-002
1.675908e+003;6.938300e-002
1.677837e+003;6.880510e-002
1.679765e+003;6.816020e-002
1.681694e+003;6.736993e-002
1.683622e+003;6.652467e-002
1.685551e+003;6.594010e-002
1.687479e+003;6.566540e-002
1.689408e+003;6.519174e-002
1.691337e+003;6.447699e-002
1.693265e+003;6.378145e-002
1.695194e+003;6.329635e-002
1.697122e+003;6.284165e-002
1.699051e+003;6.225525e-002
1.700979e+003;6.167548e-002
1.702908e+003;6.143259e-002
1.704836e+003;6.100496e-002
1.706765e+003;6.053860e-002
1.708693e+003;5.998828e-002
1.710622e+003;5.957538e-002
1.712551e+003;5.931778e-002
1.714479e+003;5.897272e-002
1.716408e+003;5.885182e-002
1.718336e+003;5.862377e-002
1.720265e+003;5.823505e-002
1.722193e+003;5.812484e-002
1.724122e+003;5.810996e-002
1.726050e+003;5.806155e-002
1.727979e+003;5.809341e-002
1.729908e+003;5.815784e-002
1.731836e+003;5.808170e-002
1.733765e+003;5.811276e-002
1.735693e+003;5.797290e-002
1.737622e+003;5.768609e-002
1.739550e+003;5.728728e-002
1.741479e+003;5.708710e-002
1.743407e+003;5.689790e-002
1.745336e+003;5.660534e-002
1.747265e+003;5.613101e-002
1.749193e+003;5.556402e-002
1.751122e+003;5.552132e-002
1.753050e+003;5.552896e-002
1.754979e+003;5.512208e-002
1.756907e+003;5.460988e-002
1.758836e+003;5.432358e-002
1.760764e+003;5.412920e-002
1.762693e+003;5.388493e-002
1.764621e+003;5.350466e-002
1.766550e+003;5.354597e-002
1.768479e+003;5.384487e-002
1.770407e+003;5.356028e-002
1.772336e+003;5.300196e-002
1.774264e+003;5.271250e-002
1.776193e+003;5.266925e-002
1.778121e+003;5.267636e-002
1.780050e+003;5.264984e-002
1.781978e+003;5.248140e-002
1.783907e+003;5.210262e-002
1.785835e+003;5.204140e-002
1.787764e+003;5.198858e-002
1.789693e+003;5.169087e-002
1.791621e+003;5.166591e-002
1.793550e+003;5.155609e-002
1.795478e+003;5.144544e-002
1.797407e+003;5.160784e-002
1.799335e+003;5.148819e-002
1.801264e+003;5.117073e-002
1.803192e+003;5.117315e-002
1.805121e+003;5.105176e-002
1.807049e+003;5.097529e-002
1.808978e+003;5.111385e-002
1.810907e+003;5.086777e-002
1.812835e+003;5.045593e-002
1.814764e+003;5.038344e-002
1.816692e+003;5.057935e-002
1.818621e+003;5.077380e-002
1.820549e+003;5.076713e-002
1.822478e+003;5.053960e-002
1.824406e+003;5.034783e-002
1.826335e+003;5.029444e-002
1.828264e+003;5.011423e-002
1.830192e+003;5.017686e-002
1.832121e+003;5.034035e-002
1.834049e+003;5.021060e-002
1.835978e+003;5.010940e-002
1.837906e+003;4.977649e-002
1.839835e+003;4.935862e-002
1.841763e+003;4.928305e-002
1.843692e+003;4.923833e-002
1.845620e+003;4.921966e-002
1.847549e+003;4.924928e-002
1.849478e+003;4.928698e-002
1.851406e+003;4.924278e-002
1.853335e+003;4.906935e-002
1.855263e+003;4.890490e-002
1.857192e+003;4.869435e-002
1.859120e+003;4.848791e-002
1.861049e+003;4.825605e-002
1.862977e+003;4.820418e-002
1.864906e+003;4.835818e-002
1.866834e+003;4.855689e-002
1.868763e+003;4.868175e-002
1.870692e+003;4.850695e-002
1.872620e+003;4.836463e-002
1.874549e+003;4.844742e-002
1.876477e+003;4.833537e-002
1.878406e+003;4.820392e-002
1.880334e+003;4.836104e-002
1.882263e+003;4.825483e-002
1.884191e+003;4.799190e-002
1.886120e+003;4.820458e-002
1.888048e+003;4.837911e-002
1.889977e+003;4.836819e-002
1.891906e+003;4.829271e-002
1.893834e+003;4.828997e-002
1.895763e+003;4.843074e-002
1.897691e+003;4.845368e-002
1.899620e+003;4.825805e-002
1.901548e+003;4.834067e-002
1.903477e+003;4.846071e-002
1.905405e+003;4.845005e-002
1.907334e+003;4.847990e-002
1.909262e+003;4.853455e-002
1.911191e+003;4.837770e-002
1.913120e+003;4.834807e-002
1.915048e+003;4.850072e-002
1.916977e+003;4.854652e-002
1.918905e+003;4.888031e-002
1.920834e+003;4.910300e-002
1.922762e+003;4.893026e-002
1.924691e+003;4.905222e-002
1.926619e+003;4.929674e-002
1.928548e+003;4.918189e-002
1.930477e+003;4.920975e-002
1.932405e+003;4.934667e-002
1.934334e+003;4.944008e-002
1.936262e+003;4.962264e-002
1.938191e+003;4.972751e-002
1.940119e+003;4.977392e-002
1.942048e+003;4.981855e-002
1.943976e+003;4.996518e-002
1.945905e+003;4.994793e-002
1.947833e+003;4.993637e-002
1.949762e+003;5.001038e-002
1.951691e+003;5.013156e-002
1.953619e+003;5.043345e-002
1.955548e+003;5.064611e-002
1.957476e+003;5.074795e-002
1.959405e+003;5.074054e-002
1.961333e+003;5.068762e-002
1.963262e+003;5.069693e-002
1.965190e+003;5.071730e-002
1.967119e+003;5.077845e-002
1.969047e+003;5.097444e-002
1.970976e+003;5.116957e-002
1.972905e+003;5.116488e-002
1.974833e+003;5.108049e-002
1.976762e+003;5.123478e-002
1.978690e+003;5.137442e-002
1.980619e+003;5.139028e-002
1.982547e+003;5.158948e-002
1.984476e+003;5.188973e-002
1.986404e+003;5.185505e-002
1.988333e+003;5.188025e-002
1.990261e+003;5.228810e-002
1.992190e+003;5.232338e-002
1.994119e+003;5.206579e-002
1.996047e+003;5.199056e-002
1.997976e+003;5.217775e-002
1.999904e+003;5.229528e-002
2.001833e+003;5.256277e-002
2.003761e+003;5.277643e-002
2.005690e+003;5.278691e-002
2.007618e+003;5.271904e-002
2.009547e+003;5.278332e-002
2.011476e+003;5.291430e-002
2.013404e+003;5.297980e-002
2.015333e+003;5.301813e-002
2.017261e+003;5.334039e-002
2.019190e+003;5.367897e-002
2.021118e+003;5.387923e-002
2.023047e+003;5.386971e-002
2.024975e+003;5.400318e-002
2.026904e+003;5.412060e-002
2.028833e+003;5.399530e-002
2.030761e+003;5.412488e-002
2.032690e+003;5.421666e-002
2.034618e+003;5.427402e-002
2.036547e+003;5.446010e-002
2.038475e+003;5.471596e-002
2.040404e+003;5.489828e-002
2.042332e+003;5.515086e-002
2.044261e+003;5.531751e-002
2.046189e+003;5.522750e-002
2.048118e+003;5.523337e-002
2.050047e+003;5.513943e-002
2.051975e+003;5.486669e-002
2.053904e+003;5.480609e-002
2.055832e+003;5.494080e-002
2.057761e+003;5.496400e-002
2.059689e+003;5.500861e-002
2.061618e+003;5.504648e-002
2.063546e+003;5.505253e-002
2.065475e+003;5.489501e-002
2.067404e+003;5.479102e-002
2.069332e+003;5.500078e-002
2.071260e+003;5.507800e-002
2.073189e+003;5.488741e-002
2.075118e+003;5.472915e-002
2.077046e+003;5.456765e-002
2.078975e+003;5.461596e-002
2.080903e+003;5.451227e-002
2.082832e+003;5.429205e-002
2.084760e+003;5.435952e-002
2.086689e+003;5.484632e-002
2.088617e+003;5.518457e-002
2.090546e+003;5.503948e-002
2.092475e+003;5.489192e-002
2.094403e+003;5.483297e-002
2.096332e+003;5.487169e-002
2.098260e+003;5.489580e-002
2.100189e+003;5.470408e-002
2.102117e+003;5.471881e-002
2.104046e+003;5.501045e-002
2.105974e+003;5.535353e-002
2.107903e+003;5.545468e-002
2.109832e+003;5.537589e-002
2.111760e+003;5.540262e-002
2.113688e+003;5.530073e-002
2.115617e+003;5.550671e-002
2.117546e+003;5.600151e-002
2.119474e+003;5.612068e-002
2.121403e+003;5.598172e-002
2.123331e+003;5.593525e-002
2.125260e+003;5.620748e-002
2.127188e+003;5.663135e-002
2.129117e+003;5.666264e-002
2.131045e+003;5.656902e-002
2.132974e+003;5.643796e-002
2.134903e+003;5.627555e-002
2.136831e+003;5.610371e-002
2.138760e+003;5.600437e-002
2.140688e+003;5.595608e-002
2.142617e+003;5.581255e-002
2.144545e+003;5.568469e-002
2.146474e+003;5.572032e-002
2.148402e+003;5.591508e-002
2.150331e+003;5.593573e-002
2.152260e+003;5.573234e-002
2.154188e+003;5.548310e-002
2.156117e+003;5.533012e-002
2.158045e+003;5.523172e-002
2.159974e+003;5.521870e-002
2.161902e+003;5.537879e-002
2.163831e+003;5.514774e-002
2.165759e+003;5.468477e-002
2.167688e+003;5.453000e-002
2.169616e+003;5.451137e-002
2.171545e+003;5.442870e-002
2.173474e+003;5.425709e-002
2.175402e+003;5.407212e-002
2.177331e+003;5.404851e-002
2.179259e+003;5.410015e-002
2.181188e+003;5.399478e-002
2.183116e+003;5.394897e-002
2.185045e+003;5.367586e-002
2.186973e+003;5.327532e-002
2.188902e+003;5.317693e-002
2.190831e+003;5.320749e-002
2.192759e+003;5.319592e-002
2.194688e+003;5.339509e-002
2.196616e+003;5.347682e-002
2.198545e+003;5.331619e-002
2.200473e+003;5.307845e-002
2.202402e+003;5.290468e-002
2.204330e+003;5.269480e-002
2.206259e+003;5.237370e-002
2.208188e+003;5.250548e-002
2.210116e+003;5.280337e-002
2.212044e+003;5.282684e-002
2.213973e+003;5.278747e-002
2.215902e+003;5.280577e-002
2.217830e+003;5.288825e-002
2.219759e+003;5.288286e-002
2.221687e+003;5.264475e-002
2.223616e+003;5.261053e-002
2.225544e+003;5.272076e-002
2.227473e+003;5.280255e-002
2.229401e+003;5.272970e-002
2.231330e+003;5.267049e-002
2.233259e+003;5.267000e-002
2.235187e+003;5.267524e-002
2.237116e+003;5.271224e-002
2.239044e+003;5.265728e-002
2.240973e+003;5.259875e-002
2.242901e+003;5.260066e-002
2.244830e+003;5.248555e-002
2.246758e+003;5.237347e-002
2.248687e+003;5.238155e-002
2.250615e+003;5.228156e-002
2.252544e+003;5.220353e-002
2.254473e+003;5.243362e-002
2.256401e+003;5.241732e-002
2.258330e+003;5.210333e-002
2.260258e+003;5.184694e-002
2.262187e+003;5.171215e-002
2.264115e+003;5.151333e-002
2.266044e+003;5.149203e-002
2.267972e+003;5.146409e-002
2.269901e+003;5.132728e-002
2.271830e+003;5.133127e-002
2.273758e+003;5.149226e-002
2.275687e+003;5.152941e-002
2.277615e+003;5.138013e-002
2.279544e+003;5.132061e-002
2.281472e+003;5.104244e-002
2.283401e+003;5.060958e-002
2.285329e+003;5.066141e-002
2.287258e+003;5.108388e-002
2.289187e+003;5.116022e-002
2.291115e+003;5.074996e-002
2.293043e+003;5.050688e-002
2.294972e+003;5.034932e-002
2.296901e+003;5.028775e-002
2.298829e+003;5.045637e-002
2.300758e+003;5.041268e-002
2.302686e+003;5.038076e-002
2.304615e+003;5.061189e-002
2.306543e+003;5.068855e-002
2.308472e+003;5.060582e-002
2.310400e+003;5.059626e-002
2.312329e+003;5.048868e-002
2.314258e+003;5.059011e-002
2.316186e+003;5.081935e-002
2.318115e+003;5.057102e-002
2.320043e+003;5.015503e-002
2.321972e+003;5.029507e-002
2.323900e+003;5.078072e-002
2.325829e+003;5.080240e-002
2.327757e+003;5.067083e-002
2.329686e+003;5.078299e-002
2.331615e+003;5.094966e-002
2.333543e+003;5.112052e-002
2.335472e+003;5.138039e-002
2.337400e+003;5.150386e-002
2.339329e+003;5.151180e-002
2.341257e+003;5.164034e-002
2.343186e+003;5.181503e-002
2.345114e+003;5.201738e-002
2.347043e+003;5.216920e-002
2.348971e+003;5.222831e-002
2.350900e+003;5.247183e-002
2.352829e+003;5.268597e-002
2.354757e+003;5.270146e-002
2.356686e+003;5.266454e-002
2.358614e+003;5.288263e-002
2.360543e+003;5.299324e-002
2.362471e+003;5.301817e-002
2.364400e+003;5.319487e-002
2.366328e+003;5.332181e-002
2.368257e+003;5.327629e-002
2.370186e+003;5.330858e-002
2.372114e+003;5.335560e-002
2.374042e+003;5.338700e-002
2.375971e+003;5.332997e-002
2.377900e+003;5.342079e-002
2.379828e+003;5.343084e-002
2.381757e+003;5.347356e-002
2.383685e+003;5.350901e-002
2.385614e+003;5.357828e-002
2.387542e+003;5.381858e-002
2.389471e+003;5.387439e-002
2.391399e+003;5.382957e-002
2.393328e+003;5.397527e-002
2.395257e+003;5.442310e-002
2.397185e+003;5.465775e-002
2.399114e+003;5.483722e-002
2.401042e+003;5.495565e-002
2.402971e+003;5.502399e-002
2.404899e+003;5.501143e-002
2.406828e+003;5.509387e-002
2.408756e+003;5.512378e-002
2.410685e+003;5.487564e-002
2.412614e+003;5.490598e-002
2.414542e+003;5.574669e-002
2.416471e+003;5.613104e-002
2.418399e+003;5.597414e-002
2.420328e+003;5.628762e-002
2.422256e+003;5.655223e-002
2.424185e+003;5.656883e-002
2.426113e+003;5.670206e-002
2.428042e+003;5.689979e-002
2.429970e+003;5.702672e-002
2.431899e+003;5.706322e-002
2.433828e+003;5.722471e-002
2.435756e+003;5.716771e-002
2.437685e+003;5.689763e-002
2.439613e+003;5.695800e-002
2.441542e+003;5.726459e-002
2.443470e+003;5.773085e-002
2.445399e+003;5.808723e-002
2.447327e+003;5.818371e-002
2.449256e+003;5.838633e-002
2.451185e+003;5.853845e-002
2.453113e+003;5.850862e-002
2.455042e+003;5.847154e-002
2.456970e+003;5.848753e-002
2.458899e+003;5.856507e-002
2.460827e+003;5.851233e-002
2.462756e+003;5.862077e-002
2.464684e+003;5.877424e-002
2.466613e+003;5.862684e-002
2.468542e+003;5.860932e-002
2.470470e+003;5.908128e-002
2.472398e+003;5.931417e-002
2.474327e+003;5.937137e-002
2.476256e+003;5.952453e-002
2.478184e+003;5.964357e-002
2.480113e+003;5.963551e-002
2.482041e+003;5.989372e-002
2.483970e+003;6.029421e-002
2.485898e+003;6.050501e-002
2.487827e+003;6.058610e-002
2.489755e+003;6.068611e-002
2.491684e+003;6.082696e-002
2.493613e+003;6.075962e-002
2.495541e+003;6.054915e-002
2.497470e+003;6.069522e-002
2.499398e+003;6.090408e-002
2.501327e+003;6.107856e-002
2.503255e+003;6.157914e-002
2.505184e+003;6.176650e-002
2.507112e+003;6.169141e-002
2.509041e+003;6.148579e-002
2.510969e+003;6.154821e-002
2.512898e+003;6.189635e-002
2.514827e+003;6.199555e-002
2.516755e+003;6.202437e-002
2.518684e+003;6.217564e-002
2.520612e+003;6.213178e-002
2.522541e+003;6.224974e-002
2.524469e+003;6.244347e-002
2.526398e+003;6.272579e-002
2.528326e+003;6.275638e-002
2.530255e+003;6.240522e-002
2.532184e+003;6.243674e-002
2.534112e+003;6.263790e-002
2.536041e+003;6.270929e-002
2.537969e+003;6.270880e-002
2.539898e+003;6.252944e-002
2.541826e+003;6.255734e-002
2.543755e+003;6.303385e-002
2.545683e+003;6.322452e-002
2.547612e+003;6.293797e-002
2.549541e+003;6.274049e-002
2.551469e+003;6.282591e-002
2.553397e+003;6.276301e-002
2.555326e+003;6.258784e-002
2.557255e+003;6.302944e-002
2.559183e+003;6.353343e-002
2.561112e+003;6.350535e-002
2.563040e+003;6.342754e-002
2.564969e+003;6.338859e-002
2.566897e+003;6.333089e-002
2.568826e+003;6.305277e-002
2.570754e+003;6.255294e-002
2.572683e+003;6.288236e-002
2.574612e+003;6.358129e-002
2.576540e+003;6.390078e-002
2.578469e+003;6.359755e-002
2.580397e+003;6.350140e-002
2.582326e+003;6.384842e-002
2.584254e+003;6.402628e-002
2.586183e+003;6.400892e-002
2.588111e+003;6.382198e-002
2.590040e+003;6.402916e-002
2.591969e+003;6.437895e-002
2.593897e+003;6.425976e-002
2.595826e+003;6.409924e-002
2.597754e+003;6.434924e-002
2.599683e+003;6.449152e-002
2.601611e+003;6.478964e-002
2.603540e+003;6.510212e-002
2.605468e+003;6.496041e-002
2.607397e+003;6.476056e-002
2.609325e+003;6.505624e-002
2.611254e+003;6.517403e-002
2.613183e+003;6.510978e-002
2.615111e+003;6.556358e-002
2.617040e+003;6.597339e-002
2.618968e+003;6.593991e-002
2.620897e+003;6.582423e-002
2.622825e+003;6.587824e-002
2.624754e+003;6.600421e-002
2.626682e+003;6.614822e-002
2.628611e+003;6.612504e-002
2.630540e+003;6.636184e-002
2.632468e+003;6.674527e-002
2.634396e+003;6.685201e-002
2.636325e+003;6.677348e-002
2.638254e+003;6.679389e-002
2.640182e+003;6.699812e-002
2.642111e+003;6.731398e-002
2.644039e+003;6.759197e-002
2.645968e+003;6.771452e-002
2.647896e+003;6.741985e-002
2.649825e+003;6.737004e-002
2.651753e+003;6.773485e-002
2.653682e+003;6.774016e-002
2.655611e+003;6.775135e-002
2.657539e+003;6.802238e-002
2.659468e+003;6.840751e-002
2.661396e+003;6.855105e-002
2.663325e+003;6.848738e-002
2.665253e+003;6.856847e-002
2.667182e+003;6.868089e-002
2.669110e+003;6.870154e-002
2.671039e+003;6.875805e-002
2.672968e+003;6.877513e-002
2.674896e+003;6.868427e-002
2.676825e+003;6.896807e-002
2.678753e+003;6.922854e-002
2.680682e+003;6.946784e-002
2.682610e+003;6.969570e-002
2.684539e+003;6.948922e-002
2.686467e+003;6.942965e-002
2.688396e+003;6.969181e-002
2.690324e+003;6.997763e-002
2.692253e+003;7.004378e-002
2.694182e+003;7.040726e-002
2.696110e+003;7.095741e-002
2.698039e+003;7.096334e-002
2.699967e+003;7.064832e-002
2.701896e+003;7.080597e-002
2.703824e+003;7.103669e-002
2.705753e+003;7.096716e-002
2.707681e+003;7.080422e-002
2.709610e+003;7.077388e-002
2.711539e+003;7.122014e-002
2.713467e+003;7.149525e-002
2.715396e+003;7.138846e-002
2.717324e+003;7.146576e-002
2.719253e+003;7.167002e-002
2.721181e+003;7.189016e-002
2.723110e+003;7.188281e-002
2.725038e+003;7.194483e-002
2.726967e+003;7.219720e-002
2.728896e+003;7.210112e-002
2.730824e+003;7.215530e-002
2.732752e+003;7.250923e-002
2.734681e+003;7.254149e-002
2.736610e+003;7.239287e-002
2.738538e+003;7.208589e-002
2.740467e+003;7.228348e-002
2.742395e+003;7.268738e-002
2.744324e+003;7.250625e-002
2.746252e+003;7.230876e-002
2.748181e+003;7.251322e-002
2.750109e+003;7.306036e-002
2.752038e+003;7.326608e-002
2.753967e+003;7.293674e-002
2.755895e+003;7.294414e-002
2.757824e+003;7.313318e-002
2.759752e+003;7.308816e-002
2.761681e+003;7.309984e-002
2.763609e+003;7.313102e-002
2.765538e+003;7.314859e-002
2.767466e+003;7.322709e-002
2.769395e+003;7.336289e-002
2.771323e+003;7.356914e-002
2.773252e+003;7.385801e-002
2.775181e+003;7.426503e-002
2.777109e+003;7.455580e-002
2.779038e+003;7.456858e-002
2.780966e+003;7.431747e-002
2.782895e+003;7.443348e-002
2.784823e+003;7.501100e-002
2.786752e+003;7.509989e-002
2.788680e+003;7.527470e-002
2.790609e+003;7.564641e-002
2.792538e+003;7.588160e-002
2.794466e+003;7.633732e-002
2.796395e+003;7.671050e-002
2.798323e+003;7.685589e-002
2.800252e+003;7.690929e-002
2.802180e+003;7.699706e-002
2.804109e+003;7.732139e-002
2.806037e+003;7.779627e-002
2.807966e+003;7.807197e-002
2.809895e+003;7.810445e-002
2.811823e+003;7.852869e-002
2.813751e+003;7.939926e-002
2.815680e+003;7.981210e-002
2.817609e+003;7.967152e-002
2.819537e+003;7.970787e-002
2.821466e+003;8.021218e-002
2.823394e+003;8.074526e-002
2.825323e+003;8.149374e-002
2.827251e+003;8.227797e-002
2.829180e+003;8.296689e-002
2.831108e+003;8.330812e-002
2.833037e+003;8.354513e-002
2.834966e+003;8.434493e-002
2.836894e+003;8.525290e-002
2.838823e+003;8.611386e-002
2.840751e+003;8.700986e-002
2.842680e+003;8.774240e-002
2.844608e+003;8.877751e-002
2.846537e+003;9.037051e-002
2.848465e+003;9.192166e-002
2.850394e+003;9.331194e-002
2.852323e+003;9.433527e-002
2.854251e+003;9.535480e-002
2.856180e+003;9.651416e-002
2.858108e+003;9.736585e-002
2.860037e+003;9.828027e-002
2.861965e+003;9.912132e-002
2.863894e+003;1.000938e-001
2.865822e+003;1.011258e-001
2.867751e+003;1.018267e-001
2.869679e+003;1.024484e-001
2.871608e+003;1.027675e-001
2.873536e+003;1.033804e-001
2.875465e+003;1.042305e-001
2.877394e+003;1.046628e-001
2.879322e+003;1.048146e-001
2.881251e+003;1.050866e-001
2.883179e+003;1.058380e-001
2.885108e+003;1.064944e-001
2.887036e+003;1.069084e-001
2.888965e+003;1.073775e-001
2.890893e+003;1.076542e-001
2.892822e+003;1.082148e-001
2.894750e+003;1.088906e-001
2.896679e+003;1.089148e-001
2.898608e+003;1.085403e-001
2.900536e+003;1.081409e-001
2.902465e+003;1.078948e-001
2.904393e+003;1.073523e-001
2.906322e+003;1.060986e-001
2.908250e+003;1.052648e-001
2.910179e+003;1.046568e-001
2.912107e+003;1.036171e-001
2.914036e+003;1.027041e-001
2.915965e+003;1.021280e-001
2.917893e+003;1.012866e-001
2.919822e+003;1.000274e-001
2.921750e+003;9.919368e-002
2.923679e+003;9.796130e-002
2.925607e+003;9.672786e-002
2.927536e+003;9.555492e-002
2.929464e+003;9.429888e-002
2.931393e+003;9.330869e-002
2.933322e+003;9.215437e-002
2.935250e+003;9.132338e-002
2.937178e+003;9.075614e-002
2.939107e+003;8.983030e-002
2.941036e+003;8.881418e-002
2.942964e+003;8.846714e-002
2.944893e+003;8.785810e-002
2.946821e+003;8.684339e-002
2.948750e+003;8.582655e-002
2.950678e+003;8.487868e-002
2.952607e+003;8.379453e-002
2.954535e+003;8.259937e-002
2.956464e+003;8.151113e-002
2.958393e+003;8.109815e-002
2.960321e+003;8.021673e-002
2.962250e+003;7.901276e-002
2.964178e+003;7.845807e-002
2.966107e+003;7.812972e-002
2.968035e+003;7.760222e-002
2.969964e+003;7.689603e-002
2.971892e+003;7.632429e-002
2.973821e+003;7.565315e-002
2.975750e+003;7.515193e-002
2.977678e+003;7.434204e-002
2.979607e+003;7.320290e-002
2.981535e+003;7.233557e-002
2.983464e+003;7.202836e-002
2.985392e+003;7.190393e-002
2.987321e+003;7.158792e-002
2.989249e+003;7.108321e-002
2.991178e+003;7.091172e-002
2.993106e+003;7.083230e-002
2.995035e+003;7.088383e-002
2.996964e+003;7.112832e-002
2.998892e+003;7.101484e-002
3.000821e+003;7.077356e-002
3.002749e+003;7.050620e-002
3.004678e+003;7.028009e-002
3.006606e+003;7.040074e-002
3.008535e+003;7.046866e-002
3.010463e+003;7.035707e-002
3.012392e+003;7.044329e-002
3.014321e+003;7.063733e-002
3.016249e+003;7.083581e-002
3.018177e+003;7.117415e-002
3.020106e+003;7.131263e-002
3.022035e+003;7.150330e-002
3.023963e+003;7.169534e-002
3.025892e+003;7.149380e-002
3.027820e+003;7.155705e-002
3.029749e+003;7.228293e-002
3.031677e+003;7.275590e-002
3.033606e+003;7.282203e-002
3.035534e+003;7.294841e-002
3.037463e+003;7.324757e-002
3.039392e+003;7.347990e-002
3.041320e+003;7.342606e-002
3.043249e+003;7.340947e-002
3.045177e+003;7.372539e-002
3.047106e+003;7.390589e-002
3.049034e+003;7.419167e-002
3.050963e+003;7.445274e-002
3.052891e+003;7.456634e-002
3.054820e+003;7.497469e-002
3.056749e+003;7.526516e-002
3.058677e+003;7.555106e-002
3.060606e+003;7.564487e-002
3.062534e+003;7.558899e-002
3.064463e+003;7.596862e-002
3.066391e+003;7.638248e-002
3.068320e+003;7.656389e-002
3.070248e+003;7.719698e-002
3.072177e+003;7.792462e-002
3.074105e+003;7.806372e-002
3.076034e+003;7.790270e-002
3.077963e+003;7.837619e-002
3.079891e+003;7.884192e-002
3.081820e+003;7.885011e-002
3.083748e+003;7.899030e-002
3.085677e+003;7.910419e-002
3.087605e+003;7.945173e-002
3.089534e+003;8.032247e-002
3.091462e+003;8.092318e-002
3.093391e+003;8.092961e-002
3.095320e+003;8.118214e-002
3.097248e+003;8.145981e-002
3.099177e+003;8.165027e-002
3.101105e+003;8.202339e-002
3.103034e+003;8.258342e-002
3.104962e+003;8.310305e-002
3.106891e+003;8.318775e-002
3.108819e+003;8.339896e-002
3.110748e+003;8.386570e-002
3.112677e+003;8.442803e-002
3.114605e+003;8.499032e-002
3.116533e+003;8.507124e-002
3.118462e+003;8.518326e-002
3.120391e+003;8.535298e-002
3.122319e+003;8.574678e-002
3.124248e+003;8.668801e-002
3.126176e+003;8.745456e-002
3.128105e+003;8.757190e-002
3.130033e+003;8.774917e-002
3.131962e+003;8.819698e-002
3.133890e+003;8.880226e-002
3.135819e+003;8.918118e-002
3.137748e+003;8.976686e-002
3.139676e+003;9.075899e-002
3.141605e+003;9.096702e-002
3.143533e+003;9.055952e-002
3.145462e+003;9.069730e-002
3.147390e+003;9.147129e-002
3.149319e+003;9.259506e-002
3.151247e+003;9.295096e-002
3.153176e+003;9.311543e-002
3.155104e+003;9.381180e-002
3.157033e+003;9.476686e-002
3.158962e+003;9.507743e-002
3.160890e+003;9.527243e-002
3.162819e+003;9.586341e-002
3.164747e+003;9.615641e-002
3.166676e+003;9.655327e-002
3.168604e+003;9.709088e-002
3.170533e+003;9.805992e-002
3.172461e+003;9.948394e-002
3.174390e+003;9.995491e-002
3.176319e+003;9.984260e-002
3.178247e+003;1.003420e-001
3.180176e+003;1.008877e-001
3.182104e+003;1.012150e-001
3.184033e+003;1.020614e-001
3.185961e+003;1.031718e-001
3.187890e+003;1.037310e-001
3.189818e+003;1.038451e-001
3.191747e+003;1.046307e-001
3.193676e+003;1.056418e-001
3.195604e+003;1.058602e-001
3.197532e+003;1.063874e-001
3.199461e+003;1.078854e-001
3.201390e+003;1.087000e-001
3.203318e+003;1.092215e-001
3.205247e+003;1.103315e-001
3.207175e+003;1.109598e-001
3.209104e+003;1.110785e-001
3.211032e+003;1.118538e-001
3.212961e+003;1.128710e-001
3.214889e+003;1.141014e-001
3.216818e+003;1.151765e-001
3.218747e+003;1.157439e-001
3.220675e+003;1.163582e-001
3.222604e+003;1.174759e-001
3.224532e+003;1.187077e-001
3.226461e+003;1.197065e-001
3.228389e+003;1.204482e-001
3.230318e+003;1.211940e-001
3.232246e+003;1.219658e-001
3.234175e+003;1.229352e-001
3.236104e+003;1.240730e-001
3.238032e+003;1.251584e-001
3.239961e+003;1.258507e-001
3.241889e+003;1.265023e-001
3.243818e+003;1.276268e-001
3.245746e+003;1.286243e-001
3.247675e+003;1.293418e-001
3.249603e+003;1.301810e-001
3.251532e+003;1.314803e-001
3.253460e+003;1.327273e-001
3.255389e+003;1.338605e-001
3.257318e+003;1.351360e-001
3.259246e+003;1.363027e-001
3.261175e+003;1.374436e-001
3.263103e+003;1.385495e-001
3.265032e+003;1.392504e-001
3.266960e+003;1.400255e-001
3.268889e+003;1.412562e-001
3.270817e+003;1.423436e-001
3.272746e+003;1.429357e-001
3.274675e+003;1.434598e-001
3.276603e+003;1.444636e-001
3.278531e+003;1.453247e-001
3.280460e+003;1.458452e-001
3.282389e+003;1.459005e-001
3.284317e+003;1.467035e-001
3.286246e+003;1.477518e-001
3.288174e+003;1.481920e-001
3.290103e+003;1.483286e-001
3.292031e+003;1.486731e-001
3.293960e+003;1.488382e-001
3.295888e+003;1.490918e-001
3.297817e+003;1.497714e-001
3.299746e+003;1.498835e-001
3.301674e+003;1.502884e-001
3.303603e+003;1.506627e-001
3.305531e+003;1.509263e-001
3.307460e+003;1.514018e-001
3.309388e+003;1.516939e-001
3.311317e+003;1.517219e-001
3.313245e+003;1.518553e-001
3.315174e+003;1.522239e-001
3.317103e+003;1.528801e-001
3.319031e+003;1.535036e-001
3.320960e+003;1.537064e-001
3.322888e+003;1.537866e-001
3.324817e+003;1.545583e-001
3.326745e+003;1.549079e-001
3.328674e+003;1.549815e-001
3.330602e+003;1.552691e-001
3.332531e+003;1.556228e-001
3.334459e+003;1.557202e-001
3.336388e+003;1.558290e-001
3.338317e+003;1.558743e-001
3.340245e+003;1.555280e-001
3.342174e+003;1.551846e-001
3.344102e+003;1.547179e-001
3.346031e+003;1.540022e-001
3.347959e+003;1.529948e-001
3.349888e+003;1.519430e-001
3.351816e+003;1.512334e-001
3.353745e+003;1.503395e-001
3.355674e+003;1.499182e-001
3.357602e+003;1.493595e-001
3.359531e+003;1.484244e-001
3.361459e+003;1.477185e-001
3.363388e+003;1.467561e-001
3.365316e+003;1.458087e-001
3.367245e+003;1.451742e-001
3.369173e+003;1.447668e-001
3.371102e+003;1.441581e-001
3.373031e+003;1.435457e-001
3.374959e+003;1.433816e-001
3.376887e+003;1.424757e-001
3.378816e+003;1.413717e-001
3.380745e+003;1.403857e-001
3.382673e+003;1.396701e-001
3.384602e+003;1.399652e-001
3.386530e+003;1.397962e-001
3.388459e+003;1.385321e-001
3.390387e+003;1.378496e-001
3.392316e+003;1.373860e-001
3.394244e+003;1.365153e-001
3.396173e+003;1.360792e-001
3.398102e+003;1.351289e-001
3.400030e+003;1.339881e-001
3.401959e+003;1.331262e-001
3.403887e+003;1.320497e-001
3.405816e+003;1.316920e-001
3.407744e+003;1.322386e-001
3.409673e+003;1.318672e-001
3.411601e+003;1.307287e-001
3.413530e+003;1.297743e-001
3.415458e+003;1.283142e-001
3.417387e+003;1.268418e-001
3.419316e+003;1.262021e-001
3.421244e+003;1.255189e-001
3.423173e+003;1.245720e-001
3.425101e+003;1.236643e-001
3.427030e+003;1.228627e-001
3.428958e+003;1.219856e-001
3.430887e+003;1.214115e-001
3.432815e+003;1.204930e-001
3.434744e+003;1.191494e-001
3.436673e+003;1.185894e-001
3.438601e+003;1.178877e-001
3.440530e+003;1.169120e-001
3.442458e+003;1.163963e-001
3.444387e+003;1.158344e-001
3.446315e+003;1.148390e-001
3.448244e+003;1.132991e-001
3.450172e+003;1.121868e-001
3.452101e+003;1.112327e-001
3.454030e+003;1.099980e-001
3.455958e+003;1.088069e-001
3.457886e+003;1.080311e-001
3.459815e+003;1.073123e-001
3.461744e+003;1.063405e-001
3.463672e+003;1.058860e-001
3.465601e+003;1.049488e-001
3.467529e+003;1.039552e-001
3.469458e+003;1.036877e-001
3.471386e+003;1.030400e-001
3.473315e+003;1.016970e-001
3.475243e+003;9.993189e-002
3.477172e+003;9.854386e-002
3.479101e+003;9.810036e-002
3.481029e+003;9.740345e-002
3.482958e+003;9.621286e-002
3.484886e+003;9.519020e-002
3.486815e+003;9.422305e-002
3.488743e+003;9.342812e-002
3.490672e+003;9.234998e-002
3.492600e+003;9.126741e-002
3.494529e+003;9.090889e-002
3.496458e+003;8.995537e-002
3.498386e+003;8.884840e-002
3.500315e+003;8.814965e-002
3.502243e+003;8.706056e-002
3.504172e+003;8.578606e-002
3.506100e+003;8.472207e-002
3.508029e+003;8.402365e-002
3.509957e+003;8.353224e-002
3.511886e+003;8.301346e-002
3.513814e+003;8.206258e-002
3.515743e+003;8.084874e-002
3.517672e+003;7.981095e-002
3.519600e+003;7.949060e-002
3.521529e+003;7.905680e-002
3.523457e+003;7.800638e-002
3.525386e+003;7.661650e-002
3.527314e+003;7.567788e-002
3.529243e+003;7.467891e-002
3.531171e+003;7.360918e-002
3.533100e+003;7.290401e-002
3.535029e+003;7.251369e-002
3.536957e+003;7.214336e-002
3.538885e+003;7.114987e-002
3.540814e+003;7.038154e-002
3.542743e+003;6.973962e-002
3.544671e+003;6.842807e-002
3.546600e+003;6.721827e-002
3.548528e+003;6.729212e-002
3.550457e+003;6.694064e-002
3.552385e+003;6.619908e-002
3.554314e+003;6.567296e-002
3.556242e+003;6.493314e-002
3.558171e+003;6.401157e-002
3.560100e+003;6.298271e-002
3.562028e+003;6.281205e-002
3.563957e+003;6.258348e-002
3.565885e+003;6.165108e-002
3.567814e+003;6.080924e-002
3.569742e+003;6.017351e-002
3.571671e+003;5.960195e-002
3.573599e+003;5.937783e-002
3.575528e+003;5.857982e-002
3.577457e+003;5.757485e-002
3.579385e+003;5.729196e-002
3.581314e+003;5.675393e-002
3.583242e+003;5.634191e-002
3.585171e+003;5.624968e-002
3.587099e+003;5.549229e-002
3.589028e+003;5.476313e-002
3.590956e+003;5.415330e-002
3.592885e+003;5.345171e-002
3.594813e+003;5.322228e-002
3.596742e+003;5.290921e-002
3.598671e+003;5.228922e-002
3.600599e+003;5.176922e-002
3.602528e+003;5.147856e-002
3.604456e+003;5.144857e-002
3.606385e+003;5.100492e-002
3.608313e+003;5.066621e-002
3.610242e+003;5.028882e-002
3.612170e+003;4.945586e-002
3.614099e+003;4.937217e-002
3.616028e+003;4.935317e-002
3.617956e+003;4.888999e-002
3.619885e+003;4.828219e-002
3.621813e+003;4.752078e-002
3.623742e+003;4.688511e-002
3.625670e+003;4.675859e-002
3.627599e+003;4.672036e-002
3.629527e+003;4.640453e-002
3.631456e+003;4.585075e-002
3.633385e+003;4.522763e-002
3.635313e+003;4.490343e-002
3.637241e+003;4.464693e-002
3.639170e+003;4.423137e-002
3.641099e+003;4.388072e-002
3.643027e+003;4.304838e-002
3.644956e+003;4.195238e-002
3.646884e+003;4.121695e-002
3.648813e+003;4.114773e-002
3.650741e+003;4.111608e-002
3.652670e+003;4.118183e-002
3.654598e+003;4.081303e-002
3.656527e+003;3.988203e-002
3.658456e+003;3.935377e-002
3.660384e+003;3.905372e-002
3.662313e+003;3.871740e-002
3.664241e+003;3.798265e-002
3.666170e+003;3.726704e-002
3.668098e+003;3.651679e-002
3.670027e+003;3.633954e-002
3.671955e+003;3.638468e-002
3.673884e+003;3.605352e-002
3.675813e+003;3.592739e-002
3.677741e+003;3.582511e-002
3.679669e+003;3.547395e-002
3.681598e+003;3.481839e-002
3.683527e+003;3.448372e-002
3.685455e+003;3.428388e-002
3.687384e+003;3.437059e-002
3.689312e+003;3.423189e-002
3.691241e+003;3.330519e-002
3.693169e+003;3.260450e-002
3.695098e+003;3.281306e-002
3.697026e+003;3.297865e-002
3.698955e+003;3.287650e-002
3.700884e+003;3.267422e-002
3.702812e+003;3.275489e-002
3.704741e+003;3.284087e-002
3.706669e+003;3.249093e-002
3.708598e+003;3.198025e-002
3.710526e+003;3.185166e-002
3.712455e+003;3.201966e-002
3.714383e+003;3.160200e-002
3.716312e+003;3.117170e-002
3.718240e+003;3.112162e-002
3.720169e+003;3.103673e-002
3.722098e+003;3.121845e-002
3.724026e+003;3.114778e-002
3.725955e+003;3.095393e-002
3.727883e+003;3.127763e-002
3.729812e+003;3.135056e-002
3.731740e+003;3.092162e-002
3.733669e+003;3.100271e-002
3.735597e+003;3.118210e-002
3.737526e+003;3.118737e-002
3.739455e+003;3.105079e-002
3.741383e+003;3.110791e-002
3.743312e+003;3.098556e-002
3.745240e+003;3.047856e-002
3.747169e+003;3.063203e-002
3.749097e+003;3.099947e-002
3.751026e+003;3.112450e-002
3.752954e+003;3.075453e-002
3.754883e+003;3.041594e-002
3.756812e+003;3.032671e-002
3.758740e+003;3.033968e-002
3.760668e+003;3.063100e-002
3.762597e+003;3.146254e-002
3.764526e+003;3.173946e-002
3.766454e+003;3.103566e-002
3.768383e+003;3.080202e-002
3.770311e+003;3.090255e-002
3.772240e+003;3.063445e-002
3.774168e+003;3.094912e-002
3.776097e+003;3.112888e-002
3.778025e+003;3.040357e-002
3.779954e+003;2.978901e-002
3.781883e+003;2.996598e-002
3.783811e+003;3.035663e-002
3.785740e+003;3.084918e-002
3.787668e+003;3.106332e-002
3.789597e+003;3.028838e-002
3.791525e+003;3.018916e-002
3.793454e+003;3.059253e-002
3.795382e+003;3.089607e-002
3.797311e+003;3.139326e-002
3.799240e+003;3.124045e-002
3.801168e+003;3.084438e-002
3.803097e+003;3.059733e-002
3.805025e+003;3.059601e-002
3.806954e+003;3.088899e-002
3.808882e+003;3.150978e-002
3.810811e+003;3.175811e-002
3.812739e+003;3.216811e-002
3.814668e+003;3.203421e-002
3.816596e+003;3.159494e-002
3.818525e+003;3.151734e-002
3.820454e+003;3.153255e-002
3.822382e+003;3.151965e-002
3.824311e+003;3.128546e-002
3.826239e+003;3.109962e-002
3.828168e+003;3.145246e-002
3.830096e+003;3.152906e-002
3.832025e+003;3.105317e-002
3.833953e+003;3.122418e-002
3.835882e+003;3.155525e-002
3.837811e+003;3.108873e-002
3.839739e+003;3.058136e-002
3.841667e+003;3.152154e-002
3.843596e+003;3.222135e-002
3.845525e+003;3.170877e-002
3.847453e+003;3.139483e-002
3.849382e+003;3.212686e-002
3.851310e+003;3.231867e-002
3.853239e+003;3.203671e-002
3.855167e+003;3.210156e-002
3.857096e+003;3.194740e-002
3.859024e+003;3.183882e-002
3.860953e+003;3.220208e-002
3.862882e+003;3.231257e-002
3.864810e+003;3.241980e-002
3.866739e+003;3.263657e-002
3.868667e+003;3.258985e-002
3.870596e+003;3.243694e-002
3.872524e+003;3.263968e-002
3.874453e+003;3.255282e-002
3.876381e+003;3.242680e-002
3.878310e+003;3.276890e-002
3.880239e+003;3.285234e-002
3.882167e+003;3.296092e-002
3.884096e+003;3.299692e-002
3.886024e+003;3.340809e-002
3.887953e+003;3.407636e-002
3.889881e+003;3.396438e-002
3.891810e+003;3.339818e-002
3.893738e+003;3.321018e-002
3.895667e+003;3.350443e-002
3.897595e+003;3.438113e-002
3.899524e+003;3.426828e-002
3.901453e+003;3.402067e-002
3.903381e+003;3.456415e-002
3.905310e+003;3.443364e-002
3.907238e+003;3.403873e-002
3.909167e+003;3.449717e-002
3.911095e+003;3.482643e-002
3.913024e+003;3.495838e-002
3.914952e+003;3.467359e-002
3.916881e+003;3.474526e-002
3.918810e+003;3.492315e-002
3.920738e+003;3.468188e-002
3.922667e+003;3.447084e-002
3.924595e+003;3.443820e-002
3.926524e+003;3.545424e-002
3.928452e+003;3.599901e-002
3.930381e+003;3.560498e-002
3.932309e+003;3.509031e-002
3.934238e+003;3.507949e-002
3.936167e+003;3.577466e-002
3.938095e+003;3.610148e-002
3.940023e+003;3.603098e-002
3.941952e+003;3.534730e-002
3.943881e+003;3.517969e-002
3.945809e+003;3.541585e-002
3.947738e+003;3.557668e-002
3.949666e+003;3.575254e-002
3.951595e+003;3.560326e-002
3.953523e+003;3.540237e-002
3.955452e+003;3.536610e-002
3.957380e+003;3.504318e-002
3.959309e+003;3.529914e-002
3.961238e+003;3.561566e-002
3.963166e+003;3.567462e-002
3.965095e+003;3.641265e-002
3.967023e+003;3.642713e-002
3.968952e+003;3.615372e-002
3.970880e+003;3.642663e-002
3.972809e+003;3.677993e-002
3.974737e+003;3.695050e-002
3.976666e+003;3.664814e-002
3.978594e+003;3.658534e-002
3.980523e+003;3.767903e-002
3.982452e+003;3.792693e-002
3.984380e+003;3.742170e-002
3.986309e+003;3.781467e-002
3.988237e+003;3.735041e-002
3.990166e+003;3.678451e-002
3.992094e+003;3.691890e-002
3.994023e+003;3.640371e-002
3.995951e+003;3.651527e-002
3.997880e+003;3.732427e-002
3.999809e+003;3.755560e-002
4.001737e+003;0.000000e+000
