3.992094e+002;0.000000e+000
4.011380e+002;0.000000e+000
4.030665e+002;0.000000e+000
4.049951e+002;0.000000e+000
4.069236e+002;0.000000e+000
4.088522e+002;0.000000e+000
4.107807e+002;0.000000e+000
4.127093e+002;0.000000e+000
4.146378e+002;0.000000e+000
4.165664e+002;0.000000e+000
4.184949e+002;0.000000e+000
4.204235e+002;0.000000e+000
4.223520e+002;0.000000e+000
4.242806e+002;0.000000e+000
4.262091e+002;0.000000e+000
4.281377e+002;0.000000e+000
4.300662e+002;0.000000e+000
4.319948e+002;0.000000e+000
4.339233e+002;0.000000e+000
4.358519e+002;0.000000e+000
4.377804e+002;0.000000e+000
4.397090e+002;0.000000e+000
4.416375e+002;0.000000e+000
4.435660e+002;0.000000e+000
4.454946e+002;0.000000e+000
4.474232e+002;0.000000e+000
4.493517e+002;0.000000e+000
4.512802e+002;0.000000e+000
4.532088e+002;0.000000e+000
4.551373e+002;0.000000e+000
4.570659e+002;0.000000e+000
4.589944e+002;0.000000e+000
4.609230e+002;0.000000e+000
4.628515e+002;0.000000e+000
4.647801e+002;0.000000e+000
4.667086e+002;0.000000e+000
4.686372e+002;0.000000e+000
4.705657e+002;0.000000e+000
4.724943e+002;0.000000e+000
4.744228e+002;0.000000e+000
4.763513e+002;0.000000e+000
4.782799e+002;0.000000e+000
4.802085e+002;0.000000e+000
4.821370e+002;0.000000e+000
4.840656e+002;0.000000e+000
4.859941e+002;0.000000e+000
4.879226e+002;0.000000e+000
4.898512e+002;0.000000e+000
4.917798e+002;0.000000e+000
4.937083e+002;0.000000e+000
4.956368e+002;0.000000e+000
4.975654e+002;0.000000e+000
4.994939e+002;0.000000e+000
5.014225e+002;0.000000e+000
5.033510e+002;0.000000e+000
5.052796e+002;0.000000e+000
5.072081e+002;0.000000e+000
5.091367e+002;0.000000e+000
5.110652e+002;0.000000e+000
5.129938e+002;0.000000e+000
5.149223e+002;0.000000e+000
5.168509e+002;0.000000e+000
5.187794e+002;0.000000e+000
5.207079e+002;0.000000e+000
5.226365e+002;0.000000e+000
5.245651e+002;0.000000e+000
5.264936e+002;0.000000e+000
5.284222e+002;0.000000e+000
5.303507e+002;0.000000e+000
5.322792e+002;0.000000e+000
5.342078e+002;0.000000e+000
5.361364e+002;0.000000e+000
5.380649e+002;0.000000e+000
5.399935e+002;0.000000e+000
5.419220e+002;0.000000e+000
5.438505e+002;0.000000e+000
5.457791e+002;0.000000e+000
5.477076e+002;0.000000e+000
5.496362e+002;0.000000e+000
5.515648e+002;0.000000e+000
5.534933e+002;0.000000e+000
5.554218e+002;0.000000e+000
5.573504e+002;0.000000e+000
5.592789e+002;0.000000e+000
5.612075e+002;0.000000e+000
5.631360e+002;0.000000e+000
5.650646e+002;0.000000e+000
5.669931e+002;0.000000e+000
5.689217e+002;0.000000e+000
5.708502e+002;0.000000e+000
5.727787e+002;0.000000e+000
5.747073e+002;0.000000e+000
5.766359e+002;0.000000e+000
5.785644e+002;0.000000e+000
5.804930e+002;0.000000e+000
5.824215e+002;0.000000e+000
5.843500e+002;0.000000e+000
5.862786e+002;0.000000e+000
5.882072e+002;0.000000e+000
5.901357e+002;0.000000e+000
5.920643e+002;0.000000e+000
5.939928e+002;0.000000e+000
5.959213e+002;0.000000e+000
5.978499e+002;0.000000e+000
5.997784e+002;1.766705e-001
6.017070e+002;1.794143e-001
6.036355e+002;1.773964e-001
6.055641e+002;1.731277e-001
6.074926e+002;1.691860e-001
6.094211e+002;1.710423e-001
6.113497e+002;1.764906e-001
6.132783e+002;1.814486e-001
6.152068e+002;1.796469e-001
6.171354e+002;1.730073e-001
6.190639e+002;1.700113e-001
6.209924e+002;1.703391e-001
6.229210e+002;1.713532e-001
6.248495e+002;1.674024e-001
6.267781e+002;1.623532e-001
6.287067e+002;1.621205e-001
6.306352e+002;1.637615e-001
6.325637e+002;1.617506e-001
6.344923e+002;1.564484e-001
6.364208e+002;1.554728e-001
6.383494e+002;1.544415e-001
6.402780e+002;1.513337e-001
6.422065e+002;1.508390e-001
6.441350e+002;1.522138e-001
6.460636e+002;1.510392e-001
6.479921e+002;1.513839e-001
6.499207e+002;1.531856e-001
6.518492e+002;1.550269e-001
6.537778e+002;1.547030e-001
6.557063e+002;1.551628e-001
6.576349e+002;1.587477e-001
6.595634e+002;1.609740e-001
6.614919e+002;1.628626e-001
6.634205e+002;1.642949e-001
6.653491e+002;1.632920e-001
6.672776e+002;1.607069e-001
6.692062e+002;1.578563e-001
6.711347e+002;1.547106e-001
6.730632e+002;1.523581e-001
6.749918e+002;1.485527e-001
6.769203e+002;1.442481e-001
6.788489e+002;1.407129e-001
6.807775e+002;1.383516e-001
6.827060e+002;1.384405e-001
6.846345e+002;1.384971e-001
6.865631e+002;1.374503e-001
6.884916e+002;1.363277e-001
6.904202e+002;1.349880e-001
6.923488e+002;1.347607e-001
6.942773e+002;1.348060e-001
6.962058e+002;1.342433e-001
6.981344e+002;1.344921e-001
7.000629e+002;1.344775e-001
7.019915e+002;1.332888e-001
7.039200e+002;1.319707e-001
7.058486e+002;1.314140e-001
7.077771e+002;1.301843e-001
7.097057e+002;1.291152e-001
7.116342e+002;1.284099e-001
7.135627e+002;1.261515e-001
7.154913e+002;1.245553e-001
7.174199e+002;1.230524e-001
7.193484e+002;1.206231e-001
7.212770e+002;1.184615e-001
7.232055e+002;1.178326e-001
7.251340e+002;1.170164e-001
7.270626e+002;1.147782e-001
7.289911e+002;1.123492e-001
7.309197e+002;1.105690e-001
7.328483e+002;1.096631e-001
7.347768e+002;1.086619e-001
7.367053e+002;1.071500e-001
7.386339e+002;1.057294e-001
7.405624e+002;1.046669e-001
7.424910e+002;1.051038e-001
7.444196e+002;1.052098e-001
7.463481e+002;1.041175e-001
7.482766e+002;1.030416e-001
7.502052e+002;1.019993e-001
7.521337e+002;1.004107e-001
7.540623e+002;9.962775e-002
7.559908e+002;9.932057e-002
7.579194e+002;9.816529e-002
7.598479e+002;9.719705e-002
7.617765e+002;9.732078e-002
7.637050e+002;9.762759e-002
7.656335e+002;9.695657e-002
7.675621e+002;9.562317e-002
7.694907e+002;9.551491e-002
7.714192e+002;9.574480e-002
7.733478e+002;9.494819e-002
7.752763e+002;9.376524e-002
7.772048e+002;9.363286e-002
7.791334e+002;9.464843e-002
7.810620e+002;9.473763e-002
7.829905e+002;9.431234e-002
7.849191e+002;9.386636e-002
7.868476e+002;9.266068e-002
7.887761e+002;9.109132e-002
7.907047e+002;9.012346e-002
7.926332e+002;8.944190e-002
7.945618e+002;8.851805e-002
7.964903e+002;8.714619e-002
7.984189e+002;8.664396e-002
8.003474e+002;8.682696e-002
8.022759e+002;8.606086e-002
8.042045e+002;8.576401e-002
8.061331e+002;8.578049e-002
8.080616e+002;8.537681e-002
8.099902e+002;8.512296e-002
8.119187e+002;8.474225e-002
8.138472e+002;8.428808e-002
8.157758e+002;8.448828e-002
8.177043e+002;8.472517e-002
8.196329e+002;8.446023e-002
8.215615e+002;8.417284e-002
8.234900e+002;8.437137e-002
8.254185e+002;8.484347e-002
8.273471e+002;8.550025e-002
8.292756e+002;8.628011e-002
8.312042e+002;8.713546e-002
8.331328e+002;8.686443e-002
8.350613e+002;8.613843e-002
8.369898e+002;8.640958e-002
8.389184e+002;8.707809e-002
8.408469e+002;8.683914e-002
8.427755e+002;8.716965e-002
8.447040e+002;8.786654e-002
8.466326e+002;8.790325e-002
8.485611e+002;8.780894e-002
8.504897e+002;8.828902e-002
8.524182e+002;8.873796e-002
8.543467e+002;8.887625e-002
8.562753e+002;8.878349e-002
8.582039e+002;8.948123e-002
8.601324e+002;9.118798e-002
8.620610e+002;9.205291e-002
8.639895e+002;9.249915e-002
8.659180e+002;9.335758e-002
8.678466e+002;9.413275e-002
8.697751e+002;9.517536e-002
8.717037e+002;9.689315e-002
8.736323e+002;9.858452e-002
8.755608e+002;9.986583e-002
8.774893e+002;1.015375e-001
8.794179e+002;1.027927e-001
8.813464e+002;1.036451e-001
8.832750e+002;1.050785e-001
8.852036e+002;1.070307e-001
8.871321e+002;1.084865e-001
8.890606e+002;1.095613e-001
8.909892e+002;1.115030e-001
8.929177e+002;1.131411e-001
8.948463e+002;1.133838e-001
8.967748e+002;1.133360e-001
8.987034e+002;1.131397e-001
9.006319e+002;1.129910e-001
9.025605e+002;1.125312e-001
9.044890e+002;1.115471e-001
9.064175e+002;1.106436e-001
9.083461e+002;1.095062e-001
9.102747e+002;1.083520e-001
9.122032e+002;1.077228e-001
9.141318e+002;1.067895e-001
9.160603e+002;1.060811e-001
9.179888e+002;1.058376e-001
9.199174e+002;1.058657e-001
9.218459e+002;1.061761e-001
9.237745e+002;1.068379e-001
9.257031e+002;1.075871e-001
9.276316e+002;1.086078e-001
9.295601e+002;1.097375e-001
9.314887e+002;1.104064e-001
9.334172e+002;1.114148e-001
9.353458e+002;1.125055e-001
9.372744e+002;1.137061e-001
9.392029e+002;1.150749e-001
9.411314e+002;1.163336e-001
9.430600e+002;1.174446e-001
9.449885e+002;1.189772e-001
9.469171e+002;1.207637e-001
9.488456e+002;1.223479e-001
9.507742e+002;1.240024e-001
9.527027e+002;1.265294e-001
9.546313e+002;1.293845e-001
9.565598e+002;1.317745e-001
9.584883e+002;1.344714e-001
9.604169e+002;1.376863e-001
9.623455e+002;1.408707e-001
9.642740e+002;1.444340e-001
9.662026e+002;1.479330e-001
9.681311e+002;1.514995e-001
9.700596e+002;1.559988e-001
9.719882e+002;1.609173e-001
9.739167e+002;1.666124e-001
9.758453e+002;1.733301e-001
9.777739e+002;1.808410e-001
9.797024e+002;1.886885e-001
9.816309e+002;1.947476e-001
9.835595e+002;1.980961e-001
9.854880e+002;1.992340e-001
9.874166e+002;1.993414e-001
9.893452e+002;1.996016e-001
9.912737e+002;2.009884e-001
9.932022e+002;2.035340e-001
9.951307e+002;2.064168e-001
9.970593e+002;2.100077e-001
9.989879e+002;2.135781e-001
1.000916e+003;2.151486e-001
1.002845e+003;2.154803e-001
1.004773e+003;2.154175e-001
1.006702e+003;2.149956e-001
1.008631e+003;2.150814e-001
1.010559e+003;2.161786e-001
1.012488e+003;2.182500e-001
1.014416e+003;2.208224e-001
1.016345e+003;2.229246e-001
1.018273e+003;2.248203e-001
1.020202e+003;2.272186e-001
1.022130e+003;2.296058e-001
1.024059e+003;2.316544e-001
1.025988e+003;2.342849e-001
1.027916e+003;2.363458e-001
1.029845e+003;2.369445e-001
1.031773e+003;2.362040e-001
1.033702e+003;2.339004e-001
1.035630e+003;2.303205e-001
1.037559e+003;2.266145e-001
1.039487e+003;2.230022e-001
1.041416e+003;2.213255e-001
1.043344e+003;2.215842e-001
1.045273e+003;2.219531e-001
1.047202e+003;2.232656e-001
1.049130e+003;2.258471e-001
1.051059e+003;2.279727e-001
1.052987e+003;2.285080e-001
1.054916e+003;2.278828e-001
1.056844e+003;2.262615e-001
1.058773e+003;2.227937e-001
1.060701e+003;2.162206e-001
1.062630e+003;2.076863e-001
1.064558e+003;1.988553e-001
1.066487e+003;1.899570e-001
1.068416e+003;1.828211e-001
1.070344e+003;1.778522e-001
1.072273e+003;1.734732e-001
1.074201e+003;1.698687e-001
1.076130e+003;1.671956e-001
1.078058e+003;1.639798e-001
1.079987e+003;1.605360e-001
1.081915e+003;1.584118e-001
1.083844e+003;1.579274e-001
1.085773e+003;1.575910e-001
1.087701e+003;1.571908e-001
1.089630e+003;1.572342e-001
1.091558e+003;1.575112e-001
1.093487e+003;1.587377e-001
1.095415e+003;1.606838e-001
1.097344e+003;1.621392e-001
1.099272e+003;1.633487e-001
1.101201e+003;1.641522e-001
1.103129e+003;1.645477e-001
1.105058e+003;1.643834e-001
1.106987e+003;1.627559e-001
1.108915e+003;1.602615e-001
1.110844e+003;1.567028e-001
1.112772e+003;1.520698e-001
1.114701e+003;1.459149e-001
1.116629e+003;1.393478e-001
1.118558e+003;1.342521e-001
1.120486e+003;1.299333e-001
1.122415e+003;1.261213e-001
1.124344e+003;1.226694e-001
1.126272e+003;1.190199e-001
1.128201e+003;1.152375e-001
1.130129e+003;1.120111e-001
1.132058e+003;1.092924e-001
1.133986e+003;1.073028e-001
1.135915e+003;1.060748e-001
1.137843e+003;1.051786e-001
1.139772e+003;1.053612e-001
1.141700e+003;1.065861e-001
1.143629e+003;1.083145e-001
1.145557e+003;1.096500e-001
1.147486e+003;1.102931e-001
1.149415e+003;1.114793e-001
1.151343e+003;1.131857e-001
1.153272e+003;1.144322e-001
1.155200e+003;1.154767e-001
1.157129e+003;1.165053e-001
1.159057e+003;1.171720e-001
1.160986e+003;1.168682e-001
1.162914e+003;1.153672e-001
1.164843e+003;1.127593e-001
1.166771e+003;1.091322e-001
1.168700e+003;1.044241e-001
1.170629e+003;9.957045e-002
1.172557e+003;9.517045e-002
1.174486e+003;9.163817e-002
1.176414e+003;8.910494e-002
1.178343e+003;8.722789e-002
1.180271e+003;8.542494e-002
1.182200e+003;8.369733e-002
1.184128e+003;8.285156e-002
1.186057e+003;8.302995e-002
1.187986e+003;8.372473e-002
1.189914e+003;8.457310e-002
1.191843e+003;8.599345e-002
1.193771e+003;8.801925e-002
1.195700e+003;9.005529e-002
1.197628e+003;9.159328e-002
1.199557e+003;9.254557e-002
1.201485e+003;9.280946e-002
1.203414e+003;9.275252e-002
1.205343e+003;9.257538e-002
1.207271e+003;9.163576e-002
1.209200e+003;8.943477e-002
1.211128e+003;8.682380e-002
1.213057e+003;8.500592e-002
1.214985e+003;8.439507e-002
1.216914e+003;8.481761e-002
1.218842e+003;8.568995e-002
1.220771e+003;8.652392e-002
1.222699e+003;8.759274e-002
1.224628e+003;8.895832e-002
1.226557e+003;9.043648e-002
1.228485e+003;9.181877e-002
1.230414e+003;9.303813e-002
1.232342e+003;9.398269e-002
1.234271e+003;9.431078e-002
1.236199e+003;9.424298e-002
1.238128e+003;9.474365e-002
1.240056e+003;9.519850e-002
1.241985e+003;9.553923e-002
1.243913e+003;9.615438e-002
1.245842e+003;9.677928e-002
1.247771e+003;9.691627e-002
1.249699e+003;9.669681e-002
1.251628e+003;9.650824e-002
1.253556e+003;9.596486e-002
1.255485e+003;9.522016e-002
1.257413e+003;9.487848e-002
1.259342e+003;9.391535e-002
1.261270e+003;9.278001e-002
1.263199e+003;9.222566e-002
1.265127e+003;9.265174e-002
1.267056e+003;9.415494e-002
1.268985e+003;9.570193e-002
1.270913e+003;9.694750e-002
1.272842e+003;9.819748e-002
1.274770e+003;9.928979e-002
1.276699e+003;9.985636e-002
1.278627e+003;9.999992e-002
1.280556e+003;9.980616e-002
1.282484e+003;9.929729e-002
1.284413e+003;9.858980e-002
1.286342e+003;9.838948e-002
1.288270e+003;9.878376e-002
1.290199e+003;9.893857e-002
1.292127e+003;9.942611e-002
1.294056e+003;1.002183e-001
1.295984e+003;1.009177e-001
1.297913e+003;1.019377e-001
1.299841e+003;1.036382e-001
1.301770e+003;1.057247e-001
1.303698e+003;1.081587e-001
1.305627e+003;1.108445e-001
1.307556e+003;1.136693e-001
1.309484e+003;1.164464e-001
1.311413e+003;1.188900e-001
1.313341e+003;1.206848e-001
1.315270e+003;1.209545e-001
1.317198e+003;1.198614e-001
1.319127e+003;1.179746e-001
1.321055e+003;1.157374e-001
1.322984e+003;1.134064e-001
1.324912e+003;1.115198e-001
1.326841e+003;1.104133e-001
1.328770e+003;1.100959e-001
1.330698e+003;1.102229e-001
1.332627e+003;1.105375e-001
1.334555e+003;1.103659e-001
1.336484e+003;1.096145e-001
1.338412e+003;1.084809e-001
1.340341e+003;1.071255e-001
1.342269e+003;1.053872e-001
1.344198e+003;1.032776e-001
1.346126e+003;1.015206e-001
1.348055e+003;1.006710e-001
1.349984e+003;1.005352e-001
1.351912e+003;1.007214e-001
1.353841e+003;1.012920e-001
1.355769e+003;1.020548e-001
1.357698e+003;1.025799e-001
1.359626e+003;1.030926e-001
1.361555e+003;1.032399e-001
1.363483e+003;1.027683e-001
1.365412e+003;1.024196e-001
1.367341e+003;1.019862e-001
1.369269e+003;1.014853e-001
1.371198e+003;1.008238e-001
1.373126e+003;9.957398e-002
1.375055e+003;9.788508e-002
1.376983e+003;9.590564e-002
1.378912e+003;9.397360e-002
1.380840e+003;9.226536e-002
1.382769e+003;9.070228e-002
1.384698e+003;8.939394e-002
1.386626e+003;8.839476e-002
1.388555e+003;8.754718e-002
1.390483e+003;8.687710e-002
1.392412e+003;8.650564e-002
1.394340e+003;8.636022e-002
1.396269e+003;8.630153e-002
1.398197e+003;8.654705e-002
1.400126e+003;8.683553e-002
1.402054e+003;8.701403e-002
1.403983e+003;8.703829e-002
1.405911e+003;8.708570e-002
1.407840e+003;8.738162e-002
1.409769e+003;8.775269e-002
1.411697e+003;8.826917e-002
1.413626e+003;8.890248e-002
1.415554e+003;8.960376e-002
1.417483e+003;9.071008e-002
1.419411e+003;9.194610e-002
1.421340e+003;9.291061e-002
1.423268e+003;9.380674e-002
1.425197e+003;9.448328e-002
1.427125e+003;9.505186e-002
1.429054e+003;9.509826e-002
1.430983e+003;9.454749e-002
1.432911e+003;9.353171e-002
1.434840e+003;9.220885e-002
1.436768e+003;9.096212e-002
1.438697e+003;9.002846e-002
1.440625e+003;8.962127e-002
1.442554e+003;8.936289e-002
1.444482e+003;8.914489e-002
1.446411e+003;8.893644e-002
1.448340e+003;8.858252e-002
1.450268e+003;8.838790e-002
1.452197e+003;8.817900e-002
1.454125e+003;8.784152e-002
1.456054e+003;8.711760e-002
1.457982e+003;8.605202e-002
1.459911e+003;8.485914e-002
1.461839e+003;8.384199e-002
1.463768e+003;8.300371e-002
1.465697e+003;8.187490e-002
1.467625e+003;8.069961e-002
1.469554e+003;7.953720e-002
1.471482e+003;7.809442e-002
1.473411e+003;7.689869e-002
1.475339e+003;7.572833e-002
1.477268e+003;7.461906e-002
1.479196e+003;7.405832e-002
1.481125e+003;7.345381e-002
1.483053e+003;7.229890e-002
1.484982e+003;7.102842e-002
1.486911e+003;6.976262e-002
1.488839e+003;6.856897e-002
1.490768e+003;6.752392e-002
1.492696e+003;6.672986e-002
1.494625e+003;6.609066e-002
1.496553e+003;6.559541e-002
1.498482e+003;6.536071e-002
1.500410e+003;6.505882e-002
1.502339e+003;6.455622e-002
1.504267e+003;6.437245e-002
1.506196e+003;6.445101e-002
1.508125e+003;6.444897e-002
1.510053e+003;6.421266e-002
1.511982e+003;6.399184e-002
1.513910e+003;6.376223e-002
1.515839e+003;6.357462e-002
1.517767e+003;6.316638e-002
1.519696e+003;6.285888e-002
1.521624e+003;6.281814e-002
1.523553e+003;6.276557e-002
1.525481e+003;6.256634e-002
1.527410e+003;6.263901e-002
1.529339e+003;6.251536e-002
1.531267e+003;6.236891e-002
1.533196e+003;6.249773e-002
1.535124e+003;6.268740e-002
1.537053e+003;6.286815e-002
1.538981e+003;6.296704e-002
1.540910e+003;6.283307e-002
1.542838e+003;6.257851e-002
1.544767e+003;6.256262e-002
1.546695e+003;6.277146e-002
1.548624e+003;6.281202e-002
1.550553e+003;6.253733e-002
1.552481e+003;6.235629e-002
1.554410e+003;6.228282e-002
1.556338e+003;6.237393e-002
1.558267e+003;6.266278e-002
1.560195e+003;6.282362e-002
1.562124e+003;6.285214e-002
1.564052e+003;6.287117e-002
1.565981e+003;6.320103e-002
1.567910e+003;6.375739e-002
1.569838e+003;6.406648e-002
1.571767e+003;6.423125e-002
1.573695e+003;6.442887e-002
1.575624e+003;6.444897e-002
1.577552e+003;6.453707e-002
1.579481e+003;6.474464e-002
1.581409e+003;6.491578e-002
1.583338e+003;6.510998e-002
1.585266e+003;6.523051e-002
1.587195e+003;6.544600e-002
1.589124e+003;6.585746e-002
1.591052e+003;6.591785e-002
1.592981e+003;6.595148e-002
1.594909e+003;6.652660e-002
1.596838e+003;6.741641e-002
1.598766e+003;6.792233e-002
1.600695e+003;6.819350e-002
1.602623e+003;6.888279e-002
1.604552e+003;6.968629e-002
1.606480e+003;7.045823e-002
1.608409e+003;7.114530e-002
1.610338e+003;7.174841e-002
1.612266e+003;7.247187e-002
1.614195e+003;7.305644e-002
1.616123e+003;7.332064e-002
1.618052e+003;7.351742e-002
1.619980e+003;7.376733e-002
1.621909e+003;7.399283e-002
1.623837e+003;7.393821e-002
1.625766e+003;7.360160e-002
1.627694e+003;7.341908e-002
1.629623e+003;7.317976e-002
1.631552e+003;7.295997e-002
1.633480e+003;7.279668e-002
1.635409e+003;7.246921e-002
1.637337e+003;7.223625e-002
1.639266e+003;7.203278e-002
1.641194e+003;7.177648e-002
1.643123e+003;7.174978e-002
1.645051e+003;7.166849e-002
1.646980e+003;7.127167e-002
1.648909e+003;7.068579e-002
1.650837e+003;7.041828e-002
1.652766e+003;7.016725e-002
1.654694e+003;6.983671e-002
1.656623e+003;6.938114e-002
1.658551e+003;6.875592e-002
1.660480e+003;6.826945e-002
1.662408e+003;6.774500e-002
1.664337e+003;6.726380e-002
1.666266e+003;6.671359e-002
1.668194e+003;6.596410e-002
1.670123e+003;6.509115e-002
1.672051e+003;6.443156e-002
1.673980e+003;6.394427e-002
1.675908e+003;6.350470e-002
1.677837e+003;6.309407e-002
1.679765e+003;6.262374e-002
1.681694e+003;6.204589e-002
1.683622e+003;6.125655e-002
1.685551e+003;6.077311e-002
1.687479e+003;6.065506e-002
1.689408e+003;6.024137e-002
1.691337e+003;5.954467e-002
1.693265e+003;5.898183e-002
1.695194e+003;5.840861e-002
1.697122e+003;5.804856e-002
1.699051e+003;5.776041e-002
1.700979e+003;5.742446e-002
1.702908e+003;5.736021e-002
1.704836e+003;5.702381e-002
1.706765e+003;5.656593e-002
1.708693e+003;5.630539e-002
1.710622e+003;5.597636e-002
1.712551e+003;5.570981e-002
1.714479e+003;5.558209e-002
1.716408e+003;5.533765e-002
1.718336e+003;5.521437e-002
1.720265e+003;5.525501e-002
1.722193e+003;5.526562e-002
1.724122e+003;5.538722e-002
1.726050e+003;5.553548e-002
1.727979e+003;5.552395e-002
1.729908e+003;5.547486e-002
1.731836e+003;5.531842e-002
1.733765e+003;5.530739e-002
1.735693e+003;5.540887e-002
1.737622e+003;5.543834e-002
1.739550e+003;5.532583e-002
1.741479e+003;5.505351e-002
1.743407e+003;5.475742e-002
1.745336e+003;5.447009e-002
1.747265e+003;5.403613e-002
1.749193e+003;5.352318e-002
1.751122e+003;5.339996e-002
1.753050e+003;5.316374e-002
1.754979e+003;5.249905e-002
1.756907e+003;5.188227e-002
1.758836e+003;5.168248e-002
1.760764e+003;5.157989e-002
1.762693e+003;5.148211e-002
1.764621e+003;5.129167e-002
1.766550e+003;5.124794e-002
1.768479e+003;5.132121e-002
1.770407e+003;5.119686e-002
1.772336e+003;5.095696e-002
1.774264e+003;5.092388e-002
1.776193e+003;5.098427e-002
1.778121e+003;5.081253e-002
1.780050e+003;5.074214e-002
1.781978e+003;5.081380e-002
1.783907e+003;5.064983e-002
1.785835e+003;5.046523e-002
1.787764e+003;5.044681e-002
1.789693e+003;5.032275e-002
1.791621e+003;5.030058e-002
1.793550e+003;5.028912e-002
1.795478e+003;5.025456e-002
1.797407e+003;5.026855e-002
1.799335e+003;5.004392e-002
1.801264e+003;4.963245e-002
1.803192e+003;4.963583e-002
1.805121e+003;4.970990e-002
1.807049e+003;4.971328e-002
1.808978e+003;4.965121e-002
1.810907e+003;4.948675e-002
1.812835e+003;4.937819e-002
1.814764e+003;4.936408e-002
1.816692e+003;4.919012e-002
1.818621e+003;4.914879e-002
1.820549e+003;4.929248e-002
1.822478e+003;4.925454e-002
1.824406e+003;4.920151e-002
1.826335e+003;4.911320e-002
1.828264e+003;4.891888e-002
1.830192e+003;4.891862e-002
1.832121e+003;4.908901e-002
1.834049e+003;4.897072e-002
1.835978e+003;4.893668e-002
1.837906e+003;4.905659e-002
1.839835e+003;4.880908e-002
1.841763e+003;4.849624e-002
1.843692e+003;4.840337e-002
1.845620e+003;4.835171e-002
1.847549e+003;4.833948e-002
1.849478e+003;4.830474e-002
1.851406e+003;4.810848e-002
1.853335e+003;4.786787e-002
1.855263e+003;4.791549e-002
1.857192e+003;4.799993e-002
1.859120e+003;4.788759e-002
1.861049e+003;4.766759e-002
1.862977e+003;4.777588e-002
1.864906e+003;4.798687e-002
1.866834e+003;4.800193e-002
1.868763e+003;4.821621e-002
1.870692e+003;4.812703e-002
1.872620e+003;4.787572e-002
1.874549e+003;4.795508e-002
1.876477e+003;4.785999e-002
1.878406e+003;4.755516e-002
1.880334e+003;4.759571e-002
1.882263e+003;4.770387e-002
1.884191e+003;4.767876e-002
1.886120e+003;4.773582e-002
1.888048e+003;4.784235e-002
1.889977e+003;4.784105e-002
1.891906e+003;4.772436e-002
1.893834e+003;4.767070e-002
1.895763e+003;4.781535e-002
1.897691e+003;4.799819e-002
1.899620e+003;4.777854e-002
1.901548e+003;4.760008e-002
1.903477e+003;4.765550e-002
1.905405e+003;4.776859e-002
1.907334e+003;4.780358e-002
1.909262e+003;4.778464e-002
1.911191e+003;4.788245e-002
1.913120e+003;4.775076e-002
1.915048e+003;4.778757e-002
1.916977e+003;4.798438e-002
1.918905e+003;4.819944e-002
1.920834e+003;4.835963e-002
1.922762e+003;4.830734e-002
1.924691e+003;4.834019e-002
1.926619e+003;4.849946e-002
1.928548e+003;4.846916e-002
1.930477e+003;4.854733e-002
1.932405e+003;4.848898e-002
1.934334e+003;4.829767e-002
1.936262e+003;4.836878e-002
1.938191e+003;4.858887e-002
1.940119e+003;4.865510e-002
1.942048e+003;4.864168e-002
1.943976e+003;4.884764e-002
1.945905e+003;4.891613e-002
1.947833e+003;4.902365e-002
1.949762e+003;4.909299e-002
1.951691e+003;4.909087e-002
1.953619e+003;4.929708e-002
1.955548e+003;4.945248e-002
1.957476e+003;4.942968e-002
1.959405e+003;4.941758e-002
1.961333e+003;4.950346e-002
1.963262e+003;4.943967e-002
1.965190e+003;4.921335e-002
1.967119e+003;4.922244e-002
1.969047e+003;4.956240e-002
1.970976e+003;4.969415e-002
1.972905e+003;4.962276e-002
1.974833e+003;4.964307e-002
1.976762e+003;4.983323e-002
1.978690e+003;5.003916e-002
1.980619e+003;4.984836e-002
1.982547e+003;4.992265e-002
1.984476e+003;5.029057e-002
1.986404e+003;5.037149e-002
1.988333e+003;5.060396e-002
1.990261e+003;5.085812e-002
1.992190e+003;5.090480e-002
1.994119e+003;5.086963e-002
1.996047e+003;5.064629e-002
1.997976e+003;5.064357e-002
1.999904e+003;5.089798e-002
2.001833e+003;5.107401e-002
2.003761e+003;5.102194e-002
2.005690e+003;5.093583e-002
2.007618e+003;5.099694e-002
2.009547e+003;5.108571e-002
2.011476e+003;5.120656e-002
2.013404e+003;5.140452e-002
2.015333e+003;5.154015e-002
2.017261e+003;5.179005e-002
2.019190e+003;5.200763e-002
2.021118e+003;5.206844e-002
2.023047e+003;5.200979e-002
2.024975e+003;5.230559e-002
2.026904e+003;5.262074e-002
2.028833e+003;5.243003e-002
2.030761e+003;5.247213e-002
2.032690e+003;5.265040e-002
2.034618e+003;5.267486e-002
2.036547e+003;5.273158e-002
2.038475e+003;5.289936e-002
2.040404e+003;5.292825e-002
2.042332e+003;5.301476e-002
2.044261e+003;5.315951e-002
2.046189e+003;5.338194e-002
2.048118e+003;5.341986e-002
2.050047e+003;5.310503e-002
2.051975e+003;5.302708e-002
2.053904e+003;5.314315e-002
2.055832e+003;5.305710e-002
2.057761e+003;5.296924e-002
2.059689e+003;5.298769e-002
2.061618e+003;5.299732e-002
2.063546e+003;5.304853e-002
2.065475e+003;5.299664e-002
2.067404e+003;5.280536e-002
2.069332e+003;5.305216e-002
2.071260e+003;5.340783e-002
2.073189e+003;5.329825e-002
2.075118e+003;5.300574e-002
2.077046e+003;5.276072e-002
2.078975e+003;5.288271e-002
2.080903e+003;5.304584e-002
2.082832e+003;5.288533e-002
2.084760e+003;5.278410e-002
2.086689e+003;5.286355e-002
2.088617e+003;5.309518e-002
2.090546e+003;5.308724e-002
2.092475e+003;5.283649e-002
2.094403e+003;5.276087e-002
2.096332e+003;5.278336e-002
2.098260e+003;5.288476e-002
2.100189e+003;5.286085e-002
2.102117e+003;5.276876e-002
2.104046e+003;5.289143e-002
2.105974e+003;5.300671e-002
2.107903e+003;5.309279e-002
2.109832e+003;5.317977e-002
2.111760e+003;5.326240e-002
2.113688e+003;5.348263e-002
2.115617e+003;5.382721e-002
2.117546e+003;5.410725e-002
2.119474e+003;5.409629e-002
2.121403e+003;5.391828e-002
2.123331e+003;5.388771e-002
2.125260e+003;5.394803e-002
2.127188e+003;5.414887e-002
2.129117e+003;5.412196e-002
2.131045e+003;5.380388e-002
2.132974e+003;5.388606e-002
2.134903e+003;5.415131e-002
2.136831e+003;5.391168e-002
2.138760e+003;5.373353e-002
2.140688e+003;5.372648e-002
2.142617e+003;5.329244e-002
2.144545e+003;5.302846e-002
2.146474e+003;5.342121e-002
2.148402e+003;5.399407e-002
2.150331e+003;5.404675e-002
2.152260e+003;5.373488e-002
2.154188e+003;5.379837e-002
2.156117e+003;5.377523e-002
2.158045e+003;5.323030e-002
2.159974e+003;5.286433e-002
2.161902e+003;5.297553e-002
2.163831e+003;5.295079e-002
2.165759e+003;5.280551e-002
2.167688e+003;5.272970e-002
2.169616e+003;5.257784e-002
2.171545e+003;5.233538e-002
2.173474e+003;5.224247e-002
2.175402e+003;5.225888e-002
2.177331e+003;5.230720e-002
2.179259e+003;5.234076e-002
2.181188e+003;5.204752e-002
2.183116e+003;5.191109e-002
2.185045e+003;5.194836e-002
2.186973e+003;5.173813e-002
2.188902e+003;5.152288e-002
2.190831e+003;5.120253e-002
2.192759e+003;5.101021e-002
2.194688e+003;5.123881e-002
2.196616e+003;5.150848e-002
2.198545e+003;5.144149e-002
2.200473e+003;5.118881e-002
2.202402e+003;5.114330e-002
2.204330e+003;5.111184e-002
2.206259e+003;5.106003e-002
2.208188e+003;5.110136e-002
2.210116e+003;5.104456e-002
2.212044e+003;5.108537e-002
2.213973e+003;5.113931e-002
2.215902e+003;5.122124e-002
2.217830e+003;5.139710e-002
2.219759e+003;5.162094e-002
2.221687e+003;5.137957e-002
2.223616e+003;5.113867e-002
2.225544e+003;5.111459e-002
2.227473e+003;5.133258e-002
2.229401e+003;5.132370e-002
2.231330e+003;5.115008e-002
2.233259e+003;5.105932e-002
2.235187e+003;5.110218e-002
2.237116e+003;5.099612e-002
2.239044e+003;5.087649e-002
2.240973e+003;5.094597e-002
2.242901e+003;5.101617e-002
2.244830e+003;5.101460e-002
2.246758e+003;5.099616e-002
2.248687e+003;5.097488e-002
2.250615e+003;5.084468e-002
2.252544e+003;5.069827e-002
2.254473e+003;5.068114e-002
2.256401e+003;5.059313e-002
2.258330e+003;5.038035e-002
2.260258e+003;5.014127e-002
2.262187e+003;5.009679e-002
2.264115e+003;5.028280e-002
2.266044e+003;5.039542e-002
2.267972e+003;5.020442e-002
2.269901e+003;5.014811e-002
2.271830e+003;5.009304e-002
2.273758e+003;4.989217e-002
2.275687e+003;4.968616e-002
2.277615e+003;4.949136e-002
2.279544e+003;4.951891e-002
2.281472e+003;4.972562e-002
2.283401e+003;4.967810e-002
2.285329e+003;4.962989e-002
2.287258e+003;4.994953e-002
2.289187e+003;5.002663e-002
2.291115e+003;4.967294e-002
2.293043e+003;4.948330e-002
2.294972e+003;4.927437e-002
2.296901e+003;4.910371e-002
2.298829e+003;4.910148e-002
2.300758e+003;4.922597e-002
2.302686e+003;4.936683e-002
2.304615e+003;4.952719e-002
2.306543e+003;4.947431e-002
2.308472e+003;4.934912e-002
2.310400e+003;4.920742e-002
2.312329e+003;4.910041e-002
2.314258e+003;4.918570e-002
2.316186e+003;4.933635e-002
2.318115e+003;4.924219e-002
2.320043e+003;4.908182e-002
2.321972e+003;4.922011e-002
2.323900e+003;4.944201e-002
2.325829e+003;4.939916e-002
2.327757e+003;4.929975e-002
2.329686e+003;4.930959e-002
2.331615e+003;4.938457e-002
2.333543e+003;4.953670e-002
2.335472e+003;4.959089e-002
2.337400e+003;4.963022e-002
2.339329e+003;4.989649e-002
2.341257e+003;5.013941e-002
2.343186e+003;5.038720e-002
2.345114e+003;5.040941e-002
2.347043e+003;5.029054e-002
2.348971e+003;5.047234e-002
2.350900e+003;5.071805e-002
2.352829e+003;5.068502e-002
2.354757e+003;5.073991e-002
2.356686e+003;5.093431e-002
2.358614e+003;5.092786e-002
2.360543e+003;5.091642e-002
2.362471e+003;5.080378e-002
2.364400e+003;5.066063e-002
2.366328e+003;5.075864e-002
2.368257e+003;5.074605e-002
2.370186e+003;5.072859e-002
2.372114e+003;5.082169e-002
2.374042e+003;5.056268e-002
2.375971e+003;5.045317e-002
2.377900e+003;5.059819e-002
2.379828e+003;5.057343e-002
2.381757e+003;5.040569e-002
2.383685e+003;5.027331e-002
2.385614e+003;5.059734e-002
2.387542e+003;5.131397e-002
2.389471e+003;5.143876e-002
2.391399e+003;5.120227e-002
2.393328e+003;5.134127e-002
2.395257e+003;5.176855e-002
2.397185e+003;5.181010e-002
2.399114e+003;5.173652e-002
2.401042e+003;5.176810e-002
2.402971e+003;5.186744e-002
2.404899e+003;5.206164e-002
2.406828e+003;5.208487e-002
2.408756e+003;5.212698e-002
2.410685e+003;5.219285e-002
2.412614e+003;5.211831e-002
2.414542e+003;5.250945e-002
2.416471e+003;5.256165e-002
2.418399e+003;5.228462e-002
2.420328e+003;5.255488e-002
2.422256e+003;5.278635e-002
2.424185e+003;5.278343e-002
2.426113e+003;5.282085e-002
2.428042e+003;5.304816e-002
2.429970e+003;5.297725e-002
2.431899e+003;5.292781e-002
2.433828e+003;5.320206e-002
2.435756e+003;5.335144e-002
2.437685e+003;5.330963e-002
2.439613e+003;5.341184e-002
2.441542e+003;5.365273e-002
2.443470e+003;5.376375e-002
2.445399e+003;5.368381e-002
2.447327e+003;5.357921e-002
2.449256e+003;5.356583e-002
2.451185e+003;5.372363e-002
2.453113e+003;5.397426e-002
2.455042e+003;5.414376e-002
2.456970e+003;5.431698e-002
2.458899e+003;5.421587e-002
2.460827e+003;5.390350e-002
2.462756e+003;5.372858e-002
2.464684e+003;5.379713e-002
2.466613e+003;5.425439e-002
2.468542e+003;5.463107e-002
2.470470e+003;5.468864e-002
2.472398e+003;5.455033e-002
2.474327e+003;5.455908e-002
2.476256e+003;5.477922e-002
2.478184e+003;5.487218e-002
2.480113e+003;5.469089e-002
2.482041e+003;5.475463e-002
2.483970e+003;5.491851e-002
2.485898e+003;5.515598e-002
2.487827e+003;5.557697e-002
2.489755e+003;5.552994e-002
2.491684e+003;5.548242e-002
2.493613e+003;5.566359e-002
2.495541e+003;5.575690e-002
2.497470e+003;5.596366e-002
2.499398e+003;5.583022e-002
2.501327e+003;5.580038e-002
2.503255e+003;5.620408e-002
2.505184e+003;5.628230e-002
2.507112e+003;5.608319e-002
2.509041e+003;5.591075e-002
2.510969e+003;5.589488e-002
2.512898e+003;5.623203e-002
2.514827e+003;5.662255e-002
2.516755e+003;5.674234e-002
2.518684e+003;5.668189e-002
2.520612e+003;5.675197e-002
2.522541e+003;5.685155e-002
2.524469e+003;5.686043e-002
2.526398e+003;5.698712e-002
2.528326e+003;5.690379e-002
2.530255e+003;5.661111e-002
2.532184e+003;5.665822e-002
2.534112e+003;5.696015e-002
2.536041e+003;5.716427e-002
2.537969e+003;5.729287e-002
2.539898e+003;5.712410e-002
2.541826e+003;5.690129e-002
2.543755e+003;5.698119e-002
2.545683e+003;5.725499e-002
2.547612e+003;5.724097e-002
2.549541e+003;5.698633e-002
2.551469e+003;5.704191e-002
2.553397e+003;5.686039e-002
2.555326e+003;5.663719e-002
2.557255e+003;5.701176e-002
2.559183e+003;5.725272e-002
2.561112e+003;5.713328e-002
2.563040e+003;5.714723e-002
2.564969e+003;5.727056e-002
2.566897e+003;5.722146e-002
2.568826e+003;5.692679e-002
2.570754e+003;5.673868e-002
2.572683e+003;5.694247e-002
2.574612e+003;5.742926e-002
2.576540e+003;5.759199e-002
2.578469e+003;5.736702e-002
2.580397e+003;5.725748e-002
2.582326e+003;5.733888e-002
2.584254e+003;5.750040e-002
2.586183e+003;5.771360e-002
2.588111e+003;5.763107e-002
2.590040e+003;5.747813e-002
2.591969e+003;5.779232e-002
2.593897e+003;5.802913e-002
2.595826e+003;5.783096e-002
2.597754e+003;5.774005e-002
2.599683e+003;5.785709e-002
2.601611e+003;5.812598e-002
2.603540e+003;5.837264e-002
2.605468e+003;5.830496e-002
2.607397e+003;5.806682e-002
2.609325e+003;5.837553e-002
2.611254e+003;5.874673e-002
2.613183e+003;5.852534e-002
2.615111e+003;5.848359e-002
2.617040e+003;5.874351e-002
2.618968e+003;5.886347e-002
2.620897e+003;5.867406e-002
2.622825e+003;5.842093e-002
2.624754e+003;5.867944e-002
2.626682e+003;5.902620e-002
2.628611e+003;5.885273e-002
2.630540e+003;5.910053e-002
2.632468e+003;5.964501e-002
2.634396e+003;5.955957e-002
2.636325e+003;5.930118e-002
2.638254e+003;5.927543e-002
2.640182e+003;5.929142e-002
2.642111e+003;5.950082e-002
2.644039e+003;5.968763e-002
2.645968e+003;5.970599e-002
2.647896e+003;5.951913e-002
2.649825e+003;5.952837e-002
2.651753e+003;5.974013e-002
2.653682e+003;5.965018e-002
2.655611e+003;5.975648e-002
2.657539e+003;5.987892e-002
2.659468e+003;5.990574e-002
2.661396e+003;6.007978e-002
2.663325e+003;6.001233e-002
2.665253e+003;5.991913e-002
2.667182e+003;5.999509e-002
2.669110e+003;6.010330e-002
2.671039e+003;6.029794e-002
2.672968e+003;6.027000e-002
2.674896e+003;6.061578e-002
2.676825e+003;6.096153e-002
2.678753e+003;6.091048e-002
2.680682e+003;6.096798e-002
2.682610e+003;6.094724e-002
2.684539e+003;6.100763e-002
2.686467e+003;6.107093e-002
2.688396e+003;6.096416e-002
2.690324e+003;6.107276e-002
2.692253e+003;6.140400e-002
2.694182e+003;6.162851e-002
2.696110e+003;6.172471e-002
2.698039e+003;6.147740e-002
2.699967e+003;6.119883e-002
2.701896e+003;6.166952e-002
2.703824e+003;6.190040e-002
2.705753e+003;6.161931e-002
2.707681e+003;6.163332e-002
2.709610e+003;6.194614e-002
2.711539e+003;6.202911e-002
2.713467e+003;6.189333e-002
2.715396e+003;6.199529e-002
2.717324e+003;6.233254e-002
2.719253e+003;6.250239e-002
2.721181e+003;6.246509e-002
2.723110e+003;6.236670e-002
2.725038e+003;6.280926e-002
2.726967e+003;6.306656e-002
2.728896e+003;6.289993e-002
2.730824e+003;6.274777e-002
2.732752e+003;6.238387e-002
2.734681e+003;6.221089e-002
2.736610e+003;6.236766e-002
2.738538e+003;6.251781e-002
2.740467e+003;6.259852e-002
2.742395e+003;6.288492e-002
2.744324e+003;6.288844e-002
2.746252e+003;6.281526e-002
2.748181e+003;6.290752e-002
2.750109e+003;6.299148e-002
2.752038e+003;6.305189e-002
2.753967e+003;6.291453e-002
2.755895e+003;6.265838e-002
2.757824e+003;6.263725e-002
2.759752e+003;6.293655e-002
2.761681e+003;6.312588e-002
2.763609e+003;6.316933e-002
2.765538e+003;6.297615e-002
2.767466e+003;6.297187e-002
2.769395e+003;6.293249e-002
2.771323e+003;6.272242e-002
2.773252e+003;6.310549e-002
2.775181e+003;6.336826e-002
2.777109e+003;6.348437e-002
2.779038e+003;6.367290e-002
2.780966e+003;6.385548e-002
2.782895e+003;6.392650e-002
2.784823e+003;6.390204e-002
2.786752e+003;6.385203e-002
2.788680e+003;6.387767e-002
2.790609e+003;6.422295e-002
2.792538e+003;6.476536e-002
2.794466e+003;6.516448e-002
2.796395e+003;6.515925e-002
2.798323e+003;6.511220e-002
2.800252e+003;6.524834e-002
2.802180e+003;6.529952e-002
2.804109e+003;6.527217e-002
2.806037e+003;6.551943e-002
2.807966e+003;6.584458e-002
2.809895e+003;6.590512e-002
2.811823e+003;6.615061e-002
2.813751e+003;6.662880e-002
2.815680e+003;6.685521e-002
2.817609e+003;6.679825e-002
2.819537e+003;6.709970e-002
2.821466e+003;6.740306e-002
2.823394e+003;6.742314e-002
2.825323e+003;6.785825e-002
2.827251e+003;6.860071e-002
2.829180e+003;6.897245e-002
2.831108e+003;6.907515e-002
2.833037e+003;6.927203e-002
2.834966e+003;6.978343e-002
2.836894e+003;7.037783e-002
2.838823e+003;7.112259e-002
2.840751e+003;7.206000e-002
2.842680e+003;7.301164e-002
2.844608e+003;7.401322e-002
2.846537e+003;7.542565e-002
2.848465e+003;7.684676e-002
2.850394e+003;7.786433e-002
2.852323e+003;7.794425e-002
2.854251e+003;7.803600e-002
2.856180e+003;7.865845e-002
2.858108e+003;7.891524e-002
2.860037e+003;7.886688e-002
2.861965e+003;7.909428e-002
2.863894e+003;7.948484e-002
2.865822e+003;7.988741e-002
2.867751e+003;8.020314e-002
2.869679e+003;8.067810e-002
2.871608e+003;8.106073e-002
2.873536e+003;8.111501e-002
2.875465e+003;8.091289e-002
2.877394e+003;8.080420e-002
2.879322e+003;8.091228e-002
2.881251e+003;8.139598e-002
2.883179e+003;8.199073e-002
2.885108e+003;8.246093e-002
2.887036e+003;8.279089e-002
2.888965e+003;8.276186e-002
2.890893e+003;8.276832e-002
2.892822e+003;8.330655e-002
2.894750e+003;8.375796e-002
2.896679e+003;8.373992e-002
2.898608e+003;8.385421e-002
2.900536e+003;8.377198e-002
2.902465e+003;8.334966e-002
2.904393e+003;8.324984e-002
2.906322e+003;8.316002e-002
2.908250e+003;8.319144e-002
2.910179e+003;8.333473e-002
2.912107e+003;8.319966e-002
2.914036e+003;8.293228e-002
2.915965e+003;8.266819e-002
2.917893e+003;8.238566e-002
2.919822e+003;8.215205e-002
2.921750e+003;8.172941e-002
2.923679e+003;8.102950e-002
2.925607e+003;8.034655e-002
2.927536e+003;7.916971e-002
2.929464e+003;7.768162e-002
2.931393e+003;7.683758e-002
2.933322e+003;7.621066e-002
2.935250e+003;7.527151e-002
2.937178e+003;7.433391e-002
2.939107e+003;7.383617e-002
2.941036e+003;7.322042e-002
2.942964e+003;7.295500e-002
2.944893e+003;7.263736e-002
2.946821e+003;7.200681e-002
2.948750e+003;7.155588e-002
2.950678e+003;7.104574e-002
2.952607e+003;7.018108e-002
2.954535e+003;6.956789e-002
2.956464e+003;6.912196e-002
2.958393e+003;6.870639e-002
2.960321e+003;6.822192e-002
2.962250e+003;6.743874e-002
2.964178e+003;6.693863e-002
2.966107e+003;6.671035e-002
2.968035e+003;6.607047e-002
2.969964e+003;6.558601e-002
2.971892e+003;6.491205e-002
2.973821e+003;6.382336e-002
2.975750e+003;6.362663e-002
2.977678e+003;6.331214e-002
2.979607e+003;6.247316e-002
2.981535e+003;6.218524e-002
2.983464e+003;6.238919e-002
2.985392e+003;6.256790e-002
2.987321e+003;6.211049e-002
2.989249e+003;6.166284e-002
2.991178e+003;6.177158e-002
2.993106e+003;6.178709e-002
2.995035e+003;6.166971e-002
2.996964e+003;6.167433e-002
2.998892e+003;6.184863e-002
3.000821e+003;6.204043e-002
3.002749e+003;6.170603e-002
3.004678e+003;6.118029e-002
3.006606e+003;6.111575e-002
3.008535e+003;6.149908e-002
3.010463e+003;6.175607e-002
3.012392e+003;6.164665e-002
3.014321e+003;6.158910e-002
3.016249e+003;6.154260e-002
3.018177e+003;6.182342e-002
3.020106e+003;6.192150e-002
3.022035e+003;6.176799e-002
3.023963e+003;6.215037e-002
3.025892e+003;6.227957e-002
3.027820e+003;6.248877e-002
3.029749e+003;6.309012e-002
3.031677e+003;6.284678e-002
3.033606e+003;6.266569e-002
3.035534e+003;6.311399e-002
3.037463e+003;6.336293e-002
3.039392e+003;6.330907e-002
3.041320e+003;6.282607e-002
3.043249e+003;6.267932e-002
3.045177e+003;6.313787e-002
3.047106e+003;6.363154e-002
3.049034e+003;6.378578e-002
3.050963e+003;6.381488e-002
3.052891e+003;6.412159e-002
3.054820e+003;6.445570e-002
3.056749e+003;6.476852e-002
3.058677e+003;6.504158e-002
3.060606e+003;6.487034e-002
3.062534e+003;6.487884e-002
3.064463e+003;6.505223e-002
3.066391e+003;6.494287e-002
3.068320e+003;6.502630e-002
3.070248e+003;6.538806e-002
3.072177e+003;6.562493e-002
3.074105e+003;6.547885e-002
3.076034e+003;6.583564e-002
3.077963e+003;6.646134e-002
3.079891e+003;6.631645e-002
3.081820e+003;6.591673e-002
3.083748e+003;6.596883e-002
3.085677e+003;6.639539e-002
3.087605e+003;6.669988e-002
3.089534e+003;6.682731e-002
3.091462e+003;6.695753e-002
3.093391e+003;6.713995e-002
3.095320e+003;6.733503e-002
3.097248e+003;6.774303e-002
3.099177e+003;6.807791e-002
3.101105e+003;6.846926e-002
3.103034e+003;6.880657e-002
3.104962e+003;6.909329e-002
3.106891e+003;6.898990e-002
3.108819e+003;6.893250e-002
3.110748e+003;6.962545e-002
3.112677e+003;7.008034e-002
3.114605e+003;7.007407e-002
3.116533e+003;6.991781e-002
3.118462e+003;6.989718e-002
3.120391e+003;7.011858e-002
3.122319e+003;7.016531e-002
3.124248e+003;7.049170e-002
3.126176e+003;7.124528e-002
3.128105e+003;7.137831e-002
3.130033e+003;7.184587e-002
3.131962e+003;7.250977e-002
3.133890e+003;7.252763e-002
3.135819e+003;7.253687e-002
3.137748e+003;7.250852e-002
3.139676e+003;7.266027e-002
3.141605e+003;7.304221e-002
3.143533e+003;7.313851e-002
3.145462e+003;7.298435e-002
3.147390e+003;7.323600e-002
3.149319e+003;7.374769e-002
3.151247e+003;7.393079e-002
3.153176e+003;7.434826e-002
3.155104e+003;7.466337e-002
3.157033e+003;7.488992e-002
3.158962e+003;7.533491e-002
3.160890e+003;7.549033e-002
3.162819e+003;7.560421e-002
3.164747e+003;7.588132e-002
3.166676e+003;7.614267e-002
3.168604e+003;7.631805e-002
3.170533e+003;7.653978e-002
3.172461e+003;7.709048e-002
3.174390e+003;7.769747e-002
3.176319e+003;7.803679e-002
3.178247e+003;7.804941e-002
3.180176e+003;7.795443e-002
3.182104e+003;7.803965e-002
3.184033e+003;7.855771e-002
3.185961e+003;7.959983e-002
3.187890e+003;8.007912e-002
3.189818e+003;7.989612e-002
3.191747e+003;8.052747e-002
3.193676e+003;8.142795e-002
3.195604e+003;8.141485e-002
3.197532e+003;8.122601e-002
3.199461e+003;8.177189e-002
3.201390e+003;8.243481e-002
3.203318e+003;8.305996e-002
3.205247e+003;8.360039e-002
3.207175e+003;8.390256e-002
3.209104e+003;8.428080e-002
3.211032e+003;8.477657e-002
3.212961e+003;8.486853e-002
3.214889e+003;8.540698e-002
3.216818e+003;8.615822e-002
3.218747e+003;8.678556e-002
3.220675e+003;8.715118e-002
3.222604e+003;8.741716e-002
3.224532e+003;8.801272e-002
3.226461e+003;8.859857e-002
3.228389e+003;8.884463e-002
3.230318e+003;8.911287e-002
3.232246e+003;8.937917e-002
3.234175e+003;8.956609e-002
3.236104e+003;9.013891e-002
3.238032e+003;9.120441e-002
3.239961e+003;9.147579e-002
3.241889e+003;9.154910e-002
3.243818e+003;9.228015e-002
3.245746e+003;9.307188e-002
3.247675e+003;9.326389e-002
3.249603e+003;9.369436e-002
3.251532e+003;9.438901e-002
3.253460e+003;9.480923e-002
3.255389e+003;9.553324e-002
3.257318e+003;9.625515e-002
3.259246e+003;9.671117e-002
3.261175e+003;9.715569e-002
3.263103e+003;9.776530e-002
3.265032e+003;9.789226e-002
3.266960e+003;9.780153e-002
3.268889e+003;9.821206e-002
3.270817e+003;9.935305e-002
3.272746e+003;1.003456e-001
3.274675e+003;1.005533e-001
3.276603e+003;1.002705e-001
3.278531e+003;1.007241e-001
3.280460e+003;1.019945e-001
3.282389e+003;1.017957e-001
3.284317e+003;1.018891e-001
3.286246e+003;1.025407e-001
3.288174e+003;1.023971e-001
3.290103e+003;1.024197e-001
3.292031e+003;1.030907e-001
3.293960e+003;1.032088e-001
3.295888e+003;1.032104e-001
3.297817e+003;1.035829e-001
3.299746e+003;1.036360e-001
3.301674e+003;1.034325e-001
3.303603e+003;1.027469e-001
3.305531e+003;1.024913e-001
3.307460e+003;1.030748e-001
3.309388e+003;1.035460e-001
3.311317e+003;1.036166e-001
3.313245e+003;1.036830e-001
3.315174e+003;1.039120e-001
3.317103e+003;1.035774e-001
3.319031e+003;1.038879e-001
3.320960e+003;1.047711e-001
3.322888e+003;1.048954e-001
3.324817e+003;1.046210e-001
3.326745e+003;1.043682e-001
3.328674e+003;1.042874e-001
3.330602e+003;1.044384e-001
3.332531e+003;1.051536e-001
3.334459e+003;1.055084e-001
3.336388e+003;1.055497e-001
3.338317e+003;1.055042e-001
3.340245e+003;1.053596e-001
3.342174e+003;1.052322e-001
3.344102e+003;1.050298e-001
3.346031e+003;1.044331e-001
3.347959e+003;1.039495e-001
3.349888e+003;1.035162e-001
3.351816e+003;1.030422e-001
3.353745e+003;1.022723e-001
3.355674e+003;1.018778e-001
3.357602e+003;1.021381e-001
3.359531e+003;1.020976e-001
3.361459e+003;1.011628e-001
3.363388e+003;1.002652e-001
3.365316e+003;9.976488e-002
3.367245e+003;9.932443e-002
3.369173e+003;9.909809e-002
3.371102e+003;9.890528e-002
3.373031e+003;9.860414e-002
3.374959e+003;9.828751e-002
3.376887e+003;9.744384e-002
3.378816e+003;9.667234e-002
3.380745e+003;9.615393e-002
3.382673e+003;9.579396e-002
3.384602e+003;9.576252e-002
3.386530e+003;9.545724e-002
3.388459e+003;9.484909e-002
3.390387e+003;9.448278e-002
3.392316e+003;9.395867e-002
3.394244e+003;9.293228e-002
3.396173e+003;9.275957e-002
3.398102e+003;9.316401e-002
3.400030e+003;9.308621e-002
3.401959e+003;9.243377e-002
3.403887e+003;9.150046e-002
3.405816e+003;9.081645e-002
3.407744e+003;9.098516e-002
3.409673e+003;9.107187e-002
3.411601e+003;9.035230e-002
3.413530e+003;9.005430e-002
3.415458e+003;8.949365e-002
3.417387e+003;8.841024e-002
3.419316e+003;8.793364e-002
3.421244e+003;8.727876e-002
3.423173e+003;8.622902e-002
3.425101e+003;8.530495e-002
3.427030e+003;8.478708e-002
3.428958e+003;8.505766e-002
3.430887e+003;8.530048e-002
3.432815e+003;8.463610e-002
3.434744e+003;8.397508e-002
3.436673e+003;8.364551e-002
3.438601e+003;8.306678e-002
3.440530e+003;8.212434e-002
3.442458e+003;8.120041e-002
3.444387e+003;8.055431e-002
3.446315e+003;8.016360e-002
3.448244e+003;7.987012e-002
3.450172e+003;7.918938e-002
3.452101e+003;7.855763e-002
3.454030e+003;7.786476e-002
3.455958e+003;7.687476e-002
3.457886e+003;7.668575e-002
3.459815e+003;7.654571e-002
3.461744e+003;7.628965e-002
3.463672e+003;7.604709e-002
3.465601e+003;7.542580e-002
3.467529e+003;7.492071e-002
3.469458e+003;7.478533e-002
3.471386e+003;7.446116e-002
3.473315e+003;7.391468e-002
3.475243e+003;7.294641e-002
3.477172e+003;7.217541e-002
3.479101e+003;7.189263e-002
3.481029e+003;7.159827e-002
3.482958e+003;7.136386e-002
3.484886e+003;7.115128e-002
3.486815e+003;7.042643e-002
3.488743e+003;6.961188e-002
3.490672e+003;6.880634e-002
3.492600e+003;6.846391e-002
3.494529e+003;6.833421e-002
3.496458e+003;6.757877e-002
3.498386e+003;6.686933e-002
3.500315e+003;6.659453e-002
3.502243e+003;6.580406e-002
3.504172e+003;6.489604e-002
3.506100e+003;6.423763e-002
3.508029e+003;6.376319e-002
3.509957e+003;6.393848e-002
3.511886e+003;6.444316e-002
3.513814e+003;6.405365e-002
3.515743e+003;6.304070e-002
3.517672e+003;6.247244e-002
3.519600e+003;6.242178e-002
3.521529e+003;6.227548e-002
3.523457e+003;6.179572e-002
3.525386e+003;6.122008e-002
3.527314e+003;6.067278e-002
3.529243e+003;6.037245e-002
3.531171e+003;5.995800e-002
3.533100e+003;5.913314e-002
3.535029e+003;5.832645e-002
3.536957e+003;5.822561e-002
3.538885e+003;5.862931e-002
3.540814e+003;5.838329e-002
3.542743e+003;5.750154e-002
3.544671e+003;5.671142e-002
3.546600e+003;5.643800e-002
3.548528e+003;5.639702e-002
3.550457e+003;5.569704e-002
3.552385e+003;5.502624e-002
3.554314e+003;5.495618e-002
3.556242e+003;5.471960e-002
3.558171e+003;5.417814e-002
3.560100e+003;5.369352e-002
3.562028e+003;5.354660e-002
3.563957e+003;5.319449e-002
3.565885e+003;5.305265e-002
3.567814e+003;5.299533e-002
3.569742e+003;5.280326e-002
3.571671e+003;5.268538e-002
3.573599e+003;5.226971e-002
3.575528e+003;5.100711e-002
3.577457e+003;5.044525e-002
3.579385e+003;5.057276e-002
3.581314e+003;5.058073e-002
3.583242e+003;5.037213e-002
3.585171e+003;5.012472e-002
3.587099e+003;4.957209e-002
3.589028e+003;4.915190e-002
3.590956e+003;4.907992e-002
3.592885e+003;4.864109e-002
3.594813e+003;4.832333e-002
3.596742e+003;4.770121e-002
3.598671e+003;4.710098e-002
3.600599e+003;4.698563e-002
3.602528e+003;4.704884e-002
3.604456e+003;4.696539e-002
3.606385e+003;4.684978e-002
3.608313e+003;4.675457e-002
3.610242e+003;4.656288e-002
3.612170e+003;4.618535e-002
3.614099e+003;4.645556e-002
3.616028e+003;4.664905e-002
3.617956e+003;4.604530e-002
3.619885e+003;4.503040e-002
3.621813e+003;4.478073e-002
3.623742e+003;4.479767e-002
3.625670e+003;4.498398e-002
3.627599e+003;4.476798e-002
3.629527e+003;4.398571e-002
3.631456e+003;4.342385e-002
3.633385e+003;4.327575e-002
3.635313e+003;4.302346e-002
3.637241e+003;4.276163e-002
3.639170e+003;4.270595e-002
3.641099e+003;4.223976e-002
3.643027e+003;4.197395e-002
3.644956e+003;4.185240e-002
3.646884e+003;4.126162e-002
3.648813e+003;4.059381e-002
3.650741e+003;4.039631e-002
3.652670e+003;4.063074e-002
3.654598e+003;4.068594e-002
3.656527e+003;4.035733e-002
3.658456e+003;3.982200e-002
3.660384e+003;3.942909e-002
3.662313e+003;3.918175e-002
3.664241e+003;3.915419e-002
3.666170e+003;3.909444e-002
3.668098e+003;3.821766e-002
3.670027e+003;3.722101e-002
3.671955e+003;3.750748e-002
3.673884e+003;3.806847e-002
3.675813e+003;3.781279e-002
3.677741e+003;3.732976e-002
3.679669e+003;3.687561e-002
3.681598e+003;3.669400e-002
3.683527e+003;3.698102e-002
3.685455e+003;3.702872e-002
3.687384e+003;3.626465e-002
3.689312e+003;3.547096e-002
3.691241e+003;3.523079e-002
3.693169e+003;3.514854e-002
3.695098e+003;3.554263e-002
3.697026e+003;3.562585e-002
3.698955e+003;3.527603e-002
3.700884e+003;3.519618e-002
3.702812e+003;3.568609e-002
3.704741e+003;3.524548e-002
3.706669e+003;3.451356e-002
3.708598e+003;3.471645e-002
3.710526e+003;3.455762e-002
3.712455e+003;3.439942e-002
3.714383e+003;3.475500e-002
3.716312e+003;3.461980e-002
3.718240e+003;3.434158e-002
3.720169e+003;3.414475e-002
3.722098e+003;3.377567e-002
3.724026e+003;3.402347e-002
3.725955e+003;3.445703e-002
3.727883e+003;3.468985e-002
3.729812e+003;3.426520e-002
3.731740e+003;3.368081e-002
3.733669e+003;3.423139e-002
3.735597e+003;3.432060e-002
3.737526e+003;3.399226e-002
3.739455e+003;3.372468e-002
3.741383e+003;3.344098e-002
3.743312e+003;3.331242e-002
3.745240e+003;3.340491e-002
3.747169e+003;3.358207e-002
3.749097e+003;3.372697e-002
3.751026e+003;3.389251e-002
3.752954e+003;3.376450e-002
3.754883e+003;3.394002e-002
3.756812e+003;3.377460e-002
3.758740e+003;3.327550e-002
3.760668e+003;3.325160e-002
3.762597e+003;3.387213e-002
3.764526e+003;3.435646e-002
3.766454e+003;3.428937e-002
3.768383e+003;3.412844e-002
3.770311e+003;3.402727e-002
3.772240e+003;3.378874e-002
3.774168e+003;3.377413e-002
3.776097e+003;3.427900e-002
3.778025e+003;3.409134e-002
3.779954e+003;3.342255e-002
3.781883e+003;3.326105e-002
3.783811e+003;3.348160e-002
3.785740e+003;3.378753e-002
3.787668e+003;3.369764e-002
3.789597e+003;3.339589e-002
3.791525e+003;3.400100e-002
3.793454e+003;3.430296e-002
3.795382e+003;3.409733e-002
3.797311e+003;3.351470e-002
3.799240e+003;3.349810e-002
3.801168e+003;3.359313e-002
3.803097e+003;3.392282e-002
3.805025e+003;3.408951e-002
3.806954e+003;3.382696e-002
3.808882e+003;3.428886e-002
3.810811e+003;3.472818e-002
3.812739e+003;3.480539e-002
3.814668e+003;3.499556e-002
3.816596e+003;3.483788e-002
3.818525e+003;3.444361e-002
3.820454e+003;3.408812e-002
3.822382e+003;3.415428e-002
3.824311e+003;3.437765e-002
3.826239e+003;3.471017e-002
3.828168e+003;3.501441e-002
3.830096e+003;3.531377e-002
3.832025e+003;3.493824e-002
3.833953e+003;3.447539e-002
3.835882e+003;3.465906e-002
3.837811e+003;3.502274e-002
3.839739e+003;3.493766e-002
3.841667e+003;3.500231e-002
3.843596e+003;3.477430e-002
3.845525e+003;3.418837e-002
3.847453e+003;3.384949e-002
3.849382e+003;3.419744e-002
3.851310e+003;3.419608e-002
3.853239e+003;3.430701e-002
3.855167e+003;3.469911e-002
3.857096e+003;3.483289e-002
3.859024e+003;3.477050e-002
3.860953e+003;3.517208e-002
3.862882e+003;3.544806e-002
3.864810e+003;3.531606e-002
3.866739e+003;3.554079e-002
3.868667e+003;3.536383e-002
3.870596e+003;3.502447e-002
3.872524e+003;3.528174e-002
3.874453e+003;3.529799e-002
3.876381e+003;3.519252e-002
3.878310e+003;3.552918e-002
3.880239e+003;3.527297e-002
3.882167e+003;3.499476e-002
3.884096e+003;3.531366e-002
3.886024e+003;3.586836e-002
3.887953e+003;3.562203e-002
3.889881e+003;3.510521e-002
3.891810e+003;3.532394e-002
3.893738e+003;3.554320e-002
3.895667e+003;3.602213e-002
3.897595e+003;3.675829e-002
3.899524e+003;3.663113e-002
3.901453e+003;3.606954e-002
3.903381e+003;3.608974e-002
3.905310e+003;3.589820e-002
3.907238e+003;3.604902e-002
3.909167e+003;3.678682e-002
3.911095e+003;3.701523e-002
3.913024e+003;3.709180e-002
3.914952e+003;3.677618e-002
3.916881e+003;3.658300e-002
3.918810e+003;3.639657e-002
3.920738e+003;3.627304e-002
3.922667e+003;3.649354e-002
3.924595e+003;3.686010e-002
3.926524e+003;3.675014e-002
3.928452e+003;3.668574e-002
3.930381e+003;3.712886e-002
3.932309e+003;3.714958e-002
3.934238e+003;3.726556e-002
3.936167e+003;3.794830e-002
3.938095e+003;3.813829e-002
3.940023e+003;3.769399e-002
3.941952e+003;3.663459e-002
3.943881e+003;3.663621e-002
3.945809e+003;3.734576e-002
3.947738e+003;3.766866e-002
3.949666e+003;3.734817e-002
3.951595e+003;3.701656e-002
3.953523e+003;3.722737e-002
3.955452e+003;3.759339e-002
3.957380e+003;3.700967e-002
3.959309e+003;3.631512e-002
3.961238e+003;3.730210e-002
3.963166e+003;3.853010e-002
3.965095e+003;3.855316e-002
3.967023e+003;3.777433e-002
3.968952e+003;3.815482e-002
3.970880e+003;3.851880e-002
3.972809e+003;3.810768e-002
3.974737e+003;3.727401e-002
3.976666e+003;3.721329e-002
3.978594e+003;3.826502e-002
3.980523e+003;3.921602e-002
3.982452e+003;3.922530e-002
3.984380e+003;3.932893e-002
3.986309e+003;3.923125e-002
3.988237e+003;3.801711e-002
3.990166e+003;3.814371e-002
3.992094e+003;3.912725e-002
3.994023e+003;3.885819e-002
3.995951e+003;3.820554e-002
3.997880e+003;3.812045e-002
3.999809e+003;3.873523e-002
4.001737e+003;0.000000e+000
