3.992094e+002;0.000000e+000
4.011380e+002;0.000000e+000
4.030665e+002;0.000000e+000
4.049951e+002;0.000000e+000
4.069236e+002;0.000000e+000
4.088522e+002;0.000000e+000
4.107807e+002;0.000000e+000
4.127093e+002;0.000000e+000
4.146378e+002;0.000000e+000
4.165664e+002;0.000000e+000
4.184949e+002;0.000000e+000
4.204235e+002;0.000000e+000
4.223520e+002;0.000000e+000
4.242806e+002;0.000000e+000
4.262091e+002;0.000000e+000
4.281377e+002;0.000000e+000
4.300662e+002;0.000000e+000
4.319948e+002;0.000000e+000
4.339233e+002;0.000000e+000
4.358519e+002;0.000000e+000
4.377804e+002;0.000000e+000
4.397090e+002;0.000000e+000
4.416375e+002;0.000000e+000
4.435660e+002;0.000000e+000
4.454946e+002;0.000000e+000
4.474232e+002;0.000000e+000
4.493517e+002;0.000000e+000
4.512802e+002;0.000000e+000
4.532088e+002;0.000000e+000
4.551373e+002;0.000000e+000
4.570659e+002;0.000000e+000
4.589944e+002;0.000000e+000
4.609230e+002;0.000000e+000
4.628515e+002;0.000000e+000
4.647801e+002;0.000000e+000
4.667086e+002;0.000000e+000
4.686372e+002;0.000000e+000
4.705657e+002;0.000000e+000
4.724943e+002;0.000000e+000
4.744228e+002;0.000000e+000
4.763513e+002;0.000000e+000
4.782799e+002;0.000000e+000
4.802085e+002;0.000000e+000
4.821370e+002;0.000000e+000
4.840656e+002;0.000000e+000
4.859941e+002;0.000000e+000
4.879226e+002;0.000000e+000
4.898512e+002;0.000000e+000
4.917798e+002;0.000000e+000
4.937083e+002;0.000000e+000
4.956368e+002;0.000000e+000
4.975654e+002;0.000000e+000
4.994939e+002;0.000000e+000
5.014225e+002;0.000000e+000
5.033510e+002;0.000000e+000
5.052796e+002;0.000000e+000
5.072081e+002;0.000000e+000
5.091367e+002;0.000000e+000
5.110652e+002;0.000000e+000
5.129938e+002;0.000000e+000
5.149223e+002;0.000000e+000
5.168509e+002;0.000000e+000
5.187794e+002;0.000000e+000
5.207079e+002;0.000000e+000
5.226365e+002;0.000000e+000
5.245651e+002;0.000000e+000
5.264936e+002;0.000000e+000
5.284222e+002;0.000000e+000
5.303507e+002;0.000000e+000
5.322792e+002;0.000000e+000
5.342078e+002;0.000000e+000
5.361364e+002;0.000000e+000
5.380649e+002;0.000000e+000
5.399935e+002;0.000000e+000
5.419220e+002;0.000000e+000
5.438505e+002;0.000000e+000
5.457791e+002;0.000000e+000
5.477076e+002;0.000000e+000
5.496362e+002;0.000000e+000
5.515648e+002;0.000000e+000
5.534933e+002;0.000000e+000
5.554218e+002;0.000000e+000
5.573504e+002;0.000000e+000
5.592789e+002;0.000000e+000
5.612075e+002;0.000000e+000
5.631360e+002;0.000000e+000
5.650646e+002;0.000000e+000
5.669931e+002;0.000000e+000
5.689217e+002;0.000000e+000
5.708502e+002;0.000000e+000
5.727787e+002;0.000000e+000
5.747073e+002;0.000000e+000
5.766359e+002;0.000000e+000
5.785644e+002;0.000000e+000
5.804930e+002;0.000000e+000
5.824215e+002;0.000000e+000
5.843500e+002;0.000000e+000
5.862786e+002;0.000000e+000
5.882072e+002;0.000000e+000
5.901357e+002;0.000000e+000
5.920643e+002;0.000000e+000
5.939928e+002;0.000000e+000
5.959213e+002;0.000000e+000
5.978499e+002;0.000000e+000
5.997784e+002;2.344473e-001
6.017070e+002;2.256987e-001
6.036355e+002;2.297316e-001
6.055641e+002;2.376294e-001
6.074926e+002;2.429736e-001
6.094211e+002;2.421933e-001
6.113497e+002;2.423402e-001
6.132783e+002;2.445571e-001
6.152068e+002;2.478332e-001
6.171354e+002;2.450150e-001
6.190639e+002;2.354731e-001
6.209924e+002;2.279384e-001
6.229210e+002;2.251024e-001
6.248495e+002;2.245546e-001
6.267781e+002;2.240328e-001
6.287067e+002;2.225441e-001
6.306352e+002;2.163107e-001
6.325637e+002;2.104555e-001
6.344923e+002;2.080856e-001
6.364208e+002;2.048113e-001
6.383494e+002;2.012445e-001
6.402780e+002;1.999042e-001
6.422065e+002;2.013207e-001
6.441350e+002;2.019214e-001
6.460636e+002;2.015649e-001
6.479921e+002;1.981772e-001
6.499207e+002;1.993228e-001
6.518492e+002;2.037490e-001
6.537778e+002;2.051048e-001
6.557063e+002;2.076025e-001
6.576349e+002;2.134291e-001
6.595634e+002;2.173481e-001
6.614919e+002;2.184601e-001
6.634205e+002;2.180395e-001
6.653491e+002;2.169953e-001
6.672776e+002;2.146224e-001
6.692062e+002;2.101800e-001
6.711347e+002;2.050328e-001
6.730632e+002;2.006228e-001
6.749918e+002;1.966440e-001
6.769203e+002;1.916850e-001
6.788489e+002;1.861172e-001
6.807775e+002;1.823246e-001
6.827060e+002;1.795152e-001
6.846345e+002;1.774483e-001
6.865631e+002;1.771798e-001
6.884916e+002;1.771813e-001
6.904202e+002;1.770796e-001
6.923488e+002;1.770524e-001
6.942773e+002;1.772060e-001
6.962058e+002;1.769021e-001
6.981344e+002;1.754419e-001
7.000629e+002;1.741196e-001
7.019915e+002;1.733451e-001
7.039200e+002;1.720674e-001
7.058486e+002;1.707727e-001
7.077771e+002;1.692937e-001
7.097057e+002;1.671368e-001
7.116342e+002;1.655683e-001
7.135627e+002;1.632438e-001
7.154913e+002;1.594366e-001
7.174199e+002;1.560718e-001
7.193484e+002;1.523888e-001
7.212770e+002;1.479410e-001
7.232055e+002;1.441964e-001
7.251340e+002;1.410120e-001
7.270626e+002;1.381646e-001
7.289911e+002;1.349145e-001
7.309197e+002;1.323598e-001
7.328483e+002;1.310145e-001
7.347768e+002;1.284352e-001
7.367053e+002;1.262421e-001
7.386339e+002;1.244427e-001
7.405624e+002;1.233866e-001
7.424910e+002;1.224570e-001
7.444196e+002;1.212107e-001
7.463481e+002;1.206236e-001
7.482766e+002;1.202198e-001
7.502052e+002;1.182814e-001
7.521337e+002;1.167437e-001
7.540623e+002;1.165559e-001
7.559908e+002;1.155359e-001
7.579194e+002;1.141324e-001
7.598479e+002;1.130484e-001
7.617765e+002;1.129168e-001
7.637050e+002;1.128172e-001
7.656335e+002;1.113756e-001
7.675621e+002;1.102346e-001
7.694907e+002;1.091273e-001
7.714192e+002;1.083090e-001
7.733478e+002;1.082268e-001
7.752763e+002;1.075854e-001
7.772048e+002;1.062342e-001
7.791334e+002;1.048074e-001
7.810620e+002;1.048403e-001
7.829905e+002;1.052258e-001
7.849191e+002;1.048492e-001
7.868476e+002;1.043474e-001
7.887761e+002;1.039436e-001
7.907047e+002;1.032453e-001
7.926332e+002;1.030994e-001
7.945618e+002;1.035828e-001
7.964903e+002;1.031970e-001
7.984189e+002;1.024097e-001
8.003474e+002;1.021124e-001
8.022759e+002;1.025438e-001
8.042045e+002;1.027963e-001
8.061331e+002;1.025150e-001
8.080616e+002;1.018992e-001
8.099902e+002;1.016104e-001
8.119187e+002;1.017872e-001
8.138472e+002;1.021417e-001
8.157758e+002;1.022573e-001
8.177043e+002;1.023272e-001
8.196329e+002;1.018966e-001
8.215615e+002;1.017309e-001
8.234900e+002;1.014722e-001
8.254185e+002;1.016058e-001
8.273471e+002;1.020181e-001
8.292756e+002;1.020862e-001
8.312042e+002;1.020439e-001
8.331328e+002;1.017865e-001
8.350613e+002;1.020842e-001
8.369898e+002;1.021341e-001
8.389184e+002;1.019012e-001
8.408469e+002;1.022137e-001
8.427755e+002;1.021357e-001
8.447040e+002;1.019379e-001
8.466326e+002;1.025710e-001
8.485611e+002;1.026678e-001
8.504897e+002;1.028105e-001
8.524182e+002;1.033562e-001
8.543467e+002;1.037080e-001
8.562753e+002;1.042651e-001
8.582039e+002;1.051645e-001
8.601324e+002;1.059370e-001
8.620610e+002;1.063668e-001
8.639895e+002;1.067169e-001
8.659180e+002;1.077486e-001
8.678466e+002;1.092422e-001
8.697751e+002;1.103775e-001
8.717037e+002;1.117210e-001
8.736323e+002;1.132288e-001
8.755608e+002;1.152176e-001
8.774893e+002;1.174816e-001
8.794179e+002;1.196700e-001
8.813464e+002;1.217656e-001
8.832750e+002;1.240544e-001
8.852036e+002;1.265214e-001
8.871321e+002;1.291646e-001
8.890606e+002;1.319837e-001
8.909892e+002;1.341321e-001
8.929177e+002;1.359049e-001
8.948463e+002;1.372754e-001
8.967748e+002;1.382371e-001
8.987034e+002;1.382864e-001
9.006319e+002;1.378054e-001
9.025605e+002;1.372258e-001
9.044890e+002;1.362316e-001
9.064175e+002;1.350324e-001
9.083461e+002;1.337811e-001
9.102747e+002;1.327181e-001
9.122032e+002;1.313573e-001
9.141318e+002;1.300565e-001
9.160603e+002;1.291998e-001
9.179888e+002;1.288406e-001
9.199174e+002;1.288693e-001
9.218459e+002;1.291210e-001
9.237745e+002;1.297648e-001
9.257031e+002;1.313716e-001
9.276316e+002;1.329387e-001
9.295601e+002;1.341932e-001
9.314887e+002;1.356786e-001
9.334172e+002;1.367723e-001
9.353458e+002;1.379676e-001
9.372744e+002;1.392902e-001
9.392029e+002;1.406563e-001
9.411314e+002;1.424844e-001
9.430600e+002;1.448397e-001
9.449885e+002;1.473687e-001
9.469171e+002;1.501129e-001
9.488456e+002;1.535069e-001
9.507742e+002;1.572681e-001
9.527027e+002;1.610342e-001
9.546313e+002;1.648492e-001
9.565598e+002;1.692092e-001
9.584883e+002;1.740870e-001
9.604169e+002;1.786432e-001
9.623455e+002;1.833000e-001
9.642740e+002;1.887230e-001
9.662026e+002;1.942113e-001
9.681311e+002;2.001503e-001
9.700596e+002;2.076230e-001
9.719882e+002;2.161344e-001
9.739167e+002;2.258100e-001
9.758453e+002;2.378087e-001
9.777739e+002;2.514184e-001
9.797024e+002;2.647544e-001
9.816309e+002;2.757971e-001
9.835595e+002;2.831395e-001
9.854880e+002;2.865967e-001
9.874166e+002;2.877252e-001
9.893452e+002;2.889963e-001
9.912737e+002;2.917685e-001
9.932022e+002;2.962041e-001
9.951307e+002;3.018533e-001
9.970593e+002;3.070653e-001
9.989879e+002;3.112285e-001
1.000916e+003;3.141566e-001
1.002845e+003;3.158296e-001
1.004773e+003;3.168477e-001
1.006702e+003;3.175923e-001
1.008631e+003;3.191786e-001
1.010559e+003;3.221319e-001
1.012488e+003;3.257567e-001
1.014416e+003;3.295860e-001
1.016345e+003;3.325978e-001
1.018273e+003;3.351697e-001
1.020202e+003;3.388259e-001
1.022130e+003;3.438881e-001
1.024059e+003;3.492475e-001
1.025988e+003;3.537172e-001
1.027916e+003;3.572258e-001
1.029845e+003;3.590887e-001
1.031773e+003;3.575045e-001
1.033702e+003;3.520109e-001
1.035630e+003;3.438460e-001
1.037559e+003;3.347838e-001
1.039487e+003;3.272040e-001
1.041416e+003;3.230886e-001
1.043344e+003;3.229868e-001
1.045273e+003;3.262210e-001
1.047202e+003;3.321509e-001
1.049130e+003;3.390355e-001
1.051059e+003;3.439446e-001
1.052987e+003;3.464625e-001
1.054916e+003;3.455262e-001
1.056844e+003;3.398040e-001
1.058773e+003;3.297903e-001
1.060701e+003;3.158660e-001
1.062630e+003;2.991531e-001
1.064558e+003;2.826233e-001
1.066487e+003;2.681371e-001
1.068416e+003;2.563291e-001
1.070344e+003;2.471005e-001
1.072273e+003;2.403882e-001
1.074201e+003;2.348849e-001
1.076130e+003;2.295063e-001
1.078058e+003;2.245184e-001
1.079987e+003;2.202535e-001
1.081915e+003;2.172358e-001
1.083844e+003;2.156144e-001
1.085773e+003;2.153997e-001
1.087701e+003;2.161853e-001
1.089630e+003;2.168410e-001
1.091558e+003;2.183346e-001
1.093487e+003;2.213099e-001
1.095415e+003;2.248584e-001
1.097344e+003;2.280939e-001
1.099272e+003;2.307877e-001
1.101201e+003;2.333979e-001
1.103129e+003;2.344898e-001
1.105058e+003;2.336358e-001
1.106987e+003;2.322281e-001
1.108915e+003;2.299686e-001
1.110844e+003;2.259581e-001
1.112772e+003;2.191156e-001
1.114701e+003;2.085855e-001
1.116629e+003;1.969862e-001
1.118558e+003;1.874390e-001
1.120486e+003;1.799586e-001
1.122415e+003;1.734687e-001
1.124344e+003;1.676254e-001
1.126272e+003;1.613956e-001
1.128201e+003;1.547725e-001
1.130129e+003;1.492671e-001
1.132058e+003;1.451263e-001
1.133986e+003;1.417207e-001
1.135915e+003;1.390207e-001
1.137843e+003;1.379290e-001
1.139772e+003;1.388851e-001
1.141700e+003;1.410893e-001
1.143629e+003;1.436787e-001
1.145557e+003;1.461986e-001
1.147486e+003;1.481811e-001
1.149415e+003;1.498434e-001
1.151343e+003;1.520655e-001
1.153272e+003;1.543504e-001
1.155200e+003;1.558442e-001
1.157129e+003;1.572576e-001
1.159057e+003;1.578532e-001
1.160986e+003;1.563886e-001
1.162914e+003;1.528586e-001
1.164843e+003;1.467174e-001
1.166771e+003;1.388124e-001
1.168700e+003;1.303976e-001
1.170629e+003;1.225391e-001
1.172557e+003;1.161027e-001
1.174486e+003;1.110072e-001
1.176414e+003;1.074567e-001
1.178343e+003;1.047865e-001
1.180271e+003;1.021697e-001
1.182200e+003;1.003043e-001
1.184128e+003;9.923557e-002
1.186057e+003;9.852947e-002
1.187986e+003;9.871842e-002
1.189914e+003;9.983785e-002
1.191843e+003;1.017993e-001
1.193771e+003;1.040897e-001
1.195700e+003;1.063479e-001
1.197628e+003;1.081321e-001
1.199557e+003;1.093224e-001
1.201485e+003;1.099366e-001
1.203414e+003;1.101087e-001
1.205343e+003;1.094768e-001
1.207271e+003;1.073882e-001
1.209200e+003;1.040426e-001
1.211128e+003;1.009497e-001
1.213057e+003;9.901439e-002
1.214985e+003;9.835541e-002
1.216914e+003;9.837738e-002
1.218842e+003;9.930307e-002
1.220771e+003;1.009698e-001
1.222699e+003;1.025478e-001
1.224628e+003;1.039265e-001
1.226557e+003;1.055371e-001
1.228485e+003;1.073740e-001
1.230414e+003;1.089742e-001
1.232342e+003;1.102547e-001
1.234271e+003;1.111699e-001
1.236199e+003;1.116987e-001
1.238128e+003;1.121047e-001
1.240056e+003;1.126040e-001
1.241985e+003;1.129514e-001
1.243913e+003;1.135233e-001
1.245842e+003;1.147296e-001
1.247771e+003;1.152314e-001
1.249699e+003;1.147970e-001
1.251628e+003;1.143544e-001
1.253556e+003;1.142466e-001
1.255485e+003;1.141573e-001
1.257413e+003;1.141370e-001
1.259342e+003;1.144406e-001
1.261270e+003;1.150074e-001
1.263199e+003;1.153813e-001
1.265127e+003;1.151518e-001
1.267056e+003;1.148589e-001
1.268985e+003;1.150046e-001
1.270913e+003;1.157166e-001
1.272842e+003;1.169667e-001
1.274770e+003;1.181984e-001
1.276699e+003;1.188018e-001
1.278627e+003;1.189549e-001
1.280556e+003;1.183995e-001
1.282484e+003;1.174342e-001
1.284413e+003;1.166749e-001
1.286342e+003;1.161387e-001
1.288270e+003;1.155130e-001
1.290199e+003;1.155672e-001
1.292127e+003;1.159840e-001
1.294056e+003;1.165292e-001
1.295984e+003;1.174562e-001
1.297913e+003;1.186191e-001
1.299841e+003;1.205899e-001
1.301770e+003;1.235035e-001
1.303698e+003;1.268709e-001
1.305627e+003;1.305525e-001
1.307556e+003;1.341477e-001
1.309484e+003;1.377661e-001
1.311413e+003;1.410068e-001
1.313341e+003;1.429800e-001
1.315270e+003;1.427773e-001
1.317198e+003;1.407605e-001
1.319127e+003;1.376281e-001
1.321055e+003;1.340759e-001
1.322984e+003;1.312512e-001
1.324912e+003;1.297483e-001
1.326841e+003;1.292204e-001
1.328770e+003;1.296970e-001
1.330698e+003;1.309571e-001
1.332627e+003;1.320006e-001
1.334555e+003;1.321464e-001
1.336484e+003;1.310768e-001
1.338412e+003;1.291762e-001
1.340341e+003;1.271530e-001
1.342269e+003;1.248522e-001
1.344198e+003;1.223275e-001
1.346126e+003;1.201860e-001
1.348055e+003;1.191655e-001
1.349984e+003;1.189686e-001
1.351912e+003;1.191806e-001
1.353841e+003;1.202088e-001
1.355769e+003;1.213975e-001
1.357698e+003;1.222845e-001
1.359626e+003;1.227392e-001
1.361555e+003;1.222734e-001
1.363483e+003;1.212650e-001
1.365412e+003;1.208705e-001
1.367341e+003;1.208222e-001
1.369269e+003;1.205909e-001
1.371198e+003;1.194398e-001
1.373126e+003;1.170198e-001
1.375055e+003;1.141985e-001
1.376983e+003;1.112364e-001
1.378912e+003;1.084238e-001
1.380840e+003;1.060660e-001
1.382769e+003;1.040237e-001
1.384698e+003;1.020478e-001
1.386626e+003;1.002329e-001
1.388555e+003;9.891152e-002
1.390483e+003;9.826785e-002
1.392412e+003;9.811262e-002
1.394340e+003;9.794071e-002
1.396269e+003;9.803758e-002
1.398197e+003;9.820279e-002
1.400126e+003;9.846275e-002
1.402054e+003;9.890503e-002
1.403983e+003;9.928596e-002
1.405911e+003;9.947690e-002
1.407840e+003;1.000054e-001
1.409769e+003;1.008278e-001
1.411697e+003;1.013727e-001
1.413626e+003;1.023132e-001
1.415554e+003;1.037272e-001
1.417483e+003;1.053525e-001
1.419411e+003;1.070662e-001
1.421340e+003;1.088492e-001
1.423268e+003;1.105735e-001
1.425197e+003;1.115680e-001
1.427125e+003;1.118202e-001
1.429054e+003;1.114798e-001
1.430983e+003;1.104423e-001
1.432911e+003;1.088405e-001
1.434840e+003;1.071499e-001
1.436768e+003;1.055656e-001
1.438697e+003;1.040692e-001
1.440625e+003;1.027636e-001
1.442554e+003;1.020292e-001
1.444482e+003;1.016529e-001
1.446411e+003;1.012133e-001
1.448340e+003;1.007168e-001
1.450268e+003;1.004666e-001
1.452197e+003;1.000177e-001
1.454125e+003;9.931473e-002
1.456054e+003;9.823221e-002
1.457982e+003;9.683920e-002
1.459911e+003;9.539285e-002
1.461839e+003;9.409337e-002
1.463768e+003;9.268992e-002
1.465697e+003;9.106999e-002
1.467625e+003;8.971679e-002
1.469554e+003;8.856176e-002
1.471482e+003;8.730145e-002
1.473411e+003;8.561315e-002
1.475339e+003;8.368886e-002
1.477268e+003;8.249819e-002
1.479196e+003;8.188290e-002
1.481125e+003;8.089525e-002
1.483053e+003;7.933880e-002
1.484982e+003;7.762116e-002
1.486911e+003;7.615222e-002
1.488839e+003;7.488488e-002
1.490768e+003;7.375209e-002
1.492696e+003;7.291792e-002
1.494625e+003;7.261746e-002
1.496553e+003;7.238641e-002
1.498482e+003;7.195832e-002
1.500410e+003;7.188758e-002
1.502339e+003;7.215146e-002
1.504267e+003;7.200247e-002
1.506196e+003;7.150634e-002
1.508125e+003;7.147607e-002
1.510053e+003;7.152783e-002
1.511982e+003;7.141053e-002
1.513910e+003;7.145173e-002
1.515839e+003;7.136265e-002
1.517767e+003;7.097360e-002
1.519696e+003;7.063510e-002
1.521624e+003;7.061507e-002
1.523553e+003;7.098901e-002
1.525481e+003;7.095268e-002
1.527410e+003;7.079295e-002
1.529339e+003;7.071885e-002
1.531267e+003;7.074596e-002
1.533196e+003;7.080761e-002
1.535124e+003;7.080968e-002
1.537053e+003;7.073894e-002
1.538981e+003;7.065639e-002
1.540910e+003;7.067242e-002
1.542838e+003;7.083012e-002
1.544767e+003;7.097227e-002
1.546695e+003;7.096158e-002
1.548624e+003;7.107864e-002
1.550553e+003;7.117762e-002
1.552481e+003;7.118207e-002
1.554410e+003;7.107228e-002
1.556338e+003;7.136913e-002
1.558267e+003;7.175174e-002
1.560195e+003;7.161812e-002
1.562124e+003;7.158811e-002
1.564052e+003;7.184935e-002
1.565981e+003;7.212862e-002
1.567910e+003;7.254517e-002
1.569838e+003;7.287376e-002
1.571767e+003;7.323310e-002
1.573695e+003;7.345486e-002
1.575624e+003;7.345051e-002
1.577552e+003;7.375472e-002
1.579481e+003;7.439139e-002
1.581409e+003;7.471099e-002
1.583338e+003;7.478572e-002
1.585266e+003;7.522056e-002
1.587195e+003;7.590926e-002
1.589124e+003;7.649619e-002
1.591052e+003;7.688820e-002
1.592981e+003;7.725528e-002
1.594909e+003;7.773222e-002
1.596838e+003;7.801978e-002
1.598766e+003;7.843715e-002
1.600695e+003;7.885492e-002
1.602623e+003;7.946983e-002
1.604552e+003;8.012236e-002
1.606480e+003;8.038846e-002
1.608409e+003;8.039922e-002
1.610338e+003;8.062480e-002
1.612266e+003;8.098475e-002
1.614195e+003;8.144202e-002
1.616123e+003;8.160549e-002
1.618052e+003;8.162940e-002
1.619980e+003;8.187146e-002
1.621909e+003;8.203180e-002
1.623837e+003;8.208315e-002
1.625766e+003;8.234581e-002
1.627694e+003;8.241831e-002
1.629623e+003;8.229362e-002
1.631552e+003;8.219893e-002
1.633480e+003;8.229483e-002
1.635409e+003;8.236548e-002
1.637337e+003;8.234669e-002
1.639266e+003;8.222543e-002
1.641194e+003;8.191775e-002
1.643123e+003;8.172493e-002
1.645051e+003;8.141448e-002
1.646980e+003;8.080799e-002
1.648909e+003;8.051016e-002
1.650837e+003;8.027484e-002
1.652766e+003;7.959674e-002
1.654694e+003;7.905779e-002
1.656623e+003;7.864301e-002
1.658551e+003;7.825333e-002
1.660480e+003;7.804227e-002
1.662408e+003;7.786821e-002
1.664337e+003;7.738003e-002
1.666266e+003;7.684015e-002
1.668194e+003;7.635510e-002
1.670123e+003;7.574466e-002
1.672051e+003;7.527179e-002
1.673980e+003;7.480836e-002
1.675908e+003;7.438321e-002
1.677837e+003;7.413527e-002
1.679765e+003;7.376745e-002
1.681694e+003;7.345156e-002
1.683622e+003;7.295555e-002
1.685551e+003;7.205582e-002
1.687479e+003;7.156557e-002
1.689408e+003;7.134382e-002
1.691337e+003;7.104325e-002
1.693265e+003;7.072786e-002
1.695194e+003;7.023011e-002
1.697122e+003;6.987231e-002
1.699051e+003;6.978954e-002
1.700979e+003;6.974476e-002
1.702908e+003;6.965777e-002
1.704836e+003;6.949078e-002
1.706765e+003;6.925101e-002
1.708693e+003;6.879935e-002
1.710622e+003;6.862240e-002
1.712551e+003;6.870084e-002
1.714479e+003;6.880281e-002
1.716408e+003;6.884366e-002
1.718336e+003;6.889766e-002
1.720265e+003;6.903712e-002
1.722193e+003;6.901522e-002
1.724122e+003;6.918281e-002
1.726050e+003;6.963918e-002
1.727979e+003;6.995525e-002
1.729908e+003;7.010467e-002
1.731836e+003;7.017921e-002
1.733765e+003;7.036478e-002
1.735693e+003;7.074510e-002
1.737622e+003;7.049996e-002
1.739550e+003;6.981028e-002
1.741479e+003;6.921992e-002
1.743407e+003;6.854852e-002
1.745336e+003;6.791392e-002
1.747265e+003;6.736122e-002
1.749193e+003;6.687164e-002
1.751122e+003;6.639563e-002
1.753050e+003;6.590748e-002
1.754979e+003;6.537396e-002
1.756907e+003;6.508037e-002
1.758836e+003;6.486015e-002
1.760764e+003;6.466410e-002
1.762693e+003;6.447618e-002
1.764621e+003;6.432507e-002
1.766550e+003;6.427836e-002
1.768479e+003;6.401826e-002
1.770407e+003;6.380635e-002
1.772336e+003;6.381445e-002
1.774264e+003;6.384555e-002
1.776193e+003;6.369584e-002
1.778121e+003;6.347896e-002
1.780050e+003;6.346834e-002
1.781978e+003;6.360557e-002
1.783907e+003;6.367052e-002
1.785835e+003;6.355172e-002
1.787764e+003;6.329313e-002
1.789693e+003;6.301979e-002
1.791621e+003;6.301787e-002
1.793550e+003;6.307667e-002
1.795478e+003;6.321363e-002
1.797407e+003;6.312327e-002
1.799335e+003;6.290349e-002
1.801264e+003;6.291004e-002
1.803192e+003;6.291798e-002
1.805121e+003;6.278556e-002
1.807049e+003;6.258023e-002
1.808978e+003;6.266727e-002
1.810907e+003;6.283101e-002
1.812835e+003;6.287593e-002
1.814764e+003;6.278494e-002
1.816692e+003;6.248288e-002
1.818621e+003;6.253297e-002
1.820549e+003;6.267312e-002
1.822478e+003;6.260560e-002
1.824406e+003;6.250717e-002
1.826335e+003;6.241436e-002
1.828264e+003;6.248529e-002
1.830192e+003;6.263186e-002
1.832121e+003;6.251009e-002
1.834049e+003;6.237140e-002
1.835978e+003;6.211229e-002
1.837906e+003;6.201604e-002
1.839835e+003;6.212987e-002
1.841763e+003;6.213924e-002
1.843692e+003;6.198138e-002
1.845620e+003;6.174186e-002
1.847549e+003;6.161209e-002
1.849478e+003;6.164432e-002
1.851406e+003;6.177708e-002
1.853335e+003;6.158067e-002
1.855263e+003;6.145381e-002
1.857192e+003;6.152970e-002
1.859120e+003;6.151045e-002
1.861049e+003;6.136385e-002
1.862977e+003;6.149702e-002
1.864906e+003;6.172784e-002
1.866834e+003;6.164638e-002
1.868763e+003;6.156757e-002
1.870692e+003;6.150072e-002
1.872620e+003;6.137839e-002
1.874549e+003;6.143629e-002
1.876477e+003;6.130237e-002
1.878406e+003;6.117395e-002
1.880334e+003;6.120157e-002
1.882263e+003;6.118273e-002
1.884191e+003;6.112982e-002
1.886120e+003;6.121084e-002
1.888048e+003;6.104393e-002
1.889977e+003;6.082681e-002
1.891906e+003;6.089634e-002
1.893834e+003;6.101533e-002
1.895763e+003;6.098491e-002
1.897691e+003;6.072696e-002
1.899620e+003;6.062313e-002
1.901548e+003;6.067061e-002
1.903477e+003;6.073416e-002
1.905405e+003;6.087743e-002
1.907334e+003;6.106205e-002
1.909262e+003;6.104542e-002
1.911191e+003;6.087499e-002
1.913120e+003;6.065898e-002
1.915048e+003;6.064504e-002
1.916977e+003;6.059155e-002
1.918905e+003;6.055913e-002
1.920834e+003;6.061612e-002
1.922762e+003;6.065548e-002
1.924691e+003;6.070897e-002
1.926619e+003;6.069396e-002
1.928548e+003;6.063205e-002
1.930477e+003;6.069838e-002
1.932405e+003;6.079114e-002
1.934334e+003;6.083379e-002
1.936262e+003;6.090930e-002
1.938191e+003;6.094914e-002
1.940119e+003;6.097027e-002
1.942048e+003;6.098300e-002
1.943976e+003;6.092047e-002
1.945905e+003;6.091651e-002
1.947833e+003;6.115668e-002
1.949762e+003;6.120527e-002
1.951691e+003;6.117178e-002
1.953619e+003;6.124449e-002
1.955548e+003;6.124831e-002
1.957476e+003;6.132530e-002
1.959405e+003;6.138743e-002
1.961333e+003;6.125277e-002
1.963262e+003;6.115736e-002
1.965190e+003;6.135923e-002
1.967119e+003;6.155780e-002
1.969047e+003;6.150896e-002
1.970976e+003;6.120642e-002
1.972905e+003;6.118524e-002
1.974833e+003;6.139732e-002
1.976762e+003;6.143335e-002
1.978690e+003;6.149961e-002
1.980619e+003;6.162515e-002
1.982547e+003;6.162007e-002
1.984476e+003;6.153623e-002
1.986404e+003;6.149782e-002
1.988333e+003;6.155379e-002
1.990261e+003;6.169236e-002
1.992190e+003;6.167563e-002
1.994119e+003;6.139213e-002
1.996047e+003;6.147430e-002
1.997976e+003;6.169427e-002
1.999904e+003;6.161358e-002
2.001833e+003;6.150393e-002
2.003761e+003;6.162087e-002
2.005690e+003;6.182747e-002
2.007618e+003;6.165268e-002
2.009547e+003;6.147808e-002
2.011476e+003;6.156738e-002
2.013404e+003;6.175301e-002
2.015333e+003;6.188691e-002
2.017261e+003;6.177723e-002
2.019190e+003;6.180027e-002
2.021118e+003;6.177589e-002
2.023047e+003;6.181593e-002
2.024975e+003;6.211405e-002
2.026904e+003;6.240564e-002
2.028833e+003;6.246769e-002
2.030761e+003;6.234627e-002
2.032690e+003;6.226041e-002
2.034618e+003;6.231166e-002
2.036547e+003;6.226710e-002
2.038475e+003;6.243199e-002
2.040404e+003;6.270255e-002
2.042332e+003;6.267159e-002
2.044261e+003;6.249543e-002
2.046189e+003;6.247492e-002
2.048118e+003;6.244034e-002
2.050047e+003;6.229525e-002
2.051975e+003;6.208412e-002
2.053904e+003;6.218355e-002
2.055832e+003;6.234103e-002
2.057761e+003;6.225984e-002
2.059689e+003;6.225422e-002
2.061618e+003;6.222152e-002
2.063546e+003;6.229127e-002
2.065475e+003;6.221701e-002
2.067404e+003;6.216738e-002
2.069332e+003;6.213351e-002
2.071260e+003;6.197591e-002
2.073189e+003;6.189486e-002
2.075118e+003;6.204429e-002
2.077046e+003;6.191095e-002
2.078975e+003;6.168274e-002
2.080903e+003;6.189624e-002
2.082832e+003;6.197625e-002
2.084760e+003;6.174641e-002
2.086689e+003;6.182548e-002
2.088617e+003;6.189838e-002
2.090546e+003;6.183904e-002
2.092475e+003;6.189995e-002
2.094403e+003;6.192547e-002
2.096332e+003;6.199051e-002
2.098260e+003;6.192539e-002
2.100189e+003;6.185513e-002
2.102117e+003;6.216142e-002
2.104046e+003;6.237297e-002
2.105974e+003;6.199376e-002
2.107903e+003;6.170317e-002
2.109832e+003;6.197182e-002
2.111760e+003;6.204773e-002
2.113688e+003;6.192233e-002
2.115617e+003;6.203213e-002
2.117546e+003;6.220565e-002
2.119474e+003;6.223379e-002
2.121403e+003;6.217277e-002
2.123331e+003;6.198164e-002
2.125260e+003;6.182601e-002
2.127188e+003;6.200885e-002
2.129117e+003;6.229395e-002
2.131045e+003;6.227330e-002
2.132974e+003;6.211240e-002
2.134903e+003;6.215629e-002
2.136831e+003;6.209126e-002
2.138760e+003;6.197369e-002
2.140688e+003;6.198164e-002
2.142617e+003;6.189016e-002
2.144545e+003;6.187675e-002
2.146474e+003;6.188007e-002
2.148402e+003;6.179492e-002
2.150331e+003;6.170474e-002
2.152260e+003;6.154401e-002
2.154188e+003;6.144438e-002
2.156117e+003;6.144338e-002
2.158045e+003;6.143377e-002
2.159974e+003;6.131260e-002
2.161902e+003;6.110499e-002
2.163831e+003;6.111186e-002
2.165759e+003;6.120111e-002
2.167688e+003;6.109507e-002
2.169616e+003;6.109126e-002
2.171545e+003;6.113920e-002
2.173474e+003;6.084991e-002
2.175402e+003;6.092009e-002
2.177331e+003;6.063411e-002
2.179259e+003;6.003888e-002
2.181188e+003;6.003176e-002
2.183116e+003;6.021933e-002
2.185045e+003;6.017773e-002
2.186973e+003;6.002887e-002
2.188902e+003;6.008663e-002
2.190831e+003;6.004603e-002
2.192759e+003;5.984580e-002
2.194688e+003;5.970234e-002
2.196616e+003;5.953464e-002
2.198545e+003;5.949322e-002
2.200473e+003;5.955429e-002
2.202402e+003;5.977895e-002
2.204330e+003;5.983534e-002
2.206259e+003;5.968747e-002
2.208188e+003;5.948421e-002
2.210116e+003;5.928735e-002
2.212044e+003;5.933271e-002
2.213973e+003;5.931690e-002
2.215902e+003;5.926806e-002
2.217830e+003;5.932625e-002
2.219759e+003;5.939607e-002
2.221687e+003;5.943098e-002
2.223616e+003;5.948486e-002
2.225544e+003;5.942316e-002
2.227473e+003;5.930236e-002
2.229401e+003;5.924110e-002
2.231330e+003;5.924322e-002
2.233259e+003;5.906856e-002
2.235187e+003;5.899743e-002
2.237116e+003;5.955334e-002
2.239044e+003;5.993449e-002
2.240973e+003;5.961039e-002
2.242901e+003;5.939645e-002
2.244830e+003;5.924926e-002
2.246758e+003;5.906052e-002
2.248687e+003;5.902017e-002
2.250615e+003;5.885057e-002
2.252544e+003;5.883194e-002
2.254473e+003;5.899163e-002
2.256401e+003;5.894745e-002
2.258330e+003;5.874142e-002
2.260258e+003;5.842241e-002
2.262187e+003;5.830302e-002
2.264115e+003;5.838299e-002
2.266044e+003;5.839053e-002
2.267972e+003;5.831792e-002
2.269901e+003;5.818144e-002
2.271830e+003;5.814147e-002
2.273758e+003;5.830746e-002
2.275687e+003;5.820652e-002
2.277615e+003;5.785886e-002
2.279544e+003;5.793560e-002
2.281472e+003;5.804667e-002
2.283401e+003;5.796226e-002
2.285329e+003;5.789195e-002
2.287258e+003;5.780625e-002
2.289187e+003;5.780420e-002
2.291115e+003;5.781877e-002
2.293043e+003;5.763553e-002
2.294972e+003;5.764026e-002
2.296901e+003;5.774013e-002
2.298829e+003;5.782581e-002
2.300758e+003;5.770917e-002
2.302686e+003;5.764556e-002
2.304615e+003;5.767190e-002
2.306543e+003;5.748841e-002
2.308472e+003;5.742918e-002
2.310400e+003;5.767723e-002
2.312329e+003;5.799263e-002
2.314258e+003;5.790853e-002
2.316186e+003;5.736142e-002
2.318115e+003;5.708684e-002
2.320043e+003;5.734410e-002
2.321972e+003;5.737424e-002
2.323900e+003;5.742155e-002
2.325829e+003;5.722464e-002
2.327757e+003;5.716635e-002
2.329686e+003;5.737654e-002
2.331615e+003;5.753135e-002
2.333543e+003;5.747756e-002
2.335472e+003;5.748342e-002
2.337400e+003;5.794178e-002
2.339329e+003;5.829063e-002
2.341257e+003;5.811693e-002
2.343186e+003;5.776995e-002
2.345114e+003;5.770690e-002
2.347043e+003;5.795389e-002
2.348971e+003;5.794783e-002
2.350900e+003;5.807015e-002
2.352829e+003;5.834494e-002
2.354757e+003;5.820326e-002
2.356686e+003;5.813098e-002
2.358614e+003;5.807761e-002
2.360543e+003;5.813458e-002
2.362471e+003;5.848458e-002
2.364400e+003;5.845653e-002
2.366328e+003;5.822107e-002
2.368257e+003;5.815845e-002
2.370186e+003;5.827044e-002
2.372114e+003;5.837878e-002
2.374042e+003;5.813780e-002
2.375971e+003;5.823039e-002
2.377900e+003;5.866803e-002
2.379828e+003;5.888574e-002
2.381757e+003;5.883759e-002
2.383685e+003;5.877499e-002
2.385614e+003;5.876802e-002
2.387542e+003;5.836802e-002
2.389471e+003;5.820141e-002
2.391399e+003;5.854304e-002
2.393328e+003;5.864247e-002
2.395257e+003;5.861327e-002
2.397185e+003;5.856515e-002
2.399114e+003;5.849046e-002
2.401042e+003;5.833626e-002
2.402971e+003;5.854395e-002
2.404899e+003;5.879567e-002
2.406828e+003;5.871844e-002
2.408756e+003;5.868703e-002
2.410685e+003;5.887705e-002
2.412614e+003;5.907137e-002
2.414542e+003;5.921744e-002
2.416471e+003;5.929867e-002
2.418399e+003;5.930152e-002
2.420328e+003;5.915425e-002
2.422256e+003;5.914168e-002
2.424185e+003;5.928265e-002
2.426113e+003;5.952469e-002
2.428042e+003;5.970770e-002
2.429970e+003;5.950181e-002
2.431899e+003;5.958807e-002
2.433828e+003;5.980473e-002
2.435756e+003;5.970561e-002
2.437685e+003;5.966113e-002
2.439613e+003;5.974503e-002
2.441542e+003;5.963950e-002
2.443470e+003;5.956649e-002
2.445399e+003;5.974849e-002
2.447327e+003;5.999680e-002
2.449256e+003;6.006361e-002
2.451185e+003;6.014040e-002
2.453113e+003;6.035120e-002
2.455042e+003;6.040801e-002
2.456970e+003;6.040371e-002
2.458899e+003;6.020776e-002
2.460827e+003;6.026337e-002
2.462756e+003;6.067163e-002
2.464684e+003;6.076271e-002
2.466613e+003;6.045603e-002
2.468542e+003;6.038520e-002
2.470470e+003;6.058747e-002
2.472398e+003;6.038699e-002
2.474327e+003;6.034298e-002
2.476256e+003;6.058500e-002
2.478184e+003;6.080177e-002
2.480113e+003;6.088060e-002
2.482041e+003;6.085639e-002
2.483970e+003;6.106525e-002
2.485898e+003;6.125895e-002
2.487827e+003;6.097221e-002
2.489755e+003;6.088685e-002
2.491684e+003;6.096965e-002
2.493613e+003;6.093892e-002
2.495541e+003;6.120512e-002
2.497470e+003;6.129100e-002
2.499398e+003;6.121210e-002
2.501327e+003;6.128154e-002
2.503255e+003;6.135144e-002
2.505184e+003;6.158773e-002
2.507112e+003;6.171115e-002
2.509041e+003;6.163558e-002
2.510969e+003;6.154176e-002
2.512898e+003;6.170248e-002
2.514827e+003;6.204004e-002
2.516755e+003;6.216681e-002
2.518684e+003;6.212498e-002
2.520612e+003;6.183247e-002
2.522541e+003;6.150324e-002
2.524469e+003;6.147175e-002
2.526398e+003;6.145946e-002
2.528326e+003;6.161729e-002
2.530255e+003;6.186766e-002
2.532184e+003;6.192505e-002
2.534112e+003;6.156956e-002
2.536041e+003;6.139308e-002
2.537969e+003;6.153306e-002
2.539898e+003;6.192238e-002
2.541826e+003;6.200431e-002
2.543755e+003;6.168583e-002
2.545683e+003;6.144423e-002
2.547612e+003;6.157372e-002
2.549541e+003;6.183671e-002
2.551469e+003;6.207173e-002
2.553397e+003;6.204670e-002
2.555326e+003;6.180729e-002
2.557255e+003;6.173735e-002
2.559183e+003;6.170103e-002
2.561112e+003;6.161763e-002
2.563040e+003;6.173384e-002
2.564969e+003;6.192096e-002
2.566897e+003;6.153012e-002
2.568826e+003;6.136064e-002
2.570754e+003;6.155218e-002
2.572683e+003;6.183568e-002
2.574612e+003;6.198734e-002
2.576540e+003;6.187381e-002
2.578469e+003;6.200633e-002
2.580397e+003;6.202223e-002
2.582326e+003;6.208270e-002
2.584254e+003;6.225491e-002
2.586183e+003;6.214868e-002
2.588111e+003;6.204838e-002
2.590040e+003;6.205617e-002
2.591969e+003;6.218527e-002
2.593897e+003;6.202774e-002
2.595826e+003;6.209547e-002
2.597754e+003;6.240878e-002
2.599683e+003;6.263611e-002
2.601611e+003;6.273789e-002
2.603540e+003;6.248545e-002
2.605468e+003;6.237955e-002
2.607397e+003;6.232088e-002
2.609325e+003;6.252811e-002
2.611254e+003;6.272606e-002
2.613183e+003;6.275715e-002
2.615111e+003;6.288971e-002
2.617040e+003;6.283652e-002
2.618968e+003;6.277242e-002
2.620897e+003;6.273816e-002
2.622825e+003;6.284606e-002
2.624754e+003;6.314680e-002
2.626682e+003;6.321225e-002
2.628611e+003;6.299569e-002
2.630540e+003;6.308438e-002
2.632468e+003;6.305622e-002
2.634396e+003;6.301760e-002
2.636325e+003;6.339418e-002
2.638254e+003;6.363684e-002
2.640182e+003;6.353120e-002
2.642111e+003;6.351386e-002
2.644039e+003;6.372201e-002
2.645968e+003;6.385153e-002
2.647896e+003;6.372999e-002
2.649825e+003;6.354892e-002
2.651753e+003;6.362794e-002
2.653682e+003;6.400735e-002
2.655611e+003;6.390519e-002
2.657539e+003;6.379902e-002
2.659468e+003;6.404202e-002
2.661396e+003;6.398032e-002
2.663325e+003;6.413104e-002
2.665253e+003;6.464957e-002
2.667182e+003;6.476375e-002
2.669110e+003;6.473006e-002
2.671039e+003;6.464630e-002
2.672968e+003;6.455779e-002
2.674896e+003;6.465387e-002
2.676825e+003;6.478625e-002
2.678753e+003;6.489851e-002
2.680682e+003;6.500521e-002
2.682610e+003;6.500001e-002
2.684539e+003;6.506629e-002
2.686467e+003;6.538737e-002
2.688396e+003;6.556135e-002
2.690324e+003;6.566278e-002
2.692253e+003;6.573336e-002
2.694182e+003;6.571224e-002
2.696110e+003;6.555002e-002
2.698039e+003;6.525088e-002
2.699967e+003;6.542207e-002
2.701896e+003;6.581300e-002
2.703824e+003;6.592533e-002
2.705753e+003;6.628024e-002
2.707681e+003;6.631282e-002
2.709610e+003;6.592382e-002
2.711539e+003;6.616427e-002
2.713467e+003;6.634022e-002
2.715396e+003;6.623922e-002
2.717324e+003;6.612920e-002
2.719253e+003;6.642821e-002
2.721181e+003;6.666793e-002
2.723110e+003;6.682093e-002
2.725038e+003;6.686901e-002
2.726967e+003;6.708658e-002
2.728896e+003;6.734993e-002
2.730824e+003;6.735267e-002
2.732752e+003;6.742147e-002
2.734681e+003;6.722164e-002
2.736610e+003;6.724473e-002
2.738538e+003;6.767154e-002
2.740467e+003;6.768308e-002
2.742395e+003;6.771359e-002
2.744324e+003;6.779051e-002
2.746252e+003;6.751548e-002
2.748181e+003;6.713965e-002
2.750109e+003;6.734745e-002
2.752038e+003;6.771471e-002
2.753967e+003;6.770356e-002
2.755895e+003;6.790199e-002
2.757824e+003;6.813857e-002
2.759752e+003;6.822354e-002
2.761681e+003;6.802516e-002
2.763609e+003;6.813593e-002
2.765538e+003;6.837121e-002
2.767466e+003;6.813729e-002
2.769395e+003;6.818319e-002
2.771323e+003;6.875118e-002
2.773252e+003;6.925260e-002
2.775181e+003;6.918056e-002
2.777109e+003;6.908708e-002
2.779038e+003;6.905713e-002
2.780966e+003;6.930483e-002
2.782895e+003;6.980207e-002
2.784823e+003;6.987484e-002
2.786752e+003;6.972527e-002
2.788680e+003;6.956244e-002
2.790609e+003;6.969037e-002
2.792538e+003;7.008991e-002
2.794466e+003;7.006460e-002
2.796395e+003;7.001061e-002
2.798323e+003;7.044236e-002
2.800252e+003;7.075972e-002
2.802180e+003;7.097383e-002
2.804109e+003;7.156099e-002
2.806037e+003;7.224309e-002
2.807966e+003;7.260995e-002
2.809895e+003;7.271320e-002
2.811823e+003;7.305633e-002
2.813751e+003;7.368632e-002
2.815680e+003;7.420484e-002
2.817609e+003;7.459141e-002
2.819537e+003;7.474790e-002
2.821466e+003;7.463602e-002
2.823394e+003;7.456634e-002
2.825323e+003;7.507484e-002
2.827251e+003;7.570474e-002
2.829180e+003;7.629178e-002
2.831108e+003;7.673774e-002
2.833037e+003;7.730532e-002
2.834966e+003;7.812960e-002
2.836894e+003;7.872204e-002
2.838823e+003;7.977881e-002
2.840751e+003;8.150930e-002
2.842680e+003;8.309450e-002
2.844608e+003;8.519237e-002
2.846537e+003;8.778989e-002
2.848465e+003;9.010156e-002
2.850394e+003;9.122763e-002
2.852323e+003;9.117931e-002
2.854251e+003;9.041032e-002
2.856180e+003;8.967207e-002
2.858108e+003;8.958559e-002
2.860037e+003;9.020913e-002
2.861965e+003;9.057124e-002
2.863894e+003;9.066521e-002
2.865822e+003;9.151298e-002
2.867751e+003;9.238048e-002
2.869679e+003;9.235396e-002
2.871608e+003;9.246820e-002
2.873536e+003;9.270358e-002
2.875465e+003;9.261388e-002
2.877394e+003;9.276220e-002
2.879322e+003;9.340023e-002
2.881251e+003;9.416197e-002
2.883179e+003;9.436958e-002
2.885108e+003;9.457678e-002
2.887036e+003;9.510333e-002
2.888965e+003;9.569032e-002
2.890893e+003;9.624159e-002
2.892822e+003;9.666874e-002
2.894750e+003;9.706656e-002
2.896679e+003;9.710120e-002
2.898608e+003;9.714814e-002
2.900536e+003;9.729172e-002
2.902465e+003;9.764048e-002
2.904393e+003;9.777804e-002
2.906322e+003;9.732518e-002
2.908250e+003;9.670931e-002
2.910179e+003;9.717699e-002
2.912107e+003;9.837922e-002
2.914036e+003;9.918494e-002
2.915965e+003;9.954602e-002
2.917893e+003;9.900049e-002
2.919822e+003;9.739076e-002
2.921750e+003;9.513088e-002
2.923679e+003;9.300086e-002
2.925607e+003;9.109320e-002
2.927536e+003;8.946690e-002
2.929464e+003;8.843050e-002
2.931393e+003;8.760754e-002
2.933322e+003;8.632833e-002
2.935250e+003;8.506097e-002
2.937178e+003;8.413624e-002
2.939107e+003;8.325317e-002
2.941036e+003;8.252452e-002
2.942964e+003;8.197241e-002
2.944893e+003;8.096027e-002
2.946821e+003;8.030470e-002
2.948750e+003;7.965214e-002
2.950678e+003;7.892489e-002
2.952607e+003;7.805856e-002
2.954535e+003;7.696736e-002
2.956464e+003;7.639772e-002
2.958393e+003;7.627223e-002
2.960321e+003;7.548939e-002
2.962250e+003;7.445278e-002
2.964178e+003;7.399703e-002
2.966107e+003;7.336345e-002
2.968035e+003;7.262138e-002
2.969964e+003;7.209270e-002
2.971892e+003;7.159186e-002
2.973821e+003;7.076897e-002
2.975750e+003;6.962607e-002
2.977678e+003;6.853867e-002
2.979607e+003;6.791253e-002
2.981535e+003;6.808209e-002
2.983464e+003;6.803548e-002
2.985392e+003;6.760452e-002
2.987321e+003;6.703447e-002
2.989249e+003;6.655124e-002
2.991178e+003;6.655405e-002
2.993106e+003;6.654008e-002
2.995035e+003;6.645825e-002
2.996964e+003;6.625102e-002
2.998892e+003;6.615385e-002
3.000821e+003;6.611249e-002
3.002749e+003;6.603429e-002
3.004678e+003;6.651358e-002
3.006606e+003;6.673527e-002
3.008535e+003;6.649273e-002
3.010463e+003;6.631452e-002
3.012392e+003;6.628758e-002
3.014321e+003;6.629027e-002
3.016249e+003;6.630139e-002
3.018177e+003;6.622235e-002
3.020106e+003;6.623817e-002
3.022035e+003;6.644705e-002
3.023963e+003;6.685344e-002
3.025892e+003;6.714498e-002
3.027820e+003;6.722376e-002
3.029749e+003;6.747635e-002
3.031677e+003;6.792834e-002
3.033606e+003;6.816683e-002
3.035534e+003;6.832455e-002
3.037463e+003;6.853347e-002
3.039392e+003;6.826988e-002
3.041320e+003;6.816845e-002
3.043249e+003;6.874881e-002
3.045177e+003;6.907034e-002
3.047106e+003;6.879796e-002
3.049034e+003;6.887980e-002
3.050963e+003;6.927032e-002
3.052891e+003;6.947821e-002
3.054820e+003;6.961806e-002
3.056749e+003;6.984643e-002
3.058677e+003;7.003124e-002
3.060606e+003;7.024176e-002
3.062534e+003;7.061561e-002
3.064463e+003;7.069366e-002
3.066391e+003;7.057125e-002
3.068320e+003;7.101929e-002
3.070248e+003;7.165509e-002
3.072177e+003;7.204898e-002
3.074105e+003;7.216758e-002
3.076034e+003;7.201901e-002
3.077963e+003;7.223590e-002
3.079891e+003;7.282563e-002
3.081820e+003;7.346126e-002
3.083748e+003;7.367510e-002
3.085677e+003;7.404174e-002
3.087605e+003;7.399046e-002
3.089534e+003;7.379819e-002
3.091462e+003;7.409923e-002
3.093391e+003;7.457374e-002
3.095320e+003;7.484686e-002
3.097248e+003;7.462595e-002
3.099177e+003;7.493371e-002
3.101105e+003;7.516434e-002
3.103034e+003;7.518766e-002
3.104962e+003;7.541063e-002
3.106891e+003;7.557925e-002
3.108819e+003;7.602676e-002
3.110748e+003;7.644573e-002
3.112677e+003;7.719567e-002
3.114605e+003;7.787851e-002
3.116533e+003;7.786151e-002
3.118462e+003;7.760195e-002
3.120391e+003;7.817252e-002
3.122319e+003;7.883513e-002
3.124248e+003;7.925873e-002
3.126176e+003;7.938856e-002
3.128105e+003;7.935598e-002
3.130033e+003;7.958945e-002
3.131962e+003;7.983225e-002
3.133890e+003;8.058690e-002
3.135819e+003;8.164211e-002
3.137748e+003;8.235835e-002
3.139676e+003;8.270735e-002
3.141605e+003;8.260795e-002
3.143533e+003;8.269480e-002
3.145462e+003;8.325437e-002
3.147390e+003;8.351103e-002
3.149319e+003;8.392479e-002
3.151247e+003;8.455124e-002
3.153176e+003;8.489124e-002
3.155104e+003;8.531822e-002
3.157033e+003;8.564874e-002
3.158962e+003;8.587916e-002
3.160890e+003;8.657815e-002
3.162819e+003;8.724895e-002
3.164747e+003;8.749975e-002
3.166676e+003;8.785851e-002
3.168604e+003;8.844870e-002
3.170533e+003;8.857817e-002
3.172461e+003;8.907358e-002
3.174390e+003;8.980300e-002
3.176319e+003;9.027969e-002
3.178247e+003;9.074564e-002
3.180176e+003;9.119812e-002
3.182104e+003;9.182565e-002
3.184033e+003;9.233335e-002
3.185961e+003;9.307914e-002
3.187890e+003;9.384774e-002
3.189818e+003;9.433400e-002
3.191747e+003;9.448328e-002
3.193676e+003;9.488652e-002
3.195604e+003;9.518328e-002
3.197532e+003;9.542612e-002
3.199461e+003;9.633986e-002
3.201390e+003;9.732720e-002
3.203318e+003;9.807931e-002
3.205247e+003;9.900536e-002
3.207175e+003;9.978949e-002
3.209104e+003;1.001961e-001
3.211032e+003;1.006256e-001
3.212961e+003;1.014354e-001
3.214889e+003;1.023454e-001
3.216818e+003;1.034256e-001
3.218747e+003;1.040657e-001
3.220675e+003;1.044275e-001
3.222604e+003;1.051469e-001
3.224532e+003;1.059913e-001
3.226461e+003;1.063708e-001
3.228389e+003;1.068385e-001
3.230318e+003;1.078211e-001
3.232246e+003;1.085175e-001
3.234175e+003;1.086148e-001
3.236104e+003;1.096844e-001
3.238032e+003;1.107366e-001
3.239961e+003;1.112425e-001
3.241889e+003;1.127759e-001
3.243818e+003;1.145454e-001
3.245746e+003;1.152768e-001
3.247675e+003;1.160537e-001
3.249603e+003;1.168946e-001
3.251532e+003;1.177528e-001
3.253460e+003;1.189119e-001
3.255389e+003;1.200182e-001
3.257318e+003;1.207607e-001
3.259246e+003;1.214739e-001
3.261175e+003;1.233611e-001
3.263103e+003;1.245915e-001
3.265032e+003;1.248451e-001
3.266960e+003;1.255533e-001
3.268889e+003;1.260714e-001
3.270817e+003;1.264558e-001
3.272746e+003;1.272126e-001
3.274675e+003;1.275269e-001
3.276603e+003;1.285854e-001
3.278531e+003;1.297962e-001
3.280460e+003;1.301028e-001
3.282389e+003;1.300697e-001
3.284317e+003;1.309398e-001
3.286246e+003;1.312896e-001
3.288174e+003;1.306612e-001
3.290103e+003;1.305877e-001
3.292031e+003;1.304801e-001
3.293960e+003;1.307293e-001
3.295888e+003;1.311637e-001
3.297817e+003;1.304594e-001
3.299746e+003;1.296217e-001
3.301674e+003;1.300334e-001
3.303603e+003;1.315682e-001
3.305531e+003;1.320220e-001
3.307460e+003;1.311992e-001
3.309388e+003;1.306015e-001
3.311317e+003;1.303767e-001
3.313245e+003;1.303076e-001
3.315174e+003;1.305221e-001
3.317103e+003;1.314463e-001
3.319031e+003;1.326847e-001
3.320960e+003;1.334866e-001
3.322888e+003;1.342993e-001
3.324817e+003;1.351800e-001
3.326745e+003;1.352669e-001
3.328674e+003;1.358401e-001
3.330602e+003;1.367955e-001
3.332531e+003;1.365798e-001
3.334459e+003;1.359026e-001
3.336388e+003;1.351602e-001
3.338317e+003;1.348326e-001
3.340245e+003;1.346815e-001
3.342174e+003;1.344557e-001
3.344102e+003;1.337265e-001
3.346031e+003;1.330555e-001
3.347959e+003;1.323766e-001
3.349888e+003;1.308893e-001
3.351816e+003;1.293579e-001
3.353745e+003;1.284695e-001
3.355674e+003;1.274319e-001
3.357602e+003;1.262033e-001
3.359531e+003;1.255833e-001
3.361459e+003;1.250148e-001
3.363388e+003;1.241644e-001
3.365316e+003;1.230444e-001
3.367245e+003;1.220005e-001
3.369173e+003;1.211666e-001
3.371102e+003;1.209930e-001
3.373031e+003;1.207144e-001
3.374959e+003;1.200529e-001
3.376887e+003;1.195409e-001
3.378816e+003;1.189151e-001
3.380745e+003;1.178738e-001
3.382673e+003;1.166298e-001
3.384602e+003;1.155185e-001
3.386530e+003;1.145444e-001
3.388459e+003;1.139999e-001
3.390387e+003;1.139843e-001
3.392316e+003;1.137630e-001
3.394244e+003;1.134014e-001
3.396173e+003;1.128660e-001
3.398102e+003;1.121813e-001
3.400030e+003;1.113595e-001
3.401959e+003;1.108740e-001
3.403887e+003;1.104091e-001
3.405816e+003;1.097930e-001
3.407744e+003;1.095153e-001
3.409673e+003;1.087406e-001
3.411601e+003;1.076068e-001
3.413530e+003;1.073363e-001
3.415458e+003;1.071550e-001
3.417387e+003;1.060800e-001
3.419316e+003;1.042704e-001
3.421244e+003;1.030390e-001
3.423173e+003;1.024783e-001
3.425101e+003;1.017708e-001
3.427030e+003;1.010002e-001
3.428958e+003;1.007781e-001
3.430887e+003;1.004268e-001
3.432815e+003;9.903583e-002
3.434744e+003;9.761738e-002
3.436673e+003;9.718499e-002
3.438601e+003;9.711686e-002
3.440530e+003;9.639347e-002
3.442458e+003;9.544647e-002
3.444387e+003;9.455927e-002
3.446315e+003;9.385123e-002
3.448244e+003;9.356032e-002
3.450172e+003;9.274197e-002
3.452101e+003;9.143281e-002
3.454030e+003;9.041975e-002
3.455958e+003;9.024568e-002
3.457886e+003;9.021868e-002
3.459815e+003;8.966620e-002
3.461744e+003;8.877406e-002
3.463672e+003;8.745704e-002
3.465601e+003;8.663009e-002
3.467529e+003;8.584787e-002
3.469458e+003;8.530930e-002
3.471386e+003;8.492855e-002
3.473315e+003;8.455063e-002
3.475243e+003;8.405207e-002
3.477172e+003;8.309069e-002
3.479101e+003;8.180949e-002
3.481029e+003;8.124303e-002
3.482958e+003;8.044193e-002
3.484886e+003;7.931513e-002
3.486815e+003;7.865242e-002
3.488743e+003;7.835487e-002
3.490672e+003;7.758439e-002
3.492600e+003;7.696827e-002
3.494529e+003;7.669085e-002
3.496458e+003;7.550390e-002
3.498386e+003;7.426746e-002
3.500315e+003;7.358889e-002
3.502243e+003;7.330570e-002
3.504172e+003;7.265103e-002
3.506100e+003;7.175744e-002
3.508029e+003;7.099244e-002
3.509957e+003;7.017010e-002
3.511886e+003;6.952391e-002
3.513814e+003;6.916331e-002
3.515743e+003;6.922610e-002
3.517672e+003;6.873981e-002
3.519600e+003;6.777947e-002
3.521529e+003;6.684018e-002
3.523457e+003;6.632162e-002
3.525386e+003;6.605490e-002
3.527314e+003;6.550618e-002
3.529243e+003;6.525131e-002
3.531171e+003;6.531804e-002
3.533100e+003;6.421132e-002
3.535029e+003;6.311235e-002
3.536957e+003;6.310181e-002
3.538885e+003;6.296198e-002
3.540814e+003;6.220202e-002
3.542743e+003;6.148366e-002
3.544671e+003;6.108585e-002
3.546600e+003;6.030350e-002
3.548528e+003;5.963912e-002
3.550457e+003;5.969052e-002
3.552385e+003;5.974158e-002
3.554314e+003;5.888639e-002
3.556242e+003;5.798320e-002
3.558171e+003;5.763773e-002
3.560100e+003;5.687595e-002
3.562028e+003;5.631233e-002
3.563957e+003;5.583263e-002
3.565885e+003;5.494697e-002
3.567814e+003;5.472179e-002
3.569742e+003;5.522028e-002
3.571671e+003;5.490260e-002
3.573599e+003;5.401812e-002
3.575528e+003;5.344736e-002
3.577457e+003;5.281404e-002
3.579385e+003;5.257078e-002
3.581314e+003;5.232514e-002
3.583242e+003;5.168233e-002
3.585171e+003;5.146659e-002
3.587099e+003;5.080936e-002
3.589028e+003;5.022388e-002
3.590956e+003;5.038891e-002
3.592885e+003;5.027997e-002
3.594813e+003;4.969003e-002
3.596742e+003;4.921135e-002
3.598671e+003;4.915513e-002
3.600599e+003;4.923528e-002
3.602528e+003;4.885732e-002
3.604456e+003;4.829145e-002
3.606385e+003;4.805836e-002
3.608313e+003;4.777765e-002
3.610242e+003;4.762219e-002
3.612170e+003;4.700350e-002
3.614099e+003;4.660814e-002
3.616028e+003;4.645821e-002
3.617956e+003;4.648731e-002
3.619885e+003;4.667937e-002
3.621813e+003;4.615779e-002
3.623742e+003;4.607544e-002
3.625670e+003;4.603554e-002
3.627599e+003;4.526889e-002
3.629527e+003;4.472365e-002
3.631456e+003;4.452313e-002
3.633385e+003;4.432967e-002
3.635313e+003;4.413643e-002
3.637241e+003;4.399279e-002
3.639170e+003;4.338005e-002
3.641099e+003;4.332532e-002
3.643027e+003;4.384454e-002
3.644956e+003;4.357152e-002
3.646884e+003;4.273505e-002
3.648813e+003;4.222862e-002
3.650741e+003;4.181693e-002
3.652670e+003;4.204370e-002
3.654598e+003;4.208130e-002
3.656527e+003;4.111287e-002
3.658456e+003;4.055067e-002
3.660384e+003;4.044635e-002
3.662313e+003;4.080025e-002
3.664241e+003;4.051851e-002
3.666170e+003;3.970123e-002
3.668098e+003;3.950094e-002
3.670027e+003;3.972341e-002
3.671955e+003;4.015194e-002
3.673884e+003;4.019995e-002
3.675813e+003;3.904622e-002
3.677741e+003;3.861994e-002
3.679669e+003;3.891266e-002
3.681598e+003;3.904912e-002
3.683527e+003;3.901472e-002
3.685455e+003;3.899775e-002
3.687384e+003;3.854414e-002
3.689312e+003;3.826462e-002
3.691241e+003;3.851286e-002
3.693169e+003;3.837885e-002
3.695098e+003;3.841276e-002
3.697026e+003;3.874783e-002
3.698955e+003;3.836509e-002
3.700884e+003;3.747392e-002
3.702812e+003;3.769457e-002
3.704741e+003;3.780661e-002
3.706669e+003;3.732593e-002
3.708598e+003;3.774979e-002
3.710526e+003;3.857195e-002
3.712455e+003;3.754617e-002
3.714383e+003;3.626195e-002
3.716312e+003;3.661688e-002
3.718240e+003;3.737959e-002
3.720169e+003;3.793184e-002
3.722098e+003;3.798406e-002
3.724026e+003;3.722166e-002
3.725955e+003;3.688672e-002
3.727883e+003;3.693275e-002
3.729812e+003;3.690342e-002
3.731740e+003;3.711114e-002
3.733669e+003;3.729347e-002
3.735597e+003;3.714298e-002
3.737526e+003;3.702638e-002
3.739455e+003;3.680041e-002
3.741383e+003;3.674812e-002
3.743312e+003;3.664987e-002
3.745240e+003;3.623652e-002
3.747169e+003;3.594196e-002
3.749097e+003;3.551853e-002
3.751026e+003;3.602562e-002
3.752954e+003;3.692380e-002
3.754883e+003;3.735077e-002
3.756812e+003;3.676723e-002
3.758740e+003;3.627149e-002
3.760668e+003;3.607926e-002
3.762597e+003;3.564764e-002
3.764526e+003;3.601622e-002
3.766454e+003;3.619165e-002
3.768383e+003;3.583216e-002
3.770311e+003;3.613932e-002
3.772240e+003;3.723250e-002
3.774168e+003;3.749285e-002
3.776097e+003;3.658909e-002
3.778025e+003;3.608704e-002
3.779954e+003;3.607303e-002
3.781883e+003;3.673099e-002
3.783811e+003;3.707755e-002
3.785740e+003;3.719120e-002
3.787668e+003;3.748848e-002
3.789597e+003;3.735811e-002
3.791525e+003;3.706351e-002
3.793454e+003;3.724043e-002
3.795382e+003;3.808070e-002
3.797311e+003;3.766201e-002
3.799240e+003;3.626728e-002
3.801168e+003;3.581860e-002
3.803097e+003;3.586465e-002
3.805025e+003;3.617169e-002
3.806954e+003;3.645307e-002
3.808882e+003;3.685837e-002
3.810811e+003;3.697525e-002
3.812739e+003;3.709866e-002
3.814668e+003;3.712821e-002
3.816596e+003;3.680005e-002
3.818525e+003;3.692420e-002
3.820454e+003;3.702316e-002
3.822382e+003;3.676918e-002
3.824311e+003;3.633961e-002
3.826239e+003;3.661404e-002
3.828168e+003;3.764202e-002
3.830096e+003;3.810877e-002
3.832025e+003;3.790531e-002
3.833953e+003;3.795188e-002
3.835882e+003;3.817055e-002
3.837811e+003;3.780224e-002
3.839739e+003;3.766367e-002
3.841667e+003;3.713117e-002
3.843596e+003;3.662784e-002
3.845525e+003;3.682324e-002
3.847453e+003;3.688196e-002
3.849382e+003;3.726286e-002
3.851310e+003;3.718412e-002
3.853239e+003;3.660546e-002
3.855167e+003;3.701653e-002
3.857096e+003;3.744749e-002
3.859024e+003;3.760513e-002
3.860953e+003;3.796681e-002
3.862882e+003;3.844270e-002
3.864810e+003;3.825652e-002
3.866739e+003;3.770812e-002
3.868667e+003;3.764275e-002
3.870596e+003;3.793214e-002
3.872524e+003;3.774253e-002
3.874453e+003;3.765167e-002
3.876381e+003;3.813568e-002
3.878310e+003;3.816658e-002
3.880239e+003;3.778575e-002
3.882167e+003;3.772803e-002
3.884096e+003;3.740097e-002
3.886024e+003;3.750199e-002
3.887953e+003;3.833603e-002
3.889881e+003;3.810862e-002
3.891810e+003;3.775926e-002
3.893738e+003;3.812287e-002
3.895667e+003;3.838449e-002
3.897595e+003;3.844031e-002
3.899524e+003;3.811741e-002
3.901453e+003;3.771596e-002
3.903381e+003;3.802409e-002
3.905310e+003;3.827020e-002
3.907238e+003;3.867669e-002
3.909167e+003;3.911692e-002
3.911095e+003;3.858072e-002
3.913024e+003;3.830277e-002
3.914952e+003;3.851102e-002
3.916881e+003;3.840932e-002
3.918810e+003;3.835962e-002
3.920738e+003;3.934199e-002
3.922667e+003;3.935080e-002
3.924595e+003;3.864866e-002
3.926524e+003;3.881786e-002
3.928452e+003;3.889084e-002
3.930381e+003;3.845214e-002
3.932309e+003;3.832795e-002
3.934238e+003;3.838663e-002
3.936167e+003;3.812794e-002
3.938095e+003;3.814993e-002
3.940023e+003;3.851941e-002
3.941952e+003;3.923227e-002
3.943881e+003;3.908722e-002
3.945809e+003;3.881395e-002
3.947738e+003;3.935283e-002
3.949666e+003;3.952119e-002
3.951595e+003;3.897525e-002
3.953523e+003;3.947862e-002
3.955452e+003;3.961751e-002
3.957380e+003;3.895506e-002
3.959309e+003;3.868086e-002
3.961238e+003;3.894074e-002
3.963166e+003;3.939988e-002
3.965095e+003;4.000997e-002
3.967023e+003;4.042253e-002
3.968952e+003;4.013268e-002
3.970880e+003;3.895879e-002
3.972809e+003;3.840371e-002
3.974737e+003;3.875577e-002
3.976666e+003;3.922704e-002
3.978594e+003;3.958394e-002
3.980523e+003;3.934329e-002
3.982452e+003;3.852144e-002
3.984380e+003;3.801093e-002
3.986309e+003;3.835669e-002
3.988237e+003;3.878102e-002
3.990166e+003;3.892389e-002
3.992094e+003;3.909027e-002
3.994023e+003;3.893581e-002
3.995951e+003;3.919299e-002
3.997880e+003;3.938290e-002
3.999809e+003;3.944720e-002
4.001737e+003;0.000000e+000
