3.992094e+002;0.000000e+000
4.011380e+002;0.000000e+000
4.030665e+002;0.000000e+000
4.049951e+002;0.000000e+000
4.069236e+002;0.000000e+000
4.088522e+002;0.000000e+000
4.107807e+002;0.000000e+000
4.127093e+002;0.000000e+000
4.146378e+002;0.000000e+000
4.165664e+002;0.000000e+000
4.184949e+002;0.000000e+000
4.204235e+002;0.000000e+000
4.223520e+002;0.000000e+000
4.242806e+002;0.000000e+000
4.262091e+002;0.000000e+000
4.281377e+002;0.000000e+000
4.300662e+002;0.000000e+000
4.319948e+002;0.000000e+000
4.339233e+002;0.000000e+000
4.358519e+002;0.000000e+000
4.377804e+002;0.000000e+000
4.397090e+002;0.000000e+000
4.416375e+002;0.000000e+000
4.435660e+002;0.000000e+000
4.454946e+002;0.000000e+000
4.474232e+002;0.000000e+000
4.493517e+002;0.000000e+000
4.512802e+002;0.000000e+000
4.532088e+002;0.000000e+000
4.551373e+002;0.000000e+000
4.570659e+002;0.000000e+000
4.589944e+002;0.000000e+000
4.609230e+002;0.000000e+000
4.628515e+002;0.000000e+000
4.647801e+002;0.000000e+000
4.667086e+002;0.000000e+000
4.686372e+002;0.000000e+000
4.705657e+002;0.000000e+000
4.724943e+002;0.000000e+000
4.744228e+002;0.000000e+000
4.763513e+002;0.000000e+000
4.782799e+002;0.000000e+000
4.802085e+002;0.000000e+000
4.821370e+002;0.000000e+000
4.840656e+002;0.000000e+000
4.859941e+002;0.000000e+000
4.879226e+002;0.000000e+000
4.898512e+002;0.000000e+000
4.917798e+002;0.000000e+000
4.937083e+002;0.000000e+000
4.956368e+002;0.000000e+000
4.975654e+002;0.000000e+000
4.994939e+002;0.000000e+000
5.014225e+002;0.000000e+000
5.033510e+002;0.000000e+000
5.052796e+002;0.000000e+000
5.072081e+002;0.000000e+000
5.091367e+002;0.000000e+000
5.110652e+002;0.000000e+000
5.129938e+002;0.000000e+000
5.149223e+002;0.000000e+000
5.168509e+002;0.000000e+000
5.187794e+002;0.000000e+000
5.207079e+002;0.000000e+000
5.226365e+002;0.000000e+000
5.245651e+002;0.000000e+000
5.264936e+002;0.000000e+000
5.284222e+002;0.000000e+000
5.303507e+002;0.000000e+000
5.322792e+002;0.000000e+000
5.342078e+002;0.000000e+000
5.361364e+002;0.000000e+000
5.380649e+002;0.000000e+000
5.399935e+002;0.000000e+000
5.419220e+002;0.000000e+000
5.438505e+002;0.000000e+000
5.457791e+002;0.000000e+000
5.477076e+002;0.000000e+000
5.496362e+002;0.000000e+000
5.515648e+002;0.000000e+000
5.534933e+002;0.000000e+000
5.554218e+002;0.000000e+000
5.573504e+002;0.000000e+000
5.592789e+002;0.000000e+000
5.612075e+002;0.000000e+000
5.631360e+002;0.000000e+000
5.650646e+002;0.000000e+000
5.669931e+002;0.000000e+000
5.689217e+002;0.000000e+000
5.708502e+002;0.000000e+000
5.727787e+002;0.000000e+000
5.747073e+002;0.000000e+000
5.766359e+002;0.000000e+000
5.785644e+002;0.000000e+000
5.804930e+002;0.000000e+000
5.824215e+002;0.000000e+000
5.843500e+002;0.000000e+000
5.862786e+002;0.000000e+000
5.882072e+002;0.000000e+000
5.901357e+002;0.000000e+000
5.920643e+002;0.000000e+000
5.939928e+002;0.000000e+000
5.959213e+002;0.000000e+000
5.978499e+002;0.000000e+000
5.997784e+002;2.241974e-001
6.017070e+002;2.252471e-001
6.036355e+002;2.227499e-001
6.055641e+002;2.248886e-001
6.074926e+002;2.231618e-001
6.094211e+002;2.197787e-001
6.113497e+002;2.193637e-001
6.132783e+002;2.182358e-001
6.152068e+002;2.187423e-001
6.171354e+002;2.208166e-001
6.190639e+002;2.170262e-001
6.209924e+002;2.102115e-001
6.229210e+002;2.059111e-001
6.248495e+002;2.063153e-001
6.267781e+002;2.060713e-001
6.287067e+002;2.018829e-001
6.306352e+002;1.974183e-001
6.325637e+002;1.970700e-001
6.344923e+002;1.956974e-001
6.364208e+002;1.920088e-001
6.383494e+002;1.882562e-001
6.402780e+002;1.819723e-001
6.422065e+002;1.807983e-001
6.441350e+002;1.838117e-001
6.460636e+002;1.837050e-001
6.479921e+002;1.841376e-001
6.499207e+002;1.849554e-001
6.518492e+002;1.842417e-001
6.537778e+002;1.852013e-001
6.557063e+002;1.906511e-001
6.576349e+002;1.971687e-001
6.595634e+002;2.011011e-001
6.614919e+002;2.021578e-001
6.634205e+002;2.017890e-001
6.653491e+002;1.999319e-001
6.672776e+002;1.995324e-001
6.692062e+002;1.979567e-001
6.711347e+002;1.926861e-001
6.730632e+002;1.874639e-001
6.749918e+002;1.818829e-001
6.769203e+002;1.755214e-001
6.788489e+002;1.708399e-001
6.807775e+002;1.678194e-001
6.827060e+002;1.659268e-001
6.846345e+002;1.652415e-001
6.865631e+002;1.657027e-001
6.884916e+002;1.635768e-001
6.904202e+002;1.623146e-001
6.923488e+002;1.638221e-001
6.942773e+002;1.637386e-001
6.962058e+002;1.623076e-001
6.981344e+002;1.614814e-001
7.000629e+002;1.614971e-001
7.019915e+002;1.611401e-001
7.039200e+002;1.600566e-001
7.058486e+002;1.587747e-001
7.077771e+002;1.569121e-001
7.097057e+002;1.555096e-001
7.116342e+002;1.537175e-001
7.135627e+002;1.510458e-001
7.154913e+002;1.482028e-001
7.174199e+002;1.457152e-001
7.193484e+002;1.429279e-001
7.212770e+002;1.398987e-001
7.232055e+002;1.371009e-001
7.251340e+002;1.342511e-001
7.270626e+002;1.315461e-001
7.289911e+002;1.291317e-001
7.309197e+002;1.261867e-001
7.328483e+002;1.240109e-001
7.347768e+002;1.218657e-001
7.367053e+002;1.203159e-001
7.386339e+002;1.190914e-001
7.405624e+002;1.181197e-001
7.424910e+002;1.174968e-001
7.444196e+002;1.163796e-001
7.463481e+002;1.150780e-001
7.482766e+002;1.143479e-001
7.502052e+002;1.132610e-001
7.521337e+002;1.119292e-001
7.540623e+002;1.112799e-001
7.559908e+002;1.103041e-001
7.579194e+002;1.089831e-001
7.598479e+002;1.083054e-001
7.617765e+002;1.079339e-001
7.637050e+002;1.070096e-001
7.656335e+002;1.055492e-001
7.675621e+002;1.056904e-001
7.694907e+002;1.056804e-001
7.714192e+002;1.044349e-001
7.733478e+002;1.036320e-001
7.752763e+002;1.029784e-001
7.772048e+002;1.021492e-001
7.791334e+002;1.014664e-001
7.810620e+002;1.010900e-001
7.829905e+002;1.009328e-001
7.849191e+002;1.004372e-001
7.868476e+002;1.003654e-001
7.887761e+002;1.004704e-001
7.907047e+002;1.000280e-001
7.926332e+002;9.947119e-002
7.945618e+002;9.926522e-002
7.964903e+002;9.853118e-002
7.984189e+002;9.740735e-002
8.003474e+002;9.732377e-002
8.022759e+002;9.791771e-002
8.042045e+002;9.800282e-002
8.061331e+002;9.791086e-002
8.080616e+002;9.796333e-002
8.099902e+002;9.739396e-002
8.119187e+002;9.701721e-002
8.138472e+002;9.781402e-002
8.157758e+002;9.857749e-002
8.177043e+002;9.816416e-002
8.196329e+002;9.746993e-002
8.215615e+002;9.706292e-002
8.234900e+002;9.697778e-002
8.254185e+002;9.774285e-002
8.273471e+002;9.865421e-002
8.292756e+002;9.880827e-002
8.312042e+002;9.864070e-002
8.331328e+002;9.868935e-002
8.350613e+002;9.884321e-002
8.369898e+002;9.846076e-002
8.389184e+002;9.791899e-002
8.408469e+002;9.782145e-002
8.427755e+002;9.728765e-002
8.447040e+002;9.789089e-002
8.466326e+002;9.892738e-002
8.485611e+002;9.855450e-002
8.504897e+002;9.827172e-002
8.524182e+002;9.881309e-002
8.543467e+002;9.923594e-002
8.562753e+002;9.991825e-002
8.582039e+002;1.006103e-001
8.601324e+002;1.010001e-001
8.620610e+002;1.012947e-001
8.639895e+002;1.020944e-001
8.659180e+002;1.029941e-001
8.678466e+002;1.036785e-001
8.697751e+002;1.039147e-001
8.717037e+002;1.051015e-001
8.736323e+002;1.070489e-001
8.755608e+002;1.090956e-001
8.774893e+002;1.108572e-001
8.794179e+002;1.129270e-001
8.813464e+002;1.153551e-001
8.832750e+002;1.174959e-001
8.852036e+002;1.195218e-001
8.871321e+002;1.220892e-001
8.890606e+002;1.247862e-001
8.909892e+002;1.270559e-001
8.929177e+002;1.291612e-001
8.948463e+002;1.304143e-001
8.967748e+002;1.306897e-001
8.987034e+002;1.305400e-001
9.006319e+002;1.304398e-001
9.025605e+002;1.302219e-001
9.044890e+002;1.290613e-001
9.064175e+002;1.274130e-001
9.083461e+002;1.261748e-001
9.102747e+002;1.248972e-001
9.122032e+002;1.234890e-001
9.141318e+002;1.221870e-001
9.160603e+002;1.214694e-001
9.179888e+002;1.216366e-001
9.199174e+002;1.223172e-001
9.218459e+002;1.225603e-001
9.237745e+002;1.232168e-001
9.257031e+002;1.248908e-001
9.276316e+002;1.261122e-001
9.295601e+002;1.269484e-001
9.314887e+002;1.283055e-001
9.334172e+002;1.293493e-001
9.353458e+002;1.302069e-001
9.372744e+002;1.312138e-001
9.392029e+002;1.326922e-001
9.411314e+002;1.346576e-001
9.430600e+002;1.366902e-001
9.449885e+002;1.386494e-001
9.469171e+002;1.407050e-001
9.488456e+002;1.437098e-001
9.507742e+002;1.468960e-001
9.527027e+002;1.499775e-001
9.546313e+002;1.533166e-001
9.565598e+002;1.570578e-001
9.584883e+002;1.609058e-001
9.604169e+002;1.646280e-001
9.623455e+002;1.688657e-001
9.642740e+002;1.737124e-001
9.662026e+002;1.785214e-001
9.681311e+002;1.835537e-001
9.700596e+002;1.897065e-001
9.719882e+002;1.971744e-001
9.739167e+002;2.057704e-001
9.758453e+002;2.161217e-001
9.777739e+002;2.278692e-001
9.797024e+002;2.403612e-001
9.816309e+002;2.518299e-001
9.835595e+002;2.598290e-001
9.854880e+002;2.636648e-001
9.874166e+002;2.656195e-001
9.893452e+002;2.676993e-001
9.912737e+002;2.711042e-001
9.932022e+002;2.751568e-001
9.951307e+002;2.799928e-001
9.970593e+002;2.851319e-001
9.989879e+002;2.895227e-001
1.000916e+003;2.922338e-001
1.002845e+003;2.936018e-001
1.004773e+003;2.948114e-001
1.006702e+003;2.960905e-001
1.008631e+003;2.979330e-001
1.010559e+003;3.007080e-001
1.012488e+003;3.039370e-001
1.014416e+003;3.070571e-001
1.016345e+003;3.106045e-001
1.018273e+003;3.144201e-001
1.020202e+003;3.184420e-001
1.022130e+003;3.228662e-001
1.024059e+003;3.265933e-001
1.025988e+003;3.296464e-001
1.027916e+003;3.324560e-001
1.029845e+003;3.338445e-001
1.031773e+003;3.328109e-001
1.033702e+003;3.286741e-001
1.035630e+003;3.217487e-001
1.037559e+003;3.138484e-001
1.039487e+003;3.070687e-001
1.041416e+003;3.038412e-001
1.043344e+003;3.048511e-001
1.045273e+003;3.081235e-001
1.047202e+003;3.124487e-001
1.049130e+003;3.169026e-001
1.051059e+003;3.205354e-001
1.052987e+003;3.227232e-001
1.054916e+003;3.215106e-001
1.056844e+003;3.164978e-001
1.058773e+003;3.082884e-001
1.060701e+003;2.971421e-001
1.062630e+003;2.831213e-001
1.064558e+003;2.687851e-001
1.066487e+003;2.563242e-001
1.068416e+003;2.457998e-001
1.070344e+003;2.370200e-001
1.072273e+003;2.305730e-001
1.074201e+003;2.256353e-001
1.076130e+003;2.210808e-001
1.078058e+003;2.162841e-001
1.079987e+003;2.120384e-001
1.081915e+003;2.088702e-001
1.083844e+003;2.067145e-001
1.085773e+003;2.065587e-001
1.087701e+003;2.069897e-001
1.089630e+003;2.070499e-001
1.091558e+003;2.080521e-001
1.093487e+003;2.100753e-001
1.095415e+003;2.127485e-001
1.097344e+003;2.153639e-001
1.099272e+003;2.175569e-001
1.101201e+003;2.191713e-001
1.103129e+003;2.196312e-001
1.105058e+003;2.191797e-001
1.106987e+003;2.181236e-001
1.108915e+003;2.158012e-001
1.110844e+003;2.111437e-001
1.112772e+003;2.040219e-001
1.114701e+003;1.950144e-001
1.116629e+003;1.852996e-001
1.118558e+003;1.772992e-001
1.120486e+003;1.709993e-001
1.122415e+003;1.651116e-001
1.124344e+003;1.596623e-001
1.126272e+003;1.537692e-001
1.128201e+003;1.479889e-001
1.130129e+003;1.433328e-001
1.132058e+003;1.396785e-001
1.133986e+003;1.361283e-001
1.135915e+003;1.333381e-001
1.137843e+003;1.319280e-001
1.139772e+003;1.319459e-001
1.141700e+003;1.334515e-001
1.143629e+003;1.359284e-001
1.145557e+003;1.381975e-001
1.147486e+003;1.399301e-001
1.149415e+003;1.413650e-001
1.151343e+003;1.433213e-001
1.153272e+003;1.449662e-001
1.155200e+003;1.459317e-001
1.157129e+003;1.467505e-001
1.159057e+003;1.465356e-001
1.160986e+003;1.447421e-001
1.162914e+003;1.415967e-001
1.164843e+003;1.356937e-001
1.166771e+003;1.280691e-001
1.168700e+003;1.207855e-001
1.170629e+003;1.141045e-001
1.172557e+003;1.082759e-001
1.174486e+003;1.036062e-001
1.176414e+003;1.006282e-001
1.178343e+003;9.851339e-002
1.180271e+003;9.637862e-002
1.182200e+003;9.422240e-002
1.184128e+003;9.312747e-002
1.186057e+003;9.285911e-002
1.187986e+003;9.338054e-002
1.189914e+003;9.450576e-002
1.191843e+003;9.601934e-002
1.193771e+003;9.794167e-002
1.195700e+003;9.970648e-002
1.197628e+003;1.014839e-001
1.199557e+003;1.030365e-001
1.201485e+003;1.037010e-001
1.203414e+003;1.036946e-001
1.205343e+003;1.032451e-001
1.207271e+003;1.013521e-001
1.209200e+003;9.810593e-002
1.211128e+003;9.527008e-002
1.213057e+003;9.377071e-002
1.214985e+003;9.312012e-002
1.216914e+003;9.305353e-002
1.218842e+003;9.397846e-002
1.220771e+003;9.542100e-002
1.222699e+003;9.687485e-002
1.224628e+003;9.863915e-002
1.226557e+003;1.004988e-001
1.228485e+003;1.018268e-001
1.230414e+003;1.029731e-001
1.232342e+003;1.039275e-001
1.234271e+003;1.044594e-001
1.236199e+003;1.049818e-001
1.238128e+003;1.052792e-001
1.240056e+003;1.053699e-001
1.241985e+003;1.056499e-001
1.243913e+003;1.064379e-001
1.245842e+003;1.074080e-001
1.247771e+003;1.077157e-001
1.249699e+003;1.074941e-001
1.251628e+003;1.073283e-001
1.253556e+003;1.073872e-001
1.255485e+003;1.072547e-001
1.257413e+003;1.071339e-001
1.259342e+003;1.072552e-001
1.261270e+003;1.075845e-001
1.263199e+003;1.079346e-001
1.265127e+003;1.078517e-001
1.267056e+003;1.075284e-001
1.268985e+003;1.074940e-001
1.270913e+003;1.078084e-001
1.272842e+003;1.085643e-001
1.274770e+003;1.094817e-001
1.276699e+003;1.099551e-001
1.278627e+003;1.099174e-001
1.280556e+003;1.094527e-001
1.282484e+003;1.084998e-001
1.284413e+003;1.076214e-001
1.286342e+003;1.071925e-001
1.288270e+003;1.070002e-001
1.290199e+003;1.071823e-001
1.292127e+003;1.076368e-001
1.294056e+003;1.081416e-001
1.295984e+003;1.089504e-001
1.297913e+003;1.099654e-001
1.299841e+003;1.115564e-001
1.301770e+003;1.138619e-001
1.303698e+003;1.165513e-001
1.305627e+003;1.195588e-001
1.307556e+003;1.223776e-001
1.309484e+003;1.251042e-001
1.311413e+003;1.277199e-001
1.313341e+003;1.292873e-001
1.315270e+003;1.293876e-001
1.317198e+003;1.282834e-001
1.319127e+003;1.260313e-001
1.321055e+003;1.231196e-001
1.322984e+003;1.207321e-001
1.324912e+003;1.192882e-001
1.326841e+003;1.187395e-001
1.328770e+003;1.190828e-001
1.330698e+003;1.199985e-001
1.332627e+003;1.208253e-001
1.334555e+003;1.207491e-001
1.336484e+003;1.199072e-001
1.338412e+003;1.187332e-001
1.340341e+003;1.172608e-001
1.342269e+003;1.153293e-001
1.344198e+003;1.132429e-001
1.346126e+003;1.113654e-001
1.348055e+003;1.102223e-001
1.349984e+003;1.097993e-001
1.351912e+003;1.101042e-001
1.353841e+003;1.112037e-001
1.355769e+003;1.122793e-001
1.357698e+003;1.129799e-001
1.359626e+003;1.132717e-001
1.361555e+003;1.129422e-001
1.363483e+003;1.121298e-001
1.365412e+003;1.115241e-001
1.367341e+003;1.112128e-001
1.369269e+003;1.110216e-001
1.371198e+003;1.102501e-001
1.373126e+003;1.081693e-001
1.375055e+003;1.055494e-001
1.376983e+003;1.031560e-001
1.378912e+003;1.007642e-001
1.380840e+003;9.859849e-002
1.382769e+003;9.674342e-002
1.384698e+003;9.521368e-002
1.386626e+003;9.368832e-002
1.388555e+003;9.239470e-002
1.390483e+003;9.181537e-002
1.392412e+003;9.157667e-002
1.394340e+003;9.140225e-002
1.396269e+003;9.151649e-002
1.398197e+003;9.163129e-002
1.400126e+003;9.189238e-002
1.402054e+003;9.235724e-002
1.403983e+003;9.270100e-002
1.405911e+003;9.295961e-002
1.407840e+003;9.325194e-002
1.409769e+003;9.369259e-002
1.411697e+003;9.414390e-002
1.413626e+003;9.521430e-002
1.415554e+003;9.644622e-002
1.417483e+003;9.725462e-002
1.419411e+003;9.854515e-002
1.421340e+003;1.002858e-001
1.423268e+003;1.016980e-001
1.425197e+003;1.025563e-001
1.427125e+003;1.028855e-001
1.429054e+003;1.023940e-001
1.430983e+003;1.013655e-001
1.432911e+003;9.994340e-002
1.434840e+003;9.836858e-002
1.436768e+003;9.696145e-002
1.438697e+003;9.590642e-002
1.440625e+003;9.483515e-002
1.442554e+003;9.412107e-002
1.444482e+003;9.381121e-002
1.446411e+003;9.340786e-002
1.448340e+003;9.294821e-002
1.450268e+003;9.257083e-002
1.452197e+003;9.189475e-002
1.454125e+003;9.118413e-002
1.456054e+003;9.024588e-002
1.457982e+003;8.907187e-002
1.459911e+003;8.791068e-002
1.461839e+003;8.672948e-002
1.463768e+003;8.537742e-002
1.465697e+003;8.382286e-002
1.467625e+003;8.248405e-002
1.469554e+003;8.116617e-002
1.471482e+003;7.976587e-002
1.473411e+003;7.845231e-002
1.475339e+003;7.733964e-002
1.477268e+003;7.642637e-002
1.479196e+003;7.585891e-002
1.481125e+003;7.505798e-002
1.483053e+003;7.365448e-002
1.484982e+003;7.196215e-002
1.486911e+003;7.058376e-002
1.488839e+003;6.935401e-002
1.490768e+003;6.828175e-002
1.492696e+003;6.760073e-002
1.494625e+003;6.722032e-002
1.496553e+003;6.687551e-002
1.498482e+003;6.632301e-002
1.500410e+003;6.623215e-002
1.502339e+003;6.659655e-002
1.504267e+003;6.635898e-002
1.506196e+003;6.576092e-002
1.508125e+003;6.590709e-002
1.510053e+003;6.602739e-002
1.511982e+003;6.597909e-002
1.513910e+003;6.599722e-002
1.515839e+003;6.576215e-002
1.517767e+003;6.532028e-002
1.519696e+003;6.497920e-002
1.521624e+003;6.489696e-002
1.523553e+003;6.515170e-002
1.525481e+003;6.520545e-002
1.527410e+003;6.511810e-002
1.529339e+003;6.507110e-002
1.531267e+003;6.518689e-002
1.533196e+003;6.511144e-002
1.535124e+003;6.507783e-002
1.537053e+003;6.509696e-002
1.538981e+003;6.476002e-002
1.540910e+003;6.461693e-002
1.542838e+003;6.500833e-002
1.544767e+003;6.518173e-002
1.546695e+003;6.518874e-002
1.548624e+003;6.516221e-002
1.550553e+003;6.501041e-002
1.552481e+003;6.495918e-002
1.554410e+003;6.488004e-002
1.556338e+003;6.514347e-002
1.558267e+003;6.513111e-002
1.560195e+003;6.507537e-002
1.562124e+003;6.541202e-002
1.564052e+003;6.564744e-002
1.565981e+003;6.574438e-002
1.567910e+003;6.594774e-002
1.569838e+003;6.639501e-002
1.571767e+003;6.679478e-002
1.573695e+003;6.688741e-002
1.575624e+003;6.677020e-002
1.577552e+003;6.693596e-002
1.579481e+003;6.759639e-002
1.581409e+003;6.801765e-002
1.583338e+003;6.831525e-002
1.585266e+003;6.868733e-002
1.587195e+003;6.906968e-002
1.589124e+003;6.940757e-002
1.591052e+003;6.969158e-002
1.592981e+003;7.018061e-002
1.594909e+003;7.076316e-002
1.596838e+003;7.098038e-002
1.598766e+003;7.099244e-002
1.600695e+003;7.127745e-002
1.602623e+003;7.224188e-002
1.604552e+003;7.308193e-002
1.606480e+003;7.329946e-002
1.608409e+003;7.327667e-002
1.610338e+003;7.357531e-002
1.612266e+003;7.389379e-002
1.614195e+003;7.409318e-002
1.616123e+003;7.410909e-002
1.618052e+003;7.434287e-002
1.619980e+003;7.481273e-002
1.621909e+003;7.495993e-002
1.623837e+003;7.505330e-002
1.625766e+003;7.535639e-002
1.627694e+003;7.540049e-002
1.629623e+003;7.535182e-002
1.631552e+003;7.535915e-002
1.633480e+003;7.528226e-002
1.635409e+003;7.507043e-002
1.637337e+003;7.523081e-002
1.639266e+003;7.537318e-002
1.641194e+003;7.491193e-002
1.643123e+003;7.464547e-002
1.645051e+003;7.455847e-002
1.646980e+003;7.429317e-002
1.648909e+003;7.410119e-002
1.650837e+003;7.384579e-002
1.652766e+003;7.338534e-002
1.654694e+003;7.313764e-002
1.656623e+003;7.267555e-002
1.658551e+003;7.219301e-002
1.660480e+003;7.187257e-002
1.662408e+003;7.152533e-002
1.664337e+003;7.126659e-002
1.666266e+003;7.086784e-002
1.668194e+003;7.021901e-002
1.670123e+003;6.971881e-002
1.672051e+003;6.921386e-002
1.673980e+003;6.872723e-002
1.675908e+003;6.838188e-002
1.677837e+003;6.805578e-002
1.679765e+003;6.775232e-002
1.681694e+003;6.747972e-002
1.683622e+003;6.691737e-002
1.685551e+003;6.623435e-002
1.687479e+003;6.594099e-002
1.689408e+003;6.569647e-002
1.691337e+003;6.534592e-002
1.693265e+003;6.492586e-002
1.695194e+003;6.431766e-002
1.697122e+003;6.396612e-002
1.699051e+003;6.375006e-002
1.700979e+003;6.354374e-002
1.702908e+003;6.346002e-002
1.704836e+003;6.342344e-002
1.706765e+003;6.333407e-002
1.708693e+003;6.288914e-002
1.710622e+003;6.267266e-002
1.712551e+003;6.279765e-002
1.714479e+003;6.272568e-002
1.716408e+003;6.246073e-002
1.718336e+003;6.232436e-002
1.720265e+003;6.245147e-002
1.722193e+003;6.259347e-002
1.724122e+003;6.264862e-002
1.726050e+003;6.257135e-002
1.727979e+003;6.246980e-002
1.729908e+003;6.257629e-002
1.731836e+003;6.274658e-002
1.733765e+003;6.276423e-002
1.735693e+003;6.284801e-002
1.737622e+003;6.249057e-002
1.739550e+003;6.193934e-002
1.741479e+003;6.176890e-002
1.743407e+003;6.143801e-002
1.745336e+003;6.105713e-002
1.747265e+003;6.063833e-002
1.749193e+003;6.025104e-002
1.751122e+003;5.989638e-002
1.753050e+003;5.956531e-002
1.754979e+003;5.903641e-002
1.756907e+003;5.870330e-002
1.758836e+003;5.868415e-002
1.760764e+003;5.861444e-002
1.762693e+003;5.833357e-002
1.764621e+003;5.819417e-002
1.766550e+003;5.814485e-002
1.768479e+003;5.776631e-002
1.770407e+003;5.738426e-002
1.772336e+003;5.731620e-002
1.774264e+003;5.744284e-002
1.776193e+003;5.760806e-002
1.778121e+003;5.757284e-002
1.780050e+003;5.719391e-002
1.781978e+003;5.704414e-002
1.783907e+003;5.717935e-002
1.785835e+003;5.707467e-002
1.787764e+003;5.691743e-002
1.789693e+003;5.660231e-002
1.791621e+003;5.644087e-002
1.793550e+003;5.661217e-002
1.795478e+003;5.672422e-002
1.797407e+003;5.666071e-002
1.799335e+003;5.658778e-002
1.801264e+003;5.649003e-002
1.803192e+003;5.640480e-002
1.805121e+003;5.629347e-002
1.807049e+003;5.627446e-002
1.808978e+003;5.627721e-002
1.810907e+003;5.610608e-002
1.812835e+003;5.612392e-002
1.814764e+003;5.622430e-002
1.816692e+003;5.589884e-002
1.818621e+003;5.593894e-002
1.820549e+003;5.621234e-002
1.822478e+003;5.621249e-002
1.824406e+003;5.599363e-002
1.826335e+003;5.594482e-002
1.828264e+003;5.604195e-002
1.830192e+003;5.613508e-002
1.832121e+003;5.619620e-002
1.834049e+003;5.615811e-002
1.835978e+003;5.592334e-002
1.837906e+003;5.558142e-002
1.839835e+003;5.533554e-002
1.841763e+003;5.527476e-002
1.843692e+003;5.534759e-002
1.845620e+003;5.542584e-002
1.847549e+003;5.534695e-002
1.849478e+003;5.521998e-002
1.851406e+003;5.524477e-002
1.853335e+003;5.511494e-002
1.855263e+003;5.483959e-002
1.857192e+003;5.476309e-002
1.859120e+003;5.494505e-002
1.861049e+003;5.497502e-002
1.862977e+003;5.485696e-002
1.864906e+003;5.489012e-002
1.866834e+003;5.492283e-002
1.868763e+003;5.496100e-002
1.870692e+003;5.503215e-002
1.872620e+003;5.489087e-002
1.874549e+003;5.476884e-002
1.876477e+003;5.472795e-002
1.878406e+003;5.479207e-002
1.880334e+003;5.483199e-002
1.882263e+003;5.466932e-002
1.884191e+003;5.457873e-002
1.886120e+003;5.473682e-002
1.888048e+003;5.479790e-002
1.889977e+003;5.454352e-002
1.891906e+003;5.443031e-002
1.893834e+003;5.461461e-002
1.895763e+003;5.453402e-002
1.897691e+003;5.431412e-002
1.899620e+003;5.442453e-002
1.901548e+003;5.445473e-002
1.903477e+003;5.449867e-002
1.905405e+003;5.453721e-002
1.907334e+003;5.449916e-002
1.909262e+003;5.446652e-002
1.911191e+003;5.432291e-002
1.913120e+003;5.434424e-002
1.915048e+003;5.452377e-002
1.916977e+003;5.438153e-002
1.918905e+003;5.431788e-002
1.920834e+003;5.457035e-002
1.922762e+003;5.466677e-002
1.924691e+003;5.472220e-002
1.926619e+003;5.474892e-002
1.928548e+003;5.467346e-002
1.930477e+003;5.472006e-002
1.932405e+003;5.494531e-002
1.934334e+003;5.499653e-002
1.936262e+003;5.473956e-002
1.938191e+003;5.461029e-002
1.940119e+003;5.465132e-002
1.942048e+003;5.484034e-002
1.943976e+003;5.500954e-002
1.945905e+003;5.510880e-002
1.947833e+003;5.518148e-002
1.949762e+003;5.514872e-002
1.951691e+003;5.534642e-002
1.953619e+003;5.554489e-002
1.955548e+003;5.557283e-002
1.957476e+003;5.531191e-002
1.959405e+003;5.515319e-002
1.961333e+003;5.521211e-002
1.963262e+003;5.543473e-002
1.965190e+003;5.566427e-002
1.967119e+003;5.561075e-002
1.969047e+003;5.547196e-002
1.970976e+003;5.532787e-002
1.972905e+003;5.542249e-002
1.974833e+003;5.577416e-002
1.976762e+003;5.580008e-002
1.978690e+003;5.574002e-002
1.980619e+003;5.588723e-002
1.982547e+003;5.588569e-002
1.984476e+003;5.595778e-002
1.986404e+003;5.593754e-002
1.988333e+003;5.589409e-002
1.990261e+003;5.608357e-002
1.992190e+003;5.618199e-002
1.994119e+003;5.611969e-002
1.996047e+003;5.598481e-002
1.997976e+003;5.587837e-002
1.999904e+003;5.587951e-002
2.001833e+003;5.596615e-002
2.003761e+003;5.627687e-002
2.005690e+003;5.639850e-002
2.007618e+003;5.622622e-002
2.009547e+003;5.607856e-002
2.011476e+003;5.623131e-002
2.013404e+003;5.654370e-002
2.015333e+003;5.666547e-002
2.017261e+003;5.658495e-002
2.019190e+003;5.676723e-002
2.021118e+003;5.687897e-002
2.023047e+003;5.700197e-002
2.024975e+003;5.729850e-002
2.026904e+003;5.748595e-002
2.028833e+003;5.752299e-002
2.030761e+003;5.756013e-002
2.032690e+003;5.754508e-002
2.034618e+003;5.753585e-002
2.036547e+003;5.750559e-002
2.038475e+003;5.769649e-002
2.040404e+003;5.773460e-002
2.042332e+003;5.745520e-002
2.044261e+003;5.731431e-002
2.046189e+003;5.742533e-002
2.048118e+003;5.756857e-002
2.050047e+003;5.745369e-002
2.051975e+003;5.708291e-002
2.053904e+003;5.702166e-002
2.055832e+003;5.720426e-002
2.057761e+003;5.725181e-002
2.059689e+003;5.735503e-002
2.061618e+003;5.753717e-002
2.063546e+003;5.755435e-002
2.065475e+003;5.732323e-002
2.067404e+003;5.727952e-002
2.069332e+003;5.724713e-002
2.071260e+003;5.713623e-002
2.073189e+003;5.709995e-002
2.075118e+003;5.716291e-002
2.077046e+003;5.713918e-002
2.078975e+003;5.702808e-002
2.080903e+003;5.710422e-002
2.082832e+003;5.721171e-002
2.084760e+003;5.721723e-002
2.086689e+003;5.712584e-002
2.088617e+003;5.710830e-002
2.090546e+003;5.709088e-002
2.092475e+003;5.728663e-002
2.094403e+003;5.748799e-002
2.096332e+003;5.744098e-002
2.098260e+003;5.713778e-002
2.100189e+003;5.706190e-002
2.102117e+003;5.738944e-002
2.104046e+003;5.742185e-002
2.105974e+003;5.719897e-002
2.107903e+003;5.716378e-002
2.109832e+003;5.719217e-002
2.111760e+003;5.721568e-002
2.113688e+003;5.723851e-002
2.115617e+003;5.727684e-002
2.117546e+003;5.738690e-002
2.119474e+003;5.756021e-002
2.121403e+003;5.777207e-002
2.123331e+003;5.759013e-002
2.125260e+003;5.727971e-002
2.127188e+003;5.719560e-002
2.129117e+003;5.747869e-002
2.131045e+003;5.777472e-002
2.132974e+003;5.774838e-002
2.134903e+003;5.789350e-002
2.136831e+003;5.780273e-002
2.138760e+003;5.753361e-002
2.140688e+003;5.751739e-002
2.142617e+003;5.745437e-002
2.144545e+003;5.745789e-002
2.146474e+003;5.740922e-002
2.148402e+003;5.721231e-002
2.150331e+003;5.719364e-002
2.152260e+003;5.722857e-002
2.154188e+003;5.721836e-002
2.156117e+003;5.703326e-002
2.158045e+003;5.689574e-002
2.159974e+003;5.683879e-002
2.161902e+003;5.673083e-002
2.163831e+003;5.655823e-002
2.165759e+003;5.659114e-002
2.167688e+003;5.662134e-002
2.169616e+003;5.664894e-002
2.171545e+003;5.676673e-002
2.173474e+003;5.646105e-002
2.175402e+003;5.640355e-002
2.177331e+003;5.621170e-002
2.179259e+003;5.569847e-002
2.181188e+003;5.560642e-002
2.183116e+003;5.589341e-002
2.185045e+003;5.589737e-002
2.186973e+003;5.556891e-002
2.188902e+003;5.547896e-002
2.190831e+003;5.546492e-002
2.192759e+003;5.537947e-002
2.194688e+003;5.525948e-002
2.196616e+003;5.523642e-002
2.198545e+003;5.519699e-002
2.200473e+003;5.504433e-002
2.202402e+003;5.493016e-002
2.204330e+003;5.495626e-002
2.206259e+003;5.494170e-002
2.208188e+003;5.508007e-002
2.210116e+003;5.510354e-002
2.212044e+003;5.497811e-002
2.213973e+003;5.477482e-002
2.215902e+003;5.501466e-002
2.217830e+003;5.526291e-002
2.219759e+003;5.516926e-002
2.221687e+003;5.515839e-002
2.223616e+003;5.516343e-002
2.225544e+003;5.514582e-002
2.227473e+003;5.528560e-002
2.229401e+003;5.526385e-002
2.231330e+003;5.503478e-002
2.233259e+003;5.485030e-002
2.235187e+003;5.499394e-002
2.237116e+003;5.540262e-002
2.239044e+003;5.562457e-002
2.240973e+003;5.538967e-002
2.242901e+003;5.499838e-002
2.244830e+003;5.494599e-002
2.246758e+003;5.499894e-002
2.248687e+003;5.475599e-002
2.250615e+003;5.456171e-002
2.252544e+003;5.478102e-002
2.254473e+003;5.504715e-002
2.256401e+003;5.495607e-002
2.258330e+003;5.460090e-002
2.260258e+003;5.445206e-002
2.262187e+003;5.450788e-002
2.264115e+003;5.433391e-002
2.266044e+003;5.418100e-002
2.267972e+003;5.421557e-002
2.269901e+003;5.401699e-002
2.271830e+003;5.397730e-002
2.273758e+003;5.427263e-002
2.275687e+003;5.429197e-002
2.277615e+003;5.394417e-002
2.279544e+003;5.367541e-002
2.281472e+003;5.359383e-002
2.283401e+003;5.366337e-002
2.285329e+003;5.372262e-002
2.287258e+003;5.367503e-002
2.289187e+003;5.367249e-002
2.291115e+003;5.371650e-002
2.293043e+003;5.373589e-002
2.294972e+003;5.357382e-002
2.296901e+003;5.344496e-002
2.298829e+003;5.345988e-002
2.300758e+003;5.365310e-002
2.302686e+003;5.380178e-002
2.304615e+003;5.377470e-002
2.306543e+003;5.372738e-002
2.308472e+003;5.368051e-002
2.310400e+003;5.373844e-002
2.312329e+003;5.357794e-002
2.314258e+003;5.326034e-002
2.316186e+003;5.310443e-002
2.318115e+003;5.314723e-002
2.320043e+003;5.350264e-002
2.321972e+003;5.348510e-002
2.323900e+003;5.329765e-002
2.325829e+003;5.318239e-002
2.327757e+003;5.308047e-002
2.329686e+003;5.311600e-002
2.331615e+003;5.330132e-002
2.333543e+003;5.342814e-002
2.335472e+003;5.359777e-002
2.337400e+003;5.394132e-002
2.339329e+003;5.401485e-002
2.341257e+003;5.398544e-002
2.343186e+003;5.394210e-002
2.345114e+003;5.386243e-002
2.347043e+003;5.406728e-002
2.348971e+003;5.419406e-002
2.350900e+003;5.438776e-002
2.352829e+003;5.432099e-002
2.354757e+003;5.410653e-002
2.356686e+003;5.392732e-002
2.358614e+003;5.385448e-002
2.360543e+003;5.404739e-002
2.362471e+003;5.449578e-002
2.364400e+003;5.478188e-002
2.366328e+003;5.465376e-002
2.368257e+003;5.444222e-002
2.370186e+003;5.451558e-002
2.372114e+003;5.471683e-002
2.374042e+003;5.469935e-002
2.375971e+003;5.469172e-002
2.377900e+003;5.482045e-002
2.379828e+003;5.510486e-002
2.381757e+003;5.535414e-002
2.383685e+003;5.532708e-002
2.385614e+003;5.521930e-002
2.387542e+003;5.490121e-002
2.389471e+003;5.486034e-002
2.391399e+003;5.517498e-002
2.393328e+003;5.538410e-002
2.395257e+003;5.541858e-002
2.397185e+003;5.521937e-002
2.399114e+003;5.500751e-002
2.401042e+003;5.512017e-002
2.402971e+003;5.530540e-002
2.404899e+003;5.539678e-002
2.406828e+003;5.551879e-002
2.408756e+003;5.560428e-002
2.410685e+003;5.558439e-002
2.412614e+003;5.557396e-002
2.414542e+003;5.590664e-002
2.416471e+003;5.607151e-002
2.418399e+003;5.601726e-002
2.420328e+003;5.585373e-002
2.422256e+003;5.581643e-002
2.424185e+003;5.594410e-002
2.426113e+003;5.604399e-002
2.428042e+003;5.623086e-002
2.429970e+003;5.609809e-002
2.431899e+003;5.609198e-002
2.433828e+003;5.633206e-002
2.435756e+003;5.635032e-002
2.437685e+003;5.613440e-002
2.439613e+003;5.619300e-002
2.441542e+003;5.647328e-002
2.443470e+003;5.661198e-002
2.445399e+003;5.672856e-002
2.447327e+003;5.693639e-002
2.449256e+003;5.696566e-002
2.451185e+003;5.699661e-002
2.453113e+003;5.729053e-002
2.455042e+003;5.739814e-002
2.456970e+003;5.720294e-002
2.458899e+003;5.693076e-002
2.460827e+003;5.701939e-002
2.462756e+003;5.707335e-002
2.464684e+003;5.719821e-002
2.466613e+003;5.744208e-002
2.468542e+003;5.755200e-002
2.470470e+003;5.757806e-002
2.472398e+003;5.755094e-002
2.474327e+003;5.761908e-002
2.476256e+003;5.782491e-002
2.478184e+003;5.787408e-002
2.480113e+003;5.779141e-002
2.482041e+003;5.795904e-002
2.483970e+003;5.811011e-002
2.485898e+003;5.813905e-002
2.487827e+003;5.807318e-002
2.489755e+003;5.824194e-002
2.491684e+003;5.850922e-002
2.493613e+003;5.855009e-002
2.495541e+003;5.836188e-002
2.497470e+003;5.815314e-002
2.499398e+003;5.833872e-002
2.501327e+003;5.835915e-002
2.503255e+003;5.806223e-002
2.505184e+003;5.795700e-002
2.507112e+003;5.818640e-002
2.509041e+003;5.830818e-002
2.510969e+003;5.841536e-002
2.512898e+003;5.857148e-002
2.514827e+003;5.885159e-002
2.516755e+003;5.908493e-002
2.518684e+003;5.908185e-002
2.520612e+003;5.892085e-002
2.522541e+003;5.904985e-002
2.524469e+003;5.904105e-002
2.526398e+003;5.884681e-002
2.528326e+003;5.885816e-002
2.530255e+003;5.873930e-002
2.532184e+003;5.882067e-002
2.534112e+003;5.864956e-002
2.536041e+003;5.848587e-002
2.537969e+003;5.869056e-002
2.539898e+003;5.889511e-002
2.541826e+003;5.872359e-002
2.543755e+003;5.855316e-002
2.545683e+003;5.868688e-002
2.547612e+003;5.878922e-002
2.549541e+003;5.875208e-002
2.551469e+003;5.893648e-002
2.553397e+003;5.898756e-002
2.555326e+003;5.899747e-002
2.557255e+003;5.901633e-002
2.559183e+003;5.867554e-002
2.561112e+003;5.877348e-002
2.563040e+003;5.898935e-002
2.564969e+003;5.883122e-002
2.566897e+003;5.857724e-002
2.568826e+003;5.864216e-002
2.570754e+003;5.876684e-002
2.572683e+003;5.880326e-002
2.574612e+003;5.880815e-002
2.576540e+003;5.878884e-002
2.578469e+003;5.876699e-002
2.580397e+003;5.888510e-002
2.582326e+003;5.921501e-002
2.584254e+003;5.921201e-002
2.586183e+003;5.899367e-002
2.588111e+003;5.908842e-002
2.590040e+003;5.934353e-002
2.591969e+003;5.958264e-002
2.593897e+003;5.945997e-002
2.595826e+003;5.948805e-002
2.597754e+003;5.952852e-002
2.599683e+003;5.921402e-002
2.601611e+003;5.913671e-002
2.603540e+003;5.943603e-002
2.605468e+003;5.949022e-002
2.607397e+003;5.937977e-002
2.609325e+003;5.940541e-002
2.611254e+003;5.939200e-002
2.613183e+003;5.949288e-002
2.615111e+003;5.982827e-002
2.617040e+003;5.981876e-002
2.618968e+003;5.981253e-002
2.620897e+003;5.985630e-002
2.622825e+003;5.982272e-002
2.624754e+003;5.986938e-002
2.626682e+003;5.997580e-002
2.628611e+003;6.001122e-002
2.630540e+003;5.999197e-002
2.632468e+003;6.005935e-002
2.634396e+003;6.014143e-002
2.636325e+003;6.014055e-002
2.638254e+003;6.050745e-002
2.640182e+003;6.091529e-002
2.642111e+003;6.096679e-002
2.644039e+003;6.097076e-002
2.645968e+003;6.094434e-002
2.647896e+003;6.090580e-002
2.649825e+003;6.094762e-002
2.651753e+003;6.115668e-002
2.653682e+003;6.153206e-002
2.655611e+003;6.147434e-002
2.657539e+003;6.115160e-002
2.659468e+003;6.121267e-002
2.661396e+003;6.142823e-002
2.663325e+003;6.162038e-002
2.665253e+003;6.174858e-002
2.667182e+003;6.166540e-002
2.669110e+003;6.173781e-002
2.671039e+003;6.177994e-002
2.672968e+003;6.179927e-002
2.674896e+003;6.184680e-002
2.676825e+003;6.188565e-002
2.678753e+003;6.206848e-002
2.680682e+003;6.231958e-002
2.682610e+003;6.207445e-002
2.684539e+003;6.199773e-002
2.686467e+003;6.237278e-002
2.688396e+003;6.252937e-002
2.690324e+003;6.259266e-002
2.692253e+003;6.268525e-002
2.694182e+003;6.278621e-002
2.696110e+003;6.274761e-002
2.698039e+003;6.269184e-002
2.699967e+003;6.278154e-002
2.701896e+003;6.308840e-002
2.703824e+003;6.329735e-002
2.705753e+003;6.325667e-002
2.707681e+003;6.289009e-002
2.709610e+003;6.283101e-002
2.711539e+003;6.331233e-002
2.713467e+003;6.388492e-002
2.715396e+003;6.395506e-002
2.717324e+003;6.369174e-002
2.719253e+003;6.364378e-002
2.721181e+003;6.368798e-002
2.723110e+003;6.374964e-002
2.725038e+003;6.380589e-002
2.726967e+003;6.388231e-002
2.728896e+003;6.384930e-002
2.730824e+003;6.398612e-002
2.732752e+003;6.436634e-002
2.734681e+003;6.445704e-002
2.736610e+003;6.433637e-002
2.738538e+003;6.448863e-002
2.740467e+003;6.475963e-002
2.742395e+003;6.460258e-002
2.744324e+003;6.439989e-002
2.746252e+003;6.424236e-002
2.748181e+003;6.406310e-002
2.750109e+003;6.414260e-002
2.752038e+003;6.450943e-002
2.753967e+003;6.470233e-002
2.755895e+003;6.466891e-002
2.757824e+003;6.475190e-002
2.759752e+003;6.493656e-002
2.761681e+003;6.494968e-002
2.763609e+003;6.487115e-002
2.765538e+003;6.488638e-002
2.767466e+003;6.475606e-002
2.769395e+003;6.484310e-002
2.771323e+003;6.535478e-002
2.773252e+003;6.555441e-002
2.775181e+003;6.532886e-002
2.777109e+003;6.550664e-002
2.779038e+003;6.585959e-002
2.780966e+003;6.591202e-002
2.782895e+003;6.610782e-002
2.784823e+003;6.652672e-002
2.786752e+003;6.663776e-002
2.788680e+003;6.650150e-002
2.790609e+003;6.638061e-002
2.792538e+003;6.653097e-002
2.794466e+003;6.663189e-002
2.796395e+003;6.690960e-002
2.798323e+003;6.746253e-002
2.800252e+003;6.773547e-002
2.802180e+003;6.761122e-002
2.804109e+003;6.770492e-002
2.806037e+003;6.801974e-002
2.807966e+003;6.832665e-002
2.809895e+003;6.849398e-002
2.811823e+003;6.896617e-002
2.813751e+003;6.965474e-002
2.815680e+003;7.006542e-002
2.817609e+003;7.042888e-002
2.819537e+003;7.066045e-002
2.821466e+003;7.078737e-002
2.823394e+003;7.096419e-002
2.825323e+003;7.112368e-002
2.827251e+003;7.163472e-002
2.829180e+003;7.206974e-002
2.831108e+003;7.217862e-002
2.833037e+003;7.261418e-002
2.834966e+003;7.363988e-002
2.836894e+003;7.413452e-002
2.838823e+003;7.466427e-002
2.840751e+003;7.584301e-002
2.842680e+003;7.703920e-002
2.844608e+003;7.820549e-002
2.846537e+003;7.966670e-002
2.848465e+003;8.127531e-002
2.850394e+003;8.247371e-002
2.852323e+003;8.321042e-002
2.854251e+003;8.276860e-002
2.856180e+003;8.197205e-002
2.858108e+003;8.217418e-002
2.860037e+003;8.291034e-002
2.861965e+003;8.329322e-002
2.863894e+003;8.376238e-002
2.865822e+003;8.451968e-002
2.867751e+003;8.495047e-002
2.869679e+003;8.508277e-002
2.871608e+003;8.537770e-002
2.873536e+003;8.573725e-002
2.875465e+003;8.592689e-002
2.877394e+003;8.624729e-002
2.879322e+003;8.655785e-002
2.881251e+003;8.697991e-002
2.883179e+003;8.709517e-002
2.885108e+003;8.738333e-002
2.887036e+003;8.801942e-002
2.888965e+003;8.840939e-002
2.890893e+003;8.912410e-002
2.892822e+003;8.970579e-002
2.894750e+003;8.989237e-002
2.896679e+003;9.004737e-002
2.898608e+003;9.002165e-002
2.900536e+003;8.972376e-002
2.902465e+003;8.979554e-002
2.904393e+003;8.979461e-002
2.906322e+003;8.929581e-002
2.908250e+003;8.870178e-002
2.910179e+003;8.867858e-002
2.912107e+003;8.907309e-002
2.914036e+003;8.961675e-002
2.915965e+003;8.974946e-002
2.917893e+003;8.921837e-002
2.919822e+003;8.811519e-002
2.921750e+003;8.698177e-002
2.923679e+003;8.604135e-002
2.925607e+003;8.436236e-002
2.927536e+003;8.296196e-002
2.929464e+003;8.192063e-002
2.931393e+003;8.117703e-002
2.933322e+003;8.045258e-002
2.935250e+003;7.939023e-002
2.937178e+003;7.838333e-002
2.939107e+003;7.789961e-002
2.941036e+003;7.758182e-002
2.942964e+003;7.722916e-002
2.944893e+003;7.652488e-002
2.946821e+003;7.541233e-002
2.948750e+003;7.464826e-002
2.950678e+003;7.415048e-002
2.952607e+003;7.373764e-002
2.954535e+003;7.327067e-002
2.956464e+003;7.299349e-002
2.958393e+003;7.297044e-002
2.960321e+003;7.185549e-002
2.962250e+003;7.046111e-002
2.964178e+003;6.974523e-002
2.966107e+003;6.948436e-002
2.968035e+003;6.930623e-002
2.969964e+003;6.870976e-002
2.971892e+003;6.814721e-002
2.973821e+003;6.761099e-002
2.975750e+003;6.716130e-002
2.977678e+003;6.664100e-002
2.979607e+003;6.600969e-002
2.981535e+003;6.568043e-002
2.983464e+003;6.533830e-002
2.985392e+003;6.504619e-002
2.987321e+003;6.501437e-002
2.989249e+003;6.490277e-002
2.991178e+003;6.462992e-002
2.993106e+003;6.452908e-002
2.995035e+003;6.469887e-002
2.996964e+003;6.444405e-002
2.998892e+003;6.388269e-002
3.000821e+003;6.362636e-002
3.002749e+003;6.410923e-002
3.004678e+003;6.463488e-002
3.006606e+003;6.433564e-002
3.008535e+003;6.397122e-002
3.010463e+003;6.407574e-002
3.012392e+003;6.400451e-002
3.014321e+003;6.384132e-002
3.016249e+003;6.394865e-002
3.018177e+003;6.409425e-002
3.020106e+003;6.428016e-002
3.022035e+003;6.454318e-002
3.023963e+003;6.521916e-002
3.025892e+003;6.508607e-002
3.027820e+003;6.456494e-002
3.029749e+003;6.456021e-002
3.031677e+003;6.496815e-002
3.033606e+003;6.545413e-002
3.035534e+003;6.595426e-002
3.037463e+003;6.615651e-002
3.039392e+003;6.600363e-002
3.041320e+003;6.587547e-002
3.043249e+003;6.606635e-002
3.045177e+003;6.596433e-002
3.047106e+003;6.596903e-002
3.049034e+003;6.653193e-002
3.050963e+003;6.701301e-002
3.052891e+003;6.721286e-002
3.054820e+003;6.722447e-002
3.056749e+003;6.714018e-002
3.058677e+003;6.733062e-002
3.060606e+003;6.756031e-002
3.062534e+003;6.778350e-002
3.064463e+003;6.806725e-002
3.066391e+003;6.816458e-002
3.068320e+003;6.818870e-002
3.070248e+003;6.839572e-002
3.072177e+003;6.861410e-002
3.074105e+003;6.875254e-002
3.076034e+003;6.872720e-002
3.077963e+003;6.895141e-002
3.079891e+003;6.972254e-002
3.081820e+003;7.017060e-002
3.083748e+003;7.034990e-002
3.085677e+003;7.075723e-002
3.087605e+003;7.083039e-002
3.089534e+003;7.057656e-002
3.091462e+003;7.069878e-002
3.093391e+003;7.107517e-002
3.095320e+003;7.129268e-002
3.097248e+003;7.108262e-002
3.099177e+003;7.125851e-002
3.101105e+003;7.197541e-002
3.103034e+003;7.227605e-002
3.104962e+003;7.221289e-002
3.106891e+003;7.236536e-002
3.108819e+003;7.263399e-002
3.110748e+003;7.274457e-002
3.112677e+003;7.314827e-002
3.114605e+003;7.381532e-002
3.116533e+003;7.422221e-002
3.118462e+003;7.396371e-002
3.120391e+003;7.401184e-002
3.122319e+003;7.446364e-002
3.124248e+003;7.467077e-002
3.126176e+003;7.471039e-002
3.128105e+003;7.494473e-002
3.130033e+003;7.561395e-002
3.131962e+003;7.620580e-002
3.133890e+003;7.638374e-002
3.135819e+003;7.664914e-002
3.137748e+003;7.710476e-002
3.139676e+003;7.782143e-002
3.141605e+003;7.867894e-002
3.143533e+003;7.878325e-002
3.145462e+003;7.860016e-002
3.147390e+003;7.876545e-002
3.149319e+003;7.921857e-002
3.151247e+003;7.972909e-002
3.153176e+003;7.994595e-002
3.155104e+003;8.010502e-002
3.157033e+003;8.024614e-002
3.158962e+003;8.063748e-002
3.160890e+003;8.135106e-002
3.162819e+003;8.179377e-002
3.164747e+003;8.187930e-002
3.166676e+003;8.198678e-002
3.168604e+003;8.238522e-002
3.170533e+003;8.258362e-002
3.172461e+003;8.292314e-002
3.174390e+003;8.376294e-002
3.176319e+003;8.441250e-002
3.178247e+003;8.473995e-002
3.180176e+003;8.525269e-002
3.182104e+003;8.592931e-002
3.184033e+003;8.616966e-002
3.185961e+003;8.658293e-002
3.187890e+003;8.734225e-002
3.189818e+003;8.805675e-002
3.191747e+003;8.834388e-002
3.193676e+003;8.883519e-002
3.195604e+003;8.907167e-002
3.197532e+003;8.910897e-002
3.199461e+003;8.959517e-002
3.201390e+003;9.029805e-002
3.203318e+003;9.061790e-002
3.205247e+003;9.126601e-002
3.207175e+003;9.215821e-002
3.209104e+003;9.277090e-002
3.211032e+003;9.324429e-002
3.212961e+003;9.382688e-002
3.214889e+003;9.457328e-002
3.216818e+003;9.542587e-002
3.218747e+003;9.574224e-002
3.220675e+003;9.588204e-002
3.222604e+003;9.642442e-002
3.224532e+003;9.705703e-002
3.226461e+003;9.757303e-002
3.228389e+003;9.839147e-002
3.230318e+003;9.920205e-002
3.232246e+003;9.966297e-002
3.234175e+003;1.001768e-001
3.236104e+003;1.010830e-001
3.238032e+003;1.014490e-001
3.239961e+003;1.018433e-001
3.241889e+003;1.030100e-001
3.243818e+003;1.039266e-001
3.245746e+003;1.048448e-001
3.247675e+003;1.056609e-001
3.249603e+003;1.060728e-001
3.251532e+003;1.065787e-001
3.253460e+003;1.071970e-001
3.255389e+003;1.083295e-001
3.257318e+003;1.094406e-001
3.259246e+003;1.103959e-001
3.261175e+003;1.113504e-001
3.263103e+003;1.118189e-001
3.265032e+003;1.121629e-001
3.266960e+003;1.123423e-001
3.268889e+003;1.129538e-001
3.270817e+003;1.137012e-001
3.272746e+003;1.146298e-001
3.274675e+003;1.153586e-001
3.276603e+003;1.159968e-001
3.278531e+003;1.163865e-001
3.280460e+003;1.163142e-001
3.282389e+003;1.167105e-001
3.284317e+003;1.178750e-001
3.286246e+003;1.182597e-001
3.288174e+003;1.178453e-001
3.290103e+003;1.174353e-001
3.292031e+003;1.170467e-001
3.293960e+003;1.174391e-001
3.295888e+003;1.178090e-001
3.297817e+003;1.179347e-001
3.299746e+003;1.175719e-001
3.301674e+003;1.171399e-001
3.303603e+003;1.175099e-001
3.305531e+003;1.179813e-001
3.307460e+003;1.181509e-001
3.309388e+003;1.180575e-001
3.311317e+003;1.178439e-001
3.313245e+003;1.176008e-001
3.315174e+003;1.179063e-001
3.317103e+003;1.190775e-001
3.319031e+003;1.197220e-001
3.320960e+003;1.195043e-001
3.322888e+003;1.199962e-001
3.324817e+003;1.210885e-001
3.326745e+003;1.214564e-001
3.328674e+003;1.217315e-001
3.330602e+003;1.220781e-001
3.332531e+003;1.221043e-001
3.334459e+003;1.219961e-001
3.336388e+003;1.219168e-001
3.338317e+003;1.222221e-001
3.340245e+003;1.218678e-001
3.342174e+003;1.210119e-001
3.344102e+003;1.202360e-001
3.346031e+003;1.196636e-001
3.347959e+003;1.191841e-001
3.349888e+003;1.187425e-001
3.351816e+003;1.179490e-001
3.353745e+003;1.171067e-001
3.355674e+003;1.164552e-001
3.357602e+003;1.159187e-001
3.359531e+003;1.155384e-001
3.361459e+003;1.149031e-001
3.363388e+003;1.138237e-001
3.365316e+003;1.129253e-001
3.367245e+003;1.125781e-001
3.369173e+003;1.120775e-001
3.371102e+003;1.116288e-001
3.373031e+003;1.110886e-001
3.374959e+003;1.107760e-001
3.376887e+003;1.108235e-001
3.378816e+003;1.103436e-001
3.380745e+003;1.096714e-001
3.382673e+003;1.094904e-001
3.384602e+003;1.081057e-001
3.386530e+003;1.066359e-001
3.388459e+003;1.065807e-001
3.390387e+003;1.072281e-001
3.392316e+003;1.073343e-001
3.394244e+003;1.066268e-001
3.396173e+003;1.056480e-001
3.398102e+003;1.051602e-001
3.400030e+003;1.048395e-001
3.401959e+003;1.040987e-001
3.403887e+003;1.031823e-001
3.405816e+003;1.023394e-001
3.407744e+003;1.023349e-001
3.409673e+003;1.024531e-001
3.411601e+003;1.018169e-001
3.413530e+003;1.009296e-001
3.415458e+003;1.003614e-001
3.417387e+003;9.974588e-002
3.419316e+003;9.897086e-002
3.421244e+003;9.859329e-002
3.423173e+003;9.768376e-002
3.425101e+003;9.691382e-002
3.427030e+003;9.618573e-002
3.428958e+003;9.554464e-002
3.430887e+003;9.503202e-002
3.432815e+003;9.387899e-002
3.434744e+003;9.259957e-002
3.436673e+003;9.241109e-002
3.438601e+003;9.297496e-002
3.440530e+003;9.290372e-002
3.442458e+003;9.219095e-002
3.444387e+003;9.127706e-002
3.446315e+003;9.016672e-002
3.448244e+003;8.940490e-002
3.450172e+003;8.923778e-002
3.452101e+003;8.867691e-002
3.454030e+003;8.778579e-002
3.455958e+003;8.731709e-002
3.457886e+003;8.690681e-002
3.459815e+003;8.631923e-002
3.461744e+003;8.619669e-002
3.463672e+003;8.519334e-002
3.465601e+003;8.420856e-002
3.467529e+003;8.330972e-002
3.469458e+003;8.286422e-002
3.471386e+003;8.249074e-002
3.473315e+003;8.179901e-002
3.475243e+003;8.118314e-002
3.477172e+003;8.035310e-002
3.479101e+003;7.958448e-002
3.481029e+003;7.872049e-002
3.482958e+003;7.811611e-002
3.484886e+003;7.767250e-002
3.486815e+003;7.676957e-002
3.488743e+003;7.638244e-002
3.490672e+003;7.577342e-002
3.492600e+003;7.527084e-002
3.494529e+003;7.512786e-002
3.496458e+003;7.453023e-002
3.498386e+003;7.358378e-002
3.500315e+003;7.289648e-002
3.502243e+003;7.264312e-002
3.504172e+003;7.237976e-002
3.506100e+003;7.129588e-002
3.508029e+003;7.047233e-002
3.509957e+003;7.003218e-002
3.511886e+003;6.969014e-002
3.513814e+003;6.911707e-002
3.515743e+003;6.850646e-002
3.517672e+003;6.790203e-002
3.519600e+003;6.730377e-002
3.521529e+003;6.686766e-002
3.523457e+003;6.657105e-002
3.525386e+003;6.626341e-002
3.527314e+003;6.527926e-002
3.529243e+003;6.481314e-002
3.531171e+003;6.472313e-002
3.533100e+003;6.404713e-002
3.535029e+003;6.309817e-002
3.536957e+003;6.259458e-002
3.538885e+003;6.241279e-002
3.540814e+003;6.227314e-002
3.542743e+003;6.214654e-002
3.544671e+003;6.143663e-002
3.546600e+003;6.024027e-002
3.548528e+003;6.002001e-002
3.550457e+003;5.987132e-002
3.552385e+003;5.925051e-002
3.554314e+003;5.855624e-002
3.556242e+003;5.808102e-002
3.558171e+003;5.792727e-002
3.560100e+003;5.750766e-002
3.562028e+003;5.723019e-002
3.563957e+003;5.689250e-002
3.565885e+003;5.602454e-002
3.567814e+003;5.543352e-002
3.569742e+003;5.537073e-002
3.571671e+003;5.491177e-002
3.573599e+003;5.444188e-002
3.575528e+003;5.421294e-002
3.577457e+003;5.390384e-002
3.579385e+003;5.357981e-002
3.581314e+003;5.353341e-002
3.583242e+003;5.288424e-002
3.585171e+003;5.228765e-002
3.587099e+003;5.189171e-002
3.589028e+003;5.161224e-002
3.590956e+003;5.132031e-002
3.592885e+003;5.079152e-002
3.594813e+003;5.063721e-002
3.596742e+003;5.045161e-002
3.598671e+003;5.005953e-002
3.600599e+003;5.002328e-002
3.602528e+003;4.969463e-002
3.604456e+003;4.865743e-002
3.606385e+003;4.848672e-002
3.608313e+003;4.867886e-002
3.610242e+003;4.811314e-002
3.612170e+003;4.727481e-002
3.614099e+003;4.747753e-002
3.616028e+003;4.723912e-002
3.617956e+003;4.653735e-002
3.619885e+003;4.650195e-002
3.621813e+003;4.677498e-002
3.623742e+003;4.653592e-002
3.625670e+003;4.618100e-002
3.627599e+003;4.588806e-002
3.629527e+003;4.569145e-002
3.631456e+003;4.510513e-002
3.633385e+003;4.460764e-002
3.635313e+003;4.448271e-002
3.637241e+003;4.434592e-002
3.639170e+003;4.413328e-002
3.641099e+003;4.416211e-002
3.643027e+003;4.455106e-002
3.644956e+003;4.449904e-002
3.646884e+003;4.341524e-002
3.648813e+003;4.271743e-002
3.650741e+003;4.267620e-002
3.652670e+003;4.245560e-002
3.654598e+003;4.253460e-002
3.656527e+003;4.198738e-002
3.658456e+003;4.136791e-002
3.660384e+003;4.082540e-002
3.662313e+003;4.108056e-002
3.664241e+003;4.131168e-002
3.666170e+003;4.106694e-002
3.668098e+003;4.047054e-002
3.670027e+003;4.014740e-002
3.671955e+003;4.008057e-002
3.673884e+003;3.954412e-002
3.675813e+003;3.894266e-002
3.677741e+003;3.873888e-002
3.679669e+003;3.873102e-002
3.681598e+003;3.888986e-002
3.683527e+003;3.905692e-002
3.685455e+003;3.914306e-002
3.687384e+003;3.858687e-002
3.689312e+003;3.797021e-002
3.691241e+003;3.791742e-002
3.693169e+003;3.825366e-002
3.695098e+003;3.839940e-002
3.697026e+003;3.841497e-002
3.698955e+003;3.836447e-002
3.700884e+003;3.797093e-002
3.702812e+003;3.804446e-002
3.704741e+003;3.803635e-002
3.706669e+003;3.785657e-002
3.708598e+003;3.824643e-002
3.710526e+003;3.829379e-002
3.712455e+003;3.729235e-002
3.714383e+003;3.672508e-002
3.716312e+003;3.672367e-002
3.718240e+003;3.670074e-002
3.720169e+003;3.723304e-002
3.722098e+003;3.747205e-002
3.724026e+003;3.724192e-002
3.725955e+003;3.721293e-002
3.727883e+003;3.713937e-002
3.729812e+003;3.693499e-002
3.731740e+003;3.670662e-002
3.733669e+003;3.698763e-002
3.735597e+003;3.690696e-002
3.737526e+003;3.670496e-002
3.739455e+003;3.633263e-002
3.741383e+003;3.584346e-002
3.743312e+003;3.583421e-002
3.745240e+003;3.616125e-002
3.747169e+003;3.644403e-002
3.749097e+003;3.568429e-002
3.751026e+003;3.557510e-002
3.752954e+003;3.643801e-002
3.754883e+003;3.712359e-002
3.756812e+003;3.665622e-002
3.758740e+003;3.639636e-002
3.760668e+003;3.626087e-002
3.762597e+003;3.589625e-002
3.764526e+003;3.649236e-002
3.766454e+003;3.659536e-002
3.768383e+003;3.607040e-002
3.770311e+003;3.652248e-002
3.772240e+003;3.723863e-002
3.774168e+003;3.696623e-002
3.776097e+003;3.600474e-002
3.778025e+003;3.583058e-002
3.779954e+003;3.639928e-002
3.781883e+003;3.669064e-002
3.783811e+003;3.689358e-002
3.785740e+003;3.738429e-002
3.787668e+003;3.771191e-002
3.789597e+003;3.774054e-002
3.791525e+003;3.743434e-002
3.793454e+003;3.728130e-002
3.795382e+003;3.731871e-002
3.797311e+003;3.720488e-002
3.799240e+003;3.632149e-002
3.801168e+003;3.572153e-002
3.803097e+003;3.548923e-002
3.805025e+003;3.580546e-002
3.806954e+003;3.621675e-002
3.808882e+003;3.654533e-002
3.810811e+003;3.687918e-002
3.812739e+003;3.699780e-002
3.814668e+003;3.651416e-002
3.816596e+003;3.617558e-002
3.818525e+003;3.637723e-002
3.820454e+003;3.671207e-002
3.822382e+003;3.671473e-002
3.824311e+003;3.649848e-002
3.826239e+003;3.663339e-002
3.828168e+003;3.708043e-002
3.830096e+003;3.710313e-002
3.832025e+003;3.705831e-002
3.833953e+003;3.694072e-002
3.835882e+003;3.631378e-002
3.837811e+003;3.601273e-002
3.839739e+003;3.695606e-002
3.841667e+003;3.759350e-002
3.843596e+003;3.742502e-002
3.845525e+003;3.745586e-002
3.847453e+003;3.719058e-002
3.849382e+003;3.692500e-002
3.851310e+003;3.711280e-002
3.853239e+003;3.680784e-002
3.855167e+003;3.708790e-002
3.857096e+003;3.729780e-002
3.859024e+003;3.761908e-002
3.860953e+003;3.827067e-002
3.862882e+003;3.806489e-002
3.864810e+003;3.757309e-002
3.866739e+003;3.741177e-002
3.868667e+003;3.730351e-002
3.870596e+003;3.718824e-002
3.872524e+003;3.754162e-002
3.874453e+003;3.778387e-002
3.876381e+003;3.790472e-002
3.878310e+003;3.829832e-002
3.880239e+003;3.757497e-002
3.882167e+003;3.666847e-002
3.884096e+003;3.688135e-002
3.886024e+003;3.759050e-002
3.887953e+003;3.822374e-002
3.889881e+003;3.781297e-002
3.891810e+003;3.765550e-002
3.893738e+003;3.847669e-002
3.895667e+003;3.842796e-002
3.897595e+003;3.806514e-002
3.899524e+003;3.754874e-002
3.901453e+003;3.727517e-002
3.903381e+003;3.752406e-002
3.905310e+003;3.759751e-002
3.907238e+003;3.818821e-002
3.909167e+003;3.876298e-002
3.911095e+003;3.813760e-002
3.913024e+003;3.747367e-002
3.914952e+003;3.748516e-002
3.916881e+003;3.798619e-002
3.918810e+003;3.870215e-002
3.920738e+003;3.907736e-002
3.922667e+003;3.861048e-002
3.924595e+003;3.836263e-002
3.926524e+003;3.864818e-002
3.928452e+003;3.821563e-002
3.930381e+003;3.772091e-002
3.932309e+003;3.885703e-002
3.934238e+003;3.926850e-002
3.936167e+003;3.863888e-002
3.938095e+003;3.824795e-002
3.940023e+003;3.811169e-002
3.941952e+003;3.857177e-002
3.943881e+003;3.862262e-002
3.945809e+003;3.948453e-002
3.947738e+003;4.024019e-002
3.949666e+003;3.989355e-002
3.951595e+003;3.939212e-002
3.953523e+003;3.899815e-002
3.955452e+003;3.843332e-002
3.957380e+003;3.839687e-002
3.959309e+003;3.843930e-002
3.961238e+003;3.852401e-002
3.963166e+003;3.867832e-002
3.965095e+003;3.916728e-002
3.967023e+003;3.957421e-002
3.968952e+003;3.939858e-002
3.970880e+003;3.921413e-002
3.972809e+003;3.919781e-002
3.974737e+003;3.909926e-002
3.976666e+003;3.880098e-002
3.978594e+003;3.872124e-002
3.980523e+003;3.873939e-002
3.982452e+003;3.875182e-002
3.984380e+003;3.868553e-002
3.986309e+003;3.928971e-002
3.988237e+003;3.966826e-002
3.990166e+003;3.939492e-002
3.992094e+003;3.944876e-002
3.994023e+003;3.912518e-002
3.995951e+003;3.909741e-002
3.997880e+003;3.889761e-002
3.999809e+003;3.866014e-002
4.001737e+003;0.000000e+000
