3.992094e+002;0.000000e+000
4.011380e+002;0.000000e+000
4.030665e+002;0.000000e+000
4.049951e+002;0.000000e+000
4.069236e+002;0.000000e+000
4.088522e+002;0.000000e+000
4.107807e+002;0.000000e+000
4.127093e+002;0.000000e+000
4.146378e+002;0.000000e+000
4.165664e+002;0.000000e+000
4.184949e+002;0.000000e+000
4.204235e+002;0.000000e+000
4.223520e+002;0.000000e+000
4.242806e+002;0.000000e+000
4.262091e+002;0.000000e+000
4.281377e+002;0.000000e+000
4.300662e+002;0.000000e+000
4.319948e+002;0.000000e+000
4.339233e+002;0.000000e+000
4.358519e+002;0.000000e+000
4.377804e+002;0.000000e+000
4.397090e+002;0.000000e+000
4.416375e+002;0.000000e+000
4.435660e+002;0.000000e+000
4.454946e+002;0.000000e+000
4.474232e+002;0.000000e+000
4.493517e+002;0.000000e+000
4.512802e+002;0.000000e+000
4.532088e+002;0.000000e+000
4.551373e+002;0.000000e+000
4.570659e+002;0.000000e+000
4.589944e+002;0.000000e+000
4.609230e+002;0.000000e+000
4.628515e+002;0.000000e+000
4.647801e+002;0.000000e+000
4.667086e+002;0.000000e+000
4.686372e+002;0.000000e+000
4.705657e+002;0.000000e+000
4.724943e+002;0.000000e+000
4.744228e+002;0.000000e+000
4.763513e+002;0.000000e+000
4.782799e+002;0.000000e+000
4.802085e+002;0.000000e+000
4.821370e+002;0.000000e+000
4.840656e+002;0.000000e+000
4.859941e+002;0.000000e+000
4.879226e+002;0.000000e+000
4.898512e+002;0.000000e+000
4.917798e+002;0.000000e+000
4.937083e+002;0.000000e+000
4.956368e+002;0.000000e+000
4.975654e+002;0.000000e+000
4.994939e+002;0.000000e+000
5.014225e+002;0.000000e+000
5.033510e+002;0.000000e+000
5.052796e+002;0.000000e+000
5.072081e+002;0.000000e+000
5.091367e+002;0.000000e+000
5.110652e+002;0.000000e+000
5.129938e+002;0.000000e+000
5.149223e+002;0.000000e+000
5.168509e+002;0.000000e+000
5.187794e+002;0.000000e+000
5.207079e+002;0.000000e+000
5.226365e+002;0.000000e+000
5.245651e+002;0.000000e+000
5.264936e+002;0.000000e+000
5.284222e+002;0.000000e+000
5.303507e+002;0.000000e+000
5.322792e+002;0.000000e+000
5.342078e+002;0.000000e+000
5.361364e+002;0.000000e+000
5.380649e+002;0.000000e+000
5.399935e+002;0.000000e+000
5.419220e+002;0.000000e+000
5.438505e+002;0.000000e+000
5.457791e+002;0.000000e+000
5.477076e+002;0.000000e+000
5.496362e+002;0.000000e+000
5.515648e+002;0.000000e+000
5.534933e+002;0.000000e+000
5.554218e+002;0.000000e+000
5.573504e+002;0.000000e+000
5.592789e+002;0.000000e+000
5.612075e+002;0.000000e+000
5.631360e+002;0.000000e+000
5.650646e+002;0.000000e+000
5.669931e+002;0.000000e+000
5.689217e+002;0.000000e+000
5.708502e+002;0.000000e+000
5.727787e+002;0.000000e+000
5.747073e+002;0.000000e+000
5.766359e+002;0.000000e+000
5.785644e+002;0.000000e+000
5.804930e+002;0.000000e+000
5.824215e+002;0.000000e+000
5.843500e+002;0.000000e+000
5.862786e+002;0.000000e+000
5.882072e+002;0.000000e+000
5.901357e+002;0.000000e+000
5.920643e+002;0.000000e+000
5.939928e+002;0.000000e+000
5.959213e+002;0.000000e+000
5.978499e+002;0.000000e+000
5.997784e+002;2.807476e-001
6.017070e+002;2.767594e-001
6.036355e+002;2.841019e-001
6.055641e+002;2.910784e-001
6.074926e+002;2.859511e-001
6.094211e+002;2.809985e-001
6.113497e+002;2.794825e-001
6.132783e+002;2.814484e-001
6.152068e+002;2.779083e-001
6.171354e+002;2.712389e-001
6.190639e+002;2.650467e-001
6.209924e+002;2.588729e-001
6.229210e+002;2.545048e-001
6.248495e+002;2.532529e-001
6.267781e+002;2.462165e-001
6.287067e+002;2.379862e-001
6.306352e+002;2.368018e-001
6.325637e+002;2.419153e-001
6.344923e+002;2.438857e-001
6.364208e+002;2.398297e-001
6.383494e+002;2.323933e-001
6.402780e+002;2.233910e-001
6.422065e+002;2.233404e-001
6.441350e+002;2.247735e-001
6.460636e+002;2.238954e-001
6.479921e+002;2.218639e-001
6.499207e+002;2.208079e-001
6.518492e+002;2.228045e-001
6.537778e+002;2.270711e-001
6.557063e+002;2.343107e-001
6.576349e+002;2.414026e-001
6.595634e+002;2.466937e-001
6.614919e+002;2.481142e-001
6.634205e+002;2.481139e-001
6.653491e+002;2.470476e-001
6.672776e+002;2.445533e-001
6.692062e+002;2.424194e-001
6.711347e+002;2.373481e-001
6.730632e+002;2.293752e-001
6.749918e+002;2.218742e-001
6.769203e+002;2.152223e-001
6.788489e+002;2.100118e-001
6.807775e+002;2.066509e-001
6.827060e+002;2.033846e-001
6.846345e+002;1.996951e-001
6.865631e+002;1.997292e-001
6.884916e+002;1.998470e-001
6.904202e+002;1.990389e-001
6.923488e+002;1.992965e-001
6.942773e+002;1.986463e-001
6.962058e+002;1.982459e-001
6.981344e+002;1.980311e-001
7.000629e+002;1.963612e-001
7.019915e+002;1.941037e-001
7.039200e+002;1.925110e-001
7.058486e+002;1.917621e-001
7.077771e+002;1.899573e-001
7.097057e+002;1.873933e-001
7.116342e+002;1.841540e-001
7.135627e+002;1.803817e-001
7.154913e+002;1.771811e-001
7.174199e+002;1.740723e-001
7.193484e+002;1.708762e-001
7.212770e+002;1.660970e-001
7.232055e+002;1.616500e-001
7.251340e+002;1.573575e-001
7.270626e+002;1.531505e-001
7.289911e+002;1.502508e-001
7.309197e+002;1.471034e-001
7.328483e+002;1.437504e-001
7.347768e+002;1.409960e-001
7.367053e+002;1.398266e-001
7.386339e+002;1.382029e-001
7.405624e+002;1.368009e-001
7.424910e+002;1.356118e-001
7.444196e+002;1.334552e-001
7.463481e+002;1.318752e-001
7.482766e+002;1.317449e-001
7.502052e+002;1.306233e-001
7.521337e+002;1.285746e-001
7.540623e+002;1.277137e-001
7.559908e+002;1.265283e-001
7.579194e+002;1.251031e-001
7.598479e+002;1.246645e-001
7.617765e+002;1.238979e-001
7.637050e+002;1.220394e-001
7.656335e+002;1.203762e-001
7.675621e+002;1.201565e-001
7.694907e+002;1.199061e-001
7.714192e+002;1.190107e-001
7.733478e+002;1.178396e-001
7.752763e+002;1.170296e-001
7.772048e+002;1.171444e-001
7.791334e+002;1.162762e-001
7.810620e+002;1.151403e-001
7.829905e+002;1.149513e-001
7.849191e+002;1.148893e-001
7.868476e+002;1.142911e-001
7.887761e+002;1.135102e-001
7.907047e+002;1.123787e-001
7.926332e+002;1.123218e-001
7.945618e+002;1.122947e-001
7.964903e+002;1.116474e-001
7.984189e+002;1.114256e-001
8.003474e+002;1.112439e-001
8.022759e+002;1.111690e-001
8.042045e+002;1.108918e-001
8.061331e+002;1.109019e-001
8.080616e+002;1.113480e-001
8.099902e+002;1.111350e-001
8.119187e+002;1.111827e-001
8.138472e+002;1.113784e-001
8.157758e+002;1.113216e-001
8.177043e+002;1.111806e-001
8.196329e+002;1.106854e-001
8.215615e+002;1.107767e-001
8.234900e+002;1.107875e-001
8.254185e+002;1.111703e-001
8.273471e+002;1.124962e-001
8.292756e+002;1.129676e-001
8.312042e+002;1.124920e-001
8.331328e+002;1.118976e-001
8.350613e+002;1.122299e-001
8.369898e+002;1.123249e-001
8.389184e+002;1.120552e-001
8.408469e+002;1.122628e-001
8.427755e+002;1.117386e-001
8.447040e+002;1.116114e-001
8.466326e+002;1.124039e-001
8.485611e+002;1.126050e-001
8.504897e+002;1.130575e-001
8.524182e+002;1.140603e-001
8.543467e+002;1.145835e-001
8.562753e+002;1.149672e-001
8.582039e+002;1.158283e-001
8.601324e+002;1.164482e-001
8.620610e+002;1.171852e-001
8.639895e+002;1.186411e-001
8.659180e+002;1.193877e-001
8.678466e+002;1.201505e-001
8.697751e+002;1.217380e-001
8.717037e+002;1.239157e-001
8.736323e+002;1.261321e-001
8.755608e+002;1.285517e-001
8.774893e+002;1.312636e-001
8.794179e+002;1.338615e-001
8.813464e+002;1.364876e-001
8.832750e+002;1.396250e-001
8.852036e+002;1.427773e-001
8.871321e+002;1.460080e-001
8.890606e+002;1.492747e-001
8.909892e+002;1.521214e-001
8.929177e+002;1.546237e-001
8.948463e+002;1.560055e-001
8.967748e+002;1.567663e-001
8.987034e+002;1.568473e-001
9.006319e+002;1.565222e-001
9.025605e+002;1.557344e-001
9.044890e+002;1.543620e-001
9.064175e+002;1.528384e-001
9.083461e+002;1.513385e-001
9.102747e+002;1.500072e-001
9.122032e+002;1.483345e-001
9.141318e+002;1.471363e-001
9.160603e+002;1.464137e-001
9.179888e+002;1.464241e-001
9.199174e+002;1.469764e-001
9.218459e+002;1.475949e-001
9.237745e+002;1.485263e-001
9.257031e+002;1.503133e-001
9.276316e+002;1.522714e-001
9.295601e+002;1.538438e-001
9.314887e+002;1.558361e-001
9.334172e+002;1.573917e-001
9.353458e+002;1.587477e-001
9.372744e+002;1.607538e-001
9.392029e+002;1.626307e-001
9.411314e+002;1.650959e-001
9.430600e+002;1.682052e-001
9.449885e+002;1.712792e-001
9.469171e+002;1.748956e-001
9.488456e+002;1.792956e-001
9.507742e+002;1.837553e-001
9.527027e+002;1.882634e-001
9.546313e+002;1.927827e-001
9.565598e+002;1.979019e-001
9.584883e+002;2.037049e-001
9.604169e+002;2.096197e-001
9.623455e+002;2.159271e-001
9.642740e+002;2.225047e-001
9.662026e+002;2.291206e-001
9.681311e+002;2.367334e-001
9.700596e+002;2.458413e-001
9.719882e+002;2.564133e-001
9.739167e+002;2.690004e-001
9.758453e+002;2.835598e-001
9.777739e+002;2.997367e-001
9.797024e+002;3.161232e-001
9.816309e+002;3.306843e-001
9.835595e+002;3.398330e-001
9.854880e+002;3.419217e-001
9.874166e+002;3.410470e-001
9.893452e+002;3.412274e-001
9.912737e+002;3.437497e-001
9.932022e+002;3.484363e-001
9.951307e+002;3.555019e-001
9.970593e+002;3.632254e-001
9.989879e+002;3.694055e-001
1.000916e+003;3.729557e-001
1.002845e+003;3.738063e-001
1.004773e+003;3.739065e-001
1.006702e+003;3.737988e-001
1.008631e+003;3.740613e-001
1.010559e+003;3.761365e-001
1.012488e+003;3.800293e-001
1.014416e+003;3.849994e-001
1.016345e+003;3.891191e-001
1.018273e+003;3.927512e-001
1.020202e+003;3.974801e-001
1.022130e+003;4.035043e-001
1.024059e+003;4.102643e-001
1.025988e+003;4.163486e-001
1.027916e+003;4.205125e-001
1.029845e+003;4.227805e-001
1.031773e+003;4.227209e-001
1.033702e+003;4.172329e-001
1.035630e+003;4.078926e-001
1.037559e+003;3.980950e-001
1.039487e+003;3.879703e-001
1.041416e+003;3.809828e-001
1.043344e+003;3.795828e-001
1.045273e+003;3.835778e-001
1.047202e+003;3.902472e-001
1.049130e+003;3.971348e-001
1.051059e+003;4.029346e-001
1.052987e+003;4.062427e-001
1.054916e+003;4.053081e-001
1.056844e+003;3.996143e-001
1.058773e+003;3.892178e-001
1.060701e+003;3.725405e-001
1.062630e+003;3.505749e-001
1.064558e+003;3.286494e-001
1.066487e+003;3.095495e-001
1.068416e+003;2.938328e-001
1.070344e+003;2.819497e-001
1.072273e+003;2.738424e-001
1.074201e+003;2.673351e-001
1.076130e+003;2.606180e-001
1.078058e+003;2.539550e-001
1.079987e+003;2.480269e-001
1.081915e+003;2.438434e-001
1.083844e+003;2.416183e-001
1.085773e+003;2.417766e-001
1.087701e+003;2.431581e-001
1.089630e+003;2.439165e-001
1.091558e+003;2.457515e-001
1.093487e+003;2.492236e-001
1.095415e+003;2.534090e-001
1.097344e+003;2.575065e-001
1.099272e+003;2.611665e-001
1.101201e+003;2.650018e-001
1.103129e+003;2.664406e-001
1.105058e+003;2.651534e-001
1.106987e+003;2.625887e-001
1.108915e+003;2.594025e-001
1.110844e+003;2.546665e-001
1.112772e+003;2.460915e-001
1.114701e+003;2.336747e-001
1.116629e+003;2.197191e-001
1.118558e+003;2.075197e-001
1.120486e+003;1.982348e-001
1.122415e+003;1.904671e-001
1.124344e+003;1.830167e-001
1.126272e+003;1.744542e-001
1.128201e+003;1.661271e-001
1.130129e+003;1.600729e-001
1.132058e+003;1.554247e-001
1.133986e+003;1.509274e-001
1.135915e+003;1.473110e-001
1.137843e+003;1.451298e-001
1.139772e+003;1.447752e-001
1.141700e+003;1.467230e-001
1.143629e+003;1.499428e-001
1.145557e+003;1.530999e-001
1.147486e+003;1.554591e-001
1.149415e+003;1.570297e-001
1.151343e+003;1.590310e-001
1.153272e+003;1.611681e-001
1.155200e+003;1.629585e-001
1.157129e+003;1.646575e-001
1.159057e+003;1.654952e-001
1.160986e+003;1.646989e-001
1.162914e+003;1.621198e-001
1.164843e+003;1.561272e-001
1.166771e+003;1.473551e-001
1.168700e+003;1.381326e-001
1.170629e+003;1.291133e-001
1.172557e+003;1.207649e-001
1.174486e+003;1.136510e-001
1.176414e+003;1.084601e-001
1.178343e+003;1.049591e-001
1.180271e+003;1.021088e-001
1.182200e+003;9.971002e-002
1.184128e+003;9.806241e-002
1.186057e+003;9.739516e-002
1.187986e+003;9.770853e-002
1.189914e+003;9.899479e-002
1.191843e+003;1.011652e-001
1.193771e+003;1.035139e-001
1.195700e+003;1.060314e-001
1.197628e+003;1.085180e-001
1.199557e+003;1.102610e-001
1.201485e+003;1.113086e-001
1.203414e+003;1.118846e-001
1.205343e+003;1.114801e-001
1.207271e+003;1.090984e-001
1.209200e+003;1.048969e-001
1.211128e+003;1.006443e-001
1.213057e+003;9.783340e-002
1.214985e+003;9.643947e-002
1.216914e+003;9.622650e-002
1.218842e+003;9.718789e-002
1.220771e+003;9.860498e-002
1.222699e+003;1.003948e-001
1.224628e+003;1.026193e-001
1.226557e+003;1.047777e-001
1.228485e+003;1.064816e-001
1.230414e+003;1.079992e-001
1.232342e+003;1.096494e-001
1.234271e+003;1.110312e-001
1.236199e+003;1.117635e-001
1.238128e+003;1.120878e-001
1.240056e+003;1.124403e-001
1.241985e+003;1.129179e-001
1.243913e+003;1.140956e-001
1.245842e+003;1.156825e-001
1.247771e+003;1.159214e-001
1.249699e+003;1.152802e-001
1.251628e+003;1.147937e-001
1.253556e+003;1.147871e-001
1.255485e+003;1.147001e-001
1.257413e+003;1.147070e-001
1.259342e+003;1.147451e-001
1.261270e+003;1.152015e-001
1.263199e+003;1.157115e-001
1.265127e+003;1.154688e-001
1.267056e+003;1.152955e-001
1.268985e+003;1.157145e-001
1.270913e+003;1.168872e-001
1.272842e+003;1.185893e-001
1.274770e+003;1.200864e-001
1.276699e+003;1.209167e-001
1.278627e+003;1.210409e-001
1.280556e+003;1.203599e-001
1.282484e+003;1.186582e-001
1.284413e+003;1.174692e-001
1.286342e+003;1.170709e-001
1.288270e+003;1.168435e-001
1.290199e+003;1.171513e-001
1.292127e+003;1.179094e-001
1.294056e+003;1.186103e-001
1.295984e+003;1.195264e-001
1.297913e+003;1.210872e-001
1.299841e+003;1.234791e-001
1.301770e+003;1.270454e-001
1.303698e+003;1.314637e-001
1.305627e+003;1.364265e-001
1.307556e+003;1.412468e-001
1.309484e+003;1.457424e-001
1.311413e+003;1.498171e-001
1.313341e+003;1.525423e-001
1.315270e+003;1.530990e-001
1.317198e+003;1.513101e-001
1.319127e+003;1.477262e-001
1.321055e+003;1.433876e-001
1.322984e+003;1.396666e-001
1.324912e+003;1.370897e-001
1.326841e+003;1.357602e-001
1.328770e+003;1.359751e-001
1.330698e+003;1.373658e-001
1.332627e+003;1.389495e-001
1.334555e+003;1.396737e-001
1.336484e+003;1.389435e-001
1.338412e+003;1.369918e-001
1.340341e+003;1.344979e-001
1.342269e+003;1.316231e-001
1.344198e+003;1.285781e-001
1.346126e+003;1.257495e-001
1.348055e+003;1.238887e-001
1.349984e+003;1.230363e-001
1.351912e+003;1.233071e-001
1.353841e+003;1.246717e-001
1.355769e+003;1.260679e-001
1.357698e+003;1.270205e-001
1.359626e+003;1.276248e-001
1.361555e+003;1.273870e-001
1.363483e+003;1.261616e-001
1.365412e+003;1.252280e-001
1.367341e+003;1.249753e-001
1.369269e+003;1.247462e-001
1.371198e+003;1.233553e-001
1.373126e+003;1.203282e-001
1.375055e+003;1.168427e-001
1.376983e+003;1.133156e-001
1.378912e+003;1.099064e-001
1.380840e+003;1.069158e-001
1.382769e+003;1.042890e-001
1.384698e+003;1.020025e-001
1.386626e+003;9.995841e-002
1.388555e+003;9.842189e-002
1.390483e+003;9.769662e-002
1.392412e+003;9.734756e-002
1.394340e+003;9.715979e-002
1.396269e+003;9.727858e-002
1.398197e+003;9.740615e-002
1.400126e+003;9.783162e-002
1.402054e+003;9.842260e-002
1.403983e+003;9.891664e-002
1.405911e+003;9.939766e-002
1.407840e+003;9.990716e-002
1.409769e+003;1.005345e-001
1.411697e+003;1.014346e-001
1.413626e+003;1.028439e-001
1.415554e+003;1.042687e-001
1.417483e+003;1.056873e-001
1.419411e+003;1.078116e-001
1.421340e+003;1.103910e-001
1.423268e+003;1.123831e-001
1.425197e+003;1.135942e-001
1.427125e+003;1.144828e-001
1.429054e+003;1.143329e-001
1.430983e+003;1.131258e-001
1.432911e+003;1.114267e-001
1.434840e+003;1.091476e-001
1.436768e+003;1.069382e-001
1.438697e+003;1.052274e-001
1.440625e+003;1.036453e-001
1.442554e+003;1.025491e-001
1.444482e+003;1.020057e-001
1.446411e+003;1.014805e-001
1.448340e+003;1.009185e-001
1.450268e+003;1.005479e-001
1.452197e+003;1.000602e-001
1.454125e+003;9.919668e-002
1.456054e+003;9.788156e-002
1.457982e+003;9.618850e-002
1.459911e+003;9.445189e-002
1.461839e+003;9.285722e-002
1.463768e+003;9.113827e-002
1.465697e+003;8.943173e-002
1.467625e+003;8.789320e-002
1.469554e+003;8.629166e-002
1.471482e+003;8.442050e-002
1.473411e+003;8.261937e-002
1.475339e+003;8.123796e-002
1.477268e+003;8.013443e-002
1.479196e+003;7.924541e-002
1.481125e+003;7.828583e-002
1.483053e+003;7.685570e-002
1.484982e+003;7.479005e-002
1.486911e+003;7.263043e-002
1.488839e+003;7.082688e-002
1.490768e+003;6.953779e-002
1.492696e+003;6.891552e-002
1.494625e+003;6.840142e-002
1.496553e+003;6.778384e-002
1.498482e+003;6.745929e-002
1.500410e+003;6.750604e-002
1.502339e+003;6.759650e-002
1.504267e+003;6.720664e-002
1.506196e+003;6.662033e-002
1.508125e+003;6.673349e-002
1.510053e+003;6.675486e-002
1.511982e+003;6.665665e-002
1.513910e+003;6.668794e-002
1.515839e+003;6.636629e-002
1.517767e+003;6.600714e-002
1.519696e+003;6.581682e-002
1.521624e+003;6.583429e-002
1.523553e+003;6.628256e-002
1.525481e+003;6.632278e-002
1.527410e+003;6.609366e-002
1.529339e+003;6.607600e-002
1.531267e+003;6.631610e-002
1.533196e+003;6.637979e-002
1.535124e+003;6.641840e-002
1.537053e+003;6.646157e-002
1.538981e+003;6.589834e-002
1.540910e+003;6.569346e-002
1.542838e+003;6.600594e-002
1.544767e+003;6.615601e-002
1.546695e+003;6.644469e-002
1.548624e+003;6.667028e-002
1.550553e+003;6.650200e-002
1.552481e+003;6.643771e-002
1.554410e+003;6.637528e-002
1.556338e+003;6.671178e-002
1.558267e+003;6.689688e-002
1.560195e+003;6.713319e-002
1.562124e+003;6.750193e-002
1.564052e+003;6.772432e-002
1.565981e+003;6.792969e-002
1.567910e+003;6.815834e-002
1.569838e+003;6.841279e-002
1.571767e+003;6.881686e-002
1.573695e+003;6.930111e-002
1.575624e+003;6.940602e-002
1.577552e+003;6.995576e-002
1.579481e+003;7.077356e-002
1.581409e+003;7.118906e-002
1.583338e+003;7.168369e-002
1.585266e+003;7.236117e-002
1.587195e+003;7.308832e-002
1.589124e+003;7.361790e-002
1.591052e+003;7.418703e-002
1.592981e+003;7.493685e-002
1.594909e+003;7.557184e-002
1.596838e+003;7.591499e-002
1.598766e+003;7.637181e-002
1.600695e+003;7.691332e-002
1.602623e+003;7.764782e-002
1.604552e+003;7.851166e-002
1.606480e+003;7.873463e-002
1.608409e+003;7.887597e-002
1.610338e+003;7.949558e-002
1.612266e+003;8.005717e-002
1.614195e+003;8.028787e-002
1.616123e+003;8.018696e-002
1.618052e+003;8.046163e-002
1.619980e+003;8.092913e-002
1.621909e+003;8.099616e-002
1.623837e+003;8.103845e-002
1.625766e+003;8.140302e-002
1.627694e+003;8.162500e-002
1.629623e+003;8.165227e-002
1.631552e+003;8.163027e-002
1.633480e+003;8.145158e-002
1.635409e+003;8.118590e-002
1.637337e+003;8.100758e-002
1.639266e+003;8.086602e-002
1.641194e+003;8.045784e-002
1.643123e+003;8.005482e-002
1.645051e+003;7.968920e-002
1.646980e+003;7.900032e-002
1.648909e+003;7.872510e-002
1.650837e+003;7.831115e-002
1.652766e+003;7.733996e-002
1.654694e+003;7.715268e-002
1.656623e+003;7.699999e-002
1.658551e+003;7.636759e-002
1.660480e+003;7.567551e-002
1.662408e+003;7.500648e-002
1.664337e+003;7.466258e-002
1.666266e+003;7.424780e-002
1.668194e+003;7.337301e-002
1.670123e+003;7.283735e-002
1.672051e+003;7.253656e-002
1.673980e+003;7.194710e-002
1.675908e+003;7.151146e-002
1.677837e+003;7.113609e-002
1.679765e+003;7.068984e-002
1.681694e+003;7.022392e-002
1.683622e+003;6.953530e-002
1.685551e+003;6.885736e-002
1.687479e+003;6.863094e-002
1.689408e+003;6.834763e-002
1.691337e+003;6.794697e-002
1.693265e+003;6.756244e-002
1.695194e+003;6.676865e-002
1.697122e+003;6.633694e-002
1.699051e+003;6.631606e-002
1.700979e+003;6.620394e-002
1.702908e+003;6.603711e-002
1.704836e+003;6.564852e-002
1.706765e+003;6.537542e-002
1.708693e+003;6.503696e-002
1.710622e+003;6.478529e-002
1.712551e+003;6.482991e-002
1.714479e+003;6.488162e-002
1.716408e+003;6.457632e-002
1.718336e+003;6.446531e-002
1.720265e+003;6.486138e-002
1.722193e+003;6.505790e-002
1.724122e+003;6.504373e-002
1.726050e+003;6.536002e-002
1.727979e+003;6.559811e-002
1.729908e+003;6.554933e-002
1.731836e+003;6.522427e-002
1.733765e+003;6.515255e-002
1.735693e+003;6.567326e-002
1.737622e+003;6.554124e-002
1.739550e+003;6.470867e-002
1.741479e+003;6.408062e-002
1.743407e+003;6.369830e-002
1.745336e+003;6.346332e-002
1.747265e+003;6.281377e-002
1.749193e+003;6.219434e-002
1.751122e+003;6.199555e-002
1.753050e+003;6.189463e-002
1.754979e+003;6.156123e-002
1.756907e+003;6.125010e-002
1.758836e+003;6.112399e-002
1.760764e+003;6.119997e-002
1.762693e+003;6.111537e-002
1.764621e+003;6.108695e-002
1.766550e+003;6.110862e-002
1.768479e+003;6.075893e-002
1.770407e+003;6.049716e-002
1.772336e+003;6.042709e-002
1.774264e+003;6.059559e-002
1.776193e+003;6.064984e-002
1.778121e+003;6.037412e-002
1.780050e+003;6.020834e-002
1.781978e+003;6.032268e-002
1.783907e+003;6.039092e-002
1.785835e+003;6.009782e-002
1.787764e+003;5.980051e-002
1.789693e+003;5.951043e-002
1.791621e+003;5.936097e-002
1.793550e+003;5.948505e-002
1.795478e+003;5.975009e-002
1.797407e+003;5.966645e-002
1.799335e+003;5.935508e-002
1.801264e+003;5.920768e-002
1.803192e+003;5.916655e-002
1.805121e+003;5.913724e-002
1.807049e+003;5.913007e-002
1.808978e+003;5.928595e-002
1.810907e+003;5.950439e-002
1.812835e+003;5.952396e-002
1.814764e+003;5.931311e-002
1.816692e+003;5.895777e-002
1.818621e+003;5.906864e-002
1.820549e+003;5.924015e-002
1.822478e+003;5.907043e-002
1.824406e+003;5.910402e-002
1.826335e+003;5.914666e-002
1.828264e+003;5.903983e-002
1.830192e+003;5.905661e-002
1.832121e+003;5.908098e-002
1.834049e+003;5.899087e-002
1.835978e+003;5.876737e-002
1.837906e+003;5.876217e-002
1.839835e+003;5.871521e-002
1.841763e+003;5.840323e-002
1.843692e+003;5.817557e-002
1.845620e+003;5.806151e-002
1.847549e+003;5.800675e-002
1.849478e+003;5.804288e-002
1.851406e+003;5.805209e-002
1.853335e+003;5.794363e-002
1.855263e+003;5.789638e-002
1.857192e+003;5.780912e-002
1.859120e+003;5.773066e-002
1.861049e+003;5.755014e-002
1.862977e+003;5.765434e-002
1.864906e+003;5.803489e-002
1.866834e+003;5.792099e-002
1.868763e+003;5.776030e-002
1.870692e+003;5.787223e-002
1.872620e+003;5.773558e-002
1.874549e+003;5.771136e-002
1.876477e+003;5.752851e-002
1.878406e+003;5.737481e-002
1.880334e+003;5.763296e-002
1.882263e+003;5.778539e-002
1.884191e+003;5.782529e-002
1.886120e+003;5.767326e-002
1.888048e+003;5.744813e-002
1.889977e+003;5.729650e-002
1.891906e+003;5.726456e-002
1.893834e+003;5.737980e-002
1.895763e+003;5.743701e-002
1.897691e+003;5.742635e-002
1.899620e+003;5.736909e-002
1.901548e+003;5.721518e-002
1.903477e+003;5.723204e-002
1.905405e+003;5.745596e-002
1.907334e+003;5.768495e-002
1.909262e+003;5.753199e-002
1.911191e+003;5.711911e-002
1.913120e+003;5.711915e-002
1.915048e+003;5.732123e-002
1.916977e+003;5.735049e-002
1.918905e+003;5.742514e-002
1.920834e+003;5.762570e-002
1.922762e+003;5.757076e-002
1.924691e+003;5.759059e-002
1.926619e+003;5.768188e-002
1.928548e+003;5.761192e-002
1.930477e+003;5.765188e-002
1.932405e+003;5.780163e-002
1.934334e+003;5.781253e-002
1.936262e+003;5.780401e-002
1.938191e+003;5.773218e-002
1.940119e+003;5.781662e-002
1.942048e+003;5.793193e-002
1.943976e+003;5.801418e-002
1.945905e+003;5.809147e-002
1.947833e+003;5.818720e-002
1.949762e+003;5.839296e-002
1.951691e+003;5.858149e-002
1.953619e+003;5.864823e-002
1.955548e+003;5.848890e-002
1.957476e+003;5.830860e-002
1.959405e+003;5.835896e-002
1.961333e+003;5.847814e-002
1.963262e+003;5.846452e-002
1.965190e+003;5.844675e-002
1.967119e+003;5.844337e-002
1.969047e+003;5.850786e-002
1.970976e+003;5.825282e-002
1.972905e+003;5.829897e-002
1.974833e+003;5.892251e-002
1.976762e+003;5.913842e-002
1.978690e+003;5.889345e-002
1.980619e+003;5.873983e-002
1.982547e+003;5.892714e-002
1.984476e+003;5.901038e-002
1.986404e+003;5.888377e-002
1.988333e+003;5.886184e-002
1.990261e+003;5.884313e-002
1.992190e+003;5.903953e-002
1.994119e+003;5.920502e-002
1.996047e+003;5.912418e-002
1.997976e+003;5.907897e-002
1.999904e+003;5.903049e-002
2.001833e+003;5.898540e-002
2.003761e+003;5.929453e-002
2.005690e+003;5.949493e-002
2.007618e+003;5.942342e-002
2.009547e+003;5.921725e-002
2.011476e+003;5.928538e-002
2.013404e+003;5.963483e-002
2.015333e+003;5.961882e-002
2.017261e+003;5.929715e-002
2.019190e+003;5.942148e-002
2.021118e+003;5.971876e-002
2.023047e+003;5.978629e-002
2.024975e+003;5.993769e-002
2.026904e+003;6.031168e-002
2.028833e+003;6.026482e-002
2.030761e+003;5.998760e-002
2.032690e+003;5.997017e-002
2.034618e+003;6.003679e-002
2.036547e+003;6.009401e-002
2.038475e+003;6.037622e-002
2.040404e+003;6.075726e-002
2.042332e+003;6.060481e-002
2.044261e+003;6.024080e-002
2.046189e+003;6.014116e-002
2.048118e+003;6.039179e-002
2.050047e+003;6.036152e-002
2.051975e+003;5.994046e-002
2.053904e+003;6.000662e-002
2.055832e+003;6.024408e-002
2.057761e+003;6.036030e-002
2.059689e+003;6.049678e-002
2.061618e+003;6.049964e-002
2.063546e+003;6.040268e-002
2.065475e+003;6.012069e-002
2.067404e+003;6.002933e-002
2.069332e+003;5.990243e-002
2.071260e+003;5.980675e-002
2.073189e+003;6.005745e-002
2.075118e+003;6.019227e-002
2.077046e+003;5.999155e-002
2.078975e+003;5.983553e-002
2.080903e+003;5.969971e-002
2.082832e+003;5.969466e-002
2.084760e+003;5.996154e-002
2.086689e+003;5.987527e-002
2.088617e+003;5.969219e-002
2.090546e+003;5.970747e-002
2.092475e+003;6.001955e-002
2.094403e+003;6.025321e-002
2.096332e+003;6.020023e-002
2.098260e+003;6.011958e-002
2.100189e+003;5.996595e-002
2.102117e+003;6.006875e-002
2.104046e+003;6.007636e-002
2.105974e+003;5.987288e-002
2.107903e+003;5.990217e-002
2.109832e+003;6.019467e-002
2.111760e+003;6.035048e-002
2.113688e+003;6.019657e-002
2.115617e+003;6.025222e-002
2.117546e+003;6.027358e-002
2.119474e+003;6.019752e-002
2.121403e+003;6.017381e-002
2.123331e+003;6.012160e-002
2.125260e+003;6.022976e-002
2.127188e+003;6.029071e-002
2.129117e+003;6.059136e-002
2.131045e+003;6.082971e-002
2.132974e+003;6.077029e-002
2.134903e+003;6.083581e-002
2.136831e+003;6.081801e-002
2.138760e+003;6.069991e-002
2.140688e+003;6.075268e-002
2.142617e+003;6.057441e-002
2.144545e+003;6.039541e-002
2.146474e+003;6.021747e-002
2.148402e+003;5.994381e-002
2.150331e+003;6.002503e-002
2.152260e+003;6.014809e-002
2.154188e+003;6.012853e-002
2.156117e+003;6.005288e-002
2.158045e+003;5.989189e-002
2.159974e+003;5.954570e-002
2.161902e+003;5.918307e-002
2.163831e+003;5.934357e-002
2.165759e+003;5.928348e-002
2.167688e+003;5.913770e-002
2.169616e+003;5.947084e-002
2.171545e+003;5.960233e-002
2.173474e+003;5.926901e-002
2.175402e+003;5.917563e-002
2.177331e+003;5.905604e-002
2.179259e+003;5.869685e-002
2.181188e+003;5.857110e-002
2.183116e+003;5.874472e-002
2.185045e+003;5.876168e-002
2.186973e+003;5.845721e-002
2.188902e+003;5.817621e-002
2.190831e+003;5.807810e-002
2.192759e+003;5.829992e-002
2.194688e+003;5.839421e-002
2.196616e+003;5.811030e-002
2.198545e+003;5.788143e-002
2.200473e+003;5.773876e-002
2.202402e+003;5.792144e-002
2.204330e+003;5.802296e-002
2.206259e+003;5.779682e-002
2.208188e+003;5.754390e-002
2.210116e+003;5.747272e-002
2.212044e+003;5.777707e-002
2.213973e+003;5.767886e-002
2.215902e+003;5.740025e-002
2.217830e+003;5.756932e-002
2.219759e+003;5.786337e-002
2.221687e+003;5.786356e-002
2.223616e+003;5.780882e-002
2.225544e+003;5.788215e-002
2.227473e+003;5.787472e-002
2.229401e+003;5.761540e-002
2.231330e+003;5.754459e-002
2.233259e+003;5.758665e-002
2.235187e+003;5.777517e-002
2.237116e+003;5.827688e-002
2.239044e+003;5.840240e-002
2.240973e+003;5.803394e-002
2.242901e+003;5.763761e-002
2.244830e+003;5.759365e-002
2.246758e+003;5.750687e-002
2.248687e+003;5.733242e-002
2.250615e+003;5.715036e-002
2.252544e+003;5.715241e-002
2.254473e+003;5.733185e-002
2.256401e+003;5.718914e-002
2.258330e+003;5.697322e-002
2.260258e+003;5.693019e-002
2.262187e+003;5.693439e-002
2.264115e+003;5.699933e-002
2.266044e+003;5.692094e-002
2.267972e+003;5.671221e-002
2.269901e+003;5.649049e-002
2.271830e+003;5.651162e-002
2.273758e+003;5.680102e-002
2.275687e+003;5.673769e-002
2.277615e+003;5.650789e-002
2.279544e+003;5.651630e-002
2.281472e+003;5.645717e-002
2.283401e+003;5.630924e-002
2.285329e+003;5.631538e-002
2.287258e+003;5.630215e-002
2.289187e+003;5.618553e-002
2.291115e+003;5.606589e-002
2.293043e+003;5.620473e-002
2.294972e+003;5.637360e-002
2.296901e+003;5.627419e-002
2.298829e+003;5.615891e-002
2.300758e+003;5.598428e-002
2.302686e+003;5.592258e-002
2.304615e+003;5.605586e-002
2.306543e+003;5.623154e-002
2.308472e+003;5.637714e-002
2.310400e+003;5.651106e-002
2.312329e+003;5.630709e-002
2.314258e+003;5.596841e-002
2.316186e+003;5.572062e-002
2.318115e+003;5.571113e-002
2.320043e+003;5.581213e-002
2.321972e+003;5.565056e-002
2.323900e+003;5.568642e-002
2.325829e+003;5.571923e-002
2.327757e+003;5.572620e-002
2.329686e+003;5.575521e-002
2.331615e+003;5.596411e-002
2.333543e+003;5.599491e-002
2.335472e+003;5.608708e-002
2.337400e+003;5.651740e-002
2.339329e+003;5.679003e-002
2.341257e+003;5.658933e-002
2.343186e+003;5.633617e-002
2.345114e+003;5.643200e-002
2.347043e+003;5.673456e-002
2.348971e+003;5.710218e-002
2.350900e+003;5.724962e-002
2.352829e+003;5.706209e-002
2.354757e+003;5.684607e-002
2.356686e+003;5.676465e-002
2.358614e+003;5.679487e-002
2.360543e+003;5.699668e-002
2.362471e+003;5.736116e-002
2.364400e+003;5.725662e-002
2.366328e+003;5.687739e-002
2.368257e+003;5.681224e-002
2.370186e+003;5.703333e-002
2.372114e+003;5.740536e-002
2.374042e+003;5.759248e-002
2.375971e+003;5.753339e-002
2.377900e+003;5.746489e-002
2.379828e+003;5.758461e-002
2.381757e+003;5.760148e-002
2.383685e+003;5.772718e-002
2.385614e+003;5.799592e-002
2.387542e+003;5.797468e-002
2.389471e+003;5.800062e-002
2.391399e+003;5.802618e-002
2.393328e+003;5.786518e-002
2.395257e+003;5.778308e-002
2.397185e+003;5.783138e-002
2.399114e+003;5.795696e-002
2.401042e+003;5.787896e-002
2.402971e+003;5.785716e-002
2.404899e+003;5.795196e-002
2.406828e+003;5.819421e-002
2.408756e+003;5.845436e-002
2.410685e+003;5.853277e-002
2.412614e+003;5.863962e-002
2.414542e+003;5.882818e-002
2.416471e+003;5.890206e-002
2.418399e+003;5.878991e-002
2.420328e+003;5.858896e-002
2.422256e+003;5.887785e-002
2.424185e+003;5.920494e-002
2.426113e+003;5.910368e-002
2.428042e+003;5.913105e-002
2.429970e+003;5.922648e-002
2.431899e+003;5.935831e-002
2.433828e+003;5.932830e-002
2.435756e+003;5.931330e-002
2.437685e+003;5.933244e-002
2.439613e+003;5.950527e-002
2.441542e+003;5.956728e-002
2.443470e+003;5.971827e-002
2.445399e+003;6.004873e-002
2.447327e+003;6.006251e-002
2.449256e+003;6.006019e-002
2.451185e+003;6.012879e-002
2.453113e+003;6.019052e-002
2.455042e+003;6.025991e-002
2.456970e+003;6.019361e-002
2.458899e+003;5.992282e-002
2.460827e+003;5.990365e-002
2.462756e+003;6.035215e-002
2.464684e+003;6.069347e-002
2.466613e+003;6.057616e-002
2.468542e+003;6.044708e-002
2.470470e+003;6.051365e-002
2.472398e+003;6.054870e-002
2.474327e+003;6.050425e-002
2.476256e+003;6.047789e-002
2.478184e+003;6.054043e-002
2.480113e+003;6.050996e-002
2.482041e+003;6.075265e-002
2.483970e+003;6.126376e-002
2.485898e+003;6.148427e-002
2.487827e+003;6.121943e-002
2.489755e+003;6.112845e-002
2.491684e+003;6.130119e-002
2.493613e+003;6.156761e-002
2.495541e+003;6.184588e-002
2.497470e+003;6.165104e-002
2.499398e+003;6.131107e-002
2.501327e+003;6.137881e-002
2.503255e+003;6.148228e-002
2.505184e+003;6.156898e-002
2.507112e+003;6.188432e-002
2.509041e+003;6.188225e-002
2.510969e+003;6.166704e-002
2.512898e+003;6.185528e-002
2.514827e+003;6.208140e-002
2.516755e+003;6.210216e-002
2.518684e+003;6.224531e-002
2.520612e+003;6.226083e-002
2.522541e+003;6.206871e-002
2.524469e+003;6.204838e-002
2.526398e+003;6.211233e-002
2.528326e+003;6.218133e-002
2.530255e+003;6.221250e-002
2.532184e+003;6.244214e-002
2.534112e+003;6.231468e-002
2.536041e+003;6.227797e-002
2.537969e+003;6.253695e-002
2.539898e+003;6.260660e-002
2.541826e+003;6.256963e-002
2.543755e+003;6.268142e-002
2.545683e+003;6.272721e-002
2.547612e+003;6.255087e-002
2.549541e+003;6.255669e-002
2.551469e+003;6.277790e-002
2.553397e+003;6.283388e-002
2.555326e+003;6.277017e-002
2.557255e+003;6.257897e-002
2.559183e+003;6.252505e-002
2.561112e+003;6.285547e-002
2.563040e+003;6.292269e-002
2.564969e+003;6.268717e-002
2.566897e+003;6.246222e-002
2.568826e+003;6.244386e-002
2.570754e+003;6.240193e-002
2.572683e+003;6.262141e-002
2.574612e+003;6.294551e-002
2.576540e+003;6.311526e-002
2.578469e+003;6.308752e-002
2.580397e+003;6.278957e-002
2.582326e+003;6.262650e-002
2.584254e+003;6.288948e-002
2.586183e+003;6.304541e-002
2.588111e+003;6.297684e-002
2.590040e+003;6.328761e-002
2.591969e+003;6.346381e-002
2.593897e+003;6.319508e-002
2.595826e+003;6.329673e-002
2.597754e+003;6.329358e-002
2.599683e+003;6.313178e-002
2.601611e+003;6.347889e-002
2.603540e+003;6.377792e-002
2.605468e+003;6.365602e-002
2.607397e+003;6.362283e-002
2.609325e+003;6.366139e-002
2.611254e+003;6.363258e-002
2.613183e+003;6.351409e-002
2.615111e+003;6.347685e-002
2.617040e+003;6.346343e-002
2.618968e+003;6.359307e-002
2.620897e+003;6.391644e-002
2.622825e+003;6.418113e-002
2.624754e+003;6.436377e-002
2.626682e+003;6.442256e-002
2.628611e+003;6.436119e-002
2.630540e+003;6.434152e-002
2.632468e+003;6.462307e-002
2.634396e+003;6.494340e-002
2.636325e+003;6.517488e-002
2.638254e+003;6.546680e-002
2.640182e+003;6.560894e-002
2.642111e+003;6.545351e-002
2.644039e+003;6.539214e-002
2.645968e+003;6.570626e-002
2.647896e+003;6.566613e-002
2.649825e+003;6.556470e-002
2.651753e+003;6.581517e-002
2.653682e+003;6.594172e-002
2.655611e+003;6.569280e-002
2.657539e+003;6.563977e-002
2.659468e+003;6.569878e-002
2.661396e+003;6.582627e-002
2.663325e+003;6.600012e-002
2.665253e+003;6.613931e-002
2.667182e+003;6.626488e-002
2.669110e+003;6.640890e-002
2.671039e+003;6.650042e-002
2.672968e+003;6.658955e-002
2.674896e+003;6.686237e-002
2.676825e+003;6.693650e-002
2.678753e+003;6.682821e-002
2.680682e+003;6.681985e-002
2.682610e+003;6.699786e-002
2.684539e+003;6.725208e-002
2.686467e+003;6.739562e-002
2.688396e+003;6.734857e-002
2.690324e+003;6.764231e-002
2.692253e+003;6.780790e-002
2.694182e+003;6.779364e-002
2.696110e+003;6.770190e-002
2.698039e+003;6.774136e-002
2.699967e+003;6.797359e-002
2.701896e+003;6.819586e-002
2.703824e+003;6.831160e-002
2.705753e+003;6.828550e-002
2.707681e+003;6.817234e-002
2.709610e+003;6.825697e-002
2.711539e+003;6.849270e-002
2.713467e+003;6.895778e-002
2.715396e+003;6.918996e-002
2.717324e+003;6.905469e-002
2.719253e+003;6.894061e-002
2.721181e+003;6.887273e-002
2.723110e+003;6.890453e-002
2.725038e+003;6.912702e-002
2.726967e+003;6.958566e-002
2.728896e+003;6.983881e-002
2.730824e+003;6.987181e-002
2.732752e+003;6.980892e-002
2.734681e+003;6.949995e-002
2.736610e+003;6.952076e-002
2.738538e+003;6.998044e-002
2.740467e+003;7.016083e-002
2.742395e+003;6.984737e-002
2.744324e+003;6.961308e-002
2.746252e+003;6.961491e-002
2.748181e+003;6.963129e-002
2.750109e+003;6.997398e-002
2.752038e+003;7.026637e-002
2.753967e+003;7.016908e-002
2.755895e+003;7.004557e-002
2.757824e+003;7.016386e-002
2.759752e+003;7.053333e-002
2.761681e+003;7.055141e-002
2.763609e+003;7.055788e-002
2.765538e+003;7.090353e-002
2.767466e+003;7.081510e-002
2.769395e+003;7.075996e-002
2.771323e+003;7.134004e-002
2.773252e+003;7.196125e-002
2.775181e+003;7.203837e-002
2.777109e+003;7.209126e-002
2.779038e+003;7.197654e-002
2.780966e+003;7.196774e-002
2.782895e+003;7.249767e-002
2.784823e+003;7.270865e-002
2.786752e+003;7.276291e-002
2.788680e+003;7.281670e-002
2.790609e+003;7.273881e-002
2.792538e+003;7.286772e-002
2.794466e+003;7.309710e-002
2.796395e+003;7.368232e-002
2.798323e+003;7.405502e-002
2.800252e+003;7.412666e-002
2.802180e+003;7.445723e-002
2.804109e+003;7.455868e-002
2.806037e+003;7.462434e-002
2.807966e+003;7.503014e-002
2.809895e+003;7.534276e-002
2.811823e+003;7.577030e-002
2.813751e+003;7.646383e-002
2.815680e+003;7.694793e-002
2.817609e+003;7.745194e-002
2.819537e+003;7.829368e-002
2.821466e+003;7.836837e-002
2.823394e+003;7.799603e-002
2.825323e+003;7.823032e-002
2.827251e+003;7.913233e-002
2.829180e+003;7.980800e-002
2.831108e+003;8.003618e-002
2.833037e+003;8.074769e-002
2.834966e+003;8.169074e-002
2.836894e+003;8.213607e-002
2.838823e+003;8.303617e-002
2.840751e+003;8.455844e-002
2.842680e+003;8.586548e-002
2.844608e+003;8.728853e-002
2.846537e+003;8.898024e-002
2.848465e+003;9.101172e-002
2.850394e+003;9.264977e-002
2.852323e+003;9.317522e-002
2.854251e+003;9.274140e-002
2.856180e+003;9.253216e-002
2.858108e+003;9.312390e-002
2.860037e+003;9.400009e-002
2.861965e+003;9.444753e-002
2.863894e+003;9.485205e-002
2.865822e+003;9.590358e-002
2.867751e+003;9.687970e-002
2.869679e+003;9.738973e-002
2.871608e+003;9.772123e-002
2.873536e+003;9.765124e-002
2.875465e+003;9.759095e-002
2.877394e+003;9.809887e-002
2.879322e+003;9.867167e-002
2.881251e+003;9.926097e-002
2.883179e+003;9.963816e-002
2.885108e+003;1.001401e-001
2.887036e+003;1.011434e-001
2.888965e+003;1.019438e-001
2.890893e+003;1.025679e-001
2.892822e+003;1.029830e-001
2.894750e+003;1.035794e-001
2.896679e+003;1.040804e-001
2.898608e+003;1.035248e-001
2.900536e+003;1.030777e-001
2.902465e+003;1.032110e-001
2.904393e+003;1.032227e-001
2.906322e+003;1.027121e-001
2.908250e+003;1.015666e-001
2.910179e+003;1.009651e-001
2.912107e+003;1.013765e-001
2.914036e+003;1.014727e-001
2.915965e+003;1.009058e-001
2.917893e+003;1.000271e-001
2.919822e+003;9.823458e-002
2.921750e+003;9.597498e-002
2.923679e+003;9.454320e-002
2.925607e+003;9.259760e-002
2.927536e+003;9.075802e-002
2.929464e+003;8.943994e-002
2.931393e+003;8.814949e-002
2.933322e+003;8.744415e-002
2.935250e+003;8.668976e-002
2.937178e+003;8.556496e-002
2.939107e+003;8.513170e-002
2.941036e+003;8.480839e-002
2.942964e+003;8.429155e-002
2.944893e+003;8.378934e-002
2.946821e+003;8.322752e-002
2.948750e+003;8.222395e-002
2.950678e+003;8.121103e-002
2.952607e+003;8.026021e-002
2.954535e+003;7.950915e-002
2.956464e+003;7.870663e-002
2.958393e+003;7.820568e-002
2.960321e+003;7.723153e-002
2.962250e+003;7.549893e-002
2.964178e+003;7.455891e-002
2.966107e+003;7.477561e-002
2.968035e+003;7.471673e-002
2.969964e+003;7.421215e-002
2.971892e+003;7.371184e-002
2.973821e+003;7.297887e-002
2.975750e+003;7.188391e-002
2.977678e+003;7.073664e-002
2.979607e+003;6.984553e-002
2.981535e+003;6.953724e-002
2.983464e+003;6.929015e-002
2.985392e+003;6.894582e-002
2.987321e+003;6.879663e-002
2.989249e+003;6.861604e-002
2.991178e+003;6.845557e-002
2.993106e+003;6.853979e-002
2.995035e+003;6.878911e-002
2.996964e+003;6.895249e-002
2.998892e+003;6.920248e-002
3.000821e+003;6.899727e-002
3.002749e+003;6.869591e-002
3.004678e+003;6.884334e-002
3.006606e+003;6.879912e-002
3.008535e+003;6.851962e-002
3.010463e+003;6.870344e-002
3.012392e+003;6.923515e-002
3.014321e+003;6.948945e-002
3.016249e+003;6.962518e-002
3.018177e+003;6.945711e-002
3.020106e+003;6.930211e-002
3.022035e+003;6.986137e-002
3.023963e+003;7.052358e-002
3.025892e+003;7.084700e-002
3.027820e+003;7.087138e-002
3.029749e+003;7.103029e-002
3.031677e+003;7.130986e-002
3.033606e+003;7.155397e-002
3.035534e+003;7.182894e-002
3.037463e+003;7.207452e-002
3.039392e+003;7.196023e-002
3.041320e+003;7.203845e-002
3.043249e+003;7.245567e-002
3.045177e+003;7.273713e-002
3.047106e+003;7.280201e-002
3.049034e+003;7.299094e-002
3.050963e+003;7.342057e-002
3.052891e+003;7.370124e-002
3.054820e+003;7.367074e-002
3.056749e+003;7.352063e-002
3.058677e+003;7.363176e-002
3.060606e+003;7.427752e-002
3.062534e+003;7.476884e-002
3.064463e+003;7.503305e-002
3.066391e+003;7.513215e-002
3.068320e+003;7.521721e-002
3.070248e+003;7.535884e-002
3.072177e+003;7.587142e-002
3.074105e+003;7.648379e-002
3.076034e+003;7.650477e-002
3.077963e+003;7.667958e-002
3.079891e+003;7.741531e-002
3.081820e+003;7.810771e-002
3.083748e+003;7.849269e-002
3.085677e+003;7.881964e-002
3.087605e+003;7.878742e-002
3.089534e+003;7.866906e-002
3.091462e+003;7.898776e-002
3.093391e+003;7.940336e-002
3.095320e+003;7.951571e-002
3.097248e+003;7.948858e-002
3.099177e+003;8.013634e-002
3.101105e+003;8.082750e-002
3.103034e+003;8.091959e-002
3.104962e+003;8.091205e-002
3.106891e+003;8.115251e-002
3.108819e+003;8.173173e-002
3.110748e+003;8.228517e-002
3.112677e+003;8.308286e-002
3.114605e+003;8.373024e-002
3.116533e+003;8.377685e-002
3.118462e+003;8.387230e-002
3.120391e+003;8.452407e-002
3.122319e+003;8.492376e-002
3.124248e+003;8.466562e-002
3.126176e+003;8.463474e-002
3.128105e+003;8.519923e-002
3.130033e+003;8.587282e-002
3.131962e+003;8.646630e-002
3.133890e+003;8.709902e-002
3.135819e+003;8.768258e-002
3.137748e+003;8.843335e-002
3.139676e+003;8.898857e-002
3.141605e+003;8.927925e-002
3.143533e+003;8.971031e-002
3.145462e+003;9.005854e-002
3.147390e+003;9.044158e-002
3.149319e+003;9.108315e-002
3.151247e+003;9.155524e-002
3.153176e+003;9.187289e-002
3.155104e+003;9.229195e-002
3.157033e+003;9.270145e-002
3.158962e+003;9.336632e-002
3.160890e+003;9.400417e-002
3.162819e+003;9.452298e-002
3.164747e+003;9.493970e-002
3.166676e+003;9.541452e-002
3.168604e+003;9.609258e-002
3.170533e+003;9.643902e-002
3.172461e+003;9.729134e-002
3.174390e+003;9.828568e-002
3.176319e+003;9.902896e-002
3.178247e+003;9.979407e-002
3.180176e+003;1.003677e-001
3.182104e+003;1.008153e-001
3.184033e+003;1.010668e-001
3.185961e+003;1.015914e-001
3.187890e+003;1.024323e-001
3.189818e+003;1.030612e-001
3.191747e+003;1.035577e-001
3.193676e+003;1.044435e-001
3.195604e+003;1.051891e-001
3.197532e+003;1.058500e-001
3.199461e+003;1.061817e-001
3.201390e+003;1.065888e-001
3.203318e+003;1.075901e-001
3.205247e+003;1.088242e-001
3.207175e+003;1.099055e-001
3.209104e+003;1.106831e-001
3.211032e+003;1.115534e-001
3.212961e+003;1.128933e-001
3.214889e+003;1.134654e-001
3.216818e+003;1.141186e-001
3.218747e+003;1.152830e-001
3.220675e+003;1.158661e-001
3.222604e+003;1.162183e-001
3.224532e+003;1.174318e-001
3.226461e+003;1.186801e-001
3.228389e+003;1.196686e-001
3.230318e+003;1.207452e-001
3.232246e+003;1.216558e-001
3.234175e+003;1.223361e-001
3.236104e+003;1.231643e-001
3.238032e+003;1.241134e-001
3.239961e+003;1.252009e-001
3.241889e+003;1.267108e-001
3.243818e+003;1.279165e-001
3.245746e+003;1.286557e-001
3.247675e+003;1.298716e-001
3.249603e+003;1.309092e-001
3.251532e+003;1.317836e-001
3.253460e+003;1.332732e-001
3.255389e+003;1.351977e-001
3.257318e+003;1.366701e-001
3.259246e+003;1.376660e-001
3.261175e+003;1.390271e-001
3.263103e+003;1.403986e-001
3.265032e+003;1.413545e-001
3.266960e+003;1.418630e-001
3.268889e+003;1.421434e-001
3.270817e+003;1.425060e-001
3.272746e+003;1.433940e-001
3.274675e+003;1.444363e-001
3.276603e+003;1.451925e-001
3.278531e+003;1.458334e-001
3.280460e+003;1.465801e-001
3.282389e+003;1.469547e-001
3.284317e+003;1.480372e-001
3.286246e+003;1.485728e-001
3.288174e+003;1.479133e-001
3.290103e+003;1.472105e-001
3.292031e+003;1.470011e-001
3.293960e+003;1.475641e-001
3.295888e+003;1.481292e-001
3.297817e+003;1.476977e-001
3.299746e+003;1.470354e-001
3.301674e+003;1.474476e-001
3.303603e+003;1.484117e-001
3.305531e+003;1.490168e-001
3.307460e+003;1.490698e-001
3.309388e+003;1.491693e-001
3.311317e+003;1.489202e-001
3.313245e+003;1.482078e-001
3.315174e+003;1.482703e-001
3.317103e+003;1.491897e-001
3.319031e+003;1.497426e-001
3.320960e+003;1.502639e-001
3.322888e+003;1.512450e-001
3.324817e+003;1.517191e-001
3.326745e+003;1.514076e-001
3.328674e+003;1.516957e-001
3.330602e+003;1.525173e-001
3.332531e+003;1.527189e-001
3.334459e+003;1.526676e-001
3.336388e+003;1.524591e-001
3.338317e+003;1.519573e-001
3.340245e+003;1.510437e-001
3.342174e+003;1.501165e-001
3.344102e+003;1.491938e-001
3.346031e+003;1.485245e-001
3.347959e+003;1.477022e-001
3.349888e+003;1.468960e-001
3.351816e+003;1.454589e-001
3.353745e+003;1.437925e-001
3.355674e+003;1.422632e-001
3.357602e+003;1.407999e-001
3.359531e+003;1.395372e-001
3.361459e+003;1.389666e-001
3.363388e+003;1.381703e-001
3.365316e+003;1.371615e-001
3.367245e+003;1.361964e-001
3.369173e+003;1.350740e-001
3.371102e+003;1.344069e-001
3.373031e+003;1.335161e-001
3.374959e+003;1.321106e-001
3.376887e+003;1.314106e-001
3.378816e+003;1.312353e-001
3.380745e+003;1.303251e-001
3.382673e+003;1.295844e-001
3.384602e+003;1.285760e-001
3.386530e+003;1.272329e-001
3.388459e+003;1.267252e-001
3.390387e+003;1.269346e-001
3.392316e+003;1.266647e-001
3.394244e+003;1.257512e-001
3.396173e+003;1.248601e-001
3.398102e+003;1.238959e-001
3.400030e+003;1.230699e-001
3.401959e+003;1.222872e-001
3.403887e+003;1.210113e-001
3.405816e+003;1.206730e-001
3.407744e+003;1.203603e-001
3.409673e+003;1.194183e-001
3.411601e+003;1.184685e-001
3.413530e+003;1.178919e-001
3.415458e+003;1.169101e-001
3.417387e+003;1.150604e-001
3.419316e+003;1.137792e-001
3.421244e+003;1.127560e-001
3.423173e+003;1.114106e-001
3.425101e+003;1.103595e-001
3.427030e+003;1.093440e-001
3.428958e+003;1.087156e-001
3.430887e+003;1.077136e-001
3.432815e+003;1.057753e-001
3.434744e+003;1.044916e-001
3.436673e+003;1.037638e-001
3.438601e+003;1.036367e-001
3.440530e+003;1.030508e-001
3.442458e+003;1.018898e-001
3.444387e+003;1.011550e-001
3.446315e+003;9.991267e-002
3.448244e+003;9.895127e-002
3.450172e+003;9.883630e-002
3.452101e+003;9.804842e-002
3.454030e+003;9.650108e-002
3.455958e+003;9.585284e-002
3.457886e+003;9.552874e-002
3.459815e+003;9.458107e-002
3.461744e+003;9.357951e-002
3.463672e+003;9.250391e-002
3.465601e+003;9.161808e-002
3.467529e+003;9.051720e-002
3.469458e+003;8.976372e-002
3.471386e+003;8.899642e-002
3.473315e+003;8.835156e-002
3.475243e+003;8.790427e-002
3.477172e+003;8.691765e-002
3.479101e+003;8.563312e-002
3.481029e+003;8.438304e-002
3.482958e+003;8.342353e-002
3.484886e+003;8.269840e-002
3.486815e+003;8.189999e-002
3.488743e+003;8.140557e-002
3.490672e+003;8.052272e-002
3.492600e+003;7.959590e-002
3.494529e+003;7.942583e-002
3.496458e+003;7.885194e-002
3.498386e+003;7.758170e-002
3.500315e+003;7.608400e-002
3.502243e+003;7.505763e-002
3.504172e+003;7.472015e-002
3.506100e+003;7.405510e-002
3.508029e+003;7.331856e-002
3.509957e+003;7.281854e-002
3.511886e+003;7.176534e-002
3.513814e+003;7.082041e-002
3.515743e+003;7.067519e-002
3.517672e+003;7.031846e-002
3.519600e+003;6.968629e-002
3.521529e+003;6.890240e-002
3.523457e+003;6.836519e-002
3.525386e+003;6.796046e-002
3.527314e+003;6.703454e-002
3.529243e+003;6.587597e-002
3.531171e+003;6.491262e-002
3.533100e+003;6.425358e-002
3.535029e+003;6.390270e-002
3.536957e+003;6.378667e-002
3.538885e+003;6.318807e-002
3.540814e+003;6.226986e-002
3.542743e+003;6.181497e-002
3.544671e+003;6.169034e-002
3.546600e+003;6.116850e-002
3.548528e+003;6.019090e-002
3.550457e+003;5.908618e-002
3.552385e+003;5.838489e-002
3.554314e+003;5.771133e-002
3.556242e+003;5.731200e-002
3.558171e+003;5.703907e-002
3.560100e+003;5.608881e-002
3.562028e+003;5.534668e-002
3.563957e+003;5.475546e-002
3.565885e+003;5.392470e-002
3.567814e+003;5.390583e-002
3.569742e+003;5.441859e-002
3.571671e+003;5.377234e-002
3.573599e+003;5.307332e-002
3.575528e+003;5.276876e-002
3.577457e+003;5.214906e-002
3.579385e+003;5.181077e-002
3.581314e+003;5.155885e-002
3.583242e+003;5.129156e-002
3.585171e+003;5.080121e-002
3.587099e+003;5.004622e-002
3.589028e+003;4.944824e-002
3.590956e+003;4.918530e-002
3.592885e+003;4.892025e-002
3.594813e+003;4.846008e-002
3.596742e+003;4.763905e-002
3.598671e+003;4.712044e-002
3.600599e+003;4.698902e-002
3.602528e+003;4.667369e-002
3.604456e+003;4.617087e-002
3.606385e+003;4.624001e-002
3.608313e+003;4.633404e-002
3.610242e+003;4.591671e-002
3.612170e+003;4.483209e-002
3.614099e+003;4.446046e-002
3.616028e+003;4.458701e-002
3.617956e+003;4.431789e-002
3.619885e+003;4.360727e-002
3.621813e+003;4.336618e-002
3.623742e+003;4.393065e-002
3.625670e+003;4.329845e-002
3.627599e+003;4.232566e-002
3.629527e+003;4.218750e-002
3.631456e+003;4.238206e-002
3.633385e+003;4.232932e-002
3.635313e+003;4.184992e-002
3.637241e+003;4.160976e-002
3.639170e+003;4.128034e-002
3.641099e+003;4.099105e-002
3.643027e+003;4.097976e-002
3.644956e+003;4.073168e-002
3.646884e+003;4.010001e-002
3.648813e+003;3.906598e-002
3.650741e+003;3.882917e-002
3.652670e+003;3.949328e-002
3.654598e+003;3.950529e-002
3.656527e+003;3.922392e-002
3.658456e+003;3.921859e-002
3.660384e+003;3.856783e-002
3.662313e+003;3.828677e-002
3.664241e+003;3.774177e-002
3.666170e+003;3.703886e-002
3.668098e+003;3.685776e-002
3.670027e+003;3.705297e-002
3.671955e+003;3.702973e-002
3.673884e+003;3.624628e-002
3.675813e+003;3.554550e-002
3.677741e+003;3.548818e-002
3.679669e+003;3.548452e-002
3.681598e+003;3.619640e-002
3.683527e+003;3.684878e-002
3.685455e+003;3.604693e-002
3.687384e+003;3.505679e-002
3.689312e+003;3.506584e-002
3.691241e+003;3.545166e-002
3.693169e+003;3.545443e-002
3.695098e+003;3.487285e-002
3.697026e+003;3.456874e-002
3.698955e+003;3.449767e-002
3.700884e+003;3.400946e-002
3.702812e+003;3.415127e-002
3.704741e+003;3.447991e-002
3.706669e+003;3.431565e-002
3.708598e+003;3.452669e-002
3.710526e+003;3.473138e-002
3.712455e+003;3.396807e-002
3.714383e+003;3.332004e-002
3.716312e+003;3.327139e-002
3.718240e+003;3.358844e-002
3.720169e+003;3.401171e-002
3.722098e+003;3.433971e-002
3.724026e+003;3.374821e-002
3.725955e+003;3.313007e-002
3.727883e+003;3.335353e-002
3.729812e+003;3.366899e-002
3.731740e+003;3.340362e-002
3.733669e+003;3.345834e-002
3.735597e+003;3.387288e-002
3.737526e+003;3.384835e-002
3.739455e+003;3.313100e-002
3.741383e+003;3.234973e-002
3.743312e+003;3.242266e-002
3.745240e+003;3.267762e-002
3.747169e+003;3.272245e-002
3.749097e+003;3.196292e-002
3.751026e+003;3.196609e-002
3.752954e+003;3.292886e-002
3.754883e+003;3.303814e-002
3.756812e+003;3.239853e-002
3.758740e+003;3.248861e-002
3.760668e+003;3.290180e-002
3.762597e+003;3.320214e-002
3.764526e+003;3.331489e-002
3.766454e+003;3.321623e-002
3.768383e+003;3.240003e-002
3.770311e+003;3.208219e-002
3.772240e+003;3.275336e-002
3.774168e+003;3.307418e-002
3.776097e+003;3.251900e-002
3.778025e+003;3.218106e-002
3.779954e+003;3.264200e-002
3.781883e+003;3.342788e-002
3.783811e+003;3.319806e-002
3.785740e+003;3.308584e-002
3.787668e+003;3.341618e-002
3.789597e+003;3.350125e-002
3.791525e+003;3.335170e-002
3.793454e+003;3.331943e-002
3.795382e+003;3.367132e-002
3.797311e+003;3.385573e-002
3.799240e+003;3.294716e-002
3.801168e+003;3.218670e-002
3.803097e+003;3.196859e-002
3.805025e+003;3.231004e-002
3.806954e+003;3.284919e-002
3.808882e+003;3.375533e-002
3.810811e+003;3.422720e-002
3.812739e+003;3.392031e-002
3.814668e+003;3.334193e-002
3.816596e+003;3.322574e-002
3.818525e+003;3.346778e-002
3.820454e+003;3.335825e-002
3.822382e+003;3.308845e-002
3.824311e+003;3.260307e-002
3.826239e+003;3.283057e-002
3.828168e+003;3.394009e-002
3.830096e+003;3.426753e-002
3.832025e+003;3.378742e-002
3.833953e+003;3.379401e-002
3.835882e+003;3.374488e-002
3.837811e+003;3.372915e-002
3.839739e+003;3.407177e-002
3.841667e+003;3.411639e-002
3.843596e+003;3.388134e-002
3.845525e+003;3.388761e-002
3.847453e+003;3.395338e-002
3.849382e+003;3.413582e-002
3.851310e+003;3.367881e-002
3.853239e+003;3.341128e-002
3.855167e+003;3.390975e-002
3.857096e+003;3.409170e-002
3.859024e+003;3.432781e-002
3.860953e+003;3.441345e-002
3.862882e+003;3.437148e-002
3.864810e+003;3.443117e-002
3.866739e+003;3.447435e-002
3.868667e+003;3.451051e-002
3.870596e+003;3.467244e-002
3.872524e+003;3.476591e-002
3.874453e+003;3.487296e-002
3.876381e+003;3.474290e-002
3.878310e+003;3.437633e-002
3.880239e+003;3.452400e-002
3.882167e+003;3.496240e-002
3.884096e+003;3.457082e-002
3.886024e+003;3.441348e-002
3.887953e+003;3.521091e-002
3.889881e+003;3.532448e-002
3.891810e+003;3.554130e-002
3.893738e+003;3.578557e-002
3.895667e+003;3.511269e-002
3.897595e+003;3.518910e-002
3.899524e+003;3.545198e-002
3.901453e+003;3.462468e-002
3.903381e+003;3.404146e-002
3.905310e+003;3.439591e-002
3.907238e+003;3.548585e-002
3.909167e+003;3.598937e-002
3.911095e+003;3.504832e-002
3.913024e+003;3.503262e-002
3.914952e+003;3.511754e-002
3.916881e+003;3.465009e-002
3.918810e+003;3.448669e-002
3.920738e+003;3.523492e-002
3.922667e+003;3.542642e-002
3.924595e+003;3.561797e-002
3.926524e+003;3.636804e-002
3.928452e+003;3.587095e-002
3.930381e+003;3.465321e-002
3.932309e+003;3.535140e-002
3.934238e+003;3.597983e-002
3.936167e+003;3.531466e-002
3.938095e+003;3.537084e-002
3.940023e+003;3.550045e-002
3.941952e+003;3.545550e-002
3.943881e+003;3.582241e-002
3.945809e+003;3.631505e-002
3.947738e+003;3.571379e-002
3.949666e+003;3.535241e-002
3.951595e+003;3.551163e-002
3.953523e+003;3.556269e-002
3.955452e+003;3.558481e-002
3.957380e+003;3.573678e-002
3.959309e+003;3.600064e-002
3.961238e+003;3.592152e-002
3.963166e+003;3.591688e-002
3.965095e+003;3.673410e-002
3.967023e+003;3.741939e-002
3.968952e+003;3.704860e-002
3.970880e+003;3.640450e-002
3.972809e+003;3.589924e-002
3.974737e+003;3.536499e-002
3.976666e+003;3.567239e-002
3.978594e+003;3.644072e-002
3.980523e+003;3.641776e-002
3.982452e+003;3.593498e-002
3.984380e+003;3.575466e-002
3.986309e+003;3.618610e-002
3.988237e+003;3.623868e-002
3.990166e+003;3.615542e-002
3.992094e+003;3.652738e-002
3.994023e+003;3.699794e-002
3.995951e+003;3.687179e-002
3.997880e+003;3.582486e-002
3.999809e+003;3.546758e-002
4.001737e+003;0.000000e+000
