3.992094e+002;0.000000e+000
4.011380e+002;0.000000e+000
4.030665e+002;0.000000e+000
4.049951e+002;0.000000e+000
4.069236e+002;0.000000e+000
4.088522e+002;0.000000e+000
4.107807e+002;0.000000e+000
4.127093e+002;0.000000e+000
4.146378e+002;0.000000e+000
4.165664e+002;0.000000e+000
4.184949e+002;0.000000e+000
4.204235e+002;0.000000e+000
4.223520e+002;0.000000e+000
4.242806e+002;0.000000e+000
4.262091e+002;0.000000e+000
4.281377e+002;0.000000e+000
4.300662e+002;0.000000e+000
4.319948e+002;0.000000e+000
4.339233e+002;0.000000e+000
4.358519e+002;0.000000e+000
4.377804e+002;0.000000e+000
4.397090e+002;0.000000e+000
4.416375e+002;0.000000e+000
4.435660e+002;0.000000e+000
4.454946e+002;0.000000e+000
4.474232e+002;0.000000e+000
4.493517e+002;0.000000e+000
4.512802e+002;0.000000e+000
4.532088e+002;0.000000e+000
4.551373e+002;0.000000e+000
4.570659e+002;0.000000e+000
4.589944e+002;0.000000e+000
4.609230e+002;0.000000e+000
4.628515e+002;0.000000e+000
4.647801e+002;0.000000e+000
4.667086e+002;0.000000e+000
4.686372e+002;0.000000e+000
4.705657e+002;0.000000e+000
4.724943e+002;0.000000e+000
4.744228e+002;0.000000e+000
4.763513e+002;0.000000e+000
4.782799e+002;0.000000e+000
4.802085e+002;0.000000e+000
4.821370e+002;0.000000e+000
4.840656e+002;0.000000e+000
4.859941e+002;0.000000e+000
4.879226e+002;0.000000e+000
4.898512e+002;0.000000e+000
4.917798e+002;0.000000e+000
4.937083e+002;0.000000e+000
4.956368e+002;0.000000e+000
4.975654e+002;0.000000e+000
4.994939e+002;0.000000e+000
5.014225e+002;0.000000e+000
5.033510e+002;0.000000e+000
5.052796e+002;0.000000e+000
5.072081e+002;0.000000e+000
5.091367e+002;0.000000e+000
5.110652e+002;0.000000e+000
5.129938e+002;0.000000e+000
5.149223e+002;0.000000e+000
5.168509e+002;0.000000e+000
5.187794e+002;0.000000e+000
5.207079e+002;0.000000e+000
5.226365e+002;0.000000e+000
5.245651e+002;0.000000e+000
5.264936e+002;0.000000e+000
5.284222e+002;0.000000e+000
5.303507e+002;0.000000e+000
5.322792e+002;0.000000e+000
5.342078e+002;0.000000e+000
5.361364e+002;0.000000e+000
5.380649e+002;0.000000e+000
5.399935e+002;0.000000e+000
5.419220e+002;0.000000e+000
5.438505e+002;0.000000e+000
5.457791e+002;0.000000e+000
5.477076e+002;0.000000e+000
5.496362e+002;0.000000e+000
5.515648e+002;0.000000e+000
5.534933e+002;0.000000e+000
5.554218e+002;0.000000e+000
5.573504e+002;0.000000e+000
5.592789e+002;0.000000e+000
5.612075e+002;0.000000e+000
5.631360e+002;0.000000e+000
5.650646e+002;0.000000e+000
5.669931e+002;0.000000e+000
5.689217e+002;0.000000e+000
5.708502e+002;0.000000e+000
5.727787e+002;0.000000e+000
5.747073e+002;0.000000e+000
5.766359e+002;0.000000e+000
5.785644e+002;0.000000e+000
5.804930e+002;0.000000e+000
5.824215e+002;0.000000e+000
5.843500e+002;0.000000e+000
5.862786e+002;0.000000e+000
5.882072e+002;0.000000e+000
5.901357e+002;0.000000e+000
5.920643e+002;0.000000e+000
5.939928e+002;0.000000e+000
5.959213e+002;0.000000e+000
5.978499e+002;0.000000e+000
5.997784e+002;3.177636e-001
6.017070e+002;3.176777e-001
6.036355e+002;3.110245e-001
6.055641e+002;3.166769e-001
6.074926e+002;3.178840e-001
6.094211e+002;3.172033e-001
6.113497e+002;3.154930e-001
6.132783e+002;3.078038e-001
6.152068e+002;3.035716e-001
6.171354e+002;3.058735e-001
6.190639e+002;3.072784e-001
6.209924e+002;3.024027e-001
6.229210e+002;2.931216e-001
6.248495e+002;2.861046e-001
6.267781e+002;2.815128e-001
6.287067e+002;2.766516e-001
6.306352e+002;2.776056e-001
6.325637e+002;2.770349e-001
6.344923e+002;2.728170e-001
6.364208e+002;2.715505e-001
6.383494e+002;2.706178e-001
6.402780e+002;2.670824e-001
6.422065e+002;2.624263e-001
6.441350e+002;2.598507e-001
6.460636e+002;2.605291e-001
6.479921e+002;2.630244e-001
6.499207e+002;2.634231e-001
6.518492e+002;2.631968e-001
6.537778e+002;2.670262e-001
6.557063e+002;2.730612e-001
6.576349e+002;2.773584e-001
6.595634e+002;2.810157e-001
6.614919e+002;2.846879e-001
6.634205e+002;2.865081e-001
6.653491e+002;2.858085e-001
6.672776e+002;2.823396e-001
6.692062e+002;2.773753e-001
6.711347e+002;2.735417e-001
6.730632e+002;2.679508e-001
6.749918e+002;2.598173e-001
6.769203e+002;2.523049e-001
6.788489e+002;2.466746e-001
6.807775e+002;2.424432e-001
6.827060e+002;2.390954e-001
6.846345e+002;2.358817e-001
6.865631e+002;2.328264e-001
6.884916e+002;2.307522e-001
6.904202e+002;2.298263e-001
6.923488e+002;2.293308e-001
6.942773e+002;2.297671e-001
6.962058e+002;2.301220e-001
6.981344e+002;2.294716e-001
7.000629e+002;2.277952e-001
7.019915e+002;2.265467e-001
7.039200e+002;2.269508e-001
7.058486e+002;2.254966e-001
7.077771e+002;2.220122e-001
7.097057e+002;2.189860e-001
7.116342e+002;2.161374e-001
7.135627e+002;2.130044e-001
7.154913e+002;2.088541e-001
7.174199e+002;2.045399e-001
7.193484e+002;1.998498e-001
7.212770e+002;1.954988e-001
7.232055e+002;1.921621e-001
7.251340e+002;1.877092e-001
7.270626e+002;1.828627e-001
7.289911e+002;1.788557e-001
7.309197e+002;1.749060e-001
7.328483e+002;1.717414e-001
7.347768e+002;1.693271e-001
7.367053e+002;1.669654e-001
7.386339e+002;1.638440e-001
7.405624e+002;1.621302e-001
7.424910e+002;1.605282e-001
7.444196e+002;1.587108e-001
7.463481e+002;1.569938e-001
7.482766e+002;1.553090e-001
7.502052e+002;1.534672e-001
7.521337e+002;1.515628e-001
7.540623e+002;1.492588e-001
7.559908e+002;1.473061e-001
7.579194e+002;1.456703e-001
7.598479e+002;1.438640e-001
7.617765e+002;1.424375e-001
7.637050e+002;1.416213e-001
7.656335e+002;1.406061e-001
7.675621e+002;1.390875e-001
7.694907e+002;1.378453e-001
7.714192e+002;1.373532e-001
7.733478e+002;1.365522e-001
7.752763e+002;1.352191e-001
7.772048e+002;1.342040e-001
7.791334e+002;1.335675e-001
7.810620e+002;1.336464e-001
7.829905e+002;1.341157e-001
7.849191e+002;1.354752e-001
7.868476e+002;1.369585e-001
7.887761e+002;1.377809e-001
7.907047e+002;1.381159e-001
7.926332e+002;1.390655e-001
7.945618e+002;1.408158e-001
7.964903e+002;1.423908e-001
7.984189e+002;1.428888e-001
8.003474e+002;1.433526e-001
8.022759e+002;1.438500e-001
8.042045e+002;1.436745e-001
8.061331e+002;1.429151e-001
8.080616e+002;1.421407e-001
8.099902e+002;1.418371e-001
8.119187e+002;1.414885e-001
8.138472e+002;1.403383e-001
8.157758e+002;1.391899e-001
8.177043e+002;1.386892e-001
8.196329e+002;1.380652e-001
8.215615e+002;1.369871e-001
8.234900e+002;1.352832e-001
8.254185e+002;1.323499e-001
8.273471e+002;1.299641e-001
8.292756e+002;1.281339e-001
8.312042e+002;1.257856e-001
8.331328e+002;1.233288e-001
8.350613e+002;1.210256e-001
8.369898e+002;1.195861e-001
8.389184e+002;1.189702e-001
8.408469e+002;1.184957e-001
8.427755e+002;1.179523e-001
8.447040e+002;1.176312e-001
8.466326e+002;1.179214e-001
8.485611e+002;1.172597e-001
8.504897e+002;1.161014e-001
8.524182e+002;1.163076e-001
8.543467e+002;1.171225e-001
8.562753e+002;1.176091e-001
8.582039e+002;1.182928e-001
8.601324e+002;1.191442e-001
8.620610e+002;1.201108e-001
8.639895e+002;1.209571e-001
8.659180e+002;1.221540e-001
8.678466e+002;1.238178e-001
8.697751e+002;1.258708e-001
8.717037e+002;1.283323e-001
8.736323e+002;1.314309e-001
8.755608e+002;1.345368e-001
8.774893e+002;1.373847e-001
8.794179e+002;1.410690e-001
8.813464e+002;1.453470e-001
8.832750e+002;1.492851e-001
8.852036e+002;1.535613e-001
8.871321e+002;1.584156e-001
8.890606e+002;1.628821e-001
8.909892e+002;1.669714e-001
8.929177e+002;1.702840e-001
8.948463e+002;1.727981e-001
8.967748e+002;1.741447e-001
8.987034e+002;1.744968e-001
9.006319e+002;1.743753e-001
9.025605e+002;1.728553e-001
9.044890e+002;1.699378e-001
9.064175e+002;1.667610e-001
9.083461e+002;1.638136e-001
9.102747e+002;1.607922e-001
9.122032e+002;1.581013e-001
9.141318e+002;1.555832e-001
9.160603e+002;1.532903e-001
9.179888e+002;1.516221e-001
9.199174e+002;1.505931e-001
9.218459e+002;1.504710e-001
9.237745e+002;1.513155e-001
9.257031e+002;1.526001e-001
9.276316e+002;1.539010e-001
9.295601e+002;1.555412e-001
9.314887e+002;1.573816e-001
9.334172e+002;1.589054e-001
9.353458e+002;1.602103e-001
9.372744e+002;1.617735e-001
9.392029e+002;1.637727e-001
9.411314e+002;1.663134e-001
9.430600e+002;1.688938e-001
9.449885e+002;1.715645e-001
9.469171e+002;1.750060e-001
9.488456e+002;1.792621e-001
9.507742e+002;1.843071e-001
9.527027e+002;1.902823e-001
9.546313e+002;1.966172e-001
9.565598e+002;2.035689e-001
9.584883e+002;2.106387e-001
9.604169e+002;2.178418e-001
9.623455e+002;2.258123e-001
9.642740e+002;2.347106e-001
9.662026e+002;2.435389e-001
9.681311e+002;2.532754e-001
9.700596e+002;2.644963e-001
9.719882e+002;2.771878e-001
9.739167e+002;2.924156e-001
9.758453e+002;3.099593e-001
9.777739e+002;3.295425e-001
9.797024e+002;3.502189e-001
9.816309e+002;3.693902e-001
9.835595e+002;3.836271e-001
9.854880e+002;3.908839e-001
9.874166e+002;3.939340e-001
9.893452e+002;3.978887e-001
9.912737e+002;4.044392e-001
9.932022e+002;4.125065e-001
9.951307e+002;4.218712e-001
9.970593e+002;4.319557e-001
9.989879e+002;4.414884e-001
1.000916e+003;4.480038e-001
1.002845e+003;4.505138e-001
1.004773e+003;4.521668e-001
1.006702e+003;4.548313e-001
1.008631e+003;4.580780e-001
1.010559e+003;4.627864e-001
1.012488e+003;4.691373e-001
1.014416e+003;4.767236e-001
1.016345e+003;4.839731e-001
1.018273e+003;4.904792e-001
1.020202e+003;4.965858e-001
1.022130e+003;5.027589e-001
1.024059e+003;5.087628e-001
1.025988e+003;5.141855e-001
1.027916e+003;5.188583e-001
1.029845e+003;5.226239e-001
1.031773e+003;5.242447e-001
1.033702e+003;5.218941e-001
1.035630e+003;5.153241e-001
1.037559e+003;5.054427e-001
1.039487e+003;4.967818e-001
1.041416e+003;4.905033e-001
1.043344e+003;4.868069e-001
1.045273e+003;4.857928e-001
1.047202e+003;4.878855e-001
1.049130e+003;4.922736e-001
1.051059e+003;4.957033e-001
1.052987e+003;4.983138e-001
1.054916e+003;4.989714e-001
1.056844e+003;4.954749e-001
1.058773e+003;4.872109e-001
1.060701e+003;4.735354e-001
1.062630e+003;4.549381e-001
1.064558e+003;4.339047e-001
1.066487e+003;4.142077e-001
1.068416e+003;3.976690e-001
1.070344e+003;3.840482e-001
1.072273e+003;3.730760e-001
1.074201e+003;3.650485e-001
1.076130e+003;3.583768e-001
1.078058e+003;3.504066e-001
1.079987e+003;3.424424e-001
1.081915e+003;3.366302e-001
1.083844e+003;3.333713e-001
1.085773e+003;3.313350e-001
1.087701e+003;3.302093e-001
1.089630e+003;3.297260e-001
1.091558e+003;3.295856e-001
1.093487e+003;3.301293e-001
1.095415e+003;3.312131e-001
1.097344e+003;3.325427e-001
1.099272e+003;3.338466e-001
1.101201e+003;3.338732e-001
1.103129e+003;3.323381e-001
1.105058e+003;3.294717e-001
1.106987e+003;3.253573e-001
1.108915e+003;3.205066e-001
1.110844e+003;3.159932e-001
1.112772e+003;3.092510e-001
1.114701e+003;2.989671e-001
1.116629e+003;2.857361e-001
1.118558e+003;2.722420e-001
1.120486e+003;2.610505e-001
1.122415e+003;2.518153e-001
1.124344e+003;2.430291e-001
1.126272e+003;2.336829e-001
1.128201e+003;2.243520e-001
1.130129e+003;2.160221e-001
1.132058e+003;2.086642e-001
1.133986e+003;2.025543e-001
1.135915e+003;1.979962e-001
1.137843e+003;1.943622e-001
1.139772e+003;1.921413e-001
1.141700e+003;1.919622e-001
1.143629e+003;1.933317e-001
1.145557e+003;1.953122e-001
1.147486e+003;1.974470e-001
1.149415e+003;1.993183e-001
1.151343e+003;2.010466e-001
1.153272e+003;2.030605e-001
1.155200e+003;2.052725e-001
1.157129e+003;2.079858e-001
1.159057e+003;2.094731e-001
1.160986e+003;2.095182e-001
1.162914e+003;2.072060e-001
1.164843e+003;2.014102e-001
1.166771e+003;1.927990e-001
1.168700e+003;1.824289e-001
1.170629e+003;1.717841e-001
1.172557e+003;1.616980e-001
1.174486e+003;1.527854e-001
1.176414e+003;1.462854e-001
1.178343e+003;1.411455e-001
1.180271e+003;1.361255e-001
1.182200e+003;1.327425e-001
1.184128e+003;1.311672e-001
1.186057e+003;1.307530e-001
1.187986e+003;1.311375e-001
1.189914e+003;1.325147e-001
1.191843e+003;1.352444e-001
1.193771e+003;1.382842e-001
1.195700e+003;1.408933e-001
1.197628e+003;1.432111e-001
1.199557e+003;1.453729e-001
1.201485e+003;1.468014e-001
1.203414e+003;1.468447e-001
1.205343e+003;1.458554e-001
1.207271e+003;1.433702e-001
1.209200e+003;1.388106e-001
1.211128e+003;1.333876e-001
1.213057e+003;1.286195e-001
1.214985e+003;1.259072e-001
1.216914e+003;1.254280e-001
1.218842e+003;1.262799e-001
1.220771e+003;1.281793e-001
1.222699e+003;1.305256e-001
1.224628e+003;1.326585e-001
1.226557e+003;1.350169e-001
1.228485e+003;1.377282e-001
1.230414e+003;1.402920e-001
1.232342e+003;1.424600e-001
1.234271e+003;1.442289e-001
1.236199e+003;1.451683e-001
1.238128e+003;1.454774e-001
1.240056e+003;1.458652e-001
1.241985e+003;1.472230e-001
1.243913e+003;1.491276e-001
1.245842e+003;1.511731e-001
1.247771e+003;1.530977e-001
1.249699e+003;1.547739e-001
1.251628e+003;1.565400e-001
1.253556e+003;1.583492e-001
1.255485e+003;1.604522e-001
1.257413e+003;1.633529e-001
1.259342e+003;1.660933e-001
1.261270e+003;1.677070e-001
1.263199e+003;1.674130e-001
1.265127e+003;1.654913e-001
1.267056e+003;1.628780e-001
1.268985e+003;1.605667e-001
1.270913e+003;1.593252e-001
1.272842e+003;1.588952e-001
1.274770e+003;1.586495e-001
1.276699e+003;1.582247e-001
1.278627e+003;1.573606e-001
1.280556e+003;1.559433e-001
1.282484e+003;1.541469e-001
1.284413e+003;1.525206e-001
1.286342e+003;1.515602e-001
1.288270e+003;1.510223e-001
1.290199e+003;1.509234e-001
1.292127e+003;1.512671e-001
1.294056e+003;1.520058e-001
1.295984e+003;1.535378e-001
1.297913e+003;1.556394e-001
1.299841e+003;1.583169e-001
1.301770e+003;1.618881e-001
1.303698e+003;1.664705e-001
1.305627e+003;1.712137e-001
1.307556e+003;1.760079e-001
1.309484e+003;1.811503e-001
1.311413e+003;1.859660e-001
1.313341e+003;1.893076e-001
1.315270e+003;1.905365e-001
1.317198e+003;1.896019e-001
1.319127e+003;1.865263e-001
1.321055e+003;1.823842e-001
1.322984e+003;1.785129e-001
1.324912e+003;1.757543e-001
1.326841e+003;1.740133e-001
1.328770e+003;1.735183e-001
1.330698e+003;1.747479e-001
1.332627e+003;1.764245e-001
1.334555e+003;1.773614e-001
1.336484e+003;1.768654e-001
1.338412e+003;1.751852e-001
1.340341e+003;1.728244e-001
1.342269e+003;1.697991e-001
1.344198e+003;1.665081e-001
1.346126e+003;1.633883e-001
1.348055e+003;1.610233e-001
1.349984e+003;1.600804e-001
1.351912e+003;1.603610e-001
1.353841e+003;1.614554e-001
1.355769e+003;1.630623e-001
1.357698e+003;1.648920e-001
1.359626e+003;1.661396e-001
1.361555e+003;1.660204e-001
1.363483e+003;1.645715e-001
1.365412e+003;1.629637e-001
1.367341e+003;1.621733e-001
1.369269e+003;1.617276e-001
1.371198e+003;1.603863e-001
1.373126e+003;1.575660e-001
1.375055e+003;1.539673e-001
1.376983e+003;1.501585e-001
1.378912e+003;1.463206e-001
1.380840e+003;1.425990e-001
1.382769e+003;1.391659e-001
1.384698e+003;1.363357e-001
1.386626e+003;1.340207e-001
1.388555e+003;1.318850e-001
1.390483e+003;1.304948e-001
1.392412e+003;1.297147e-001
1.394340e+003;1.291215e-001
1.396269e+003;1.291033e-001
1.398197e+003;1.294912e-001
1.400126e+003;1.299115e-001
1.402054e+003;1.304016e-001
1.403983e+003;1.310937e-001
1.405911e+003;1.313620e-001
1.407840e+003;1.315229e-001
1.409769e+003;1.320969e-001
1.411697e+003;1.330340e-001
1.413626e+003;1.343050e-001
1.415554e+003;1.361587e-001
1.417483e+003;1.383486e-001
1.419411e+003;1.403727e-001
1.421340e+003;1.425563e-001
1.423268e+003;1.446296e-001
1.425197e+003;1.462231e-001
1.427125e+003;1.472514e-001
1.429054e+003;1.475135e-001
1.430983e+003;1.469471e-001
1.432911e+003;1.457099e-001
1.434840e+003;1.437440e-001
1.436768e+003;1.415633e-001
1.438697e+003;1.395344e-001
1.440625e+003;1.376579e-001
1.442554e+003;1.362319e-001
1.444482e+003;1.352365e-001
1.446411e+003;1.340323e-001
1.448340e+003;1.332491e-001
1.450268e+003;1.331065e-001
1.452197e+003;1.329131e-001
1.454125e+003;1.320084e-001
1.456054e+003;1.303451e-001
1.457982e+003;1.285798e-001
1.459911e+003;1.269408e-001
1.461839e+003;1.249114e-001
1.463768e+003;1.225422e-001
1.465697e+003;1.198076e-001
1.467625e+003;1.171911e-001
1.469554e+003;1.144703e-001
1.471482e+003;1.114161e-001
1.473411e+003;1.087631e-001
1.475339e+003;1.063689e-001
1.477268e+003;1.042611e-001
1.479196e+003;1.028125e-001
1.481125e+003;1.011915e-001
1.483053e+003;9.853671e-002
1.484982e+003;9.515588e-002
1.486911e+003;9.161668e-002
1.488839e+003;8.824205e-002
1.490768e+003;8.561169e-002
1.492696e+003;8.385389e-002
1.494625e+003;8.249639e-002
1.496553e+003;8.125677e-002
1.498482e+003;8.007749e-002
1.500410e+003;7.881523e-002
1.502339e+003;7.749452e-002
1.504267e+003;7.636881e-002
1.506196e+003;7.559155e-002
1.508125e+003;7.470677e-002
1.510053e+003;7.363356e-002
1.511982e+003;7.291725e-002
1.513910e+003;7.244983e-002
1.515839e+003;7.174415e-002
1.517767e+003;7.098807e-002
1.519696e+003;7.025278e-002
1.521624e+003;6.951694e-002
1.523553e+003;6.904951e-002
1.525481e+003;6.886458e-002
1.527410e+003;6.877513e-002
1.529339e+003;6.855989e-002
1.531267e+003;6.834085e-002
1.533196e+003;6.825313e-002
1.535124e+003;6.820378e-002
1.537053e+003;6.809524e-002
1.538981e+003;6.764904e-002
1.540910e+003;6.759511e-002
1.542838e+003;6.815946e-002
1.544767e+003;6.835170e-002
1.546695e+003;6.836496e-002
1.548624e+003;6.851861e-002
1.550553e+003;6.865985e-002
1.552481e+003;6.849324e-002
1.554410e+003;6.828740e-002
1.556338e+003;6.826030e-002
1.558267e+003;6.768734e-002
1.560195e+003;6.709544e-002
1.562124e+003;6.715600e-002
1.564052e+003;6.733429e-002
1.565981e+003;6.753661e-002
1.567910e+003;6.781526e-002
1.569838e+003;6.814729e-002
1.571767e+003;6.873142e-002
1.573695e+003;6.887379e-002
1.575624e+003;6.854483e-002
1.577552e+003;6.846216e-002
1.579481e+003;6.855682e-002
1.581409e+003;6.868213e-002
1.583338e+003;6.895661e-002
1.585266e+003;6.930200e-002
1.587195e+003;6.974173e-002
1.589124e+003;7.012554e-002
1.591052e+003;7.022065e-002
1.592981e+003;6.995042e-002
1.594909e+003;6.999321e-002
1.596838e+003;7.034963e-002
1.598766e+003;7.060318e-002
1.600695e+003;7.074097e-002
1.602623e+003;7.107400e-002
1.604552e+003;7.155549e-002
1.606480e+003;7.209606e-002
1.608409e+003;7.260082e-002
1.610338e+003;7.312365e-002
1.612266e+003;7.361954e-002
1.614195e+003;7.406807e-002
1.616123e+003;7.461049e-002
1.618052e+003;7.528802e-002
1.619980e+003;7.582285e-002
1.621909e+003;7.661483e-002
1.623837e+003;7.729522e-002
1.625766e+003;7.764874e-002
1.627694e+003;7.831194e-002
1.629623e+003;7.898836e-002
1.631552e+003;7.918131e-002
1.633480e+003;7.920187e-002
1.635409e+003;7.940841e-002
1.637337e+003;7.953887e-002
1.639266e+003;7.942759e-002
1.641194e+003;7.945675e-002
1.643123e+003;7.968470e-002
1.645051e+003;7.972737e-002
1.646980e+003;7.938363e-002
1.648909e+003;7.911082e-002
1.650837e+003;7.909150e-002
1.652766e+003;7.907207e-002
1.654694e+003;7.893685e-002
1.656623e+003;7.868332e-002
1.658551e+003;7.824568e-002
1.660480e+003;7.779567e-002
1.662408e+003;7.744478e-002
1.664337e+003;7.707113e-002
1.666266e+003;7.650441e-002
1.668194e+003;7.561785e-002
1.670123e+003;7.445007e-002
1.672051e+003;7.337356e-002
1.673980e+003;7.213832e-002
1.675908e+003;7.092569e-002
1.677837e+003;6.974939e-002
1.679765e+003;6.861643e-002
1.681694e+003;6.750542e-002
1.683622e+003;6.609192e-002
1.685551e+003;6.503384e-002
1.687479e+003;6.440593e-002
1.689408e+003;6.341074e-002
1.691337e+003;6.242614e-002
1.693265e+003;6.157589e-002
1.695194e+003;6.067030e-002
1.697122e+003;6.013005e-002
1.699051e+003;5.986284e-002
1.700979e+003;5.937392e-002
1.702908e+003;5.887948e-002
1.704836e+003;5.868498e-002
1.706765e+003;5.848640e-002
1.708693e+003;5.824933e-002
1.710622e+003;5.785296e-002
1.712551e+003;5.750309e-002
1.714479e+003;5.713256e-002
1.716408e+003;5.648679e-002
1.718336e+003;5.605737e-002
1.720265e+003;5.632652e-002
1.722193e+003;5.638857e-002
1.724122e+003;5.578903e-002
1.726050e+003;5.537985e-002
1.727979e+003;5.540371e-002
1.729908e+003;5.526904e-002
1.731836e+003;5.473994e-002
1.733765e+003;5.410660e-002
1.735693e+003;5.370162e-002
1.737622e+003;5.324831e-002
1.739550e+003;5.274733e-002
1.741479e+003;5.235257e-002
1.743407e+003;5.167460e-002
1.745336e+003;5.105235e-002
1.747265e+003;5.049743e-002
1.749193e+003;5.004418e-002
1.751122e+003;4.968724e-002
1.753050e+003;4.936735e-002
1.754979e+003;4.916945e-002
1.756907e+003;4.902925e-002
1.758836e+003;4.882517e-002
1.760764e+003;4.860392e-002
1.762693e+003;4.840963e-002
1.764621e+003;4.819055e-002
1.766550e+003;4.787953e-002
1.768479e+003;4.773197e-002
1.770407e+003;4.790254e-002
1.772336e+003;4.793255e-002
1.774264e+003;4.766474e-002
1.776193e+003;4.731607e-002
1.778121e+003;4.711476e-002
1.780050e+003;4.709832e-002
1.781978e+003;4.697533e-002
1.783907e+003;4.661950e-002
1.785835e+003;4.643539e-002
1.787764e+003;4.642569e-002
1.789693e+003;4.620503e-002
1.791621e+003;4.612326e-002
1.793550e+003;4.592698e-002
1.795478e+003;4.571486e-002
1.797407e+003;4.579681e-002
1.799335e+003;4.585374e-002
1.801264e+003;4.570356e-002
1.803192e+003;4.554088e-002
1.805121e+003;4.553533e-002
1.807049e+003;4.538202e-002
1.808978e+003;4.501291e-002
1.810907e+003;4.483752e-002
1.812835e+003;4.490744e-002
1.814764e+003;4.479311e-002
1.816692e+003;4.471781e-002
1.818621e+003;4.471414e-002
1.820549e+003;4.467018e-002
1.822478e+003;4.470687e-002
1.824406e+003;4.467998e-002
1.826335e+003;4.439172e-002
1.828264e+003;4.416571e-002
1.830192e+003;4.419417e-002
1.832121e+003;4.396185e-002
1.834049e+003;4.369754e-002
1.835978e+003;4.360500e-002
1.837906e+003;4.357302e-002
1.839835e+003;4.365354e-002
1.841763e+003;4.361705e-002
1.843692e+003;4.335830e-002
1.845620e+003;4.310941e-002
1.847549e+003;4.297459e-002
1.849478e+003;4.283941e-002
1.851406e+003;4.278814e-002
1.853335e+003;4.266186e-002
1.855263e+003;4.241808e-002
1.857192e+003;4.236792e-002
1.859120e+003;4.228647e-002
1.861049e+003;4.227752e-002
1.862977e+003;4.226930e-002
1.864906e+003;4.212832e-002
1.866834e+003;4.215172e-002
1.868763e+003;4.213007e-002
1.870692e+003;4.186747e-002
1.872620e+003;4.184554e-002
1.874549e+003;4.193906e-002
1.876477e+003;4.174346e-002
1.878406e+003;4.160298e-002
1.880334e+003;4.181734e-002
1.882263e+003;4.195815e-002
1.884191e+003;4.191691e-002
1.886120e+003;4.150227e-002
1.888048e+003;4.124697e-002
1.889977e+003;4.132386e-002
1.891906e+003;4.139208e-002
1.893834e+003;4.132283e-002
1.895763e+003;4.137998e-002
1.897691e+003;4.150337e-002
1.899620e+003;4.136832e-002
1.901548e+003;4.141216e-002
1.903477e+003;4.143848e-002
1.905405e+003;4.113826e-002
1.907334e+003;4.107029e-002
1.909262e+003;4.130924e-002
1.911191e+003;4.147398e-002
1.913120e+003;4.117483e-002
1.915048e+003;4.098832e-002
1.916977e+003;4.119633e-002
1.918905e+003;4.146319e-002
1.920834e+003;4.140061e-002
1.922762e+003;4.119793e-002
1.924691e+003;4.092183e-002
1.926619e+003;4.081255e-002
1.928548e+003;4.106855e-002
1.930477e+003;4.158584e-002
1.932405e+003;4.195059e-002
1.934334e+003;4.176014e-002
1.936262e+003;4.166246e-002
1.938191e+003;4.175182e-002
1.940119e+003;4.190512e-002
1.942048e+003;4.203603e-002
1.943976e+003;4.220460e-002
1.945905e+003;4.215194e-002
1.947833e+003;4.208601e-002
1.949762e+003;4.237848e-002
1.951691e+003;4.265726e-002
1.953619e+003;4.255360e-002
1.955548e+003;4.252086e-002
1.957476e+003;4.253738e-002
1.959405e+003;4.237768e-002
1.961333e+003;4.239649e-002
1.963262e+003;4.268362e-002
1.965190e+003;4.269703e-002
1.967119e+003;4.263427e-002
1.969047e+003;4.273922e-002
1.970976e+003;4.305738e-002
1.972905e+003;4.326488e-002
1.974833e+003;4.305295e-002
1.976762e+003;4.296676e-002
1.978690e+003;4.306601e-002
1.980619e+003;4.301157e-002
1.982547e+003;4.311936e-002
1.984476e+003;4.325207e-002
1.986404e+003;4.329219e-002
1.988333e+003;4.331045e-002
1.990261e+003;4.343263e-002
1.992190e+003;4.364090e-002
1.994119e+003;4.369656e-002
1.996047e+003;4.365625e-002
1.997976e+003;4.371664e-002
1.999904e+003;4.361694e-002
2.001833e+003;4.357284e-002
2.003761e+003;4.378197e-002
2.005690e+003;4.405168e-002
2.007618e+003;4.424454e-002
2.009547e+003;4.427804e-002
2.011476e+003;4.432600e-002
2.013404e+003;4.459413e-002
2.015333e+003;4.486802e-002
2.017261e+003;4.498575e-002
2.019190e+003;4.509601e-002
2.021118e+003;4.506694e-002
2.023047e+003;4.517605e-002
2.024975e+003;4.526540e-002
2.026904e+003;4.539317e-002
2.028833e+003;4.553743e-002
2.030761e+003;4.567816e-002
2.032690e+003;4.604224e-002
2.034618e+003;4.635689e-002
2.036547e+003;4.655565e-002
2.038475e+003;4.658258e-002
2.040404e+003;4.668004e-002
2.042332e+003;4.679273e-002
2.044261e+003;4.657402e-002
2.046189e+003;4.643665e-002
2.048118e+003;4.634255e-002
2.050047e+003;4.641728e-002
2.051975e+003;4.656896e-002
2.053904e+003;4.631188e-002
2.055832e+003;4.624281e-002
2.057761e+003;4.659689e-002
2.059689e+003;4.683827e-002
2.061618e+003;4.667535e-002
2.063546e+003;4.650527e-002
2.065475e+003;4.649649e-002
2.067404e+003;4.635159e-002
2.069332e+003;4.600025e-002
2.071260e+003;4.607842e-002
2.073189e+003;4.611947e-002
2.075118e+003;4.601745e-002
2.077046e+003;4.618528e-002
2.078975e+003;4.628350e-002
2.080903e+003;4.606184e-002
2.082832e+003;4.600448e-002
2.084760e+003;4.592562e-002
2.086689e+003;4.565221e-002
2.088617e+003;4.572774e-002
2.090546e+003;4.603370e-002
2.092475e+003;4.617979e-002
2.094403e+003;4.615587e-002
2.096332e+003;4.636287e-002
2.098260e+003;4.637090e-002
2.100189e+003;4.610362e-002
2.102117e+003;4.607989e-002
2.104046e+003;4.623304e-002
2.105974e+003;4.640600e-002
2.107903e+003;4.654211e-002
2.109832e+003;4.660729e-002
2.111760e+003;4.667391e-002
2.113688e+003;4.671457e-002
2.115617e+003;4.670701e-002
2.117546e+003;4.689278e-002
2.119474e+003;4.679778e-002
2.121403e+003;4.662533e-002
2.123331e+003;4.687658e-002
2.125260e+003;4.720901e-002
2.127188e+003;4.729328e-002
2.129117e+003;4.709160e-002
2.131045e+003;4.698924e-002
2.132974e+003;4.708683e-002
2.134903e+003;4.724592e-002
2.136831e+003;4.712709e-002
2.138760e+003;4.693335e-002
2.140688e+003;4.706003e-002
2.142617e+003;4.700593e-002
2.144545e+003;4.662201e-002
2.146474e+003;4.639406e-002
2.148402e+003;4.641308e-002
2.150331e+003;4.630727e-002
2.152260e+003;4.611368e-002
2.154188e+003;4.598286e-002
2.156117e+003;4.602500e-002
2.158045e+003;4.581769e-002
2.159974e+003;4.563646e-002
2.161902e+003;4.556344e-002
2.163831e+003;4.545140e-002
2.165759e+003;4.535297e-002
2.167688e+003;4.500534e-002
2.169616e+003;4.456990e-002
2.171545e+003;4.444971e-002
2.173474e+003;4.443664e-002
2.175402e+003;4.414315e-002
2.177331e+003;4.368662e-002
2.179259e+003;4.332063e-002
2.181188e+003;4.319427e-002
2.183116e+003;4.315819e-002
2.185045e+003;4.308533e-002
2.186973e+003;4.304227e-002
2.188902e+003;4.296497e-002
2.190831e+003;4.267433e-002
2.192759e+003;4.257944e-002
2.194688e+003;4.239024e-002
2.196616e+003;4.222103e-002
2.198545e+003;4.215567e-002
2.200473e+003;4.211974e-002
2.202402e+003;4.194304e-002
2.204330e+003;4.198895e-002
2.206259e+003;4.215037e-002
2.208188e+003;4.181774e-002
2.210116e+003;4.154624e-002
2.212044e+003;4.171286e-002
2.213973e+003;4.199158e-002
2.215902e+003;4.196807e-002
2.217830e+003;4.169393e-002
2.219759e+003;4.164331e-002
2.221687e+003;4.188932e-002
2.223616e+003;4.206075e-002
2.225544e+003;4.199139e-002
2.227473e+003;4.208546e-002
2.229401e+003;4.204947e-002
2.231330e+003;4.189228e-002
2.233259e+003;4.173088e-002
2.235187e+003;4.183715e-002
2.237116e+003;4.201351e-002
2.239044e+003;4.206772e-002
2.240973e+003;4.205173e-002
2.242901e+003;4.201924e-002
2.244830e+003;4.184003e-002
2.246758e+003;4.160852e-002
2.248687e+003;4.157191e-002
2.250615e+003;4.131394e-002
2.252544e+003;4.107962e-002
2.254473e+003;4.121877e-002
2.256401e+003;4.119870e-002
2.258330e+003;4.086639e-002
2.260258e+003;4.051939e-002
2.262187e+003;4.037693e-002
2.264115e+003;4.054601e-002
2.266044e+003;4.054590e-002
2.267972e+003;4.034839e-002
2.269901e+003;4.019221e-002
2.271830e+003;3.997676e-002
2.273758e+003;3.975282e-002
2.275687e+003;3.973292e-002
2.277615e+003;3.957588e-002
2.279544e+003;3.942056e-002
2.281472e+003;3.913798e-002
2.283401e+003;3.904488e-002
2.285329e+003;3.934300e-002
2.287258e+003;3.965911e-002
2.289187e+003;3.971372e-002
2.291115e+003;3.961657e-002
2.293043e+003;3.980605e-002
2.294972e+003;4.003010e-002
2.296901e+003;4.003242e-002
2.298829e+003;3.965316e-002
2.300758e+003;3.915843e-002
2.302686e+003;3.906909e-002
2.304615e+003;3.893904e-002
2.306543e+003;3.902066e-002
2.308472e+003;3.935029e-002
2.310400e+003;3.946973e-002
2.312329e+003;3.957860e-002
2.314258e+003;3.958692e-002
2.316186e+003;3.958895e-002
2.318115e+003;3.982269e-002
2.320043e+003;3.992631e-002
2.321972e+003;3.979120e-002
2.323900e+003;3.987687e-002
2.325829e+003;3.990993e-002
2.327757e+003;3.994901e-002
2.329686e+003;4.018985e-002
2.331615e+003;4.026669e-002
2.333543e+003;4.015154e-002
2.335472e+003;4.013817e-002
2.337400e+003;4.032759e-002
2.339329e+003;4.052110e-002
2.341257e+003;4.074991e-002
2.343186e+003;4.083607e-002
2.345114e+003;4.095759e-002
2.347043e+003;4.138665e-002
2.348971e+003;4.151190e-002
2.350900e+003;4.148532e-002
2.352829e+003;4.159824e-002
2.354757e+003;4.183310e-002
2.356686e+003;4.198472e-002
2.358614e+003;4.196819e-002
2.360543e+003;4.192432e-002
2.362471e+003;4.195574e-002
2.364400e+003;4.250610e-002
2.366328e+003;4.294807e-002
2.368257e+003;4.282935e-002
2.370186e+003;4.280076e-002
2.372114e+003;4.308727e-002
2.374042e+003;4.316811e-002
2.375971e+003;4.338346e-002
2.377900e+003;4.360511e-002
2.379828e+003;4.360353e-002
2.381757e+003;4.356159e-002
2.383685e+003;4.360665e-002
2.385614e+003;4.397882e-002
2.387542e+003;4.424094e-002
2.389471e+003;4.421882e-002
2.391399e+003;4.435814e-002
2.393328e+003;4.473555e-002
2.395257e+003;4.505933e-002
2.397185e+003;4.498295e-002
2.399114e+003;4.470180e-002
2.401042e+003;4.483962e-002
2.402971e+003;4.506749e-002
2.404899e+003;4.523013e-002
2.406828e+003;4.522723e-002
2.408756e+003;4.538313e-002
2.410685e+003;4.604821e-002
2.412614e+003;4.634510e-002
2.414542e+003;4.643417e-002
2.416471e+003;4.675505e-002
2.418399e+003;4.675594e-002
2.420328e+003;4.669764e-002
2.422256e+003;4.711516e-002
2.424185e+003;4.741658e-002
2.426113e+003;4.757035e-002
2.428042e+003;4.765021e-002
2.429970e+003;4.778701e-002
2.431899e+003;4.808705e-002
2.433828e+003;4.848535e-002
2.435756e+003;4.885520e-002
2.437685e+003;4.920062e-002
2.439613e+003;4.920085e-002
2.441542e+003;4.905199e-002
2.443470e+003;4.932837e-002
2.445399e+003;4.973079e-002
2.447327e+003;4.979417e-002
2.449256e+003;4.984497e-002
2.451185e+003;5.008467e-002
2.453113e+003;5.024206e-002
2.455042e+003;5.045083e-002
2.456970e+003;5.073830e-002
2.458899e+003;5.086516e-002
2.460827e+003;5.072434e-002
2.462756e+003;5.093241e-002
2.464684e+003;5.133538e-002
2.466613e+003;5.160982e-002
2.468542e+003;5.181599e-002
2.470470e+003;5.193156e-002
2.472398e+003;5.208910e-002
2.474327e+003;5.219890e-002
2.476256e+003;5.246125e-002
2.478184e+003;5.272514e-002
2.480113e+003;5.299908e-002
2.482041e+003;5.330090e-002
2.483970e+003;5.350009e-002
2.485898e+003;5.356201e-002
2.487827e+003;5.377808e-002
2.489755e+003;5.417769e-002
2.491684e+003;5.434382e-002
2.493613e+003;5.443489e-002
2.495541e+003;5.463858e-002
2.497470e+003;5.484072e-002
2.499398e+003;5.480782e-002
2.501327e+003;5.480955e-002
2.503255e+003;5.521049e-002
2.505184e+003;5.550170e-002
2.507112e+003;5.545750e-002
2.509041e+003;5.556910e-002
2.510969e+003;5.617478e-002
2.512898e+003;5.679049e-002
2.514827e+003;5.711212e-002
2.516755e+003;5.726403e-002
2.518684e+003;5.731000e-002
2.520612e+003;5.722664e-002
2.522541e+003;5.739451e-002
2.524469e+003;5.737602e-002
2.526398e+003;5.707671e-002
2.528326e+003;5.731567e-002
2.530255e+003;5.783399e-002
2.532184e+003;5.806072e-002
2.534112e+003;5.784815e-002
2.536041e+003;5.751932e-002
2.537969e+003;5.761079e-002
2.539898e+003;5.797033e-002
2.541826e+003;5.832118e-002
2.543755e+003;5.845368e-002
2.545683e+003;5.809371e-002
2.547612e+003;5.790835e-002
2.549541e+003;5.805784e-002
2.551469e+003;5.844409e-002
2.553397e+003;5.879142e-002
2.555326e+003;5.881058e-002
2.557255e+003;5.884992e-002
2.559183e+003;5.883976e-002
2.561112e+003;5.862730e-002
2.563040e+003;5.857250e-002
2.564969e+003;5.913686e-002
2.566897e+003;5.941032e-002
2.568826e+003;5.924512e-002
2.570754e+003;5.931288e-002
2.572683e+003;5.917035e-002
2.574612e+003;5.906879e-002
2.576540e+003;5.903732e-002
2.578469e+003;5.890597e-002
2.580397e+003;5.919997e-002
2.582326e+003;5.977070e-002
2.584254e+003;6.014927e-002
2.586183e+003;6.006304e-002
2.588111e+003;6.019311e-002
2.590040e+003;6.063346e-002
2.591969e+003;6.077170e-002
2.593897e+003;6.100630e-002
2.595826e+003;6.139972e-002
2.597754e+003;6.157177e-002
2.599683e+003;6.149347e-002
2.601611e+003;6.146316e-002
2.603540e+003;6.164684e-002
2.605468e+003;6.198015e-002
2.607397e+003;6.214777e-002
2.609325e+003;6.233174e-002
2.611254e+003;6.267063e-002
2.613183e+003;6.272484e-002
2.615111e+003;6.275454e-002
2.617040e+003;6.294356e-002
2.618968e+003;6.302507e-002
2.620897e+003;6.299837e-002
2.622825e+003;6.326625e-002
2.624754e+003;6.382646e-002
2.626682e+003;6.405404e-002
2.628611e+003;6.405842e-002
2.630540e+003;6.432888e-002
2.632468e+003;6.446204e-002
2.634396e+003;6.496219e-002
2.636325e+003;6.525989e-002
2.638254e+003;6.516552e-002
2.640182e+003;6.535143e-002
2.642111e+003;6.573783e-002
2.644039e+003;6.637613e-002
2.645968e+003;6.673898e-002
2.647896e+003;6.650856e-002
2.649825e+003;6.673156e-002
2.651753e+003;6.738046e-002
2.653682e+003;6.761315e-002
2.655611e+003;6.755322e-002
2.657539e+003;6.769702e-002
2.659468e+003;6.831016e-002
2.661396e+003;6.865907e-002
2.663325e+003;6.847159e-002
2.665253e+003;6.838924e-002
2.667182e+003;6.848264e-002
2.669110e+003;6.882548e-002
2.671039e+003;6.923096e-002
2.672968e+003;6.925517e-002
2.674896e+003;6.912542e-002
2.676825e+003;6.962790e-002
2.678753e+003;7.030093e-002
2.680682e+003;7.061409e-002
2.682610e+003;7.099295e-002
2.684539e+003;7.135269e-002
2.686467e+003;7.183859e-002
2.688396e+003;7.239781e-002
2.690324e+003;7.268628e-002
2.692253e+003;7.271386e-002
2.694182e+003;7.251228e-002
2.696110e+003;7.256831e-002
2.698039e+003;7.290123e-002
2.699967e+003;7.351024e-002
2.701896e+003;7.404005e-002
2.703824e+003;7.427969e-002
2.705753e+003;7.415488e-002
2.707681e+003;7.421596e-002
2.709610e+003;7.489327e-002
2.711539e+003;7.545623e-002
2.713467e+003;7.574612e-002
2.715396e+003;7.580782e-002
2.717324e+003;7.598440e-002
2.719253e+003;7.610800e-002
2.721181e+003;7.617445e-002
2.723110e+003;7.639354e-002
2.725038e+003;7.693069e-002
2.726967e+003;7.722899e-002
2.728896e+003;7.734265e-002
2.730824e+003;7.751967e-002
2.732752e+003;7.785676e-002
2.734681e+003;7.785279e-002
2.736610e+003;7.782909e-002
2.738538e+003;7.786690e-002
2.740467e+003;7.789279e-002
2.742395e+003;7.800107e-002
2.744324e+003;7.848149e-002
2.746252e+003;7.881364e-002
2.748181e+003;7.868625e-002
2.750109e+003;7.864114e-002
2.752038e+003;7.914931e-002
2.753967e+003;7.922971e-002
2.755895e+003;7.886004e-002
2.757824e+003;7.898307e-002
2.759752e+003;7.957254e-002
2.761681e+003;8.023869e-002
2.763609e+003;8.054195e-002
2.765538e+003;8.050773e-002
2.767466e+003;8.062667e-002
2.769395e+003;8.076393e-002
2.771323e+003;8.081438e-002
2.773252e+003;8.121506e-002
2.775181e+003;8.170345e-002
2.777109e+003;8.206258e-002
2.779038e+003;8.249455e-002
2.780966e+003;8.286495e-002
2.782895e+003;8.278067e-002
2.784823e+003;8.292819e-002
2.786752e+003;8.374844e-002
2.788680e+003;8.450812e-002
2.790609e+003;8.479421e-002
2.792538e+003;8.502748e-002
2.794466e+003;8.549637e-002
2.796395e+003;8.594768e-002
2.798323e+003;8.614308e-002
2.800252e+003;8.625169e-002
2.802180e+003;8.692919e-002
2.804109e+003;8.761163e-002
2.806037e+003;8.789226e-002
2.807966e+003;8.859012e-002
2.809895e+003;8.953998e-002
2.811823e+003;9.018976e-002
2.813751e+003;9.064864e-002
2.815680e+003;9.107412e-002
2.817609e+003;9.188072e-002
2.819537e+003;9.301306e-002
2.821466e+003;9.391864e-002
2.823394e+003;9.453522e-002
2.825323e+003;9.542104e-002
2.827251e+003;9.653448e-002
2.829180e+003;9.764704e-002
2.831108e+003;9.852981e-002
2.833037e+003;9.943070e-002
2.834966e+003;1.006718e-001
2.836894e+003;1.019399e-001
2.838823e+003;1.033467e-001
2.840751e+003;1.050771e-001
2.842680e+003;1.067784e-001
2.844608e+003;1.082659e-001
2.846537e+003;1.097082e-001
2.848465e+003;1.117956e-001
2.850394e+003;1.141337e-001
2.852323e+003;1.160847e-001
2.854251e+003;1.175396e-001
2.856180e+003;1.186082e-001
2.858108e+003;1.198600e-001
2.860037e+003;1.213699e-001
2.861965e+003;1.228378e-001
2.863894e+003;1.241240e-001
2.865822e+003;1.252081e-001
2.867751e+003;1.262602e-001
2.869679e+003;1.273747e-001
2.871608e+003;1.279422e-001
2.873536e+003;1.284768e-001
2.875465e+003;1.293492e-001
2.877394e+003;1.299661e-001
2.879322e+003;1.302447e-001
2.881251e+003;1.306919e-001
2.883179e+003;1.316735e-001
2.885108e+003;1.325098e-001
2.887036e+003;1.330888e-001
2.888965e+003;1.330493e-001
2.890893e+003;1.332147e-001
2.892822e+003;1.336959e-001
2.894750e+003;1.342914e-001
2.896679e+003;1.350677e-001
2.898608e+003;1.355782e-001
2.900536e+003;1.350105e-001
2.902465e+003;1.342351e-001
2.904393e+003;1.338611e-001
2.906322e+003;1.331094e-001
2.908250e+003;1.321921e-001
2.910179e+003;1.312309e-001
2.912107e+003;1.299082e-001
2.914036e+003;1.280670e-001
2.915965e+003;1.264264e-001
2.917893e+003;1.245023e-001
2.919822e+003;1.223926e-001
2.921750e+003;1.206768e-001
2.923679e+003;1.191872e-001
2.925607e+003;1.182216e-001
2.927536e+003;1.169268e-001
2.929464e+003;1.153043e-001
2.931393e+003;1.141359e-001
2.933322e+003;1.132603e-001
2.935250e+003;1.122217e-001
2.937178e+003;1.110562e-001
2.939107e+003;1.099543e-001
2.941036e+003;1.088612e-001
2.942964e+003;1.076385e-001
2.944893e+003;1.066957e-001
2.946821e+003;1.058063e-001
2.948750e+003;1.045923e-001
2.950678e+003;1.035833e-001
2.952607e+003;1.022435e-001
2.954535e+003;1.003990e-001
2.956464e+003;9.886251e-002
2.958393e+003;9.778763e-002
2.960321e+003;9.657367e-002
2.962250e+003;9.546582e-002
2.964178e+003;9.467781e-002
2.966107e+003;9.371199e-002
2.968035e+003;9.266273e-002
2.969964e+003;9.190077e-002
2.971892e+003;9.028418e-002
2.973821e+003;8.861507e-002
2.975750e+003;8.717948e-002
2.977678e+003;8.532277e-002
2.979607e+003;8.391780e-002
2.981535e+003;8.328503e-002
2.983464e+003;8.252640e-002
2.985392e+003;8.143835e-002
2.987321e+003;8.048197e-002
2.989249e+003;7.996296e-002
2.991178e+003;7.952490e-002
2.993106e+003;7.910880e-002
2.995035e+003;7.879128e-002
2.996964e+003;7.867935e-002
2.998892e+003;7.838143e-002
3.000821e+003;7.798120e-002
3.002749e+003;7.797636e-002
3.004678e+003;7.798377e-002
3.006606e+003;7.783499e-002
3.008535e+003;7.804845e-002
3.010463e+003;7.860071e-002
3.012392e+003;7.888714e-002
3.014321e+003;7.914143e-002
3.016249e+003;7.913909e-002
3.018177e+003;7.916167e-002
3.020106e+003;7.938537e-002
3.022035e+003;7.930893e-002
3.023963e+003;7.955594e-002
3.025892e+003;8.053489e-002
3.027820e+003;8.121954e-002
3.029749e+003;8.119889e-002
3.031677e+003;8.107319e-002
3.033606e+003;8.156166e-002
3.035534e+003;8.236271e-002
3.037463e+003;8.289643e-002
3.039392e+003;8.315790e-002
3.041320e+003;8.324321e-002
3.043249e+003;8.365764e-002
3.045177e+003;8.460933e-002
3.047106e+003;8.518617e-002
3.049034e+003;8.530229e-002
3.050963e+003;8.553305e-002
3.052891e+003;8.588756e-002
3.054820e+003;8.604301e-002
3.056749e+003;8.660517e-002
3.058677e+003;8.759351e-002
3.060606e+003;8.827091e-002
3.062534e+003;8.829458e-002
3.064463e+003;8.825114e-002
3.066391e+003;8.859044e-002
3.068320e+003;8.918033e-002
3.070248e+003;8.956393e-002
3.072177e+003;9.022259e-002
3.074105e+003;9.122583e-002
3.076034e+003;9.196310e-002
3.077963e+003;9.229236e-002
3.079891e+003;9.263800e-002
3.081820e+003;9.289961e-002
3.083748e+003;9.334201e-002
3.085677e+003;9.400824e-002
3.087605e+003;9.427414e-002
3.089534e+003;9.451342e-002
3.091462e+003;9.522936e-002
3.093391e+003;9.618767e-002
3.095320e+003;9.658563e-002
3.097248e+003;9.692128e-002
3.099177e+003;9.736937e-002
3.101105e+003;9.797803e-002
3.103034e+003;9.830301e-002
3.104962e+003;9.886701e-002
3.106891e+003;9.948757e-002
3.108819e+003;1.000743e-001
3.110748e+003;1.008656e-001
3.112677e+003;1.014971e-001
3.114605e+003;1.020667e-001
3.116533e+003;1.026282e-001
3.118462e+003;1.030476e-001
3.120391e+003;1.032239e-001
3.122319e+003;1.037973e-001
3.124248e+003;1.046494e-001
3.126176e+003;1.051817e-001
3.128105e+003;1.061996e-001
3.130033e+003;1.076310e-001
3.131962e+003;1.080611e-001
3.133890e+003;1.079083e-001
3.135819e+003;1.083724e-001
3.137748e+003;1.096390e-001
3.139676e+003;1.103642e-001
3.141605e+003;1.103259e-001
3.143533e+003;1.108892e-001
3.145462e+003;1.118698e-001
3.147390e+003;1.126434e-001
3.149319e+003;1.133316e-001
3.151247e+003;1.139064e-001
3.153176e+003;1.143188e-001
3.155104e+003;1.150879e-001
3.157033e+003;1.159031e-001
3.158962e+003;1.168033e-001
3.160890e+003;1.173880e-001
3.162819e+003;1.174799e-001
3.164747e+003;1.178218e-001
3.166676e+003;1.191717e-001
3.168604e+003;1.207371e-001
3.170533e+003;1.216249e-001
3.172461e+003;1.221046e-001
3.174390e+003;1.225219e-001
3.176319e+003;1.232475e-001
3.178247e+003;1.245683e-001
3.180176e+003;1.260304e-001
3.182104e+003;1.266799e-001
3.184033e+003;1.267988e-001
3.185961e+003;1.273358e-001
3.187890e+003;1.285175e-001
3.189818e+003;1.295019e-001
3.191747e+003;1.301923e-001
3.193676e+003;1.308460e-001
3.195604e+003;1.314371e-001
3.197532e+003;1.323467e-001
3.199461e+003;1.333988e-001
3.201390e+003;1.346922e-001
3.203318e+003;1.356270e-001
3.205247e+003;1.360554e-001
3.207175e+003;1.368090e-001
3.209104e+003;1.379341e-001
3.211032e+003;1.386512e-001
3.212961e+003;1.392252e-001
3.214889e+003;1.402771e-001
3.216818e+003;1.415617e-001
3.218747e+003;1.427379e-001
3.220675e+003;1.439991e-001
3.222604e+003;1.454106e-001
3.224532e+003;1.471417e-001
3.226461e+003;1.482167e-001
3.228389e+003;1.486011e-001
3.230318e+003;1.497158e-001
3.232246e+003;1.508721e-001
3.234175e+003;1.517574e-001
3.236104e+003;1.530843e-001
3.238032e+003;1.540435e-001
3.239961e+003;1.552406e-001
3.241889e+003;1.571721e-001
3.243818e+003;1.590585e-001
3.245746e+003;1.603466e-001
3.247675e+003;1.612553e-001
3.249603e+003;1.624748e-001
3.251532e+003;1.643924e-001
3.253460e+003;1.661406e-001
3.255389e+003;1.677662e-001
3.257318e+003;1.692457e-001
3.259246e+003;1.709498e-001
3.261175e+003;1.724315e-001
3.263103e+003;1.728599e-001
3.265032e+003;1.742308e-001
3.266960e+003;1.762447e-001
3.268889e+003;1.772960e-001
3.270817e+003;1.780707e-001
3.272746e+003;1.791621e-001
3.274675e+003;1.801924e-001
3.276603e+003;1.804370e-001
3.278531e+003;1.807006e-001
3.280460e+003;1.812822e-001
3.282389e+003;1.820118e-001
3.284317e+003;1.826064e-001
3.286246e+003;1.831795e-001
3.288174e+003;1.834667e-001
3.290103e+003;1.836901e-001
3.292031e+003;1.843369e-001
3.293960e+003;1.845382e-001
3.295888e+003;1.844754e-001
3.297817e+003;1.842729e-001
3.299746e+003;1.835491e-001
3.301674e+003;1.835169e-001
3.303603e+003;1.840965e-001
3.305531e+003;1.851767e-001
3.307460e+003;1.857100e-001
3.309388e+003;1.850098e-001
3.311317e+003;1.855050e-001
3.313245e+003;1.871116e-001
3.315174e+003;1.880017e-001
3.317103e+003;1.884334e-001
3.319031e+003;1.886681e-001
3.320960e+003;1.887423e-001
3.322888e+003;1.895538e-001
3.324817e+003;1.905932e-001
3.326745e+003;1.906117e-001
3.328674e+003;1.906661e-001
3.330602e+003;1.918032e-001
3.332531e+003;1.928383e-001
3.334459e+003;1.926614e-001
3.336388e+003;1.921065e-001
3.338317e+003;1.917212e-001
3.340245e+003;1.909249e-001
3.342174e+003;1.894979e-001
3.344102e+003;1.883335e-001
3.346031e+003;1.872637e-001
3.347959e+003;1.860791e-001
3.349888e+003;1.852653e-001
3.351816e+003;1.843839e-001
3.353745e+003;1.827148e-001
3.355674e+003;1.815250e-001
3.357602e+003;1.812940e-001
3.359531e+003;1.801707e-001
3.361459e+003;1.783195e-001
3.363388e+003;1.768208e-001
3.365316e+003;1.763316e-001
3.367245e+003;1.757058e-001
3.369173e+003;1.741633e-001
3.371102e+003;1.729778e-001
3.373031e+003;1.727810e-001
3.374959e+003;1.720439e-001
3.376887e+003;1.709582e-001
3.378816e+003;1.704052e-001
3.380745e+003;1.693643e-001
3.382673e+003;1.679340e-001
3.384602e+003;1.673324e-001
3.386530e+003;1.666031e-001
3.388459e+003;1.655069e-001
3.390387e+003;1.651175e-001
3.392316e+003;1.647926e-001
3.394244e+003;1.640835e-001
3.396173e+003;1.633521e-001
3.398102e+003;1.629169e-001
3.400030e+003;1.623719e-001
3.401959e+003;1.611195e-001
3.403887e+003;1.600761e-001
3.405816e+003;1.589671e-001
3.407744e+003;1.574058e-001
3.409673e+003;1.562846e-001
3.411601e+003;1.552806e-001
3.413530e+003;1.541683e-001
3.415458e+003;1.532046e-001
3.417387e+003;1.521657e-001
3.419316e+003;1.511443e-001
3.421244e+003;1.499258e-001
3.423173e+003;1.489103e-001
3.425101e+003;1.479429e-001
3.427030e+003;1.465880e-001
3.428958e+003;1.451908e-001
3.430887e+003;1.440579e-001
3.432815e+003;1.426335e-001
3.434744e+003;1.412195e-001
3.436673e+003;1.402826e-001
3.438601e+003;1.390711e-001
3.440530e+003;1.374726e-001
3.442458e+003;1.370260e-001
3.444387e+003;1.361462e-001
3.446315e+003;1.342395e-001
3.448244e+003;1.328715e-001
3.450172e+003;1.321039e-001
3.452101e+003;1.311524e-001
3.454030e+003;1.297596e-001
3.455958e+003;1.280540e-001
3.457886e+003;1.270473e-001
3.459815e+003;1.260892e-001
3.461744e+003;1.248375e-001
3.463672e+003;1.232963e-001
3.465601e+003;1.220767e-001
3.467529e+003;1.214726e-001
3.469458e+003;1.206343e-001
3.471386e+003;1.191284e-001
3.473315e+003;1.172960e-001
3.475243e+003;1.157307e-001
3.477172e+003;1.148212e-001
3.479101e+003;1.140265e-001
3.481029e+003;1.130282e-001
3.482958e+003;1.115686e-001
3.484886e+003;1.103664e-001
3.486815e+003;1.092420e-001
3.488743e+003;1.076588e-001
3.490672e+003;1.064181e-001
3.492600e+003;1.057331e-001
3.494529e+003;1.047812e-001
3.496458e+003;1.040692e-001
3.498386e+003;1.033470e-001
3.500315e+003;1.017043e-001
3.502243e+003;9.988289e-002
3.504172e+003;9.854124e-002
3.506100e+003;9.708814e-002
3.508029e+003;9.629957e-002
3.509957e+003;9.555170e-002
3.511886e+003;9.414461e-002
3.513814e+003;9.289871e-002
3.515743e+003;9.194610e-002
3.517672e+003;9.086277e-002
3.519600e+003;8.961517e-002
3.521529e+003;8.847494e-002
3.523457e+003;8.677423e-002
3.525386e+003;8.625759e-002
3.527314e+003;8.600160e-002
3.529243e+003;8.457655e-002
3.531171e+003;8.337399e-002
3.533100e+003;8.242168e-002
3.535029e+003;8.111780e-002
3.536957e+003;8.034057e-002
3.538885e+003;8.013407e-002
3.540814e+003;7.900807e-002
3.542743e+003;7.754878e-002
3.544671e+003;7.653192e-002
3.546600e+003;7.585228e-002
3.548528e+003;7.520941e-002
3.550457e+003;7.383020e-002
3.552385e+003;7.247156e-002
3.554314e+003;7.179219e-002
3.556242e+003;7.117754e-002
3.558171e+003;6.988722e-002
3.560100e+003;6.901021e-002
3.562028e+003;6.851776e-002
3.563957e+003;6.765818e-002
3.565885e+003;6.684505e-002
3.567814e+003;6.566386e-002
3.569742e+003;6.419457e-002
3.571671e+003;6.278835e-002
3.573599e+003;6.159922e-002
3.575528e+003;6.107986e-002
3.577457e+003;6.081427e-002
3.579385e+003;6.029307e-002
3.581314e+003;5.927057e-002
3.583242e+003;5.808128e-002
3.585171e+003;5.689291e-002
3.587099e+003;5.566280e-002
3.589028e+003;5.489155e-002
3.590956e+003;5.429659e-002
3.592885e+003;5.335706e-002
3.594813e+003;5.167759e-002
3.596742e+003;5.003195e-002
3.598671e+003;4.934200e-002
3.600599e+003;4.849769e-002
3.602528e+003;4.766393e-002
3.604456e+003;4.701498e-002
3.606385e+003;4.608859e-002
3.608313e+003;4.524804e-002
3.610242e+003;4.419894e-002
3.612170e+003;4.331690e-002
3.614099e+003;4.261862e-002
3.616028e+003;4.122536e-002
3.617956e+003;3.946701e-002
3.619885e+003;3.830834e-002
3.621813e+003;3.753627e-002
3.623742e+003;3.711746e-002
3.625670e+003;3.671026e-002
3.627599e+003;3.631641e-002
3.629527e+003;3.586656e-002
3.631456e+003;3.505478e-002
3.633385e+003;3.364819e-002
3.635313e+003;3.248639e-002
3.637241e+003;3.216008e-002
3.639170e+003;3.140894e-002
3.641099e+003;2.989853e-002
3.643027e+003;2.873818e-002
3.644956e+003;2.815050e-002
3.646884e+003;2.740456e-002
3.648813e+003;2.711769e-002
3.650741e+003;2.639894e-002
3.652670e+003;2.561227e-002
3.654598e+003;2.533913e-002
3.656527e+003;2.526906e-002
3.658456e+003;2.465505e-002
3.660384e+003;2.370700e-002
3.662313e+003;2.333641e-002
3.664241e+003;2.277460e-002
3.666170e+003;2.201182e-002
3.668098e+003;2.116069e-002
3.670027e+003;2.034442e-002
3.671955e+003;2.008764e-002
3.673884e+003;2.029195e-002
3.675813e+003;1.975965e-002
3.677741e+003;1.918060e-002
3.679669e+003;1.877987e-002
3.681598e+003;1.846230e-002
3.683527e+003;1.823871e-002
3.685455e+003;1.796733e-002
3.687384e+003;1.784033e-002
3.689312e+003;1.775776e-002
3.691241e+003;1.759152e-002
3.693169e+003;1.730410e-002
3.695098e+003;1.726859e-002
3.697026e+003;1.715789e-002
3.698955e+003;1.756820e-002
3.700884e+003;1.729724e-002
3.702812e+003;1.639620e-002
3.704741e+003;1.601759e-002
3.706669e+003;1.580793e-002
3.708598e+003;1.572781e-002
3.710526e+003;1.575409e-002
3.712455e+003;1.565395e-002
3.714383e+003;1.575038e-002
3.716312e+003;1.590890e-002
3.718240e+003;1.572788e-002
3.720169e+003;1.603406e-002
3.722098e+003;1.608082e-002
3.724026e+003;1.588199e-002
3.725955e+003;1.616146e-002
3.727883e+003;1.643398e-002
3.729812e+003;1.590770e-002
3.731740e+003;1.495219e-002
3.733669e+003;1.418601e-002
3.735597e+003;1.375477e-002
3.737526e+003;1.388947e-002
3.739455e+003;1.415499e-002
3.741383e+003;1.400265e-002
3.743312e+003;1.341820e-002
3.745240e+003;1.328426e-002
3.747169e+003;1.409085e-002
3.749097e+003;1.417478e-002
3.751026e+003;1.374328e-002
3.752954e+003;1.373818e-002
3.754883e+003;1.384548e-002
3.756812e+003;1.397870e-002
3.758740e+003;1.432769e-002
3.760668e+003;1.450214e-002
3.762597e+003;1.417885e-002
3.764526e+003;1.344998e-002
3.766454e+003;1.355566e-002
3.768383e+003;1.405340e-002
3.770311e+003;1.460986e-002
3.772240e+003;1.485107e-002
3.774168e+003;1.408458e-002
3.776097e+003;1.337818e-002
3.778025e+003;1.321358e-002
3.779954e+003;1.328231e-002
3.781883e+003;1.351823e-002
3.783811e+003;1.341837e-002
3.785740e+003;1.317017e-002
3.787668e+003;1.328610e-002
3.789597e+003;1.401439e-002
3.791525e+003;1.413442e-002
3.793454e+003;1.415297e-002
3.795382e+003;1.442081e-002
3.797311e+003;1.418857e-002
3.799240e+003;1.350405e-002
3.801168e+003;1.333458e-002
3.803097e+003;1.310644e-002
3.805025e+003;1.308636e-002
3.806954e+003;1.328043e-002
3.808882e+003;1.364486e-002
3.810811e+003;1.406213e-002
3.812739e+003;1.420997e-002
3.814668e+003;1.412086e-002
3.816596e+003;1.350015e-002
3.818525e+003;1.349872e-002
3.820454e+003;1.394814e-002
3.822382e+003;1.418710e-002
3.824311e+003;1.395779e-002
3.826239e+003;1.333844e-002
3.828168e+003;1.326943e-002
3.830096e+003;1.367687e-002
3.832025e+003;1.397932e-002
3.833953e+003;1.392016e-002
3.835882e+003;1.372864e-002
3.837811e+003;1.387832e-002
3.839739e+003;1.435629e-002
3.841667e+003;1.448241e-002
3.843596e+003;1.420230e-002
3.845525e+003;1.439783e-002
3.847453e+003;1.535184e-002
3.849382e+003;1.558354e-002
3.851310e+003;1.492359e-002
3.853239e+003;1.424948e-002
3.855167e+003;1.451968e-002
3.857096e+003;1.528597e-002
3.859024e+003;1.517993e-002
3.860953e+003;1.510888e-002
3.862882e+003;1.484222e-002
3.864810e+003;1.445664e-002
3.866739e+003;1.470829e-002
3.868667e+003;1.476091e-002
3.870596e+003;1.498069e-002
3.872524e+003;1.552409e-002
3.874453e+003;1.532026e-002
3.876381e+003;1.540210e-002
3.878310e+003;1.582463e-002
3.880239e+003;1.589340e-002
3.882167e+003;1.569345e-002
3.884096e+003;1.613601e-002
3.886024e+003;1.590759e-002
3.887953e+003;1.536657e-002
3.889881e+003;1.542256e-002
3.891810e+003;1.578089e-002
3.893738e+003;1.612590e-002
3.895667e+003;1.603461e-002
3.897595e+003;1.550259e-002
3.899524e+003;1.598628e-002
3.901453e+003;1.723780e-002
3.903381e+003;1.676629e-002
3.905310e+003;1.633430e-002
3.907238e+003;1.678468e-002
3.909167e+003;1.665775e-002
3.911095e+003;1.622980e-002
3.913024e+003;1.659551e-002
3.914952e+003;1.782469e-002
3.916881e+003;1.816974e-002
3.918810e+003;1.739445e-002
3.920738e+003;1.685914e-002
3.922667e+003;1.621989e-002
3.924595e+003;1.594805e-002
3.926524e+003;1.604781e-002
3.928452e+003;1.667191e-002
3.930381e+003;1.709358e-002
3.932309e+003;1.680858e-002
3.934238e+003;1.694203e-002
3.936167e+003;1.671870e-002
3.938095e+003;1.632195e-002
3.940023e+003;1.625150e-002
3.941952e+003;1.679804e-002
3.943881e+003;1.720667e-002
3.945809e+003;1.747278e-002
3.947738e+003;1.759294e-002
3.949666e+003;1.815147e-002
3.951595e+003;1.852150e-002
3.953523e+003;1.799727e-002
3.955452e+003;1.788156e-002
3.957380e+003;1.813747e-002
3.959309e+003;1.835207e-002
3.961238e+003;1.885326e-002
3.963166e+003;1.863887e-002
3.965095e+003;1.796322e-002
3.967023e+003;1.792047e-002
3.968952e+003;1.794247e-002
3.970880e+003;1.830395e-002
3.972809e+003;1.887035e-002
3.974737e+003;1.898363e-002
3.976666e+003;1.870359e-002
3.978594e+003;1.836872e-002
3.980523e+003;1.898927e-002
3.982452e+003;1.948743e-002
3.984380e+003;1.903268e-002
3.986309e+003;1.880516e-002
3.988237e+003;1.893694e-002
3.990166e+003;1.891316e-002
3.992094e+003;1.901998e-002
3.994023e+003;1.874911e-002
3.995951e+003;1.825758e-002
3.997880e+003;1.820637e-002
3.999809e+003;1.907554e-002
4.001737e+003;0.000000e+000
